Data from USB4F104151__82__11-06-34-642.txt Node

Date: Wed Mar 12 11:06:34 EDT 2025
User: louis
Spectrometer: USB4F10415
Trigger mode: 4
Integration Time (sec): 2.000000E-2
Scans to average: 1
Electric dark correction enabled: true
Nonlinearity correction enabled: false
Boxcar width: 0
XAxis mode: Wavelengths
Number of Pixels in Spectrum: 3648
>>>>>Begin Spectral Data<<<<<
178.204	-106.84
178.424	-106.84
178.644	-106.84
178.864	-61.78
179.084	-86.36
179.304	30.38
179.524	61.1
179.744	79.53
179.964	30.38
180.184	-88.4
180.404	40.62
180.624	-67.92
180.844	24.23
181.064	-55.64
181.283	-72.02
181.503	-12.63
181.723	30.38
181.943	32.43
182.163	22.19
182.383	-24.92
182.602	16.04
182.822	118.44
183.042	46.76
183.262	46.76
183.482	-31.06
183.701	71.34
183.921	16.04
184.141	28.33
184.361	71.34
184.58	-18.77
184.8	36.52
185.02	-18.77
185.239	77.48
185.459	61.1
185.679	50.86
185.898	-76.12
186.118	26.28
186.338	3.75
186.557	-6.49
186.777	79.53
186.997	-6.49
187.216	59.05
187.436	54.95
187.655	-10.58
187.875	102.06
188.095	5.8
188.314	95.91
188.534	5.8
188.753	34.47
188.973	44.71
189.192	106.15
189.412	44.71
189.631	124.58
189.851	20.14
190.07	13.99
190.29	42.67
190.509	36.52
190.729	75.43
190.948	63.15
191.168	69.29
191.387	73.39
191.607	38.57
191.826	22.19
192.045	28.33
192.265	71.34
192.484	7.85
192.704	40.62
192.923	-0.34
193.142	50.86
193.362	46.76
193.581	61.1
193.8	54.95
194.02	-16.73
194.239	-8.53
194.458	100.01
194.678	-0.34
194.897	63.15
195.116	11.95
195.335	-61.78
195.555	18.09
195.774	34.47
195.993	75.43
196.212	77.48
196.432	63.15
196.651	9.9
196.87	13.99
197.089	18.09
197.308	36.52
197.528	34.47
197.747	-0.34
197.966	22.19
198.185	59.05
198.404	-2.39
198.623	71.34
198.842	-24.92
199.062	46.76
199.281	34.47
199.5	-22.87
199.719	59.05
199.938	26.28
200.157	11.95
200.376	44.71
200.595	13.99
200.814	67.24
201.033	20.14
201.252	38.57
201.471	61.1
201.69	65.19
201.909	36.52
202.128	16.04
202.347	22.19
202.566	5.8
202.785	-20.82
203.004	5.8
203.223	71.34
203.442	91.82
203.661	67.24
203.879	50.86
204.098	44.71
204.317	-63.83
204.536	38.57
204.755	38.57
204.974	89.77
205.193	36.52
205.411	30.38
205.63	63.15
205.849	44.71
206.068	18.09
206.287	9.9
206.505	26.28
206.724	-4.44
206.943	18.09
207.162	112.3
207.381	22.19
207.599	24.23
207.818	5.8
208.037	22.19
208.255	63.15
208.474	-16.73
208.693	1.71
208.911	-4.44
209.13	106.15
209.349	42.67
209.567	63.15
209.786	30.38
210.005	-18.77
210.223	83.63
210.442	-12.63
210.661	52.91
210.879	50.86
211.098	28.33
211.316	36.52
211.535	11.95
211.753	79.53
211.972	59.05
212.191	42.67
212.409	85.67
212.628	93.87
212.846	54.95
213.065	30.38
213.283	112.3
213.502	93.87
213.72	-0.34
213.938	-45.4
214.157	11.95
214.375	91.82
214.594	52.91
214.812	87.72
215.031	54.95
215.249	9.9
215.467	26.28
215.686	48.81
215.904	110.25
216.122	1.71
216.341	1.71
216.559	13.99
216.778	89.77
216.996	26.28
217.214	46.76
217.432	79.53
217.651	32.43
217.869	48.81
218.087	-24.92
218.306	63.15
218.524	36.52
218.742	-26.96
218.96	-2.39
219.179	77.48
219.397	18.09
219.615	36.52
219.833	24.23
220.051	110.25
220.27	16.04
220.488	1.71
220.706	69.29
220.924	-41.3
221.142	44.71
221.36	-26.96
221.578	81.58
221.796	-12.63
222.015	44.71
222.233	30.38
222.451	63.15
222.669	34.47
222.887	104.11
223.105	52.91
223.323	-10.58
223.541	7.85
223.759	32.43
223.977	42.67
224.195	128.68
224.413	-43.35
224.631	67.24
224.849	24.23
225.067	87.72
225.285	20.14
225.503	42.67
225.721	22.19
225.939	5.8
226.157	13.99
226.375	-10.58
226.592	-76.12
226.81	59.05
227.028	44.71
227.246	22.19
227.464	42.67
227.682	32.43
227.9	-57.68
228.117	24.23
228.335	-29.01
228.553	18.09
228.771	-20.82
228.989	30.38
229.206	28.33
229.424	104.11
229.642	26.28
229.86	-16.73
230.077	32.43
230.295	42.67
230.513	91.82
230.731	-4.44
230.948	46.76
231.166	126.63
231.384	5.8
231.601	13.99
231.819	59.05
232.037	18.09
232.254	26.28
232.472	59.05
232.689	-12.63
232.907	85.67
233.125	11.95
233.342	36.52
233.56	-14.68
233.777	46.76
233.995	26.28
234.213	42.67
234.43	77.48
234.648	32.43
234.865	26.28
235.083	50.86
235.3	24.23
235.518	89.77
235.735	140.97
235.953	81.58
236.17	11.95
236.388	34.47
236.605	13.99
236.822	20.14
237.04	155.3
237.257	22.19
237.475	13.99
237.692	22.19
237.909	32.43
238.127	75.43
238.344	112.3
238.562	26.28
238.779	-31.06
238.996	30.38
239.214	-18.77
239.431	75.43
239.648	5.8
239.865	54.95
240.083	38.57
240.3	30.38
240.517	57
240.735	89.77
240.952	18.09
241.169	26.28
241.386	30.38
241.603	95.91
241.821	-18.77
242.038	85.67
242.255	79.53
242.472	18.09
242.689	-4.44
242.907	63.15
243.124	87.72
243.341	20.14
243.558	59.05
243.775	16.04
243.992	-53.59
244.209	77.48
244.426	24.23
244.643	44.71
244.86	5.8
245.078	3.75
245.295	54.95
245.512	28.33
245.729	7.85
245.946	83.63
246.163	42.67
246.38	-8.53
246.597	24.23
246.814	95.91
247.031	-29.01
247.248	65.19
247.464	34.47
247.681	42.67
247.898	50.86
248.115	59.05
248.332	36.52
248.549	71.34
248.766	52.91
248.983	5.8
249.2	-2.39
249.417	18.09
249.633	16.04
249.85	44.71
250.067	38.57
250.284	57
250.501	52.91
250.717	52.91
250.934	26.28
251.151	18.09
251.368	67.24
251.585	32.43
251.801	18.09
252.018	-10.58
252.235	52.91
252.451	1.71
252.668	16.04
252.885	95.91
253.102	42.67
253.318	26.28
253.535	34.47
253.752	104.11
253.968	91.82
254.185	36.52
254.401	5.8
254.618	79.53
254.835	44.71
255.051	87.72
255.268	5.8
255.484	-16.73
255.701	34.47
255.917	34.47
256.134	-4.44
256.351	40.62
256.567	36.52
256.784	18.09
257	30.38
257.217	16.04
257.433	1.71
257.65	5.8
257.866	85.67
258.082	-4.44
258.299	71.34
258.515	-2.39
258.732	32.43
258.948	48.81
259.165	-2.39
259.381	34.47
259.597	83.63
259.814	-0.34
260.03	102.06
260.246	-18.77
260.463	-39.25
260.679	-14.68
260.895	7.85
261.112	54.95
261.328	26.28
261.544	34.47
261.761	104.11
261.977	20.14
262.193	34.47
262.409	24.23
262.626	-8.53
262.842	57
263.058	34.47
263.274	-8.53
263.49	7.85
263.707	79.53
263.923	30.38
264.139	59.05
264.355	85.67
264.571	-18.77
264.787	36.52
265.004	5.8
265.22	-2.39
265.436	89.77
265.652	-6.49
265.868	22.19
266.084	36.52
266.3	-8.53
266.516	40.62
266.732	57
266.948	145.06
267.164	38.57
267.38	40.62
267.596	63.15
267.812	38.57
268.028	-22.87
268.244	13.99
268.46	-10.58
268.676	36.52
268.892	28.33
269.108	22.19
269.324	30.38
269.54	-26.96
269.756	71.34
269.972	-0.34
270.188	5.8
270.403	46.76
270.619	59.05
270.835	22.19
271.051	50.86
271.267	1.71
271.483	46.76
271.698	34.47
271.914	59.05
272.13	-26.96
272.346	32.43
272.562	-0.34
272.777	77.48
272.993	63.15
273.209	-4.44
273.425	63.15
273.64	1.71
273.856	54.95
274.072	34.47
274.287	95.91
274.503	22.19
274.719	11.95
274.934	13.99
275.15	54.95
275.366	20.14
275.581	20.14
275.797	112.3
276.012	26.28
276.228	1.71
276.444	-6.49
276.659	85.67
276.875	5.8
277.09	89.77
277.306	7.85
277.521	79.53
277.737	38.57
277.952	24.23
278.168	13.99
278.383	91.82
278.599	-29.01
278.814	-0.34
279.03	38.57
279.245	87.72
279.461	22.19
279.676	-14.68
279.892	50.86
280.107	69.29
280.322	44.71
280.538	85.67
280.753	-10.58
280.969	7.85
281.184	-41.3
281.399	-6.49
281.615	93.87
281.83	128.68
282.045	-31.06
282.26	104.11
282.476	-24.92
282.691	-2.39
282.906	1.71
283.122	59.05
283.337	3.75
283.552	122.54
283.767	36.52
283.983	22.19
284.198	48.81
284.413	22.19
284.628	-2.39
284.843	75.43
285.058	122.54
285.274	73.39
285.489	38.57
285.704	42.67
285.919	57
286.134	63.15
286.349	-33.11
286.564	57
286.779	48.81
286.995	46.76
287.21	52.91
287.425	38.57
287.64	75.43
287.855	42.67
288.07	-22.87
288.285	61.1
288.5	63.15
288.715	50.86
288.93	1.71
289.145	40.62
289.36	40.62
289.575	9.9
289.79	22.19
290.004	38.57
290.219	-10.58
290.434	-24.92
290.649	1.71
290.864	57
291.079	28.33
291.294	34.47
291.509	81.58
291.724	30.38
291.938	26.28
292.153	13.99
292.368	13.99
292.583	16.04
292.798	71.34
293.012	91.82
293.227	26.28
293.442	9.9
293.657	20.14
293.871	118.44
294.086	40.62
294.301	46.76
294.516	61.1
294.73	20.14
294.945	20.14
295.16	34.47
295.374	32.43
295.589	-10.58
295.804	-12.63
296.018	26.28
296.233	112.3
296.447	34.47
296.662	3.75
296.877	22.19
297.091	38.57
297.306	100.01
297.52	57
297.735	1.71
297.949	30.38
298.164	9.9
298.378	-43.35
298.593	67.24
298.807	34.47
299.022	59.05
299.236	67.24
299.451	30.38
299.665	-2.39
299.88	5.8
300.094	3.75
300.309	18.09
300.523	18.09
300.737	36.52
300.952	1.71
301.166	32.43
301.381	22.19
301.595	5.8
301.809	97.96
302.024	9.9
302.238	-51.54
302.452	140.97
302.667	69.29
302.881	81.58
303.095	95.91
303.309	79.53
303.524	93.87
303.738	48.81
303.952	-10.58
304.166	30.38
304.381	18.09
304.595	75.43
304.809	38.57
305.023	18.09
305.237	1.71
305.452	91.82
305.666	5.8
305.88	52.91
306.094	42.67
306.308	71.34
306.522	54.95
306.736	59.05
306.95	32.43
307.164	73.39
307.379	-2.39
307.593	48.81
307.807	20.14
308.021	59.05
308.235	32.43
308.449	50.86
308.663	95.91
308.877	97.96
309.091	46.76
309.305	30.38
309.519	38.57
309.733	61.1
309.947	42.67
310.161	93.87
310.374	-37.2
310.588	28.33
310.802	11.95
311.016	79.53
311.23	57
311.444	-94.55
311.658	-37.2
311.872	79.53
312.085	1.71
312.299	40.62
312.513	28.33
312.727	57
312.941	-29.01
313.154	13.99
313.368	54.95
313.582	75.43
313.796	57
314.009	42.67
314.223	118.44
314.437	7.85
314.651	42.67
314.864	-2.39
315.078	24.23
315.292	-2.39
315.505	-2.39
315.719	57
315.933	54.95
316.146	50.86
316.36	-26.96
316.573	32.43
316.787	13.99
317.001	16.04
317.214	18.09
317.428	36.52
317.641	13.99
317.855	30.38
318.068	42.67
318.282	38.57
318.495	83.63
318.709	106.15
318.922	32.43
319.136	75.43
319.349	102.06
319.563	13.99
319.776	34.47
319.99	-10.58
320.203	71.34
320.417	40.62
320.63	26.28
320.843	65.19
321.057	5.8
321.27	-20.82
321.483	61.1
321.697	85.67
321.91	83.63
322.124	83.63
322.337	61.1
322.55	-22.87
322.763	18.09
322.977	63.15
323.19	63.15
323.403	124.58
323.617	50.86
323.83	102.06
324.043	-39.25
324.256	61.1
324.469	13.99
324.683	79.53
324.896	48.81
325.109	-35.16
325.322	16.04
325.535	24.23
325.748	59.05
325.962	-22.87
326.175	22.19
326.388	52.91
326.601	42.67
326.814	38.57
327.027	52.91
327.24	77.48
327.453	48.81
327.666	87.72
327.879	61.1
328.092	24.23
328.305	46.76
328.518	-0.34
328.731	50.86
328.944	81.58
329.157	-6.49
329.37	34.47
329.583	75.43
329.796	61.1
330.009	38.57
330.222	36.52
330.435	50.86
330.648	42.67
330.861	-2.39
331.073	75.43
331.286	-8.53
331.499	93.87
331.712	-12.63
331.925	34.47
332.138	-33.11
332.35	61.1
332.563	50.86
332.776	11.95
332.989	-10.58
333.202	61.1
333.414	-0.34
333.627	54.95
333.84	-26.96
334.053	79.53
334.265	30.38
334.478	50.86
334.691	42.67
334.903	-22.87
335.116	54.95
335.329	26.28
335.541	79.53
335.754	-0.34
335.966	54.95
336.179	102.06
336.392	48.81
336.604	75.43
336.817	91.82
337.029	59.05
337.242	97.96
337.454	38.57
337.667	149.16
337.88	65.19
338.092	1.71
338.305	59.05
338.517	61.1
338.729	30.38
338.942	79.53
339.154	97.96
339.367	20.14
339.579	61.1
339.792	71.34
340.004	67.24
340.217	91.82
340.429	-20.82
340.641	11.95
340.854	77.48
341.066	34.47
341.278	69.29
341.491	59.05
341.703	44.71
341.915	28.33
342.128	42.67
342.34	71.34
342.552	22.19
342.764	65.19
342.977	77.48
343.189	28.33
343.401	-2.39
343.613	22.19
343.826	122.54
344.038	11.95
344.25	120.49
344.462	-41.3
344.674	100.01
344.886	59.05
345.099	5.8
345.311	54.95
345.523	22.19
345.735	-14.68
345.947	1.71
346.159	16.04
346.371	59.05
346.583	85.67
346.795	34.47
347.007	57
347.219	-24.92
347.431	-2.39
347.643	77.48
347.855	26.28
348.067	3.75
348.279	26.28
348.491	20.14
348.703	61.1
348.915	5.8
349.127	32.43
349.339	83.63
349.551	22.19
349.763	-8.53
349.975	9.9
350.187	81.58
350.399	18.09
350.61	46.76
350.822	61.1
351.034	124.58
351.246	59.05
351.458	-39.25
351.669	59.05
351.881	114.34
352.093	42.67
352.305	104.11
352.517	18.09
352.728	26.28
352.94	-6.49
353.152	5.8
353.363	91.82
353.575	77.48
353.787	100.01
353.999	59.05
354.21	81.58
354.422	24.23
354.633	83.63
354.845	75.43
355.057	22.19
355.268	38.57
355.48	26.28
355.692	5.8
355.903	-18.77
356.115	91.82
356.326	26.28
356.538	44.71
356.749	112.3
356.961	104.11
357.172	-4.44
357.384	32.43
357.595	59.05
357.807	11.95
358.018	32.43
358.23	-35.16
358.441	104.11
358.653	20.14
358.864	65.19
359.075	61.1
359.287	59.05
359.498	89.77
359.709	71.34
359.921	22.19
360.132	11.95
360.344	48.81
360.555	30.38
360.766	50.86
360.977	77.48
361.189	95.91
361.4	32.43
361.611	79.53
361.823	46.76
362.034	73.39
362.245	38.57
362.456	81.58
362.667	-22.87
362.879	61.1
363.09	57
363.301	38.57
363.512	42.67
363.723	50.86
363.935	71.34
364.146	89.77
364.357	13.99
364.568	110.25
364.779	30.38
364.99	-12.63
365.201	-14.68
365.412	104.11
365.623	63.15
365.834	87.72
366.045	-6.49
366.256	28.33
366.467	67.24
366.678	116.39
366.889	65.19
367.1	128.68
367.311	3.75
367.522	97.96
367.733	30.38
367.944	13.99
368.155	-6.49
368.366	87.72
368.577	67.24
368.788	26.28
368.999	63.15
369.209	5.8
369.42	69.29
369.631	136.87
369.842	54.95
370.053	79.53
370.264	16.04
370.474	63.15
370.685	87.72
370.896	9.9
371.107	110.25
371.317	93.87
371.528	30.38
371.739	28.33
371.95	63.15
372.16	102.06
372.371	46.76
372.582	30.38
372.792	38.57
373.003	81.58
373.214	75.43
373.424	79.53
373.635	24.23
373.846	155.3
374.056	112.3
374.267	95.91
374.477	87.72
374.688	104.11
374.898	85.67
375.109	50.86
375.319	75.43
375.53	77.48
375.74	40.62
375.951	18.09
376.161	32.43
376.372	110.25
376.582	5.8
376.793	97.96
377.003	36.52
377.214	57
377.424	100.01
377.635	-2.39
377.845	34.47
378.055	30.38
378.266	24.23
378.476	93.87
378.686	173.74
378.897	9.9
379.107	34.47
379.317	67.24
379.528	-22.87
379.738	65.19
379.948	20.14
380.158	79.53
380.369	18.09
380.579	118.44
380.789	69.29
380.999	85.67
381.21	-6.49
381.42	69.29
381.63	73.39
381.84	34.47
382.05	54.95
382.261	118.44
382.471	100.01
382.681	-12.63
382.891	50.86
383.101	40.62
383.311	85.67
383.521	79.53
383.731	69.29
383.941	79.53
384.151	106.15
384.361	100.01
384.571	40.62
384.781	130.73
384.991	77.48
385.201	44.71
385.411	20.14
385.621	-18.77
385.831	24.23
386.041	118.44
386.251	93.87
386.461	57
386.671	20.14
386.881	54.95
387.091	48.81
387.301	59.05
387.511	22.19
387.72	87.72
387.93	61.1
388.14	59.05
388.35	18.09
388.56	83.63
388.769	95.91
388.979	-31.06
389.189	85.67
389.399	40.62
389.609	61.1
389.818	48.81
390.028	9.9
390.238	104.11
390.447	11.95
390.657	11.95
390.867	124.58
391.076	40.62
391.286	36.52
391.496	40.62
391.705	36.52
391.915	38.57
392.125	83.63
392.334	95.91
392.544	108.2
392.753	16.04
392.963	67.24
393.172	46.76
393.382	61.1
393.591	112.3
393.801	63.15
394.01	104.11
394.22	138.92
394.429	77.48
394.639	69.29
394.848	97.96
395.058	112.3
395.267	104.11
395.477	93.87
395.686	42.67
395.895	46.76
396.105	104.11
396.314	104.11
396.524	69.29
396.733	93.87
396.942	106.15
397.152	120.49
397.361	75.43
397.57	54.95
397.78	145.06
397.989	63.15
398.198	128.68
398.407	87.72
398.617	93.87
398.826	67.24
399.035	124.58
399.244	89.77
399.453	85.67
399.663	143.02
399.872	71.34
400.081	48.81
400.29	120.49
400.499	85.67
400.708	110.25
400.917	71.34
401.127	75.43
401.336	155.3
401.545	89.77
401.754	63.15
401.963	130.73
402.172	77.48
402.381	-10.58
402.59	116.39
402.799	149.16
403.008	52.91
403.217	153.26
403.426	63.15
403.635	81.58
403.844	167.59
404.053	126.63
404.262	81.58
404.471	138.92
404.68	116.39
404.888	163.5
405.097	100.01
405.306	224.94
405.515	118.44
405.724	134.82
405.933	104.11
406.142	83.63
406.35	183.98
406.559	165.54
406.768	87.72
406.977	212.65
407.185	177.83
407.394	196.26
407.603	91.82
407.812	231.08
408.02	198.31
408.229	120.49
408.438	136.87
408.646	214.7
408.855	188.07
409.064	192.17
409.272	206.5
409.481	218.79
409.69	229.03
409.898	272.04
410.107	206.5
410.315	198.31
410.524	306.85
410.733	276.13
410.941	272.04
411.15	173.74
411.358	331.43
411.567	360.1
411.775	351.91
411.984	313
412.192	366.25
412.401	409.25
412.609	399.01
412.818	308.9
413.026	407.2
413.234	304.81
413.443	429.73
413.651	417.44
413.86	478.88
414.068	474.79
414.276	530.08
414.485	530.08
414.693	523.94
414.901	503.46
415.11	597.67
415.318	566.95
415.526	528.03
415.734	595.62
415.943	566.95
416.151	663.2
416.359	636.58
416.567	675.49
416.776	708.26
416.984	671.39
417.192	763.55
417.4	771.74
417.608	698.02
417.817	767.65
418.025	884.38
418.233	870.05
418.441	843.42
418.649	878.24
418.857	994.97
419.065	1027.74
419.273	1007.26
419.481	990.88
419.689	1052.31
419.897	1148.57
420.105	1158.81
420.313	1224.34
420.521	1291.93
420.729	1222.3
420.937	1314.45
421.145	1414.81
421.353	1408.66
421.561	1500.82
421.769	1484.44
421.977	1611.41
422.185	1609.36
422.393	1676.95
422.601	1707.66
422.809	1719.95
423.017	1838.73
423.224	1824.4
423.432	1877.65
423.64	1945.23
423.848	2158.22
424.056	1957.52
424.263	2123.4
424.471	2166.41
424.679	2340.49
424.887	2352.77
425.094	2387.59
425.302	2291.34
425.51	2608.77
425.718	2533
425.925	2829.95
426.133	2866.81
426.341	2946.69
426.548	3010.17
426.756	3081.85
426.964	3032.7
427.171	3198.59
427.379	3307.13
427.586	3337.85
427.794	3511.93
428.001	3561.08
428.209	3706.48
428.417	3675.76
428.624	3970.67
428.832	3929.71
429.039	3925.61
429.247	3966.57
429.454	4376.17
429.662	4591.2
429.869	4353.64
430.076	4662.88
430.284	4560.49
430.491	4761.19
430.699	5070.43
430.906	5054.05
431.114	5183.07
431.321	5142.11
431.528	5293.66
431.736	5520.98
431.943	5934.67
432.15	5895.76
432.358	5869.14
432.565	6137.42
432.772	6131.28
432.979	6440.52
433.187	6600.26
433.394	6497.86
433.601	6942.27
433.808	7112.25
434.016	6964.8
434.223	7435.83
434.43	7704.12
434.637	7663.16
434.844	8091.18
435.052	8324.65
435.259	8218.16
435.466	8257.07
435.673	8355.37
435.88	8787.49
436.087	9221.66
436.294	9158.17
436.501	8924.71
436.708	9106.98
436.915	9434.65
437.122	10018.32
437.329	9963.03
437.537	10106.38
437.743	10278.41
437.95	10237.45
438.157	10542.6
438.364	11077.12
438.571	11017.73
438.778	11171.33
438.985	12174.83
439.192	11681.27
439.399	12223.98
439.606	11746.81
439.813	12537.32
440.02	13233.63
440.227	13022.69
440.433	12975.59
440.64	13434.33
440.847	13413.85
441.054	13743.58
441.261	14400.97
441.467	14196.18
441.674	14650.83
441.881	14998.98
442.088	14982.6
442.294	14872.01
442.501	15289.79
442.708	15648.19
442.914	16416.18
443.121	16991.66
443.328	16483.76
443.534	17993.11
443.741	17384.87
443.948	16891.3
444.154	17984.92
444.361	18173.33
444.568	18255.25
444.774	18128.28
444.981	18326.93
445.187	18888.07
445.394	19846.52
445.6	19334.53
445.807	21351.78
446.013	20460.91
446.22	20749.68
446.426	21435.75
446.633	21841.25
446.839	22244.7
447.046	21519.71
447.252	22707.54
447.459	22764.88
447.665	22895.95
447.871	23954.75
448.078	24710.45
448.284	23389.51
448.491	24425.78
448.697	24880.43
448.903	25427.24
449.11	25496.87
449.316	25161
449.522	26047.77
449.728	26184.99
449.935	26406.17
450.141	26469.65
450.347	27157.77
450.553	26004.77
450.76	26623.25
450.966	27262.22
451.172	26633.49
451.378	27923.71
451.584	27098.38
451.791	27909.38
451.997	27630.85
452.203	27983.1
452.409	28028.16
452.615	27888.9
452.821	26762.51
453.027	26805.52
453.233	27968.77
453.44	26793.23
453.646	27030.8
453.852	27241.74
454.058	27940.1
454.264	26733.84
454.47	27305.23
454.676	26604.82
454.882	27655.43
455.088	25259.31
455.294	25566.5
455.5	25703.71
455.705	26092.83
455.911	24847.66
456.117	24775.98
456.323	24511.8
456.529	22857.04
456.735	23889.21
456.941	23117.13
457.147	23033.16
457.352	22134.1
457.558	22056.28
457.764	22050.14
457.97	21151.08
458.176	21179.75
458.381	21085.54
458.587	20002.17
458.793	20092.28
458.999	18965.9
459.204	20362.61
459.41	19627.39
459.616	18556.3
459.821	18449.81
460.027	18523.54
460.233	18124.18
460.438	17046.95
460.644	17460.64
460.85	16612.78
461.055	16516.53
461.261	16072.12
461.466	15033.8
461.672	14697.93
461.878	15834.55
462.083	14648.78
462.289	14554.57
462.494	14292.43
462.7	13741.53
462.905	13178.34
463.111	13698.52
463.316	13868.5
463.522	13440.48
463.727	13512.16
463.932	13723.1
464.138	13542.88
464.343	13243.87
464.549	12901.86
464.754	13585.88
464.959	13604.32
465.165	13290.98
465.37	12633.58
465.575	12574.19
465.781	12991.97
465.986	12836.33
466.191	12703.21
466.397	12342.77
466.602	11730.42
466.807	12115.44
467.012	12054
467.218	12017.14
467.423	12099.06
467.628	12045.81
467.833	12436.97
468.038	12039.67
468.244	11709.94
468.449	12252.66
468.654	11732.47
468.859	11699.7
469.064	11742.71
469.269	11251.2
469.474	11079.17
469.679	11378.17
469.885	10915.33
470.09	11161.09
470.295	11189.76
470.5	10819.08
470.705	11179.52
470.91	10964.48
471.115	10483.21
471.32	10751.49
471.525	10872.32
471.73	10503.69
471.935	10464.78
472.139	10003.99
472.344	10327.57
472.549	10153.49
472.754	10096.14
472.959	9874.96
473.164	9725.46
473.369	9635.35
473.574	9788.95
473.778	9729.56
473.983	9631.26
474.188	9516.57
474.393	9279.01
474.598	9229.85
474.802	9170.46
475.007	9055.78
475.212	8986.15
475.417	8879.65
475.621	8818.21
475.826	8936.99
476.031	8519.21
476.235	8291.88
476.44	8560.17
476.645	8166.96
476.849	8615.46
477.054	8310.32
477.259	8341.04
477.463	8238.64
477.668	8062.51
477.872	8107.57
478.077	8076.85
478.282	7779.89
478.486	7706.17
478.691	7870
478.895	7665.21
479.1	7671.35
479.304	7939.63
479.509	7437.88
479.713	7497.27
479.918	7300.67
480.122	7364.15
480.326	7370.3
480.531	7368.25
480.735	7265.85
480.94	7351.87
481.144	7337.53
481.348	7097.92
481.553	7401.02
481.757	7024.19
481.961	7315
482.166	7341.63
482.37	7255.61
482.574	6899.27
482.778	7298.62
482.983	7142.97
483.187	7280.19
483.391	7188.03
483.595	7169.6
483.8	6960.7
484.004	7249.47
484.208	7310.91
484.412	7255.61
484.616	7167.55
484.821	7159.36
485.025	6985.28
485.229	7159.36
485.433	7134.78
485.637	7089.73
485.841	7083.58
486.045	7089.73
486.249	7095.87
486.453	6968.9
486.657	7132.73
486.861	7149.12
487.065	6981.18
487.269	7335.48
487.473	6981.18
487.677	7167.55
487.881	7300.67
488.085	6956.61
488.289	7294.52
488.493	7190.08
488.697	7296.57
488.901	7333.43
489.105	7390.78
489.309	7306.81
489.512	7353.91
489.716	7362.11
489.92	7231.04
490.124	7319.1
490.328	7589.43
490.531	7310.91
490.735	7446.07
490.939	7521.85
491.143	7280.19
491.346	7370.3
491.55	7544.38
491.754	7398.97
491.958	7530.04
492.161	7491.13
492.365	7413.31
492.569	7626.29
492.772	7478.84
492.976	7607.86
493.18	7687.73
493.383	7718.45
493.587	7790.13
493.79	7775.8
493.994	7892.53
494.197	7872.05
494.401	8029.74
494.605	7896.63
494.808	8095.28
495.012	8222.25
495.215	8099.38
495.419	8212.01
495.622	8162.86
495.825	8308.27
496.029	8488.49
496.232	8597.03
496.436	8607.27
496.639	8973.86
496.843	8912.42
497.046	8961.57
497.249	9037.34
497.453	8959.52
497.656	9084.45
497.859	9154.08
498.063	9129.5
498.266	9311.77
498.469	9350.68
498.673	9561.62
498.876	9612.82
499.079	9909.78
499.282	9782.81
499.485	10079.76
499.689	10065.43
499.892	10192.4
500.095	10352.14
500.298	10429.96
500.501	10462.73
500.705	10606.09
500.908	10790.41
501.111	10845.7
501.314	10831.37
501.517	11214.34
501.72	11132.42
501.923	11038.21
502.126	11466.24
502.329	11406.84
502.532	11703.8
502.735	11679.22
502.938	11939.32
503.141	11965.94
503.344	12459.5
503.547	12119.54
503.75	12451.31
503.953	12785.13
504.156	12895.72
504.359	12891.62
504.562	12969.44
504.765	13274.59
504.968	13250.02
505.17	13456.86
505.373	13577.69
505.576	13745.62
505.779	14132.69
505.982	14218.71
506.185	14478.8
506.387	14327.25
506.59	14263.76
506.793	14829
506.996	14783.95
507.198	15017.41
507.401	15101.38
507.604	15302.08
507.807	15449.53
508.009	15599.04
508.212	15652.28
508.415	15932.86
508.617	16072.12
508.82	16309.68
509.022	16053.69
509.225	16922.02
509.428	16649.64
509.63	16899.5
509.833	16698.8
510.035	17536.42
510.238	17507.74
510.44	17538.46
510.643	17513.89
510.845	17773.98
511.048	17837.47
511.25	18292.12
511.453	18597.26
511.655	18992.52
511.858	18765.2
512.06	18664.85
512.262	19293.57
512.465	19025.29
512.667	19434.88
512.87	19656.06
513.072	19740.03
513.274	20307.32
513.477	20280.69
513.679	20686.19
513.881	20600.18
514.084	20895.08
514.286	21095.78
514.488	21149.03
514.69	22052.19
514.893	21816.67
515.095	21970.27
515.297	22461.78
515.499	22209.88
515.701	22586.71
515.904	22824.27
516.106	23061.83
516.308	23385.41
516.51	23803.2
516.712	23754.05
516.914	23881.02
517.116	24413.49
517.318	24161.59
517.52	24452.41
517.722	24550.71
517.925	24952.11
518.127	25345.32
518.329	25488.68
518.531	25376.04
518.733	25853.22
518.935	26223.9
519.136	26107.16
519.338	26852.62
519.54	26684.69
519.742	27079.95
519.944	27211.02
520.146	27596.04
520.348	27315.47
520.55	27931.9
520.752	27911.42
520.954	28560.63
521.155	28177.66
521.357	28583.16
521.559	28933.36
521.761	29428.97
521.963	29080.81
522.164	29682.92
522.366	29859.04
522.568	30336.22
522.77	30102.75
522.971	30917.84
523.173	30592.22
523.375	30901.46
523.576	30891.22
523.778	31177.93
523.98	31610.06
524.181	31526.09
524.383	31517.9
524.584	32130.24
524.786	31759.56
524.988	32033.99
525.189	32687.29
525.391	32793.78
525.592	32771.25
525.794	32976.05
525.995	33289.39
526.197	33420.46
526.398	33299.63
526.6	33602.73
526.801	33586.35
527.003	33676.46
527.204	34139.3
527.406	34198.69
527.607	34370.72
527.808	34110.63
528.01	34151.59
528.211	34552.99
528.412	34899.09
528.614	35150.99
528.815	35214.48
529.016	35341.46
529.218	34960.53
529.419	35417.23
529.62	35368.08
529.822	35378.32
530.023	35224.72
530.224	35708.04
530.425	35581.07
530.626	35562.64
530.828	35599.5
531.029	36152.45
531.23	35435.66
531.431	35759.24
531.632	36125.83
531.833	35980.42
532.035	36494.46
532.236	36457.6
532.437	36344.96
532.638	36435.07
532.839	36398.21
533.04	36605.05
533.241	36504.7
533.442	37241.97
533.643	36592.76
533.844	36506.75
534.045	36482.17
534.246	36637.82
534.447	36686.97
534.648	36615.29
534.849	36764.79
535.05	36496.51
535.251	36834.42
535.451	36746.36
535.652	37110.9
535.853	36666.49
536.054	36910.2
536.255	37037.17
536.456	36889.72
536.657	37502.06
536.857	36977.78
537.058	36668.54
537.259	37346.42
537.46	37112.95
537.66	36865.14
537.861	37344.37
538.062	36674.68
538.263	37190.77
538.463	37205.11
538.664	37096.56
538.865	37086.32
539.065	37473.39
539.266	36560
539.466	37276.79
539.667	36572.28
539.868	37606.51
540.068	37102.71
540.269	36674.68
540.469	36740.22
540.67	36797.56
540.87	36879.48
541.071	37082.23
541.271	37055.61
541.472	36996.21
541.672	37192.82
541.873	37151.86
542.073	36557.95
542.274	37215.35
542.474	36623.48
542.675	36828.28
542.875	37190.77
543.075	36842.62
543.276	36693.11
543.476	37217.39
543.676	37004.41
543.877	37110.9
544.077	37139.57
544.277	37063.8
544.478	36848.76
544.678	37377.14
544.878	36877.43
545.078	36867.19
545.279	37028.98
545.479	36940.92
545.679	37278.83
545.879	36754.55
546.079	36815.99
546.28	36793.47
546.48	36584.57
546.68	37088.37
546.88	37037.17
547.08	37239.92
547.28	36768.89
547.48	36820.09
547.68	37071.99
547.88	36809.85
548.081	37223.54
548.281	36801.66
548.481	37151.86
548.681	36912.25
548.881	37119.09
549.081	37067.89
549.28	36807.8
549.48	36885.62
549.68	36299.9
549.88	37229.68
550.08	36453.5
550.28	36738.17
550.48	36650.11
550.68	36922.49
550.88	37076.08
551.08	37090.42
551.279	36813.94
551.479	36560
551.679	36613.24
551.879	36576.38
552.079	37209.2
552.278	36758.65
552.478	36537.47
552.678	36701.31
552.878	37076.08
553.077	36881.53
553.277	36371.58
553.477	37084.28
553.676	36809.85
553.876	36764.79
554.076	36584.57
554.275	36605.05
554.475	35888.26
554.674	36377.73
554.874	36574.33
555.074	35912.84
555.273	35814.54
555.473	36723.83
555.672	36101.25
555.872	36193.41
556.071	36185.22
556.271	36187.27
556.47	35925.13
556.67	35789.96
556.869	35896.45
557.068	36154.5
557.268	35816.58
557.467	35974.28
557.667	35966.09
557.866	35910.79
558.065	36109.44
558.265	35533.96
558.464	35775.62
558.663	36113.54
558.863	35595.4
559.062	35982.47
559.261	35200.15
559.461	35695.75
559.66	35241.1
559.859	35599.5
560.058	35423.37
560.258	35683.47
560.457	35081.36
560.656	35607.69
560.855	35323.02
561.054	35609.74
561.253	34929.81
561.453	35144.85
561.652	34876.57
561.851	35384.46
562.05	35140.75
562.249	34952.34
562.448	34643.1
562.647	35159.19
562.846	34837.66
563.045	34552.99
563.244	34727.06
563.443	34817.18
563.642	34245.79
563.841	33940.64
564.04	34094.24
564.239	34503.84
564.438	33832.1
564.637	34233.5
564.836	33979.56
565.035	33891.49
565.234	33580.2
565.432	33690.79
565.631	33569.96
565.83	33559.72
566.029	33203.38
566.228	33303.73
566.427	33385.65
566.625	33072.31
566.824	32994.48
567.023	33227.95
567.222	32619.7
567.42	33483.95
567.619	32638.14
567.818	33205.42
568.016	32513.21
568.215	32738.49
568.414	32388.28
568.612	32754.87
568.811	32353.47
569.01	32292.03
569.208	32122.05
569.407	32273.6
569.605	31976.64
569.804	32455.87
570.002	31595.72
570.201	32554.17
570.4	31794.37
570.598	31612.1
570.797	31800.52
570.995	31765.7
571.193	31429.84
571.392	31726.79
571.59	31253.71
571.789	31427.79
571.987	31171.79
572.186	31251.66
572.384	31112.4
572.582	31466.7
572.781	31186.13
572.979	30571.74
573.177	30649.56
573.376	31034.58
573.574	30491.87
573.772	30741.72
573.971	30495.96
574.169	30395.61
574.367	30164.19
574.565	30401.75
574.763	30207.2
574.962	29971.68
575.16	29744.36
575.358	30072.03
575.556	29572.33
575.754	30053.6
575.952	29437.16
576.151	29906.15
576.349	29392.11
576.547	29338.86
576.745	29113.58
576.943	29199.6
577.141	29103.34
577.339	29162.73
577.537	29185.26
577.735	28937.46
577.933	28777.72
578.131	28783.86
578.329	28501.24
578.527	28560.63
578.725	28630.26
578.923	28597.49
579.121	28409.08
579.319	28472.57
579.516	28648.69
579.714	28331.26
579.912	28235
580.11	28122.37
580.308	28065.02
580.506	27632.9
580.704	27628.81
580.901	28067.07
581.099	27993.34
581.297	27593.99
581.495	27567.37
581.692	27794.69
581.89	27161.87
582.088	27608.33
582.285	27084.05
582.483	27301.13
582.681	27403.53
582.878	27114.76
583.076	26719.51
583.274	27022.61
583.471	26922.26
583.669	27088.14
583.866	26455.32
584.064	26893.58
584.262	26535.19
584.459	26805.52
584.657	26428.7
584.854	26795.28
585.052	26182.94
585.249	26101.02
585.447	26361.11
585.644	26158.36
585.841	26361.11
586.039	25972
586.236	26041.63
586.434	25634.08
586.631	25767.2
586.828	25756.96
587.026	25533.73
587.223	25789.73
587.42	25527.59
587.618	25509.16
587.815	25115.95
588.012	25257.26
588.21	25322.79
588.407	25314.6
588.604	24980.78
588.801	24894.77
588.999	25050.41
589.196	25034.03
589.393	24962.35
589.59	24771.89
589.787	24601.91
589.984	24882.48
590.182	24526.13
590.379	24696.11
590.576	24413.49
590.773	24483.13
590.97	24444.21
591.167	24423.73
591.364	24218.94
591.561	24010.04
591.758	23858.49
591.955	23647.55
592.152	24026.43
592.349	23969.08
592.546	23684.42
592.743	23760.19
592.94	23446.85
593.137	23715.14
593.334	23620.93
593.531	23119.18
593.727	23098.7
593.924	23457.09
594.121	23219.53
594.318	23590.21
594.515	23133.51
594.712	23375.17
594.908	22947.15
595.105	23055.69
595.302	22619.47
595.499	22902.09
595.696	22945.1
595.892	22685.01
596.089	22574.42
596.286	22703.44
596.482	22383.96
596.679	22693.2
596.876	22381.91
597.072	22490.45
597.269	22179.16
597.466	21708.13
597.662	22207.83
597.859	22166.87
598.055	22267.22
598.252	21798.24
598.448	21824.86
598.645	21863.77
598.841	21755.23
599.038	21769.57
599.234	21734.75
599.431	21560.67
599.627	21380.45
599.824	21560.67
600.02	21233
600.217	21288.29
600.413	21120.36
600.609	21108.07
600.806	20911.47
601.002	21187.94
601.198	21077.35
601.395	21042.54
601.591	20858.22
601.787	20899.18
601.984	20555.12
602.18	20827.5
602.376	20684.14
602.572	20536.69
602.769	20755.82
602.965	20344.18
603.161	20327.8
603.357	20444.53
603.553	20143.48
603.75	19998.07
603.946	19885.44
604.142	20241.78
604.338	19811.71
604.534	20114.81
604.73	19862.91
604.926	19809.66
605.122	19805.56
605.318	19809.66
605.514	19516.8
605.71	19522.94
605.906	19815.8
606.102	19510.66
606.298	19668.35
606.494	19416.45
606.69	19430.79
606.886	19690.88
607.082	19113.35
607.278	19557.76
607.474	19291.52
607.67	19332.48
607.866	18953.61
608.062	19197.32
608.257	18750.86
608.453	19047.82
608.649	18898.31
608.845	19082.63
609.041	19049.86
609.236	19150.21
609.432	18695.57
609.628	18922.89
609.824	18709.9
610.019	18660.75
610.215	18701.71
610.411	18691.47
610.606	18580.88
610.802	18445.71
610.998	18505.1
611.193	18515.34
611.389	18496.91
611.584	18554.26
611.78	18185.62
611.976	18156.95
612.171	18515.34
612.367	18275.73
612.562	18226.58
612.758	17939.86
612.953	17823.13
613.149	18060.7
613.344	18118.04
613.539	18003.35
613.735	17956.25
613.93	18025.88
614.126	17939.86
614.321	18159
614.517	17995.16
614.712	18042.26
614.907	17669.53
615.103	18005.4
615.298	17644.96
615.493	17917.34
615.688	17470.88
615.884	17970.58
616.079	17548.7
616.274	17851.8
616.47	17571.23
616.665	17692.06
616.86	17610.14
617.055	17448.35
617.25	17421.73
617.445	17816.99
617.641	17157.54
617.836	17374.63
618.031	17438.11
618.226	17444.26
618.421	17122.73
618.616	17116.58
618.811	16833.96
619.006	17206.69
619.201	16831.91
619.396	17005.99
619.591	16670.12
619.786	16686.51
619.981	16872.87
620.176	16889.26
620.371	16588.21
620.566	16586.16
620.761	16569.77
620.956	16690.6
621.151	16254.39
621.346	16209.33
621.541	15863.22
621.735	16113.08
621.93	15900.09
622.125	16250.29
622.32	15707.58
622.515	15988.15
622.709	15676.86
622.904	15683
623.099	15408.58
623.294	15664.57
623.488	15257.03
623.683	15588.8
623.878	15033.8
624.072	15300.03
624.267	15318.46
624.462	14945.73
624.656	14654.92
624.851	15064.52
625.046	14845.38
625.24	14738.89
625.435	14515.66
625.629	14876.1
625.824	14616.01
626.018	14486.99
626.213	14101.97
626.407	14382.54
626.602	14241.23
626.796	14339.54
626.991	14169.55
627.185	14046.68
627.38	13970.9
627.574	13860.31
627.768	13866.46
627.963	13635.03
628.157	13743.58
628.352	13630.94
628.546	13540.83
628.74	13655.51
628.935	13473.25
629.129	13544.92
629.323	13037.03
629.517	13069.8
629.712	13217.25
629.906	13237.73
630.1	12778.98
630.294	12852.71
630.489	12991.97
630.683	12965.35
630.877	12547.56
631.071	12801.51
631.265	12996.07
631.459	12492.27
631.653	12594.67
631.848	12570.09
632.042	12381.68
632.236	12443.12
632.43	12189.17
632.624	12332.53
632.818	12119.54
633.012	11910.64
633.206	11900.41
633.4	12117.49
633.594	11984.37
633.788	11863.54
633.982	11793.91
634.176	11744.76
634.369	11740.66
634.563	11757.05
634.757	11755
634.951	11525.63
635.145	11484.67
635.339	11255.29
635.533	11392.51
635.726	11456
635.92	11150.85
636.114	11228.67
636.308	11101.7
636.501	10974.72
636.695	10982.92
636.889	11111.94
637.083	11101.7
637.276	10874.37
637.47	10720.78
637.664	10810.89
637.857	10753.54
638.051	10608.14
638.244	10520.07
638.438	10604.04
638.632	10384.91
638.825	10472.97
639.019	10552.84
639.212	10405.39
639.406	10188.3
639.599	10257.93
639.793	10446.35
639.986	9993.75
640.18	10071.57
640.373	10046.99
640.567	9760.28
640.76	10096.14
640.954	9733.65
641.147	9674.26
641.34	9616.92
641.534	9858.58
641.727	9618.97
641.92	9553.43
642.114	9518.62
642.307	9442.84
642.5	9518.62
642.694	9211.42
642.887	9434.65
643.08	9369.12
643.273	9117.22
643.467	9326.11
643.66	9223.71
643.853	9160.22
644.046	9035.3
644.239	9053.73
644.432	9041.44
644.626	9070.11
644.819	8939.04
645.012	9012.77
645.205	8822.31
645.398	8799.78
645.591	8826.4
645.784	8810.02
645.977	8609.32
646.17	8678.95
646.363	8533.54
646.556	8523.3
646.749	8568.36
646.942	8431.15
647.135	8441.39
647.328	8379.95
647.521	8363.56
647.714	8257.07
647.907	8183.34
648.099	8246.83
648.292	8130.09
648.485	8173.1
648.678	8037.94
648.871	7902.77
649.064	8005.17
649.256	7999.02
649.449	7824.95
649.642	7779.89
649.835	7800.37
650.027	7804.47
650.22	7534.14
650.413	7687.73
650.605	7609.91
650.798	7829.04
650.991	7661.11
651.183	7534.14
651.376	7472.7
651.568	7609.91
651.761	7476.79
651.954	7220.8
652.146	7274.04
652.339	7351.87
652.531	7437.88
652.724	7222.84
652.916	7118.4
653.109	7161.41
653.301	6972.99
653.494	7315
653.686	6694.47
653.879	7054.91
654.071	6981.18
654.263	6989.38
654.456	6893.12
654.648	6886.98
654.84	6825.54
655.033	6839.87
655.225	6706.76
655.417	6690.37
655.61	6772.29
655.802	6714.95
655.994	6751.81
656.186	6774.34
656.379	6514.25
656.571	6592.07
656.763	6538.82
656.955	6465.1
657.148	6565.45
657.34	6428.23
657.532	6344.27
657.724	6530.63
657.916	6276.68
658.108	6411.85
658.3	6350.41
658.492	6129.23
658.684	6276.68
658.876	6037.07
659.068	5973.58
659.26	6125.13
659.452	6080.08
659.644	6043.21
659.836	6063.69
660.028	5957.2
660.22	6053.45
660.412	6037.07
660.604	5854.8
660.796	6020.69
660.988	5779.03
661.18	5664.34
661.372	5693.01
661.563	5865.04
661.755	5768.79
661.947	5635.67
662.139	5715.54
662.331	5664.34
662.522	5488.21
662.714	5539.41
662.906	5678.68
663.097	5553.75
663.289	5471.83
663.481	5351
663.673	5492.31
663.864	5535.32
664.056	5303.9
664.247	5451.35
664.439	5187.16
664.631	5314.14
664.822	5334.62
665.014	5318.23
665.205	5332.57
665.397	5293.66
665.588	5219.93
665.78	5138.01
665.971	5088.86
666.163	5176.92
666.354	5111.39
666.546	5162.59
666.737	5088.86
666.929	5127.77
667.12	5033.57
667.311	5121.63
667.503	4974.17
667.694	4925.02
667.885	4968.03
668.077	5047.9
668.268	4834.91
668.459	5000.8
668.651	4884.06
668.842	4888.16
669.033	4761.19
669.224	4705.89
669.416	4621.92
669.607	4757.09
669.798	4732.51
669.989	4828.77
670.18	4482.66
670.371	4740.71
670.563	4701.79
670.754	4599.4
670.945	4669.03
671.136	4617.83
671.327	4507.24
671.518	4355.69
671.709	4636.26
671.9	4583.01
672.091	4556.39
672.282	4437.61
672.473	4613.73
672.664	4548.2
672.855	4357.74
673.046	4429.42
673.237	4580.96
673.428	4406.89
673.619	4540.01
673.809	4398.7
674	4378.22
674.191	4382.31
674.382	4359.78
674.573	4183.66
674.764	4359.78
674.954	4277.87
675.145	4157.04
675.336	4134.51
675.527	4218.47
675.717	4312.68
675.908	4341.35
676.099	4216.43
676.289	4142.7
676.48	4189.8
676.671	4200.04
676.861	4304.49
677.052	4144.75
677.243	3987.05
677.433	4177.51
677.624	4040.3
677.814	4144.75
678.005	4103.79
678.195	4093.55
678.386	4073.07
678.576	4062.83
678.767	3919.47
678.957	4001.39
679.148	4003.44
679.338	4118.12
679.529	3958.38
679.719	4003.44
679.909	3993.2
680.1	3913.33
680.29	3993.2
680.481	3974.77
680.671	3950.19
680.861	3966.57
681.052	3909.23
681.242	3866.22
681.432	3911.28
681.622	3942
681.813	3876.46
682.003	3853.94
682.193	3896.94
682.383	3962.48
682.573	3898.99
682.764	3825.26
682.954	3815.02
683.144	3880.56
683.334	3753.59
683.524	3841.65
683.714	3808.88
683.904	3757.68
684.094	3878.51
684.284	3782.26
684.474	3851.89
684.664	3753.59
684.854	3759.73
685.044	3808.88
685.234	3606.13
685.424	3665.52
685.614	3700.34
685.804	3698.29
685.994	3618.42
686.184	3620.47
686.374	3716.72
686.564	3575.41
686.753	3663.47
686.943	3571.32
687.133	3599.99
687.323	3569.27
687.513	3569.27
687.702	3499.64
687.892	3505.78
688.082	3520.12
688.272	3532.4
688.461	3589.75
688.651	3444.34
688.841	3409.53
689.03	3591.8
689.22	3448.44
689.41	3370.62
689.599	3415.67
689.789	3473.01
689.979	3495.54
690.168	3372.66
690.358	3309.18
690.547	3382.9
690.737	3434.1
690.926	3212.92
691.116	3399.29
691.305	3260.02
691.495	3192.44
691.684	3171.96
691.874	3235.45
692.063	3339.9
692.252	3249.79
692.442	3184.25
692.631	3282.55
692.82	3290.74
693.01	3149.43
693.199	3225.21
693.388	3157.63
693.578	3147.39
693.767	3214.97
693.956	3112.57
694.146	3214.97
694.335	3083.9
694.524	3071.61
694.713	3133.05
694.902	3161.72
695.092	3231.35
695.281	3077.76
695.47	3069.56
695.659	3040.89
695.848	3004.03
696.037	3079.8
696.226	3094.14
696.415	2991.74
696.604	3116.67
696.793	3100.28
696.982	3036.8
697.171	2963.07
697.36	2969.21
697.549	2983.55
697.738	2987.65
697.927	2981.5
698.116	2864.77
698.305	2971.26
698.494	2846.34
698.683	2895.49
698.872	2967.17
699.061	3075.71
699.25	2877.05
699.438	2877.05
699.627	2954.88
699.816	2932.35
700.005	2903.68
700.193	3053.18
700.382	3016.32
700.571	2961.02
700.76	2854.53
700.948	3075.71
701.137	2795.14
701.326	2932.35
701.514	2834.05
701.703	2975.36
701.892	2842.24
702.08	3057.28
702.269	2938.49
702.457	2840.19
702.646	2864.77
702.834	2963.07
703.023	2942.59
703.212	2897.53
703.4	2852.48
703.589	2870.91
703.777	2872.96
703.965	2856.58
704.154	2864.77
704.342	2887.29
704.531	2877.05
704.719	2788.99
704.907	2901.63
705.096	2860.67
705.284	2995.84
705.472	2842.24
705.661	2852.48
705.849	2891.39
706.037	3049.08
706.226	2774.66
706.414	2801.28
706.602	2811.52
706.79	2858.62
706.979	2879.1
707.167	2811.52
707.355	2875.01
707.543	2842.24
707.731	2893.44
707.919	2895.49
708.107	2756.22
708.296	2899.58
708.484	2807.42
708.672	2774.66
708.86	2725.51
709.048	2737.79
709.236	2770.56
709.424	2745.98
709.612	2850.43
709.8	2889.34
709.988	2829.95
710.176	2868.86
710.364	2778.75
710.551	2815.62
710.739	2842.24
710.927	2702.98
711.115	2850.43
711.303	2815.62
711.491	2723.46
711.679	2840.19
711.866	2696.83
712.054	2823.81
712.242	2819.71
712.43	2735.74
712.617	2827.9
712.805	2901.63
712.993	2774.66
713.181	2700.93
713.368	2715.27
713.556	2799.23
713.744	2688.64
713.931	2821.76
714.119	2717.31
714.306	2672.26
714.494	2670.21
714.682	2727.55
714.869	2760.32
715.057	2696.83
715.244	2852.48
715.432	2889.34
715.619	2766.46
715.807	2784.9
715.994	2799.23
716.182	2647.68
716.369	2786.94
716.556	2829.95
716.744	2688.64
716.931	2823.81
717.119	2774.66
717.306	2823.81
717.493	2791.04
717.681	2692.74
717.868	2727.55
718.055	2750.08
718.242	2788.99
718.43	2750.08
718.617	2815.62
718.804	2768.51
718.991	2725.51
719.179	2664.07
719.366	2619.01
719.553	2639.49
719.74	2756.22
719.927	2682.5
720.114	2743.94
720.301	2635.39
720.488	2606.72
720.676	2659.97
720.863	2705.03
721.05	2707.07
721.237	2690.69
721.424	2545.28
721.611	2680.45
721.798	2659.97
721.985	2610.82
722.172	2639.49
722.358	2668.16
722.545	2680.45
722.732	2625.15
722.919	2731.65
723.106	2727.55
723.293	2573.96
723.48	2559.62
723.667	2664.07
723.853	2526.85
724.04	2612.87
724.227	2559.62
724.414	2647.68
724.6	2672.26
724.787	2549.38
724.974	2602.63
725.161	2565.76
725.347	2637.44
725.534	2668.16
725.72	2475.65
725.907	2684.55
726.094	2608.77
726.28	2561.67
726.467	2545.28
726.653	2506.37
726.84	2608.77
727.027	2619.01
727.213	2578.05
727.4	2506.37
727.586	2551.43
727.773	2674.31
727.959	2528.9
728.145	2676.35
728.332	2565.76
728.518	2522.76
728.705	2662.02
728.891	2688.64
729.077	2680.45
729.264	2498.18
729.45	2539.14
729.636	2682.5
729.823	2369.16
730.009	2553.48
730.195	2582.15
730.382	2610.82
730.568	2457.22
730.754	2596.48
730.94	2541.19
731.126	2668.16
731.313	2647.68
731.499	2557.57
731.685	2563.72
731.871	2530.95
732.057	2582.15
732.243	2389.64
732.429	2549.38
732.615	2373.25
732.801	2543.24
732.987	2463.37
733.173	2635.39
733.359	2469.51
733.545	2449.03
733.731	2514.56
733.917	2596.48
734.103	2514.56
734.289	2629.25
734.475	2481.8
734.661	2621.06
734.847	2459.27
735.033	2385.54
735.219	2434.69
735.404	2610.82
735.59	2406.02
735.776	2455.17
735.962	2481.8
736.148	2455.17
736.333	2496.13
736.519	2295.43
736.705	2451.08
736.89	2428.55
737.076	2520.71
737.262	2401.93
737.447	2406.02
737.633	2535.04
737.819	2299.53
738.004	2451.08
738.19	2453.13
738.375	2291.34
738.561	2418.31
738.747	2379.4
738.932	2336.39
739.118	2500.23
739.303	2373.25
739.489	2295.43
739.674	2352.77
739.859	2489.99
740.045	2512.52
740.23	2336.39
740.416	2270.86
740.601	2258.57
740.786	2277
740.972	2289.29
741.157	2258.57
741.342	2311.82
741.528	2244.23
741.713	2248.33
741.898	2295.43
742.084	2346.63
742.269	2264.71
742.454	2233.99
742.639	2199.18
742.824	2266.76
743.01	2266.76
743.195	2233.99
743.38	2246.28
743.565	2283.14
743.75	2248.33
743.935	2131.59
744.12	2233.99
744.305	2213.51
744.49	2137.74
744.675	2238.09
744.86	2109.07
745.045	2197.13
745.23	2111.11
745.415	2199.18
745.6	2055.82
745.785	2137.74
745.97	1957.52
746.155	2084.49
746.34	2072.2
746.525	2082.44
746.71	2088.59
746.895	1967.76
747.079	1992.33
747.264	1941.13
747.449	2037.39
747.634	2051.72
747.819	2027.15
748.003	1969.8
748.188	2000.52
748.373	1885.84
748.557	1844.88
748.742	1869.45
748.927	1896.08
749.111	1941.13
749.296	1758.86
749.481	1785.49
749.665	1863.31
749.85	1857.17
750.034	1877.65
750.219	1775.25
750.404	1830.54
750.588	1781.39
750.773	1773.2
750.957	1783.44
751.141	1722
751.326	1740.43
751.51	1785.49
751.695	1683.09
751.879	1656.47
752.064	1687.18
752.248	1719.95
752.432	1750.67
752.617	1560.21
752.801	1715.86
752.985	1619.6
753.17	1683.09
753.354	1601.17
753.538	1623.7
753.722	1627.79
753.907	1617.55
754.091	1517.2
754.275	1537.68
754.459	1627.79
754.643	1519.25
754.828	1537.68
755.012	1515.16
755.196	1451.67
755.38	1429.14
755.564	1543.83
755.748	1525.4
755.932	1601.17
756.116	1425.04
756.3	1504.92
756.484	1439.38
756.668	1386.13
756.852	1410.71
757.036	1480.34
757.22	1427.09
757.404	1435.28
757.588	1357.46
757.772	1293.97
757.956	1324.69
758.14	1371.8
758.323	1382.04
758.507	1353.37
758.691	1304.21
758.875	1332.89
759.059	1384.09
759.242	1302.17
759.426	1353.37
759.61	1363.61
759.794	1263.26
759.977	1330.84
760.161	1414.81
760.345	1273.5
760.528	1210.01
760.712	1193.62
760.895	1212.06
761.079	1265.3
761.263	1167
761.446	1210.01
761.63	1175.19
761.813	1169.05
761.997	1175.19
762.18	1126.04
762.364	1296.02
762.547	1154.71
762.731	1205.91
762.914	1183.38
763.098	1095.32
763.281	1113.75
763.464	1121.95
763.648	1154.71
763.831	1142.43
764.015	1146.52
764.198	1177.24
764.381	1187.48
764.564	1128.09
764.748	1126.04
764.931	1255.06
765.114	1144.47
765.297	1142.43
765.481	1152.67
765.664	1183.38
765.847	1070.75
766.03	1037.98
766.213	1107.61
766.397	1025.69
766.58	997.02
766.763	1134.23
766.946	1070.75
767.129	1001.12
767.312	1072.79
767.495	1089.18
767.678	1033.88
767.861	1052.31
768.044	1078.94
768.227	1027.74
768.41	966.3
768.593	988.83
768.776	982.68
768.959	1066.65
769.142	1025.69
769.324	978.59
769.507	976.54
769.69	941.72
769.873	997.02
770.056	927.39
770.239	1009.31
770.421	982.68
770.604	986.78
770.787	956.06
770.97	1003.16
771.152	929.44
771.335	933.53
771.518	900.76
771.7	906.91
771.883	982.68
772.066	962.2
772.248	939.68
772.431	900.76
772.613	878.24
772.796	843.42
772.978	939.68
773.161	884.38
773.343	872.09
773.526	898.72
773.708	771.74
773.891	831.13
774.073	747.17
774.256	824.99
774.438	812.7
774.621	802.46
774.803	853.66
774.985	784.03
775.168	794.27
775.35	763.55
775.532	855.71
775.715	730.78
775.897	800.41
776.079	749.22
776.261	751.26
776.444	775.84
776.626	777.89
776.808	763.55
776.99	722.59
777.173	726.69
777.355	759.46
777.537	689.82
777.719	743.07
777.901	736.93
778.083	702.11
778.265	753.31
778.447	741.02
778.629	687.78
778.811	632.48
778.993	640.67
779.175	642.72
779.357	716.45
779.539	665.25
779.721	675.49
779.903	605.86
780.085	675.49
780.267	661.15
780.449	716.45
780.631	665.25
780.812	607.91
780.994	616.1
781.176	538.27
781.358	675.49
781.54	593.57
781.721	601.76
781.903	515.75
782.085	624.29
782.267	612
782.448	575.14
782.63	573.09
782.812	614.05
782.993	560.8
783.175	624.29
783.357	579.23
783.538	614.05
783.72	599.71
783.901	577.19
784.083	499.36
784.264	577.19
784.446	501.41
784.627	499.36
784.809	546.47
784.99	439.97
785.172	577.19
785.353	523.94
785.535	482.98
785.716	507.55
785.897	491.17
786.079	493.22
786.26	583.33
786.441	540.32
786.623	399.01
786.804	470.69
786.985	478.88
787.167	399.01
787.348	415.4
787.529	538.27
787.71	394.92
787.891	472.74
788.073	458.4
788.254	462.5
788.435	435.88
788.616	476.84
788.797	417.44
788.978	458.4
789.159	407.2
789.34	437.92
789.522	380.58
789.703	442.02
789.884	464.55
790.065	394.92
790.246	413.35
790.427	489.12
790.607	407.2
790.788	370.34
790.969	392.87
791.15	407.2
791.331	399.01
791.512	384.68
791.693	360.1
791.874	351.91
792.054	513.7
792.235	366.25
792.416	372.39
792.597	411.3
792.778	382.63
792.958	333.48
793.139	333.48
793.32	462.5
793.5	370.34
793.681	372.39
793.862	345.77
794.042	231.08
794.223	370.34
794.404	396.96
794.584	356.01
794.765	370.34
794.945	415.4
795.126	335.53
795.306	431.78
795.487	349.86
795.667	310.95
795.848	372.39
796.028	345.77
796.209	300.71
796.389	349.86
796.57	265.89
796.75	282.28
796.93	353.96
797.111	298.66
797.291	347.81
797.471	304.81
797.652	241.32
797.832	296.61
798.012	239.27
798.192	280.23
798.373	284.33
798.553	265.89
798.733	265.89
798.913	235.18
799.093	310.95
799.274	292.52
799.454	282.28
799.634	239.27
799.814	288.42
799.994	341.67
800.174	337.57
800.354	321.19
800.534	243.37
800.714	243.37
800.894	212.65
801.074	165.54
801.254	298.66
801.434	300.71
801.614	272.04
801.794	247.46
801.974	691.87
802.154	325.29
802.334	255.65
802.514	243.37
802.693	265.89
802.873	249.51
803.053	261.8
803.233	298.66
803.413	251.56
803.592	321.19
803.772	288.42
803.952	243.37
804.131	200.36
804.311	306.85
804.491	265.89
804.67	186.02
804.85	249.51
805.03	247.46
805.209	269.99
805.389	263.85
805.568	280.23
805.748	163.5
805.928	216.74
806.107	218.79
806.287	235.18
806.466	243.37
806.646	276.13
806.825	210.6
807.004	306.85
807.184	188.07
807.363	218.79
807.543	190.12
807.722	161.45
807.901	226.98
808.081	243.37
808.26	206.5
808.439	188.07
808.619	194.22
808.798	190.12
808.977	198.31
809.156	186.02
809.336	294.57
809.515	181.93
809.694	229.03
809.873	175.78
810.052	224.94
810.231	214.7
810.411	192.17
810.59	212.65
810.769	212.65
810.948	267.94
811.127	179.88
811.306	186.02
811.485	220.84
811.664	306.85
811.843	208.55
812.022	212.65
812.201	167.59
812.38	196.26
812.559	171.69
812.737	202.41
812.916	153.26
813.095	300.71
813.274	212.65
813.453	165.54
813.632	210.6
813.811	214.7
813.989	145.06
814.168	173.74
814.347	138.92
814.526	136.87
814.704	198.31
814.883	206.5
815.062	224.94
815.24	167.59
815.419	136.87
815.598	116.39
815.776	231.08
815.955	169.64
816.133	130.73
816.312	212.65
816.49	165.54
816.669	145.06
816.847	196.26
817.026	95.91
817.204	122.54
817.383	110.25
817.561	63.15
817.74	167.59
817.918	120.49
818.097	110.25
818.275	167.59
818.453	140.97
818.632	108.2
818.81	198.31
818.988	124.58
819.167	149.16
819.345	145.06
819.523	284.33
819.701	138.92
819.879	114.34
820.058	132.78
820.236	198.31
820.414	87.72
820.592	122.54
820.77	140.97
820.948	169.64
821.127	194.22
821.305	147.11
821.483	132.78
821.661	190.12
821.839	81.58
822.017	118.44
822.195	171.69
822.373	104.11
822.551	87.72
822.729	169.64
822.907	136.87
823.085	171.69
823.262	104.11
823.44	87.72
823.618	122.54
823.796	112.3
823.974	151.21
824.152	75.43
824.329	95.91
824.507	69.29
824.685	140.97
824.863	161.45
825.04	181.93
825.218	155.3
825.396	102.06
825.574	128.68
825.751	161.45
825.929	143.02
826.107	67.24
826.284	134.82
826.462	151.21
826.639	116.39
826.817	145.06
826.994	140.97
827.172	151.21
827.349	134.82
827.527	54.95
827.704	73.39
827.882	140.97
828.059	59.05
828.237	81.58
828.414	161.45
828.591	130.73
828.769	89.77
828.946	114.34
829.124	159.4
829.301	118.44
829.478	134.82
829.655	124.58
829.833	38.57
830.01	106.15
830.187	204.46
830.364	91.82
830.542	118.44
830.719	71.34
830.896	102.06
831.073	106.15
831.25	120.49
831.427	151.21
831.604	130.73
831.782	106.15
831.959	59.05
832.136	85.67
832.313	79.53
832.49	120.49
832.667	190.12
832.844	54.95
833.021	102.06
833.198	52.91
833.374	138.92
833.551	32.43
833.728	30.38
833.905	100.01
834.082	122.54
834.259	81.58
834.436	91.82
834.612	77.48
834.789	65.19
834.966	128.68
835.143	87.72
835.319	13.99
835.496	85.67
835.673	79.53
835.85	79.53
836.026	102.06
836.203	116.39
836.38	104.11
836.556	91.82
836.733	128.68
836.909	85.67
837.086	63.15
837.262	104.11
837.439	59.05
837.616	89.77
837.792	28.33
837.968	42.67
838.145	26.28
838.321	22.19
838.498	106.15
838.674	110.25
838.851	61.1
839.027	102.06
839.203	102.06
839.38	157.35
839.556	71.34
839.732	134.82
839.909	136.87
840.085	85.67
840.261	77.48
840.437	50.86
840.614	122.54
840.79	46.76
840.966	132.78
841.142	30.38
841.318	52.91
841.494	104.11
841.671	36.52
841.847	46.76
842.023	61.1
842.199	54.95
842.375	102.06
842.551	83.63
842.727	57
842.903	63.15
843.079	13.99
843.255	104.11
843.431	11.95
843.607	18.09
843.783	26.28
843.959	50.86
844.134	83.63
844.31	143.02
844.486	91.82
844.662	71.34
844.838	30.38
845.013	106.15
845.189	63.15
845.365	54.95
845.541	59.05
845.716	52.91
845.892	85.67
846.068	145.06
846.244	5.8
846.419	77.48
846.595	54.95
846.77	42.67
846.946	67.24
847.122	122.54
847.297	28.33
847.473	132.78
847.648	13.99
847.824	63.15
847.999	36.52
848.175	22.19
848.35	46.76
848.526	57
848.701	52.91
848.876	77.48
849.052	50.86
849.227	16.04
849.403	24.23
849.578	54.95
849.753	-0.34
849.929	-18.77
850.104	7.85
850.279	110.25
850.454	81.58
850.63	89.77
850.805	130.73
850.98	50.86
851.155	-6.49
851.33	118.44
851.505	-20.82
851.681	114.34
851.856	118.44
852.031	46.76
852.206	1.71
852.381	-29.01
852.556	61.1
852.731	71.34
852.906	87.72
853.081	124.58
853.256	106.15
853.431	32.43
853.606	61.1
853.781	30.38
853.956	20.14
854.131	67.24
854.305	52.91
854.48	114.34
854.655	30.38
854.83	20.14
855.005	-10.58
855.18	22.19
855.354	50.86
855.529	40.62
855.704	59.05
855.879	63.15
856.053	-31.06
856.228	50.86
856.403	5.8
856.577	28.33
856.752	65.19
856.926	-16.73
857.101	54.95
857.276	36.52
857.45	50.86
857.625	75.43
857.799	52.91
857.974	20.14
858.148	11.95
858.323	1.71
858.497	7.85
858.672	22.19
858.846	3.75
859.02	102.06
859.195	46.76
859.369	-2.39
859.543	32.43
859.718	69.29
859.892	9.9
860.066	54.95
860.241	73.39
860.415	48.81
860.589	71.34
860.763	5.8
860.938	-4.44
861.112	48.81
861.286	28.33
861.46	75.43
861.634	-14.68
861.808	65.19
861.982	-16.73
862.157	28.33
862.331	63.15
862.505	54.95
862.679	-35.16
862.853	50.86
863.027	28.33
863.201	75.43
863.375	79.53
863.549	32.43
863.722	13.99
863.896	48.81
864.07	-4.44
864.244	-22.87
864.418	36.52
864.592	59.05
864.766	36.52
864.939	128.68
865.113	95.91
865.287	75.43
865.461	34.47
865.634	30.38
865.808	48.81
865.982	79.53
866.156	100.01
866.329	46.76
866.503	38.57
866.676	38.57
866.85	-31.06
867.024	13.99
867.197	38.57
867.371	-2.39
867.544	63.15
867.718	3.75
867.891	34.47
868.065	-18.77
868.238	16.04
868.412	26.28
868.585	93.87
868.759	22.19
868.932	20.14
869.105	28.33
869.279	77.48
869.452	24.23
869.625	48.81
869.799	26.28
869.972	-10.58
870.145	67.24
870.319	59.05
870.492	77.48
870.665	54.95
870.838	42.67
871.011	-4.44
871.185	30.38
871.358	-35.16
871.531	65.19
871.704	13.99
871.877	46.76
872.05	-37.2
872.223	34.47
872.396	18.09
872.569	22.19
872.742	-14.68
872.915	46.76
873.088	42.67
873.261	5.8
873.434	75.43
873.607	-43.35
873.78	79.53
873.953	26.28
874.126	46.76
874.299	65.19
874.471	20.14
874.644	65.19
874.817	52.91
874.99	-2.39
875.163	77.48
875.335	13.99
875.508	11.95
875.681	57
875.853	22.19
876.026	-24.92
876.199	-10.58
876.371	69.29
876.544	75.43
876.717	71.34
876.889	-41.3
877.062	65.19
877.234	3.75
877.407	-31.06
877.579	65.19
877.752	44.71
877.924	24.23
878.097	24.23
878.269	-22.87
878.442	13.99
878.614	-4.44
878.786	61.1
878.959	26.28
879.131	79.53
879.303	-26.96
879.476	73.39
879.648	22.19
879.82	81.58
879.993	52.91
880.165	100.01
880.337	104.11
880.509	34.47
880.681	-35.16
880.854	52.91
881.026	40.62
881.198	69.29
881.37	-2.39
881.542	54.95
881.714	-51.54
881.886	20.14
882.058	46.76
882.23	24.23
882.402	11.95
882.574	42.67
882.746	5.8
882.918	26.28
883.09	28.33
883.262	-26.96
883.434	-2.39
883.606	-74.07
883.778	-26.96
883.95	1.71
884.122	-2.39
884.293	61.1
884.465	22.19
884.637	102.06
884.809	1.71
884.98	46.76
885.152	22.19
885.324	22.19
885.496	-10.58
885.667	3.75
885.839	63.15
886.011	28.33
886.182	-2.39
886.354	46.76
886.525	46.76
886.697	30.38
886.869	67.24
887.04	16.04
887.212	13.99
887.383	-2.39
887.555	40.62
887.726	1.71
887.897	-10.58
888.069	75.43
888.24	5.8
888.412	36.52
888.583	-33.11
888.754	93.87
888.926	-10.58
889.097	71.34
889.268	38.57
889.44	-41.3
889.611	36.52
889.782	46.76
889.953	-14.68
890.125	59.05
890.296	26.28
890.467	81.58
890.638	-4.44
890.809	18.09
890.98	-20.82
891.151	9.9
891.323	89.77
891.494	65.19
891.665	-37.2
891.836	38.57
892.007	59.05
892.178	59.05
892.349	24.23
892.52	3.75
892.691	65.19
892.862	40.62
893.032	3.75
893.203	-18.77
893.374	46.76
893.545	87.72
893.716	-57.68
893.887	9.9
894.057	42.67
894.228	-12.63
894.399	-4.44
894.57	46.76
894.74	-6.49
894.911	50.86
895.082	48.81
895.253	42.67
895.423	32.43
895.594	75.43
895.764	46.76
895.935	-26.96
896.106	-61.78
896.276	85.67
896.447	1.71
896.617	36.52
896.788	-14.68
896.958	42.67
897.129	28.33
897.299	16.04
897.47	54.95
897.64	-6.49
897.81	-8.53
897.981	22.19
898.151	11.95
898.322	87.72
898.492	5.8
898.662	-63.83
898.832	69.29
899.003	50.86
899.173	24.23
899.343	36.52
899.513	-24.92
