Data from USB4F104151__213__11-10-35-844.txt Node

Date: Wed Mar 12 11:10:35 EDT 2025
User: louis
Spectrometer: USB4F10415
Trigger mode: 4
Integration Time (sec): 2.000000E-2
Scans to average: 1
Electric dark correction enabled: true
Nonlinearity correction enabled: false
Boxcar width: 0
XAxis mode: Wavelengths
Number of Pixels in Spectrum: 3648
>>>>>Begin Spectral Data<<<<<
178.204	4.78
178.424	4.78
178.644	4.78
178.864	-83.28
179.084	-118.1
179.304	27.31
179.524	-32.08
179.744	-23.89
179.964	-7.51
180.184	43.69
180.404	-9.56
180.624	-54.61
180.844	41.64
181.064	17.07
181.283	19.11
181.503	-30.04
181.723	8.87
181.943	92.84
182.163	78.51
182.383	-48.47
182.602	60.07
182.822	8.87
183.042	74.41
183.262	17.07
183.482	33.45
183.701	-11.61
183.921	8.87
184.141	-85.33
184.361	41.64
184.58	4.78
184.8	0.68
185.02	-23.89
185.239	58.03
185.459	2.73
185.679	82.6
185.898	-25.94
186.118	33.45
186.338	19.11
186.557	72.36
186.777	-13.65
186.997	6.83
187.216	41.64
187.436	15.02
187.655	39.59
187.875	6.83
188.095	-7.51
188.314	135.85
188.534	49.83
188.753	12.97
188.973	53.93
189.192	19.11
189.412	74.41
189.631	82.6
189.851	29.35
190.07	19.11
190.29	35.5
190.509	25.26
190.729	-9.56
190.948	27.31
191.168	21.16
191.387	31.4
191.607	49.83
191.826	62.12
192.045	27.31
192.265	-36.18
192.484	-19.8
192.704	53.93
192.923	-52.56
193.142	121.51
193.362	70.31
193.581	70.31
193.8	-19.8
194.02	49.83
194.239	37.55
194.458	58.03
194.678	-11.61
194.897	8.87
195.116	33.45
195.335	12.97
195.555	-17.75
195.774	17.07
195.993	-11.61
196.212	-23.89
196.432	94.89
196.651	96.94
196.87	-7.51
197.089	17.07
197.308	35.5
197.528	58.03
197.747	25.26
197.966	82.6
198.185	43.69
198.404	4.78
198.623	-46.42
198.842	19.11
199.062	41.64
199.281	29.35
199.5	39.59
199.719	-23.89
199.938	12.97
200.157	12.97
200.376	12.97
200.595	-54.61
200.814	10.92
201.033	6.83
201.252	12.97
201.471	45.74
201.69	0.68
201.909	107.18
202.128	-19.8
202.347	62.12
202.566	-15.7
202.785	-13.65
203.004	-19.8
203.223	72.36
203.442	41.64
203.661	31.4
203.879	37.55
204.098	31.4
204.317	41.64
204.536	-1.37
204.755	10.92
204.974	55.98
205.193	27.31
205.411	76.46
205.63	94.89
205.849	37.55
206.068	66.22
206.287	-68.95
206.505	64.17
206.724	64.17
206.943	-13.65
207.162	-44.37
207.381	0.68
207.599	70.31
207.818	4.78
208.037	10.92
208.255	-44.37
208.474	41.64
208.693	70.31
208.911	82.6
209.13	64.17
209.349	15.02
209.567	8.87
209.786	53.93
210.005	33.45
210.223	47.79
210.442	-42.32
210.661	82.6
210.879	33.45
211.098	33.45
211.316	21.16
211.535	45.74
211.753	51.88
211.972	-9.56
212.191	21.16
212.409	39.59
212.628	-27.99
212.846	33.45
213.065	-9.56
213.283	82.6
213.502	49.83
213.72	19.11
213.938	-21.84
214.157	-5.46
214.375	-11.61
214.594	-13.65
214.812	37.55
215.031	76.46
215.249	-1.37
215.467	66.22
215.686	31.4
215.904	39.59
216.122	43.69
216.341	19.11
216.559	45.74
216.778	55.98
216.996	37.55
217.214	-25.94
217.432	-68.95
217.651	15.02
217.869	53.93
218.087	35.5
218.306	35.5
218.524	64.17
218.742	62.12
218.96	-48.47
219.179	47.79
219.397	12.97
219.615	49.83
219.833	47.79
220.051	-36.18
220.27	49.83
220.488	-5.46
220.706	12.97
220.924	64.17
221.142	-7.51
221.36	-83.28
221.578	33.45
221.796	35.5
222.015	-27.99
222.233	-30.04
222.451	74.41
222.669	21.16
222.887	-3.41
223.105	82.6
223.323	-15.7
223.541	47.79
223.759	29.35
223.977	-30.04
224.195	111.27
224.413	51.88
224.631	-7.51
224.849	29.35
225.067	78.51
225.285	21.16
225.503	84.65
225.721	8.87
225.939	12.97
226.157	27.31
226.375	25.26
226.592	-34.13
226.81	-1.37
227.028	58.03
227.246	27.31
227.464	76.46
227.682	53.93
227.9	17.07
228.117	90.79
228.335	25.26
228.553	27.31
228.771	10.92
228.989	-3.41
229.206	-15.7
229.424	-1.37
229.642	21.16
229.86	12.97
230.077	96.94
230.295	-23.89
230.513	51.88
230.731	88.75
230.948	-7.51
231.166	17.07
231.384	-3.41
231.601	23.21
231.819	41.64
232.037	35.5
232.254	-21.84
232.472	41.64
232.689	80.55
232.907	58.03
233.125	-30.04
233.342	74.41
233.56	10.92
233.777	-17.75
233.995	27.31
234.213	35.5
234.43	12.97
234.648	-25.94
234.865	51.88
235.083	123.56
235.3	37.55
235.518	55.98
235.735	15.02
235.953	31.4
236.17	2.73
236.388	-19.8
236.605	27.31
236.822	53.93
237.04	-9.56
237.257	25.26
237.475	-3.41
237.692	31.4
237.909	29.35
238.127	23.21
238.344	6.83
238.562	80.55
238.779	-5.46
238.996	23.21
239.214	-9.56
239.431	29.35
239.648	15.02
239.865	-19.8
240.083	62.12
240.3	15.02
240.517	58.03
240.735	60.07
240.952	23.21
241.169	35.5
241.386	51.88
241.603	107.18
241.821	12.97
242.038	23.21
242.255	31.4
242.472	84.65
242.689	45.74
242.907	29.35
243.124	-7.51
243.341	58.03
243.558	8.87
243.775	-11.61
243.992	17.07
244.209	45.74
244.426	39.59
244.643	21.16
244.86	2.73
245.078	41.64
245.295	80.55
245.512	41.64
245.729	21.16
245.946	45.74
246.163	35.5
246.38	41.64
246.597	31.4
246.814	-1.37
247.031	35.5
247.248	23.21
247.464	21.16
247.681	66.22
247.898	-3.41
248.115	35.5
248.332	-7.51
248.549	17.07
248.766	27.31
248.983	-19.8
249.2	49.83
249.417	35.5
249.633	-15.7
249.85	98.99
250.067	33.45
250.284	94.89
250.501	49.83
250.717	121.51
250.934	6.83
251.151	88.75
251.368	39.59
251.585	76.46
251.801	88.75
252.018	64.17
252.235	86.7
252.451	12.97
252.668	70.31
252.885	96.94
253.102	31.4
253.318	72.36
253.535	-5.46
253.752	29.35
253.968	80.55
254.185	-38.23
254.401	12.97
254.618	43.69
254.835	-11.61
255.051	66.22
255.268	72.36
255.484	-13.65
255.701	53.93
255.917	41.64
256.134	49.83
256.351	35.5
256.567	47.79
256.784	0.68
257	70.31
257.217	-9.56
257.433	-21.84
257.65	64.17
257.866	64.17
258.082	49.83
258.299	39.59
258.515	37.55
258.732	29.35
258.948	-3.41
259.165	-13.65
259.381	78.51
259.597	58.03
259.814	-11.61
260.03	-48.47
260.246	-17.75
260.463	4.78
260.679	29.35
260.895	19.11
261.112	55.98
261.328	35.5
261.544	58.03
261.761	10.92
261.977	-15.7
262.193	37.55
262.409	17.07
262.626	45.74
262.842	51.88
263.058	27.31
263.274	62.12
263.49	127.66
263.707	76.46
263.923	-9.56
264.139	-101.72
264.355	70.31
264.571	68.27
264.787	25.26
265.004	15.02
265.22	-30.04
265.436	60.07
265.652	51.88
265.868	43.69
266.084	0.68
266.3	58.03
266.516	62.12
266.732	2.73
266.948	62.12
267.164	33.45
267.38	10.92
267.596	-3.41
267.812	68.27
268.028	72.36
268.244	33.45
268.46	41.64
268.676	35.5
268.892	2.73
269.108	-68.95
269.324	-40.28
269.54	-3.41
269.756	66.22
269.972	66.22
270.188	58.03
270.403	-3.41
270.619	119.46
270.835	60.07
271.051	37.55
271.267	10.92
271.483	55.98
271.698	90.79
271.914	39.59
272.13	6.83
272.346	37.55
272.562	58.03
272.777	72.36
272.993	27.31
273.209	70.31
273.425	70.31
273.64	21.16
273.856	60.07
274.072	8.87
274.287	31.4
274.503	-7.51
274.719	53.93
274.934	47.79
275.15	-32.08
275.366	53.93
275.581	51.88
275.797	45.74
276.012	-7.51
276.228	-38.23
276.444	-3.41
276.659	82.6
276.875	-50.52
277.09	60.07
277.306	2.73
277.521	-21.84
277.737	-23.89
277.952	74.41
278.168	84.65
278.383	88.75
278.599	35.5
278.814	-15.7
279.03	-66.9
279.245	29.35
279.461	58.03
279.676	12.97
279.892	-30.04
280.107	60.07
280.322	51.88
280.538	107.18
280.753	10.92
280.969	-3.41
281.184	12.97
281.399	84.65
281.615	-54.61
281.83	2.73
282.045	90.79
282.26	-19.8
282.476	15.02
282.691	12.97
282.906	37.55
283.122	27.31
283.337	8.87
283.552	0.68
283.767	92.84
283.983	0.68
284.198	-34.13
284.413	111.27
284.628	66.22
284.843	-7.51
285.058	21.16
285.274	58.03
285.489	-11.61
285.704	33.45
285.919	115.37
286.134	58.03
286.349	35.5
286.564	-27.99
286.779	33.45
286.995	-1.37
287.21	-27.99
287.425	62.12
287.64	29.35
287.855	15.02
288.07	-3.41
288.285	-3.41
288.5	72.36
288.715	60.07
288.93	15.02
289.145	64.17
289.36	15.02
289.575	29.35
289.79	84.65
290.004	-25.94
290.219	144.04
290.434	27.31
290.649	12.97
290.864	31.4
291.079	35.5
291.294	27.31
291.509	80.55
291.724	10.92
291.938	68.27
292.153	45.74
292.368	78.51
292.583	51.88
292.798	121.51
293.012	70.31
293.227	64.17
293.442	49.83
293.657	115.37
293.871	31.4
294.086	94.89
294.301	82.6
294.516	86.7
294.73	21.16
294.945	-5.46
295.16	0.68
295.374	51.88
295.589	4.78
295.804	-13.65
296.018	64.17
296.233	86.7
296.447	4.78
296.662	12.97
296.877	-3.41
297.091	86.7
297.306	12.97
297.52	53.93
297.735	35.5
297.949	-75.09
298.164	37.55
298.378	-9.56
298.593	39.59
298.807	-48.47
299.022	45.74
299.236	66.22
299.451	15.02
299.665	-13.65
299.88	78.51
300.094	-32.08
300.309	47.79
300.523	74.41
300.737	0.68
300.952	23.21
301.166	4.78
301.381	-15.7
301.595	29.35
301.809	55.98
302.024	37.55
302.238	4.78
302.452	103.08
302.667	-3.41
302.881	27.31
303.095	96.94
303.309	27.31
303.524	60.07
303.738	107.18
303.952	82.6
304.166	12.97
304.381	-32.08
304.595	62.12
304.809	-58.71
305.023	127.66
305.237	103.08
305.452	90.79
305.666	29.35
305.88	76.46
306.094	-1.37
306.308	49.83
306.522	12.97
306.736	109.23
306.95	19.11
307.164	31.4
307.379	60.07
307.593	115.37
307.807	19.11
308.021	62.12
308.235	58.03
308.449	23.21
308.663	10.92
308.877	41.64
309.091	27.31
309.305	31.4
309.519	-46.42
309.733	66.22
309.947	-68.95
310.161	53.93
310.374	35.5
310.588	33.45
310.802	-25.94
311.016	6.83
311.23	78.51
311.444	8.87
311.658	4.78
311.872	-32.08
312.085	17.07
312.299	-3.41
312.513	4.78
312.727	43.69
312.941	10.92
313.154	-3.41
313.368	10.92
313.582	31.4
313.796	78.51
314.009	58.03
314.223	58.03
314.437	25.26
314.651	47.79
314.864	35.5
315.078	70.31
315.292	-30.04
315.505	6.83
315.719	43.69
315.933	70.31
316.146	-11.61
316.36	-32.08
316.573	19.11
316.787	88.75
317.001	-9.56
317.214	6.83
317.428	33.45
317.641	6.83
317.855	43.69
318.068	4.78
318.282	80.55
318.495	74.41
318.709	64.17
318.922	51.88
319.136	55.98
319.349	98.99
319.563	66.22
319.776	-3.41
319.99	-85.33
320.203	35.5
320.417	25.26
320.63	43.69
320.843	92.84
321.057	76.46
321.27	74.41
321.483	53.93
321.697	0.68
321.91	29.35
322.124	58.03
322.337	51.88
322.55	23.21
322.763	19.11
322.977	21.16
323.19	29.35
323.403	6.83
323.617	43.69
323.83	45.74
324.043	21.16
324.256	-9.56
324.469	25.26
324.683	31.4
324.896	-32.08
325.109	109.23
325.322	47.79
325.535	27.31
325.748	-9.56
325.962	-9.56
326.175	12.97
326.388	62.12
326.601	53.93
326.814	31.4
327.027	58.03
327.24	68.27
327.453	25.26
327.666	49.83
327.879	0.68
328.092	121.51
328.305	35.5
328.518	51.88
328.731	41.64
328.944	45.74
329.157	115.37
329.37	25.26
329.583	15.02
329.796	58.03
330.009	19.11
330.222	19.11
330.435	64.17
330.648	27.31
330.861	21.16
331.073	10.92
331.286	6.83
331.499	25.26
331.712	12.97
331.925	94.89
332.138	23.21
332.35	68.27
332.563	76.46
332.776	17.07
332.989	-1.37
333.202	53.93
333.414	66.22
333.627	-23.89
333.84	70.31
334.053	33.45
334.265	17.07
334.478	12.97
334.691	12.97
334.903	86.7
335.116	58.03
335.329	31.4
335.541	-19.8
335.754	96.94
335.966	25.26
336.179	49.83
336.392	-15.7
336.604	66.22
336.817	12.97
337.029	43.69
337.242	113.32
337.454	41.64
337.667	6.83
337.88	29.35
338.092	86.7
338.305	60.07
338.517	51.88
338.729	84.65
338.942	66.22
339.154	45.74
339.367	-15.7
339.579	47.79
339.792	-60.76
340.004	121.51
340.217	49.83
340.429	131.75
340.641	12.97
340.854	96.94
341.066	109.23
341.278	82.6
341.491	60.07
341.703	39.59
341.915	19.11
342.128	148.14
342.34	17.07
342.552	23.21
342.764	70.31
342.977	62.12
343.189	94.89
343.401	6.83
343.613	21.16
343.826	82.6
344.038	92.84
344.25	119.46
344.462	43.69
344.674	72.36
344.886	78.51
345.099	72.36
345.311	82.6
345.523	49.83
345.735	-7.51
345.947	70.31
346.159	62.12
346.371	101.03
346.583	53.93
346.795	51.88
347.007	-32.08
347.219	62.12
347.431	43.69
347.643	60.07
347.855	-19.8
348.067	131.75
348.279	-11.61
348.491	45.74
348.703	-27.99
348.915	55.98
349.127	29.35
349.339	66.22
349.551	115.37
349.763	49.83
349.975	70.31
350.187	4.78
350.399	70.31
350.61	-40.28
350.822	43.69
351.034	62.12
351.246	-11.61
351.458	41.64
351.669	74.41
351.881	8.87
352.093	62.12
352.305	66.22
352.517	49.83
352.728	82.6
352.94	41.64
353.152	37.55
353.363	0.68
353.575	33.45
353.787	68.27
353.999	51.88
354.21	76.46
354.422	84.65
354.633	68.27
354.845	60.07
355.057	8.87
355.268	29.35
355.48	43.69
355.692	-36.18
355.903	-3.41
356.115	19.11
356.326	35.5
356.538	21.16
356.749	17.07
356.961	60.07
357.172	15.02
357.384	37.55
357.595	111.27
357.807	58.03
358.018	4.78
358.23	41.64
358.441	117.42
358.653	4.78
358.864	58.03
359.075	23.21
359.287	82.6
359.498	37.55
359.709	78.51
359.921	49.83
360.132	64.17
360.344	76.46
360.555	33.45
360.766	125.61
360.977	-25.94
361.189	109.23
361.4	37.55
361.611	27.31
361.823	29.35
362.034	45.74
362.245	10.92
362.456	103.08
362.667	39.59
362.879	23.21
363.09	25.26
363.301	0.68
363.512	33.45
363.723	123.56
363.935	88.75
364.146	82.6
364.357	29.35
364.568	23.21
364.779	6.83
364.99	98.99
365.201	78.51
365.412	70.31
365.623	-11.61
365.834	-38.23
366.045	41.64
366.256	25.26
366.467	141.99
366.678	58.03
366.889	62.12
367.1	45.74
367.311	72.36
367.522	35.5
367.733	72.36
367.944	37.55
368.155	70.31
368.366	2.73
368.577	66.22
368.788	96.94
368.999	-15.7
369.209	33.45
369.42	60.07
369.631	70.31
369.842	37.55
370.053	23.21
370.264	-5.46
370.474	60.07
370.685	53.93
370.896	64.17
371.107	37.55
371.317	-7.51
371.528	45.74
371.739	47.79
371.95	27.31
372.16	135.85
372.371	72.36
372.582	47.79
372.792	35.5
373.003	43.69
373.214	35.5
373.424	45.74
373.635	8.87
373.846	62.12
374.056	25.26
374.267	-21.84
374.477	12.97
374.688	33.45
374.898	51.88
375.109	8.87
375.319	27.31
375.53	109.23
375.74	47.79
375.951	37.55
376.161	35.5
376.372	62.12
376.582	-5.46
376.793	19.11
377.003	60.07
377.214	80.55
377.424	58.03
377.635	39.59
377.845	15.02
378.055	35.5
378.266	17.07
378.476	33.45
378.686	45.74
378.897	27.31
379.107	88.75
379.317	45.74
379.528	33.45
379.738	39.59
379.948	47.79
380.158	86.7
380.369	111.27
380.579	55.98
380.789	70.31
380.999	45.74
381.21	37.55
381.42	51.88
381.63	39.59
381.84	109.23
382.05	17.07
382.261	92.84
382.471	68.27
382.681	53.93
382.891	66.22
383.101	12.97
383.311	8.87
383.521	10.92
383.731	6.83
383.941	86.7
384.151	41.64
384.361	-40.28
384.571	119.46
384.781	53.93
384.991	49.83
385.201	107.18
385.411	68.27
385.621	25.26
385.831	33.45
386.041	66.22
386.251	82.6
386.461	31.4
386.671	74.41
386.881	33.45
387.091	88.75
387.301	62.12
387.511	80.55
387.72	115.37
387.93	53.93
388.14	-5.46
388.35	-5.46
388.56	96.94
388.769	53.93
388.979	105.13
389.189	25.26
389.399	64.17
389.609	80.55
389.818	92.84
390.028	31.4
390.238	66.22
390.447	-3.41
390.657	113.32
390.867	180.9
391.076	88.75
391.286	96.94
391.496	41.64
391.705	47.79
391.915	66.22
392.125	60.07
392.334	98.99
392.544	107.18
392.753	-3.41
392.963	84.65
393.172	76.46
393.382	53.93
393.591	117.42
393.801	27.31
394.01	158.38
394.22	76.46
394.429	-7.51
394.639	62.12
394.848	41.64
395.058	58.03
395.267	103.08
395.477	31.4
395.686	115.37
395.895	68.27
396.105	121.51
396.314	80.55
396.524	98.99
396.733	109.23
396.942	105.13
397.152	53.93
397.361	101.03
397.57	49.83
397.78	62.12
397.989	84.65
398.198	156.33
398.407	66.22
398.617	152.23
398.826	76.46
399.035	33.45
399.244	168.62
399.453	82.6
399.663	131.75
399.872	86.7
400.081	66.22
400.29	107.18
400.499	137.9
400.708	84.65
400.917	96.94
401.127	39.59
401.336	88.75
401.545	98.99
401.754	109.23
401.963	92.84
402.172	45.74
402.381	96.94
402.59	84.65
402.799	158.38
403.008	107.18
403.217	160.42
403.426	166.57
403.635	55.98
403.844	178.86
404.053	101.03
404.262	150.18
404.471	180.9
404.68	162.47
404.888	96.94
405.097	111.27
405.306	125.61
405.515	88.75
405.724	70.31
405.933	178.86
406.142	158.38
406.35	250.53
406.559	148.14
406.768	92.84
406.977	170.66
407.185	164.52
407.394	152.23
407.603	230.06
407.812	182.95
408.02	129.7
408.229	154.28
408.438	244.39
408.646	277.16
408.855	166.57
409.064	211.62
409.272	180.9
409.481	291.49
409.69	185
409.898	246.44
410.107	187.05
410.315	314.02
410.524	291.49
410.733	434.85
410.941	354.98
411.15	250.53
411.358	277.16
411.567	340.65
411.775	334.5
411.984	357.03
412.192	412.32
412.401	330.41
412.609	395.94
412.818	459.43
413.026	404.13
413.234	436.9
413.443	512.67
413.651	504.48
413.86	492.2
414.068	555.68
414.276	535.2
414.485	506.53
414.693	539.3
414.901	600.74
415.11	559.78
415.318	570.02
415.526	588.45
415.734	690.85
415.943	701.09
416.151	721.57
416.359	684.7
416.567	791.2
416.776	772.77
416.984	821.92
417.192	940.7
417.4	801.44
417.608	862.88
417.817	1012.38
418.025	975.52
418.233	983.71
418.441	1008.28
418.649	1016.48
418.857	1153.69
419.065	1182.36
419.273	1055.39
419.481	1196.7
419.689	1241.75
419.897	1426.07
420.105	1247.9
420.313	1421.97
420.521	1350.29
420.729	1374.87
420.937	1456.79
421.145	1551
421.353	1579.67
421.561	1694.35
421.769	1663.63
421.977	1839.76
422.185	1768.08
422.393	1948.3
422.601	1960.59
422.809	1911.44
423.017	2009.74
423.224	2114.19
423.432	2067.08
423.64	2103.95
423.848	2361.99
424.056	2245.26
424.263	2427.53
424.471	2482.82
424.679	2589.32
424.887	2663.04
425.094	2638.47
425.302	2744.96
425.51	2865.79
425.718	2939.52
425.925	2945.66
426.133	3156.6
426.341	3353.21
426.548	3406.45
426.756	3326.58
426.964	3408.5
427.171	3596.92
427.379	3691.12
427.586	3799.66
427.794	3889.78
428.001	4129.39
428.209	4264.55
428.417	4082.28
428.624	4356.71
428.832	4350.57
429.039	4354.66
429.247	4366.95
429.454	4770.4
429.662	5259.87
429.869	4883.04
430.076	5290.59
430.284	5104.22
430.491	5331.55
430.699	5601.88
430.906	5483.1
431.114	5669.46
431.321	5935.7
431.528	6013.52
431.736	6396.49
431.943	6711.88
432.15	6591.05
432.358	6455.88
432.565	6787.65
432.772	6818.37
432.979	7131.71
433.187	7414.33
433.394	7166.53
433.601	7911.99
433.808	7846.45
434.016	7850.55
434.223	8151.6
434.43	9062.94
434.637	8438.31
434.844	9146.91
435.052	9470.49
435.259	9302.56
435.466	9386.52
435.673	9210.4
435.88	9837.08
436.087	10355.21
436.294	10459.66
436.501	10064.4
436.708	10228.24
436.915	10684.94
437.122	11293.18
437.329	10994.18
437.537	11278.85
437.743	11485.69
437.95	11579.9
438.157	12177.9
438.364	12476.91
438.571	12597.74
438.778	12534.25
438.985	13685.21
439.192	13380.06
439.399	13748.7
439.606	13488.6
439.813	14150.1
440.02	14930.37
440.227	14467.53
440.433	14445.01
440.64	15090.12
440.847	15106.5
441.054	15477.18
441.261	16214.45
441.467	16159.16
441.674	16622
441.881	16904.62
442.088	17076.65
442.294	16742.83
442.501	17375.65
442.708	17535.39
442.914	18555.28
443.121	19038.6
443.328	18706.83
443.534	19945.85
443.741	19440
443.948	18747.79
444.154	20384.12
444.361	20275.57
444.568	20615.54
444.774	20294
444.981	20756.85
445.187	21180.78
445.394	22004.06
445.6	21711.2
445.807	24117.56
446.013	22675.79
446.22	23351.62
446.426	24435
446.633	24371.51
446.839	25454.89
447.046	24258.87
447.252	25747.75
447.459	25567.52
447.665	25180.46
447.871	26720.53
448.078	27422.98
448.284	26145.05
448.491	27048.21
448.697	28164.35
448.903	28549.37
449.11	28569.85
449.316	28297.47
449.522	28760.31
449.728	29432.04
449.935	29761.76
450.141	29640.93
450.347	30447.83
450.553	29294.83
450.76	29739.24
450.966	30554.33
451.172	30349.53
451.378	31295.69
451.584	30232.8
451.791	31144.14
451.997	30892.24
452.203	31647.94
452.409	31512.78
452.615	31467.72
452.821	29933.79
453.027	29952.23
453.233	31512.78
453.44	29749.48
453.646	30314.72
453.852	30415.07
454.058	30963.92
454.264	30103.78
454.47	30742.74
454.676	29597.93
454.882	30808.28
455.088	28408.06
455.294	28344.57
455.5	28928.24
455.705	29368.55
455.911	28115.2
456.117	27689.22
456.323	27187.47
456.529	25612.58
456.735	26751.25
456.941	26069.28
457.147	25833.76
457.352	25139.5
457.558	24656.18
457.764	24772.91
457.97	24144.19
458.176	23753.02
458.381	23730.5
458.587	22651.22
458.793	22442.32
458.999	21404
459.204	23179.59
459.41	22305.11
459.616	20820.33
459.821	20771.18
460.027	20781.42
460.233	20484.47
460.438	19247.49
460.644	19616.13
460.85	18817.42
461.055	18194.84
461.261	18459.02
461.466	17002.92
461.672	16546.22
461.878	17699.23
462.083	16306.61
462.289	16374.19
462.494	16097.72
462.7	15430.08
462.905	14965.19
463.111	15307.2
463.316	15378.88
463.522	15208.9
463.727	15186.37
463.932	15172.04
464.138	15174.08
464.343	15045.06
464.549	14701
464.754	15106.5
464.959	14997.96
465.165	14672.33
465.37	14111.19
465.575	14051.8
465.781	14395.85
465.986	14551.5
466.191	13836.76
466.397	13754.84
466.602	13074.92
466.807	13480.41
467.012	13732.31
467.218	13705.69
467.423	13294.05
467.628	13326.82
467.833	13939.16
468.038	13464.03
468.244	13109.73
468.449	13447.65
468.654	13130.21
468.859	13003.24
469.064	13054.44
469.269	12394.99
469.474	12763.62
469.679	12915.17
469.885	12497.39
470.09	12663.27
470.295	12663.27
470.5	12526.06
470.705	12372.46
470.91	12073.46
471.115	12087.79
471.32	12079.6
471.525	11921.91
471.73	11760.12
471.935	11579.9
472.139	11368.96
472.344	11459.07
472.549	11493.88
472.754	11192.83
472.959	11381.24
473.164	10734.09
473.369	10725.89
473.574	10963.46
473.778	10691.08
473.983	10658.31
474.188	10621.45
474.393	10127.89
474.598	10385.93
474.802	10430.99
475.007	10310.16
475.212	9994.77
475.417	9683.48
475.621	9914.9
475.826	9853.46
476.031	9601.56
476.235	9384.48
476.44	9484.83
476.645	9404.96
476.849	9513.5
477.054	9329.18
477.259	9132.58
477.463	9155.1
477.668	8878.63
477.872	8921.63
478.077	8784.42
478.282	8759.84
478.486	8692.26
478.691	8702.5
478.895	8626.73
479.1	8573.48
479.304	8585.77
479.509	8147.5
479.713	8475.18
479.918	8124.97
480.122	8157.74
480.326	8010.29
480.531	8133.17
480.735	8014.38
480.94	8030.77
481.144	8327.72
481.348	7920.18
481.553	7844.4
481.757	7762.48
481.961	7803.44
482.166	8112.69
482.37	8049.2
482.574	7701.05
482.778	7875.12
482.983	7942.71
483.187	8047.15
483.391	7952.95
483.595	7809.59
483.8	7684.66
484.004	7901.75
484.208	7969.33
484.412	7868.98
484.616	7866.93
484.821	7957.04
485.025	7719.48
485.229	8006.19
485.433	7694.9
485.637	7731.76
485.841	7791.16
486.045	7914.03
486.249	7881.27
486.453	7778.87
486.657	8014.38
486.861	7770.68
487.065	7758.39
487.269	7692.85
487.473	7778.87
487.677	7860.79
487.881	7787.06
488.085	7742
488.289	8135.21
488.493	7832.12
488.697	7909.94
488.901	7688.76
489.105	7957.04
489.309	7901.75
489.512	8096.3
489.716	7914.03
489.92	7920.18
490.124	7858.74
490.328	7998
490.531	8045.1
490.735	8114.73
490.939	8151.6
491.143	8102.45
491.346	8254
491.55	8145.45
491.754	8229.42
491.958	8364.59
492.161	8133.17
492.365	8327.72
492.569	8213.04
492.772	8219.18
492.976	8297
493.18	8350.25
493.383	8626.73
493.587	8663.59
493.79	8657.45
493.994	8491.56
494.197	8798.76
494.401	8802.85
494.605	8561.19
494.808	8841.76
495.012	8780.32
495.215	8864.29
495.419	8929.83
495.622	8895.01
495.825	9060.9
496.029	9050.66
496.232	9439.77
496.436	9212.45
496.639	9540.12
496.843	9425.43
497.046	9757.21
497.249	9755.16
497.453	9892.37
497.656	9919
497.859	9990.67
498.063	10078.74
498.266	10115.6
498.469	10244.62
498.673	10334.73
498.876	10273.29
499.079	10414.6
499.282	10531.34
499.485	10791.43
499.689	10949.12
499.892	10801.67
500.095	10981.89
500.298	11188.74
500.501	11049.47
500.705	11420.16
500.908	11602.43
501.111	11616.76
501.314	11948.53
501.517	11831.8
501.72	12138.99
501.923	12067.31
502.126	12343.79
502.329	12247.54
502.532	12700.14
502.735	12524.01
502.938	13009.38
503.141	13029.86
503.344	13079.01
503.547	13146.59
503.75	13367.77
503.953	13404.64
504.156	13722.07
504.359	13713.88
504.562	13902.29
504.765	14182.87
504.968	14410.19
505.17	14414.29
505.373	14459.34
505.576	14787.02
505.779	14844.36
505.982	15163.84
506.185	15266.24
506.387	15401.41
506.59	15475.13
506.793	15872.44
506.996	15804.86
507.198	16531.89
507.401	16101.81
507.604	16216.5
507.807	16714.16
508.009	16810.41
508.212	16767.4
508.415	17062.31
508.617	17334.69
508.82	17191.33
509.022	17416.61
509.225	17940.89
509.428	17990.04
509.63	17990.04
509.833	18168.21
510.035	18487.7
510.238	18477.46
510.44	18903.43
510.643	19224.97
510.845	18983.31
511.048	19134.85
511.25	19573.12
511.453	19528.06
511.655	20175.22
511.858	20162.93
512.06	20251
512.262	20367.73
512.465	20390.26
512.667	20771.18
512.87	21045.61
513.072	20797.81
513.274	21543.27
513.477	21692.77
513.679	22040.92
513.881	22100.31
514.084	22038.87
514.286	22139.22
514.488	22382.93
514.69	22903.12
514.893	23183.69
515.095	23380.29
515.297	23626.05
515.499	23363.91
515.701	23869.76
515.904	24009.02
516.106	24525.11
516.308	24316.22
516.51	24674.61
516.712	24975.66
516.914	24867.12
517.116	25375.02
517.318	25567.52
517.52	25958.69
517.722	25581.86
517.925	25882.91
518.127	26560.79
518.329	26822.93
518.531	26591.51
518.733	26992.91
518.935	27498.76
519.136	27259.15
519.338	27752.71
519.54	28113.15
519.742	27914.5
519.944	28229.88
520.146	28733.68
520.348	28831.99
520.55	28954.86
520.752	29184.24
520.954	29604.07
521.155	29292.78
521.357	29931.75
521.559	30005.47
521.761	30882
521.963	30394.59
522.164	30781.65
522.366	30875.86
522.568	31148.24
522.77	31174.86
522.971	31846.6
523.173	31193.29
523.375	31783.11
523.576	31545.55
523.778	31811.78
523.98	32225.47
524.181	32493.75
524.383	32317.63
524.584	33231.02
524.786	32819.38
524.988	32905.4
525.189	33319.09
525.391	33863.85
525.592	33931.43
525.794	33810.6
525.995	33820.84
526.197	34240.67
526.398	34123.94
526.6	34349.21
526.801	34234.53
527.003	34797.72
527.204	34955.41
527.406	34777.24
527.607	35023
527.808	35309.71
528.01	34760.86
528.211	35268.75
528.412	35877
528.614	35375.25
528.815	35850.38
529.016	36092.04
529.218	35637.39
529.419	35717.26
529.62	36077.7
529.822	35772.55
530.023	36143.24
530.224	36077.7
530.425	36255.87
530.626	36243.59
530.828	36018.31
531.029	36466.81
531.23	36237.44
531.431	36262.02
531.632	36456.57
531.833	36829.3
532.035	36544.64
532.236	36733.05
532.437	37216.37
532.638	36663.42
532.839	37238.9
533.04	37087.35
533.241	36544.64
533.442	37355.63
533.643	36755.58
533.844	37075.06
534.045	36991.09
534.246	36851.83
534.447	37109.88
534.648	37030.01
534.849	37468.27
535.05	37015.67
535.251	36876.41
535.451	36862.07
535.652	37107.83
535.853	37310.58
536.054	37345.39
536.255	37263.47
536.456	37165.17
536.657	37320.82
536.857	36933.75
537.058	37118.07
537.259	37601.39
537.46	37386.35
537.66	37247.09
537.861	37451.89
538.062	36937.85
538.263	37496.94
538.463	36792.44
538.664	37040.25
538.865	37046.39
539.065	37277.81
539.266	36958.33
539.466	37505.13
539.667	36620.41
539.868	37449.84
540.068	37283.95
540.269	37318.77
540.469	37453.94
540.67	36894.84
540.87	37181.56
541.071	37308.53
541.271	37466.22
541.472	36937.85
541.672	37087.35
541.873	36778.11
542.073	36532.35
542.274	37232.75
542.474	37087.35
542.675	36919.42
542.875	37949.54
543.075	37079.16
543.276	37052.53
543.476	37107.83
543.676	36925.56
543.877	36970.61
544.077	36853.88
544.277	36919.42
544.478	37009.53
544.678	37615.72
544.878	36860.02
545.078	37443.7
545.279	37116.02
545.479	36857.98
545.679	36534.4
545.879	36931.7
546.079	36849.78
546.28	36890.74
546.48	36679.8
546.68	36825.21
546.88	37103.73
547.08	36956.28
547.28	36583.55
547.48	36436.09
547.68	36765.82
547.88	36585.6
548.081	36927.61
548.281	36821.11
548.481	37032.05
548.681	37181.56
548.881	36722.81
549.081	36786.3
549.28	36880.5
549.48	37259.38
549.68	36698.23
549.88	37255.28
550.08	36356.22
550.28	36903.03
550.48	36827.26
550.68	37202.03
550.88	36505.73
551.08	36927.61
551.279	36757.63
551.479	36534.4
551.679	36903.03
551.879	36577.4
552.079	36683.9
552.278	36769.91
552.478	36472.96
552.678	36792.44
552.878	36718.71
553.077	36673.66
553.277	36262.02
553.477	37001.33
553.676	36636.8
553.876	36194.43
554.076	36663.42
554.275	36360.32
554.475	35877
554.674	36432
554.874	36649.08
555.074	35995.78
555.273	36163.71
555.473	36593.79
555.672	36341.89
555.872	36286.59
556.071	36307.07
556.271	36280.45
556.47	36292.74
556.67	35836.04
556.869	35965.06
557.068	35747.98
557.268	35844.23
557.467	35858.57
557.667	35672.2
557.866	35561.61
558.065	35545.23
558.265	35561.61
558.464	35233.94
558.663	35745.93
558.863	34912.41
559.062	35981.45
559.261	35111.06
559.461	35463.31
559.66	35000.47
559.859	35293.33
560.058	35002.52
560.258	35154.07
560.457	34930.84
560.656	35229.84
560.855	34498.72
561.054	35109.01
561.253	34437.28
561.453	34928.79
561.652	35057.81
561.851	35098.77
562.05	34900.12
562.249	34830.49
562.448	34887.83
562.647	35023
562.846	34570.4
563.045	34767
563.244	34408.61
563.443	34859.16
563.642	34048.16
563.841	34310.3
564.04	33984.68
564.239	34531.48
564.438	33786.02
564.637	34343.07
564.836	34224.29
565.035	33706.15
565.234	33972.39
565.432	33337.52
565.631	33413.29
565.83	33738.92
566.029	33398.96
566.228	33421.48
566.427	33089.71
566.625	33118.39
566.824	32751.8
567.023	33300.65
567.222	32413.88
567.42	32807.09
567.619	33042.61
567.818	32950.45
568.016	32940.21
568.215	33038.51
568.414	32379.07
568.612	32510.14
568.811	32428.22
569.01	32202.94
569.208	31930.56
569.407	32653.5
569.605	31856.84
569.804	32303.29
570.002	31844.55
570.201	32153.79
570.4	31733.96
570.598	31576.26
570.797	31903.94
570.995	31852.74
571.193	31670.47
571.392	31570.12
571.59	31234.25
571.789	31211.73
571.987	31197.39
572.186	31197.39
572.384	31080.66
572.582	31008.98
572.781	31008.98
572.979	30617.82
573.177	30685.4
573.376	30834.9
573.574	30626.01
573.772	30550.23
573.971	30556.38
574.169	30048.48
574.367	30218.46
574.565	30413.02
574.763	29905.12
574.962	29827.3
575.16	29804.77
575.358	30275.8
575.556	29389.03
575.754	29860.07
575.952	29063.41
576.151	29327.6
576.349	29425.9
576.547	29620.45
576.745	29610.21
576.943	29159.66
577.141	29356.27
577.339	29241.58
577.537	29321.45
577.735	29257.96
577.933	28602.61
578.131	28944.62
578.329	28823.79
578.527	28522.74
578.725	28449.02
578.923	29067.5
579.121	28283.13
579.319	28383.48
579.516	28670.2
579.714	28317.95
579.912	27879.68
580.11	28389.63
580.308	28012.8
580.506	27949.31
580.704	27785.47
580.901	27511.05
581.099	28143.87
581.297	27623.69
581.495	27601.16
581.692	27748.61
581.89	27390.22
582.088	27779.33
582.285	27113.74
582.483	27154.7
582.681	27238.67
582.878	27201.8
583.076	26841.36
583.274	27126.03
583.471	26788.11
583.669	26941.71
583.866	26587.41
584.064	26839.31
584.262	26442.01
584.459	26452.25
584.657	26403.1
584.854	26638.61
585.052	25938.21
585.249	26411.29
585.447	26394.9
585.644	26165.53
585.841	26018.08
586.039	26179.87
586.236	25790.75
586.434	25893.15
586.631	25688.35
586.828	25661.73
587.026	25395.5
587.223	25432.36
587.42	25293.1
587.618	25395.5
587.815	25393.45
588.012	25299.24
588.21	25139.5
588.407	25276.71
588.604	24822.06
588.801	24555.83
588.999	24961.33
589.196	24846.64
589.393	24656.18
589.59	24854.83
589.787	24529.2
589.984	24455.48
590.182	24338.74
590.379	24510.77
590.576	24351.03
590.773	24348.98
590.97	24346.94
591.167	24119.61
591.364	23705.92
591.561	24082.75
591.758	23918.91
591.955	23474.5
592.152	24183.1
592.349	23869.76
592.546	23558.47
592.743	23892.29
592.94	23259.46
593.137	23533.89
593.334	23523.65
593.531	23533.89
593.727	23290.18
593.924	23290.18
594.121	22784.33
594.318	23105.87
594.515	22976.84
594.712	23009.61
594.908	23083.34
595.105	22985.04
595.302	22616.4
595.499	22577.49
595.696	22559.06
595.892	22616.4
596.089	22446.42
596.286	22813.01
596.482	22544.72
596.679	22491.48
596.876	22260.06
597.072	21961.05
597.269	22317.4
597.466	21872.99
597.662	21993.82
597.859	21756.25
598.055	21872.99
598.252	21774.69
598.448	21578.08
598.645	21680.48
598.841	21158.25
599.038	21330.28
599.234	21467.49
599.431	21328.23
599.627	21451.11
599.824	21619.04
600.02	21215.59
600.217	21367.14
600.413	21100.9
600.609	20830.57
600.806	20820.33
601.002	20801.9
601.198	20769.13
601.395	20959.59
601.591	20593.01
601.787	20844.91
601.984	20306.29
602.18	20390.26
602.376	20355.44
602.572	20279.67
602.769	20435.31
602.965	20107.64
603.161	20185.46
603.357	19851.64
603.553	19992.95
603.75	19949.95
603.946	19857.79
604.142	19554.69
604.338	19724.67
604.534	19667.33
604.73	19616.13
604.926	19616.13
605.122	19704.19
605.318	19335.56
605.514	19206.53
605.71	19356.04
605.906	19368.32
606.102	19333.51
606.298	19169.67
606.494	19294.6
606.69	19292.55
606.886	18979.21
607.082	18977.16
607.278	19005.83
607.474	18901.39
607.67	19321.22
607.866	18493.84
608.062	19052.94
608.257	18872.71
608.453	18760.08
608.649	18776.46
608.845	18479.5
609.041	18514.32
609.236	18864.52
609.432	18688.4
609.628	18383.25
609.824	18532.75
610.019	18219.41
610.215	18602.38
610.411	18502.03
610.606	18399.63
610.802	18330
610.998	17787.29
611.193	18039.19
611.389	18278.8
611.584	18041.24
611.78	17822.11
611.976	18139.54
612.171	18157.97
612.367	18010.52
612.562	17713.56
612.758	17676.7
612.953	17672.6
613.149	17957.27
613.344	17461.66
613.539	17768.86
613.735	17660.32
613.93	17662.37
614.126	17537.44
614.321	17662.37
614.517	17443.23
614.712	17580.45
614.907	17400.23
615.103	17351.07
615.298	17250.72
615.493	17529.25
615.688	17029.54
615.884	17711.52
616.079	16972.2
616.274	17267.11
616.47	17129.89
616.665	17316.26
616.86	17070.5
617.055	16939.43
617.25	16968.1
617.445	17113.51
617.641	16595.37
617.836	17043.88
618.031	16880.04
618.226	17004.97
618.421	16652.72
618.616	16714.16
618.811	16484.78
619.006	16685.48
619.201	16665
619.396	16607.66
619.591	15950.26
619.786	16511.41
619.981	16179.64
620.176	16204.21
620.371	16026.04
620.566	15942.07
620.761	16191.92
620.956	16040.37
621.151	15567.29
621.346	16132.53
621.541	15448.51
621.735	15913.4
621.93	15475.13
622.125	15548.86
622.32	15464.89
622.515	15327.68
622.709	15399.36
622.904	15227.33
623.099	15188.42
623.294	15206.85
623.488	14963.14
623.683	15118.79
623.878	14776.78
624.072	14846.41
624.267	14735.82
624.462	14719.43
624.656	14596.56
624.851	14457.29
625.046	14309.84
625.24	14262.74
625.435	14041.56
625.629	14229.97
625.824	14125.52
626.018	14305.74
626.213	13834.71
626.407	13814.23
626.602	13615.58
626.796	13791.7
626.991	13789.66
627.185	13631.96
627.38	13281.76
627.574	13677.02
627.768	13185.51
627.963	13220.32
628.157	13154.79
628.352	13181.41
628.546	13003.24
628.74	13095.39
628.935	12849.64
629.129	12845.54
629.323	12796.39
629.517	12849.64
629.712	12509.68
629.906	12614.12
630.1	12364.27
630.294	12470.76
630.489	12339.69
630.683	12765.67
630.877	12448.24
631.071	12190.19
631.265	12100.08
631.459	12102.13
631.653	11815.41
631.848	11891.19
632.042	11956.72
632.236	11839.99
632.43	11715.06
632.624	11835.89
632.818	11899.38
633.012	11756.02
633.206	11524.6
633.4	11583.99
633.594	11383.29
633.788	11528.7
633.982	11313.66
634.176	11139.58
634.369	11137.54
634.563	11221.5
634.757	11049.47
634.951	10899.97
635.145	10983.94
635.339	10998.27
635.533	10744.33
635.726	10578.44
635.92	10811.91
636.114	10510.86
636.308	10492.43
636.501	10580.49
636.695	10428.94
636.889	10545.67
637.083	10433.04
637.276	10201.61
637.47	10238.48
637.664	10277.39
637.857	10220.05
638.051	10185.23
638.244	10082.83
638.438	10080.78
638.632	10152.46
638.825	9925.14
639.019	9808.4
639.212	9816.6
639.406	9832.98
639.599	9785.88
639.793	9654.81
639.986	9384.48
640.18	9632.28
640.373	9646.62
640.567	9329.18
640.76	9368.09
640.954	9458.2
641.147	9333.28
641.34	9116.19
641.534	9335.32
641.727	9093.66
641.92	9183.77
642.114	8909.35
642.307	9003.55
642.5	8970.79
642.694	8849.96
642.887	8829.48
643.08	8895.01
643.273	8725.03
643.467	8708.65
643.66	8632.87
643.853	8622.63
644.046	8538.66
644.239	8450.6
644.432	8526.38
644.626	8432.17
644.819	8223.28
645.012	8227.37
645.205	8348.2
645.398	8251.95
645.591	8419.88
645.784	8249.9
645.977	8122.93
646.17	7944.75
646.363	7930.42
646.556	7989.81
646.749	8067.63
646.942	8155.69
647.135	7801.4
647.328	7739.96
647.521	7840.31
647.714	7655.99
647.907	7774.77
648.099	7612.98
648.292	7615.03
648.485	7578.17
648.678	7440.95
648.871	7428.67
649.064	7715.38
649.256	7586.36
649.449	7328.31
649.642	7385.66
649.835	7301.69
650.027	7369.27
650.22	7268.92
650.413	7295.55
650.605	7111.23
650.798	7156.29
650.991	6853.19
651.183	7066.17
651.376	7068.22
651.568	7017.02
651.761	6935.1
651.954	6971.97
652.146	6775.36
652.339	7010.88
652.531	6888
652.724	6701.64
652.916	6720.07
653.109	6728.26
653.301	6691.4
653.494	6736.45
653.686	6636.1
653.879	6613.57
654.071	6599.24
654.263	6498.89
654.456	6412.87
654.648	6586.95
654.84	6433.35
655.033	6396.49
655.225	6216.27
655.417	6224.46
655.61	6294.09
655.802	6224.46
655.994	6292.04
656.186	6138.45
656.379	6185.55
656.571	6171.21
656.763	6019.66
656.955	6034
657.148	6056.53
657.34	6138.45
657.532	5827.15
657.724	5804.63
657.916	5810.77
658.108	5831.25
658.3	5757.52
658.492	5835.35
658.684	5741.14
658.876	5917.26
659.068	5640.79
659.26	5605.97
659.452	5640.79
659.644	5804.63
659.836	5552.73
660.028	5528.15
660.22	5495.38
660.412	5507.67
660.604	5472.86
660.796	5448.28
660.988	5341.79
661.18	5374.55
661.372	5292.63
661.563	5237.34
661.755	5278.3
661.947	5270.11
662.139	5245.53
662.331	5227.1
662.522	4942.43
662.714	5159.52
662.906	4999.77
663.097	5136.99
663.289	5055.07
663.481	5065.31
663.673	5128.8
663.864	4964.96
664.056	4993.63
664.247	5028.45
664.439	5059.17
664.631	4860.51
664.822	4878.94
665.014	5012.06
665.205	4729.44
665.397	4870.75
665.588	4850.27
665.78	4571.75
665.971	4665.96
666.163	4715.11
666.354	4655.72
666.546	4819.55
666.737	4655.72
666.929	4782.69
667.12	4532.84
667.311	4723.3
667.503	4502.12
667.694	4604.52
667.885	4561.51
668.077	4561.51
668.268	4348.52
668.459	4313.7
668.651	4420.2
668.842	4473.45
669.033	4340.33
669.224	4369
669.416	4403.82
669.607	4289.13
669.798	4342.38
669.989	4297.32
670.18	4239.98
670.371	4409.96
670.563	4221.55
670.754	4280.94
670.945	4252.27
671.136	4233.83
671.327	4082.28
671.518	4211.31
671.709	4307.56
671.9	4221.55
672.091	4092.52
672.282	4080.24
672.473	3955.31
672.664	4072.04
672.855	4014.7
673.046	4010.61
673.237	4151.92
673.428	3959.41
673.619	4078.19
673.809	3940.97
674	3879.54
674.191	3971.69
674.382	3938.93
674.573	3914.35
674.764	3963.5
674.954	3797.62
675.145	3871.34
675.336	3789.42
675.527	3836.53
675.717	3768.95
675.908	3881.58
676.099	3793.52
676.289	3816.05
676.48	3754.61
676.671	3834.48
676.861	3781.23
677.052	3660.4
677.243	3748.47
677.433	3717.75
677.624	3689.07
677.814	3658.35
678.005	3693.17
678.195	3727.99
678.386	3666.55
678.576	3478.13
678.767	3678.83
678.957	3646.07
679.148	3670.64
679.338	3678.83
679.529	3621.49
679.719	3478.13
679.909	3465.85
680.1	3619.44
680.29	3601.01
680.481	3529.33
680.671	3572.34
680.861	3416.69
681.052	3439.22
681.242	3445.37
681.432	3601.01
681.622	3359.35
681.813	3455.61
682.003	3461.75
682.193	3355.26
682.383	3347.06
682.573	3484.28
682.764	3584.63
682.954	3396.21
683.144	3381.88
683.334	3351.16
683.524	3342.97
683.714	3371.64
683.904	3297.91
684.094	3320.44
684.284	3437.17
684.474	3338.87
684.664	3392.12
684.854	3287.67
685.044	3302.01
685.234	3277.43
685.424	3275.38
685.614	3191.42
685.804	3279.48
685.994	3263.1
686.184	3330.68
686.374	3236.47
686.564	3170.94
686.753	3183.23
686.943	3172.99
687.133	3138.17
687.323	3187.32
687.513	3201.66
687.702	3109.5
687.892	3187.32
688.082	3127.93
688.272	3086.97
688.461	3068.54
688.651	3082.88
688.841	3054.2
689.03	3025.53
689.22	3132.03
689.41	2953.85
689.599	2884.22
689.789	2939.52
689.979	2876.03
690.168	3064.44
690.358	2939.52
690.547	2943.61
690.737	2925.18
690.926	2878.08
691.116	2921.09
691.305	2937.47
691.495	2777.73
691.684	2818.69
691.874	2851.46
692.063	2964.09
692.252	2978.43
692.442	2771.58
692.631	2865.79
692.82	2810.5
693.01	2626.18
693.199	2716.29
693.388	2708.1
693.578	2708.1
693.767	2771.58
693.956	2763.39
694.146	2660.99
694.335	2691.71
694.524	2673.28
694.713	2790.02
694.902	2706.05
695.092	2736.77
695.281	2697.86
695.47	2562.69
695.659	2577.03
695.848	2562.69
696.037	2660.99
696.226	2564.74
696.415	2636.42
696.604	2652.8
696.793	2574.98
696.982	2613.89
697.171	2699.91
697.36	2695.81
697.549	2572.93
697.738	2517.64
697.927	2685.57
698.116	2505.35
698.305	2579.08
698.494	2527.88
698.683	2458.25
698.872	2523.78
699.061	2505.35
699.25	2474.63
699.438	2515.59
699.627	2499.2
699.816	2427.53
700.005	2546.31
700.193	2527.88
700.382	2525.83
700.571	2529.92
700.76	2505.35
700.948	2495.11
701.137	2482.82
701.326	2546.31
701.514	2521.73
701.703	2480.77
701.892	2570.88
702.08	2519.68
702.269	2437.77
702.457	2439.81
702.646	2531.97
702.834	2458.25
703.023	2472.58
703.212	2488.96
703.4	2466.44
703.589	2511.49
703.777	2564.74
703.965	2376.33
704.154	2411.14
704.342	2185.87
704.531	2525.83
704.719	2386.57
704.907	2441.86
705.096	2429.57
705.284	2390.66
705.472	2302.6
705.661	2384.52
705.849	2550.4
706.037	2431.62
706.226	2452.1
706.414	2359.94
706.602	2335.37
706.79	2458.25
706.979	2388.61
707.167	2435.72
707.355	2448.01
707.543	2439.81
707.731	2333.32
707.919	2380.42
708.107	2382.47
708.296	2337.41
708.484	2409.09
708.672	2507.4
708.86	2376.33
709.048	2402.95
709.236	2384.52
709.424	2384.52
709.612	2380.42
709.8	2333.32
709.988	2405
710.176	2458.25
710.364	2294.41
710.551	2470.53
710.739	2304.65
710.927	2355.85
711.115	2323.08
711.303	2368.13
711.491	2339.46
711.679	2269.83
711.866	2425.48
712.054	2321.03
712.242	2302.6
712.43	2333.32
712.617	2337.41
712.805	2310.79
712.993	2353.8
713.181	2341.51
713.368	2349.7
713.556	2423.43
713.744	2321.03
713.931	2400.9
714.119	2349.7
714.306	2378.37
714.494	2298.5
714.682	2351.75
714.869	2321.03
715.057	2327.18
715.244	2267.78
715.432	2267.78
715.619	2292.36
715.807	2339.46
715.994	2300.55
716.182	2343.56
716.369	2300.55
716.556	2257.54
716.744	2282.12
716.931	2239.11
717.119	2327.18
717.306	2218.63
717.493	2306.7
717.681	2261.64
717.868	2200.2
718.055	2382.47
718.242	2239.11
718.43	2329.22
718.617	2288.26
718.804	2255.5
718.991	2269.83
719.179	2263.69
719.366	2347.65
719.553	2318.98
719.74	2259.59
719.927	2241.16
720.114	2314.89
720.301	2294.41
720.488	2278.02
720.676	2249.35
720.863	2273.93
721.05	2302.6
721.237	2253.45
721.424	2275.98
721.611	2257.54
721.798	2255.5
721.985	2288.26
722.172	2273.93
722.358	2206.35
722.545	2308.74
722.732	2255.5
722.919	2306.7
723.106	2241.16
723.293	2290.31
723.48	2212.49
723.667	2288.26
723.853	2208.39
724.04	2308.74
724.227	2142.86
724.414	2144.91
724.6	2177.67
724.787	2216.58
724.974	2181.77
725.161	2239.11
725.347	2175.63
725.534	2202.25
725.72	2132.62
725.907	2185.87
726.094	2134.67
726.28	2220.68
726.467	2183.82
726.653	2237.06
726.84	2265.74
727.027	2192.01
727.213	2122.38
727.4	2218.63
727.586	2257.54
727.773	2286.22
727.959	2155.15
728.145	2241.16
728.332	2136.71
728.518	2183.82
728.705	2196.11
728.891	2200.2
729.077	2232.97
729.264	2232.97
729.45	2157.19
729.636	2153.1
729.823	2196.11
730.009	2181.77
730.195	2169.48
730.382	2333.32
730.568	2204.3
730.754	2077.32
730.94	2192.01
731.126	2206.35
731.313	2194.06
731.499	2120.33
731.685	2151.05
731.871	2157.19
732.057	2124.43
732.243	2161.29
732.429	2132.62
732.615	2181.77
732.801	2105.99
732.987	2079.37
733.173	2161.29
733.359	2185.87
733.545	2097.8
733.731	2091.66
733.917	2183.82
734.103	2198.15
734.289	2134.67
734.475	2153.1
734.661	2149
734.847	2194.06
735.033	2091.66
735.219	2112.14
735.404	2159.24
735.59	2206.35
735.776	2165.39
735.962	2077.32
736.148	2198.15
736.333	2116.23
736.519	2017.93
736.705	2130.57
736.89	2089.61
737.076	2083.47
737.262	2005.64
737.447	2144.91
737.633	2165.39
737.819	2110.09
738.004	2046.6
738.19	2032.27
738.375	2009.74
738.561	2032.27
738.747	2075.28
738.932	2026.12
739.118	2040.46
739.303	1927.82
739.489	2087.56
739.674	1979.02
739.859	2040.46
740.045	2009.74
740.23	1936.01
740.416	1997.45
740.601	2009.74
740.786	2052.75
740.972	2046.6
741.157	1958.54
741.342	1905.29
741.528	1964.68
741.713	1985.16
741.898	2069.13
742.084	1923.73
742.269	2024.08
742.454	2005.64
742.639	1972.88
742.824	1811.09
743.01	1901.2
743.195	1931.92
743.38	1847.95
743.565	1880.72
743.75	1944.21
743.935	1815.18
744.12	1825.42
744.305	1811.09
744.49	1895.05
744.675	1823.37
744.86	1929.87
745.045	1811.09
745.23	1831.57
745.415	1739.41
745.6	1817.23
745.785	1872.53
745.97	1731.22
746.155	1778.32
746.34	1741.46
746.525	1675.92
746.71	1847.95
746.895	1790.61
747.079	1696.4
747.264	1798.8
747.449	1819.28
747.634	1712.78
747.819	1694.35
748.003	1667.73
748.188	1753.74
748.373	1710.74
748.557	1544.85
748.742	1618.58
748.927	1645.2
749.111	1675.92
749.296	1596.05
749.481	1641.11
749.665	1581.71
749.85	1544.85
750.034	1575.57
750.219	1573.52
750.404	1573.52
750.588	1569.43
750.773	1563.28
750.957	1526.42
751.141	1499.8
751.326	1534.61
751.51	1458.84
751.695	1555.09
751.879	1534.61
752.064	1493.65
752.248	1446.55
752.432	1413.78
752.617	1428.12
752.801	1401.49
752.985	1356.44
753.17	1469.08
753.354	1473.17
753.538	1477.27
753.722	1303.19
753.907	1323.67
754.091	1399.45
754.275	1395.35
754.459	1288.86
754.643	1229.46
754.828	1266.33
755.012	1329.81
755.196	1227.42
755.38	1346.2
755.564	1227.42
755.748	1278.62
755.932	1344.15
756.116	1274.52
756.3	1184.41
756.484	1213.08
756.668	1284.76
756.852	1284.76
757.036	1235.61
757.22	1192.6
757.404	1172.12
757.588	1229.46
757.772	1208.98
757.956	1227.42
758.14	1161.88
758.323	1184.41
758.507	1116.83
758.691	1247.9
758.875	1135.26
759.059	1137.31
759.242	1165.98
759.426	1188.5
759.61	1104.54
759.794	1114.78
759.977	1092.25
760.161	1192.6
760.345	1200.79
760.528	1098.39
760.712	996
760.895	1086.11
761.079	1049.24
761.263	1061.53
761.446	1057.43
761.63	1147.55
761.813	993.95
761.997	1024.67
762.18	1034.91
762.364	1065.63
762.547	1084.06
762.731	1032.86
762.914	987.8
763.098	864.93
763.281	955.04
763.464	1057.43
763.648	938.65
763.831	1086.11
764.015	989.85
764.198	989.85
764.381	961.18
764.564	981.66
764.748	952.99
764.931	957.08
765.114	983.71
765.297	965.28
765.481	961.18
765.664	1047.19
765.847	940.7
766.03	905.88
766.213	969.37
766.397	955.04
766.58	946.84
766.763	1004.19
766.946	918.17
767.129	979.61
767.312	869.02
767.495	963.23
767.678	889.5
767.861	897.69
768.044	928.41
768.227	975.52
768.41	926.36
768.593	805.53
768.776	842.4
768.959	924.32
769.142	967.32
769.324	881.31
769.507	893.6
769.69	797.34
769.873	924.32
770.056	959.13
770.239	907.93
770.421	854.69
770.604	809.63
770.787	828.06
770.97	813.73
771.152	795.29
771.335	756.38
771.518	828.06
771.7	772.77
771.883	813.73
772.066	791.2
772.248	737.95
772.431	819.87
772.613	789.15
772.796	762.53
772.978	740
773.161	854.69
773.343	815.77
773.526	770.72
773.708	711.33
773.891	762.53
774.073	748.19
774.256	760.48
774.438	799.39
774.621	801.44
774.803	756.38
774.985	701.09
775.168	703.14
775.35	705.18
775.532	803.49
775.715	774.81
775.897	676.51
776.079	672.42
776.261	746.14
776.444	731.81
776.626	631.46
776.808	637.6
776.99	662.18
777.173	613.03
777.355	627.36
777.537	645.79
777.719	615.07
777.901	610.98
778.083	649.89
778.265	561.83
778.447	584.35
778.629	541.35
778.811	653.98
778.993	592.55
779.175	625.31
779.357	629.41
779.539	512.67
779.721	629.41
779.903	625.31
780.085	596.64
780.267	537.25
780.449	610.98
780.631	600.74
780.812	610.98
780.994	594.59
781.176	543.39
781.358	586.4
781.54	502.44
781.721	613.03
781.903	565.92
782.085	586.4
782.267	486.05
782.448	576.16
782.63	445.09
782.812	520.87
782.993	508.58
783.175	441
783.357	529.06
783.538	527.01
783.72	500.39
783.901	459.43
784.083	436.9
784.264	453.28
784.446	422.56
784.627	418.47
784.809	406.18
784.99	496.29
785.172	518.82
785.353	455.33
785.535	508.58
785.716	424.61
785.897	393.89
786.079	522.91
786.26	514.72
786.441	422.56
786.623	414.37
786.804	404.13
786.985	418.47
787.167	397.99
787.348	443.04
787.529	430.76
787.71	346.79
787.891	410.28
788.073	455.33
788.254	414.37
788.435	383.65
788.616	340.65
788.797	494.24
788.978	379.56
789.159	336.55
789.34	459.43
789.522	373.41
789.703	357.03
789.884	342.69
790.065	463.52
790.246	309.93
790.427	363.17
790.607	299.69
790.788	365.22
790.969	301.73
791.15	412.32
791.331	350.89
791.512	338.6
791.693	348.84
791.874	311.97
792.054	336.55
792.235	328.36
792.416	314.02
792.597	357.03
792.778	340.65
792.958	371.37
793.139	346.79
793.32	381.6
793.5	316.07
793.681	295.59
793.862	432.8
794.042	303.78
794.223	250.53
794.404	277.16
794.584	322.21
794.765	287.4
794.945	307.88
795.126	424.61
795.306	305.83
795.487	228.01
795.667	301.73
795.848	365.22
796.028	264.87
796.209	238.25
796.389	299.69
796.57	289.45
796.75	271.01
796.93	316.07
797.111	268.97
797.291	299.69
797.471	234.15
797.652	252.58
797.832	289.45
798.012	371.37
798.192	228.01
798.373	289.45
798.553	275.11
798.733	314.02
798.913	209.58
799.093	217.77
799.274	283.3
799.454	283.3
799.634	201.38
799.814	219.82
799.994	225.96
800.174	332.45
800.354	221.86
800.534	244.39
800.714	262.82
800.894	203.43
801.074	205.48
801.254	285.35
801.434	293.54
801.614	209.58
801.794	158.38
801.974	580.26
802.154	174.76
802.334	273.06
802.514	219.82
802.693	250.53
802.873	187.05
803.053	291.49
803.233	223.91
803.413	240.3
803.592	205.48
803.772	273.06
803.952	168.62
804.131	180.9
804.311	191.14
804.491	244.39
804.67	193.19
804.85	195.24
805.03	254.63
805.209	137.9
805.389	248.49
805.568	195.24
805.748	152.23
805.928	223.91
806.107	160.42
806.287	199.34
806.466	178.86
806.646	176.81
806.825	131.75
807.004	230.06
807.184	221.86
807.363	228.01
807.543	234.15
807.722	174.76
807.901	234.15
808.081	275.11
808.26	103.08
808.439	189.1
808.619	187.05
808.798	176.81
808.977	144.04
809.156	187.05
809.336	146.09
809.515	178.86
809.694	123.56
809.873	162.47
810.052	84.65
810.231	228.01
810.411	248.49
810.59	213.67
810.769	199.34
810.948	205.48
811.127	174.76
811.306	131.75
811.485	164.52
811.664	178.86
811.843	166.57
812.022	152.23
812.201	107.18
812.38	150.18
812.559	174.76
812.737	219.82
812.916	160.42
813.095	94.89
813.274	201.38
813.453	170.66
813.632	160.42
813.811	172.71
813.989	201.38
814.168	195.24
814.347	111.27
814.526	90.79
814.704	127.66
814.883	215.72
815.062	133.8
815.24	189.1
815.419	168.62
815.598	176.81
815.776	139.94
815.955	193.19
816.133	119.46
816.312	90.79
816.49	62.12
816.669	72.36
816.847	135.85
817.026	117.42
817.204	137.9
817.383	168.62
817.561	74.41
817.74	137.9
817.918	141.99
818.097	154.28
818.275	160.42
818.453	158.38
818.632	228.01
818.81	203.43
818.988	193.19
819.167	82.6
819.345	107.18
819.523	84.65
819.701	111.27
819.879	185
820.058	103.08
820.236	232.1
820.414	150.18
820.592	131.75
820.77	60.07
820.948	152.23
821.127	84.65
821.305	176.81
821.483	101.03
821.661	41.64
821.839	94.89
822.017	45.74
822.195	135.85
822.373	105.13
822.551	133.8
822.729	150.18
822.907	33.45
823.085	66.22
823.262	113.32
823.44	141.99
823.618	72.36
823.796	92.84
823.974	121.51
824.152	168.62
824.329	162.47
824.507	129.7
824.685	101.03
824.863	101.03
825.04	109.23
825.218	105.13
825.396	101.03
825.574	64.17
825.751	47.79
825.929	113.32
826.107	127.66
826.284	66.22
826.462	90.79
826.639	135.85
826.817	92.84
826.994	127.66
827.172	60.07
827.349	180.9
827.527	105.13
827.704	121.51
827.882	119.46
828.059	101.03
828.237	37.55
828.414	144.04
828.591	4.78
828.769	66.22
828.946	82.6
829.124	92.84
829.301	35.5
829.478	70.31
829.655	43.69
829.833	82.6
830.01	68.27
830.187	62.12
830.364	41.64
830.542	101.03
830.719	119.46
830.896	78.51
831.073	84.65
831.25	84.65
831.427	23.21
831.604	82.6
831.782	51.88
831.959	25.26
832.136	111.27
832.313	19.11
832.49	-3.41
832.667	141.99
832.844	117.42
833.021	137.9
833.198	43.69
833.374	98.99
833.551	189.1
833.728	35.5
833.905	135.85
834.082	78.51
834.259	113.32
834.436	148.14
834.612	49.83
834.789	107.18
834.966	-3.41
835.143	119.46
835.319	19.11
835.496	172.71
835.673	37.55
835.85	98.99
836.026	98.99
836.203	115.37
836.38	47.79
836.556	82.6
836.733	109.23
836.909	127.66
837.086	72.36
837.262	45.74
837.439	51.88
837.616	76.46
837.792	25.26
837.968	103.08
838.145	15.02
838.321	96.94
838.498	68.27
838.674	82.6
838.851	49.83
839.027	66.22
839.203	70.31
839.38	98.99
839.556	64.17
839.732	84.65
839.909	101.03
840.085	101.03
840.261	35.5
840.437	105.13
840.614	-32.08
840.79	70.31
840.966	41.64
841.142	-5.46
841.318	66.22
841.494	21.16
841.671	101.03
841.847	62.12
842.023	88.75
842.199	92.84
842.375	51.88
842.551	62.12
842.727	33.45
842.903	49.83
843.079	37.55
843.255	98.99
843.431	90.79
843.607	49.83
843.783	31.4
843.959	60.07
844.134	45.74
844.31	172.71
844.486	78.51
844.662	84.65
844.838	58.03
845.013	74.41
845.189	111.27
845.365	29.35
845.541	58.03
845.716	53.93
845.892	74.41
846.068	33.45
846.244	43.69
846.419	-3.41
846.595	31.4
846.77	19.11
846.946	39.59
847.122	12.97
847.297	119.46
847.473	98.99
847.648	17.07
847.824	113.32
847.999	12.97
848.175	72.36
848.35	94.89
848.526	53.93
848.701	101.03
848.876	119.46
849.052	74.41
849.227	19.11
849.403	39.59
849.578	86.7
849.753	25.26
849.929	-9.56
850.104	-89.43
850.279	23.21
850.454	51.88
850.63	49.83
850.805	-13.65
850.98	62.12
851.155	37.55
851.33	105.13
851.505	-7.51
851.681	47.79
851.856	45.74
852.031	31.4
852.206	68.27
852.381	17.07
852.556	17.07
852.731	86.7
852.906	86.7
853.081	-32.08
853.256	125.61
853.431	-21.84
853.606	45.74
853.781	-3.41
853.956	-44.37
854.131	21.16
854.305	-7.51
854.48	47.79
854.655	19.11
854.83	-25.94
855.005	41.64
855.18	29.35
855.354	-1.37
855.529	35.5
855.704	-17.75
855.879	45.74
856.053	23.21
856.228	76.46
856.403	2.73
856.577	58.03
856.752	-36.18
856.926	-17.75
857.101	37.55
857.276	94.89
857.45	25.26
857.625	0.68
857.799	21.16
857.974	80.55
858.148	17.07
858.323	4.78
858.497	0.68
858.672	-17.75
858.846	4.78
859.02	45.74
859.195	84.65
859.369	41.64
859.543	74.41
859.718	-11.61
859.892	74.41
860.066	29.35
860.241	10.92
860.415	103.08
860.589	8.87
860.763	2.73
860.938	35.5
861.112	51.88
861.286	-40.28
861.46	62.12
861.634	29.35
861.808	-9.56
861.982	-9.56
862.157	25.26
862.331	2.73
862.505	-25.94
862.679	78.51
862.853	72.36
863.027	29.35
863.201	-21.84
863.375	60.07
863.549	23.21
863.722	-3.41
863.896	58.03
864.07	0.68
864.244	49.83
864.418	47.79
864.592	64.17
864.766	12.97
864.939	-7.51
865.113	12.97
865.287	53.93
865.461	-11.61
865.634	-30.04
865.808	-46.42
865.982	29.35
866.156	-15.7
866.329	-48.47
866.503	-3.41
866.676	37.55
866.85	29.35
867.024	-5.46
867.197	-15.7
867.371	-30.04
867.544	68.27
867.718	4.78
867.891	19.11
868.065	62.12
868.238	-1.37
868.412	96.94
868.585	68.27
868.759	6.83
868.932	64.17
869.105	-9.56
869.279	41.64
869.452	-19.8
869.625	-30.04
869.799	10.92
869.972	58.03
870.145	-5.46
870.319	72.36
870.492	60.07
870.665	-7.51
870.838	-30.04
871.011	-17.75
871.185	70.31
871.358	35.5
871.531	33.45
871.704	35.5
871.877	66.22
872.05	-7.51
872.223	21.16
872.396	-25.94
872.569	84.65
872.742	-50.52
872.915	58.03
873.088	45.74
873.261	41.64
873.434	37.55
873.607	-19.8
873.78	15.02
873.953	-3.41
874.126	-42.32
874.299	80.55
874.471	-42.32
874.644	8.87
874.817	37.55
874.99	84.65
875.163	12.97
875.335	49.83
875.508	29.35
875.681	53.93
875.853	15.02
876.026	117.42
876.199	-44.37
876.371	39.59
876.544	-13.65
876.717	-23.89
876.889	25.26
877.062	47.79
877.234	29.35
877.407	33.45
877.579	19.11
877.752	62.12
877.924	29.35
878.097	-32.08
878.269	55.98
878.442	-34.13
878.614	17.07
878.786	4.78
878.959	29.35
879.131	51.88
879.303	-21.84
879.476	17.07
879.648	80.55
879.82	94.89
879.993	6.83
880.165	45.74
880.337	-13.65
880.509	-23.89
880.681	49.83
880.854	25.26
881.026	17.07
881.198	55.98
881.37	12.97
881.542	37.55
881.714	-11.61
881.886	53.93
882.058	25.26
882.23	35.5
882.402	47.79
882.574	60.07
882.746	109.23
882.918	90.79
883.09	53.93
883.262	60.07
883.434	45.74
883.606	6.83
883.778	31.4
883.95	39.59
884.122	58.03
884.293	-46.42
884.465	-17.75
884.637	76.46
884.809	-77.14
884.98	-3.41
885.152	47.79
885.324	10.92
885.496	35.5
885.667	-1.37
885.839	64.17
886.011	17.07
886.182	6.83
886.354	19.11
886.525	43.69
886.697	-21.84
886.869	-15.7
887.04	8.87
887.212	23.21
887.383	58.03
887.555	35.5
887.726	-32.08
887.897	-3.41
888.069	37.55
888.24	-27.99
888.412	33.45
888.583	21.16
888.754	29.35
888.926	-36.18
889.097	-71
889.268	21.16
889.44	2.73
889.611	-54.61
889.782	66.22
889.953	-9.56
890.125	25.26
890.296	37.55
890.467	23.21
890.638	-1.37
890.809	-15.7
890.98	17.07
891.151	25.26
891.323	64.17
891.494	-19.8
891.665	8.87
891.836	103.08
892.007	78.51
892.178	-19.8
892.349	94.89
892.52	23.21
892.691	-3.41
892.862	8.87
893.032	17.07
893.203	43.69
893.374	-19.8
893.545	6.83
893.716	35.5
893.887	-15.7
894.057	-54.61
894.228	55.98
894.399	-21.84
894.57	51.88
894.74	-27.99
894.911	62.12
895.082	-11.61
895.253	43.69
895.423	-34.13
895.594	-5.46
895.764	-52.56
895.935	-79.19
896.106	-23.89
896.276	27.31
896.447	-52.56
896.617	-42.32
896.788	2.73
896.958	17.07
897.129	17.07
897.299	72.36
897.47	-36.18
897.64	45.74
897.81	27.31
897.981	25.26
898.151	2.73
898.322	27.31
898.492	21.16
898.662	53.93
898.832	-19.8
899.003	109.23
899.173	-1.37
899.343	-1.37
899.513	-19.8
