Data from USB4F104151__89__11-06-42-949.txt Node

Date: Wed Mar 12 11:06:42 EDT 2025
User: louis
Spectrometer: USB4F10415
Trigger mode: 4
Integration Time (sec): 2.000000E-2
Scans to average: 1
Electric dark correction enabled: true
Nonlinearity correction enabled: false
Boxcar width: 0
XAxis mode: Wavelengths
Number of Pixels in Spectrum: 3648
>>>>>Begin Spectral Data<<<<<
178.204	-88.57
178.424	-88.57
178.644	-88.57
178.864	-92.67
179.084	-72.19
179.304	-37.38
179.524	-29.18
179.744	-51.71
179.964	52.74
180.184	-41.47
180.404	30.21
180.624	30.21
180.844	-6.66
181.064	32.26
181.283	9.73
181.503	-31.23
181.723	42.5
181.943	26.11
182.163	126.46
182.383	-16.9
182.602	7.68
182.822	19.97
183.042	-12.8
183.262	-6.66
183.482	32.26
183.701	17.92
183.921	7.68
184.141	19.97
184.361	19.97
184.58	-27.14
184.8	1.54
185.02	32.26
185.239	69.12
185.459	1.54
185.679	19.97
185.898	3.58
186.118	44.54
186.338	44.54
186.557	69.12
186.777	-14.85
186.997	-0.51
187.216	60.93
187.436	48.64
187.655	17.92
187.875	65.02
188.095	-29.18
188.314	34.3
188.534	83.45
188.753	-2.56
188.973	42.5
189.192	67.07
189.412	3.58
189.631	95.74
189.851	7.68
190.07	83.45
190.29	67.07
190.509	-0.51
190.729	-37.38
190.948	-29.18
191.168	108.03
191.387	77.31
191.607	26.11
191.826	7.68
192.045	58.88
192.265	15.87
192.484	3.58
192.704	15.87
192.923	-39.42
193.142	-4.61
193.362	-4.61
193.581	46.59
193.8	-12.8
194.02	30.21
194.239	28.16
194.458	26.11
194.678	-4.61
194.897	15.87
195.116	30.21
195.335	26.11
195.555	7.68
195.774	50.69
195.993	-16.9
196.212	-6.66
196.432	-16.9
196.651	-16.9
196.87	11.78
197.089	42.5
197.308	91.65
197.528	71.17
197.747	30.21
197.966	40.45
198.185	-8.7
198.404	42.5
198.623	30.21
198.842	-37.38
199.062	13.82
199.281	56.83
199.5	38.4
199.719	7.68
199.938	19.97
200.157	36.35
200.376	-43.52
200.595	-14.85
200.814	-0.51
201.033	-14.85
201.252	-37.38
201.471	-31.23
201.69	-39.42
201.909	7.68
202.128	60.93
202.347	-0.51
202.566	-37.38
202.785	-0.51
203.004	22.02
203.223	85.5
203.442	60.93
203.661	73.21
203.879	-23.04
204.098	13.82
204.317	7.68
204.536	56.83
204.755	-27.14
204.974	58.88
205.193	44.54
205.411	26.11
205.63	22.02
205.849	48.64
206.068	75.26
206.287	22.02
206.505	13.82
206.724	34.3
206.943	56.83
207.162	48.64
207.381	40.45
207.599	75.26
207.818	13.82
208.037	-20.99
208.255	11.78
208.474	-27.14
208.693	-8.7
208.911	-18.94
209.13	-35.33
209.349	-2.56
209.567	-37.38
209.786	9.73
210.005	77.31
210.223	7.68
210.442	1.54
210.661	54.78
210.879	56.83
211.098	26.11
211.316	62.98
211.535	-10.75
211.753	-18.94
211.972	30.21
212.191	46.59
212.409	7.68
212.628	-18.94
212.846	62.98
213.065	89.6
213.283	95.74
213.502	50.69
213.72	-6.66
213.938	73.21
214.157	-14.85
214.375	-25.09
214.594	-2.56
214.812	54.78
215.031	13.82
215.249	-29.18
215.467	5.63
215.686	58.88
215.904	1.54
216.122	9.73
216.341	-20.99
216.559	13.82
216.778	83.45
216.996	52.74
217.214	-10.75
217.432	-47.62
217.651	30.21
217.869	-6.66
218.087	7.68
218.306	7.68
218.524	5.63
218.742	9.73
218.96	26.11
219.179	32.26
219.397	36.35
219.615	54.78
219.833	48.64
220.051	60.93
220.27	42.5
220.488	58.88
220.706	85.5
220.924	9.73
221.142	-70.14
221.36	32.26
221.578	65.02
221.796	-64
222.015	3.58
222.233	38.4
222.451	97.79
222.669	34.3
222.887	-14.85
223.105	-37.38
223.323	30.21
223.541	50.69
223.759	60.93
223.977	50.69
224.195	-43.52
224.413	13.82
224.631	-0.51
224.849	75.26
225.067	60.93
225.285	15.87
225.503	34.3
225.721	69.12
225.939	58.88
226.157	36.35
226.375	81.41
226.592	-10.75
226.81	58.88
227.028	9.73
227.246	50.69
227.464	-37.38
227.682	-18.94
227.9	79.36
228.117	3.58
228.335	60.93
228.553	22.02
228.771	-10.75
228.989	-0.51
229.206	-10.75
229.424	32.26
229.642	-2.56
229.86	-8.7
230.077	73.21
230.295	15.87
230.513	71.17
230.731	9.73
230.948	-18.94
231.166	-27.14
231.384	60.93
231.601	13.82
231.819	-4.61
232.037	-10.75
232.254	-10.75
232.472	26.11
232.689	-39.42
232.907	46.59
233.125	-45.57
233.342	-31.23
233.56	-31.23
233.777	54.78
233.995	-70.14
234.213	-14.85
234.43	-43.52
234.648	-2.56
234.865	22.02
235.083	-4.61
235.3	-4.61
235.518	-59.9
235.735	22.02
235.953	-14.85
236.17	38.4
236.388	1.54
236.605	134.65
236.822	22.02
237.04	34.3
237.257	44.54
237.475	32.26
237.692	52.74
237.909	26.11
238.127	38.4
238.344	46.59
238.562	15.87
238.779	-29.18
238.996	38.4
239.214	-20.99
239.431	3.58
239.648	-33.28
239.865	73.21
240.083	15.87
240.3	40.45
240.517	15.87
240.735	54.78
240.952	50.69
241.169	15.87
241.386	5.63
241.603	-20.99
241.821	54.78
242.038	56.83
242.255	54.78
242.472	11.78
242.689	24.06
242.907	28.16
243.124	22.02
243.341	128.51
243.558	38.4
243.775	13.82
243.992	-66.05
244.209	19.97
244.426	9.73
244.643	40.45
244.86	44.54
245.078	122.37
245.295	-20.99
245.512	22.02
245.729	3.58
245.946	-6.66
246.163	36.35
246.38	71.17
246.597	75.26
246.814	69.12
247.031	24.06
247.248	13.82
247.464	48.64
247.681	36.35
247.898	91.65
248.115	11.78
248.332	11.78
248.549	13.82
248.766	83.45
248.983	44.54
249.2	50.69
249.417	-18.94
249.633	58.88
249.85	38.4
250.067	-4.61
250.284	75.26
250.501	75.26
250.717	32.26
250.934	11.78
251.151	1.54
251.368	22.02
251.585	38.4
251.801	17.92
252.018	-6.66
252.235	-10.75
252.451	9.73
252.668	7.68
252.885	-27.14
253.102	-4.61
253.318	81.41
253.535	-47.62
253.752	67.07
253.968	36.35
254.185	62.98
254.401	9.73
254.618	19.97
254.835	1.54
255.051	28.16
255.268	38.4
255.484	19.97
255.701	-43.52
255.917	3.58
256.134	1.54
256.351	58.88
256.567	-14.85
256.784	-4.61
257	56.83
257.217	7.68
257.433	-6.66
257.65	91.65
257.866	22.02
258.082	22.02
258.299	67.07
258.515	67.07
258.732	65.02
258.948	-33.28
259.165	3.58
259.381	-39.42
259.597	11.78
259.814	71.17
260.03	-43.52
260.246	67.07
260.463	3.58
260.679	122.37
260.895	-10.75
261.112	-8.7
261.328	-8.7
261.544	48.64
261.761	81.41
261.977	-25.09
262.193	52.74
262.409	24.06
262.626	9.73
262.842	44.54
263.058	-4.61
263.274	40.45
263.49	9.73
263.707	58.88
263.923	101.89
264.139	91.65
264.355	62.98
264.571	40.45
264.787	34.3
265.004	79.36
265.22	69.12
265.436	79.36
265.652	28.16
265.868	-2.56
266.084	69.12
266.3	-12.8
266.516	75.26
266.732	5.63
266.948	-45.57
267.164	69.12
267.38	9.73
267.596	46.59
267.812	73.21
268.028	87.55
268.244	-37.38
268.46	50.69
268.676	-4.61
268.892	48.64
269.108	11.78
269.324	9.73
269.54	15.87
269.756	7.68
269.972	42.5
270.188	50.69
270.403	-8.7
270.619	1.54
270.835	22.02
271.051	-0.51
271.267	-2.56
271.483	54.78
271.698	-2.56
271.914	58.88
272.13	-35.33
272.346	19.97
272.562	83.45
272.777	-0.51
272.993	-29.18
273.209	54.78
273.425	60.93
273.64	-25.09
273.856	32.26
274.072	50.69
274.287	9.73
274.503	13.82
274.719	-53.76
274.934	56.83
275.15	5.63
275.366	-10.75
275.581	-10.75
275.797	58.88
276.012	-10.75
276.228	-33.28
276.444	38.4
276.659	-25.09
276.875	60.93
277.09	77.31
277.306	13.82
277.521	3.58
277.737	-25.09
277.952	52.74
278.168	9.73
278.383	42.5
278.599	15.87
278.814	38.4
279.03	-8.7
279.245	65.02
279.461	28.16
279.676	38.4
279.892	69.12
280.107	52.74
280.322	34.3
280.538	-8.7
280.753	22.02
280.969	30.21
281.184	-2.56
281.399	38.4
281.615	69.12
281.83	128.51
282.045	-82.43
282.26	-23.04
282.476	-59.9
282.691	-2.56
282.906	19.97
283.122	26.11
283.337	-18.94
283.552	56.83
283.767	19.97
283.983	15.87
284.198	26.11
284.413	44.54
284.628	38.4
284.843	71.17
285.058	17.92
285.274	13.82
285.489	34.3
285.704	-0.51
285.919	-6.66
286.134	-14.85
286.349	42.5
286.564	-57.86
286.779	42.5
286.995	26.11
287.21	-10.75
287.425	-10.75
287.64	67.07
287.855	48.64
288.07	-92.67
288.285	-35.33
288.5	46.59
288.715	69.12
288.93	19.97
289.145	52.74
289.36	83.45
289.575	62.98
289.79	73.21
290.004	3.58
290.219	13.82
290.434	46.59
290.649	3.58
290.864	38.4
291.079	-29.18
291.294	24.06
291.509	46.59
291.724	38.4
291.938	-12.8
292.153	32.26
292.368	19.97
292.583	42.5
292.798	34.3
293.012	83.45
293.227	3.58
293.442	-2.56
293.657	56.83
293.871	54.78
294.086	-29.18
294.301	114.17
294.516	22.02
294.73	50.69
294.945	-29.18
295.16	-43.52
295.374	7.68
295.589	40.45
295.804	-23.04
296.018	36.35
296.233	101.89
296.447	24.06
296.662	32.26
296.877	5.63
297.091	56.83
297.306	-31.23
297.52	50.69
297.735	62.98
297.949	62.98
298.164	19.97
298.378	58.88
298.593	3.58
298.807	-49.66
299.022	65.02
299.236	50.69
299.451	-2.56
299.665	-43.52
299.88	17.92
300.094	30.21
300.309	65.02
300.523	44.54
300.737	28.16
300.952	-18.94
301.166	67.07
301.381	62.98
301.595	13.82
301.809	5.63
302.024	-6.66
302.238	-8.7
302.452	-6.66
302.667	-20.99
302.881	44.54
303.095	34.3
303.309	-41.47
303.524	-33.28
303.738	87.55
303.952	30.21
304.166	-27.14
304.381	-18.94
304.595	60.93
304.809	7.68
305.023	9.73
305.237	38.4
305.452	13.82
305.666	32.26
305.88	81.41
306.094	19.97
306.308	52.74
306.522	26.11
306.736	-4.61
306.95	36.35
307.164	-29.18
307.379	79.36
307.593	26.11
307.807	38.4
308.021	65.02
308.235	30.21
308.449	36.35
308.663	46.59
308.877	24.06
309.091	-4.61
309.305	54.78
309.519	11.78
309.733	62.98
309.947	52.74
310.161	67.07
310.374	52.74
310.588	11.78
310.802	-33.28
311.016	28.16
311.23	-0.51
311.444	56.83
311.658	22.02
311.872	-4.61
312.085	3.58
312.299	40.45
312.513	-25.09
312.727	103.93
312.941	-20.99
313.154	22.02
313.368	7.68
313.582	50.69
313.796	-29.18
314.009	44.54
314.223	28.16
314.437	11.78
314.651	26.11
314.864	54.78
315.078	101.89
315.292	62.98
315.505	-55.81
315.719	-20.99
315.933	71.17
316.146	7.68
316.36	-49.66
316.573	11.78
316.787	-10.75
317.001	99.84
317.214	13.82
317.428	38.4
317.641	28.16
317.855	26.11
318.068	-8.7
318.282	7.68
318.495	24.06
318.709	42.5
318.922	65.02
319.136	52.74
319.349	36.35
319.563	15.87
319.776	62.98
319.99	44.54
320.203	30.21
320.417	48.64
320.63	-12.8
320.843	19.97
321.057	15.87
321.27	36.35
321.483	-23.04
321.697	17.92
321.91	30.21
322.124	73.21
322.337	1.54
322.55	95.74
322.763	52.74
322.977	26.11
323.19	13.82
323.403	60.93
323.617	50.69
323.83	32.26
324.043	5.63
324.256	71.17
324.469	-35.33
324.683	71.17
324.896	15.87
325.109	22.02
325.322	-31.23
325.535	38.4
325.748	67.07
325.962	-20.99
326.175	5.63
326.388	75.26
326.601	75.26
326.814	65.02
327.027	77.31
327.24	134.65
327.453	46.59
327.666	77.31
327.879	32.26
328.092	36.35
328.305	93.69
328.518	71.17
328.731	48.64
328.944	28.16
329.157	-74.24
329.37	79.36
329.583	34.3
329.796	22.02
330.009	34.3
330.222	36.35
330.435	32.26
330.648	71.17
330.861	3.58
331.073	13.82
331.286	34.3
331.499	101.89
331.712	-33.28
331.925	32.26
332.138	-51.71
332.35	81.41
332.563	73.21
332.776	89.6
332.989	54.78
333.202	32.26
333.414	24.06
333.627	11.78
333.84	36.35
334.053	56.83
334.265	-12.8
334.478	17.92
334.691	-10.75
334.903	-14.85
335.116	42.5
335.329	34.3
335.541	48.64
335.754	30.21
335.966	19.97
336.179	54.78
336.392	75.26
336.604	26.11
336.817	79.36
337.029	3.58
337.242	73.21
337.454	-25.09
337.667	75.26
337.88	65.02
338.092	77.31
338.305	5.63
338.517	-2.56
338.729	50.69
338.942	93.69
339.154	-43.52
339.367	60.93
339.579	46.59
339.792	-14.85
340.004	69.12
340.217	-6.66
340.429	48.64
340.641	3.58
340.854	112.13
341.066	71.17
341.278	114.17
341.491	56.83
341.703	36.35
341.915	42.5
342.128	-6.66
342.34	30.21
342.552	69.12
342.764	22.02
342.977	40.45
343.189	46.59
343.401	89.6
343.613	87.55
343.826	79.36
344.038	79.36
344.25	73.21
344.462	-23.04
344.674	5.63
344.886	48.64
345.099	17.92
345.311	48.64
345.523	13.82
345.735	13.82
345.947	79.36
346.159	13.82
346.371	-2.56
346.583	26.11
346.795	46.59
347.007	114.17
347.219	108.03
347.431	-45.57
347.643	148.99
347.855	34.3
348.067	36.35
348.279	9.73
348.491	-14.85
348.703	101.89
348.915	42.5
349.127	67.07
349.339	79.36
349.551	44.54
349.763	42.5
349.975	-6.66
350.187	48.64
350.399	60.93
350.61	28.16
350.822	-27.14
351.034	38.4
351.246	46.59
351.458	5.63
351.669	50.69
351.881	54.78
352.093	9.73
352.305	44.54
352.517	50.69
352.728	34.3
352.94	36.35
353.152	65.02
353.363	34.3
353.575	44.54
353.787	77.31
353.999	44.54
354.21	91.65
354.422	54.78
354.633	17.92
354.845	67.07
355.057	65.02
355.268	46.59
355.48	69.12
355.692	15.87
355.903	28.16
356.115	19.97
356.326	30.21
356.538	67.07
356.749	-8.7
356.961	60.93
357.172	-18.94
357.384	-0.51
357.595	46.59
357.807	26.11
358.018	17.92
358.23	54.78
358.441	32.26
358.653	13.82
358.864	58.88
359.075	34.3
359.287	54.78
359.498	46.59
359.709	-2.56
359.921	54.78
360.132	99.84
360.344	17.92
360.555	28.16
360.766	48.64
360.977	1.54
361.189	67.07
361.4	32.26
361.611	44.54
361.823	83.45
362.034	50.69
362.245	-14.85
362.456	81.41
362.667	50.69
362.879	110.08
363.09	36.35
363.301	32.26
363.512	19.97
363.723	22.02
363.935	15.87
364.146	103.93
364.357	52.74
364.568	73.21
364.779	69.12
364.99	-10.75
365.201	7.68
365.412	40.45
365.623	62.98
365.834	1.54
366.045	11.78
366.256	42.5
366.467	32.26
366.678	77.31
366.889	77.31
367.1	75.26
367.311	44.54
367.522	58.88
367.733	46.59
367.944	52.74
368.155	-12.8
368.366	52.74
368.577	36.35
368.788	17.92
368.999	19.97
369.209	22.02
369.42	42.5
369.631	75.26
369.842	38.4
370.053	67.07
370.264	-18.94
370.474	1.54
370.685	44.54
370.896	62.98
371.107	15.87
371.317	77.31
371.528	42.5
371.739	42.5
371.95	77.31
372.16	1.54
372.371	5.63
372.582	32.26
372.792	34.3
373.003	65.02
373.214	83.45
373.424	40.45
373.635	7.68
373.846	-10.75
374.056	71.17
374.267	-23.04
374.477	65.02
374.688	73.21
374.898	77.31
375.109	81.41
375.319	-45.57
375.53	56.83
375.74	93.69
375.951	44.54
376.161	38.4
376.372	38.4
376.582	114.17
376.793	13.82
377.003	69.12
377.214	30.21
377.424	69.12
377.635	58.88
377.845	56.83
378.055	17.92
378.266	28.16
378.476	34.3
378.686	1.54
378.897	114.17
379.107	62.98
379.317	108.03
379.528	30.21
379.738	34.3
379.948	50.69
380.158	42.5
380.369	46.59
380.579	71.17
380.789	17.92
380.999	67.07
381.21	22.02
381.42	108.03
381.63	67.07
381.84	42.5
382.05	73.21
382.261	73.21
382.471	169.47
382.681	60.93
382.891	77.31
383.101	122.37
383.311	95.74
383.521	56.83
383.731	11.78
383.941	99.84
384.151	3.58
384.361	19.97
384.571	118.27
384.781	101.89
384.991	163.33
385.201	99.84
385.411	9.73
385.621	58.88
385.831	-33.28
386.041	-0.51
386.251	-20.99
386.461	85.5
386.671	38.4
386.881	118.27
387.091	54.78
387.301	112.13
387.511	-39.42
387.72	28.16
387.93	83.45
388.14	24.06
388.35	52.74
388.56	134.65
388.769	34.3
388.979	19.97
389.189	38.4
389.399	65.02
389.609	54.78
389.818	75.26
390.028	118.27
390.238	116.22
390.447	99.84
390.657	7.68
390.867	83.45
391.076	52.74
391.286	-2.56
391.496	26.11
391.705	81.41
391.915	32.26
392.125	58.88
392.334	46.59
392.544	97.79
392.753	103.93
392.963	54.78
393.172	42.5
393.382	79.36
393.591	48.64
393.801	26.11
394.01	54.78
394.22	122.37
394.429	105.98
394.639	69.12
394.848	69.12
395.058	95.74
395.267	110.08
395.477	87.55
395.686	34.3
395.895	87.55
396.105	93.69
396.314	42.5
396.524	69.12
396.733	89.6
396.942	38.4
397.152	132.61
397.361	62.98
397.57	120.32
397.78	87.55
397.989	50.69
398.198	169.47
398.407	120.32
398.617	54.78
398.826	19.97
399.035	112.13
399.244	99.84
399.453	95.74
399.663	79.36
399.872	153.09
400.081	132.61
400.29	138.75
400.499	101.89
400.708	73.21
400.917	122.37
401.127	50.69
401.336	26.11
401.545	204.28
401.754	230.91
401.963	87.55
402.172	120.32
402.381	134.65
402.59	153.09
402.799	138.75
403.008	194.05
403.217	93.69
403.426	69.12
403.635	91.65
403.844	112.13
404.053	112.13
404.262	56.83
404.471	206.33
404.68	163.33
404.888	114.17
405.097	122.37
405.306	171.52
405.515	116.22
405.724	116.22
405.933	144.89
406.142	173.57
406.35	173.57
406.559	257.53
406.768	181.76
406.977	132.61
407.185	112.13
407.394	169.47
407.603	181.76
407.812	212.48
408.02	220.67
408.229	222.72
408.438	228.86
408.646	280.06
408.855	194.05
409.064	255.48
409.272	267.77
409.481	306.68
409.69	253.44
409.898	308.73
410.107	271.87
410.315	423.42
410.524	304.64
410.733	402.94
410.941	382.46
411.15	335.35
411.358	445.95
411.567	415.23
411.775	382.46
411.984	409.08
412.192	445.95
412.401	411.13
412.609	513.53
412.818	447.99
413.026	564.73
413.234	566.78
413.443	456.19
413.651	458.23
413.86	529.91
414.068	577.02
414.276	595.45
414.485	595.45
414.693	685.56
414.901	691.7
415.11	703.99
415.318	673.27
415.526	726.52
415.734	720.37
415.943	841.2
416.151	796.15
416.359	931.31
416.567	839.16
416.776	876.02
416.984	945.65
417.192	927.22
417.4	957.94
417.608	929.27
417.817	1046
418.025	1068.53
418.233	1132.01
418.441	1142.25
418.649	1146.35
418.857	1252.84
419.065	1367.53
419.273	1218.03
419.481	1271.28
419.689	1377.77
419.897	1484.27
420.105	1488.36
420.313	1529.32
420.521	1596.9
420.729	1715.69
420.937	1656.29
421.145	1830.37
421.353	1801.7
421.561	1959.39
421.769	1940.96
421.977	1955.3
422.185	1955.3
422.393	2137.57
422.601	2280.93
422.809	2285.02
423.017	2307.55
423.224	2301.4
423.432	2512.35
423.64	2483.67
423.848	2807.25
424.056	2635.22
424.263	2807.25
424.471	2954.71
424.679	2983.38
424.887	3063.25
425.094	3163.6
425.302	3118.54
425.51	3270.09
425.718	3384.78
425.925	3380.68
426.133	3472.84
426.341	3671.5
426.548	3927.49
426.756	3876.29
426.964	3943.88
427.171	4130.24
427.379	4257.22
427.586	4451.77
427.794	4490.68
428.001	4734.39
428.209	4918.71
428.417	4912.57
428.624	5191.09
428.832	5109.17
429.039	5148.08
429.247	5191.09
429.454	5588.39
429.662	6047.14
429.869	5610.92
430.076	5993.89
430.284	5848.49
430.491	6104.48
430.699	6612.38
430.906	6352.29
431.114	6469.02
431.321	6645.15
431.528	6909.33
431.736	7386.51
431.943	7687.56
432.15	7450
432.358	7445.9
432.565	8029.57
432.772	7964.04
432.979	8357.25
433.187	8473.98
433.394	8631.68
433.601	9006.45
433.808	9049.46
434.016	9192.82
434.223	9522.54
434.43	10069.35
434.637	9991.53
434.844	10337.63
435.052	10667.36
435.259	10663.26
435.466	10835.29
435.673	10610.01
435.88	11312.47
436.087	11861.32
436.294	11844.94
436.501	11564.37
436.708	11717.97
436.915	12277.06
437.122	12571.97
437.329	12830.01
437.537	13217.08
437.743	13337.91
437.95	13153.59
438.157	14089.51
438.364	14497.06
438.571	14175.53
438.778	14316.84
438.985	15922.45
439.192	15310.1
439.399	15641.87
439.606	15263
439.813	16198.92
440.02	17390.84
440.227	17046.78
440.433	16850.17
440.64	17364.22
440.847	17192.19
441.054	17630.45
441.261	18808.03
441.467	18576.61
441.674	18963.68
441.881	19903.7
442.088	19672.28
442.294	19426.52
442.501	19950.8
442.708	20483.27
442.914	21339.32
443.121	22164.65
443.328	21544.12
443.534	22789.28
443.741	22203.57
443.948	22246.57
444.154	23635.1
444.361	23487.64
444.568	23764.12
444.774	23549.08
444.981	23895.19
445.187	24661.13
445.394	25617.53
445.6	25453.69
445.807	27868.25
446.013	26557.55
446.22	27026.53
446.426	28204.11
446.633	28177.49
446.839	29340.74
447.046	28093.52
447.252	29471.81
447.459	29621.31
447.665	29310.02
447.871	30987.3
448.078	31863.83
448.284	30049.33
448.491	31505.44
448.697	32754.7
448.903	32881.67
449.11	33297.41
449.316	32291.86
449.522	33346.56
449.728	34049.02
449.935	34018.3
450.141	34085.88
450.347	34929.64
450.553	33680.38
450.76	34008.06
450.966	35159.02
451.172	34776.05
451.378	35820.51
451.584	35437.54
451.791	36070.36
451.997	35642.34
452.203	36053.98
452.409	36283.35
452.615	35982.3
452.821	34862.06
453.027	34429.94
453.233	36193.24
453.44	34487.28
453.646	35118.06
453.852	35093.48
454.058	35892.19
454.264	34548.72
454.47	35034.09
454.676	34110.46
454.882	35728.35
455.088	32091.16
455.294	32861.19
455.5	33612.8
455.705	33668.09
455.911	32607.25
456.117	31652.89
456.323	30942.25
456.529	29645.88
456.735	30577.71
456.941	29940.79
457.147	29563.96
457.352	28677.19
457.558	28552.27
457.764	28195.92
457.97	27573.34
458.176	26866.79
458.381	27049.06
458.587	25437.31
458.793	25711.74
458.999	24296.59
459.204	26055.79
459.41	25394.3
459.616	23811.22
459.821	23872.66
460.027	23899.28
460.233	23053.47
460.438	22011.06
460.644	22625.45
460.85	21562.55
461.055	21007.55
461.261	21025.98
461.466	19277.02
461.672	18607.33
461.878	20149.45
462.083	19057.89
462.289	18334.95
462.494	18152.68
462.7	17337.59
462.905	16821.5
463.111	17816.82
463.316	17384.69
463.522	17306.87
463.727	17620.21
463.932	17302.78
464.138	17306.87
464.343	17679.6
464.549	16909.57
464.754	17370.36
464.959	17468.66
465.165	17284.34
465.37	16448.77
465.575	16098.57
465.781	16596.23
465.986	16590.08
466.191	16155.91
466.397	15832.33
466.602	14996.76
466.807	15492.37
467.012	15406.36
467.218	15389.97
467.423	15088.92
467.628	15400.21
467.833	15916.3
468.038	15568.15
468.244	15109.4
468.449	15768.85
468.654	15148.31
468.859	15133.98
469.064	15054.11
469.269	14349.61
469.474	14243.11
469.679	14820.64
469.885	14384.42
470.09	14568.74
470.295	14267.69
470.5	14034.22
470.705	14167.34
470.91	13810.99
471.115	13610.29
471.32	13894.96
471.525	13813.04
471.73	13440.31
471.935	13554.99
472.139	12830.01
472.344	13147.45
472.549	12913.98
472.754	12911.93
472.959	12508.48
473.164	12475.71
473.369	12293.44
473.574	12428.61
473.778	12412.23
473.983	12313.92
474.188	12246.34
474.393	11746.64
474.598	11971.91
474.802	11656.53
475.007	11576.66
475.212	11527.5
475.417	11283.8
475.621	11259.22
475.826	11248.98
476.031	10790.24
476.235	10780
476.44	10866.01
476.645	10669.41
476.849	10841.43
477.054	10583.39
477.259	10661.21
477.463	10505.57
477.668	10268
477.872	10335.59
478.077	10161.51
478.282	9950.57
478.486	9860.46
478.691	10102.12
478.895	9811.31
479.1	9749.87
479.304	9649.52
479.509	9471.34
479.713	9741.68
479.918	9407.86
480.122	9284.98
480.326	9334.13
480.531	9581.93
480.735	9301.36
480.94	9225.59
481.144	9473.39
481.348	9090.42
481.553	9112.95
481.757	8942.97
481.961	9252.21
482.166	9254.26
482.37	9219.44
482.574	8904.06
482.778	8930.68
482.983	9284.98
483.187	9112.95
483.391	9149.81
483.595	9047.41
483.8	9012.6
484.004	9086.33
484.208	9205.11
484.412	9069.94
484.616	9063.8
484.821	9000.31
485.025	9084.28
485.229	9104.76
485.433	9074.04
485.637	9063.8
485.841	9076.09
486.045	8951.16
486.249	8963.45
486.453	8924.54
486.657	8965.5
486.861	9112.95
487.065	8836.47
487.269	9125.24
487.473	8826.23
487.677	9151.86
487.881	9338.23
488.085	8879.48
488.289	8988.02
488.493	8912.25
488.697	9129.33
488.901	9065.85
489.105	9137.52
489.309	9276.79
489.512	9082.23
489.716	9170.29
489.92	9125.24
490.124	9274.74
490.328	9217.4
490.531	9291.12
490.735	9315.7
490.939	9391.47
491.143	9145.72
491.346	9446.77
491.55	9336.18
491.754	9500.02
491.958	9553.26
492.161	9522.54
492.365	9446.77
492.569	9540.97
492.772	9633.13
492.976	9534.83
493.18	9866.6
493.383	9672.04
493.587	9862.51
493.79	9928.04
493.994	9913.7
494.197	10122.6
494.401	9973.1
494.605	10085.73
494.808	10276.2
495.012	10319.2
495.215	10417.51
495.419	10392.93
495.622	10470.75
495.825	10507.62
496.029	10663.26
496.232	10771.8
496.436	10638.69
496.639	11033.94
496.843	10902.87
497.046	11181.4
497.249	11408.72
497.453	11203.93
497.656	11287.89
497.859	11402.58
498.063	11580.75
498.266	11930.95
498.469	11744.59
498.673	11898.19
498.876	12019.02
499.079	12279.11
499.282	12121.42
499.485	12744
499.689	12592.45
499.892	12721.47
500.095	12746.05
500.298	13221.17
500.501	13014.33
500.705	13477.17
500.908	13540.66
501.111	13733.17
501.314	13835.56
501.517	13886.76
501.72	14062.89
501.923	14046.51
502.126	14337.32
502.329	14593.31
502.532	14720.29
502.735	14542.11
502.938	15000.86
503.141	14990.62
503.344	15322.39
503.547	15197.46
503.75	15504.66
503.953	15770.9
504.156	15840.53
504.359	16076.04
504.562	16241.93
504.765	16340.23
504.968	16651.52
505.17	16895.23
505.373	16921.85
505.576	17159.42
505.779	17116.41
505.982	17607.92
506.185	17949.93
506.387	18009.33
506.59	17702.13
506.793	18398.44
506.996	18242.79
507.198	18922.72
507.401	18715.87
507.604	18771.17
507.807	19344.6
508.009	19354.84
508.212	19563.73
508.415	19692.76
508.617	20145.36
508.82	20141.26
509.022	20176.08
509.225	20479.18
509.428	20567.24
509.63	20706.5
509.833	21193.92
510.035	21597.37
510.238	21398.71
510.44	22027.44
510.643	21996.72
510.845	22348.97
511.048	22383.79
511.25	22385.83
511.453	22922.4
511.655	23604.38
511.858	23264.41
512.06	23628.95
512.262	23817.36
512.465	23850.13
512.667	24204.43
512.87	24265.87
513.072	24515.72
513.274	25056.39
513.477	25502.84
513.679	25429.12
513.881	25513.08
514.084	25709.69
514.286	26150
514.488	26014.84
514.69	26907.75
514.893	26877.03
515.095	26858.6
515.297	27450.46
515.499	27513.95
515.701	27837.53
515.904	28226.64
516.106	28351.57
516.308	28345.42
516.51	28959.81
516.712	29035.59
516.914	29189.19
517.116	29824.06
517.318	29633.6
517.52	29961.27
517.722	30084.15
517.925	30237.75
518.127	31101.99
518.329	30886.95
518.531	30673.96
518.733	31505.44
518.935	32044.06
519.136	31841.31
519.338	32461.84
519.54	32508.94
519.742	33102.85
519.944	32936.97
520.146	33420.29
520.348	33561.6
520.55	33602.56
520.752	33508.35
520.954	34716.65
521.155	34309.11
521.357	34876.4
521.559	34874.35
521.761	35775.45
521.963	35386.34
522.164	35918.81
522.366	35941.34
522.568	36223.96
522.77	36439
522.971	37086.15
523.173	36400.08
523.375	37323.72
523.576	37342.15
523.778	37190.6
523.98	37512.13
524.181	37895.1
524.383	37946.3
524.584	38220.73
524.786	38697.91
524.988	38403
525.189	38792.11
525.391	39510.95
525.592	39324.58
525.794	39556
525.995	39781.28
526.197	39965.6
526.398	39977.89
526.6	40211.35
526.801	40283.03
527.003	40381.34
527.204	40590.23
527.406	40833.94
527.607	41024.4
527.808	41601.93
528.01	40721.3
528.211	41548.68
528.412	41970.56
528.614	41663.36
528.815	41972.61
529.016	42417.02
529.218	41868.16
529.419	41720.71
529.62	41876.35
529.822	41765.76
530.023	41900.93
530.224	42410.87
530.425	42042.24
530.626	42511.22
530.828	42406.78
531.029	43187.05
531.23	42285.95
531.431	42515.32
531.632	42765.17
531.833	43004.78
532.035	42576.76
532.236	42838.9
532.437	43438.95
532.638	42720.12
532.839	42789.75
533.04	43295.6
533.241	42910.58
533.442	43553.64
533.643	43172.72
533.844	43187.05
534.045	43707.24
534.246	43117.42
534.447	43719.52
534.648	43232.11
534.849	43494.25
535.05	43187.05
535.251	43522.92
535.451	43457.38
535.652	43658.09
535.853	43408.23
536.054	43631.46
536.255	43412.33
536.456	42818.42
536.657	44106.59
536.857	42967.92
537.058	43383.66
537.259	43230.06
537.46	43823.97
537.66	42998.64
537.861	43742.05
538.062	43426.67
538.263	43520.87
538.463	43420.52
538.664	43588.45
538.865	43961.19
539.065	43719.52
539.266	43285.36
539.466	43715.43
539.667	43103.09
539.868	43946.85
540.068	43264.88
540.269	43197.29
540.469	43432.81
540.67	43547.5
540.87	43369.32
541.071	43658.09
541.271	43574.12
541.472	43416.43
541.672	43445.1
541.873	43279.21
542.073	42879.86
542.274	43502.44
542.474	43262.83
542.675	43023.22
542.875	43737.96
543.075	43592.55
543.276	42988.4
543.476	43537.26
543.676	43174.77
543.877	43621.22
544.077	43551.59
544.277	43541.35
544.478	43402.09
544.678	43121.52
544.878	43055.98
545.078	43424.62
545.279	42861.43
545.479	43252.59
545.679	43162.48
545.879	43500.39
546.079	42967.92
546.28	43135.85
546.48	43115.37
546.68	43572.07
546.88	42933.1
547.08	43230.06
547.28	43275.12
547.48	43096.94
547.68	42877.81
547.88	42740.6
548.081	43359.08
548.281	43072.37
548.481	42845.04
548.681	43346.79
548.881	43230.06
549.081	43400.04
549.28	42822.51
549.48	43539.3
549.68	43000.69
549.88	43664.23
550.08	42972.02
550.28	43078.51
550.48	42728.31
550.68	43332.46
550.88	42634.1
551.08	42937.2
551.279	43225.96
551.479	42748.79
551.679	43326.31
551.879	42656.63
552.079	43000.69
552.278	43197.29
552.478	43041.65
552.678	42826.61
552.878	43148.14
553.077	42957.68
553.277	42861.43
553.477	43152.24
553.676	42617.72
553.876	42978.16
554.076	42492.79
554.275	43180.91
554.475	42367.87
554.674	42799.99
554.874	42550.13
555.074	42662.77
555.273	42761.08
555.473	42523.51
555.672	42228.6
555.872	42652.53
556.071	42292.09
556.271	42632.05
556.47	42306.43
556.67	41712.52
556.869	41964.42
557.068	42376.06
557.268	42138.49
557.467	42249.08
557.667	42236.8
557.866	42478.46
558.065	41991.04
558.265	41808.77
558.464	41679.75
558.663	42335.1
558.863	41448.33
559.062	41925.5
559.261	41485.19
559.461	42189.69
559.66	41143.18
559.859	41884.54
560.058	41137.04
560.258	41327.5
560.457	41384.84
560.656	41503.62
560.855	40940.43
561.054	41372.55
561.253	40977.29
561.453	41184.14
561.652	40764.31
561.851	41411.46
562.05	40942.48
562.249	41157.52
562.448	41163.66
562.647	41046.93
562.846	40737.68
563.045	40977.29
563.244	40235.93
563.443	40829.84
563.642	40258.46
563.841	40168.35
564.04	40465.3
564.239	40473.49
564.438	39660.45
564.637	40250.27
564.836	40344.47
565.035	39682.98
565.234	39943.07
565.432	40047.52
565.631	39838.62
565.83	39945.12
566.029	39381.93
566.228	39304.1
566.427	39603.11
566.625	39340.97
566.824	38923.18
567.023	39289.77
567.222	38919.09
567.42	39078.83
567.619	38898.61
567.818	38843.31
568.016	38298.55
568.215	38939.57
568.414	38818.74
568.612	39076.78
568.811	38529.97
569.01	38284.22
569.208	38163.39
569.407	38501.3
569.605	38089.66
569.804	38415.29
570.002	38304.7
570.201	38151.1
570.4	37579.71
570.598	37546.95
570.797	37100.49
570.995	37661.63
571.193	36895.69
571.392	37487.56
571.59	37149.64
571.789	37129.16
571.987	36907.98
572.186	37155.79
572.384	36529.11
572.582	37206.98
572.781	36994
572.979	36164.57
573.177	36678.61
573.376	36781.01
573.574	36053.98
573.772	36426.71
573.971	36174.81
574.169	36185.05
574.367	35830.75
574.565	36344.79
574.763	35994.59
574.962	35734.49
575.16	35240.93
575.358	35869.66
575.556	35484.64
575.754	35714.02
575.952	34866.16
576.151	35714.02
576.349	35064.81
576.547	35197.93
576.745	35263.46
576.943	35042.28
577.141	34931.69
577.339	34956.27
577.537	34802.67
577.735	34587.63
577.933	34628.59
578.131	34569.2
578.329	34274.29
578.527	33909.75
578.725	34243.57
578.923	34184.18
579.121	34075.64
579.319	33866.75
579.516	34173.94
579.714	34030.58
579.912	33915.9
580.11	33518.59
580.308	33653.76
580.506	33831.93
580.704	33010.7
580.901	33545.22
581.099	33379.33
581.297	32719.88
581.495	32705.55
581.692	32842.76
581.89	32998.41
582.088	33008.65
582.285	33172.49
582.483	32883.72
582.681	32683.02
582.878	32680.97
583.076	32232.47
583.274	32771.08
583.471	32341.01
583.669	32246.8
583.866	31892.51
584.064	32341.01
584.262	31790.11
584.459	32279.57
584.657	31816.73
584.854	32031.77
585.052	31441.95
585.249	31669.28
585.447	31441.95
585.644	31364.13
585.841	31681.56
586.039	31355.94
586.236	30972.97
586.434	30700.59
586.631	31065.13
586.828	30905.38
587.026	30927.91
587.223	30944.3
587.42	30487.6
587.618	30489.65
587.815	30481.45
588.012	30518.32
588.21	30682.16
588.407	30770.22
588.604	30157.88
588.801	30239.79
588.999	30073.91
589.196	29928.5
589.393	30082.1
589.59	29668.41
589.787	29856.82
589.984	29539.39
590.182	29377.6
590.379	29584.44
590.576	29105.22
590.773	29670.46
590.97	29078.6
591.167	29514.81
591.364	28869.7
591.561	29326.4
591.758	28546.12
591.955	28613.71
592.152	28961.86
592.349	28408.91
592.546	28695.63
592.743	28826.7
592.94	28052.56
593.137	28451.92
593.334	28701.77
593.531	28109.91
593.727	28238.93
593.924	28230.74
594.121	27827.29
594.318	28132.43
594.515	27661.4
594.712	28283.98
594.908	27661.4
595.105	27970.65
595.302	27286.62
595.499	27423.84
595.696	27280.48
595.892	27499.61
596.089	27771.99
596.286	27270.24
596.482	27055.2
596.679	27081.83
596.876	27237.47
597.072	27001.96
597.269	27149.41
597.466	27032.68
597.662	26659.95
597.859	26598.51
598.055	26829.93
598.252	26444.91
598.448	26455.15
598.645	26211.44
598.841	26334.32
599.038	26258.54
599.234	26238.06
599.431	26096.75
599.627	25789.56
599.824	26260.59
600.02	25603.19
600.217	25896.05
600.413	25709.69
600.609	25683.06
600.806	25398.4
601.002	25627.77
601.198	25416.83
601.395	25232.51
601.591	25365.63
601.787	25418.88
601.984	24919.17
602.18	25087.11
602.376	24741
602.572	24822.92
602.769	24577.16
602.965	24425.61
603.161	24751.24
603.357	24407.18
603.553	24595.59
603.75	24523.91
603.946	23993.49
604.142	24568.97
604.338	24016.02
604.534	24552.59
604.73	24046.74
604.926	23979.15
605.122	23952.53
605.318	23946.39
605.514	23737.49
605.71	23794.84
605.906	23768.21
606.102	23340.19
606.298	23489.69
606.494	23583.9
606.69	23532.7
606.886	23278.75
607.082	23237.79
607.278	23565.46
607.474	22920.35
607.67	23393.44
607.866	23088.29
608.062	23510.17
608.257	23057.57
608.453	22881.44
608.649	22910.11
608.845	22906.02
609.041	23086.24
609.236	22811.81
609.432	22670.5
609.628	22670.5
609.824	22490.28
610.019	22600.87
610.215	22760.61
610.411	22621.35
610.606	22365.35
610.802	22553.77
610.998	22508.71
611.193	22537.38
611.389	22291.63
611.584	22359.21
611.78	22095.02
611.976	22475.95
612.171	22541.48
612.367	22207.66
612.562	22025.39
612.758	21873.84
612.953	21855.41
613.149	22351.02
613.344	21800.12
613.539	21998.77
613.735	21640.37
613.93	21902.51
614.126	21650.61
614.321	21826.74
614.517	21828.79
614.712	21783.73
614.907	21591.22
615.103	21759.16
615.298	21351.61
615.493	21589.17
615.688	21408.95
615.884	21564.6
616.079	21224.64
616.274	21439.67
616.47	21359.8
616.665	21476.54
616.86	21152.96
617.055	21116.09
617.25	21210.3
617.445	21525.69
617.641	20837.57
617.836	21200.06
618.031	20696.26
618.226	20970.69
618.421	20952.26
618.616	20997.31
618.811	20546.76
619.006	20872.39
619.201	20442.31
619.396	20432.07
619.591	20282.57
619.786	20184.27
619.981	20233.42
620.176	20112.59
620.371	20002
620.566	19799.25
620.761	20036.81
620.956	20040.91
621.151	19580.12
621.346	19674.32
621.541	19418.33
621.735	19815.63
621.93	19117.28
622.125	19700.95
622.32	18969.82
622.515	19395.8
622.709	19018.97
622.904	18887.9
623.099	18730.21
623.294	18928.86
623.488	18781.41
623.683	18738.4
623.878	18705.63
624.072	18238.7
624.267	18146.54
624.462	18244.84
624.656	18103.53
624.851	18343.14
625.046	17827.06
625.24	17908.97
625.435	17814.77
625.629	17708.27
625.824	17483
626.018	17515.76
626.213	17345.78
626.407	17564.92
626.602	17210.62
626.796	17143.03
626.991	17157.37
627.185	16895.23
627.38	16999.68
627.574	16745.73
627.768	16504.07
627.963	16700.67
628.157	16538.88
628.352	16430.34
628.546	16327.94
628.74	16289.03
628.935	16174.35
629.129	16082.19
629.323	15957.26
629.517	15764.75
629.712	15691.02
629.906	15682.83
630.1	15443.22
630.294	15486.23
630.489	15486.23
630.683	15613.2
630.877	14994.72
631.071	15430.93
631.265	15310.1
631.459	15080.73
631.653	14937.37
631.848	15021.34
632.042	14849.31
632.236	14834.97
632.43	14626.08
632.624	14841.12
632.818	14343.46
633.012	14535.97
633.206	14458.15
633.4	14224.68
633.594	14230.82
633.788	14462.24
633.982	14124.33
634.176	14112.04
634.369	13903.15
634.563	14003.5
634.757	13794.61
634.951	13999.4
635.145	13681.97
635.339	13724.97
635.533	13446.45
635.726	13694.26
635.92	13217.08
636.114	13468.98
636.308	13372.72
636.501	13374.77
636.695	13477.17
636.889	13096.25
637.083	12983.61
637.276	12924.22
637.47	12920.12
637.664	12797.24
637.857	12723.52
638.051	12684.61
638.244	12674.37
638.438	12565.82
638.632	12526.91
638.825	12420.42
639.019	12500.29
639.212	12160.33
639.406	12197.19
639.599	12156.23
639.793	12246.34
639.986	11947.34
640.18	12062.02
640.373	12027.21
640.567	11789.64
640.76	11648.33
640.954	11740.49
641.147	11455.83
641.34	11658.57
641.534	11355.47
641.727	11556.18
641.92	11480.4
642.114	11582.8
642.307	11228.5
642.5	11128.15
642.694	11015.51
642.887	11013.46
643.08	11040.09
643.273	11017.56
643.467	10751.32
643.66	10886.49
643.853	10693.98
644.046	10687.84
644.239	10855.77
644.432	10720.6
644.626	10614.11
644.819	10620.25
645.012	10505.57
645.205	10382.69
645.398	10429.79
645.591	10304.87
645.784	10435.94
645.977	10165.6
646.17	10020.2
646.363	10190.18
646.556	10106.21
646.749	10044.77
646.942	10063.21
647.135	9848.17
647.328	9868.65
647.521	9917.8
647.714	9764.2
647.907	9776.49
648.099	9700.72
648.292	9594.22
648.485	9418.1
648.678	9444.72
648.871	9457.01
649.064	9354.61
649.256	9160.05
649.449	9344.37
649.642	9119.09
649.835	9211.25
650.027	9110.9
650.22	9188.72
650.413	9127.28
650.605	9078.13
650.798	8848.76
650.991	8953.21
651.183	8844.67
651.376	8670.59
651.568	8832.38
651.761	8691.07
651.954	8799.61
652.146	8535.42
652.339	8801.66
652.531	8772.99
652.724	8641.92
652.916	8398.21
653.109	8529.28
653.301	8328.58
653.494	8385.92
653.686	8127.88
653.879	8224.13
654.071	8107.4
654.263	8211.84
654.456	8019.33
654.648	8109.44
654.84	7871.88
655.033	8017.29
655.225	7937.41
655.417	7837.06
655.61	7749
655.802	7992.71
655.994	7691.66
656.186	7873.93
656.379	7560.59
656.571	7607.69
656.763	7452.05
656.955	7548.3
657.148	7505.29
657.34	7390.61
657.532	7406.99
657.724	7361.94
657.916	7462.29
658.108	7343.5
658.3	7316.88
658.492	7198.1
658.684	7185.81
658.876	7196.05
659.068	7245.2
659.26	7077.27
659.452	7363.98
659.644	7001.49
659.836	6823.32
660.028	6931.86
660.22	6692.25
660.412	6800.79
660.604	6786.46
660.796	6733.21
660.988	6817.18
661.18	6702.49
661.372	6591.9
661.563	6677.91
661.755	6626.71
661.947	6682.01
662.139	6567.32
662.331	6346.14
662.522	6495.64
662.714	6419.87
662.906	6450.59
663.097	6354.34
663.289	6444.45
663.481	6161.83
663.673	6405.53
663.864	6270.37
664.056	6200.74
664.247	6194.59
664.439	6217.12
664.631	6088.1
664.822	6069.67
665.014	6018.47
665.205	6055.33
665.397	6047.14
665.588	5936.55
665.78	5852.58
665.971	5848.49
666.163	5897.64
666.354	5866.92
666.546	5909.93
666.737	5807.53
666.929	5772.71
667.12	5895.59
667.311	5782.95
667.503	5795.24
667.694	5752.23
667.885	5584.3
668.077	5670.31
668.268	5496.24
668.459	5676.46
668.651	5461.42
668.842	5420.46
669.033	5596.59
669.224	5629.35
669.416	5473.71
669.607	5459.37
669.798	5225.9
669.989	5299.63
670.18	5328.3
670.371	5273.01
670.563	5174.71
670.754	5363.12
670.945	5221.81
671.136	5293.49
671.327	5244.34
671.518	5166.51
671.709	5207.47
671.9	5289.39
672.091	5027.25
672.282	4908.47
672.473	4990.39
672.664	5172.66
672.855	5064.11
673.046	5057.97
673.237	4996.53
673.428	4912.57
673.619	4990.39
673.809	4965.81
674	4941.24
674.191	4933.04
674.382	4820.41
674.573	4922.8
674.764	4851.13
674.954	4740.54
675.145	4703.67
675.336	4656.57
675.527	4885.94
675.717	4777.4
675.908	4675
676.099	4810.17
676.289	4765.11
676.48	4703.67
676.671	4705.72
676.861	4636.09
677.052	4695.48
677.243	4482.49
677.433	4502.97
677.624	4709.82
677.814	4574.65
678.005	4425.15
678.195	4470.2
678.386	4494.78
678.576	4574.65
678.767	4328.89
678.957	4435.39
679.148	4591.03
679.338	4410.81
679.529	4408.76
679.719	4410.81
679.909	4488.64
680.1	4326.85
680.29	4509.12
680.481	4269.5
680.671	4363.71
680.861	4439.48
681.052	4466.11
681.242	4392.38
681.432	4220.35
681.622	4429.24
681.813	4246.98
682.003	4261.31
682.193	4257.22
682.383	4363.71
682.573	4120
682.764	4152.77
682.954	4195.78
683.144	4294.08
683.334	4169.15
683.524	4185.54
683.714	4064.71
683.904	4050.37
684.094	4138.43
684.284	4195.78
684.474	4140.48
684.664	4171.2
684.854	4171.2
685.044	4105.67
685.234	4113.86
685.424	4249.02
685.614	4003.27
685.804	4060.61
685.994	4189.63
686.184	3976.64
686.374	4093.38
686.564	3915.2
686.753	3892.68
686.943	3831.24
687.133	3935.68
687.323	3808.71
687.513	3864.01
687.702	4023.75
687.892	3853.77
688.082	3859.91
688.272	3933.64
688.461	3816.9
688.651	3827.14
688.841	3806.66
689.03	3835.33
689.22	3651.02
689.41	3884.48
689.599	3716.55
689.789	3610.06
689.979	3792.33
690.168	3677.64
690.358	3591.63
690.547	3624.39
690.737	3810.76
690.926	3628.49
691.116	3487.18
691.305	3734.98
691.495	3608.01
691.684	3542.47
691.874	3519.95
692.063	3513.8
692.252	3468.75
692.442	3610.06
692.631	3454.41
692.82	3476.94
693.01	3583.43
693.199	3497.42
693.388	3364.3
693.578	3501.51
693.767	3417.55
693.956	3491.27
694.146	3468.75
694.335	3378.64
694.524	3378.64
694.713	3401.16
694.902	3278.29
695.092	3497.42
695.281	3237.33
695.47	3304.91
695.659	3343.82
695.848	3395.02
696.037	3278.29
696.226	3386.83
696.415	3261.9
696.604	3233.23
696.793	3302.86
696.982	3300.81
697.171	3182.03
697.36	3300.81
697.549	3220.94
697.738	3091.92
697.927	3253.71
698.116	3175.89
698.305	3309.01
698.494	3292.62
698.683	3141.07
698.872	3196.37
699.061	3134.93
699.25	3116.5
699.438	3276.24
699.627	3280.33
699.816	3024.34
700.005	3276.24
700.193	3165.65
700.382	3249.61
700.571	3110.35
700.76	3167.7
700.948	3227.09
701.137	3171.79
701.326	3112.4
701.514	3093.97
701.703	3188.18
701.892	3075.54
702.08	3110.35
702.269	3077.59
702.457	3083.73
702.646	3132.88
702.834	3134.93
703.023	3196.37
703.212	3177.94
703.4	3100.11
703.589	3128.78
703.777	3214.8
703.965	3173.84
704.154	3151.31
704.342	3075.54
704.531	3167.7
704.719	3038.67
704.907	3030.48
705.096	2993.62
705.284	3046.87
705.472	3069.39
705.661	3077.59
705.849	3118.54
706.037	3159.5
706.226	3104.21
706.414	3085.78
706.602	3055.06
706.79	3139.02
706.979	3159.5
707.167	3036.63
707.355	3067.35
707.543	2971.09
707.731	3098.06
707.919	2979.28
708.107	3061.2
708.296	3118.54
708.484	3067.35
708.672	2973.14
708.86	3018.19
709.048	2983.38
709.236	2993.62
709.424	3124.69
709.612	2973.14
709.8	2985.43
709.988	3032.53
710.176	2975.19
710.364	2966.99
710.551	2954.71
710.739	2983.38
710.927	2915.8
711.115	2872.79
711.303	2973.14
711.491	2964.95
711.679	3057.11
711.866	3042.77
712.054	2954.71
712.242	2971.09
712.43	2985.43
712.617	3096.02
712.805	2854.36
712.993	2977.23
713.181	3010
713.368	3010
713.556	2971.09
713.744	2819.54
713.931	3005.91
714.119	2903.51
714.306	2876.88
714.494	2923.99
714.682	2985.43
714.869	2901.46
715.057	2928.08
715.244	2928.08
715.432	2926.04
715.619	2878.93
715.807	2749.91
715.994	2915.8
716.182	2907.6
716.369	2958.8
716.556	2969.04
716.744	2840.02
716.931	2926.04
717.119	2969.04
717.306	2893.27
717.493	2774.49
717.681	2840.02
717.868	2966.99
718.055	2897.36
718.242	2776.53
718.43	2926.04
718.617	2969.04
718.804	2860.5
718.991	2846.16
719.179	2776.53
719.366	2889.17
719.553	2897.36
719.74	2852.31
719.927	2938.32
720.114	2801.11
720.301	2868.69
720.488	2825.68
720.676	2870.74
720.863	2770.39
721.05	2944.47
721.237	2883.03
721.424	2729.43
721.611	2811.35
721.798	2764.25
721.985	2698.71
722.172	2756.05
722.358	2651.61
722.545	2708.95
722.732	2715.09
722.919	2835.92
723.106	2745.81
723.293	2704.85
723.48	2842.07
723.667	2768.34
723.853	2678.23
724.04	2782.68
724.227	2682.33
724.414	2758.1
724.6	2727.38
724.787	2766.29
724.974	2635.22
725.161	2815.45
725.347	2696.66
725.534	2801.11
725.72	2739.67
725.907	2694.61
726.094	2698.71
726.28	2614.74
726.467	2700.76
726.653	2717.14
726.84	2676.18
727.027	2817.49
727.213	2680.28
727.4	2684.38
727.586	2692.57
727.773	2735.57
727.959	2719.19
728.145	2741.72
728.332	2659.8
728.518	2741.72
728.705	2729.43
728.891	2737.62
729.077	2536.92
729.264	2801.11
729.45	2676.18
729.636	2672.09
729.823	2704.85
730.009	2727.38
730.195	2690.52
730.382	2713.05
730.568	2659.8
730.754	2633.18
730.94	2569.69
731.126	2813.4
731.313	2706.9
731.499	2725.33
731.685	2813.4
731.871	2747.86
732.057	2610.65
732.243	2610.65
732.429	2672.09
732.615	2682.33
732.801	2594.26
732.987	2665.94
733.173	2696.66
733.359	2749.91
733.545	2586.07
733.731	2536.92
733.917	2760.15
734.103	2633.18
734.289	2651.61
734.475	2651.61
734.661	2555.35
734.847	2569.69
735.033	2665.94
735.219	2643.42
735.404	2643.42
735.59	2647.51
735.776	2665.94
735.962	2661.85
736.148	2565.59
736.333	2682.33
736.519	2549.21
736.705	2571.74
736.89	2461.15
737.076	2573.78
737.262	2561.5
737.447	2624.98
737.633	2545.11
737.819	2577.88
738.004	2498.01
738.19	2485.72
738.375	2534.87
738.561	2498.01
738.747	2422.24
738.932	2440.67
739.118	2483.67
739.303	2586.07
739.489	2495.96
739.674	2354.65
739.859	2569.69
740.045	2495.96
740.23	2450.91
740.416	2430.43
740.601	2479.58
740.786	2432.47
740.972	2366.94
741.157	2434.52
741.342	2424.28
741.528	2426.33
741.713	2397.66
741.898	2389.47
742.084	2532.83
742.269	2354.65
742.454	2534.87
742.639	2471.39
742.824	2295.26
743.01	2323.93
743.195	2493.91
743.38	2270.69
743.565	2321.88
743.75	2264.54
743.935	2242.01
744.12	2475.48
744.305	2264.54
744.49	2422.24
744.675	2250.21
744.86	2176.48
745.045	2285.02
745.23	2190.81
745.415	2217.44
745.6	2323.93
745.785	2168.29
745.97	2180.57
746.155	2254.3
746.34	2178.53
746.525	2156
746.71	2229.73
746.895	2115.04
747.079	2188.77
747.264	2026.98
747.449	2252.25
747.634	2092.51
747.819	2000.35
748.003	2031.07
748.188	2033.12
748.373	1967.59
748.557	1955.3
748.742	2104.8
748.927	1920.48
749.111	1883.62
749.296	1986.02
749.481	2051.55
749.665	1955.3
749.85	1900
750.034	2098.66
750.219	1963.49
750.404	1918.43
750.588	1785.32
750.773	1824.23
750.957	1906.15
751.141	1861.09
751.326	1877.48
751.51	1723.88
751.695	1783.27
751.879	1811.94
752.064	1797.6
752.248	1707.49
752.432	1797.6
752.617	1641.96
752.801	1783.27
752.985	1811.94
753.17	1654.25
753.354	1781.22
753.538	1617.38
753.722	1723.88
753.907	1754.6
754.091	1801.7
754.275	1566.18
754.459	1650.15
754.643	1539.56
754.828	1617.38
755.012	1527.27
755.196	1601
755.38	1580.52
755.564	1529.32
755.748	1588.71
755.932	1551.85
756.116	1582.57
756.3	1570.28
756.484	1453.55
756.668	1547.75
756.852	1408.49
757.036	1545.7
757.22	1416.68
757.404	1500.65
757.588	1420.78
757.772	1463.79
757.956	1465.83
758.14	1381.87
758.323	1428.97
758.507	1439.21
758.691	1437.16
758.875	1390.06
759.059	1381.87
759.242	1410.54
759.426	1383.91
759.61	1416.68
759.794	1302
759.977	1439.21
760.161	1455.59
760.345	1480.17
760.528	1291.76
760.712	1277.42
760.895	1279.47
761.079	1330.67
761.263	1185.26
761.446	1207.79
761.63	1297.9
761.813	1285.61
761.997	1285.61
762.18	1326.57
762.364	1302
762.547	1113.58
762.731	1177.07
762.914	1279.47
763.098	1164.78
763.281	1175.02
763.464	1254.89
763.648	1162.73
763.831	1310.19
764.015	1160.69
764.198	1150.45
764.381	1185.26
764.564	1082.86
764.748	1168.88
764.931	1095.15
765.114	1037.81
765.297	1175.02
765.481	1156.59
765.664	1160.69
765.847	1056.24
766.03	1150.45
766.213	1218.03
766.397	1134.06
766.58	1056.24
766.763	1066.48
766.946	1064.43
767.129	1125.87
767.312	978.42
767.495	1035.76
767.678	1091.06
767.861	1035.76
768.044	1060.34
768.227	1015.28
768.41	1089.01
768.593	1113.58
768.776	914.93
768.959	998.9
769.142	1068.53
769.324	1019.38
769.507	951.79
769.69	1068.53
769.873	1009.14
770.056	978.42
770.239	1037.81
770.421	1037.81
770.604	1023.47
770.787	986.61
770.97	902.64
771.152	919.03
771.335	1000.94
771.518	927.22
771.7	978.42
771.883	959.99
772.066	978.42
772.248	984.56
772.431	935.41
772.613	876.02
772.796	853.49
772.978	892.4
773.161	953.84
773.343	902.64
773.526	1021.42
773.708	810.48
773.891	910.83
774.073	929.27
774.256	837.11
774.438	890.35
774.621	857.59
774.803	990.7
774.985	886.26
775.168	908.79
775.35	904.69
775.532	818.68
775.715	839.16
775.897	769.52
776.079	867.83
776.261	822.77
776.444	769.52
776.626	726.52
776.808	878.07
776.99	720.37
777.173	833.01
777.355	755.19
777.537	757.24
777.719	802.29
777.901	765.43
778.083	701.94
778.265	765.43
778.447	757.24
778.629	697.85
778.811	634.36
778.993	753.14
779.175	654.84
779.357	689.65
779.539	720.37
779.721	738.8
779.903	742.9
780.085	718.33
780.267	693.75
780.449	708.09
780.631	683.51
780.812	757.24
780.994	613.88
781.176	689.65
781.358	796.15
781.54	622.07
781.721	685.56
781.903	660.98
782.085	630.26
782.267	640.5
782.448	622.07
782.63	679.41
782.812	585.21
782.993	605.69
783.175	542.2
783.357	628.21
783.538	521.72
783.72	509.43
783.901	583.16
784.083	613.88
784.264	585.21
784.446	560.63
784.627	484.86
784.809	531.96
784.99	603.64
785.172	525.82
785.353	538.1
785.535	488.95
785.716	544.25
785.897	572.92
786.079	540.15
786.26	562.68
786.441	542.2
786.623	382.46
786.804	421.37
786.985	411.13
787.167	427.51
787.348	437.75
787.529	515.58
787.71	562.68
787.891	456.19
788.073	458.23
788.254	546.3
788.435	482.81
788.616	562.68
788.797	398.84
788.978	474.62
789.159	398.84
789.34	413.18
789.522	398.84
789.703	427.51
789.884	472.57
790.065	505.34
790.246	447.99
790.427	380.41
790.607	429.56
790.788	355.83
790.969	396.79
791.15	407.03
791.331	382.46
791.512	437.75
791.693	366.07
791.874	398.84
792.054	509.43
792.235	417.27
792.416	388.6
792.597	456.19
792.778	364.03
792.958	388.6
793.139	394.75
793.32	357.88
793.5	388.6
793.681	478.71
793.862	396.79
794.042	357.88
794.223	298.49
794.404	351.74
794.584	349.69
794.765	349.69
794.945	357.88
795.126	431.61
795.306	417.27
795.487	349.69
795.667	339.45
795.848	278.01
796.028	306.68
796.209	314.88
796.389	335.35
796.57	349.69
796.75	347.64
796.93	347.64
797.111	273.92
797.291	353.79
797.471	316.92
797.652	347.64
797.832	343.55
798.012	316.92
798.192	271.87
798.373	273.92
798.553	325.12
798.733	351.74
798.913	359.93
799.093	337.4
799.274	374.27
799.454	331.26
799.634	194.05
799.814	290.3
799.994	294.4
800.174	282.11
800.354	325.12
800.534	226.81
800.714	308.73
800.894	249.34
801.074	261.63
801.254	296.44
801.434	273.92
801.614	345.59
801.794	294.4
801.974	652.79
802.154	212.48
802.334	280.06
802.514	251.39
802.693	251.39
802.873	212.48
803.053	249.34
803.233	331.26
803.413	273.92
803.592	245.24
803.772	241.15
803.952	247.29
804.131	216.57
804.311	251.39
804.491	331.26
804.67	202.24
804.85	241.15
805.03	304.64
805.209	284.16
805.389	232.96
805.568	239.1
805.748	257.53
805.928	196.09
806.107	198.14
806.287	294.4
806.466	267.77
806.646	212.48
806.825	228.86
807.004	187.9
807.184	222.72
807.363	263.68
807.543	228.86
807.722	235
807.901	284.16
808.081	251.39
808.26	189.95
808.439	235
808.619	206.33
808.798	230.91
808.977	253.44
809.156	153.09
809.336	218.62
809.515	278.01
809.694	202.24
809.873	198.14
810.052	183.81
810.231	230.91
810.411	196.09
810.59	310.78
810.769	210.43
810.948	177.66
811.127	194.05
811.306	202.24
811.485	157.18
811.664	226.81
811.843	212.48
812.022	192
812.201	128.51
812.38	198.14
812.559	181.76
812.737	136.7
812.916	161.28
813.095	265.72
813.274	177.66
813.453	169.47
813.632	202.24
813.811	243.2
813.989	118.27
814.168	251.39
814.347	151.04
814.526	181.76
814.704	220.67
814.883	171.52
815.062	128.51
815.24	271.87
815.419	161.28
815.598	167.42
815.776	192
815.955	198.14
816.133	105.98
816.312	165.37
816.49	159.23
816.669	189.95
816.847	210.43
817.026	155.13
817.204	124.41
817.383	120.32
817.561	232.96
817.74	179.71
817.918	126.46
818.097	169.47
818.275	126.46
818.453	122.37
818.632	159.23
818.81	159.23
818.988	167.42
819.167	54.78
819.345	192
819.523	120.32
819.701	161.28
819.879	196.09
820.058	169.47
820.236	118.27
820.414	148.99
820.592	142.85
820.77	99.84
820.948	134.65
821.127	235
821.305	136.7
821.483	101.89
821.661	71.17
821.839	130.56
822.017	93.69
822.195	144.89
822.373	157.18
822.551	173.57
822.729	13.82
822.907	71.17
823.085	130.56
823.262	112.13
823.44	91.65
823.618	118.27
823.796	136.7
823.974	134.65
824.152	79.36
824.329	112.13
824.507	157.18
824.685	124.41
824.863	169.47
825.04	185.85
825.218	155.13
825.396	54.78
825.574	99.84
825.751	148.99
825.929	116.22
826.107	85.5
826.284	120.32
826.462	83.45
826.639	73.21
826.817	71.17
826.994	206.33
827.172	38.4
827.349	208.38
827.527	71.17
827.704	60.93
827.882	83.45
828.059	54.78
828.237	62.98
828.414	112.13
828.591	32.26
828.769	173.57
828.946	36.35
829.124	161.28
829.301	155.13
829.478	144.89
829.655	87.55
829.833	124.41
830.01	114.17
830.187	34.3
830.364	38.4
830.542	120.32
830.719	132.61
830.896	134.65
831.073	81.41
831.25	101.89
831.427	93.69
831.604	142.85
831.782	153.09
831.959	153.09
832.136	93.69
832.313	132.61
832.49	17.92
832.667	71.17
832.844	81.41
833.021	118.27
833.198	69.12
833.374	91.65
833.551	134.65
833.728	130.56
833.905	112.13
834.082	17.92
834.259	50.69
834.436	97.79
834.612	77.31
834.789	134.65
834.966	99.84
835.143	118.27
835.319	75.26
835.496	122.37
835.673	58.88
835.85	85.5
836.026	44.54
836.203	85.5
836.38	-2.56
836.556	87.55
836.733	42.5
836.909	54.78
837.086	67.07
837.262	142.85
837.439	77.31
837.616	151.04
837.792	65.02
837.968	65.02
838.145	40.45
838.321	153.09
838.498	79.36
838.674	34.3
838.851	89.6
839.027	118.27
839.203	-2.56
839.38	101.89
839.556	28.16
839.732	71.17
839.909	34.3
840.085	-4.61
840.261	60.93
840.437	124.41
840.614	56.83
840.79	58.88
840.966	134.65
841.142	97.79
841.318	48.64
841.494	52.74
841.671	62.98
841.847	87.55
842.023	34.3
842.199	58.88
842.375	142.85
842.551	101.89
842.727	75.26
842.903	65.02
843.079	26.11
843.255	52.74
843.431	65.02
843.607	99.84
843.783	24.06
843.959	75.26
844.134	40.45
844.31	97.79
844.486	32.26
844.662	54.78
844.838	46.59
845.013	73.21
845.189	65.02
845.365	46.59
845.541	44.54
845.716	48.64
845.892	50.69
846.068	56.83
846.244	24.06
846.419	112.13
846.595	42.5
846.77	7.68
846.946	75.26
847.122	132.61
847.297	-4.61
847.473	32.26
847.648	19.97
847.824	17.92
847.999	144.89
848.175	75.26
848.35	126.46
848.526	71.17
848.701	67.07
848.876	62.98
849.052	44.54
849.227	69.12
849.403	91.65
849.578	13.82
849.753	30.21
849.929	38.4
850.104	73.21
850.279	114.17
850.454	24.06
850.63	75.26
850.805	73.21
850.98	32.26
851.155	26.11
851.33	91.65
851.505	15.87
851.681	-6.66
851.856	-16.9
852.031	75.26
852.206	9.73
852.381	81.41
852.556	52.74
852.731	34.3
852.906	22.02
853.081	19.97
853.256	89.6
853.431	87.55
853.606	24.06
853.781	26.11
853.956	62.98
854.131	36.35
854.305	67.07
854.48	17.92
854.655	9.73
854.83	40.45
855.005	-33.28
855.18	-31.23
855.354	97.79
855.529	-12.8
855.704	-16.9
855.879	5.63
856.053	-18.94
856.228	58.88
856.403	-10.75
856.577	95.74
856.752	67.07
856.926	1.54
857.101	52.74
857.276	58.88
857.45	46.59
857.625	-18.94
857.799	13.82
857.974	32.26
858.148	19.97
858.323	46.59
858.497	-20.99
858.672	17.92
858.846	1.54
859.02	99.84
859.195	1.54
859.369	32.26
859.543	36.35
859.718	28.16
859.892	54.78
860.066	58.88
860.241	13.82
860.415	-10.75
860.589	-16.9
860.763	89.6
860.938	62.98
861.112	40.45
861.286	9.73
861.46	-20.99
861.634	11.78
861.808	83.45
861.982	-10.75
862.157	13.82
862.331	-2.56
862.505	50.69
862.679	62.98
862.853	28.16
863.027	38.4
863.201	-2.56
863.375	15.87
863.549	38.4
863.722	5.63
863.896	19.97
864.07	-61.95
864.244	-27.14
864.418	32.26
864.592	42.5
864.766	22.02
864.939	83.45
865.113	56.83
865.287	-0.51
865.461	22.02
865.634	69.12
865.808	81.41
865.982	-12.8
866.156	19.97
866.329	-33.28
866.503	3.58
866.676	22.02
866.85	58.88
867.024	11.78
867.197	-2.56
867.371	42.5
867.544	34.3
867.718	22.02
867.891	9.73
868.065	69.12
868.238	42.5
868.412	42.5
868.585	13.82
868.759	36.35
868.932	32.26
869.105	7.68
869.279	56.83
869.452	79.36
869.625	-23.04
869.799	26.11
869.972	-16.9
870.145	-0.51
870.319	103.93
870.492	-10.75
870.665	-12.8
870.838	-2.56
871.011	48.64
871.185	-0.51
871.358	36.35
871.531	30.21
871.704	-23.04
871.877	15.87
872.05	-23.04
872.223	-53.76
872.396	-23.04
872.569	54.78
872.742	-16.9
872.915	26.11
873.088	-55.81
873.261	46.59
873.434	5.63
873.607	-6.66
873.78	30.21
873.953	-4.61
874.126	-10.75
874.299	-47.62
874.471	1.54
874.644	62.98
874.817	42.5
874.99	11.78
875.163	30.21
875.335	-35.33
875.508	28.16
875.681	42.5
875.853	19.97
876.026	48.64
876.199	26.11
876.371	28.16
876.544	3.58
876.717	-4.61
876.889	-0.51
877.062	-8.7
877.234	38.4
877.407	17.92
877.579	26.11
877.752	58.88
877.924	-25.09
878.097	-6.66
878.269	42.5
878.442	40.45
878.614	28.16
878.786	38.4
878.959	-4.61
879.131	-47.62
879.303	-59.9
879.476	19.97
879.648	28.16
879.82	56.83
879.993	-33.28
880.165	22.02
880.337	-12.8
880.509	9.73
880.681	-18.94
880.854	-8.7
881.026	7.68
881.198	69.12
881.37	7.68
881.542	-23.04
881.714	7.68
881.886	-6.66
882.058	-6.66
882.23	54.78
882.402	-10.75
882.574	22.02
882.746	1.54
882.918	101.89
883.09	34.3
883.262	58.88
883.434	-41.47
883.606	-64
883.778	-12.8
883.95	75.26
884.122	13.82
884.293	91.65
884.465	-20.99
884.637	5.63
884.809	-0.51
884.98	-2.56
885.152	-20.99
885.324	11.78
885.496	34.3
885.667	11.78
885.839	17.92
886.011	77.31
886.182	48.64
886.354	32.26
886.525	-8.7
886.697	46.59
886.869	-16.9
887.04	-8.7
887.212	-35.33
887.383	46.59
887.555	-6.66
887.726	42.5
887.897	22.02
888.069	7.68
888.24	26.11
888.412	42.5
888.583	-80.38
888.754	-20.99
888.926	32.26
889.097	-31.23
889.268	-29.18
889.44	17.92
889.611	-12.8
889.782	-10.75
889.953	24.06
890.125	24.06
890.296	-16.9
890.467	3.58
890.638	13.82
890.809	-37.38
890.98	22.02
891.151	-23.04
891.323	-37.38
891.494	-10.75
891.665	11.78
891.836	38.4
892.007	32.26
892.178	24.06
892.349	71.17
892.52	-16.9
892.691	19.97
892.862	32.26
893.032	26.11
893.203	15.87
893.374	19.97
893.545	-16.9
893.716	-39.42
893.887	67.07
894.057	-18.94
894.228	32.26
894.399	81.41
894.57	-35.33
894.74	28.16
894.911	22.02
895.082	7.68
895.253	58.88
895.423	-10.75
895.594	60.93
895.764	-23.04
895.935	-47.62
896.106	75.26
896.276	-72.19
896.447	5.63
896.617	42.5
896.788	56.83
896.958	-33.28
897.129	5.63
897.299	-49.66
897.47	3.58
897.64	30.21
897.81	24.06
897.981	17.92
898.151	11.78
898.322	71.17
898.492	-20.99
898.662	15.87
898.832	5.63
899.003	1.54
899.173	11.78
899.343	-6.66
899.513	30.21
