Data from USB4F104151__94__11-06-48-641.txt Node

Date: Wed Mar 12 11:06:48 EDT 2025
User: louis
Spectrometer: USB4F10415
Trigger mode: 4
Integration Time (sec): 2.000000E-2
Scans to average: 1
Electric dark correction enabled: true
Nonlinearity correction enabled: false
Boxcar width: 0
XAxis mode: Wavelengths
Number of Pixels in Spectrum: 3648
>>>>>Begin Spectral Data<<<<<
178.204	-122.02
178.424	-122.02
178.644	-122.02
178.864	-83.11
179.084	-46.25
179.304	-9.39
179.524	-31.91
179.744	21.33
179.964	-13.48
180.184	15.19
180.404	-3.24
180.624	19.29
180.844	-46.25
181.064	-29.87
181.283	0.85
181.503	-33.96
181.723	111.44
181.943	7
182.163	62.29
182.383	19.29
182.602	13.14
182.822	19.29
183.042	43.86
183.262	15.19
183.482	-11.43
183.701	-9.39
183.921	31.57
184.141	-11.43
184.361	78.68
184.58	-15.53
184.8	-33.96
185.02	58.2
185.239	2.9
185.459	9.05
185.679	82.77
185.898	-54.44
186.118	25.43
186.338	70.48
186.557	13.14
186.777	-11.43
186.997	2.9
187.216	4.95
187.436	-7.34
187.655	52.05
187.875	50
188.095	-33.96
188.314	-5.29
188.534	13.14
188.753	82.77
188.973	-42.15
189.192	45.91
189.412	17.24
189.631	58.2
189.851	-48.3
190.07	33.62
190.29	-42.15
190.509	31.57
190.729	-29.87
190.948	43.86
191.168	119.64
191.387	54.1
191.607	60.24
191.826	41.81
192.045	7
192.265	37.72
192.484	0.85
192.704	-93.35
192.923	-3.24
193.142	45.91
193.362	88.92
193.581	-21.67
193.8	45.91
194.02	19.29
194.239	-42.15
194.458	45.91
194.678	-25.77
194.897	72.53
195.116	84.82
195.335	-9.39
195.555	-40.11
195.774	-36.01
195.993	90.96
196.212	13.14
196.432	45.91
196.651	52.05
196.87	23.38
197.089	-3.24
197.308	31.57
197.528	9.05
197.747	35.67
197.966	113.49
198.185	64.34
198.404	4.95
198.623	-15.53
198.842	-5.29
199.062	54.1
199.281	64.34
199.5	-36.01
199.719	97.11
199.938	13.14
200.157	50
200.376	-1.19
200.595	35.67
200.814	-13.48
201.033	-52.39
201.252	50
201.471	29.52
201.69	27.48
201.909	-13.48
202.128	64.34
202.347	25.43
202.566	15.19
202.785	7
203.004	23.38
203.223	101.2
203.442	19.29
203.661	23.38
203.879	-40.11
204.098	97.11
204.317	-3.24
204.536	-1.19
204.755	13.14
204.974	-46.25
205.193	23.38
205.411	33.62
205.63	43.86
205.849	27.48
206.068	31.57
206.287	7
206.505	45.91
206.724	31.57
206.943	7
207.162	37.72
207.381	-3.24
207.599	27.48
207.818	58.2
208.037	43.86
208.255	-3.24
208.474	62.29
208.693	13.14
208.911	54.1
209.13	15.19
209.349	21.33
209.567	50
209.786	80.72
210.005	31.57
210.223	23.38
210.442	50
210.661	13.14
210.879	-66.73
211.098	25.43
211.316	15.19
211.535	62.29
211.753	-62.63
211.972	43.86
212.191	-64.68
212.409	39.76
212.628	74.58
212.846	70.48
213.065	25.43
213.283	43.86
213.502	-23.72
213.72	45.91
213.938	19.29
214.157	-25.77
214.375	109.4
214.594	33.62
214.812	52.05
215.031	56.15
215.249	11.09
215.467	-9.39
215.686	-13.48
215.904	56.15
216.122	-25.77
216.341	27.48
216.559	56.15
216.778	7
216.996	45.91
217.214	58.2
217.432	25.43
217.651	-36.01
217.869	-27.82
218.087	37.72
218.306	-29.87
218.524	-9.39
218.742	35.67
218.96	52.05
219.179	25.43
219.397	-17.58
219.615	39.76
219.833	84.82
220.051	-23.72
220.27	35.67
220.488	50
220.706	86.87
220.924	-9.39
221.142	21.33
221.36	-23.72
221.578	-5.29
221.796	39.76
222.015	41.81
222.233	-52.39
222.451	111.44
222.669	0.85
222.887	64.34
223.105	9.05
223.323	25.43
223.541	45.91
223.759	64.34
223.977	25.43
224.195	64.34
224.413	27.48
224.631	33.62
224.849	-1.19
225.067	72.53
225.285	54.1
225.503	17.24
225.721	-44.2
225.939	-1.19
226.157	-17.58
226.375	103.25
226.592	0.85
226.81	2.9
227.028	37.72
227.246	97.11
227.464	47.96
227.682	13.14
227.9	76.63
228.117	0.85
228.335	4.95
228.553	56.15
228.771	7
228.989	56.15
229.206	-52.39
229.424	43.86
229.642	15.19
229.86	-38.06
230.077	15.19
230.295	43.86
230.513	-27.82
230.731	39.76
230.948	99.16
231.166	29.52
231.384	-5.29
231.601	-19.63
231.819	54.1
232.037	52.05
232.254	62.29
232.472	-25.77
232.689	-23.72
232.907	27.48
233.125	-29.87
233.342	35.67
233.56	-48.3
233.777	19.29
233.995	39.76
234.213	21.33
234.43	-23.72
234.648	31.57
234.865	29.52
235.083	29.52
235.3	-33.96
235.518	-23.72
235.735	58.2
235.953	76.63
236.17	9.05
236.388	-5.29
236.605	-5.29
236.822	4.95
237.04	50
237.257	-21.67
237.475	-44.2
237.692	-25.77
237.909	-7.34
238.127	39.76
238.344	39.76
238.562	54.1
238.779	-5.29
238.996	31.57
239.214	9.05
239.431	70.48
239.648	-3.24
239.865	76.63
240.083	11.09
240.3	35.67
240.517	64.34
240.735	11.09
240.952	56.15
241.169	82.77
241.386	-5.29
241.603	103.25
241.821	41.81
242.038	7
242.255	50
242.472	0.85
242.689	76.63
242.907	11.09
243.124	19.29
243.341	-11.43
243.558	2.9
243.775	-5.29
243.992	9.05
244.209	47.96
244.426	-11.43
244.643	70.48
244.86	60.24
245.078	58.2
245.295	76.63
245.512	56.15
245.729	43.86
245.946	103.25
246.163	70.48
246.38	31.57
246.597	-17.58
246.814	74.58
247.031	15.19
247.248	15.19
247.464	47.96
247.681	-7.34
247.898	21.33
248.115	66.39
248.332	-25.77
248.549	56.15
248.766	168.79
248.983	52.05
249.2	-33.96
249.417	56.15
249.633	-15.53
249.85	2.9
250.067	39.76
250.284	-54.44
250.501	27.48
250.717	13.14
250.934	-33.96
251.151	-7.34
251.368	-1.19
251.585	35.67
251.801	64.34
252.018	-21.67
252.235	11.09
252.451	-40.11
252.668	45.91
252.885	-9.39
253.102	17.24
253.318	52.05
253.535	-23.72
253.752	54.1
253.968	-33.96
254.185	-46.25
254.401	19.29
254.618	11.09
254.835	35.67
255.051	29.52
255.268	-5.29
255.484	74.58
255.701	72.53
255.917	13.14
256.134	76.63
256.351	62.29
256.567	-9.39
256.784	-23.72
257	-19.63
257.217	45.91
257.433	54.1
257.65	66.39
257.866	66.39
258.082	-3.24
258.299	-42.15
258.515	27.48
258.732	43.86
258.948	29.52
259.165	93.01
259.381	-11.43
259.597	-3.24
259.814	60.24
260.03	29.52
260.246	7
260.463	9.05
260.679	43.86
260.895	19.29
261.112	90.96
261.328	80.72
261.544	29.52
261.761	2.9
261.977	29.52
262.193	-83.11
262.409	80.72
262.626	27.48
262.842	45.91
263.058	17.24
263.274	43.86
263.49	-27.82
263.707	11.09
263.923	19.29
264.139	-11.43
264.355	-11.43
264.571	60.24
264.787	7
265.004	72.53
265.22	31.57
265.436	27.48
265.652	64.34
265.868	-9.39
266.084	-1.19
266.3	4.95
266.516	41.81
266.732	93.01
266.948	47.96
267.164	52.05
267.38	13.14
267.596	11.09
267.812	4.95
268.028	107.35
268.244	56.15
268.46	-23.72
268.676	-11.43
268.892	29.52
269.108	9.05
269.324	37.72
269.54	37.72
269.756	66.39
269.972	2.9
270.188	2.9
270.403	29.52
270.619	58.2
270.835	56.15
271.051	-7.34
271.267	-29.87
271.483	70.48
271.698	-13.48
271.914	-13.48
272.13	7
272.346	-13.48
272.562	13.14
272.777	-9.39
272.993	13.14
273.209	45.91
273.425	25.43
273.64	-87.21
273.856	60.24
274.072	109.4
274.287	88.92
274.503	82.77
274.719	-23.72
274.934	27.48
275.15	11.09
275.366	11.09
275.581	97.11
275.797	41.81
276.012	27.48
276.228	58.2
276.444	15.19
276.659	0.85
276.875	-52.39
277.09	15.19
277.306	-1.19
277.521	45.91
277.737	-9.39
277.952	47.96
278.168	-44.2
278.383	78.68
278.599	13.14
278.814	19.29
279.03	19.29
279.245	93.01
279.461	76.63
279.676	39.76
279.892	19.29
280.107	-19.63
280.322	-19.63
280.538	62.29
280.753	35.67
280.969	88.92
281.184	7
281.399	107.35
281.615	-15.53
281.83	68.44
282.045	-17.58
282.26	29.52
282.476	2.9
282.691	37.72
282.906	-15.53
283.122	-23.72
283.337	2.9
283.552	70.48
283.767	9.05
283.983	21.33
284.198	17.24
284.413	62.29
284.628	-1.19
284.843	39.76
285.058	-50.35
285.274	60.24
285.489	58.2
285.704	25.43
285.919	-27.82
286.134	56.15
286.349	27.48
286.564	-13.48
286.779	29.52
286.995	7
287.21	-21.67
287.425	7
287.64	0.85
287.855	35.67
288.07	-7.34
288.285	56.15
288.5	52.05
288.715	4.95
288.93	-11.43
289.145	17.24
289.36	25.43
289.575	35.67
289.79	72.53
290.004	54.1
290.219	56.15
290.434	41.81
290.649	-27.82
290.864	-15.53
291.079	-21.67
291.294	47.96
291.509	103.25
291.724	-3.24
291.938	43.86
292.153	15.19
292.368	56.15
292.583	25.43
292.798	101.2
293.012	-42.15
293.227	29.52
293.442	-40.11
293.657	13.14
293.871	35.67
294.086	70.48
294.301	84.82
294.516	25.43
294.73	4.95
294.945	-44.2
295.16	64.34
295.374	21.33
295.589	39.76
295.804	21.33
296.018	23.38
296.233	50
296.447	47.96
296.662	23.38
296.877	82.77
297.091	37.72
297.306	-15.53
297.52	-44.2
297.735	37.72
297.949	37.72
298.164	35.67
298.378	-3.24
298.593	47.96
298.807	35.67
299.022	-1.19
299.236	21.33
299.451	50
299.665	11.09
299.88	25.43
300.094	72.53
300.309	58.2
300.523	39.76
300.737	43.86
300.952	62.29
301.166	109.4
301.381	-27.82
301.595	-40.11
301.809	7
302.024	4.95
302.238	23.38
302.452	21.33
302.667	15.19
302.881	13.14
303.095	101.2
303.309	19.29
303.524	39.76
303.738	15.19
303.952	-46.25
304.166	19.29
304.381	-9.39
304.595	70.48
304.809	-31.91
305.023	2.9
305.237	47.96
305.452	-48.3
305.666	37.72
305.88	13.14
306.094	-29.87
306.308	72.53
306.522	15.19
306.736	58.2
306.95	43.86
307.164	13.14
307.379	-9.39
307.593	74.58
307.807	27.48
308.021	99.16
308.235	27.48
308.449	-3.24
308.663	-38.06
308.877	101.2
309.091	-17.58
309.305	74.58
309.519	-83.11
309.733	29.52
309.947	23.38
310.161	-23.72
310.374	-13.48
310.588	19.29
310.802	93.01
311.016	0.85
311.23	7
311.444	-46.25
311.658	64.34
311.872	39.76
312.085	109.4
312.299	54.1
312.513	11.09
312.727	0.85
312.941	13.14
313.154	78.68
313.368	11.09
313.582	7
313.796	72.53
314.009	0.85
314.223	84.82
314.437	29.52
314.651	-19.63
314.864	-1.19
315.078	84.82
315.292	23.38
315.505	-23.72
315.719	66.39
315.933	-44.2
316.146	39.76
316.36	58.2
316.573	7
316.787	-5.29
317.001	74.58
317.214	-81.07
317.428	56.15
317.641	19.29
317.855	47.96
318.068	-58.54
318.282	-7.34
318.495	72.53
318.709	41.81
318.922	7
319.136	68.44
319.349	27.48
319.563	33.62
319.776	56.15
319.99	-5.29
320.203	-27.82
320.417	2.9
320.63	-44.2
320.843	-1.19
321.057	50
321.27	-46.25
321.483	29.52
321.697	19.29
321.91	9.05
322.124	-1.19
322.337	80.72
322.55	39.76
322.763	13.14
322.977	76.63
323.19	-25.77
323.403	140.12
323.617	60.24
323.83	-3.24
324.043	-5.29
324.256	68.44
324.469	4.95
324.683	11.09
324.896	7
325.109	39.76
325.322	15.19
325.535	60.24
325.748	2.9
325.962	101.2
326.175	-9.39
326.388	21.33
326.601	43.86
326.814	25.43
327.027	19.29
327.24	7
327.453	21.33
327.666	23.38
327.879	133.97
328.092	9.05
328.305	72.53
328.518	23.38
328.731	-19.63
328.944	68.44
329.157	62.29
329.37	-66.73
329.583	0.85
329.796	78.68
330.009	-25.77
330.222	-15.53
330.435	60.24
330.648	23.38
330.861	-1.19
331.073	70.48
331.286	-1.19
331.499	39.76
331.712	15.19
331.925	19.29
332.138	41.81
332.35	11.09
332.563	4.95
332.776	21.33
332.989	-21.67
333.202	33.62
333.414	54.1
333.627	13.14
333.84	-1.19
334.053	64.34
334.265	2.9
334.478	33.62
334.691	11.09
334.903	-25.77
335.116	-58.54
335.329	60.24
335.541	45.91
335.754	62.29
335.966	68.44
336.179	80.72
336.392	29.52
336.604	50
336.817	4.95
337.029	19.29
337.242	45.91
337.454	58.2
337.667	-27.82
337.88	93.01
338.092	11.09
338.305	74.58
338.517	50
338.729	27.48
338.942	35.67
339.154	25.43
339.367	60.24
339.579	64.34
339.792	-42.15
340.004	56.15
340.217	2.9
340.429	78.68
340.641	39.76
340.854	15.19
341.066	-5.29
341.278	21.33
341.491	60.24
341.703	21.33
341.915	50
342.128	80.72
342.34	47.96
342.552	97.11
342.764	2.9
342.977	68.44
343.189	-11.43
343.401	-11.43
343.613	-11.43
343.826	29.52
344.038	2.9
344.25	90.96
344.462	-23.72
344.674	58.2
344.886	45.91
345.099	37.72
345.311	45.91
345.523	-40.11
345.735	-19.63
345.947	11.09
346.159	119.64
346.371	70.48
346.583	-33.96
346.795	93.01
347.007	-9.39
347.219	-60.59
347.431	-17.58
347.643	37.72
347.855	37.72
348.067	19.29
348.279	23.38
348.491	82.77
348.703	25.43
348.915	99.16
349.127	62.29
349.339	43.86
349.551	39.76
349.763	0.85
349.975	35.67
350.187	66.39
350.399	74.58
350.61	60.24
350.822	-25.77
351.034	58.2
351.246	19.29
351.458	-46.25
351.669	82.77
351.881	43.86
352.093	88.92
352.305	78.68
352.517	78.68
352.728	68.44
352.94	93.01
353.152	-13.48
353.363	76.63
353.575	41.81
353.787	45.91
353.999	82.77
354.21	101.2
354.422	13.14
354.633	-5.29
354.845	4.95
355.057	-3.24
355.268	2.9
355.48	-19.63
355.692	25.43
355.903	47.96
356.115	60.24
356.326	-44.2
356.538	-23.72
356.749	37.72
356.961	23.38
357.172	-19.63
357.384	54.1
357.595	62.29
357.807	15.19
358.018	-40.11
358.23	-27.82
358.441	47.96
358.653	-48.3
358.864	103.25
359.075	33.62
359.287	70.48
359.498	27.48
359.709	-25.77
359.921	2.9
360.132	70.48
360.344	41.81
360.555	19.29
360.766	43.86
360.977	45.91
361.189	84.82
361.4	-42.15
361.611	17.24
361.823	7
362.034	-7.34
362.245	54.1
362.456	25.43
362.667	31.57
362.879	19.29
363.09	17.24
363.301	19.29
363.512	-25.77
363.723	45.91
363.935	-29.87
364.146	88.92
364.357	-17.58
364.568	50
364.779	78.68
364.99	13.14
365.201	-11.43
365.412	43.86
365.623	19.29
365.834	72.53
366.045	-3.24
366.256	19.29
366.467	90.96
366.678	62.29
366.889	58.2
367.1	11.09
367.311	64.34
367.522	21.33
367.733	-11.43
367.944	23.38
368.155	-3.24
368.366	-9.39
368.577	4.95
368.788	119.64
368.999	-19.63
369.209	72.53
369.42	52.05
369.631	64.34
369.842	117.59
370.053	-21.67
370.264	-15.53
370.474	33.62
370.685	-17.58
370.896	45.91
371.107	31.57
371.317	68.44
371.528	-62.63
371.739	-19.63
371.95	99.16
372.16	56.15
372.371	4.95
372.582	27.48
372.792	97.11
373.003	76.63
373.214	93.01
373.424	47.96
373.635	39.76
373.846	66.39
374.056	9.05
374.267	84.82
374.477	60.24
374.688	33.62
374.898	99.16
375.109	13.14
375.319	-40.11
375.53	103.25
375.74	43.86
375.951	50
376.161	58.2
376.372	101.2
376.582	-29.87
376.793	43.86
377.003	52.05
377.214	19.29
377.424	17.24
377.635	41.81
377.845	7
378.055	88.92
378.266	-5.29
378.476	15.19
378.686	-38.06
378.897	9.05
379.107	107.35
379.317	23.38
379.528	35.67
379.738	64.34
379.948	56.15
380.158	-23.72
380.369	17.24
380.579	0.85
380.789	33.62
380.999	62.29
381.21	9.05
381.42	70.48
381.63	56.15
381.84	50
382.05	41.81
382.261	15.19
382.471	56.15
382.681	33.62
382.891	56.15
383.101	43.86
383.311	21.33
383.521	33.62
383.731	-15.53
383.941	50
384.151	-1.19
384.361	13.14
384.571	35.67
384.781	0.85
384.991	21.33
385.201	60.24
385.411	7
385.621	64.34
385.831	39.76
386.041	33.62
386.251	45.91
386.461	35.67
386.671	-1.19
386.881	70.48
387.091	37.72
387.301	70.48
387.511	52.05
387.72	19.29
387.93	84.82
388.14	-15.53
388.35	-21.67
388.56	-54.44
388.769	-9.39
388.979	31.57
389.189	19.29
389.399	11.09
389.609	31.57
389.818	64.34
390.028	21.33
390.238	52.05
390.447	33.62
390.657	78.68
390.867	-17.58
391.076	37.72
391.286	64.34
391.496	97.11
391.705	39.76
391.915	39.76
392.125	64.34
392.334	37.72
392.544	64.34
392.753	101.2
392.963	103.25
393.172	-5.29
393.382	111.44
393.591	125.78
393.801	56.15
394.01	47.96
394.22	97.11
394.429	13.14
394.639	39.76
394.848	2.9
395.058	-27.82
395.267	146.26
395.477	60.24
395.686	21.33
395.895	47.96
396.105	74.58
396.314	13.14
396.524	-19.63
396.733	11.09
396.942	60.24
397.152	70.48
397.361	29.52
397.57	95.06
397.78	29.52
397.989	68.44
398.198	41.81
398.407	58.2
398.617	19.29
398.826	2.9
399.035	19.29
399.244	74.58
399.453	60.24
399.663	90.96
399.872	64.34
400.081	19.29
400.29	70.48
400.499	35.67
400.708	60.24
400.917	47.96
401.127	21.33
401.336	11.09
401.545	50
401.754	93.01
401.963	115.54
402.172	41.81
402.381	31.57
402.59	52.05
402.799	97.11
403.008	62.29
403.217	66.39
403.426	64.34
403.635	56.15
403.844	7
404.053	74.58
404.262	-13.48
404.471	84.82
404.68	64.34
404.888	131.92
405.097	101.2
405.306	107.35
405.515	97.11
405.724	35.67
405.933	113.49
406.142	47.96
406.35	43.86
406.559	111.44
406.768	35.67
406.977	101.2
407.185	142.16
407.394	56.15
407.603	70.48
407.812	68.44
408.02	68.44
408.229	27.48
408.438	113.49
408.646	97.11
408.855	97.11
409.064	152.4
409.272	150.36
409.481	193.36
409.69	47.96
409.898	86.87
410.107	232.27
410.315	256.85
410.524	160.59
410.733	203.6
410.941	183.12
411.15	244.56
411.358	187.22
411.567	260.95
411.775	193.36
411.984	213.84
412.192	119.64
412.401	293.71
412.609	248.66
412.818	226.13
413.026	269.14
413.234	242.51
413.443	283.47
413.651	285.52
413.86	314.19
414.068	320.34
414.276	351.06
414.485	293.71
414.693	334.67
414.901	316.24
415.11	346.96
415.318	308.05
415.526	367.44
415.734	387.92
415.943	439.12
416.151	435.02
416.359	445.26
416.567	451.41
416.776	410.45
416.984	445.26
417.192	494.41
417.4	475.98
417.608	453.45
417.817	430.93
418.025	518.99
418.233	508.75
418.441	506.7
418.649	535.37
418.857	594.76
419.065	578.38
419.273	598.86
419.481	654.16
419.689	648.01
419.897	688.97
420.105	688.97
420.313	717.64
420.521	805.71
420.729	787.27
420.937	805.71
421.145	801.61
421.353	953.16
421.561	910.15
421.769	920.39
421.977	963.4
422.185	973.64
422.393	1043.27
422.601	1100.61
422.809	1096.52
423.017	1084.23
423.224	1045.32
423.432	1170.24
423.64	1231.68
423.848	1284.93
424.056	1194.82
424.263	1407.81
424.471	1334.08
424.679	1342.27
424.887	1446.72
425.094	1368.9
425.302	1387.33
425.51	1540.93
425.718	1563.45
425.925	1502.01
426.133	1592.13
426.341	1723.2
426.548	1903.42
426.756	1848.12
426.964	1839.93
427.171	1907.51
427.379	1895.22
427.586	2110.26
427.794	2138.93
428.001	2083.64
428.209	2231.09
428.417	2128.69
428.624	2392.88
428.832	2390.83
429.039	2376.5
429.247	2480.94
429.454	2630.45
429.662	2958.12
429.869	2609.97
430.076	2876.2
430.284	2685.74
430.491	2896.68
430.699	3105.57
430.906	3001.13
431.114	3081
431.321	3117.86
431.528	3167.01
431.736	3349.28
431.943	3597.09
432.15	3541.79
432.358	3599.13
432.565	3644.19
432.772	3756.83
432.979	3877.66
433.187	3906.33
433.394	4076.31
433.601	4262.68
433.808	4172.57
434.016	4209.43
434.223	4422.42
434.43	4688.65
434.637	4637.45
434.844	4766.48
435.052	4887.31
435.259	4965.13
435.466	5008.14
435.673	4977.42
435.88	5260.04
436.087	5489.41
436.294	5583.62
436.501	5288.71
436.708	5526.27
436.915	5786.37
437.122	6011.64
437.329	6019.83
437.537	6247.16
437.743	6324.98
437.95	6281.97
438.157	6503.15
438.364	6724.33
438.571	6681.33
438.778	6888.17
438.985	7416.55
439.192	7080.68
439.399	7363.3
439.606	7258.85
439.813	7656.16
440.02	8067.8
440.227	7809.76
440.433	7772.89
440.64	7998.17
440.847	8104.67
441.054	8252.12
441.261	8798.93
441.467	8645.33
441.674	8940.24
441.881	9282.25
442.088	9198.28
442.294	8968.91
442.501	9224.9
442.708	9523.91
442.914	9595.59
443.121	10316.47
443.328	10003.13
443.534	10660.53
443.741	10500.79
443.948	10345.14
444.154	11010.73
444.361	10865.33
444.568	11072.17
444.774	10928.81
444.981	11096.75
445.187	11561.64
445.394	12042.91
445.6	11696.8
445.807	12767.89
446.013	12282.52
446.22	12540.57
446.426	13073.04
446.633	13308.55
446.839	13736.58
447.046	12958.35
447.252	13916.8
447.459	14060.16
447.665	13695.62
447.871	14293.63
448.078	15094.38
448.284	14140.03
448.491	14666.36
448.697	15290.99
448.903	15475.31
449.11	15364.71
449.316	15049.33
449.522	15512.17
449.728	15876.71
449.935	16085.6
450.141	16147.04
450.347	16302.68
450.553	15772.26
450.76	16056.93
450.966	16583.26
451.172	16376.41
451.378	16931.41
451.584	16642.65
451.791	16616.02
451.997	16798.29
452.203	17099.34
452.409	17224.27
452.615	17068.62
452.821	16345.69
453.027	16026.21
453.233	16788.05
453.44	16142.94
453.646	16499.29
453.852	16626.26
454.058	16792.15
454.264	16298.59
454.47	16570.97
454.676	16345.69
454.882	16777.81
455.088	15432.3
455.294	15766.12
455.5	15747.69
455.705	16089.7
455.911	15243.88
456.117	15075.95
456.323	14725.75
456.529	14082.69
456.735	14789.24
456.941	14170.75
457.147	13924.99
457.352	13511.3
457.558	13392.52
457.764	13484.68
457.97	13423.24
458.176	12841.62
458.381	13187.72
458.587	12419.74
458.793	12329.63
458.999	11786.91
459.204	12509.85
459.41	12212.89
459.616	11496.1
459.821	11293.35
460.027	11463.33
460.233	11211.43
460.438	10562.23
460.644	10746.55
460.85	10339
461.055	10154.68
461.261	10037.95
461.466	9509.57
461.672	9151.18
461.878	9491.14
462.083	8970.96
462.289	8944.33
462.494	8981.2
462.7	8305.37
462.905	8084.19
463.111	8399.57
463.316	8540.88
463.522	8436.44
463.727	8641.23
463.932	8303.32
464.138	8407.77
464.343	8342.23
464.549	8045.27
464.754	8252.12
464.959	8182.49
465.165	8139.48
465.37	7836.38
465.575	7568.1
465.781	7940.83
465.986	7852.77
466.191	7772.89
466.397	7420.64
466.602	7279.33
466.807	7449.32
467.012	7412.45
467.218	7334.63
467.423	7281.38
467.628	7267.05
467.833	7613.15
468.038	7369.44
468.244	7070.44
468.449	7414.5
468.654	7258.85
468.859	7023.34
469.064	6867.69
469.269	6982.38
469.474	6884.08
469.679	6963.95
469.885	6781.68
470.09	6777.58
470.295	6908.65
470.5	6765.29
470.705	6531.83
470.91	6497.01
471.115	6632.18
471.32	6617.84
471.525	6583.02
471.73	6429.43
471.935	6376.18
472.139	6210.29
472.344	6253.3
472.549	6193.91
472.754	6263.54
472.959	5958.39
473.164	6040.31
473.369	5839.61
473.574	6044.41
473.778	5810.94
473.983	5978.87
474.188	5917.44
474.393	5438.21
474.598	5683.97
474.802	5534.46
475.007	5702.4
475.212	5516.03
475.417	5354.24
475.621	5321.48
475.826	5425.92
476.031	5294.85
476.235	5141.25
476.44	5266.18
476.645	5141.25
476.849	5251.85
477.054	4991.75
477.259	4889.35
477.463	5065.48
477.668	4840.2
477.872	4795.15
478.077	4879.11
478.282	4672.27
478.486	4743.95
478.691	4764.43
478.895	4692.75
479.1	4629.26
479.304	4594.45
479.509	4635.41
479.713	4643.6
479.918	4494.1
480.122	4498.19
480.326	4541.2
480.531	4440.85
480.735	4449.04
480.94	4494.1
481.144	4502.29
481.348	4436.75
481.553	4420.37
481.757	4293.4
481.961	4348.69
482.166	4332.31
482.37	4358.93
482.574	4201.24
482.778	4354.83
482.983	4401.94
483.187	4444.95
483.391	4449.04
483.595	4217.62
483.8	4238.1
484.004	4244.24
484.208	4250.39
484.412	4420.37
484.616	4277.01
484.821	4422.42
485.025	4252.44
485.229	4272.92
485.433	4287.25
485.637	4414.23
485.841	4264.72
486.045	4240.15
486.249	4279.06
486.453	4301.59
486.657	4283.16
486.861	4311.83
487.065	4211.48
487.269	4266.77
487.473	4217.62
487.677	4496.14
487.881	4381.46
488.085	4344.6
488.289	4254.48
488.493	4229.91
488.697	4270.87
488.901	4385.55
489.105	4309.78
489.309	4512.53
489.512	4387.6
489.716	4490
489.92	4401.94
490.124	4193.05
490.328	4457.23
490.531	4371.22
490.735	4526.86
490.939	4526.86
491.143	4483.86
491.346	4408.08
491.55	4590.35
491.754	4481.81
491.958	4754.19
492.161	4545.3
492.365	4692.75
492.569	4535.06
492.772	4668.17
492.976	4602.64
493.18	4567.82
493.383	4754.19
493.587	4655.89
493.79	4698.89
493.994	4746
494.197	4750.09
494.401	4815.63
494.605	4786.96
494.808	4899.59
495.012	4973.32
495.215	4852.49
495.419	4930.31
495.622	5038.86
495.825	5059.34
496.029	5081.86
496.232	5245.7
496.436	5100.3
496.639	5257.99
496.843	5253.89
497.046	5389.06
497.249	5311.24
497.453	5528.32
497.656	5450.5
497.859	5372.68
498.063	5600
498.266	5532.42
498.469	5856
498.673	5630.72
498.876	5774.08
499.079	5933.82
499.282	5868.28
499.485	6058.74
499.689	6085.37
499.892	6124.28
500.095	6025.98
500.298	6343.41
500.501	6109.94
500.705	6378.23
500.908	6265.59
501.111	6515.44
501.314	6613.74
501.517	6679.28
501.72	6845.16
501.923	6935.28
502.126	6832.88
502.329	7000.81
502.532	7125.74
502.735	7078.63
502.938	7250.66
503.141	7262.95
503.344	7310.05
503.547	7330.53
503.75	7529.19
503.953	7586.53
504.156	7625.44
504.359	7807.71
504.562	7742.18
504.765	7981.79
504.968	8116.95
505.17	8119
505.373	8250.07
505.576	8299.22
505.779	8362.71
505.982	8334.04
506.185	8571.6
506.387	8641.23
506.59	8661.71
506.793	8760.02
506.996	8936.14
507.198	9229
507.401	9061.07
507.604	9194.19
507.807	9306.82
508.009	9362.12
508.212	9458.37
508.415	9534.15
508.617	9802.43
508.82	9724.61
509.022	10052.28
509.225	9902.78
509.428	10158.78
509.63	10345.14
509.833	10369.72
510.035	10742.45
510.238	10349.24
510.44	10648.24
510.643	10721.97
510.845	10748.59
511.048	10916.53
511.25	11139.76
511.453	11207.34
511.655	11561.64
511.858	11627.17
512.06	11590.31
512.262	11737.76
512.465	11672.23
512.667	11821.73
512.87	11920.03
513.072	11930.27
513.274	12303
513.477	12397.21
513.679	12511.89
513.881	12528.28
514.084	12765.84
514.286	12817.04
514.488	12935.82
514.69	13271.69
514.893	13302.41
515.095	13531.78
515.297	13509.26
515.499	13281.93
515.701	13771.4
515.904	13810.31
516.106	13945.47
516.308	14015.1
516.51	14150.27
516.712	14328.44
516.914	14557.82
517.116	15037.04
517.318	14869.11
517.52	14807.67
517.722	14957.17
517.925	15370.86
518.127	15397.48
518.329	15454.83
518.531	15618.66
518.733	15817.32
518.935	16325.21
519.136	16071.26
519.338	16185.95
519.54	16433.75
519.742	16749.14
519.944	16605.78
520.146	16980.56
520.348	17060.43
520.55	17099.34
520.752	17336.91
520.954	17451.6
521.155	17633.86
521.357	17773.13
521.559	18004.55
521.761	18258.49
521.963	18467.39
522.164	18108.99
522.366	18346.56
522.568	18772.53
522.77	18711.1
522.971	19061.3
523.173	18741.82
523.375	19079.73
523.576	18942.52
523.778	18950.71
523.98	19423.79
524.181	19690.02
524.383	19702.31
524.584	20013.6
524.786	20134.43
524.988	20007.46
525.189	20251.17
525.391	20302.37
525.592	20685.34
525.794	20675.1
525.995	20965.91
526.197	20918.81
526.398	20879.89
526.6	20802.07
526.801	20865.56
527.003	21109.27
527.204	21465.61
527.406	21531.15
527.607	21692.94
527.808	21707.27
528.01	21455.37
528.211	21830.15
528.412	22055.43
528.614	21924.36
528.815	22237.7
529.016	22579.71
529.218	22073.86
529.419	22225.41
529.62	22321.66
529.822	22530.56
530.023	22436.35
530.224	22518.27
530.425	22471.17
530.626	22544.89
530.828	22446.59
531.029	22821.37
531.23	22833.66
531.431	22813.18
531.632	22811.13
531.833	23261.68
532.035	22938.1
532.236	23319.03
532.437	23214.58
532.638	22960.63
532.839	23736.81
533.04	23335.41
533.241	23173.62
533.442	23730.67
533.643	23319.03
533.844	23501.29
534.045	23382.51
534.246	22925.82
534.447	23517.68
534.648	23269.87
534.849	23249.39
535.05	23499.25
535.251	23226.87
535.451	23413.23
535.652	23577.07
535.853	23620.08
536.054	23329.27
536.255	23560.69
536.456	23480.82
536.657	23865.83
536.857	23785.96
537.058	23368.18
537.259	23650.8
537.46	23437.81
537.66	23536.11
537.861	23781.87
538.062	23622.12
538.263	23788.01
538.463	23695.85
538.664	23695.85
538.865	23679.47
539.065	24037.86
539.266	23480.82
539.466	24062.44
539.667	23665.13
539.868	24205.8
540.068	23751.15
540.269	23450.1
540.469	23839.21
540.67	23835.11
540.87	23824.87
541.071	23923.18
541.271	23796.2
541.472	23470.58
541.672	23615.98
541.873	23376.37
542.073	23548.4
542.274	23691.76
542.474	23665.13
542.675	23613.93
542.875	23988.71
543.075	23615.98
543.276	23372.27
543.476	23968.23
543.676	23691.76
543.877	23658.99
544.077	23847.4
544.277	23564.78
544.478	23767.53
544.678	23683.56
544.878	23794.15
545.078	23718.38
545.279	23687.66
545.479	23658.99
545.679	23720.43
545.879	23841.26
546.079	23900.65
546.28	23648.75
546.48	23605.74
546.68	23892.46
546.88	23808.49
547.08	23532.01
547.28	23618.03
547.48	23824.87
547.68	23636.46
547.88	23562.73
548.081	23538.16
548.281	23871.98
548.481	23491.05
548.681	23710.19
548.881	23865.83
549.081	23628.27
549.28	23470.58
549.48	23704.04
549.68	23466.48
549.88	23878.12
550.08	23583.21
550.28	23681.52
550.48	23548.4
550.68	23833.07
550.88	23439.86
551.08	23542.25
551.279	23364.08
551.479	23417.33
551.679	23316.98
551.879	23495.15
552.079	23757.29
552.278	23509.49
552.478	23675.37
552.678	23681.52
552.878	23724.52
553.077	23441.9
553.277	23482.86
553.477	23536.11
553.676	23785.96
553.876	23593.45
554.076	23171.57
554.275	23216.63
554.475	23157.24
554.674	23632.36
554.874	23204.34
555.074	23241.2
555.273	23202.29
555.473	23335.41
555.672	23157.24
555.872	23204.34
556.071	23509.49
556.271	23263.73
556.47	23015.93
556.67	22970.87
556.869	23136.76
557.068	22999.54
557.268	22688.25
557.467	22989.3
557.667	23044.6
557.866	22891
558.065	22872.57
558.265	22827.51
558.464	22727.16
558.663	22950.39
558.863	22436.35
559.062	22864.38
559.261	22538.75
559.461	22966.77
559.66	22315.52
559.859	22653.44
560.058	22387.2
560.258	22436.35
560.457	22346.24
560.656	22598.14
560.855	22307.33
561.054	22307.33
561.253	22387.2
561.453	22200.83
561.652	22153.73
561.851	22221.31
562.05	22276.61
562.249	21901.83
562.448	21776.91
562.647	22127.11
562.846	21830.15
563.045	21860.87
563.244	21795.34
563.443	21938.69
563.642	21506.57
563.841	21561.87
564.04	21654.03
564.239	21809.67
564.438	21391.89
564.637	21551.63
564.836	21502.48
565.035	21314.06
565.234	21420.56
565.432	21234.19
565.631	21385.74
565.83	21185.04
566.029	20677.15
566.228	20683.29
566.427	21191.19
566.625	20771.35
566.824	20603.42
567.023	20820.5
567.222	20292.13
567.42	20867.61
567.619	20830.74
567.818	20439.58
568.016	20482.59
568.215	20773.4
568.414	20269.6
568.612	20931.09
568.811	20328.99
569.01	20116
569.208	20191.78
569.407	20187.68
569.605	19993.12
569.804	20064.8
570.002	19898.92
570.201	20212.26
570.4	19558.95
570.598	19440.17
570.797	19638.83
570.995	19409.45
571.193	19421.74
571.392	19542.57
571.59	19358.25
571.789	19184.18
571.987	19354.16
572.186	19302.96
572.384	19110.45
572.582	19006
572.781	19366.45
572.979	18848.31
573.177	18793.01
573.376	18952.76
573.574	18707
573.772	18717.24
573.971	18643.51
574.169	18633.27
574.367	18580.03
574.565	18473.53
574.763	18557.5
574.962	18403.9
575.16	18119.23
575.358	18522.68
575.556	18203.2
575.754	18448.96
575.952	18225.73
576.151	18178.62
576.349	18074.18
576.547	17867.33
576.745	18010.69
576.943	18033.22
577.141	17928.77
577.339	17670.73
577.537	17412.68
577.735	17787.46
577.933	17586.76
578.131	17586.76
578.329	17463.88
578.527	17211.98
578.725	17459.79
578.923	17283.66
579.121	17199.69
579.319	17177.17
579.516	17318.48
579.714	17320.53
579.912	17334.86
580.11	17140.3
580.308	16968.27
580.506	16976.47
580.704	16734.81
580.901	16994.9
581.099	16931.41
581.297	16435.8
581.495	16708.18
581.692	16816.72
581.89	16476.76
582.088	16593.5
582.285	16325.21
582.483	16605.78
582.681	16714.33
582.878	16487
583.076	16144.99
583.274	16327.26
583.471	16030.3
583.669	16069.22
583.866	15997.54
584.064	16323.16
584.262	16013.92
584.459	16323.16
584.657	15723.11
584.854	15987.3
585.052	15637.09
585.249	15778.4
585.447	15704.68
585.644	15702.63
585.841	15747.69
586.039	15805.03
586.236	15569.51
586.434	15624.81
586.631	15518.31
586.828	15491.69
587.026	15573.61
587.223	15512.17
587.42	15534.7
587.618	15352.43
587.815	14930.55
588.012	15067.76
588.21	15178.35
588.407	15225.45
588.604	15053.42
588.801	14813.81
588.999	14910.07
589.196	15102.57
589.393	14996.08
589.59	14936.69
589.787	15016.56
589.984	14656.12
590.182	14625.4
590.379	14695.03
590.576	14600.82
590.773	14563.96
590.97	14795.38
591.167	14477.94
591.364	14170.75
591.561	14557.82
591.758	14242.43
591.955	14387.83
592.152	14422.65
592.349	14195.32
592.546	14406.27
592.743	14211.71
592.94	14060.16
593.137	14025.34
593.334	14062.21
593.531	14006.91
593.727	13976.19
593.924	14015.1
594.121	13640.33
594.318	14004.86
594.515	13826.69
594.712	13871.75
594.908	13646.47
595.105	13834.88
595.302	13683.33
595.499	13722.24
595.696	13582.98
595.892	13384.33
596.089	13476.49
596.286	13441.67
596.482	13316.75
596.679	13413
596.876	13496.97
597.072	13353.61
597.269	13417.1
597.466	13277.83
597.662	13075.09
597.859	13003.41
598.055	12958.35
598.252	12962.45
598.448	13122.19
598.645	12970.64
598.841	12843.67
599.038	13036.17
599.234	12814.99
599.431	12855.95
599.627	12585.62
599.824	12640.92
600.02	12798.61
600.217	12515.99
600.413	12595.86
600.609	12593.81
600.806	12483.22
601.002	12614.29
601.198	12399.26
601.395	12540.57
601.591	12257.95
601.787	12481.17
601.984	11999.9
602.18	12448.41
602.376	12044.96
602.572	11969.18
602.769	12022.43
602.965	12167.84
603.161	12026.53
603.357	12249.75
603.553	11963.04
603.75	11969.18
603.946	11842.21
604.142	12128.92
604.338	11762.34
604.534	11917.98
604.73	11713.19
604.926	11846.3
605.122	11735.71
605.318	11776.67
605.514	11541.16
605.71	11555.49
605.906	11704.99
606.102	11555.49
606.298	11578.02
606.494	11430.57
606.69	11526.82
606.886	11528.87
607.082	11240.11
607.278	11516.58
607.474	11281.07
607.67	11233.96
607.866	11283.11
608.062	11365.03
608.257	11176.62
608.453	11215.53
608.649	11213.48
608.845	10971.82
609.041	11180.71
609.236	11322.02
609.432	11102.89
609.628	10961.58
609.824	10924.72
610.019	10801.84
610.215	11070.12
610.411	11020.97
610.606	11008.69
610.802	11090.6
610.998	11045.55
611.193	11055.79
611.389	10916.53
611.584	10709.68
611.78	10793.65
611.976	10705.59
612.171	10599.09
612.367	10658.48
612.562	10683.06
612.758	10496.69
612.953	10437.3
613.149	10672.82
613.344	10521.27
613.539	10767.03
613.735	10603.19
613.93	10232.51
614.126	10398.39
614.321	10470.07
614.517	10465.97
614.712	10523.32
614.907	10531.51
615.103	10455.73
615.298	10328.76
615.493	10330.81
615.688	10189.5
615.884	10404.53
616.079	10287.8
616.274	10218.17
616.47	10521.27
616.665	10138.3
616.86	10312.38
617.055	10359.48
617.25	10117.82
617.445	10222.27
617.641	10171.07
617.836	10148.54
618.031	9970.37
618.226	9937.6
618.421	10083
618.616	9896.64
618.811	10025.66
619.006	10007.23
619.201	9853.63
619.396	9990.84
619.591	9622.21
619.786	10029.76
619.981	9542.34
620.176	9562.82
620.371	9695.94
620.566	9589.44
620.761	9687.75
620.956	9716.42
621.151	9441.99
621.346	9366.21
621.541	9294.54
621.735	9411.27
621.93	9251.53
622.125	9317.06
622.32	8966.86
622.515	9026.25
622.709	8956.62
622.904	9114.31
623.099	9061.07
623.294	9065.16
623.488	9059.02
623.683	9075.4
623.878	8858.32
624.072	8927.95
624.267	8663.76
624.462	8745.68
624.656	8647.38
624.851	8526.55
625.046	8536.79
625.24	8585.94
625.435	8375
625.629	8542.93
625.824	8465.11
626.018	8360.66
626.213	8399.57
626.407	8317.65
626.602	8170.2
626.796	8436.44
626.991	8305.37
627.185	8129.24
627.38	8202.97
627.574	7951.07
627.768	8041.18
627.963	7969.5
628.157	7910.11
628.352	8041.18
628.546	7713.5
628.74	7936.73
628.935	7783.13
629.129	7774.94
629.323	7670.5
629.517	7471.84
629.712	7525.09
629.906	7701.22
630.1	7381.73
630.294	7535.33
630.489	7418.6
630.683	7529.19
630.877	7383.78
631.071	7262.95
631.265	7396.07
631.459	7334.63
631.653	7183.08
631.848	7191.27
632.042	7219.94
632.236	7123.69
632.43	7230.18
632.624	7092.97
632.818	7084.78
633.012	7039.72
633.206	7009
633.4	6802.16
633.594	6808.3
633.788	6705.9
633.982	6898.41
634.176	6804.21
634.369	6738.67
634.563	6619.89
634.757	6630.13
634.951	6701.81
635.145	6783.73
635.339	6619.89
635.533	6572.79
635.726	6441.72
635.92	6441.72
636.114	6480.63
636.308	6343.41
636.501	6423.28
636.695	6449.91
636.889	6396.66
637.083	6441.72
637.276	6120.18
637.47	6308.6
637.664	6200.05
637.857	6169.34
638.051	6150.9
638.244	5987.07
638.438	6060.79
638.632	5964.54
638.825	5952.25
639.019	5935.87
639.212	5774.08
639.406	5878.52
639.599	5866.24
639.793	5729.02
639.986	5751.55
640.18	5749.5
640.373	5786.37
640.567	5802.75
640.76	5663.49
640.954	5579.52
641.147	5532.42
641.34	5618.43
641.534	5546.75
641.727	5495.55
641.92	5583.62
642.114	5448.45
642.307	5448.45
642.5	5509.89
642.694	5323.52
642.887	5436.16
643.08	5378.82
643.273	5241.61
643.467	5298.95
643.66	5167.88
643.853	5204.74
644.046	5180.17
644.239	5171.97
644.432	5147.4
644.626	5196.55
644.819	5118.73
645.012	5057.29
645.205	4883.21
645.398	4954.89
645.591	4989.71
645.784	5022.47
645.977	4858.64
646.17	4997.9
646.363	4858.64
646.556	4659.98
646.749	4832.01
646.942	4844.3
647.135	4690.7
647.328	4709.13
647.521	4662.03
647.714	4598.54
647.907	4619.02
648.099	4662.03
648.292	4674.32
648.485	4461.33
648.678	4455.19
648.871	4514.58
649.064	4367.12
649.256	4506.38
649.449	4342.55
649.642	4375.31
649.835	4266.77
650.027	4395.79
650.22	4389.65
650.413	4326.16
650.605	4264.72
650.798	4360.98
650.991	4229.91
651.183	4307.73
651.376	4188.95
651.568	4156.18
651.761	4107.03
651.954	4256.53
652.146	4248.34
652.339	4248.34
652.531	4070.17
652.724	4205.33
652.916	3959.58
653.109	4045.59
653.301	4047.64
653.494	4107.03
653.686	3994.39
653.879	4021.02
654.071	3922.71
654.263	3971.86
654.456	3801.88
654.648	3937.05
654.84	3984.15
655.033	3814.17
655.225	3789.6
655.417	3762.97
655.61	3775.26
655.802	3859.23
655.994	3738.4
656.186	3683.1
656.379	3756.83
656.571	3742.49
656.763	3713.82
656.955	3636
657.148	3785.5
657.34	3674.91
657.532	3564.32
657.724	3683.1
657.916	3578.65
658.108	3552.03
658.3	3584.8
658.492	3529.5
658.684	3541.79
658.876	3511.07
659.068	3463.97
659.26	3404.58
659.452	3377.95
659.644	3396.39
659.836	3476.26
660.028	3420.96
660.22	3296.04
660.412	3443.49
660.604	3253.03
660.796	3330.85
660.988	3289.89
661.18	3218.21
661.372	3302.18
661.563	3431.2
661.755	3230.5
661.947	3244.84
662.139	3081
662.331	3386.15
662.522	3220.26
662.714	3148.58
662.906	3003.18
663.097	3183.4
663.289	2992.94
663.481	3111.72
663.673	3138.34
663.864	3009.32
664.056	3124.01
664.247	3037.99
664.439	3103.53
664.631	3062.57
664.822	3101.48
665.014	2968.36
665.205	2988.84
665.397	3001.13
665.588	3011.37
665.78	2941.74
665.971	2915.11
666.163	2863.91
666.354	2894.63
666.546	2894.63
666.737	2865.96
666.929	2880.3
667.12	2859.82
667.311	2886.44
667.503	2798.38
667.694	2925.35
667.885	2816.81
668.077	2812.71
668.268	2720.56
668.459	2816.81
668.651	2702.12
668.842	2814.76
669.033	2751.28
669.224	2566.96
669.416	2755.37
669.607	2673.45
669.798	2665.26
669.989	2728.75
670.18	2765.61
670.371	2638.64
670.563	2630.45
670.754	2747.18
670.945	2714.41
671.136	2669.36
671.327	2677.55
671.518	2726.7
671.709	2595.63
671.9	2601.77
672.091	2478.9
672.282	2546.48
672.473	2536.24
672.664	2509.62
672.855	2558.77
673.046	2689.84
673.237	2718.51
673.428	2544.43
673.619	2507.57
673.809	2634.54
674	2532.14
674.191	2540.33
674.382	2603.82
674.573	2579.25
674.764	2493.23
674.954	2718.51
675.145	2478.9
675.336	2521.9
675.527	2376.5
675.717	2399.02
675.908	2482.99
676.099	2415.41
676.289	2474.8
676.48	2501.42
676.671	2515.76
676.861	2411.31
677.052	2423.6
677.243	2419.5
677.433	2587.44
677.624	2538.29
677.814	2499.38
678.005	2417.46
678.195	2427.7
678.386	2429.74
678.576	2427.7
678.767	2409.26
678.957	2495.28
679.148	2472.75
679.338	2448.18
679.529	2437.94
679.719	2394.93
679.909	2407.22
680.1	2413.36
680.29	2390.83
680.481	2376.5
680.671	2304.82
680.861	2429.74
681.052	2333.49
681.242	2247.48
681.432	2478.9
681.622	2454.32
681.813	2372.4
682.003	2325.3
682.193	2272.05
682.383	2319.15
682.573	2415.41
682.764	2374.45
682.954	2376.5
683.144	2439.98
683.334	2421.55
683.524	2396.98
683.714	2409.26
683.904	2356.02
684.094	2456.37
684.284	2329.39
684.474	2384.69
684.664	2339.63
684.854	2386.74
685.044	2345.78
685.234	2366.26
685.424	2329.39
685.614	2245.43
685.804	2313.01
685.994	2476.85
686.184	2403.12
686.374	2370.35
686.564	2263.86
686.753	2177.84
686.943	2138.93
687.133	2321.2
687.323	2390.83
687.513	2222.9
687.702	2337.59
687.892	2210.61
688.082	2317.11
688.272	2270
688.461	2218.8
688.651	2210.61
688.841	2204.47
689.03	2188.08
689.22	2194.23
689.41	2128.69
689.599	2212.66
689.789	2188.08
689.979	2253.62
690.168	2089.78
690.358	2179.89
690.547	2079.54
690.737	2132.79
690.926	2077.49
691.116	2175.8
691.305	2126.64
691.495	2114.36
691.684	2145.08
691.874	2095.93
692.063	2020.15
692.252	2079.54
692.442	2061.11
692.631	2011.96
692.82	2009.91
693.01	1925.94
693.199	2032.44
693.388	1987.38
693.578	1948.47
693.767	2014.01
693.956	2009.91
694.146	2005.81
694.335	1870.65
694.524	2104.12
694.713	1954.62
694.902	1942.33
695.092	1960.76
695.281	2009.91
695.47	1962.81
695.659	1946.42
695.848	1956.66
696.037	1874.74
696.226	1930.04
696.415	1897.27
696.604	1964.86
696.793	1866.55
696.982	1934.14
697.171	1983.29
697.36	1938.23
697.549	1862.46
697.738	2016.05
697.927	1923.9
698.116	1983.29
698.305	1954.62
698.494	1977.14
698.683	1958.71
698.872	1942.33
699.061	1919.8
699.25	1907.51
699.438	2032.44
699.627	1946.42
699.816	1981.24
700.005	1964.86
700.193	1901.37
700.382	1917.75
700.571	1790.78
700.76	1925.94
700.948	1911.61
701.137	1950.52
701.326	1913.66
701.514	1997.62
701.703	1884.98
701.892	1968.95
702.08	1975.1
702.269	1927.99
702.457	1948.47
702.646	2040.63
702.834	1962.81
703.023	1934.14
703.212	1971
703.4	2079.54
703.589	1893.18
703.777	1977.14
703.965	2054.97
704.154	1850.17
704.342	1909.56
704.531	1915.7
704.719	1944.38
704.907	1899.32
705.096	1954.62
705.284	1981.24
705.472	1934.14
705.661	1997.62
705.849	2016.05
706.037	2054.97
706.226	1985.34
706.414	2042.68
706.602	1950.52
706.79	1901.37
706.979	1989.43
707.167	2018.1
707.355	1940.28
707.543	1866.55
707.731	1930.04
707.919	1997.62
708.107	2016.05
708.296	1948.47
708.484	1913.66
708.672	1962.81
708.86	1952.57
709.048	1895.22
709.236	1872.7
709.424	2018.1
709.612	1942.33
709.8	1942.33
709.988	2050.87
710.176	1958.71
710.364	1927.99
710.551	2038.58
710.739	1997.62
710.927	1930.04
711.115	1923.9
711.303	2102.07
711.491	2065.21
711.679	2014.01
711.866	2014.01
712.054	2196.28
712.242	2020.15
712.43	1989.43
712.617	1983.29
712.805	1950.52
712.993	2040.63
713.181	1903.42
713.368	2022.2
713.556	1991.48
713.744	1979.19
713.931	1985.34
714.119	1975.1
714.306	1960.76
714.494	1991.48
714.682	1915.7
714.869	2016.05
715.057	1989.43
715.244	2003.77
715.432	1973.05
715.619	2085.69
715.807	2087.73
715.994	1944.38
716.182	1917.75
716.369	1958.71
716.556	2067.25
716.744	1989.43
716.931	2016.05
717.119	1956.66
717.306	2030.39
717.493	1893.18
717.681	1999.67
717.868	2054.97
718.055	2059.06
718.242	2046.77
718.43	2011.96
718.617	1905.46
718.804	2007.86
718.991	2026.29
719.179	2093.88
719.366	2036.53
719.553	2034.49
719.74	1901.37
719.927	1999.67
720.114	2075.45
720.301	2052.92
720.488	2063.16
720.676	1932.09
720.863	2016.05
721.05	1995.57
721.237	1966.9
721.424	2044.73
721.611	1936.18
721.798	1956.66
721.985	1956.66
722.172	2016.05
722.358	2014.01
722.545	2116.41
722.732	1952.57
722.919	1989.43
723.106	2036.53
723.293	1932.09
723.48	2022.2
723.667	2001.72
723.853	1999.67
724.04	2108.21
724.227	1915.7
724.414	2054.97
724.6	1964.86
724.787	2054.97
724.974	1987.38
725.161	2032.44
725.347	1956.66
725.534	2007.86
725.72	1954.62
725.907	2040.63
726.094	2085.69
726.28	2067.25
726.467	2052.92
726.653	1966.9
726.84	1925.94
727.027	2050.87
727.213	1938.23
727.4	2018.1
727.586	2050.87
727.773	1973.05
727.959	2005.81
728.145	1952.57
728.332	2073.4
728.518	2112.31
728.705	1962.81
728.891	1993.53
729.077	1956.66
729.264	1985.34
729.45	2028.34
729.636	2218.8
729.823	1995.57
730.009	1973.05
730.195	2050.87
730.382	2063.16
730.568	1987.38
730.754	2036.53
730.94	1999.67
731.126	2114.36
731.313	2009.91
731.499	2067.25
731.685	2052.92
731.871	1993.53
732.057	2083.64
732.243	1995.57
732.429	1968.95
732.615	2026.29
732.801	2005.81
732.987	2038.58
733.173	2028.34
733.359	1956.66
733.545	2069.3
733.731	2032.44
733.917	1987.38
734.103	2054.97
734.289	1942.33
734.475	1981.24
734.661	1968.95
734.847	1981.24
735.033	1987.38
735.219	2007.86
735.404	2077.49
735.59	1993.53
735.776	2075.45
735.962	2061.11
736.148	2024.25
736.333	2007.86
736.519	2026.29
736.705	2014.01
736.89	2024.25
737.076	1971
737.262	1889.08
737.447	1993.53
737.633	1903.42
737.819	1985.34
738.004	1925.94
738.19	1987.38
738.375	1938.23
738.561	2007.86
738.747	1962.81
738.932	1944.38
739.118	1948.47
739.303	1915.7
739.489	2022.2
739.674	1827.64
739.859	1876.79
740.045	1839.93
740.23	1946.42
740.416	1848.12
740.601	1895.22
740.786	2018.1
740.972	1837.88
741.157	1884.98
741.342	1882.94
741.528	1852.22
741.713	1878.84
741.898	1930.04
742.084	1905.46
742.269	1854.27
742.454	1807.16
742.639	1844.03
742.824	1825.59
743.01	1813.31
743.195	1897.27
743.38	1805.11
743.565	1809.21
743.75	1891.13
743.935	1788.73
744.12	1971
744.305	1764.15
744.49	1817.4
744.675	1674.04
744.86	1741.63
745.045	1837.88
745.23	1905.46
745.415	1657.66
745.6	1782.59
745.785	1760.06
745.97	1751.87
746.155	1659.71
746.34	1692.48
746.525	1686.33
746.71	1733.43
746.895	1655.61
747.079	1669.95
747.264	1686.33
747.449	1762.11
747.634	1622.84
747.819	1643.32
748.003	1538.88
748.188	1643.32
748.373	1561.41
748.557	1592.13
748.742	1577.79
748.927	1594.17
749.111	1602.36
749.296	1495.87
749.481	1575.74
749.665	1569.6
749.85	1534.78
750.034	1528.64
750.219	1674.04
750.404	1514.3
750.588	1502.01
750.773	1407.81
750.957	1545.02
751.141	1397.57
751.326	1477.44
751.51	1454.91
751.695	1399.62
751.879	1499.97
752.064	1534.78
752.248	1387.33
752.432	1375.04
752.617	1389.38
752.801	1448.77
752.985	1375.04
753.17	1323.84
753.354	1329.99
753.538	1327.94
753.722	1286.98
753.907	1327.94
754.091	1178.44
754.275	1340.22
754.459	1276.74
754.643	1350.46
754.828	1252.16
755.012	1246.02
755.196	1209.15
755.38	1211.2
755.564	1311.55
755.748	1172.29
755.932	1262.4
756.116	1256.26
756.3	1200.96
756.484	1231.68
756.668	1217.35
756.852	1143.62
757.036	1160
757.22	1160
757.404	1102.66
757.588	1168.2
757.772	1061.7
757.956	1086.28
758.14	1260.35
758.323	1088.32
758.507	1108.8
758.691	1119.04
758.875	1121.09
759.059	1104.71
759.242	1137.48
759.426	1004.36
759.61	1092.42
759.794	1076.04
759.977	1084.23
760.161	1125.19
760.345	1098.56
760.528	1100.61
760.712	1039.17
760.895	1057.61
761.079	1055.56
761.263	1035.08
761.446	977.73
761.63	994.12
761.813	1026.89
761.997	1051.46
762.18	998.21
762.364	932.68
762.547	1020.74
762.731	944.97
762.914	994.12
763.098	938.82
763.281	965.45
763.464	951.11
763.648	899.91
763.831	863.05
764.015	834.38
764.198	926.54
764.381	965.45
764.564	891.72
764.748	865.1
764.931	992.07
765.114	863.05
765.297	994.12
765.481	901.96
765.664	867.14
765.847	947.01
766.03	953.16
766.213	924.49
766.397	836.42
766.58	850.76
766.763	887.62
766.946	904.01
767.129	914.25
767.312	879.43
767.495	861
767.678	822.09
767.861	834.38
768.044	772.94
768.227	924.49
768.41	793.42
768.593	795.47
768.776	869.19
768.959	842.57
769.142	879.43
769.324	834.38
769.507	682.83
769.69	899.91
769.873	811.85
770.056	817.99
770.239	803.66
770.421	803.66
770.604	801.61
770.787	772.94
770.97	734.03
771.152	750.41
771.335	813.9
771.518	766.79
771.7	836.42
771.883	783.18
772.066	795.47
772.248	744.27
772.431	627.53
772.613	643.92
772.796	721.74
772.978	695.11
773.161	783.18
773.343	744.27
773.526	754.51
773.708	715.59
773.891	688.97
774.073	625.48
774.256	686.92
774.438	727.88
774.621	658.25
774.803	703.31
774.985	711.5
775.168	658.25
775.35	740.17
775.532	617.29
775.715	592.72
775.897	662.35
776.079	609.1
776.261	691.02
776.444	621.39
776.626	674.64
776.808	600.91
776.99	625.48
777.173	592.72
777.355	641.87
777.537	670.54
777.719	609.1
777.901	639.82
778.083	578.38
778.265	535.37
778.447	627.53
778.629	527.18
778.811	625.48
778.993	545.61
779.175	674.64
779.357	568.14
779.539	547.66
779.721	541.52
779.903	582.48
780.085	498.51
780.267	510.8
780.449	541.52
780.631	537.42
780.812	508.75
780.994	535.37
781.176	492.37
781.358	500.56
781.54	549.71
781.721	531.28
781.903	508.75
782.085	375.63
782.267	533.33
782.448	404.3
782.63	521.04
782.812	492.37
782.993	471.89
783.175	465.74
783.357	369.49
783.538	469.84
783.72	535.37
783.901	551.76
784.083	453.45
784.264	441.17
784.446	410.45
784.627	326.48
784.809	402.26
784.99	428.88
785.172	478.03
785.353	392.02
785.535	461.65
785.716	420.69
785.897	437.07
786.079	437.07
786.26	383.82
786.441	459.6
786.623	410.45
786.804	226.13
786.985	373.58
787.167	404.3
787.348	381.78
787.529	369.49
787.71	392.02
787.891	430.93
788.073	396.11
788.254	346.96
788.435	426.83
788.616	379.73
788.797	387.92
788.978	342.86
789.159	375.63
789.34	475.98
789.522	289.62
789.703	349.01
789.884	269.14
790.065	336.72
790.246	379.73
790.427	338.77
790.607	322.38
790.788	377.68
790.969	281.43
791.15	332.62
791.331	291.66
791.512	262.99
791.693	344.91
791.874	277.33
792.054	336.72
792.235	318.29
792.416	310.1
792.597	293.71
792.778	306
792.958	318.29
793.139	312.14
793.32	293.71
793.5	244.56
793.681	377.68
793.862	269.14
794.042	295.76
794.223	283.47
794.404	232.27
794.584	265.04
794.765	254.8
794.945	258.9
795.126	265.04
795.306	242.51
795.487	289.62
795.667	185.17
795.848	203.6
796.028	267.09
796.209	262.99
796.389	271.19
796.57	250.71
796.75	258.9
796.93	217.94
797.111	242.51
797.291	201.55
797.471	281.43
797.652	269.14
797.832	232.27
798.012	330.58
798.192	271.19
798.373	236.37
798.553	287.57
798.733	215.89
798.913	170.83
799.093	224.08
799.274	201.55
799.454	205.65
799.634	267.09
799.814	168.79
799.994	265.04
800.174	310.1
800.354	183.12
800.534	213.84
800.714	211.79
800.894	152.4
801.074	219.99
801.254	191.31
801.434	222.03
801.614	140.12
801.794	238.42
801.974	562
802.154	170.83
802.334	295.76
802.514	209.75
802.693	199.51
802.873	136.02
803.053	238.42
803.233	164.69
803.413	179.03
803.592	164.69
803.772	197.46
803.952	113.49
804.131	195.41
804.311	252.75
804.491	148.31
804.67	123.73
804.85	183.12
805.03	207.7
805.209	279.38
805.389	166.74
805.568	228.18
805.748	111.44
805.928	162.64
806.107	146.26
806.287	181.07
806.466	195.41
806.646	275.28
806.825	179.03
807.004	146.26
807.184	133.97
807.363	191.31
807.543	219.99
807.722	211.79
807.901	199.51
808.081	267.09
808.26	207.7
808.439	193.36
808.619	127.83
808.798	93.01
808.977	136.02
809.156	222.03
809.336	156.5
809.515	195.41
809.694	80.72
809.873	234.32
810.052	158.55
810.231	154.45
810.411	156.5
810.59	95.06
810.769	160.59
810.948	166.74
811.127	144.21
811.306	164.69
811.485	113.49
811.664	150.36
811.843	131.92
812.022	197.46
812.201	86.87
812.38	109.4
812.559	105.3
812.737	234.32
812.916	101.2
813.095	156.5
813.274	164.69
813.453	215.89
813.632	113.49
813.811	121.68
813.989	115.54
814.168	160.59
814.347	174.93
814.526	111.44
814.704	113.49
814.883	176.98
815.062	152.4
815.24	107.35
815.419	68.44
815.598	160.59
815.776	72.53
815.955	174.93
816.133	64.34
816.312	138.07
816.49	158.55
816.669	129.88
816.847	142.16
817.026	113.49
817.204	95.06
817.383	119.64
817.561	148.31
817.74	127.83
817.918	131.92
818.097	148.31
818.275	164.69
818.453	150.36
818.632	86.87
818.81	119.64
818.988	133.97
819.167	88.92
819.345	88.92
819.523	148.31
819.701	121.68
819.879	117.59
820.058	50
820.236	205.65
820.414	90.96
820.592	41.81
820.77	119.64
820.948	115.54
821.127	80.72
821.305	121.68
821.483	162.64
821.661	174.93
821.839	54.1
822.017	109.4
822.195	88.92
822.373	144.21
822.551	131.92
822.729	109.4
822.907	45.91
823.085	119.64
823.262	133.97
823.44	103.25
823.618	31.57
823.796	76.63
823.974	80.72
824.152	31.57
824.329	111.44
824.507	166.74
824.685	123.73
824.863	78.68
825.04	45.91
825.218	82.77
825.396	74.58
825.574	72.53
825.751	97.11
825.929	107.35
826.107	74.58
826.284	121.68
826.462	109.4
826.639	60.24
826.817	41.81
826.994	82.77
827.172	127.83
827.349	158.55
827.527	146.26
827.704	115.54
827.882	152.4
828.059	140.12
828.237	111.44
828.414	107.35
828.591	64.34
828.769	68.44
828.946	76.63
829.124	76.63
829.301	82.77
829.478	60.24
829.655	101.2
829.833	66.39
830.01	23.38
830.187	52.05
830.364	2.9
830.542	58.2
830.719	86.87
830.896	70.48
831.073	125.78
831.25	138.07
831.427	56.15
831.604	119.64
831.782	105.3
831.959	109.4
832.136	60.24
832.313	136.02
832.49	33.62
832.667	-11.43
832.844	60.24
833.021	31.57
833.198	125.78
833.374	140.12
833.551	52.05
833.728	90.96
833.905	111.44
834.082	27.48
834.259	60.24
834.436	33.62
834.612	27.48
834.789	101.2
834.966	52.05
835.143	88.92
835.319	125.78
835.496	72.53
835.673	111.44
835.85	23.38
836.026	17.24
836.203	113.49
836.38	21.33
836.556	47.96
836.733	25.43
836.909	109.4
837.086	80.72
837.262	17.24
837.439	29.52
837.616	4.95
837.792	95.06
837.968	62.29
838.145	47.96
838.321	27.48
838.498	111.44
838.674	68.44
838.851	86.87
839.027	39.76
839.203	54.1
839.38	7
839.556	56.15
839.732	70.48
839.909	68.44
840.085	140.12
840.261	76.63
840.437	80.72
840.614	84.82
840.79	103.25
840.966	78.68
841.142	66.39
841.318	56.15
841.494	50
841.671	21.33
841.847	62.29
842.023	11.09
842.199	43.86
842.375	33.62
842.551	39.76
842.727	121.68
842.903	68.44
843.079	15.19
843.255	45.91
843.431	47.96
843.607	23.38
843.783	58.2
843.959	35.67
844.134	23.38
844.31	142.16
844.486	80.72
844.662	52.05
844.838	15.19
845.013	93.01
845.189	33.62
845.365	127.83
845.541	86.87
845.716	66.39
845.892	82.77
846.068	4.95
846.244	105.3
846.419	62.29
846.595	82.77
846.77	-13.48
846.946	56.15
847.122	76.63
847.297	43.86
847.473	97.11
847.648	60.24
847.824	97.11
847.999	39.76
848.175	33.62
848.35	-1.19
848.526	99.16
848.701	23.38
848.876	54.1
849.052	54.1
849.227	27.48
849.403	80.72
849.578	45.91
849.753	105.3
849.929	84.82
850.104	-40.11
850.279	-23.72
850.454	109.4
850.63	80.72
850.805	-46.25
850.98	11.09
851.155	-1.19
851.33	23.38
851.505	-25.77
851.681	113.49
851.856	-21.67
852.031	-21.67
852.206	64.34
852.381	54.1
852.556	66.39
852.731	15.19
852.906	68.44
853.081	-7.34
853.256	88.92
853.431	68.44
853.606	-81.07
853.781	-11.43
853.956	52.05
854.131	45.91
854.305	7
854.48	17.24
854.655	13.14
854.83	-19.63
855.005	-25.77
855.18	146.26
855.354	-11.43
855.529	11.09
855.704	-42.15
855.879	-17.58
856.053	47.96
856.228	39.76
856.403	47.96
856.577	74.58
856.752	15.19
856.926	-23.72
857.101	9.05
857.276	58.2
857.45	-42.15
857.625	27.48
857.799	-21.67
857.974	0.85
858.148	54.1
858.323	21.33
858.497	4.95
858.672	-29.87
858.846	-27.82
859.02	23.38
859.195	41.81
859.369	27.48
859.543	58.2
859.718	-9.39
859.892	-40.11
860.066	76.63
860.241	21.33
860.415	-3.24
860.589	-5.29
860.763	27.48
860.938	58.2
861.112	19.29
861.286	-21.67
861.46	21.33
861.634	27.48
861.808	39.76
861.982	23.38
862.157	74.58
862.331	60.24
862.505	-21.67
862.679	23.38
862.853	-9.39
863.027	4.95
863.201	62.29
863.375	19.29
863.549	-31.91
863.722	13.14
863.896	90.96
864.07	43.86
864.244	47.96
864.418	47.96
864.592	47.96
864.766	29.52
864.939	23.38
865.113	9.05
865.287	56.15
865.461	23.38
865.634	29.52
865.808	19.29
865.982	39.76
866.156	-1.19
866.329	-7.34
866.503	43.86
866.676	52.05
866.85	47.96
867.024	31.57
867.197	-48.3
867.371	-15.53
867.544	62.29
867.718	-25.77
867.891	-17.58
868.065	58.2
868.238	43.86
868.412	-7.34
868.585	15.19
868.759	9.05
868.932	-9.39
869.105	45.91
869.279	23.38
869.452	-36.01
869.625	-13.48
869.799	90.96
869.972	4.95
870.145	90.96
870.319	56.15
870.492	-21.67
870.665	-29.87
870.838	70.48
871.011	-42.15
871.185	-5.29
871.358	33.62
871.531	-13.48
871.704	19.29
871.877	37.72
872.05	13.14
872.223	35.67
872.396	19.29
872.569	-33.96
872.742	4.95
872.915	35.67
873.088	-9.39
873.261	0.85
873.434	74.58
873.607	-54.44
873.78	64.34
873.953	37.72
874.126	19.29
874.299	-50.35
874.471	35.67
874.644	2.9
874.817	45.91
874.99	47.96
875.163	-31.91
875.335	76.63
875.508	-31.91
875.681	0.85
875.853	-1.19
876.026	-13.48
876.199	15.19
876.371	23.38
876.544	-3.24
876.717	43.86
876.889	-5.29
877.062	-58.54
877.234	-72.87
877.407	52.05
877.579	-15.53
877.752	9.05
877.924	-1.19
878.097	-46.25
878.269	-13.48
878.442	43.86
878.614	52.05
878.786	11.09
878.959	-1.19
879.131	-5.29
879.303	-9.39
879.476	-36.01
879.648	27.48
879.82	-33.96
879.993	0.85
880.165	-25.77
880.337	-46.25
880.509	-42.15
880.681	37.72
880.854	21.33
881.026	-1.19
881.198	-15.53
881.37	13.14
881.542	43.86
881.714	-23.72
881.886	7
882.058	21.33
882.23	95.06
882.402	35.67
882.574	-11.43
882.746	19.29
882.918	74.58
883.09	23.38
883.262	-40.11
883.434	25.43
883.606	-85.16
883.778	52.05
883.95	-21.67
884.122	27.48
884.293	54.1
884.465	-7.34
884.637	11.09
884.809	4.95
884.98	54.1
885.152	19.29
885.324	76.63
885.496	2.9
885.667	9.05
885.839	-11.43
886.011	52.05
886.182	43.86
886.354	2.9
886.525	84.82
886.697	2.9
886.869	2.9
887.04	-33.96
887.212	-13.48
887.383	25.43
887.555	31.57
887.726	-38.06
887.897	60.24
888.069	35.67
888.24	-17.58
888.412	-17.58
888.583	-44.2
888.754	-1.19
888.926	-42.15
889.097	58.2
889.268	4.95
889.44	43.86
889.611	-29.87
889.782	-29.87
889.953	-33.96
890.125	2.9
890.296	-62.63
890.467	13.14
890.638	56.15
890.809	4.95
890.98	-13.48
891.151	37.72
891.323	82.77
891.494	41.81
891.665	68.44
891.836	17.24
892.007	-25.77
892.178	33.62
892.349	-5.29
892.52	-13.48
892.691	50
892.862	0.85
893.032	2.9
893.203	56.15
893.374	47.96
893.545	74.58
893.716	-1.19
893.887	15.19
894.057	-3.24
894.228	4.95
894.399	37.72
894.57	15.19
894.74	41.81
894.911	-54.44
895.082	-50.35
895.253	-13.48
895.423	-68.78
895.594	-9.39
895.764	17.24
895.935	27.48
896.106	11.09
896.276	2.9
896.447	9.05
896.617	-83.11
896.788	15.19
896.958	-46.25
897.129	33.62
897.299	-13.48
897.47	-21.67
897.64	15.19
897.81	62.29
897.981	50
898.151	93.01
898.322	101.2
898.492	-7.34
898.662	-31.91
898.832	17.24
899.003	13.14
899.173	-15.53
899.343	-31.91
899.513	-19.63
