Data from USB4F104151__19__11-04-52-013.txt Node

Date: Wed Mar 12 11:04:52 EDT 2025
User: louis
Spectrometer: USB4F10415
Trigger mode: 4
Integration Time (sec): 2.000000E-2
Scans to average: 1
Electric dark correction enabled: true
Nonlinearity correction enabled: false
Boxcar width: 0
XAxis mode: Wavelengths
Number of Pixels in Spectrum: 3648
>>>>>Begin Spectral Data<<<<<
178.204	-40.45
178.424	-40.45
178.644	-40.45
178.864	-81.41
179.084	-114.17
179.304	4.61
179.524	-1.54
179.744	-11.78
179.964	0.51
180.184	76.29
180.404	12.8
180.624	-19.97
180.844	-7.68
181.064	-93.69
181.283	35.33
181.503	-11.78
181.723	16.9
181.943	-44.54
182.163	25.09
182.383	-15.87
182.602	33.28
182.822	53.76
183.042	66.05
183.262	-7.68
183.482	25.09
183.701	-11.78
183.921	43.52
184.141	-36.35
184.361	33.28
184.58	0.51
184.8	43.52
185.02	-28.16
185.239	27.14
185.459	6.66
185.679	-28.16
185.898	-7.68
186.118	57.86
186.338	14.85
186.557	-24.06
186.777	51.71
186.997	-11.78
187.216	-52.74
187.436	-3.58
187.655	53.76
187.875	51.71
188.095	57.86
188.314	41.47
188.534	18.94
188.753	82.43
188.973	29.18
189.192	2.56
189.412	-56.83
189.631	68.09
189.851	45.57
190.07	0.51
190.29	27.14
190.509	20.99
190.729	-9.73
190.948	-9.73
191.168	139.77
191.387	43.52
191.607	-1.54
191.826	23.04
192.045	33.28
192.265	41.47
192.484	57.86
192.704	100.86
192.923	23.04
193.142	35.33
193.362	49.66
193.581	16.9
193.8	88.57
194.02	12.8
194.239	-13.82
194.458	14.85
194.678	-15.87
194.897	45.57
195.116	-19.97
195.335	33.28
195.555	-1.54
195.774	-38.4
195.993	10.75
196.212	8.7
196.432	0.51
196.651	16.9
196.87	-3.58
197.089	6.66
197.308	35.33
197.528	70.14
197.747	-40.45
197.966	70.14
198.185	45.57
198.404	6.66
198.623	84.48
198.842	47.62
199.062	25.09
199.281	88.57
199.5	-1.54
199.719	43.52
199.938	-32.26
200.157	14.85
200.376	37.38
200.595	43.52
200.814	-50.69
201.033	-22.02
201.252	76.29
201.471	12.8
201.69	6.66
201.909	51.71
202.128	20.99
202.347	78.33
202.566	-54.78
202.785	18.94
203.004	-67.07
203.223	80.38
203.442	109.05
203.661	16.9
203.879	10.75
204.098	100.86
204.317	43.52
204.536	41.47
204.755	16.9
204.974	2.56
205.193	-30.21
205.411	51.71
205.63	-75.26
205.849	-3.58
206.068	92.67
206.287	-1.54
206.505	57.86
206.724	10.75
206.943	12.8
207.162	33.28
207.381	33.28
207.599	-7.68
207.818	27.14
208.037	8.7
208.255	-13.82
208.474	2.56
208.693	39.42
208.911	-13.82
209.13	-24.06
209.349	70.14
209.567	66.05
209.786	45.57
210.005	-30.21
210.223	18.94
210.442	61.95
210.661	49.66
210.879	29.18
211.098	-7.68
211.316	74.24
211.535	16.9
211.753	12.8
211.972	55.81
212.191	33.28
212.409	23.04
212.628	16.9
212.846	25.09
213.065	-13.82
213.283	66.05
213.502	-13.82
213.72	47.62
213.938	-11.78
214.157	74.24
214.375	84.48
214.594	27.14
214.812	8.7
215.031	39.42
215.249	12.8
215.467	14.85
215.686	86.53
215.904	49.66
216.122	23.04
216.341	-83.45
216.559	0.51
216.778	39.42
216.996	18.94
217.214	-42.5
217.432	31.23
217.651	8.7
217.869	33.28
218.087	61.95
218.306	-17.92
218.524	49.66
218.742	45.57
218.96	20.99
219.179	78.33
219.397	37.38
219.615	43.52
219.833	27.14
220.051	57.86
220.27	55.81
220.488	41.47
220.706	35.33
220.924	-79.36
221.142	47.62
221.36	-15.87
221.578	25.09
221.796	-9.73
222.015	-50.69
222.233	-17.92
222.451	74.24
222.669	66.05
222.887	-22.02
223.105	-24.06
223.323	10.75
223.541	23.04
223.759	70.14
223.977	25.09
224.195	61.95
224.413	37.38
224.631	-7.68
224.849	37.38
225.067	74.24
225.285	10.75
225.503	6.66
225.721	47.62
225.939	27.14
226.157	16.9
226.375	86.53
226.592	6.66
226.81	43.52
227.028	-13.82
227.246	51.71
227.464	12.8
227.682	-11.78
227.9	-17.92
228.117	35.33
228.335	-11.78
228.553	8.7
228.771	53.76
228.989	8.7
229.206	0.51
229.424	47.62
229.642	41.47
229.86	53.76
230.077	35.33
230.295	66.05
230.513	68.09
230.731	33.28
230.948	37.38
231.166	68.09
231.384	18.94
231.601	0.51
231.819	12.8
232.037	39.42
232.254	-34.3
232.472	27.14
232.689	57.86
232.907	57.86
233.125	41.47
233.342	14.85
233.56	-28.16
233.777	-17.92
233.995	-15.87
234.213	98.81
234.43	25.09
234.648	27.14
234.865	8.7
235.083	53.76
235.3	0.51
235.518	-13.82
235.735	78.33
235.953	66.05
236.17	4.61
236.388	82.43
236.605	0.51
236.822	8.7
237.04	66.05
237.257	-24.06
237.475	43.52
237.692	0.51
237.909	66.05
238.127	20.99
238.344	35.33
238.562	-36.35
238.779	25.09
238.996	4.61
239.214	49.66
239.431	53.76
239.648	12.8
239.865	29.18
240.083	-56.83
240.3	-32.26
240.517	12.8
240.735	-44.54
240.952	57.86
241.169	10.75
241.386	70.14
241.603	37.38
241.821	-17.92
242.038	-15.87
242.255	31.23
242.472	12.8
242.689	16.9
242.907	74.24
243.124	29.18
243.341	-1.54
243.558	-9.73
243.775	-28.16
243.992	-1.54
244.209	37.38
244.426	12.8
244.643	33.28
244.86	43.52
245.078	47.62
245.295	59.9
245.512	10.75
245.729	47.62
245.946	-7.68
246.163	68.09
246.38	37.38
246.597	-7.68
246.814	-15.87
247.031	27.14
247.248	72.19
247.464	90.62
247.681	59.9
247.898	16.9
248.115	66.05
248.332	-22.02
248.549	121.34
248.766	-24.06
248.983	84.48
249.2	20.99
249.417	78.33
249.633	-17.92
249.85	0.51
250.067	0.51
250.284	16.9
250.501	23.04
250.717	14.85
250.934	66.05
251.151	27.14
251.368	43.52
251.585	-11.78
251.801	92.67
252.018	27.14
252.235	-9.73
252.451	-26.11
252.668	14.85
252.885	98.81
253.102	55.81
253.318	49.66
253.535	8.7
253.752	18.94
253.968	31.23
254.185	59.9
254.401	-19.97
254.618	57.86
254.835	16.9
255.051	64
255.268	-60.93
255.484	66.05
255.701	8.7
255.917	-3.58
256.134	-11.78
256.351	23.04
256.567	-19.97
256.784	-32.26
257	25.09
257.217	53.76
257.433	18.94
257.65	8.7
257.866	14.85
258.082	-11.78
258.299	23.04
258.515	29.18
258.732	-22.02
258.948	-50.69
259.165	23.04
259.381	18.94
259.597	35.33
259.814	76.29
260.03	23.04
260.246	121.34
260.463	41.47
260.679	57.86
260.895	31.23
261.112	-22.02
261.328	39.42
261.544	47.62
261.761	121.34
261.977	18.94
262.193	14.85
262.409	2.56
262.626	61.95
262.842	90.62
263.058	-17.92
263.274	70.14
263.49	8.7
263.707	35.33
263.923	-30.21
264.139	74.24
264.355	0.51
264.571	53.76
264.787	6.66
265.004	78.33
265.22	-24.06
265.436	-9.73
265.652	18.94
265.868	-22.02
266.084	6.66
266.3	-38.4
266.516	-22.02
266.732	20.99
266.948	-9.73
267.164	20.99
267.38	35.33
267.596	57.86
267.812	74.24
268.028	86.53
268.244	27.14
268.46	4.61
268.676	14.85
268.892	6.66
269.108	14.85
269.324	-42.5
269.54	-3.58
269.756	102.91
269.972	45.57
270.188	6.66
270.403	-24.06
270.619	45.57
270.835	-1.54
271.051	68.09
271.267	14.85
271.483	23.04
271.698	33.28
271.914	-3.58
272.13	49.66
272.346	29.18
272.562	2.56
272.777	33.28
272.993	14.85
273.209	-52.74
273.425	64
273.64	-24.06
273.856	49.66
274.072	-1.54
274.287	-5.63
274.503	43.52
274.719	-15.87
274.934	64
275.15	29.18
275.366	-11.78
275.581	70.14
275.797	35.33
276.012	-1.54
276.228	86.53
276.444	33.28
276.659	66.05
276.875	33.28
277.09	47.62
277.306	-3.58
277.521	18.94
277.737	4.61
277.952	31.23
278.168	16.9
278.383	74.24
278.599	-19.97
278.814	43.52
279.03	57.86
279.245	107.01
279.461	51.71
279.676	-15.87
279.892	53.76
280.107	88.57
280.322	-56.83
280.538	-36.35
280.753	20.99
280.969	45.57
281.184	53.76
281.399	109.05
281.615	43.52
281.83	70.14
282.045	-7.68
282.26	37.38
282.476	45.57
282.691	-26.11
282.906	0.51
283.122	86.53
283.337	41.47
283.552	37.38
283.767	23.04
283.983	41.47
284.198	-17.92
284.413	29.18
284.628	-34.3
284.843	47.62
285.058	2.56
285.274	4.61
285.489	-32.26
285.704	2.56
285.919	64
286.134	49.66
286.349	-42.5
286.564	-22.02
286.779	45.57
286.995	43.52
287.21	18.94
287.425	82.43
287.64	-3.58
287.855	-1.54
288.07	41.47
288.285	-9.73
288.5	47.62
288.715	8.7
288.93	72.19
289.145	6.66
289.36	41.47
289.575	68.09
289.79	-40.45
290.004	49.66
290.219	84.48
290.434	45.57
290.649	39.42
290.864	8.7
291.079	20.99
291.294	-11.78
291.509	23.04
291.724	16.9
291.938	47.62
292.153	37.38
292.368	8.7
292.583	51.71
292.798	59.9
293.012	53.76
293.227	-32.26
293.442	78.33
293.657	55.81
293.871	8.7
294.086	14.85
294.301	-9.73
294.516	82.43
294.73	49.66
294.945	-7.68
295.16	45.57
295.374	18.94
295.589	57.86
295.804	53.76
296.018	61.95
296.233	61.95
296.447	57.86
296.662	27.14
296.877	-5.63
297.091	51.71
297.306	29.18
297.52	-26.11
297.735	23.04
297.949	-32.26
298.164	27.14
298.378	10.75
298.593	35.33
298.807	-34.3
299.022	68.09
299.236	70.14
299.451	-15.87
299.665	47.62
299.88	29.18
300.094	-1.54
300.309	59.9
300.523	133.63
300.737	59.9
300.952	-24.06
301.166	45.57
301.381	12.8
301.595	-11.78
301.809	25.09
302.024	49.66
302.238	-9.73
302.452	90.62
302.667	47.62
302.881	-19.97
303.095	57.86
303.309	41.47
303.524	57.86
303.738	-7.68
303.952	0.51
304.166	20.99
304.381	37.38
304.595	147.97
304.809	29.18
305.023	96.77
305.237	14.85
305.452	20.99
305.666	-30.21
305.88	41.47
306.094	53.76
306.308	-11.78
306.522	57.86
306.736	90.62
306.95	39.42
307.164	33.28
307.379	-19.97
307.593	33.28
307.807	27.14
308.021	-15.87
308.235	-11.78
308.449	-48.64
308.663	-9.73
308.877	96.77
309.091	12.8
309.305	45.57
309.519	55.81
309.733	-13.82
309.947	-36.35
310.161	23.04
310.374	82.43
310.588	74.24
310.802	74.24
311.016	41.47
311.23	43.52
311.444	80.38
311.658	16.9
311.872	78.33
312.085	33.28
312.299	43.52
312.513	45.57
312.727	102.91
312.941	18.94
313.154	-22.02
313.368	25.09
313.582	78.33
313.796	33.28
314.009	-11.78
314.223	29.18
314.437	25.09
314.651	29.18
314.864	59.9
315.078	31.23
315.292	-1.54
315.505	25.09
315.719	68.09
315.933	16.9
316.146	29.18
316.36	-56.83
316.573	35.33
316.787	72.19
317.001	-7.68
317.214	61.95
317.428	0.51
317.641	23.04
317.855	39.42
318.068	8.7
318.282	82.43
318.495	47.62
318.709	-17.92
318.922	-30.21
319.136	61.95
319.349	121.34
319.563	0.51
319.776	2.56
319.99	-48.64
320.203	51.71
320.417	-24.06
320.63	20.99
320.843	96.77
321.057	-1.54
321.27	88.57
321.483	33.28
321.697	51.71
321.91	51.71
322.124	49.66
322.337	72.19
322.55	-44.54
322.763	33.28
322.977	-15.87
323.19	8.7
323.403	18.94
323.617	23.04
323.83	2.56
324.043	98.81
324.256	88.57
324.469	45.57
324.683	31.23
324.896	-40.45
325.109	29.18
325.322	-54.78
325.535	53.76
325.748	39.42
325.962	55.81
326.175	18.94
326.388	23.04
326.601	29.18
326.814	-5.63
327.027	-1.54
327.24	166.4
327.453	4.61
327.666	18.94
327.879	107.01
328.092	29.18
328.305	74.24
328.518	35.33
328.731	41.47
328.944	4.61
329.157	2.56
329.37	78.33
329.583	49.66
329.796	18.94
330.009	0.51
330.222	121.34
330.435	43.52
330.648	61.95
330.861	49.66
331.073	107.01
331.286	70.14
331.499	23.04
331.712	12.8
331.925	-17.92
332.138	49.66
332.35	86.53
332.563	49.66
332.776	16.9
332.989	14.85
333.202	23.04
333.414	20.99
333.627	-13.82
333.84	53.76
334.053	64
334.265	25.09
334.478	27.14
334.691	-7.68
334.903	80.38
335.116	-3.58
335.329	27.14
335.541	12.8
335.754	10.75
335.966	-22.02
336.179	16.9
336.392	35.33
336.604	-26.11
336.817	12.8
337.029	-34.3
337.242	25.09
337.454	0.51
337.667	-30.21
337.88	39.42
338.092	57.86
338.305	41.47
338.517	18.94
338.729	139.77
338.942	-30.21
339.154	33.28
339.367	4.61
339.579	66.05
339.792	37.38
340.004	12.8
340.217	53.76
340.429	45.57
340.641	47.62
340.854	20.99
341.066	66.05
341.278	96.77
341.491	88.57
341.703	-40.45
341.915	12.8
342.128	37.38
342.34	72.19
342.552	-24.06
342.764	25.09
342.977	64
343.189	43.52
343.401	47.62
343.613	16.9
343.826	88.57
344.038	-15.87
344.25	-3.58
344.462	4.61
344.674	61.95
344.886	-17.92
345.099	20.99
345.311	47.62
345.523	-9.73
345.735	4.61
345.947	51.71
346.159	-7.68
346.371	-26.11
346.583	20.99
346.795	-1.54
347.007	37.38
347.219	49.66
347.431	82.43
347.643	27.14
347.855	8.7
348.067	-11.78
348.279	37.38
348.491	-7.68
348.703	61.95
348.915	27.14
349.127	-56.83
349.339	-5.63
349.551	10.75
349.763	84.48
349.975	49.66
350.187	51.71
350.399	78.33
350.61	78.33
350.822	-5.63
351.034	-22.02
351.246	70.14
351.458	39.42
351.669	47.62
351.881	20.99
352.093	51.71
352.305	35.33
352.517	0.51
352.728	25.09
352.94	41.47
353.152	51.71
353.363	20.99
353.575	10.75
353.787	23.04
353.999	49.66
354.21	61.95
354.422	43.52
354.633	92.67
354.845	29.18
355.057	33.28
355.268	72.19
355.48	43.52
355.692	72.19
355.903	8.7
356.115	-1.54
356.326	-9.73
356.538	39.42
356.749	76.29
356.961	55.81
357.172	37.38
357.384	-28.16
357.595	47.62
357.807	53.76
358.018	4.61
358.23	-5.63
358.441	78.33
358.653	49.66
358.864	27.14
359.075	-56.83
359.287	96.77
359.498	66.05
359.709	64
359.921	0.51
360.132	74.24
360.344	-46.59
360.555	0.51
360.766	37.38
360.977	45.57
361.189	86.53
361.4	33.28
361.611	72.19
361.823	76.29
362.034	39.42
362.245	-60.93
362.456	107.01
362.667	-19.97
362.879	12.8
363.09	-44.54
363.301	23.04
363.512	57.86
363.723	-9.73
363.935	76.29
364.146	33.28
364.357	45.57
364.568	-9.73
364.779	70.14
364.99	66.05
365.201	27.14
365.412	88.57
365.623	-19.97
365.834	23.04
366.045	-24.06
366.256	117.25
366.467	51.71
366.678	94.72
366.889	55.81
367.1	78.33
367.311	-5.63
367.522	37.38
367.733	-13.82
367.944	-5.63
368.155	47.62
368.366	8.7
368.577	70.14
368.788	10.75
368.999	8.7
369.209	59.9
369.42	20.99
369.631	109.05
369.842	55.81
370.053	57.86
370.264	61.95
370.474	27.14
370.685	55.81
370.896	72.19
371.107	27.14
371.317	102.91
371.528	12.8
371.739	51.71
371.95	37.38
372.16	-1.54
372.371	90.62
372.582	84.48
372.792	-40.45
373.003	-17.92
373.214	64
373.424	-19.97
373.635	43.52
373.846	18.94
374.056	61.95
374.267	53.76
374.477	74.24
374.688	100.86
374.898	74.24
375.109	37.38
375.319	29.18
375.53	39.42
375.74	45.57
375.951	86.53
376.161	-54.78
376.372	70.14
376.582	72.19
376.793	39.42
377.003	-24.06
377.214	23.04
377.424	20.99
377.635	41.47
377.845	12.8
378.055	82.43
378.266	2.56
378.476	51.71
378.686	43.52
378.897	70.14
379.107	29.18
379.317	0.51
379.528	29.18
379.738	145.92
379.948	14.85
380.158	78.33
380.369	-3.58
380.579	57.86
380.789	8.7
380.999	12.8
381.21	68.09
381.42	109.05
381.63	33.28
381.84	-1.54
382.05	23.04
382.261	20.99
382.471	76.29
382.681	-3.58
382.891	-7.68
383.101	51.71
383.311	90.62
383.521	86.53
383.731	64
383.941	55.81
384.151	64
384.361	57.86
384.571	66.05
384.781	47.62
384.991	8.7
385.201	90.62
385.411	-5.63
385.621	43.52
385.831	90.62
386.041	33.28
386.251	-5.63
386.461	76.29
386.671	-1.54
386.881	66.05
387.091	43.52
387.301	119.29
387.511	37.38
387.72	86.53
387.93	37.38
388.14	18.94
388.35	82.43
388.56	39.42
388.769	33.28
388.979	4.61
389.189	78.33
389.399	49.66
389.609	86.53
389.818	12.8
390.028	72.19
390.238	88.57
390.447	82.43
390.657	23.04
390.867	-32.26
391.076	14.85
391.286	49.66
391.496	35.33
391.705	66.05
391.915	20.99
392.125	12.8
392.334	57.86
392.544	41.47
392.753	88.57
392.963	29.18
393.172	0.51
393.382	-28.16
393.591	131.58
393.801	68.09
394.01	53.76
394.22	74.24
394.429	41.47
394.639	-15.87
394.848	51.71
395.058	76.29
395.267	96.77
395.477	55.81
395.686	61.95
395.895	94.72
396.105	92.67
396.314	45.57
396.524	88.57
396.733	78.33
396.942	-11.78
397.152	80.38
397.361	90.62
397.57	78.33
397.78	72.19
397.989	98.81
398.198	162.3
398.407	64
398.617	100.86
398.826	53.76
399.035	107.01
399.244	82.43
399.453	74.24
399.663	64
399.872	107.01
400.081	113.15
400.29	115.2
400.499	55.81
400.708	70.14
400.917	147.97
401.127	76.29
401.336	90.62
401.545	123.39
401.754	8.7
401.963	51.71
402.172	64
402.381	104.96
402.59	129.53
402.799	115.2
403.008	133.63
403.217	53.76
403.426	119.29
403.635	72.19
403.844	109.05
404.053	104.96
404.262	102.91
404.471	133.63
404.68	139.77
404.888	74.24
405.097	98.81
405.306	121.34
405.515	33.28
405.724	162.3
405.933	119.29
406.142	66.05
406.35	127.49
406.559	152.06
406.768	55.81
406.977	72.19
407.185	127.49
407.394	172.54
407.603	70.14
407.812	154.11
408.02	125.44
408.229	188.93
408.438	266.75
408.646	51.71
408.855	180.73
409.064	229.88
409.272	68.09
409.481	211.45
409.69	229.88
409.898	162.3
410.107	221.69
410.315	258.56
410.524	180.73
410.733	227.84
410.941	254.46
411.15	262.65
411.358	252.41
411.567	260.6
411.775	256.51
411.984	248.32
412.192	309.76
412.401	272.89
412.609	324.09
412.818	338.43
413.026	383.48
413.234	324.09
413.443	365.05
413.651	336.38
413.86	412.15
414.068	393.72
414.276	426.49
414.485	379.39
414.693	479.74
414.901	500.22
415.11	463.35
415.318	410.11
415.526	479.74
415.734	541.18
415.943	516.6
416.151	547.32
416.359	547.32
416.567	596.47
416.776	582.14
416.984	672.25
417.192	688.63
417.4	684.53
417.608	731.64
417.817	610.81
418.025	702.97
418.233	770.55
418.441	768.5
418.649	715.25
418.857	815.6
419.065	844.28
419.273	909.81
419.481	836.08
419.689	1008.11
419.897	1032.69
420.105	958.96
420.313	1106.42
420.521	1087.98
420.729	1090.03
420.937	1120.75
421.145	1083.89
421.353	1223.15
421.561	1255.92
421.769	1343.98
421.977	1493.48
422.185	1370.6
422.393	1391.08
422.601	1520.1
422.809	1563.11
423.017	1536.49
423.224	1575.4
423.432	1718.76
423.64	1714.66
423.848	1804.77
424.056	1761.77
424.263	1884.64
424.471	1870.31
424.679	1980.9
424.887	2189.79
425.094	2118.11
425.302	2152.93
425.51	2251.23
425.718	2288.09
425.925	2439.64
426.133	2255.33
426.341	2533.85
426.548	2568.66
426.756	2636.25
426.964	2664.92
427.171	2980.31
427.379	3015.12
427.586	2900.44
427.794	3054.03
428.001	3144.14
428.209	3127.76
428.417	3260.88
428.624	3568.07
428.832	3496.39
429.039	3477.96
429.247	3514.83
429.454	3953.09
429.662	4030.91
429.869	3840.45
430.076	4026.82
430.284	4114.88
430.491	4204.99
430.699	4338.11
430.906	4272.57
431.114	4334.01
431.321	4571.58
431.528	4727.22
431.736	4972.98
431.943	5331.37
432.15	5097.91
432.358	5073.33
432.565	5482.92
432.772	5542.32
432.979	5566.89
433.187	5620.14
433.394	5800.36
433.601	5990.82
433.808	6250.91
434.016	6183.33
434.223	6396.32
434.43	6705.56
434.637	6644.12
434.844	7154.07
435.052	7422.35
435.259	7246.23
435.466	7207.31
435.673	7180.69
435.88	7737.74
436.087	8026.5
436.294	8100.23
436.501	7885.19
436.708	8053.13
436.915	8446.34
437.122	8690.04
437.329	8610.17
437.537	9087.35
437.743	9146.74
437.95	9093.49
438.157	9529.71
438.364	9724.27
438.571	9767.27
438.778	9646.44
438.985	10670.43
439.192	10215.78
439.399	10754.4
439.606	10365.28
439.813	11018.58
440.02	11630.93
440.227	11342.16
440.433	11458.9
440.64	11831.63
440.847	11665.74
441.054	11940.17
441.261	12867.9
441.467	12777.79
441.674	12900.67
441.881	13330.74
442.088	13238.58
442.294	13195.57
442.501	13666.61
442.708	13803.82
442.914	14422.31
443.121	15114.52
443.328	14872.86
443.534	15495.44
443.741	15221.02
443.948	14698.78
444.154	16197.9
444.361	16197.9
444.568	15964.43
444.774	15978.76
444.981	16646.4
445.187	16769.28
445.394	17647.86
445.6	17287.42
445.807	18778.34
446.013	17873.14
446.22	18188.52
446.426	19024.09
446.633	19200.22
446.839	19869.9
447.046	19183.84
447.252	20109.52
447.459	20441.29
447.665	19996.88
447.871	21104.83
448.078	21878.96
448.284	20863.17
448.491	21268.67
448.697	22100.14
448.903	22700.2
449.11	22429.87
449.316	22278.32
449.522	22399.15
449.728	23449.75
449.935	23300.25
450.141	23378.08
450.347	23865.49
450.553	22870.18
450.76	23480.47
450.966	24041.62
451.172	23879.83
451.378	24223.89
451.584	23847.06
451.791	24391.82
451.997	24502.41
452.203	24674.44
452.409	24322.19
452.615	24387.72
452.821	23398.55
453.027	23484.57
453.233	24557.71
453.44	23462.04
453.646	23791.76
453.852	23869.59
454.058	24332.43
454.264	23337.12
454.47	24078.48
454.676	23541.91
454.882	23986.32
455.088	21676.21
455.294	22083.76
455.5	22423.72
455.705	22620.33
455.911	21668.02
456.117	21264.57
456.323	21010.62
456.529	19822.8
456.735	20529.35
456.941	20146.38
457.147	19730.64
457.352	19036.38
457.558	18497.77
457.764	18647.27
457.97	18458.85
458.176	18354.41
458.381	18399.46
458.587	17398.01
458.793	17311.99
458.999	16392.45
459.204	17598.71
459.41	16937.21
459.616	15894.8
459.821	15995.15
460.027	15776.02
460.233	15532.31
460.438	14459.17
460.644	14874.91
460.85	14342.44
461.055	13990.19
461.261	13943.08
461.466	12837.18
461.672	12534.08
461.878	13537.59
462.083	12538.18
462.289	12374.34
462.494	12013.9
462.7	11786.57
462.905	11458.9
463.111	11809.1
463.316	11645.26
463.522	11616.59
463.727	11573.58
463.932	11559.25
464.138	11360.59
464.343	11485.52
464.549	11215.19
464.754	11549.01
464.959	11405.65
465.165	11133.27
465.37	10924.38
465.575	10551.65
465.781	11041.11
465.986	11168.09
466.191	10557.79
466.397	10330.47
466.602	10125.67
466.807	10424.67
467.012	10381.67
467.218	10400.1
467.423	10125.67
467.628	10205.54
467.833	10565.98
468.038	10252.64
468.244	10080.61
468.449	10223.97
468.654	10023.27
468.859	9826.67
469.064	9879.91
469.269	9527.66
469.474	9535.85
469.679	9648.49
469.885	9412.98
470.09	9654.64
470.295	9427.31
470.5	9322.87
470.705	9380.21
470.91	9187.7
471.115	9099.64
471.32	9242.99
471.525	9034.1
471.73	8898.94
471.935	8802.68
472.139	8552.83
472.344	8765.82
472.549	8733.05
472.754	8393.09
472.959	8366.46
473.164	8241.54
473.369	8036.74
473.574	8413.57
473.778	8362.37
473.983	8167.81
474.188	8116.61
474.393	7727.5
474.598	8087.94
474.802	7762.31
475.007	7737.74
475.212	7514.51
475.417	7455.12
475.621	7504.27
475.826	7182.74
476.031	7195.03
476.235	7213.46
476.44	7326.1
476.645	7045.52
476.849	7156.11
477.054	7049.62
477.259	7115.16
477.463	7147.92
477.668	6787.48
477.872	7012.76
478.077	6685.08
478.282	6525.34
478.486	6717.85
478.691	6238.62
478.895	6379.93
479.1	6443.42
479.304	6414.75
479.509	6351.26
479.713	6463.9
479.918	6160.8
480.122	6173.09
480.326	6314.4
480.531	6279.58
480.735	6156.71
480.94	6234.53
481.144	6295.97
481.348	6023.59
481.553	6054.31
481.757	6056.36
481.961	6082.98
482.166	6103.46
482.37	6150.56
482.574	5933.48
482.778	6068.64
482.983	5972.39
483.187	5855.65
483.391	6128.03
483.595	6003.11
483.8	5933.48
484.004	5931.43
484.208	6138.27
484.412	6130.08
484.616	6144.42
484.821	5890.47
485.025	5939.62
485.229	5964.2
485.433	6007.2
485.637	6054.31
485.841	5972.39
486.045	6048.16
486.249	6011.3
486.453	6093.22
486.657	5886.37
486.861	6107.55
487.065	5978.53
487.269	6058.4
487.473	6064.55
487.677	5923.24
487.881	6173.09
488.085	5886.37
488.289	6025.64
488.493	5956.01
488.697	6003.11
488.901	6058.4
489.105	6136.23
489.309	5978.53
489.512	6177.19
489.716	6003.11
489.92	6091.17
490.124	6160.8
490.328	6338.98
490.531	6148.51
490.735	6054.31
490.939	6197.67
491.143	6238.62
491.346	6179.23
491.55	6281.63
491.754	6478.24
491.958	6353.31
492.161	6349.22
492.365	6279.58
492.569	6398.37
492.772	6240.67
492.976	6480.29
493.18	6461.85
493.383	6523.29
493.587	6488.48
493.79	6769.05
493.994	6619.55
494.197	6787.48
494.401	6791.58
494.605	6775.19
494.808	6789.53
495.012	6891.93
495.215	6883.73
495.419	7106.96
495.622	6758.81
495.825	7010.71
496.029	7201.17
496.232	7188.88
496.436	7182.74
496.639	7377.3
496.843	7399.82
497.046	7524.75
497.249	7684.49
497.453	7500.17
497.656	7616.91
497.859	7549.32
498.063	7733.64
498.266	7987.59
498.469	7881.1
498.673	7979.4
498.876	8151.43
499.079	8251.78
499.282	8161.67
499.485	8356.22
499.689	8552.83
499.892	8597.88
500.095	8520.06
500.298	8718.71
500.501	8720.76
500.705	8831.35
500.908	9173.36
501.111	9212.28
501.314	9238.9
501.517	9341.3
501.72	9367.92
501.923	9611.63
502.126	9562.48
502.329	9697.64
502.532	9916.78
502.735	9978.22
502.938	9894.25
503.141	10152.29
503.344	10269.03
503.547	10514.78
503.75	10496.35
503.953	10633.57
504.156	10778.97
504.359	10907.99
504.562	10989.91
504.765	11141.46
504.968	11231.57
505.17	11354.45
505.373	11407.7
505.576	11612.49
505.779	11751.76
505.982	11759.95
506.185	12058.95
506.387	12226.89
506.59	12271.94
506.793	12554.56
506.996	12329.28
507.198	12767.55
507.401	12638.53
507.604	12849.47
507.807	13121.85
508.009	13097.27
508.212	13336.88
508.415	13525.3
508.617	13394.23
508.82	13750.57
509.022	13639.98
509.225	14237.99
509.428	14031.15
509.63	14068.01
509.833	14221.61
510.035	14508.32
510.238	14567.71
510.44	14770.46
510.643	14913.82
510.845	15169.82
511.048	15022.36
511.25	15337.75
511.453	15341.85
511.655	15884.56
511.858	15769.87
512.06	16005.39
512.262	16261.38
512.465	16132.36
512.667	16347.4
512.87	16642.31
513.072	16623.87
513.274	16894.21
513.477	17017.08
513.679	17252.6
513.881	17611
514.084	17764.59
514.286	17533.17
514.488	17846.51
514.69	18440.42
514.893	18653.41
515.095	18708.71
515.297	18518.25
515.499	18970.85
515.701	19161.31
515.904	19605.72
516.106	19632.34
516.308	19794.13
516.51	20187.34
516.712	20097.23
516.914	20084.94
517.116	20443.34
517.318	20725.96
517.52	20646.08
517.722	20924.61
517.925	21164.22
518.127	21221.56
518.329	21661.88
518.531	21469.37
518.733	22220.97
518.935	22278.32
519.136	22266.03
519.338	22583.46
519.54	22745.25
519.742	23021.73
519.944	23214.24
520.146	23451.8
520.348	23490.71
520.55	23376.03
520.752	23699.61
520.954	24299.66
521.155	24086.67
521.357	24592.52
521.559	24592.52
521.761	24899.72
521.963	24973.44
522.164	25069.7
522.366	25331.84
522.568	25553.02
522.77	25858.17
522.971	26308.72
523.173	25913.46
523.375	26245.23
523.576	26304.62
523.778	26175.6
523.98	26998.88
524.181	26814.57
524.383	26851.43
524.584	27531.36
524.786	27347.04
524.988	27164.77
525.189	27687
525.391	27975.77
525.592	28221.52
525.794	28256.34
525.995	28133.46
526.197	28368.98
526.398	28532.81
526.6	28485.71
526.801	28764.23
527.003	29028.42
527.204	28905.54
527.406	29558.84
527.607	29085.76
527.808	29442.11
528.01	29227.07
528.211	29458.49
528.412	30017.59
528.614	29689.91
528.815	29841.46
529.016	30216.24
529.218	30142.52
529.419	30103.6
529.62	30281.78
529.822	30160.95
530.023	30318.64
530.224	30517.29
530.425	30539.82
530.626	29902.9
530.828	30283.83
531.029	30914.6
531.23	30849.07
531.431	30773.29
531.632	30789.67
531.833	31107.11
532.035	31176.74
532.236	30902.31
532.437	31682.59
532.638	31135.78
532.839	30879.78
533.04	31223.84
533.241	31062.05
533.442	31551.52
533.643	31232.04
533.844	31760.41
534.045	31598.62
534.246	30914.6
534.447	31524.89
534.648	31299.62
534.849	31522.85
535.05	31682.59
535.251	31365.15
535.451	31451.17
535.652	31762.46
535.853	31549.47
536.054	31572
536.255	31467.55
536.456	31266.85
536.657	31891.48
536.857	31500.32
537.058	31475.74
537.259	31615.01
537.46	31651.87
537.66	31696.92
537.861	31780.89
538.062	31252.52
538.263	31877.15
538.463	31684.64
538.664	31326.24
538.865	31789.08
539.065	31541.28
539.266	31526.94
539.466	32106.52
539.667	31469.6
539.868	31899.67
540.068	31528.99
540.269	31483.94
540.469	31492.13
540.67	31627.29
540.87	31825.95
541.071	32018.46
541.271	31721.5
541.472	31514.66
541.672	31576.09
541.873	31631.39
542.073	31047.72
542.274	31877.15
542.474	31526.94
542.675	31270.95
542.875	31651.87
543.075	31498.27
543.276	31264.8
543.476	31580.19
543.676	31457.31
543.877	31533.09
544.077	31340.58
544.277	31535.13
544.478	31461.41
544.678	31588.38
544.878	31107.11
545.078	31662.11
545.279	31088.68
545.479	31457.31
545.679	31528.99
545.879	31445.02
546.079	31799.32
546.28	31305.76
546.48	31270.95
546.68	31461.41
546.88	31662.11
547.08	31645.73
547.28	31223.84
547.48	31195.17
547.68	31655.96
547.88	31186.98
548.081	31551.52
548.281	31371.3
548.481	30943.27
548.681	31381.54
548.881	31426.59
549.081	31150.12
549.28	31272.99
549.48	31500.32
549.68	31301.67
549.88	31565.85
550.08	31236.13
550.28	31043.62
550.48	31148.07
550.68	31787.03
550.88	30937.13
551.08	31438.88
551.279	31135.78
551.479	30828.59
551.679	31252.52
551.879	30935.08
552.079	31469.6
552.278	31041.57
552.478	31037.48
552.678	31105.06
552.878	31209.51
553.077	31148.07
553.277	31037.48
553.477	31338.53
553.676	30957.61
553.876	31074.34
554.076	30740.52
554.275	31002.66
554.475	30361.65
554.674	30863.4
554.874	31184.93
555.074	30562.35
555.273	30824.49
555.473	30947.37
555.672	30812.2
555.872	30935.08
556.071	30730.28
556.271	31057.96
556.47	30558.25
556.67	30416.94
556.869	30521.39
557.068	30548.01
557.268	30277.68
557.467	30144.56
557.667	30722.09
557.866	30543.92
558.065	30318.64
558.265	29927.48
558.464	30240.82
558.663	30457.9
558.863	29616.19
559.062	30761
559.261	29935.67
559.461	30193.72
559.66	29497.41
559.859	29911.1
560.058	29730.87
560.258	29515.84
560.457	29315.14
560.656	30173.24
560.855	29503.55
561.054	29624.38
561.253	29444.16
561.453	29435.97
561.652	29376.58
561.851	29397.06
562.05	29438.01
562.249	29159.49
562.448	29423.68
562.647	28995.65
562.846	29366.34
563.045	28997.7
563.244	28866.63
563.443	29171.78
563.642	28541
563.841	28745.8
564.04	28487.76
564.239	28614.73
564.438	28829.77
564.637	28493.9
564.836	28579.92
565.035	28133.46
565.234	28633.16
565.432	28268.62
565.631	27854.93
565.83	28387.41
566.029	27895.89
566.228	28125.27
566.427	27957.33
566.625	27748.44
566.824	27455.58
567.023	27838.55
567.222	27412.57
567.42	27594.84
567.619	27881.56
567.818	27326.56
568.016	27195.49
568.215	27555.93
568.414	27086.95
568.612	27490.4
568.811	27074.66
569.01	27062.37
569.208	26816.61
569.407	27035.75
569.605	26736.74
569.804	27080.8
570.002	26425.45
570.201	26482.8
570.4	26484.84
570.598	26220.66
570.797	25979
570.995	26443.88
571.193	25905.27
571.392	26191.98
571.59	25991.28
571.789	26079.35
571.987	25925.75
572.186	25573.5
572.384	25786.49
572.582	25770.1
572.781	25997.43
572.979	25247.87
573.177	25460.86
573.376	25573.5
573.574	25264.25
573.772	25243.77
573.971	24756.36
574.169	24959.11
574.367	25026.69
574.565	25034.88
574.763	24924.29
574.962	24858.76
575.16	24483.98
575.358	24881.28
575.556	24240.27
575.754	24903.81
575.952	24623.24
576.151	24195.21
576.349	24074.38
576.547	24105.1
576.745	24062.1
576.943	24203.41
577.141	24010.9
577.339	24047.76
577.537	23851.16
577.735	24041.62
577.933	23513.24
578.131	23754.9
578.329	23554.2
578.527	23617.69
578.725	23347.36
578.923	23570.58
579.121	23480.47
579.319	23023.78
579.516	23269.53
579.714	22952.1
579.912	23054.5
580.11	23171.23
580.308	22798.5
580.506	22927.52
580.704	22579.37
580.901	22376.62
581.099	22843.56
581.297	22816.93
581.495	22567.08
581.692	22333.61
581.89	22210.73
582.088	22597.8
582.285	22034.61
582.483	22233.26
582.681	22141.1
582.878	22427.82
583.076	21766.32
583.274	22094
583.471	21862.58
583.669	22001.84
583.866	21350.59
584.064	21989.55
584.262	21450.94
584.459	21663.93
584.657	21211.32
584.854	21778.61
585.052	21098.69
585.249	21143.74
585.447	21276.86
585.644	20934.85
585.841	21160.13
586.039	21153.98
586.236	20932.8
586.434	20996.29
586.631	20820.16
586.828	20629.7
587.026	20836.55
587.223	20838.59
587.42	20605.13
587.618	20629.7
587.815	20486.34
588.012	20326.6
588.21	20117.71
588.407	20568.26
588.604	20213.96
588.801	20000.97
588.999	20150.48
589.196	19953.87
589.393	20070.61
589.59	20072.65
589.787	19810.51
589.984	20056.27
590.182	19521.75
590.379	19716.31
590.576	19562.71
590.773	19613.91
590.97	19597.52
591.167	19419.35
591.364	19439.83
591.561	19351.77
591.758	19388.63
591.955	19146.97
592.152	19521.75
592.349	18854.11
592.546	19179.74
592.743	19267.8
592.94	18757.86
593.137	19040.48
593.334	18931.94
593.531	18624.74
593.727	18843.87
593.924	18780.39
594.121	18401.51
594.318	18594.02
594.515	18262.25
594.712	18706.66
594.908	18278.63
595.105	18440.42
595.302	18090.22
595.499	18434.28
595.696	18190.57
595.892	18084.08
596.089	18034.92
596.286	18192.62
596.482	17907.95
596.679	17936.62
596.876	17817.84
597.072	17914.09
597.269	17989.87
597.466	17701.11
597.662	17512.69
597.859	17701.11
598.055	17723.63
598.252	17770.74
598.448	17418.49
598.645	17563.89
598.841	17242.36
599.038	17340.66
599.234	17348.86
599.431	17090.81
599.627	17074.43
599.824	17283.32
600.02	17076.48
600.217	17099
600.413	17029.37
600.609	16767.23
600.806	16906.49
601.002	16961.79
601.198	16681.22
601.395	16488.71
601.591	16955.65
601.787	16580.87
601.984	16496.9
602.18	16683.27
602.376	16515.33
602.572	16374.02
602.769	16146.7
602.965	16265.48
603.161	16169.23
603.357	16226.57
603.553	16167.18
603.75	15837.45
603.946	16021.77
604.142	16355.59
604.338	15692.05
604.534	15946
604.73	15743.25
604.926	15632.66
605.122	15778.06
605.318	15669.52
605.514	15509.78
605.71	15528.21
605.906	15444.24
606.102	15550.74
606.298	15528.21
606.494	15290.65
606.69	15386.9
606.886	15380.76
607.082	14932.25
607.278	15145.24
607.474	15155.48
607.67	15159.58
607.866	15155.48
608.062	15339.8
608.257	14870.81
608.453	15034.65
608.649	15071.51
608.845	14838.05
609.041	14819.61
609.236	14809.37
609.432	14629.15
609.628	14663.97
609.824	14663.97
610.019	14846.24
610.215	14516.51
610.411	14563.62
610.606	14512.42
610.802	14688.54
610.998	14590.24
611.193	14598.43
611.389	14551.33
611.584	14223.65
611.78	14047.53
611.976	14477.6
612.171	14254.37
612.367	14381.35
612.562	14336.29
612.758	13967.66
612.953	14192.94
613.149	14293.29
613.344	14072.11
613.539	14182.7
613.735	14025
613.93	13916.46
614.126	14074.15
614.321	13998.38
614.517	13967.66
614.712	13857.07
614.907	13707.57
615.103	13783.34
615.298	13918.51
615.493	13877.55
615.688	13678.9
615.884	13965.61
616.079	13527.35
616.274	13670.7
616.47	13680.94
616.665	13891.88
616.86	13621.55
617.055	13490.48
617.25	13652.27
617.445	13553.97
617.641	13332.79
617.836	13787.44
618.031	13089.08
618.226	13463.86
618.421	13388.08
618.616	13232.44
618.811	13130.04
619.006	13357.36
619.201	12849.47
619.396	13025.59
619.591	12855.61
619.786	13031.74
619.981	12980.54
620.176	12874.04
620.371	12904.76
620.566	12792.12
620.761	12659.01
620.956	12788.03
621.151	12431.68
621.346	12673.34
621.541	12413.25
621.735	12581.18
621.93	12222.79
622.125	12097.86
622.32	12300.61
622.515	12257.6
622.709	12024.14
622.904	12163.4
623.099	12101.96
623.294	11872.59
623.488	11727.18
623.683	11788.62
623.878	11702.61
624.072	11624.78
624.267	11620.69
624.462	11614.54
624.656	11352.4
624.851	11424.08
625.046	11315.54
625.24	11241.81
625.435	11108.69
625.629	11012.44
625.824	11092.31
626.018	10916.19
626.213	10910.04
626.407	10967.38
626.602	10770.78
626.796	11090.26
626.991	10709.34
627.185	10740.06
627.38	10580.32
627.574	10828.12
627.768	10342.75
627.963	10561.89
628.157	10461.54
628.352	10408.29
628.546	10449.25
628.74	10359.14
628.935	10023.27
629.129	10326.37
629.323	9982.31
629.517	10045.8
629.712	9933.16
629.906	10010.98
630.1	9800.04
630.294	9951.59
630.489	9875.82
630.683	9920.87
630.877	9642.35
631.071	9656.68
631.265	9871.72
631.459	9361.78
631.653	9523.57
631.848	9199.99
632.042	9462.13
632.236	9496.94
632.43	9195.89
632.624	9238.9
632.818	9331.06
633.012	9032.05
633.206	8995.19
633.4	9150.84
633.594	9118.07
633.788	8941.94
633.982	8839.55
634.176	8909.18
634.369	8628.6
634.563	8737.15
634.757	8536.45
634.951	8839.55
635.145	8638.84
635.339	8737.15
635.533	8548.73
635.726	8628.6
635.92	8411.52
636.114	8597.88
636.308	8231.3
636.501	8450.43
636.695	8456.57
636.889	8163.72
637.083	8280.45
637.276	8253.83
637.47	8141.19
637.664	7913.86
637.857	8268.16
638.051	8044.93
638.244	7993.73
638.438	7930.25
638.632	7997.83
638.825	7807.37
639.019	7946.63
639.212	7725.45
639.406	7760.27
639.599	7653.77
639.793	7604.62
639.986	7567.76
640.18	7575.95
640.373	7518.61
640.567	7537.04
640.76	7367.06
640.954	7289.23
641.147	7295.38
641.34	7313.81
641.534	7229.84
641.727	7109.01
641.92	7285.14
642.114	7192.98
642.307	7129.49
642.5	7154.07
642.694	6869.4
642.887	6930.84
643.08	7045.52
643.273	6838.68
643.467	6887.83
643.66	7025.04
643.853	6830.49
644.046	6676.89
644.239	6814.1
644.432	6678.94
644.626	6742.43
644.819	6703.51
645.012	6545.82
645.205	6785.43
645.398	6541.72
645.591	6539.68
645.784	6422.94
645.977	6291.87
646.17	6334.88
646.363	6345.12
646.556	6281.63
646.749	6240.67
646.942	6224.29
647.135	6199.71
647.328	6191.52
647.521	6105.51
647.714	5994.92
647.907	6087.08
648.099	5996.96
648.292	5927.33
648.485	6109.6
648.678	5902.76
648.871	5958.05
649.064	5749.16
649.256	5999.01
649.449	5759.4
649.642	5888.42
649.835	5695.91
650.027	5796.26
650.22	5685.67
650.413	5677.48
650.605	5575.08
650.798	5589.42
650.991	5550.51
651.183	5484.97
651.376	5532.08
651.568	5460.4
651.761	5378.48
651.954	5433.77
652.146	5403.05
652.339	5292.46
652.531	5427.63
652.724	5376.43
652.916	5214.64
653.109	5188.02
653.301	5241.26
653.494	5224.88
653.686	5173.68
653.879	5222.83
654.071	5198.26
654.263	5058.99
654.456	4891.06
654.648	4938.16
654.84	4897.21
655.033	4964.79
655.225	4819.38
655.417	4960.69
655.61	5007.8
655.802	4897.21
655.994	4813.24
656.186	4960.69
656.379	4917.68
656.571	4878.77
656.763	4743.61
656.955	4573.63
657.148	4733.37
657.34	4696.5
657.532	4620.73
657.724	4653.5
657.916	4598.2
658.108	4673.98
658.3	4491.71
658.492	4547
658.684	4448.7
658.876	4456.89
659.068	4454.84
659.26	4389.31
659.452	4245.95
659.644	4331.97
659.836	4524.47
660.028	4385.21
660.22	4284.86
660.412	4305.34
660.604	4143.55
660.796	4104.64
660.988	4291.01
661.18	4280.77
661.372	4209.09
661.563	4207.04
661.755	4145.6
661.947	4069.83
662.139	4096.45
662.331	4178.37
662.522	4182.46
662.714	4157.89
662.906	4182.46
663.097	4186.56
663.289	3881.41
663.481	4016.58
663.673	4061.63
663.864	3996.1
664.056	3914.18
664.247	3936.71
664.439	3908.04
664.631	3858.89
664.822	3967.43
665.014	3733.96
665.205	3744.2
665.397	3789.25
665.588	3787.21
665.78	3727.82
665.971	3719.62
666.163	3813.83
666.354	3678.66
666.546	3631.56
666.737	3535.31
666.929	3744.2
667.12	3690.95
667.311	3498.44
667.503	3613.13
667.694	3551.69
667.885	3408.33
668.077	3529.16
668.268	3537.35
668.459	3488.2
668.651	3412.43
668.842	3520.97
669.033	3389.9
669.224	3533.26
669.416	3398.09
669.607	3469.77
669.798	3367.37
669.989	3445.2
670.18	3287.5
670.371	3361.23
670.563	3326.41
670.754	3400.14
670.945	3297.74
671.136	3355.08
671.327	3295.69
671.518	3379.66
671.709	3293.65
671.9	3381.71
672.091	3064.27
672.282	3129.81
672.473	3088.85
672.664	3203.54
672.855	3090.9
673.046	3162.58
673.237	3178.96
673.428	3023.31
673.619	3176.91
673.809	3224.01
674	3117.52
674.191	3183.06
674.382	3138
674.573	3150.29
674.764	3025.36
674.954	3131.86
675.145	3082.7
675.336	3076.56
675.527	2953.68
675.717	3138
675.908	3000.79
676.099	2982.35
676.289	2978.26
676.48	3043.79
676.671	2988.5
676.861	2953.68
677.052	2920.92
677.243	2888.15
677.433	2900.44
677.624	2941.4
677.814	2922.96
678.005	2965.97
678.195	3051.99
678.386	2916.82
678.576	2896.34
678.767	2767.32
678.957	2941.4
679.148	2712.02
679.338	2757.08
679.529	2716.12
679.719	2798.04
679.909	2976.21
680.1	2773.46
680.29	2826.71
680.481	2877.91
680.671	2892.24
680.861	2767.32
681.052	2673.11
681.242	2798.04
681.432	2892.24
681.622	2718.17
681.813	2632.15
682.003	2736.6
682.193	2685.4
682.383	2669.02
682.573	2812.37
682.764	2888.15
682.954	2693.59
683.144	2800.09
683.334	2709.97
683.524	2816.47
683.714	2773.46
683.904	2712.02
684.094	2728.41
684.284	2642.39
684.474	2652.63
684.664	2576.86
684.854	2763.22
685.044	2564.57
685.234	2583
685.424	2593.24
685.614	2564.57
685.804	2693.59
685.994	2605.53
686.184	2638.3
686.374	2656.73
686.564	2505.18
686.753	2619.86
686.943	2507.23
687.133	2556.38
687.323	2599.38
687.513	2503.13
687.702	2613.72
687.892	2642.39
688.082	2503.13
688.272	2494.94
688.461	2552.28
688.651	2533.85
688.841	2525.66
689.03	2433.5
689.22	2404.83
689.41	2507.23
689.599	2439.64
689.789	2554.33
689.979	2453.98
690.168	2462.17
690.358	2388.44
690.547	2451.93
690.737	2349.53
690.926	2402.78
691.116	2333.15
691.305	2388.44
691.495	2363.87
691.684	2460.12
691.874	2384.35
692.063	2226.65
692.252	2265.57
692.442	2361.82
692.631	2390.49
692.82	2255.33
693.01	2279.9
693.199	2232.8
693.388	2251.23
693.578	2232.8
693.767	2222.56
693.956	2296.28
694.146	2224.61
694.335	2230.75
694.524	2214.37
694.713	2251.23
694.902	2294.24
695.092	2292.19
695.281	2263.52
695.47	2224.61
695.659	2247.13
695.848	2163.17
696.037	2191.84
696.226	2281.95
696.415	2081.25
696.604	2243.04
696.793	2150.88
696.982	2163.17
697.171	2304.48
697.36	2384.35
697.549	2173.41
697.738	2187.74
697.927	2062.82
698.116	2290.14
698.305	2200.03
698.494	2179.55
698.683	2236.89
698.872	2159.07
699.061	2187.74
699.25	2234.85
699.438	2185.69
699.627	2218.46
699.816	2128.35
700.005	2179.55
700.193	2236.89
700.382	2150.88
700.571	2200.03
700.76	2189.79
700.948	2195.93
701.137	2148.83
701.326	2130.4
701.514	2015.71
701.703	2138.59
701.892	2097.63
702.08	2171.36
702.269	2191.84
702.457	2150.88
702.646	2202.08
702.834	2185.69
703.023	2126.3
703.212	2236.89
703.4	2267.61
703.589	2238.94
703.777	2230.75
703.965	2238.94
704.154	2118.11
704.342	2333.15
704.531	2093.54
704.719	2179.55
704.907	2249.18
705.096	2052.58
705.284	2193.89
705.472	2185.69
705.661	2281.95
705.849	2179.55
706.037	2142.69
706.226	2228.7
706.414	2271.71
706.602	2140.64
706.79	2169.31
706.979	2083.3
707.167	2236.89
707.355	2208.22
707.543	2234.85
707.731	2257.37
707.919	2152.93
708.107	2154.98
708.296	2263.52
708.484	2175.45
708.672	2224.61
708.86	2277.85
709.048	2226.65
709.236	2187.74
709.424	2167.26
709.612	2185.69
709.8	2236.89
709.988	2052.58
710.176	2191.84
710.364	2228.7
710.551	2185.69
710.739	2232.8
710.927	2185.69
711.115	2167.26
711.303	2193.89
711.491	2249.18
711.679	2120.16
711.866	2179.55
712.054	2277.85
712.242	2169.31
712.43	2171.36
712.617	2191.84
712.805	2173.41
712.993	2175.45
713.181	2062.82
713.368	2142.69
713.556	2154.98
713.744	2036.19
713.931	2243.04
714.119	2132.45
714.306	2138.59
714.494	2159.07
714.682	2118.11
714.869	2032.1
715.057	2179.55
715.244	2073.06
715.432	2146.78
715.619	2060.77
715.807	2105.82
715.994	2191.84
716.182	2136.54
716.369	2212.32
716.556	2146.78
716.744	2003.43
716.931	2118.11
717.119	2173.41
717.306	2107.87
717.493	2193.89
717.681	2185.69
717.868	2161.12
718.055	2124.26
718.242	2091.49
718.43	2163.17
718.617	2111.97
718.804	2122.21
718.991	2220.51
719.179	2142.69
719.366	2046.43
719.553	2118.11
719.74	2066.91
719.927	2087.39
720.114	2134.5
720.301	2193.89
720.488	2150.88
720.676	1995.23
720.863	2089.44
721.05	2128.35
721.237	2167.26
721.424	2144.74
721.611	2023.91
721.798	2154.98
721.985	2122.21
722.172	1946.08
722.358	2140.64
722.545	2083.3
722.732	2284
722.919	1935.84
723.106	2173.41
723.293	2077.15
723.48	2042.34
723.667	2091.49
723.853	2030.05
724.04	2073.06
724.227	2007.52
724.414	2116.06
724.6	2048.48
724.787	2120.16
724.974	1995.23
725.161	2066.91
725.347	2079.2
725.534	2122.21
725.72	2044.38
725.907	2040.29
726.094	2023.91
726.28	2089.44
726.467	1991.14
726.653	2048.48
726.84	2175.45
727.027	2173.41
727.213	2052.58
727.4	2118.11
727.586	2075.1
727.773	2075.1
727.959	2177.5
728.145	2038.24
728.332	2159.07
728.518	2015.71
728.705	2157.02
728.891	1995.23
729.077	1980.9
729.264	2097.63
729.45	1989.09
729.636	2087.39
729.823	2009.57
730.009	2044.38
730.195	2011.62
730.382	2060.77
730.568	2052.58
730.754	2050.53
730.94	1968.61
731.126	2054.62
731.313	2150.88
731.499	2032.1
731.685	2068.96
731.871	1995.23
732.057	2081.25
732.243	2085.34
732.429	1989.09
732.615	2048.48
732.801	1913.31
732.987	2011.62
733.173	2025.95
733.359	1948.13
733.545	2052.58
733.731	1896.93
733.917	2032.1
734.103	2052.58
734.289	1929.7
734.475	1987.04
734.661	1952.23
734.847	2048.48
735.033	1997.28
735.219	1933.79
735.404	2058.72
735.59	1984.99
735.776	2028
735.962	2085.34
736.148	1923.55
736.333	1950.18
736.519	1987.04
736.705	2034.14
736.89	2036.19
737.076	1980.9
737.262	1872.36
737.447	1962.47
737.633	1849.83
737.819	1995.23
738.004	1812.96
738.19	1888.74
738.375	1886.69
738.561	1954.27
738.747	1946.08
738.932	1911.27
739.118	1913.31
739.303	1925.6
739.489	1927.65
739.674	1747.43
739.859	1909.22
740.045	1821.16
740.23	1927.65
740.416	1886.69
740.601	1833.44
740.786	1927.65
740.972	1921.51
741.157	1851.88
741.342	1845.73
741.528	1868.26
741.713	1892.84
741.898	1843.68
742.084	1792.48
742.269	1825.25
742.454	1815.01
742.639	2003.43
742.824	1870.31
743.01	1808.87
743.195	1774.05
743.38	1767.91
743.565	1749.48
743.75	1729
743.935	1802.72
744.12	1753.57
744.305	1841.64
744.49	1606.12
744.675	1700.33
744.86	1694.18
745.045	1698.28
745.23	1751.53
745.415	1685.99
745.6	1757.67
745.785	1647.08
745.97	1636.84
746.155	1520.1
746.34	1714.66
746.525	1659.37
746.71	1642.98
746.895	1675.75
747.079	1614.31
747.264	1731.05
747.449	1624.55
747.634	1628.65
747.819	1645.03
748.003	1518.06
748.188	1649.13
748.373	1642.98
748.557	1559.02
748.742	1532.39
748.927	1413.61
749.111	1503.72
749.296	1485.29
749.481	1554.92
749.665	1544.68
749.85	1483.24
750.034	1458.67
750.219	1386.99
750.404	1386.99
750.588	1505.77
750.773	1409.51
750.957	1352.17
751.141	1323.5
751.326	1348.08
751.51	1423.85
751.695	1386.99
751.879	1370.6
752.064	1436.14
752.248	1370.6
752.432	1360.36
752.617	1362.41
752.801	1335.79
752.985	1348.08
753.17	1290.73
753.354	1243.63
753.538	1217.01
753.722	1212.91
753.907	1278.44
754.091	1214.96
754.275	1210.86
754.459	1237.49
754.643	1233.39
754.828	1245.68
755.012	1229.29
755.196	1178.09
755.38	1163.76
755.564	1212.91
755.748	1214.96
755.932	1184.24
756.116	1180.14
756.3	1180.14
756.484	1184.24
756.668	1149.42
756.852	1122.8
757.036	1239.53
757.22	1139.18
757.404	1044.98
757.588	1094.13
757.772	1053.17
757.956	1090.03
758.14	1075.7
758.323	1047.02
758.507	1022.45
758.691	1028.59
758.875	1044.98
759.059	1090.03
759.242	1171.95
759.426	1067.5
759.61	1032.69
759.794	1077.74
759.977	1053.17
760.161	1137.13
760.345	1012.21
760.528	1032.69
760.712	909.81
760.895	1053.17
761.079	1038.83
761.263	905.71
761.446	897.52
761.63	969.2
761.813	989.68
761.997	932.34
762.18	922.1
762.364	971.25
762.547	870.9
762.731	885.23
762.914	969.2
763.098	946.67
763.281	915.95
763.464	915.95
763.648	934.39
763.831	911.86
764.015	862.71
764.198	864.75
764.381	934.39
764.564	897.52
764.748	973.3
764.931	903.67
765.114	834.04
765.297	926.19
765.481	874.99
765.664	915.95
765.847	1008.11
766.03	940.53
766.213	782.84
766.397	895.47
766.58	815.6
766.763	842.23
766.946	958.96
767.129	791.03
767.312	926.19
767.495	907.76
767.678	858.61
767.861	813.56
768.044	774.64
768.227	819.7
768.41	819.7
768.593	858.61
768.776	762.36
768.959	829.94
769.142	834.04
769.324	756.21
769.507	780.79
769.69	762.36
769.873	737.78
770.056	860.66
770.239	844.28
770.421	813.56
770.604	758.26
770.787	887.28
770.97	788.98
771.152	807.41
771.335	762.36
771.518	731.64
771.7	795.12
771.883	709.11
772.066	782.84
772.248	700.92
772.431	795.12
772.613	811.51
772.796	723.44
772.978	713.21
773.161	682.49
773.343	713.21
773.526	672.25
773.708	711.16
773.891	680.44
774.073	659.96
774.256	680.44
774.438	672.25
774.621	686.58
774.803	725.49
774.985	651.77
775.168	717.3
775.35	590.33
775.532	631.29
775.715	686.58
775.897	674.29
776.079	702.97
776.261	676.34
776.444	598.52
776.626	612.85
776.808	637.43
776.99	625.14
777.173	563.7
777.355	545.27
777.537	565.75
777.719	575.99
777.901	590.33
778.083	559.61
778.265	580.09
778.447	600.57
778.629	543.22
778.811	569.85
778.993	514.55
779.175	561.66
779.357	496.12
779.539	535.03
779.721	569.85
779.903	565.75
780.085	602.61
780.267	492.02
780.449	518.65
780.631	502.26
780.812	555.51
780.994	498.17
781.176	545.27
781.358	496.12
781.54	473.59
781.721	428.54
781.903	528.89
782.085	496.12
782.267	586.23
782.448	532.98
782.63	539.13
782.812	465.4
782.993	393.72
783.175	498.17
783.357	406.01
783.538	479.74
783.72	381.43
783.901	504.31
784.083	440.83
784.264	512.5
784.446	383.48
784.627	455.16
784.809	424.44
784.99	373.24
785.172	403.96
785.353	346.62
785.535	414.2
785.716	416.25
785.897	369.15
786.079	430.59
786.26	487.93
786.441	395.77
786.623	348.67
786.804	438.78
786.985	352.76
787.167	406.01
787.348	311.8
787.529	434.68
787.71	334.33
787.891	317.95
788.073	391.67
788.254	354.81
788.435	324.09
788.616	344.57
788.797	467.45
788.978	375.29
789.159	293.37
789.34	338.43
789.522	317.95
789.703	299.52
789.884	262.65
790.065	412.15
790.246	276.99
790.427	385.53
790.607	363
790.788	451.07
790.969	303.61
791.15	266.75
791.331	262.65
791.512	301.56
791.693	283.13
791.874	385.53
792.054	403.96
792.235	369.15
792.416	379.39
792.597	311.8
792.778	264.7
792.958	322.04
793.139	332.28
793.32	256.51
793.5	260.6
793.681	373.24
793.862	190.97
794.042	250.36
794.223	276.99
794.404	279.04
794.584	279.04
794.765	342.52
794.945	293.37
795.126	373.24
795.306	328.19
795.487	276.99
795.667	270.84
795.848	305.66
796.028	276.99
796.209	213.5
796.389	315.9
796.57	307.71
796.75	258.56
796.93	283.13
797.111	240.12
797.291	229.88
797.471	270.84
797.652	229.88
797.832	240.12
798.012	250.36
798.192	250.36
798.373	260.6
798.553	221.69
798.733	207.36
798.913	213.5
799.093	227.84
799.274	260.6
799.454	276.99
799.634	227.84
799.814	221.69
799.994	229.88
800.174	225.79
800.354	182.78
800.534	174.59
800.714	252.41
800.894	221.69
801.074	270.84
801.254	182.78
801.434	184.83
801.614	133.63
801.794	164.35
801.974	582.14
802.154	152.06
802.334	225.79
802.514	188.93
802.693	131.58
802.873	201.21
803.053	211.45
803.233	260.6
803.413	199.16
803.592	160.25
803.772	266.75
803.952	197.12
804.131	223.74
804.311	213.5
804.491	207.36
804.67	170.49
804.85	119.29
805.03	184.83
805.209	205.31
805.389	131.58
805.568	170.49
805.748	80.38
805.928	236.03
806.107	178.69
806.287	150.01
806.466	213.5
806.646	152.06
806.825	115.2
807.004	166.4
807.184	242.17
807.363	150.01
807.543	127.49
807.722	166.4
807.901	162.3
808.081	176.64
808.26	102.91
808.439	197.12
808.619	186.88
808.798	143.87
808.977	211.45
809.156	201.21
809.336	190.97
809.515	172.54
809.694	139.77
809.873	88.57
810.052	180.73
810.231	297.47
810.411	201.21
810.59	209.4
810.769	158.21
810.948	197.12
811.127	111.1
811.306	193.02
811.485	121.34
811.664	213.5
811.843	166.4
812.022	190.97
812.201	90.62
812.38	170.49
812.559	158.21
812.737	49.66
812.916	147.97
813.095	133.63
813.274	137.73
813.453	188.93
813.632	109.05
813.811	205.31
813.989	119.29
814.168	113.15
814.347	129.53
814.526	172.54
814.704	139.77
814.883	104.96
815.062	104.96
815.24	150.01
815.419	100.86
815.598	166.4
815.776	57.86
815.955	154.11
816.133	131.58
816.312	113.15
816.49	131.58
816.669	197.12
816.847	57.86
817.026	123.39
817.204	193.02
817.383	82.43
817.561	123.39
817.74	98.81
817.918	98.81
818.097	162.3
818.275	143.87
818.453	109.05
818.632	98.81
818.81	109.05
818.988	115.2
819.167	117.25
819.345	145.92
819.523	59.9
819.701	133.63
819.879	174.59
820.058	121.34
820.236	100.86
820.414	96.77
820.592	86.53
820.77	61.95
820.948	92.67
821.127	109.05
821.305	121.34
821.483	88.57
821.661	125.44
821.839	119.29
822.017	18.94
822.195	57.86
822.373	195.07
822.551	47.62
822.729	150.01
822.907	115.2
823.085	174.59
823.262	131.58
823.44	98.81
823.618	80.38
823.796	135.68
823.974	125.44
824.152	88.57
824.329	74.24
824.507	90.62
824.685	107.01
824.863	102.91
825.04	49.66
825.218	90.62
825.396	53.76
825.574	39.42
825.751	100.86
825.929	86.53
826.107	147.97
826.284	129.53
826.462	109.05
826.639	88.57
826.817	76.29
826.994	49.66
827.172	-13.82
827.349	115.2
827.527	70.14
827.704	70.14
827.882	78.33
828.059	139.77
828.237	82.43
828.414	66.05
828.591	-13.82
828.769	76.29
828.946	55.81
829.124	117.25
829.301	59.9
829.478	49.66
829.655	-11.78
829.833	31.23
830.01	29.18
830.187	125.44
830.364	100.86
830.542	70.14
830.719	70.14
830.896	94.72
831.073	119.29
831.25	82.43
831.427	133.63
831.604	61.95
831.782	82.43
831.959	53.76
832.136	94.72
832.313	139.77
832.49	90.62
832.667	-13.82
832.844	94.72
833.021	104.96
833.198	84.48
833.374	64
833.551	94.72
833.728	70.14
833.905	47.62
834.082	61.95
834.259	84.48
834.436	152.06
834.612	76.29
834.789	74.24
834.966	47.62
835.143	0.51
835.319	64
835.496	66.05
835.673	174.59
835.85	94.72
836.026	68.09
836.203	33.28
836.38	55.81
836.556	127.49
836.733	61.95
836.909	20.99
837.086	16.9
837.262	66.05
837.439	35.33
837.616	117.25
837.792	4.61
837.968	72.19
838.145	47.62
838.321	82.43
838.498	45.57
838.674	131.58
838.851	66.05
839.027	2.56
839.203	57.86
839.38	70.14
839.556	-7.68
839.732	82.43
839.909	25.09
840.085	78.33
840.261	37.38
840.437	43.52
840.614	66.05
840.79	76.29
840.966	20.99
841.142	45.57
841.318	88.57
841.494	37.38
841.671	53.76
841.847	82.43
842.023	76.29
842.199	66.05
842.375	8.7
842.551	2.56
842.727	68.09
842.903	98.81
843.079	35.33
843.255	25.09
843.431	-50.69
843.607	78.33
843.783	-60.93
843.959	61.95
844.134	64
844.31	76.29
844.486	14.85
844.662	31.23
844.838	78.33
845.013	27.14
845.189	82.43
845.365	80.38
845.541	92.67
845.716	35.33
845.892	94.72
846.068	92.67
846.244	12.8
846.419	57.86
846.595	59.9
846.77	64
846.946	12.8
847.122	53.76
847.297	-9.73
847.473	2.56
847.648	35.33
847.824	-3.58
847.999	18.94
848.175	-7.68
848.35	18.94
848.526	-48.64
848.701	-5.63
848.876	25.09
849.052	31.23
849.227	6.66
849.403	135.68
849.578	12.8
849.753	53.76
849.929	66.05
850.104	-15.87
850.279	45.57
850.454	23.04
850.63	102.91
850.805	27.14
850.98	90.62
851.155	-36.35
851.33	45.57
851.505	29.18
851.681	57.86
851.856	-7.68
852.031	35.33
852.206	98.81
852.381	25.09
852.556	12.8
852.731	78.33
852.906	53.76
853.081	55.81
853.256	119.29
853.431	-26.11
853.606	0.51
853.781	25.09
853.956	-36.35
854.131	14.85
854.305	-3.58
854.48	23.04
854.655	-15.87
854.83	-19.97
855.005	10.75
855.18	12.8
855.354	14.85
855.529	82.43
855.704	25.09
855.879	49.66
856.053	39.42
856.228	27.14
856.403	-17.92
856.577	31.23
856.752	33.28
856.926	90.62
857.101	-15.87
857.276	64
857.45	68.09
857.625	39.42
857.799	-11.78
857.974	39.42
858.148	-34.3
858.323	4.61
858.497	-17.92
858.672	-7.68
858.846	98.81
859.02	35.33
859.195	20.99
859.369	-17.92
859.543	33.28
859.718	39.42
859.892	51.71
860.066	86.53
860.241	12.8
860.415	72.19
860.589	88.57
860.763	33.28
860.938	23.04
861.112	57.86
861.286	16.9
861.46	0.51
861.634	72.19
861.808	107.01
861.982	53.76
862.157	64
862.331	-28.16
862.505	-42.5
862.679	-15.87
862.853	-50.69
863.027	8.7
863.201	59.9
863.375	-48.64
863.549	-15.87
863.722	-22.02
863.896	43.52
864.07	-34.3
864.244	18.94
864.418	61.95
864.592	-9.73
864.766	49.66
864.939	10.75
865.113	-17.92
865.287	37.38
865.461	-67.07
865.634	39.42
865.808	35.33
865.982	59.9
866.156	2.56
866.329	-13.82
866.503	59.9
866.676	-3.58
866.85	6.66
867.024	68.09
867.197	70.14
867.371	47.62
867.544	31.23
867.718	39.42
867.891	76.29
868.065	12.8
868.238	-24.06
868.412	39.42
868.585	-36.35
868.759	70.14
868.932	-3.58
869.105	18.94
869.279	-46.59
869.452	57.86
869.625	31.23
869.799	8.7
869.972	-28.16
870.145	-24.06
870.319	29.18
870.492	-1.54
870.665	4.61
870.838	35.33
871.011	-28.16
871.185	18.94
871.358	53.76
871.531	64
871.704	-22.02
871.877	57.86
872.05	-9.73
872.223	-3.58
872.396	-32.26
872.569	0.51
872.742	55.81
872.915	43.52
873.088	-30.21
873.261	35.33
873.434	49.66
873.607	53.76
873.78	12.8
873.953	53.76
874.126	2.56
874.299	23.04
874.471	20.99
874.644	51.71
874.817	35.33
874.99	80.38
875.163	6.66
875.335	-1.54
875.508	-1.54
875.681	20.99
875.853	33.28
876.026	74.24
876.199	20.99
876.371	6.66
876.544	-40.45
876.717	29.18
876.889	29.18
877.062	35.33
877.234	74.24
877.407	-13.82
877.579	43.52
877.752	49.66
877.924	35.33
878.097	-73.21
878.269	68.09
878.442	12.8
878.614	84.48
878.786	41.47
878.959	23.04
879.131	8.7
879.303	-65.02
879.476	-17.92
879.648	-24.06
879.82	92.67
879.993	43.52
880.165	37.38
880.337	31.23
880.509	25.09
880.681	18.94
880.854	16.9
881.026	25.09
881.198	92.67
881.37	33.28
881.542	107.01
881.714	25.09
881.886	-34.3
882.058	-28.16
882.23	16.9
882.402	8.7
882.574	-26.11
882.746	20.99
882.918	20.99
883.09	0.51
883.262	20.99
883.434	8.7
883.606	-1.54
883.778	23.04
883.95	33.28
884.122	10.75
884.293	64
884.465	-17.92
884.637	12.8
884.809	14.85
884.98	70.14
885.152	12.8
885.324	39.42
885.496	-34.3
885.667	20.99
885.839	-24.06
886.011	41.47
886.182	6.66
886.354	-26.11
886.525	-24.06
886.697	6.66
886.869	-60.93
887.04	-15.87
887.212	-15.87
887.383	16.9
887.555	-50.69
887.726	16.9
887.897	-42.5
888.069	0.51
888.24	49.66
888.412	31.23
888.583	-15.87
888.754	80.38
888.926	-9.73
889.097	115.2
889.268	37.38
889.44	-48.64
889.611	37.38
889.782	53.76
889.953	-24.06
890.125	12.8
890.296	-75.26
890.467	29.18
890.638	23.04
890.809	-42.5
890.98	-15.87
891.151	12.8
891.323	-40.45
891.494	10.75
891.665	-44.54
891.836	74.24
892.007	29.18
892.178	37.38
892.349	-24.06
892.52	-11.78
892.691	39.42
892.862	16.9
893.032	-69.12
893.203	45.57
893.374	43.52
893.545	39.42
893.716	-3.58
893.887	31.23
894.057	80.38
894.228	41.47
894.399	-11.78
894.57	35.33
894.74	10.75
894.911	43.52
895.082	-38.4
895.253	2.56
895.423	-7.68
895.594	49.66
895.764	18.94
895.935	-28.16
896.106	-1.54
896.276	0.51
896.447	37.38
896.617	66.05
896.788	14.85
896.958	27.14
897.129	-17.92
897.299	-34.3
897.47	-22.02
897.64	59.9
897.81	84.48
897.981	-13.82
898.151	-26.11
898.322	-7.68
898.492	27.14
898.662	-34.3
898.832	20.99
899.003	6.66
899.173	-32.26
899.343	-7.68
899.513	10.75
