Data from USB4F104151__60__11-05-57-026.txt Node

Date: Wed Mar 12 11:05:57 EDT 2025
User: louis
Spectrometer: USB4F10415
Trigger mode: 4
Integration Time (sec): 2.000000E-2
Scans to average: 1
Electric dark correction enabled: true
Nonlinearity correction enabled: false
Boxcar width: 0
XAxis mode: Wavelengths
Number of Pixels in Spectrum: 3648
>>>>>Begin Spectral Data<<<<<
178.204	-79.36
178.424	-79.36
178.644	-79.36
178.864	-120.32
179.084	-97.79
179.304	25.09
179.524	-15.87
179.744	-1.54
179.964	-13.82
180.184	10.75
180.404	-26.11
180.624	-54.78
180.844	92.67
181.064	-32.26
181.283	25.09
181.503	-56.83
181.723	47.62
181.943	51.71
182.163	23.04
182.383	12.8
182.602	45.57
182.822	131.58
183.042	-17.92
183.262	-28.16
183.482	25.09
183.701	-32.26
183.921	-11.78
184.141	-15.87
184.361	31.23
184.58	41.47
184.8	-9.73
185.02	-5.63
185.239	64
185.459	-9.73
185.679	41.47
185.898	-17.92
186.118	18.94
186.338	20.99
186.557	84.48
186.777	6.66
186.997	-19.97
187.216	29.18
187.436	47.62
187.655	25.09
187.875	29.18
188.095	35.33
188.314	45.57
188.534	29.18
188.753	-36.35
188.973	84.48
189.192	-1.54
189.412	12.8
189.631	16.9
189.851	49.66
190.07	80.38
190.29	10.75
190.509	6.66
190.729	-50.69
190.948	59.9
191.168	31.23
191.387	33.28
191.607	-15.87
191.826	-38.4
192.045	47.62
192.265	-67.07
192.484	-19.97
192.704	14.85
192.923	53.76
193.142	45.57
193.362	14.85
193.581	88.57
193.8	-5.63
194.02	10.75
194.239	4.61
194.458	-22.02
194.678	-1.54
194.897	-44.54
195.116	-22.02
195.335	96.77
195.555	8.7
195.774	10.75
195.993	-9.73
196.212	8.7
196.432	-17.92
196.651	33.28
196.87	6.66
197.089	102.91
197.308	-1.54
197.528	12.8
197.747	-5.63
197.966	-15.87
198.185	20.99
198.404	23.04
198.623	-75.26
198.842	27.14
199.062	23.04
199.281	70.14
199.5	27.14
199.719	92.67
199.938	0.51
200.157	47.62
200.376	-7.68
200.595	59.9
200.814	35.33
201.033	43.52
201.252	25.09
201.471	43.52
201.69	-17.92
201.909	-17.92
202.128	35.33
202.347	92.67
202.566	-17.92
202.785	55.81
203.004	-11.78
203.223	29.18
203.442	-54.78
203.661	47.62
203.879	20.99
204.098	18.94
204.317	0.51
204.536	25.09
204.755	51.71
204.974	47.62
205.193	23.04
205.411	-5.63
205.63	-9.73
205.849	-7.68
206.068	16.9
206.287	-1.54
206.505	37.38
206.724	37.38
206.943	57.86
207.162	25.09
207.381	43.52
207.599	-30.21
207.818	35.33
208.037	-7.68
208.255	-38.4
208.474	76.29
208.693	16.9
208.911	14.85
209.13	47.62
209.349	162.3
209.567	-36.35
209.786	8.7
210.005	-34.3
210.223	-34.3
210.442	33.28
210.661	23.04
210.879	-11.78
211.098	-42.5
211.316	-13.82
211.535	-24.06
211.753	33.28
211.972	8.7
212.191	88.57
212.409	-17.92
212.628	90.62
212.846	-36.35
213.065	-26.11
213.283	53.76
213.502	27.14
213.72	-42.5
213.938	35.33
214.157	-28.16
214.375	-13.82
214.594	-36.35
214.812	-15.87
215.031	31.23
215.249	68.09
215.467	18.94
215.686	0.51
215.904	-19.97
216.122	33.28
216.341	-3.58
216.559	16.9
216.778	74.24
216.996	35.33
217.214	39.42
217.432	-38.4
217.651	51.71
217.869	-3.58
218.087	-48.64
218.306	-13.82
218.524	76.29
218.742	47.62
218.96	47.62
219.179	-5.63
219.397	-24.06
219.615	109.05
219.833	16.9
220.051	-65.02
220.27	12.8
220.488	84.48
220.706	6.66
220.924	-44.54
221.142	37.38
221.36	-48.64
221.578	-1.54
221.796	35.33
222.015	-7.68
222.233	-19.97
222.451	78.33
222.669	59.9
222.887	0.51
223.105	-22.02
223.323	0.51
223.541	-11.78
223.759	0.51
223.977	8.7
224.195	2.56
224.413	70.14
224.631	55.81
224.849	-17.92
225.067	18.94
225.285	27.14
225.503	68.09
225.721	-56.83
225.939	16.9
226.157	25.09
226.375	31.23
226.592	10.75
226.81	8.7
227.028	72.19
227.246	78.33
227.464	20.99
227.682	-22.02
227.9	12.8
228.117	18.94
228.335	64
228.553	31.23
228.771	49.66
228.989	-9.73
229.206	72.19
229.424	33.28
229.642	16.9
229.86	59.9
230.077	37.38
230.295	61.95
230.513	66.05
230.731	78.33
230.948	49.66
231.166	-30.21
231.384	-36.35
231.601	14.85
231.819	150.01
232.037	68.09
232.254	39.42
232.472	84.48
232.689	8.7
232.907	35.33
233.125	49.66
233.342	-30.21
233.56	2.56
233.777	49.66
233.995	25.09
234.213	55.81
234.43	8.7
234.648	-9.73
234.865	-9.73
235.083	31.23
235.3	10.75
235.518	31.23
235.735	43.52
235.953	35.33
236.17	47.62
236.388	88.57
236.605	10.75
236.822	14.85
237.04	72.19
237.257	78.33
237.475	-3.58
237.692	70.14
237.909	0.51
238.127	6.66
238.344	-5.63
238.562	0.51
238.779	0.51
238.996	-32.26
239.214	-22.02
239.431	64
239.648	6.66
239.865	-22.02
240.083	49.66
240.3	43.52
240.517	18.94
240.735	78.33
240.952	31.23
241.169	72.19
241.386	55.81
241.603	14.85
241.821	-3.58
242.038	-26.11
242.255	8.7
242.472	16.9
242.689	-48.64
242.907	0.51
243.124	0.51
243.341	14.85
243.558	-3.58
243.775	-15.87
243.992	-38.4
244.209	-48.64
244.426	16.9
244.643	-40.45
244.86	27.14
245.078	-5.63
245.295	47.62
245.512	27.14
245.729	-22.02
245.946	8.7
246.163	41.47
246.38	45.57
246.597	74.24
246.814	64
247.031	-17.92
247.248	37.38
247.464	64
247.681	16.9
247.898	-13.82
248.115	10.75
248.332	2.56
248.549	102.91
248.766	70.14
248.983	35.33
249.2	-30.21
249.417	-34.3
249.633	2.56
249.85	109.05
250.067	35.33
250.284	6.66
250.501	35.33
250.717	61.95
250.934	-34.3
251.151	14.85
251.368	84.48
251.585	29.18
251.801	27.14
252.018	35.33
252.235	25.09
252.451	-22.02
252.668	0.51
252.885	-44.54
253.102	0.51
253.318	-32.26
253.535	39.42
253.752	64
253.968	39.42
254.185	74.24
254.401	39.42
254.618	-19.97
254.835	27.14
255.051	61.95
255.268	41.47
255.484	45.57
255.701	29.18
255.917	6.66
256.134	57.86
256.351	23.04
256.567	12.8
256.784	-46.59
257	-11.78
257.217	18.94
257.433	-9.73
257.65	72.19
257.866	-11.78
258.082	61.95
258.299	84.48
258.515	23.04
258.732	-1.54
258.948	-7.68
259.165	14.85
259.381	6.66
259.597	57.86
259.814	74.24
260.03	-42.5
260.246	55.81
260.463	92.67
260.679	18.94
260.895	59.9
261.112	-9.73
261.328	88.57
261.544	37.38
261.761	66.05
261.977	-9.73
262.193	-62.98
262.409	59.9
262.626	12.8
262.842	12.8
263.058	-36.35
263.274	-17.92
263.49	64
263.707	72.19
263.923	-54.78
264.139	-9.73
264.355	27.14
264.571	-11.78
264.787	84.48
265.004	-34.3
265.22	31.23
265.436	-30.21
265.652	31.23
265.868	59.9
266.084	68.09
266.3	104.96
266.516	12.8
266.732	35.33
266.948	20.99
267.164	53.76
267.38	-65.02
267.596	29.18
267.812	74.24
268.028	-11.78
268.244	-52.74
268.46	20.99
268.676	55.81
268.892	-11.78
269.108	-5.63
269.324	31.23
269.54	-22.02
269.756	25.09
269.972	10.75
270.188	14.85
270.403	-34.3
270.619	111.1
270.835	47.62
271.051	-46.59
271.267	14.85
271.483	-46.59
271.698	37.38
271.914	74.24
272.13	84.48
272.346	55.81
272.562	33.28
272.777	-11.78
272.993	51.71
273.209	35.33
273.425	102.91
273.64	6.66
273.856	61.95
274.072	64
274.287	-28.16
274.503	109.05
274.719	0.51
274.934	12.8
275.15	25.09
275.366	23.04
275.581	-50.69
275.797	29.18
276.012	115.2
276.228	37.38
276.444	-28.16
276.659	51.71
276.875	35.33
277.09	18.94
277.306	-1.54
277.521	23.04
277.737	31.23
277.952	-17.92
278.168	23.04
278.383	-9.73
278.599	8.7
278.814	111.1
279.03	74.24
279.245	23.04
279.461	66.05
279.676	33.28
279.892	20.99
280.107	10.75
280.322	-36.35
280.538	-26.11
280.753	119.29
280.969	49.66
281.184	57.86
281.399	10.75
281.615	43.52
281.83	70.14
282.045	-15.87
282.26	-40.45
282.476	-36.35
282.691	2.56
282.906	-19.97
283.122	74.24
283.337	127.49
283.552	66.05
283.767	-13.82
283.983	49.66
284.198	33.28
284.413	41.47
284.628	29.18
284.843	57.86
285.058	-22.02
285.274	10.75
285.489	-3.58
285.704	-11.78
285.919	35.33
286.134	12.8
286.349	10.75
286.564	25.09
286.779	41.47
286.995	-22.02
287.21	72.19
287.425	35.33
287.64	53.76
287.855	39.42
288.07	35.33
288.285	43.52
288.5	37.38
288.715	49.66
288.93	-13.82
289.145	14.85
289.36	51.71
289.575	51.71
289.79	31.23
290.004	10.75
290.219	-5.63
290.434	33.28
290.649	49.66
290.864	31.23
291.079	-17.92
291.294	80.38
291.509	45.57
291.724	-11.78
291.938	20.99
292.153	37.38
292.368	-28.16
292.583	33.28
292.798	74.24
293.012	31.23
293.227	49.66
293.442	29.18
293.657	-3.58
293.871	-15.87
294.086	-26.11
294.301	-7.68
294.516	74.24
294.73	10.75
294.945	-30.21
295.16	33.28
295.374	0.51
295.589	-9.73
295.804	-5.63
296.018	57.86
296.233	27.14
296.447	20.99
296.662	-97.79
296.877	39.42
297.091	72.19
297.306	-24.06
297.52	16.9
297.735	-15.87
297.949	23.04
298.164	68.09
298.378	-1.54
298.593	92.67
298.807	-9.73
299.022	80.38
299.236	-22.02
299.451	-19.97
299.665	14.85
299.88	84.48
300.094	45.57
300.309	-42.5
300.523	27.14
300.737	53.76
300.952	53.76
301.166	0.51
301.381	-19.97
301.595	53.76
301.809	47.62
302.024	-30.21
302.238	-22.02
302.452	45.57
302.667	82.43
302.881	82.43
303.095	20.99
303.309	-17.92
303.524	-24.06
303.738	-42.5
303.952	2.56
304.166	57.86
304.381	47.62
304.595	39.42
304.809	49.66
305.023	92.67
305.237	-15.87
305.452	23.04
305.666	35.33
305.88	23.04
306.094	10.75
306.308	70.14
306.522	51.71
306.736	14.85
306.95	10.75
307.164	-44.54
307.379	-71.17
307.593	139.77
307.807	59.9
308.021	12.8
308.235	8.7
308.449	6.66
308.663	-38.4
308.877	23.04
309.091	53.76
309.305	51.71
309.519	-30.21
309.733	66.05
309.947	8.7
310.161	23.04
310.374	-81.41
310.588	39.42
310.802	20.99
311.016	66.05
311.23	59.9
311.444	-46.59
311.658	29.18
311.872	76.29
312.085	25.09
312.299	49.66
312.513	35.33
312.727	57.86
312.941	76.29
313.154	59.9
313.368	76.29
313.582	-36.35
313.796	68.09
314.009	-26.11
314.223	90.62
314.437	8.7
314.651	16.9
314.864	-3.58
315.078	27.14
315.292	51.71
315.505	-7.68
315.719	72.19
315.933	76.29
316.146	-9.73
316.36	-17.92
316.573	25.09
316.787	35.33
317.001	-26.11
317.214	10.75
317.428	39.42
317.641	4.61
317.855	-32.26
318.068	43.52
318.282	115.2
318.495	96.77
318.709	31.23
318.922	39.42
319.136	78.33
319.349	41.47
319.563	82.43
319.776	72.19
319.99	20.99
320.203	39.42
320.417	20.99
320.63	23.04
320.843	-15.87
321.057	55.81
321.27	23.04
321.483	39.42
321.697	43.52
321.91	8.7
322.124	57.86
322.337	20.99
322.55	10.75
322.763	84.48
322.977	117.25
323.19	41.47
323.403	35.33
323.617	66.05
323.83	98.81
324.043	29.18
324.256	33.28
324.469	10.75
324.683	20.99
324.896	33.28
325.109	59.9
325.322	18.94
325.535	0.51
325.748	100.86
325.962	76.29
326.175	90.62
326.388	31.23
326.601	37.38
326.814	61.95
327.027	111.1
327.24	14.85
327.453	-1.54
327.666	111.1
327.879	12.8
328.092	70.14
328.305	51.71
328.518	47.62
328.731	96.77
328.944	-7.68
329.157	-24.06
329.37	-24.06
329.583	33.28
329.796	156.16
330.009	-13.82
330.222	6.66
330.435	33.28
330.648	29.18
330.861	59.9
331.073	33.28
331.286	59.9
331.499	133.63
331.712	39.42
331.925	90.62
332.138	102.91
332.35	96.77
332.563	109.05
332.776	31.23
332.989	-1.54
333.202	74.24
333.414	43.52
333.627	35.33
333.84	35.33
334.053	66.05
334.265	109.05
334.478	61.95
334.691	109.05
334.903	18.94
335.116	29.18
335.329	61.95
335.541	35.33
335.754	47.62
335.966	66.05
336.179	25.09
336.392	-9.73
336.604	143.87
336.817	78.33
337.029	41.47
337.242	-3.58
337.454	37.38
337.667	35.33
337.88	72.19
338.092	43.52
338.305	94.72
338.517	18.94
338.729	-24.06
338.942	76.29
339.154	74.24
339.367	41.47
339.579	72.19
339.792	121.34
340.004	18.94
340.217	-5.63
340.429	127.49
340.641	-50.69
340.854	12.8
341.066	41.47
341.278	78.33
341.491	31.23
341.703	98.81
341.915	72.19
342.128	39.42
342.34	82.43
342.552	31.23
342.764	92.67
342.977	55.81
343.189	6.66
343.401	111.1
343.613	33.28
343.826	98.81
344.038	-7.68
344.25	68.09
344.462	16.9
344.674	25.09
344.886	61.95
345.099	80.38
345.311	14.85
345.523	14.85
345.735	-13.82
345.947	-3.58
346.159	55.81
346.371	27.14
346.583	-7.68
346.795	117.25
347.007	-5.63
347.219	113.15
347.431	33.28
347.643	78.33
347.855	47.62
348.067	51.71
348.279	76.29
348.491	45.57
348.703	4.61
348.915	29.18
349.127	57.86
349.339	102.91
349.551	51.71
349.763	53.76
349.975	14.85
350.187	57.86
350.399	123.39
350.61	76.29
350.822	31.23
351.034	57.86
351.246	16.9
351.458	-30.21
351.669	35.33
351.881	61.95
352.093	45.57
352.305	-9.73
352.517	68.09
352.728	33.28
352.94	49.66
353.152	76.29
353.363	2.56
353.575	170.49
353.787	90.62
353.999	117.25
354.21	119.29
354.422	39.42
354.633	-13.82
354.845	86.53
355.057	16.9
355.268	-26.11
355.48	92.67
355.692	25.09
355.903	10.75
356.115	68.09
356.326	-22.02
356.538	98.81
356.749	49.66
356.961	47.62
357.172	55.81
357.384	88.57
357.595	102.91
357.807	84.48
358.018	45.57
358.23	72.19
358.441	64
358.653	43.52
358.864	39.42
359.075	137.73
359.287	4.61
359.498	70.14
359.709	31.23
359.921	94.72
360.132	64
360.344	59.9
360.555	119.29
360.766	20.99
360.977	-28.16
361.189	94.72
361.4	-5.63
361.611	43.52
361.823	107.01
362.034	64
362.245	-13.82
362.456	39.42
362.667	78.33
362.879	59.9
363.09	68.09
363.301	41.47
363.512	76.29
363.723	-58.88
363.935	70.14
364.146	96.77
364.357	47.62
364.568	-9.73
364.779	59.9
364.99	59.9
365.201	74.24
365.412	33.28
365.623	25.09
365.834	90.62
366.045	72.19
366.256	43.52
366.467	43.52
366.678	68.09
366.889	-36.35
367.1	31.23
367.311	35.33
367.522	2.56
367.733	14.85
367.944	107.01
368.155	59.9
368.366	166.4
368.577	86.53
368.788	29.18
368.999	-24.06
369.209	-15.87
369.42	66.05
369.631	131.58
369.842	49.66
370.053	8.7
370.264	80.38
370.474	125.44
370.685	96.77
370.896	59.9
371.107	64
371.317	115.2
371.528	16.9
371.739	43.52
371.95	-26.11
372.16	2.56
372.371	55.81
372.582	41.47
372.792	25.09
373.003	59.9
373.214	55.81
373.424	33.28
373.635	37.38
373.846	102.91
374.056	27.14
374.267	16.9
374.477	88.57
374.688	14.85
374.898	33.28
375.109	31.23
375.319	37.38
375.53	14.85
375.74	107.01
375.951	127.49
376.161	82.43
376.372	31.23
376.582	47.62
376.793	49.66
377.003	-3.58
377.214	12.8
377.424	72.19
377.635	16.9
377.845	25.09
378.055	16.9
378.266	68.09
378.476	53.76
378.686	-1.54
378.897	10.75
379.107	-52.74
379.317	98.81
379.528	25.09
379.738	57.86
379.948	-7.68
380.158	102.91
380.369	47.62
380.579	80.38
380.789	111.1
380.999	64
381.21	92.67
381.42	107.01
381.63	88.57
381.84	43.52
382.05	51.71
382.261	35.33
382.471	88.57
382.681	12.8
382.891	104.96
383.101	64
383.311	25.09
383.521	80.38
383.731	88.57
383.941	37.38
384.151	57.86
384.361	80.38
384.571	78.33
384.781	88.57
384.991	45.57
385.201	61.95
385.411	72.19
385.621	10.75
385.831	86.53
386.041	59.9
386.251	-26.11
386.461	72.19
386.671	51.71
386.881	76.29
387.091	47.62
387.301	53.76
387.511	119.29
387.72	68.09
387.93	82.43
388.14	23.04
388.35	74.24
388.56	131.58
388.769	117.25
388.979	49.66
389.189	100.86
389.399	35.33
389.609	76.29
389.818	57.86
390.028	90.62
390.238	84.48
390.447	12.8
390.657	16.9
390.867	-5.63
391.076	104.96
391.286	12.8
391.496	115.2
391.705	-34.3
391.915	104.96
392.125	57.86
392.334	82.43
392.544	35.33
392.753	90.62
392.963	59.9
393.172	90.62
393.382	35.33
393.591	74.24
393.801	43.52
394.01	104.96
394.22	102.91
394.429	88.57
394.639	139.77
394.848	47.62
395.058	92.67
395.267	92.67
395.477	156.16
395.686	180.73
395.895	76.29
396.105	86.53
396.314	31.23
396.524	82.43
396.733	88.57
396.942	111.1
397.152	94.72
397.361	98.81
397.57	59.9
397.78	86.53
397.989	100.86
398.198	143.87
398.407	125.44
398.617	158.21
398.826	92.67
399.035	176.64
399.244	96.77
399.453	102.91
399.663	117.25
399.872	147.97
400.081	100.86
400.29	121.34
400.499	109.05
400.708	111.1
400.917	160.25
401.127	154.11
401.336	123.39
401.545	166.4
401.754	147.97
401.963	174.59
402.172	150.01
402.381	92.67
402.59	152.06
402.799	141.82
403.008	92.67
403.217	154.11
403.426	55.81
403.635	145.92
403.844	129.53
404.053	197.12
404.262	147.97
404.471	121.34
404.68	190.97
404.888	139.77
405.097	156.16
405.306	186.88
405.515	190.97
405.724	133.63
405.933	178.69
406.142	260.6
406.35	223.74
406.559	207.36
406.768	190.97
406.977	236.03
407.185	154.11
407.394	240.12
407.603	209.4
407.812	274.94
408.02	252.41
408.229	264.7
408.438	252.41
408.646	162.3
408.855	279.04
409.064	248.32
409.272	348.67
409.481	311.8
409.69	272.89
409.898	274.94
410.107	287.23
410.315	365.05
410.524	354.81
410.733	397.82
410.941	383.48
411.15	430.59
411.358	459.26
411.567	440.83
411.775	489.98
411.984	496.12
412.192	535.03
412.401	481.78
412.609	586.23
412.818	502.26
413.026	539.13
413.234	594.42
413.443	623.09
413.651	639.48
413.86	641.53
414.068	633.33
414.276	670.2
414.485	735.73
414.693	788.98
414.901	776.69
415.11	848.37
415.318	760.31
415.526	791.03
415.734	864.75
415.943	862.71
416.151	946.67
416.359	1036.78
416.567	956.91
416.776	1038.83
416.984	1100.27
417.192	1087.98
417.4	1137.13
417.608	1130.99
417.817	1208.81
418.025	1208.81
418.233	1444.33
418.441	1255.92
418.649	1343.98
418.857	1503.72
419.065	1448.43
419.273	1491.43
419.481	1546.73
419.689	1653.22
419.897	1872.36
420.105	1716.71
420.313	1720.81
420.521	1833.44
420.729	1980.9
420.937	2046.43
421.145	2083.3
421.353	2032.1
421.561	2185.69
421.769	2236.89
421.977	2312.67
422.185	2398.68
422.393	2488.79
422.601	2583
422.809	2632.15
423.017	2656.73
423.224	2818.52
423.432	2904.53
423.64	2869.72
423.848	3135.95
424.056	3060.18
424.263	3340.75
424.471	3334.61
424.679	3410.38
424.887	3563.98
425.094	3721.67
425.302	3731.91
425.51	3846.6
425.718	3887.56
425.925	4071.87
426.133	4204.99
426.341	4477.37
426.548	4446.65
426.756	4608.44
426.964	4647.35
427.171	4923.83
427.379	5151.15
427.586	5208.5
427.794	5302.7
428.001	5466.54
428.209	5611.95
428.417	5779.88
428.624	6003.11
428.832	6095.27
429.039	5947.81
429.247	6230.43
429.454	6437.28
429.662	7139.73
429.869	6547.87
430.076	7068.05
430.284	7027.09
430.491	7160.21
430.699	7584.14
430.906	7397.78
431.114	7754.12
431.321	8038.79
431.528	8225.15
431.736	8622.46
431.943	9181.56
432.15	8710.52
432.358	8925.56
432.565	9437.55
432.772	9531.76
432.979	9838.95
433.187	10064.23
433.394	10082.66
433.601	10652
433.808	10858.84
434.016	10727.77
434.223	11321.68
434.43	11880.78
434.637	11569.49
434.844	12337.48
435.052	12693.82
435.259	12747.07
435.466	12587.33
435.673	12468.55
435.88	13439.28
436.087	14082.35
436.294	14219.56
436.501	13885.74
436.708	14188.84
436.915	14588.19
437.122	15063.32
437.329	15204.63
437.537	15618.32
437.743	15919.37
437.95	15882.51
438.157	16793.86
438.364	17094.91
438.571	17211.64
438.778	17357.05
438.985	18608.36
439.192	17973.49
439.399	18841.82
439.606	18385.13
439.813	19323.1
440.02	20443.34
440.227	20136.14
440.433	19976.4
440.64	20740.29
440.847	20648.13
441.054	20961.47
441.261	22499.5
441.467	22182.06
441.674	22589.61
441.881	23373.98
442.088	23558.3
442.294	22941.86
442.501	23992.47
442.708	24264.85
442.914	25380.99
443.121	26253.42
443.328	25483.39
443.534	27627.61
443.741	26722.41
443.948	26013.81
444.154	28434.51
444.361	27988.05
444.568	28258.38
444.774	28311.63
444.981	28751.95
445.187	29614.14
445.394	30670.89
445.6	30058.55
445.807	33275.91
446.013	31739.93
446.22	32294.93
446.426	33662.97
446.633	33900.54
446.839	34715.63
447.046	33955.83
447.252	35264.49
447.459	35512.29
447.665	34981.87
447.871	37025.74
448.078	37986.24
448.284	36364.25
448.491	37236.68
448.697	39002.03
448.903	39210.92
449.11	39696.29
449.316	38852.53
449.522	39686.05
449.728	40775.57
449.935	40873.87
450.141	40890.26
450.347	42127.23
450.553	40210.33
450.76	40763.28
450.966	42194.81
451.172	42203
451.378	42891.12
451.584	42106.75
451.791	42725.24
451.997	42565.49
452.203	43704.17
452.409	43282.28
452.615	42999.66
452.821	41521.03
453.027	41086.86
453.233	43194.22
453.44	41279.37
453.646	42004.35
453.852	42254.2
454.058	42469.24
454.264	41322.38
454.47	42381.18
454.676	41129.87
454.882	42710.9
455.088	38897.58
455.294	39374.76
455.5	39694.24
455.705	40236.95
455.911	38834.1
456.117	37769.15
456.323	37072.84
456.529	35190.76
456.735	36880.33
456.941	36184.02
457.147	35463.14
457.352	34211.83
457.558	33271.81
457.764	34039.8
457.97	33697.79
458.176	32567.31
458.381	32690.19
458.587	30715.95
458.793	30955.56
458.999	29235.27
459.204	31090.73
459.41	30720.04
459.616	28545.1
459.821	28713.03
460.027	28414.03
460.233	27621.47
460.438	26333.29
460.644	27043.94
460.85	25618.55
461.055	24973.44
461.261	25292.93
461.466	23232.67
461.672	22646.95
461.878	24377.48
462.083	22476.97
462.289	22190.25
462.494	22102.19
462.7	20951.23
462.905	20601.03
463.111	21377.21
463.316	21377.21
463.522	21242.04
463.727	20926.66
463.932	20910.27
464.138	20553.93
464.343	20805.83
464.549	19886.29
464.754	21231.8
464.959	20547.78
465.165	20240.59
465.37	19855.57
465.575	19366.1
465.781	19876.05
465.986	20211.92
466.191	19405.02
466.397	19210.46
466.602	17965.29
466.807	18931.94
467.012	18874.59
467.218	18864.35
467.423	18409.7
467.628	18456.81
467.833	19517.65
468.038	18784.48
468.244	18149.61
468.449	18917.6
468.654	18276.59
468.859	18000.11
469.064	18094.32
469.269	17172.73
469.474	17453.3
469.679	17817.84
469.885	17197.31
470.09	17592.56
470.295	17375.48
470.5	16851.2
470.705	17010.94
470.91	16660.74
471.115	16503.04
471.32	16589.06
471.525	16515.33
471.73	16253.19
471.935	16079.11
472.139	15585.55
472.344	15698.19
472.549	15585.55
472.754	15636.75
472.959	15311.13
473.164	14817.57
473.369	14879
473.574	15364.37
473.778	14969.12
473.983	14889.24
474.188	14795.04
474.393	14240.04
474.598	14281
474.802	14168.36
475.007	13910.32
475.212	14039.34
475.417	13357.36
475.621	13498.67
475.826	13535.54
476.031	13228.34
476.235	13029.69
476.44	13281.59
476.645	13037.88
476.849	12898.62
477.054	12876.09
477.259	12462.4
477.463	12595.52
477.668	12235.08
477.872	12452.16
478.077	12329.28
478.282	11876.68
478.486	12085.58
478.691	11886.92
478.895	12024.14
479.1	11888.97
479.304	11817.29
479.509	11495.76
479.713	11864.39
479.918	11393.36
480.122	11161.94
480.326	11485.52
480.531	11549.01
480.735	11424.08
480.94	11354.45
481.144	11524.43
481.348	10930.52
481.553	11073.88
481.757	10840.41
481.961	11172.18
482.166	11315.54
482.37	11094.36
482.574	10869.08
482.778	11090.26
482.983	11219.28
483.187	10953.05
483.391	10867.03
483.595	10998.1
483.8	10826.07
484.004	10951
484.208	11309.4
484.412	11008.34
484.616	10889.56
484.821	11082.07
485.025	10955.1
485.229	10934.62
485.433	10961.24
485.637	11069.78
485.841	10854.75
486.045	10791.26
486.249	10920.28
486.453	10850.65
486.657	10994.01
486.861	11305.3
487.065	10895.71
487.269	11153.75
487.473	10905.95
487.677	11067.74
487.881	11247.96
488.085	11012.44
488.289	10932.57
488.493	10922.33
488.697	11084.12
488.901	10903.9
489.105	10922.33
489.309	11145.56
489.512	11311.44
489.716	11270.48
489.92	11168.09
490.124	11256.15
490.328	11397.46
490.531	11221.33
490.735	11262.29
490.939	11520.34
491.143	11237.72
491.346	11585.87
491.55	11503.95
491.754	11589.97
491.958	11614.54
492.161	11446.61
492.365	11665.74
492.569	11815.24
492.772	11589.97
492.976	11743.56
493.18	11839.82
493.383	12061
493.587	12044.62
493.79	12054.86
493.994	12239.17
494.197	12226.89
494.401	12288.32
494.605	12319.04
494.808	12427.59
495.012	12425.54
495.215	12609.86
495.419	12998.97
495.622	12753.21
495.825	13068.6
496.029	12851.52
496.232	13357.36
496.436	12951.87
496.639	13433.14
496.843	13441.33
497.046	13515.06
497.249	13807.92
497.453	13918.51
497.656	13705.52
497.859	14115.11
498.063	14379.3
498.266	14555.43
498.469	14741.79
498.673	14893.34
498.876	14905.63
499.079	15042.84
499.282	15044.89
499.485	15417.62
499.689	15513.88
499.892	15634.71
500.095	15587.6
500.298	16245
500.501	16103.69
500.705	16457.99
500.908	16668.93
501.111	16748.8
501.314	16953.6
501.517	17258.74
501.72	17311.99
501.923	17291.51
502.126	17639.67
502.329	17862.9
502.532	18020.59
502.735	18182.38
502.938	18477.29
503.141	18440.42
503.344	19099.87
503.547	19038.43
503.75	19357.91
503.953	19450.07
504.156	19452.12
504.359	19640.53
504.562	19941.58
504.765	20113.61
504.968	20631.75
505.17	20947.14
505.373	20852.93
505.576	21199.04
505.779	21409.98
505.982	21909.68
506.185	22261.93
506.387	22444.2
506.59	22321.32
506.793	22616.23
506.996	22550.7
507.198	23427.23
507.401	23496.86
507.604	23685.27
507.807	23978.13
508.009	24119.44
508.212	24613
508.415	24336.52
508.617	24645.77
508.82	24926.34
509.022	25090.18
509.225	25507.96
509.428	26024.05
509.63	26441.84
509.833	26060.91
510.035	26855.53
510.238	26601.58
510.44	27148.39
510.643	27809.88
510.845	27689.05
511.048	27564.12
511.25	28459.09
511.453	28174.42
511.655	29341.76
511.858	28952.65
512.06	29116.48
512.262	29571.13
512.465	29696.06
512.667	30281.78
512.87	30613.55
513.072	30498.86
513.274	30937.13
513.477	31369.25
513.679	31623.2
513.881	32006.17
514.084	32454.67
514.286	32329.75
514.488	32561.17
514.69	33902.59
514.893	33540.1
515.095	33763.32
515.297	34293.75
515.499	34435.06
515.701	34732.01
515.904	35157.99
516.106	35237.86
516.308	35438.56
516.51	36204.5
516.712	36253.65
516.914	36810.7
517.116	37113.8
517.318	37312.45
517.52	37363.65
517.722	37797.82
517.925	38164.41
518.127	38721.46
518.329	39040.94
518.531	39378.86
518.733	39571.36
518.935	39874.46
519.136	39837.6
519.338	40650.64
519.54	40806.29
519.742	41242.51
519.944	41316.23
520.146	41856.9
520.348	42471.29
520.55	42395.51
520.752	42813.3
520.954	43153.26
521.155	42983.28
521.357	43874.15
521.559	43872.1
521.761	44373.85
521.963	44539.74
522.164	45115.22
522.366	45121.36
522.568	45563.72
522.77	45741.89
522.971	46620.47
523.173	46473.02
523.375	47050.55
523.576	46718.78
523.778	46995.25
523.98	47900.45
524.181	47935.27
524.383	47591.21
524.584	48992.02
524.786	48615.19
524.988	48125.73
525.189	48838.42
525.391	49665.8
525.592	49340.18
525.794	49626.89
525.995	49979.14
526.197	50175.75
526.398	50429.69
526.6	50421.5
526.801	50226.95
527.003	50949.88
527.204	50980.6
527.406	51191.54
527.607	51212.02
527.808	51586.8
528.01	50880.25
528.211	51678.96
528.412	52565.73
528.614	52369.12
528.815	53047
529.016	52797.15
529.218	52606.69
529.419	52760.28
529.62	52911.83
529.822	52831.96
530.023	53120.73
530.224	53370.58
530.425	53022.42
530.626	52891.35
530.828	52846.3
531.029	54460.1
531.23	53442.26
531.431	53454.54
531.632	53722.83
531.833	53706.44
532.035	53325.52
532.236	54111.94
532.437	54058.7
532.638	53438.16
532.839	54415.04
533.04	54460.1
533.241	53515.98
533.442	54906.55
533.643	54351.55
533.844	54091.46
534.045	54769.34
534.246	53606.09
534.447	54558.4
534.648	54021.83
534.849	54314.69
535.05	54212.29
535.251	54959.8
535.451	54628.03
535.652	54578.88
535.853	54599.36
536.054	54578.88
536.255	54980.28
536.456	54507.2
536.657	55037.62
536.857	54464.19
537.058	54693.57
537.259	54871.74
537.46	55209.65
537.66	54679.23
537.861	54998.71
538.062	54742.72
538.263	55103.16
538.463	54632.13
538.664	54890.17
538.865	54812.35
539.065	55262.9
539.266	54482.62
539.466	55250.61
539.667	54286.02
539.868	55080.63
540.068	55029.43
540.269	54437.57
540.469	55250.61
540.67	54558.4
540.87	54402.75
541.071	54675.13
541.271	54779.58
541.472	54685.37
541.672	54703.81
541.873	54781.63
542.073	53896.91
542.274	55254.71
542.474	54443.71
542.675	54030.02
542.875	55158.45
543.075	54718.14
543.276	54333.12
543.476	54959.8
543.676	54288.07
543.877	54623.93
544.077	54761.15
544.277	54980.28
544.478	54587.07
544.678	54859.45
544.878	54800.06
545.078	54644.41
545.279	54290.12
545.479	54410.95
545.679	54544.06
545.879	54716.09
546.079	54279.88
546.28	54636.22
546.48	54439.62
546.68	54886.07
546.88	54195.91
547.08	54922.94
547.28	54732.48
547.48	54132.42
547.68	54513.34
547.88	54243.01
548.081	54406.85
548.281	54390.47
548.481	54275.78
548.681	55013.05
548.881	54605.5
549.081	54550.21
549.28	54515.39
549.48	54529.73
549.68	54048.46
549.88	54939.32
550.08	54079.17
550.28	54349.51
550.48	54374.08
550.68	55250.61
550.88	54449.86
551.08	54279.88
551.279	54406.85
551.479	53991.11
551.679	54365.89
551.879	54230.72
552.079	54054.6
552.278	53925.58
552.478	54507.2
552.678	53939.91
552.878	54077.13
553.077	54222.53
553.277	53817.03
553.477	54474.43
553.676	54073.03
553.876	53636.81
554.076	54044.36
554.275	53823.18
554.475	53624.53
554.674	54554.3
554.874	54216.39
555.074	53984.97
555.273	54157
555.473	54261.44
555.672	53509.84
555.872	53720.78
556.071	53759.69
556.271	54030.02
556.47	53675.72
556.67	53237.46
556.869	53563.09
557.068	53518.03
557.268	53133.01
557.467	53380.82
557.667	53423.82
557.866	53317.33
558.065	53407.44
558.265	52539.1
558.464	52629.21
558.663	53255.89
558.863	52492
559.062	53247.7
559.261	52473.57
559.461	53415.63
559.66	52367.07
559.859	53059.29
560.058	52686.56
560.258	52963.03
560.457	52291.3
560.656	52791
560.855	52041.45
561.054	52674.27
561.253	52104.93
561.453	52326.11
561.652	52485.86
561.851	52170.47
562.05	51670.76
562.249	51527.41
562.448	52006.63
562.647	51613.42
562.846	51752.68
563.045	51627.76
563.244	51078.9
563.443	52000.49
563.642	50794.23
563.841	51672.81
564.04	51031.8
564.239	51265.27
564.438	50712.31
564.637	50812.66
564.836	50999.03
565.035	50487.04
565.234	51019.51
565.432	50454.27
565.631	50196.23
565.83	50941.69
566.029	50274.05
566.228	50415.36
566.427	50059.01
566.625	50032.39
566.824	49690.38
567.023	50108.16
567.222	48975.64
567.42	50239.23
567.619	49665.8
567.818	49272.59
568.016	49714.95
568.215	49440.53
568.414	49364.75
568.612	49491.72
568.811	48834.33
569.01	49106.71
569.208	48078.63
569.407	49159.95
569.605	48316.19
569.804	48574.23
570.002	48244.51
570.201	48838.42
570.4	47746.86
570.598	47877.93
570.797	47931.17
570.995	47750.95
571.193	47372.08
571.392	47869.73
571.59	47566.63
571.789	47644.46
571.987	47380.27
572.186	47269.68
572.384	47060.79
572.582	47036.21
572.781	47183.66
572.979	46724.92
573.177	46757.69
573.376	46899
573.574	45901.64
573.772	47013.68
573.971	46292.8
574.169	46178.11
574.367	45909.83
574.565	46364.48
574.763	46018.37
574.962	45645.64
575.16	45414.22
575.358	46253.89
575.556	45215.57
575.754	45963.07
575.952	44896.08
576.151	45700.93
576.349	44943.19
576.547	45115.22
576.745	45055.82
576.943	45084.5
577.141	44523.35
577.339	44586.84
577.537	44300.12
577.735	44609.37
577.933	44613.46
578.131	44347.23
578.329	43892.58
578.527	43188.08
578.725	43900.77
578.923	44001.12
579.121	43657.06
579.319	43732.84
579.516	43605.86
579.714	43472.74
579.912	42970.99
580.11	43196.27
580.308	43396.97
580.506	43249.52
580.704	42178.43
580.901	42788.72
581.099	43106.16
581.297	42438.52
581.495	42379.13
581.692	42692.47
581.89	42020.73
582.088	42454.9
582.285	42022.78
582.483	42321.79
582.681	41752.45
582.878	41860.99
583.076	41686.92
583.274	41684.87
583.471	41160.59
583.669	41478.02
583.866	40880.02
584.064	41301.9
584.262	41088.91
584.459	41236.36
584.657	40902.54
584.854	41389.96
585.052	40185.75
585.249	40714.13
585.447	40509.33
585.644	40052.64
585.841	40220.57
586.039	40394.65
586.236	39747.49
586.434	39972.77
586.631	39618.47
586.828	39761.83
587.026	39716.77
587.223	39616.42
587.42	39438.25
587.618	39511.97
587.815	39094.19
588.012	38946.73
588.21	39057.32
588.407	39376.81
588.604	38678.45
588.801	38477.75
588.999	38715.31
589.196	38346.68
589.393	38817.71
589.59	38608.82
589.787	38242.23
589.984	37955.52
590.182	37732.29
590.379	38285.24
590.576	37482.44
590.773	37828.54
590.97	37746.62
591.167	37513.16
591.364	37328.84
591.561	37918.65
591.758	37052.36
591.955	37171.14
592.152	37294.02
592.349	36798.41
592.546	36849.61
592.743	36958.16
592.94	36724.69
593.137	36739.02
593.334	37220.3
593.531	36267.99
593.727	36610
593.924	36638.67
594.121	35958.75
594.318	36018.14
594.515	35753.95
594.712	36171.74
594.908	35657.7
595.105	35995.61
595.302	35489.76
595.499	35420.13
595.696	35178.47
595.892	35297.25
596.089	35127.27
596.286	35336.16
596.482	35002.35
596.679	35002.35
596.876	35184.62
597.072	34969.58
597.269	34570.22
597.466	34228.21
597.662	34508.79
597.859	34269.17
598.055	34453.49
598.252	34045.94
598.448	34166.77
598.645	33951.74
598.841	33822.72
599.038	33939.45
599.234	33642.49
599.431	33357.83
599.627	33259.52
599.824	33650.69
600.02	33380.35
600.217	33247.24
600.413	33085.45
600.609	33144.84
600.806	32849.93
601.002	33040.39
601.198	32649.23
601.395	32595.98
601.591	32602.13
601.787	32753.68
601.984	32266.26
602.18	32526.35
602.376	32182.29
602.572	32159.77
602.769	32346.13
602.965	31852.57
603.161	32071.7
603.357	31715.36
603.553	31600.67
603.75	31555.61
603.946	31272.99
604.142	31524.89
604.338	31406.11
604.534	31363.11
604.73	31152.16
604.926	31027.24
605.122	31143.97
605.318	31070.25
605.514	30930.98
605.71	30406.7
605.906	30750.76
606.102	30904.36
606.298	30470.19
606.494	30691.37
606.69	30378.03
606.886	30425.14
607.082	29964.34
607.278	30584.88
607.474	29708.35
607.67	30097.46
607.866	29839.42
608.062	30160.95
608.257	29827.13
608.453	29814.84
608.649	29872.18
608.845	29386.82
609.041	29665.34
609.236	29614.14
609.432	29388.86
609.628	29898.81
609.824	29655.1
610.019	29161.54
610.215	29358.14
610.411	29198.4
610.606	29233.22
610.802	29093.96
610.998	28921.93
611.193	29067.33
611.389	28923.97
611.584	28753.99
611.78	28803.14
611.976	28878.92
612.171	29143.11
612.367	28510.28
612.562	28670.03
612.758	28311.63
612.953	28188.75
613.149	28876.87
613.344	28162.13
613.539	28534.86
613.735	28526.67
613.93	28500.05
614.126	28350.54
614.321	28436.56
614.517	28141.65
614.712	28012.63
614.907	28108.88
615.103	28276.82
615.298	28072.02
615.493	28151.89
615.688	27576.41
615.884	28215.38
616.079	27431.01
616.274	27799.64
616.47	27545.69
616.665	27861.08
616.86	27666.52
617.055	27693.15
617.25	27629.66
617.445	27639.9
617.641	26871.91
617.836	27433.05
618.031	26892.39
618.226	27261.02
618.421	27289.7
618.616	27080.8
618.811	26730.6
619.006	27033.7
619.201	26437.74
619.396	26740.84
619.591	26159.22
619.786	26646.63
619.981	26273.9
620.176	26470.51
620.371	25630.84
620.566	25897.08
620.761	25991.28
620.956	26046.58
621.151	25696.38
621.346	25624.7
621.541	25288.83
621.735	25495.67
621.93	25053.31
622.125	25194.62
622.32	24881.28
622.515	25112.7
622.709	24594.57
622.904	24770.69
623.099	24613
623.294	24387.72
623.488	24014.99
623.683	24473.74
623.878	24035.47
624.072	23908.5
624.267	23990.42
624.462	23863.44
624.656	23384.22
624.851	23509.15
625.046	23259.29
625.24	23236.77
625.435	23199.9
625.629	23056.54
625.824	22751.4
626.018	22966.43
626.213	22454.44
626.407	22567.08
626.602	22311.08
626.796	22284.46
626.991	22313.13
627.185	22124.72
627.38	21735.6
627.574	21868.72
627.768	21622.97
627.963	21856.43
628.157	21401.79
628.352	21469.37
628.546	21139.65
628.74	21022.91
628.935	20930.75
629.129	21086.4
629.323	20809.92
629.517	20709.57
629.712	20488.39
629.906	20515.01
630.1	20371.66
630.294	20154.57
630.489	20261.07
630.683	20267.21
630.877	20035.79
631.071	19777.75
631.265	20119.76
631.459	19802.32
631.653	19583.19
631.848	19605.72
632.042	19087.58
632.236	19394.78
632.43	19376.34
632.624	19106.01
632.818	19122.4
633.012	18850.02
633.206	18723.04
633.4	18979.04
633.594	18401.51
633.788	18782.43
633.982	18548.96
634.176	18503.91
634.369	18243.82
634.563	18104.56
634.757	18362.6
634.951	18114.8
635.145	17891.57
635.339	17893.61
635.533	17733.87
635.726	17926.38
635.92	17649.91
636.114	17443.06
636.308	17367.29
636.501	17277.18
636.695	17193.21
636.889	17195.26
637.083	16996.6
637.276	17060.09
637.47	16775.42
637.664	16783.62
637.857	16619.78
638.051	16767.23
638.244	16240.9
638.438	16271.62
638.632	16288.01
638.825	16191.75
639.019	16124.17
639.212	16068.87
639.406	16130.31
639.599	15966.48
639.793	15970.57
639.986	15374.61
640.18	15446.29
640.373	15716.62
640.567	15503.64
640.76	15444.24
640.954	15325.46
641.147	15208.73
641.34	15022.36
641.534	15071.51
641.727	15061.27
641.92	14772.51
642.114	15014.17
642.307	14817.57
642.5	14580
642.694	14512.42
642.887	14219.56
643.08	14598.43
643.273	14567.71
643.467	14403.88
643.66	14371.11
643.853	14266.66
644.046	13793.58
644.239	13826.35
644.432	13836.59
644.626	13914.41
644.819	13676.85
645.012	13873.45
645.205	13746.48
645.398	13685.04
645.591	13291.83
645.784	13523.25
645.977	12994.87
646.17	13308.21
646.363	13050.17
646.556	12917.05
646.749	12945.72
646.942	12947.77
647.135	12757.31
647.328	12896.57
647.521	12708.16
647.714	12529.98
647.907	12560.7
648.099	12548.42
648.292	12697.92
648.485	12343.62
648.678	12233.03
648.871	12362.05
649.064	12196.17
649.256	12284.23
649.449	12159.3
649.642	12181.83
649.835	11815.24
650.027	12101.96
650.22	11878.73
650.413	11776.33
650.605	11972.94
650.798	11680.08
650.991	11741.52
651.183	11718.99
651.376	11493.71
651.568	11438.42
651.761	11442.51
651.954	11260.24
652.146	11450.71
652.339	11153.75
652.531	11153.75
652.724	11188.57
652.916	10787.16
653.109	11186.52
653.301	10750.3
653.494	11037.02
653.686	10688.86
653.879	10772.83
654.071	10871.13
654.263	10793.31
654.456	10652
654.648	10637.66
654.84	10572.13
655.033	10385.76
655.225	10393.95
655.417	10465.63
655.61	10297.7
655.802	10318.18
655.994	10080.61
656.186	10209.64
656.379	10062.18
656.571	10056.04
656.763	10002.79
656.955	9984.36
657.148	9771.37
657.34	9953.64
657.532	9593.2
657.724	9625.97
657.916	9730.41
658.108	9617.77
658.3	9585.01
658.492	9785.71
658.684	9531.76
658.876	9478.51
659.068	9417.07
659.26	9294.19
659.452	9265.52
659.644	9214.32
659.836	9257.33
660.028	9175.41
660.22	9030.01
660.412	8984.95
660.604	8925.56
660.796	9003.38
660.988	8769.91
661.18	8683.9
661.372	8599.93
661.563	8696.19
661.755	8788.35
661.947	8538.49
662.139	8774.01
662.331	8554.88
662.522	8423.81
662.714	8647.04
662.906	8309.12
663.097	8520.06
663.289	8411.52
663.481	8280.45
663.673	8290.69
663.864	8124.8
664.056	8331.65
664.247	8337.79
664.439	7831.94
664.631	7987.59
664.822	8014.21
665.014	8034.69
665.205	7879.05
665.397	7960.97
665.588	8016.26
665.78	7842.18
665.971	7700.87
666.163	7780.75
666.354	7612.81
666.546	7856.52
666.737	7618.96
666.929	7524.75
667.12	7500.17
667.311	7395.73
667.503	7305.62
667.694	7420.3
667.885	7432.59
668.077	7487.89
668.268	7393.68
668.459	7246.23
668.651	7203.22
668.842	7133.59
669.033	7264.66
669.224	7334.29
669.416	7158.16
669.607	7102.87
669.798	6957.46
669.989	7139.73
670.18	6928.79
670.371	6914.45
670.563	6953.37
670.754	6758.81
670.945	6848.92
671.136	6891.93
671.327	6615.45
671.518	6920.6
671.709	6660.51
671.9	6781.34
672.091	6752.66
672.282	6637.98
672.473	6717.85
672.664	6767
672.855	6658.46
673.046	6461.85
673.237	6678.94
673.428	6531.48
673.619	6392.22
673.809	6523.29
674	6351.26
674.191	6566.3
674.382	6295.97
674.573	6365.6
674.764	6443.42
674.954	6347.17
675.145	6224.29
675.336	6322.59
675.527	6207.91
675.717	6216.1
675.908	6150.56
676.099	6162.85
676.289	6082.98
676.48	5927.33
676.671	6009.25
676.861	6048.16
677.052	6064.55
677.243	5892.52
677.433	5906.85
677.624	6037.92
677.814	5890.47
678.005	5933.48
678.195	5722.54
678.386	5845.41
678.576	5865.89
678.767	5841.32
678.957	5855.65
679.148	5970.34
679.338	5826.98
679.529	5857.7
679.719	5853.61
679.909	5890.47
680.1	5783.98
680.29	5740.97
680.481	5763.5
680.671	5540.27
680.861	5685.67
681.052	5536.17
681.242	5661.1
681.432	5622.19
681.622	5501.36
681.813	5683.63
682.003	5525.93
682.193	5544.36
682.383	5681.58
682.573	5552.56
682.764	5472.68
682.954	5501.36
683.144	5403.05
683.334	5548.46
683.524	5386.67
683.714	5466.54
683.904	5390.77
684.094	5370.29
684.284	5286.32
684.474	5267.89
684.664	5349.81
684.854	5231.02
685.044	5312.94
685.234	5179.82
685.424	5179.82
685.614	5251.5
685.804	5122.48
685.994	5267.89
686.184	5243.31
686.374	5331.37
686.564	5124.53
686.753	5065.14
686.943	4934.07
687.133	5028.28
687.323	5052.85
687.513	5079.47
687.702	5089.71
687.892	5071.28
688.082	4846.01
688.272	4915.64
688.461	4999.6
688.651	4819.38
688.841	4831.67
689.03	4876.73
689.22	4862.39
689.41	4848.05
689.599	4899.25
689.789	4669.88
689.979	4798.9
690.168	4737.46
690.358	4747.7
690.547	4698.55
690.737	4688.31
690.926	4731.32
691.116	4534.71
691.305	4659.64
691.495	4684.22
691.684	4604.35
691.874	4628.92
692.063	4606.39
692.252	4661.69
692.442	4438.46
692.631	4504
692.82	4520.38
693.01	4454.84
693.199	4501.95
693.388	4426.17
693.578	4514.24
693.767	4528.57
693.956	4424.12
694.146	4356.54
694.335	4293.05
694.524	4241.86
694.713	4327.87
694.902	4452.8
695.092	4397.5
695.281	4297.15
695.47	4465.08
695.659	4286.91
695.848	4252.1
696.037	4358.59
696.226	4305.34
696.415	4264.38
696.604	4336.06
696.793	4317.63
696.982	4231.62
697.171	4334.01
697.36	4282.81
697.549	4227.52
697.738	4291.01
697.927	4098.5
698.116	4280.77
698.305	4166.08
698.494	4250.05
698.683	4307.39
698.872	4204.99
699.061	4172.22
699.25	4157.89
699.438	4237.76
699.627	4237.76
699.816	4288.96
700.005	4123.07
700.193	4180.42
700.382	4086.21
700.571	4061.63
700.76	3973.57
700.948	4008.39
701.137	4026.82
701.326	4094.4
701.514	4080.07
701.703	4260.29
701.892	3930.56
702.08	4225.47
702.269	4155.84
702.457	3983.81
702.646	4014.53
702.834	3967.43
703.023	4047.3
703.212	3951.04
703.4	4118.98
703.589	3875.27
703.777	4090.31
703.965	4010.43
704.154	3899.84
704.342	4024.77
704.531	4071.87
704.719	4020.67
704.907	3959.24
705.096	3914.18
705.284	3989.96
705.472	3901.89
705.661	4057.54
705.849	3959.24
706.037	3949
706.226	3924.42
706.414	3897.8
706.602	3981.76
706.79	3992
706.979	3987.91
707.167	3729.86
707.355	3955.14
707.543	3905.99
707.731	3877.32
707.919	3860.93
708.107	3731.91
708.296	3758.53
708.484	3805.64
708.672	3926.47
708.86	3924.42
709.048	3967.43
709.236	3940.8
709.424	3867.08
709.612	3873.22
709.8	3764.68
709.988	3848.65
710.176	3801.54
710.364	3711.43
710.551	3715.53
710.739	3877.32
710.927	3697.1
711.115	3779.01
711.303	3781.06
711.491	3662.28
711.679	3668.42
711.866	3736.01
712.054	3760.58
712.242	3666.38
712.43	3807.69
712.617	3760.58
712.805	3639.75
712.993	3805.64
713.181	3672.52
713.368	3723.72
713.556	3633.61
713.744	3688.9
713.931	3668.42
714.119	3709.38
714.306	3643.85
714.494	3678.66
714.682	3568.07
714.869	3533.26
715.057	3637.7
715.244	3639.75
715.432	3604.94
715.619	3537.35
715.807	3629.51
715.994	3582.41
716.182	3516.87
716.369	3688.9
716.556	3467.72
716.744	3561.93
716.931	3484.11
717.119	3551.69
717.306	3477.96
717.493	3561.93
717.681	3514.83
717.868	3529.16
718.055	3590.6
718.242	3502.54
718.43	3459.53
718.617	3523.02
718.804	3471.82
718.991	3543.5
719.179	3508.68
719.366	3430.86
719.553	3396.04
719.74	3430.86
719.927	3486.15
720.114	3439.05
720.301	3516.87
720.488	3389.9
720.676	3424.72
720.863	3353.04
721.05	3463.63
721.237	3416.52
721.424	3324.37
721.611	3385.8
721.798	3359.18
721.985	3332.56
722.172	3336.65
722.358	3318.22
722.545	3299.79
722.732	3465.68
722.919	3320.27
723.106	3318.22
723.293	3348.94
723.48	3332.56
723.667	3340.75
723.853	3275.21
724.04	3363.28
724.227	3221.97
724.414	3310.03
724.6	3209.68
724.787	3238.35
724.974	3357.13
725.161	3080.66
725.347	3070.42
725.534	3338.7
725.72	3195.34
725.907	3236.3
726.094	3172.82
726.28	3205.58
726.467	3056.08
726.653	3164.62
726.84	3207.63
727.027	3142.1
727.213	3148.24
727.4	3240.4
727.586	3023.31
727.773	3125.71
727.959	3217.87
728.145	3213.77
728.332	3062.23
728.518	3088.85
728.705	3131.86
728.891	3181.01
729.077	3111.38
729.264	3101.14
729.45	3054.03
729.636	2947.54
729.823	3037.65
730.009	3006.93
730.195	3064.27
730.382	3031.51
730.568	3142.1
730.754	3021.27
730.94	3047.89
731.126	3072.47
731.313	3088.85
731.499	3006.93
731.685	3002.83
731.871	3103.18
732.057	2986.45
732.243	3004.88
732.429	3140.05
732.615	3082.7
732.801	3101.14
732.987	3086.8
733.173	2935.25
733.359	3058.13
733.545	2902.48
733.731	2933.2
733.917	3060.18
734.103	2890.2
734.289	3000.79
734.475	2988.5
734.661	2978.26
734.847	2834.9
735.033	2968.02
735.219	2929.11
735.404	3000.79
735.59	2990.55
735.776	3004.88
735.962	3074.51
736.148	2791.89
736.333	2951.63
736.519	2927.06
736.705	3006.93
736.89	2859.48
737.076	2898.39
737.262	2800.09
737.447	2845.14
737.633	2814.42
737.819	2845.14
738.004	2824.66
738.19	2853.33
738.375	2785.75
738.561	2869.72
738.747	2765.27
738.932	2746.84
739.118	2769.37
739.303	2886.1
739.489	2804.18
739.674	2867.67
739.859	2812.37
740.045	2834.9
740.23	2685.4
740.416	2740.69
740.601	2687.45
740.786	2689.49
740.972	2718.17
741.157	2658.78
741.342	2689.49
741.528	2681.3
741.713	2644.44
741.898	2646.49
742.084	2646.49
742.269	2527.71
742.454	2619.86
742.639	2675.16
742.824	2447.83
743.01	2646.49
743.195	2578.9
743.38	2609.62
743.565	2564.57
743.75	2583
743.935	2423.26
744.12	2597.34
744.305	2474.46
744.49	2415.07
744.675	2474.46
744.86	2453.98
745.045	2425.31
745.23	2404.83
745.415	2386.4
745.6	2488.79
745.785	2386.4
745.97	2470.36
746.155	2302.43
746.34	2390.49
746.525	2353.63
746.71	2427.35
746.895	2359.77
747.079	2290.14
747.264	2347.48
747.449	2316.76
747.634	2230.75
747.819	2228.7
748.003	2232.8
748.188	2169.31
748.373	2275.81
748.557	2251.23
748.742	2222.56
748.927	2097.63
749.111	2093.54
749.296	2216.41
749.481	2177.5
749.665	2122.21
749.85	2040.29
750.034	2097.63
750.219	2028
750.404	2079.2
750.588	2050.53
750.773	2038.24
750.957	2005.47
751.141	1892.84
751.326	2140.64
751.51	2001.38
751.695	1944.03
751.879	1952.23
752.064	2011.62
752.248	1870.31
752.432	1847.78
752.617	1958.37
752.801	1950.18
752.985	1958.37
753.17	1923.55
753.354	1796.58
753.538	1798.63
753.722	1767.91
753.907	1845.73
754.091	1925.6
754.275	1720.81
754.459	1700.33
754.643	1710.57
754.828	1753.57
755.012	1692.13
755.196	1761.77
755.38	1735.14
755.564	1726.95
755.748	1739.24
755.932	1638.89
756.116	1694.18
756.3	1634.79
756.484	1649.13
756.668	1679.85
756.852	1542.63
757.036	1632.74
757.22	1462.76
757.404	1595.88
757.588	1550.82
757.772	1571.3
757.956	1501.67
758.14	1559.02
758.323	1573.35
758.507	1518.06
758.691	1522.15
758.875	1587.69
759.059	1513.96
759.242	1448.43
759.426	1513.96
759.61	1438.19
759.794	1450.47
759.977	1419.75
760.161	1526.25
760.345	1333.74
760.528	1489.39
760.712	1450.47
760.895	1325.55
761.079	1268.2
761.263	1393.13
761.446	1491.43
761.63	1354.22
761.813	1389.03
761.997	1436.14
762.18	1327.6
762.364	1319.4
762.547	1372.65
762.731	1405.42
762.914	1311.21
763.098	1300.97
763.281	1282.54
763.464	1473
763.648	1192.43
763.831	1296.88
764.015	1255.92
764.198	1272.3
764.381	1190.38
764.564	1157.61
764.748	1296.88
764.931	1208.81
765.114	1278.44
765.297	1315.31
765.481	1208.81
765.664	1217.01
765.847	1239.53
766.03	1243.63
766.213	1208.81
766.397	1139.18
766.58	1147.37
766.763	1188.33
766.946	1198.57
767.129	1251.82
767.312	1225.2
767.495	1186.29
767.678	1161.71
767.861	1167.85
768.044	1069.55
768.227	1186.29
768.41	1141.23
768.593	1235.44
768.776	1206.77
768.959	1108.46
769.142	1276.4
769.324	1198.57
769.507	1128.94
769.69	1188.33
769.873	1079.79
770.056	1145.33
770.239	1157.61
770.421	1202.67
770.604	1135.09
770.787	1059.31
770.97	1145.33
771.152	1100.27
771.335	993.78
771.518	1079.79
771.7	1153.52
771.883	1077.74
772.066	973.3
772.248	963.06
772.431	1059.31
772.613	1169.9
772.796	1075.7
772.978	1042.93
773.161	1077.74
773.343	1008.11
773.526	1049.07
773.708	1053.17
773.891	934.39
774.073	1053.17
774.256	999.92
774.438	981.49
774.621	905.71
774.803	891.38
774.985	1022.45
775.168	920.05
775.35	985.58
775.532	934.39
775.715	877.04
775.897	887.28
776.079	926.19
776.261	907.76
776.444	895.47
776.626	842.23
776.808	915.95
776.99	864.75
777.173	905.71
777.355	866.8
777.537	750.07
777.719	881.14
777.901	895.47
778.083	893.43
778.265	801.27
778.447	807.41
778.629	799.22
778.811	786.93
778.993	819.7
779.175	788.98
779.357	874.99
779.539	725.49
779.721	836.08
779.903	778.74
780.085	834.04
780.267	758.26
780.449	813.56
780.631	793.08
780.812	711.16
780.994	764.4
781.176	702.97
781.358	690.68
781.54	762.36
781.721	713.21
781.903	668.15
782.085	678.39
782.267	662.01
782.448	684.53
782.63	727.54
782.812	639.48
782.993	725.49
783.175	741.88
783.357	672.25
783.538	649.72
783.72	709.11
783.901	616.95
784.083	657.91
784.264	608.76
784.446	621.05
784.627	588.28
784.809	573.94
784.99	496.12
785.172	705.01
785.353	645.62
785.535	641.53
785.716	594.42
785.897	600.57
786.079	612.85
786.26	485.88
786.441	588.28
786.623	520.7
786.804	485.88
786.985	557.56
787.167	526.84
787.348	526.84
787.529	616.95
787.71	516.6
787.891	563.7
788.073	549.37
788.254	508.41
788.435	561.66
788.616	520.7
788.797	512.5
788.978	477.69
789.159	526.84
789.34	473.59
789.522	434.68
789.703	498.17
789.884	428.54
790.065	483.83
790.246	494.07
790.427	442.87
790.607	449.02
790.788	440.83
790.969	451.07
791.15	514.55
791.331	434.68
791.512	504.31
791.693	440.83
791.874	418.3
792.054	459.26
792.235	524.79
792.416	461.3
792.597	438.78
792.778	371.19
792.958	485.88
793.139	391.67
793.32	516.6
793.5	418.3
793.681	451.07
793.862	399.87
794.042	393.72
794.223	387.58
794.404	432.63
794.584	363
794.765	342.52
794.945	367.1
795.126	414.2
795.306	387.58
795.487	408.06
795.667	367.1
795.848	387.58
796.028	346.62
796.209	373.24
796.389	328.19
796.57	373.24
796.75	363
796.93	420.35
797.111	334.33
797.291	358.91
797.471	340.47
797.652	356.86
797.832	332.28
798.012	383.48
798.192	360.95
798.373	262.65
798.553	305.66
798.733	328.19
798.913	301.56
799.093	281.08
799.274	276.99
799.454	279.04
799.634	332.28
799.814	332.28
799.994	322.04
800.174	387.58
800.354	340.47
800.534	383.48
800.714	336.38
800.894	297.47
801.074	289.28
801.254	403.96
801.434	350.71
801.614	354.81
801.794	221.69
801.974	694.77
802.154	348.67
802.334	272.89
802.514	246.27
802.693	367.1
802.873	276.99
803.053	285.18
803.233	289.28
803.413	262.65
803.592	268.8
803.772	389.63
803.952	252.41
804.131	332.28
804.311	330.23
804.491	217.6
804.67	242.17
804.85	330.23
805.03	293.37
805.209	403.96
805.389	209.4
805.568	340.47
805.748	262.65
805.928	268.8
806.107	279.04
806.287	244.22
806.466	266.75
806.646	268.8
806.825	287.23
807.004	315.9
807.184	195.07
807.363	268.8
807.543	227.84
807.722	205.31
807.901	258.56
808.081	240.12
808.26	186.88
808.439	178.69
808.619	240.12
808.798	201.21
808.977	207.36
809.156	373.24
809.336	203.26
809.515	276.99
809.694	182.78
809.873	209.4
810.052	209.4
810.231	262.65
810.411	236.03
810.59	195.07
810.769	221.69
810.948	225.79
811.127	217.6
811.306	246.27
811.485	274.94
811.664	215.55
811.843	289.28
812.022	209.4
812.201	193.02
812.38	193.02
812.559	190.97
812.737	209.4
812.916	203.26
813.095	221.69
813.274	221.69
813.453	227.84
813.632	176.64
813.811	188.93
813.989	227.84
814.168	178.69
814.347	166.4
814.526	233.98
814.704	246.27
814.883	184.83
815.062	172.54
815.24	223.74
815.419	96.77
815.598	172.54
815.776	121.34
815.955	219.64
816.133	162.3
816.312	217.6
816.49	164.35
816.669	172.54
816.847	180.73
817.026	166.4
817.204	150.01
817.383	254.46
817.561	182.78
817.74	162.3
817.918	86.53
818.097	154.11
818.275	139.77
818.453	133.63
818.632	84.48
818.81	201.21
818.988	217.6
819.167	180.73
819.345	221.69
819.523	223.74
819.701	164.35
819.879	203.26
820.058	156.16
820.236	125.44
820.414	184.83
820.592	158.21
820.77	178.69
820.948	127.49
821.127	262.65
821.305	133.63
821.483	186.88
821.661	207.36
821.839	117.25
822.017	123.39
822.195	115.2
822.373	193.02
822.551	113.15
822.729	74.24
822.907	127.49
823.085	133.63
823.262	72.19
823.44	55.81
823.618	90.62
823.796	190.97
823.974	92.67
824.152	102.91
824.329	145.92
824.507	133.63
824.685	57.86
824.863	66.05
825.04	125.44
825.218	121.34
825.396	141.82
825.574	25.09
825.751	137.73
825.929	115.2
826.107	131.58
826.284	123.39
826.462	168.45
826.639	154.11
826.817	113.15
826.994	121.34
827.172	57.86
827.349	96.77
827.527	190.97
827.704	178.69
827.882	164.35
828.059	133.63
828.237	70.14
828.414	154.11
828.591	76.29
828.769	104.96
828.946	55.81
829.124	104.96
829.301	121.34
829.478	143.87
829.655	72.19
829.833	47.62
830.01	139.77
830.187	98.81
830.364	141.82
830.542	31.23
830.719	92.67
830.896	168.45
831.073	10.75
831.25	125.44
831.427	41.47
831.604	127.49
831.782	145.92
831.959	145.92
832.136	170.49
832.313	92.67
832.49	160.25
832.667	72.19
832.844	66.05
833.021	96.77
833.198	104.96
833.374	86.53
833.551	104.96
833.728	117.25
833.905	141.82
834.082	123.39
834.259	100.86
834.436	129.53
834.612	51.71
834.789	121.34
834.966	107.01
835.143	70.14
835.319	33.28
835.496	49.66
835.673	33.28
835.85	164.35
836.026	64
836.203	61.95
836.38	68.09
836.556	72.19
836.733	100.86
836.909	104.96
837.086	80.38
837.262	76.29
837.439	59.9
837.616	53.76
837.792	72.19
837.968	27.14
838.145	47.62
838.321	12.8
838.498	90.62
838.674	49.66
838.851	90.62
839.027	92.67
839.203	31.23
839.38	55.81
839.556	115.2
839.732	49.66
839.909	86.53
840.085	100.86
840.261	41.47
840.437	39.42
840.614	68.09
840.79	100.86
840.966	68.09
841.142	55.81
841.318	57.86
841.494	104.96
841.671	72.19
841.847	64
842.023	61.95
842.199	31.23
842.375	107.01
842.551	66.05
842.727	14.85
842.903	121.34
843.079	72.19
843.255	143.87
843.431	94.72
843.607	82.43
843.783	49.66
843.959	43.52
844.134	76.29
844.31	49.66
844.486	33.28
844.662	68.09
844.838	-11.78
845.013	49.66
845.189	43.52
845.365	117.25
845.541	27.14
845.716	109.05
845.892	111.1
846.068	76.29
846.244	82.43
846.419	55.81
846.595	98.81
846.77	23.04
846.946	27.14
847.122	51.71
847.297	72.19
847.473	64
847.648	4.61
847.824	20.99
847.999	27.14
848.175	-22.02
848.35	57.86
848.526	104.96
848.701	35.33
848.876	64
849.052	74.24
849.227	39.42
849.403	86.53
849.578	96.77
849.753	55.81
849.929	33.28
850.104	-38.4
850.279	90.62
850.454	70.14
850.63	92.67
850.805	68.09
850.98	25.09
851.155	90.62
851.33	66.05
851.505	47.62
851.681	94.72
851.856	57.86
852.031	55.81
852.206	115.2
852.381	-56.83
852.556	23.04
852.731	57.86
852.906	-22.02
853.081	-30.21
853.256	100.86
853.431	6.66
853.606	-3.58
853.781	111.1
853.956	8.7
854.131	-9.73
854.305	55.81
854.48	39.42
854.655	31.23
854.83	51.71
855.005	-13.82
855.18	76.29
855.354	68.09
855.529	6.66
855.704	49.66
855.879	23.04
856.053	25.09
856.228	82.43
856.403	0.51
856.577	57.86
856.752	-19.97
856.926	-34.3
857.101	35.33
857.276	49.66
857.45	121.34
857.625	16.9
857.799	4.61
857.974	-34.3
858.148	39.42
858.323	29.18
858.497	66.05
858.672	49.66
858.846	16.9
859.02	-15.87
859.195	-54.78
859.369	47.62
859.543	-32.26
859.718	0.51
859.892	-17.92
860.066	43.52
860.241	57.86
860.415	-62.98
860.589	45.57
860.763	-36.35
860.938	100.86
861.112	80.38
861.286	-62.98
861.46	29.18
861.634	-5.63
861.808	109.05
861.982	-42.5
862.157	76.29
862.331	-7.68
862.505	68.09
862.679	2.56
862.853	39.42
863.027	-42.5
863.201	20.99
863.375	-5.63
863.549	-7.68
863.722	49.66
863.896	-13.82
864.07	10.75
864.244	78.33
864.418	-13.82
864.592	-3.58
864.766	8.7
864.939	-30.21
865.113	41.47
865.287	49.66
865.461	47.62
865.634	70.14
865.808	39.42
865.982	29.18
866.156	-15.87
866.329	27.14
866.503	41.47
866.676	18.94
866.85	61.95
867.024	51.71
867.197	31.23
867.371	41.47
867.544	20.99
867.718	14.85
867.891	49.66
868.065	-40.45
868.238	33.28
868.412	49.66
868.585	51.71
868.759	33.28
868.932	-67.07
869.105	14.85
869.279	-7.68
869.452	-9.73
869.625	51.71
869.799	55.81
869.972	-17.92
870.145	-13.82
870.319	-3.58
870.492	0.51
870.665	33.28
870.838	33.28
871.011	-22.02
871.185	-13.82
871.358	6.66
871.531	31.23
871.704	33.28
871.877	29.18
872.05	-22.02
872.223	6.66
872.396	25.09
872.569	66.05
872.742	-52.74
872.915	-13.82
873.088	18.94
873.261	6.66
873.434	-69.12
873.607	-26.11
873.78	47.62
873.953	-22.02
874.126	-56.83
874.299	-1.54
874.471	-54.78
874.644	14.85
874.817	-5.63
874.99	-11.78
875.163	10.75
875.335	29.18
875.508	31.23
875.681	-28.16
875.853	-42.5
876.026	14.85
876.199	51.71
876.371	-9.73
876.544	-101.89
876.717	-1.54
876.889	-17.92
877.062	-36.35
877.234	55.81
877.407	119.29
877.579	33.28
877.752	-24.06
877.924	-17.92
878.097	84.48
878.269	41.47
878.442	-30.21
878.614	18.94
878.786	-28.16
878.959	-15.87
879.131	45.57
879.303	-1.54
879.476	-15.87
879.648	2.56
879.82	27.14
879.993	2.56
880.165	4.61
880.337	0.51
880.509	2.56
880.681	-19.97
880.854	-65.02
881.026	-5.63
881.198	-5.63
881.37	-15.87
881.542	-24.06
881.714	-22.02
881.886	74.24
882.058	33.28
882.23	59.9
882.402	45.57
882.574	-17.92
882.746	61.95
882.918	8.7
883.09	74.24
883.262	-19.97
883.434	-58.88
883.606	-32.26
883.778	98.81
883.95	27.14
884.122	-22.02
884.293	-42.5
884.465	-26.11
884.637	64
884.809	27.14
884.98	14.85
885.152	-54.78
885.324	72.19
885.496	-11.78
885.667	-58.88
885.839	-30.21
886.011	27.14
886.182	2.56
886.354	-3.58
886.525	-24.06
886.697	64
886.869	12.8
887.04	29.18
887.212	72.19
887.383	23.04
887.555	-26.11
887.726	10.75
887.897	16.9
888.069	-9.73
888.24	-58.88
888.412	8.7
888.583	-46.59
888.754	43.52
888.926	10.75
889.097	78.33
889.268	33.28
889.44	-5.63
889.611	-87.55
889.782	-50.69
889.953	-85.5
890.125	31.23
890.296	6.66
890.467	-42.5
890.638	27.14
890.809	47.62
890.98	25.09
891.151	-44.54
891.323	2.56
891.494	14.85
891.665	74.24
891.836	59.9
892.007	2.56
892.178	8.7
892.349	-30.21
892.52	-32.26
892.691	12.8
892.862	14.85
893.032	-30.21
893.203	-19.97
893.374	-5.63
893.545	-28.16
893.716	-34.3
893.887	10.75
894.057	-24.06
894.228	23.04
894.399	68.09
894.57	20.99
894.74	55.81
894.911	-17.92
895.082	-71.17
895.253	2.56
895.423	8.7
895.594	51.71
895.764	14.85
895.935	-52.74
896.106	39.42
896.276	2.56
896.447	-7.68
896.617	-24.06
896.788	-9.73
896.958	-62.98
897.129	-58.88
897.299	-71.17
897.47	-15.87
897.64	53.76
897.81	76.29
897.981	14.85
898.151	35.33
898.322	39.42
898.492	68.09
898.662	2.56
898.832	-3.58
899.003	70.14
899.173	43.52
899.343	8.7
899.513	2.56
