Data from USB4F104151__240__11-11-23-651.txt Node

Date: Wed Mar 12 11:11:23 EDT 2025
User: louis
Spectrometer: USB4F10415
Trigger mode: 4
Integration Time (sec): 2.000000E-2
Scans to average: 1
Electric dark correction enabled: true
Nonlinearity correction enabled: false
Boxcar width: 0
XAxis mode: Wavelengths
Number of Pixels in Spectrum: 3648
>>>>>Begin Spectral Data<<<<<
178.204	-27.99
178.424	-27.99
178.644	-27.99
178.864	-75.09
179.084	-77.14
179.304	-66.9
179.524	19.11
179.744	29.35
179.964	19.11
180.184	-11.61
180.404	-21.85
180.624	-48.47
180.844	-1.37
181.064	58.03
181.283	25.26
181.503	-19.8
181.723	19.11
181.943	62.12
182.163	84.65
182.383	49.83
182.602	74.41
182.822	29.35
183.042	23.21
183.262	-27.99
183.482	17.07
183.701	2.73
183.921	15.02
184.141	-32.08
184.361	4.78
184.58	-3.41
184.8	0.68
185.02	47.79
185.239	60.07
185.459	-7.51
185.679	45.74
185.898	8.87
186.118	51.88
186.338	-5.46
186.557	-1.37
186.777	12.97
186.997	33.45
187.216	68.27
187.436	66.22
187.655	47.79
187.875	53.93
188.095	19.11
188.314	148.14
188.534	90.79
188.753	58.03
188.973	15.02
189.192	-34.13
189.412	78.51
189.631	-32.08
189.851	-5.46
190.07	41.64
190.29	35.5
190.509	17.07
190.729	115.37
190.948	25.26
191.168	119.46
191.387	60.07
191.607	21.16
191.826	88.75
192.045	19.11
192.265	41.64
192.484	37.55
192.704	-42.32
192.923	-32.08
193.142	58.03
193.362	-15.7
193.581	37.55
193.8	41.64
194.02	107.18
194.239	66.22
194.458	150.18
194.678	-48.47
194.897	82.6
195.116	76.46
195.335	68.27
195.555	37.55
195.774	17.07
195.993	64.17
196.212	17.07
196.432	-17.75
196.651	58.03
196.87	25.26
197.089	76.46
197.308	90.79
197.528	107.18
197.747	-34.13
197.966	68.27
198.185	74.41
198.404	35.5
198.623	-46.42
198.842	27.31
199.062	53.93
199.281	94.89
199.5	101.03
199.719	49.83
199.938	12.97
200.157	74.41
200.376	6.83
200.595	94.89
200.814	70.31
201.033	-15.7
201.252	-7.51
201.471	76.46
201.69	29.35
201.909	82.6
202.128	103.08
202.347	84.65
202.566	-5.46
202.785	45.74
203.004	45.74
203.223	107.18
203.442	23.21
203.661	70.31
203.879	29.35
204.098	88.75
204.317	23.21
204.536	15.02
204.755	35.5
204.974	62.12
205.193	84.65
205.411	82.6
205.63	64.17
205.849	45.74
206.068	12.97
206.287	74.41
206.505	-36.18
206.724	80.55
206.943	33.45
207.162	55.98
207.381	58.03
207.599	58.03
207.818	37.55
208.037	-15.7
208.255	-19.8
208.474	82.6
208.693	10.92
208.911	80.55
209.13	49.83
209.349	53.93
209.567	51.88
209.786	8.87
210.005	66.22
210.223	-13.65
210.442	0.68
210.661	49.83
210.879	-1.37
211.098	-5.46
211.316	74.41
211.535	55.98
211.753	109.23
211.972	86.7
212.191	29.35
212.409	88.75
212.628	-3.41
212.846	-7.51
213.065	4.78
213.283	82.6
213.502	-23.89
213.72	74.41
213.938	117.42
214.157	53.93
214.375	51.88
214.594	55.98
214.812	74.41
215.031	-48.47
215.249	109.23
215.467	119.46
215.686	33.45
215.904	47.79
216.122	-32.08
216.341	78.51
216.559	33.45
216.778	82.6
216.996	58.03
217.214	-32.08
217.432	66.22
217.651	17.07
217.869	49.83
218.087	80.55
218.306	37.55
218.524	101.03
218.742	10.92
218.96	37.55
219.179	45.74
219.397	51.88
219.615	64.17
219.833	-30.04
220.051	8.87
220.27	29.35
220.488	68.27
220.706	-36.18
220.924	55.98
221.142	2.73
221.36	107.18
221.578	74.41
221.796	68.27
222.015	45.74
222.233	78.51
222.451	66.22
222.669	19.11
222.887	86.7
223.105	45.74
223.323	31.4
223.541	-23.89
223.759	17.07
223.977	107.18
224.195	15.02
224.413	41.64
224.631	-19.8
224.849	53.93
225.067	127.66
225.285	31.4
225.503	10.92
225.721	6.83
225.939	27.31
226.157	-46.42
226.375	107.18
226.592	4.78
226.81	68.27
227.028	92.84
227.246	86.7
227.464	27.31
227.682	92.84
227.9	53.93
228.117	-3.41
228.335	51.88
228.553	12.97
228.771	4.78
228.989	47.79
229.206	-11.61
229.424	78.51
229.642	39.59
229.86	55.98
230.077	47.79
230.295	-21.85
230.513	-1.37
230.731	88.75
230.948	53.93
231.166	51.88
231.384	98.99
231.601	101.03
231.819	31.4
232.037	-5.46
232.254	-27.99
232.472	111.27
232.689	109.23
232.907	31.4
233.125	2.73
233.342	19.11
233.56	29.35
233.777	47.79
233.995	37.55
234.213	47.79
234.43	64.17
234.648	8.87
234.865	-3.41
235.083	39.59
235.3	-15.7
235.518	92.84
235.735	45.74
235.953	35.5
236.17	21.16
236.388	2.73
236.605	19.11
236.822	23.21
237.04	31.4
237.257	41.64
237.475	47.79
237.692	-36.18
237.909	-19.8
238.127	74.41
238.344	82.6
238.562	33.45
238.779	119.46
238.996	-27.99
239.214	53.93
239.431	8.87
239.648	55.98
239.865	27.31
240.083	119.46
240.3	15.02
240.517	35.5
240.735	-27.99
240.952	55.98
241.169	51.88
241.386	23.21
241.603	25.26
241.821	49.83
242.038	109.23
242.255	66.22
242.472	15.02
242.689	84.65
242.907	49.83
243.124	41.64
243.341	90.79
243.558	8.87
243.775	15.02
243.992	35.5
244.209	66.22
244.426	72.36
244.643	25.26
244.86	43.69
245.078	88.75
245.295	66.22
245.512	58.03
245.729	53.93
245.946	68.27
246.163	8.87
246.38	74.41
246.597	12.97
246.814	64.17
247.031	-1.37
247.248	88.75
247.464	62.12
247.681	-11.61
247.898	88.75
248.115	82.6
248.332	29.35
248.549	101.03
248.766	80.55
248.983	94.89
249.2	41.64
249.417	6.83
249.633	-17.75
249.85	45.74
250.067	41.64
250.284	78.51
250.501	76.46
250.717	103.08
250.934	21.16
251.151	12.97
251.368	12.97
251.585	84.65
251.801	17.07
252.018	-3.41
252.235	41.64
252.451	-52.56
252.668	66.22
252.885	19.11
253.102	90.79
253.318	37.55
253.535	37.55
253.752	39.59
253.968	15.02
254.185	-27.99
254.401	121.51
254.618	90.79
254.835	17.07
255.051	41.64
255.268	4.78
255.484	35.5
255.701	107.18
255.917	60.07
256.134	58.03
256.351	88.75
256.567	4.78
256.784	64.17
257	-1.37
257.217	25.26
257.433	72.36
257.65	21.16
257.866	-9.56
258.082	62.12
258.299	-7.51
258.515	113.32
258.732	15.02
258.948	15.02
259.165	27.31
259.381	58.03
259.597	41.64
259.814	17.07
260.03	53.93
260.246	-15.7
260.463	68.27
260.679	86.7
260.895	51.88
261.112	78.51
261.328	33.45
261.544	121.51
261.761	17.07
261.977	88.75
262.193	-3.41
262.409	6.83
262.626	66.22
262.842	29.35
263.058	60.07
263.274	29.35
263.49	68.27
263.707	90.79
263.923	0.68
264.139	2.73
264.355	51.88
264.571	58.03
264.787	43.69
265.004	88.75
265.22	-19.8
265.436	94.89
265.652	70.31
265.868	105.13
266.084	21.16
266.3	129.7
266.516	131.75
266.732	49.83
266.948	-17.75
267.164	12.97
267.38	15.02
267.596	12.97
267.812	8.87
268.028	68.27
268.244	31.4
268.46	127.66
268.676	12.97
268.892	-11.61
269.108	17.07
269.324	8.87
269.54	35.5
269.756	98.99
269.972	27.31
270.188	45.74
270.403	-27.99
270.619	-30.04
270.835	53.93
271.051	96.94
271.267	-19.8
271.483	2.73
271.698	113.32
271.914	33.45
272.13	47.79
272.346	84.65
272.562	125.61
272.777	27.31
272.993	66.22
273.209	113.32
273.425	94.89
273.64	25.26
273.856	0.68
274.072	41.64
274.287	29.35
274.503	8.87
274.719	19.11
274.934	49.83
275.15	0.68
275.366	62.12
275.581	21.16
275.797	51.88
276.012	25.26
276.228	15.02
276.444	15.02
276.659	72.36
276.875	37.55
277.09	-19.8
277.306	53.93
277.521	37.55
277.737	23.21
277.952	68.27
278.168	6.83
278.383	29.35
278.599	125.61
278.814	49.83
279.03	4.78
279.245	103.08
279.461	4.78
279.676	141.99
279.892	41.64
280.107	-3.41
280.322	41.64
280.538	70.31
280.753	47.79
280.969	19.11
281.184	62.12
281.399	53.93
281.615	25.26
281.83	72.36
282.045	27.31
282.26	51.88
282.476	94.89
282.691	29.35
282.906	90.79
283.122	45.74
283.337	-1.37
283.552	62.12
283.767	41.64
283.983	8.87
284.198	31.4
284.413	-3.41
284.628	127.66
284.843	62.12
285.058	72.36
285.274	55.98
285.489	98.99
285.704	8.87
285.919	68.27
286.134	68.27
286.349	37.55
286.564	31.4
286.779	17.07
286.995	45.74
287.21	8.87
287.425	94.89
287.64	45.74
287.855	70.31
288.07	47.79
288.285	82.6
288.5	70.31
288.715	55.98
288.93	8.87
289.145	72.36
289.36	68.27
289.575	45.74
289.79	115.37
290.004	86.7
290.219	72.36
290.434	-44.37
290.649	70.31
290.864	80.55
291.079	-11.61
291.294	94.89
291.509	19.11
291.724	-11.61
291.938	78.51
292.153	51.88
292.368	12.97
292.583	8.87
292.798	31.4
293.012	62.12
293.227	25.26
293.442	45.74
293.657	72.36
293.871	78.51
294.086	55.98
294.301	103.08
294.516	19.11
294.73	68.27
294.945	-21.85
295.16	60.07
295.374	53.93
295.589	94.89
295.804	6.83
296.018	86.7
296.233	78.51
296.447	23.21
296.662	-1.37
296.877	133.8
297.091	47.79
297.306	12.97
297.52	98.99
297.735	47.79
297.949	-11.61
298.164	62.12
298.378	-15.7
298.593	49.83
298.807	25.26
299.022	37.55
299.236	117.42
299.451	25.26
299.665	41.64
299.88	17.07
300.094	70.31
300.309	60.07
300.523	51.88
300.737	94.89
300.952	12.97
301.166	117.42
301.381	6.83
301.595	58.03
301.809	31.4
302.024	-21.85
302.238	41.64
302.452	31.4
302.667	70.31
302.881	62.12
303.095	62.12
303.309	25.26
303.524	31.4
303.738	-9.56
303.952	-40.28
304.166	133.8
304.381	49.83
304.595	117.42
304.809	66.22
305.023	49.83
305.237	62.12
305.452	103.08
305.666	84.65
305.88	70.31
306.094	113.32
306.308	98.99
306.522	103.08
306.736	21.16
306.95	139.94
307.164	-11.61
307.379	60.07
307.593	111.27
307.807	58.03
308.021	45.74
308.235	144.04
308.449	88.75
308.663	21.16
308.877	70.31
309.091	21.16
309.305	4.78
309.519	6.83
309.733	39.59
309.947	-27.99
310.161	90.79
310.374	117.42
310.588	105.13
310.802	51.88
311.016	60.07
311.23	12.97
311.444	31.4
311.658	49.83
311.872	84.65
312.085	51.88
312.299	131.75
312.513	62.12
312.727	51.88
312.941	-5.46
313.154	51.88
313.368	66.22
313.582	58.03
313.796	76.46
314.009	31.4
314.223	172.71
314.437	51.88
314.651	119.46
314.864	72.36
315.078	90.79
315.292	94.89
315.505	-27.99
315.719	6.83
315.933	29.35
316.146	117.42
316.36	55.98
316.573	84.65
316.787	103.08
317.001	-32.08
317.214	90.79
317.428	31.4
317.641	76.46
317.855	23.21
318.068	66.22
318.282	17.07
318.495	68.27
318.709	78.51
318.922	31.4
319.136	80.55
319.349	35.5
319.563	47.79
319.776	51.88
319.99	101.03
320.203	45.74
320.417	103.08
320.63	98.99
320.843	55.98
321.057	84.65
321.27	33.45
321.483	53.93
321.697	84.65
321.91	29.35
322.124	6.83
322.337	43.69
322.55	115.37
322.763	55.98
322.977	105.13
323.19	19.11
323.403	68.27
323.617	58.03
323.83	51.88
324.043	113.32
324.256	4.78
324.469	15.02
324.683	47.79
324.896	19.11
325.109	66.22
325.322	68.27
325.535	111.27
325.748	94.89
325.962	49.83
326.175	45.74
326.388	74.41
326.601	53.93
326.814	43.69
327.027	19.11
327.24	25.26
327.453	51.88
327.666	82.6
327.879	45.74
328.092	47.79
328.305	88.75
328.518	51.88
328.731	21.16
328.944	62.12
329.157	60.07
329.37	96.94
329.583	72.36
329.796	74.41
330.009	10.92
330.222	123.56
330.435	66.22
330.648	66.22
330.861	53.93
331.073	49.83
331.286	113.32
331.499	47.79
331.712	43.69
331.925	43.69
332.138	107.18
332.35	119.46
332.563	19.11
332.776	82.6
332.989	-1.37
333.202	21.16
333.414	82.6
333.627	109.23
333.84	141.99
334.053	70.31
334.265	-21.85
334.478	90.79
334.691	51.88
334.903	25.26
335.116	98.99
335.329	2.73
335.541	51.88
335.754	55.98
335.966	-3.41
336.179	29.35
336.392	37.55
336.604	187.05
336.817	105.13
337.029	148.14
337.242	21.16
337.454	68.27
337.667	21.16
337.88	121.51
338.092	12.97
338.305	117.42
338.517	49.83
338.729	107.18
338.942	64.17
339.154	86.7
339.367	101.03
339.579	62.12
339.792	33.45
340.004	78.51
340.217	74.41
340.429	47.79
340.641	74.41
340.854	19.11
341.066	37.55
341.278	98.99
341.491	101.03
341.703	12.97
341.915	33.45
342.128	47.79
342.34	39.59
342.552	31.4
342.764	15.02
342.977	2.73
343.189	88.75
343.401	58.03
343.613	-64.85
343.826	58.03
344.038	64.17
344.25	117.42
344.462	27.31
344.674	55.98
344.886	49.83
345.099	55.98
345.311	68.27
345.523	19.11
345.735	35.5
345.947	37.55
346.159	33.45
346.371	29.35
346.583	33.45
346.795	29.35
347.007	27.31
347.219	68.27
347.431	53.93
347.643	98.99
347.855	78.51
348.067	131.75
348.279	58.03
348.491	19.11
348.703	92.84
348.915	90.79
349.127	92.84
349.339	35.5
349.551	31.4
349.763	66.22
349.975	111.27
350.187	58.03
350.399	78.51
350.61	60.07
350.822	55.98
351.034	58.03
351.246	84.65
351.458	43.69
351.669	74.41
351.881	86.7
352.093	80.55
352.305	84.65
352.517	27.31
352.728	31.4
352.94	-19.8
353.152	-5.46
353.363	15.02
353.575	84.65
353.787	150.18
353.999	119.46
354.21	43.69
354.422	88.75
354.633	-44.37
354.845	25.26
355.057	64.17
355.268	94.89
355.48	29.35
355.692	33.45
355.903	105.13
356.115	45.74
356.326	17.07
356.538	115.37
356.749	90.79
356.961	66.22
357.172	82.6
357.384	82.6
357.595	55.98
357.807	27.31
358.018	123.56
358.23	51.88
358.441	111.27
358.653	80.55
358.864	103.08
359.075	51.88
359.287	51.88
359.498	70.31
359.709	60.07
359.921	51.88
360.132	12.97
360.344	4.78
360.555	0.68
360.766	78.51
360.977	70.31
361.189	68.27
361.4	74.41
361.611	68.27
361.823	146.09
362.034	121.51
362.245	-3.41
362.456	111.27
362.667	62.12
362.879	45.74
363.09	-5.46
363.301	15.02
363.512	41.64
363.723	39.59
363.935	47.79
364.146	41.64
364.357	23.21
364.568	0.68
364.779	49.83
364.99	62.12
365.201	82.6
365.412	80.55
365.623	86.7
365.834	74.41
366.045	76.46
366.256	49.83
366.467	127.66
366.678	53.93
366.889	107.18
367.1	58.03
367.311	137.9
367.522	27.31
367.733	17.07
367.944	84.65
368.155	92.84
368.366	139.94
368.577	64.17
368.788	103.08
368.999	19.11
369.209	53.93
369.42	176.81
369.631	21.16
369.842	12.97
370.053	33.45
370.264	62.12
370.474	19.11
370.685	68.27
370.896	64.17
371.107	78.51
371.317	148.14
371.528	86.7
371.739	107.18
371.95	72.36
372.16	131.75
372.371	80.55
372.582	103.08
372.792	80.55
373.003	47.79
373.214	47.79
373.424	115.37
373.635	55.98
373.846	88.75
374.056	53.93
374.267	51.88
374.477	17.07
374.688	29.35
374.898	103.08
375.109	17.07
375.319	76.46
375.53	141.99
375.74	41.64
375.951	70.31
376.161	119.46
376.372	115.37
376.582	66.22
376.793	103.08
377.003	94.89
377.214	135.85
377.424	55.98
377.635	80.55
377.845	60.07
378.055	119.46
378.266	66.22
378.476	105.13
378.686	88.75
378.897	15.02
379.107	86.7
379.317	76.46
379.528	92.84
379.738	49.83
379.948	53.93
380.158	80.55
380.369	94.89
380.579	146.09
380.789	-19.8
380.999	92.84
381.21	148.14
381.42	80.55
381.63	80.55
381.84	121.51
382.05	115.37
382.261	90.79
382.471	94.89
382.681	115.37
382.891	62.12
383.101	25.26
383.311	-81.24
383.521	117.42
383.731	127.66
383.941	25.26
384.151	88.75
384.361	64.17
384.571	129.7
384.781	68.27
384.991	45.74
385.201	115.37
385.411	64.17
385.621	62.12
385.831	154.28
386.041	53.93
386.251	74.41
386.461	80.55
386.671	60.07
386.881	166.57
387.091	74.41
387.301	150.18
387.511	137.9
387.72	0.68
387.93	94.89
388.14	64.17
388.35	51.88
388.56	105.13
388.769	119.46
388.979	64.17
389.189	6.83
389.399	115.37
389.609	131.75
389.818	64.17
390.028	94.89
390.238	66.22
390.447	41.64
390.657	37.55
390.867	109.23
391.076	94.89
391.286	55.98
391.496	51.88
391.705	127.66
391.915	150.18
392.125	41.64
392.334	199.34
392.544	131.75
392.753	121.51
392.963	82.6
393.172	90.79
393.382	49.83
393.591	88.75
393.801	82.6
394.01	123.56
394.22	160.42
394.429	146.09
394.639	123.56
394.848	96.94
395.058	45.74
395.267	109.23
395.477	105.13
395.686	141.99
395.895	150.18
396.105	60.07
396.314	86.7
396.524	45.74
396.733	135.85
396.942	193.19
397.152	119.46
397.361	103.08
397.57	139.94
397.78	133.8
397.989	76.46
398.198	115.37
398.407	137.9
398.617	78.51
398.826	139.94
399.035	125.61
399.244	135.85
399.453	98.99
399.663	187.05
399.872	141.99
400.081	103.08
400.29	51.88
400.499	170.66
400.708	125.61
400.917	158.38
401.127	84.65
401.336	96.94
401.545	189.1
401.754	94.89
401.963	127.66
402.172	203.43
402.381	146.09
402.59	119.46
402.799	156.33
403.008	88.75
403.217	225.96
403.426	201.38
403.635	160.42
403.844	199.34
404.053	205.48
404.262	133.8
404.471	170.66
404.68	187.05
404.888	168.62
405.097	162.47
405.306	168.62
405.515	217.77
405.724	242.34
405.933	252.58
406.142	105.13
406.35	256.68
406.559	199.34
406.768	217.77
406.977	205.48
407.185	180.9
407.394	228.01
407.603	234.15
407.812	299.69
408.02	305.83
408.229	297.64
408.438	256.68
408.646	273.06
408.855	205.48
409.064	281.25
409.272	320.17
409.481	344.74
409.69	301.73
409.898	320.17
410.107	348.84
410.315	410.28
410.524	348.84
410.733	354.98
410.941	389.8
411.15	414.37
411.358	420.52
411.567	488.1
411.775	426.66
411.984	471.72
412.192	449.19
412.401	490.15
412.609	576.16
412.818	541.35
413.026	541.35
413.234	549.54
413.443	578.21
413.651	631.46
413.86	574.11
414.068	686.75
414.276	678.56
414.485	709.28
414.693	727.71
414.901	680.61
415.11	819.87
415.318	733.86
415.526	768.67
415.734	914.08
415.943	932.51
416.151	901.79
416.359	971.42
416.567	973.47
416.776	987.8
416.984	1004.19
417.192	1055.39
417.4	1102.49
417.608	1045.15
417.817	1127.07
418.025	1184.41
418.233	1397.4
418.441	1254.04
418.649	1311.38
418.857	1381.01
419.065	1483.41
419.273	1510.04
419.481	1505.94
419.689	1643.15
419.897	1540.76
420.105	1841.81
420.313	1761.94
420.521	1747.6
420.729	1864.33
420.937	1903.25
421.145	1911.44
421.353	2044.56
421.561	2144.91
421.769	2144.91
421.977	2253.45
422.185	2194.06
422.393	2439.81
422.601	2495.11
422.809	2523.78
423.017	2523.78
423.224	2761.34
423.432	2716.29
423.64	2925.18
423.848	3015.29
424.056	2957.95
424.263	3222.14
424.471	3121.79
424.679	3367.54
424.887	3451.51
425.094	3541.62
425.302	3590.77
425.51	3656.31
425.718	3857.01
425.925	3744.37
426.133	4010.61
426.341	4215.4
426.548	4325.99
426.756	4307.56
426.964	4313.7
427.171	4784.74
427.379	4786.79
427.586	4915.81
427.794	5036.64
428.001	5229.15
428.209	5526.1
428.417	5503.57
428.624	5937.74
428.832	5907.02
429.039	5698.13
429.247	5806.67
429.454	6287.95
429.662	6935.1
429.869	6324.81
430.076	6769.22
430.284	6771.27
430.491	6847.04
430.699	7205.44
430.906	7219.77
431.114	7375.42
431.321	7598.65
431.528	7758.39
431.736	8155.69
431.943	8528.42
432.15	8258.09
432.358	8544.81
432.565	8915.49
432.772	8907.3
432.979	9140.77
433.187	9603.61
433.394	9624.09
433.601	10359.31
433.808	10199.57
434.016	10246.67
434.223	10576.39
434.43	11149.82
434.637	11186.69
434.844	11721.21
435.052	12130.8
435.259	11725.3
435.466	12038.64
435.673	11610.62
435.88	12601.83
436.087	13433.31
436.294	13400.54
436.501	13029.86
436.708	13449.69
436.915	13654.49
437.122	14164.43
437.329	14068.18
437.537	14692.81
437.743	14854.6
437.95	14645.71
438.157	15468.99
438.364	15858.1
438.571	15792.57
438.778	16220.6
438.985	17910.17
439.192	16822.7
439.399	17211.81
439.606	16918.95
439.813	17801.63
440.02	18950.54
440.227	18682.25
440.433	18661.77
440.64	19112.33
440.847	18952.59
441.054	19564.93
441.261	21186.92
441.467	20615.54
441.674	21039.47
441.881	21481.83
442.088	21432.68
442.294	21508.45
442.501	21950.81
442.708	22376.79
442.914	23488.84
443.121	24295.74
443.328	23417.16
443.534	25383.21
443.741	24389.94
443.948	24207.67
444.154	25956.64
444.361	25780.51
444.568	26312.99
444.774	25876.77
444.981	26040.61
445.187	27166.99
445.394	28408.06
445.6	27826.43
445.807	30564.57
446.013	29098.22
446.22	30030.05
446.426	30685.4
446.633	31217.87
446.839	32227.52
447.046	30845.14
447.252	32579.77
447.459	32377.02
447.665	32301.25
447.871	33693.86
448.078	35217.55
448.284	33382.57
448.491	34543.77
448.697	35883.14
448.903	36294.78
449.11	36300.93
449.316	35610.76
449.522	36460.67
449.728	37550.19
449.935	37779.56
450.141	37390.45
450.347	39075.93
450.553	37290.1
450.76	37521.52
450.966	38639.71
451.172	38484.06
451.378	39202.9
451.584	38436.96
451.791	39346.26
451.997	39290.96
452.203	39977.03
452.409	39655.5
452.615	39790.67
452.821	38402.14
453.027	37881.96
453.233	39573.58
453.44	38045.8
453.646	38731.87
453.852	38783.07
454.058	39493.71
454.264	38283.36
454.47	38735.96
454.676	37841
454.882	39307.35
455.088	35850.38
455.294	36497.53
455.5	36751.48
455.705	37081.2
455.911	35483.79
456.117	35166.35
456.323	34189.47
456.529	32737.46
456.735	34207.9
456.941	33314.99
457.147	32497.85
457.352	31621.32
457.558	31271.12
457.764	31340.75
457.97	30783.7
458.176	29970.66
458.381	30030.05
458.587	28143.87
458.793	28387.58
458.999	27181.32
459.204	29008.11
459.41	28096.77
459.616	26632.47
459.821	26442.01
460.027	26523.93
460.233	25913.63
460.438	24666.42
460.644	24863.02
460.85	23634.24
461.055	23365.96
461.261	23038.28
461.466	21680.48
461.672	20734.32
461.878	22778.19
462.083	21066.09
462.289	20453.75
462.494	20392.31
462.7	19646.85
462.905	18887.05
463.111	20019.58
463.316	19831.16
463.522	18987.4
463.727	19364.23
463.932	19265.92
464.138	18921.87
464.343	18909.58
464.549	18655.63
464.754	19122.57
464.959	19270.02
465.165	18842
465.37	18381.2
465.575	17623.45
465.781	18416.02
465.986	18491.79
466.191	18059.67
466.397	17471.9
466.602	16787.88
466.807	17279.4
467.012	17244.58
467.218	17230.24
467.423	16748.97
467.628	17103.27
467.833	17940.89
468.038	16961.96
468.244	16820.65
468.449	17473.95
468.654	16658.86
468.859	16652.72
469.064	16593.33
469.269	15837.62
469.474	16284.08
469.679	16351.67
469.885	15827.39
470.09	16050.61
470.295	15909.3
470.5	15456.7
470.705	15583.68
470.91	15391.17
471.115	15200.71
471.32	15493.57
471.525	15462.85
471.73	14903.75
471.935	14985.67
472.139	14537.16
472.344	14590.41
472.549	14541.26
472.754	14377.42
472.959	13844.95
473.164	13586.91
473.369	13863.38
473.574	14004.69
473.778	13920.73
473.983	13777.37
474.188	13648.35
474.393	13177.31
474.598	13246.94
474.802	13122.02
475.007	13173.22
475.212	13175.27
475.417	12472.81
475.621	12534.25
475.826	12691.94
476.031	12265.97
476.235	12225.01
476.44	12460.52
476.645	12073.46
476.849	12274.16
477.054	11983.35
477.259	11848.18
477.463	11796.98
477.668	11401.72
477.872	11520.51
478.077	11368.96
478.282	11198.98
478.486	11168.26
478.691	11323.9
478.895	11014.66
479.1	10908.16
479.304	11057.67
479.509	10627.59
479.713	10908.16
479.918	10408.46
480.122	10553.87
480.326	10703.37
480.531	10271.25
480.735	10445.32
480.94	10404.36
481.144	10732.04
481.348	10074.64
481.553	10226.19
481.757	10101.26
481.961	10312.21
482.166	10418.7
482.37	10279.44
482.574	10099.22
482.778	10275.34
482.983	10404.36
483.187	10451.47
483.391	10383.88
483.595	10218
483.8	10197.52
484.004	10185.23
484.208	10256.91
484.412	10156.56
484.616	10285.58
484.821	10265.1
485.025	9914.9
485.229	10330.64
485.433	10209.81
485.637	10230.29
485.841	10218
486.045	10154.51
486.249	10107.41
486.453	10181.14
486.657	10318.35
486.861	10295.82
487.065	10082.83
487.269	10009.11
487.473	10218
487.677	10269.2
487.881	10238.48
488.085	10459.66
488.289	10410.51
488.493	10279.44
488.697	10484.23
488.901	10101.26
489.105	10322.45
489.309	10467.85
489.512	10392.08
489.716	10492.43
489.92	10490.38
490.124	10478.09
490.328	10607.11
490.531	10492.43
490.735	10631.69
490.939	10770.95
491.143	10609.16
491.346	10594.82
491.55	10705.42
491.754	10912.26
491.958	10762.76
492.161	10738.18
492.365	10899.97
492.569	10869.25
492.772	10775.05
492.976	11035.14
493.18	11078.15
493.383	11057.67
493.587	11180.54
493.79	11112.96
493.994	11127.3
494.197	11291.13
494.401	11454.97
494.605	11434.49
494.808	11620.86
495.012	11702.78
495.215	11637.24
495.419	11917.81
495.622	11631.1
495.825	12087.79
496.029	12026.36
496.232	12382.7
496.436	12292.59
496.639	12792.3
496.843	12321.26
497.046	12642.79
497.249	12704.23
497.453	12886.5
497.656	12878.31
497.859	13101.54
498.063	13210.08
498.266	13734.36
498.469	13556.19
498.673	13652.44
498.876	13695.45
499.079	13849.05
499.282	13869.53
499.485	14199.25
499.689	14340.56
499.892	14623.18
500.095	14543.31
500.298	14893.51
500.501	14629.32
500.705	15557.05
500.908	15264.19
501.111	15464.89
501.314	15712.7
501.517	15679.93
501.72	15708.6
501.923	15968.69
502.126	16495.02
502.329	16574.89
502.532	16572.85
502.735	16857.51
502.938	17174.95
503.141	17125.8
503.344	17637.79
503.547	17283.49
503.75	17752.48
503.953	17992.09
504.156	18178.45
504.359	18186.65
504.562	18674.06
504.765	18629.01
504.968	18905.48
505.17	19167.62
505.373	19147.14
505.576	19532.16
505.779	19872.12
505.982	19839.36
506.185	20265.33
506.387	20179.32
506.59	20496.75
506.793	20908.4
506.996	20742.51
507.198	21352.8
507.401	21248.36
507.604	21584.23
507.807	22288.73
508.009	22104.41
508.212	22317.4
508.415	22792.53
508.617	22796.62
508.82	22954.32
509.022	22794.57
509.225	23730.5
509.428	23761.22
509.63	23882.05
509.833	23945.53
510.035	24740.15
510.238	24287.54
510.44	24660.27
510.643	24928.56
510.845	25297.19
511.048	25370.92
511.25	25983.26
511.453	25985.31
511.655	26874.13
511.858	26269.98
512.06	26429.72
512.262	27103.5
512.465	26714.39
512.667	27257.1
512.87	27474.18
513.072	27658.5
513.274	28233.98
513.477	28473.59
513.679	28645.62
513.881	28772.6
514.084	29292.78
514.286	29251.82
514.488	29444.33
514.69	30509.27
514.893	30525.66
515.095	30130.4
515.297	30898.39
515.499	30896.34
515.701	31449.29
515.904	31475.91
516.106	31580.36
516.308	31891.65
516.51	32311.49
516.712	32514.23
516.914	32790.71
517.116	32987.32
517.318	33423.53
517.52	33724.58
517.722	34062.5
517.925	34179.23
518.127	34578.59
518.329	34914.45
518.531	34875.54
518.733	35123.35
518.935	35917.96
519.136	35455.12
519.338	36335.74
519.54	36518.01
519.742	36649.08
519.944	36821.11
520.146	37161.08
520.348	37320.82
520.55	37548.14
520.752	38051.94
520.954	38674.52
521.155	38010.98
521.357	38701.15
521.559	38772.83
521.761	39526.48
521.963	39407.7
522.164	39606.35
522.366	39768.14
522.568	40261.7
522.77	40220.74
522.971	41060.41
523.173	40622.14
523.375	41195.57
523.576	40790.08
523.778	40900.67
523.98	41717.81
524.181	41926.7
524.383	42326.05
524.584	42450.98
524.786	42086.44
524.988	42262.57
525.189	42940.44
525.391	42997.79
525.592	43288.6
525.794	43368.47
525.995	43677.71
526.197	43046.94
526.398	43505.68
526.6	44058.63
526.801	44038.15
527.003	44263.43
527.204	44275.72
527.406	44752.9
527.607	44709.89
527.808	45320.18
528.01	44230.66
528.211	44425.22
528.412	45658.1
528.614	45305.85
528.815	45148.15
529.016	45873.13
529.218	45344.76
529.419	45610.99
529.62	45742.06
529.822	45633.52
530.023	46120.94
530.224	45694.96
530.425	45742.06
530.626	45678.58
530.828	45430.77
531.029	46438.37
531.23	45987.82
531.431	46118.89
531.632	45985.77
531.833	46585.83
532.035	46331.88
532.236	46596.07
532.437	46544.87
532.638	46221.29
532.839	46589.92
533.04	46581.73
533.241	46602.21
533.442	47433.69
533.643	46753.76
533.844	46786.53
534.045	46864.35
534.246	46471.14
534.447	47007.71
534.648	47009.76
534.849	46925.79
535.05	46893.02
535.251	47310.81
535.451	46774.24
535.652	46905.31
535.853	46733.28
536.054	46923.74
536.255	47175.64
536.456	46735.33
536.657	47636.44
536.857	47200.22
537.058	46811.1
537.259	47609.81
537.46	46888.93
537.66	46755.81
537.861	47044.57
538.062	46786.53
538.263	47200.22
538.463	47020
538.664	46665.7
538.865	47175.64
539.065	46956.51
539.266	46520.29
539.466	47327.19
539.667	46516.2
539.868	47345.62
540.068	46860.26
540.269	47040.48
540.469	47138.78
540.67	46825.44
540.87	46917.6
541.071	46850.02
541.271	46974.94
541.472	46868.45
541.672	46835.68
541.873	46626.79
542.073	46274.54
542.274	47040.48
542.474	46776.29
542.675	46931.93
542.875	47003.61
543.075	46594.02
543.276	46565.35
543.476	46968.8
543.676	46559.2
543.877	47194.07
544.077	46749.67
544.277	46565.35
544.478	46462.95
544.678	46682.08
544.878	46987.23
545.078	46749.67
545.279	46458.85
545.479	46755.81
545.679	47052.76
545.879	46921.69
546.079	46790.62
546.28	46673.89
546.48	46297.06
546.68	46696.42
546.88	46743.52
547.08	47028.19
547.28	46634.98
547.48	46415.85
547.68	46993.37
547.88	45811.7
548.081	46741.47
548.281	46925.79
548.481	46290.92
548.681	47169.5
548.881	46442.47
549.081	46938.08
549.28	46733.28
549.48	46591.97
549.68	45955.05
549.88	47187.93
550.08	46397.41
550.28	46768.1
550.48	46282.73
550.68	46493.67
550.88	46467.05
551.08	46149.61
551.279	46424.04
551.479	45998.06
551.679	46084.08
551.879	46217.19
552.079	46331.88
552.278	45983.72
552.478	46411.75
552.678	46358.5
552.878	46301.16
553.077	46403.56
553.277	45729.78
553.477	46913.5
553.676	45838.32
553.876	46147.56
554.076	46383.08
554.275	46190.57
554.475	45557.75
554.674	46145.51
554.874	46194.67
555.074	45791.22
555.273	45877.23
555.473	46270.44
555.672	46196.71
555.872	45697.01
556.071	45942.77
556.271	45778.93
556.47	46004.2
556.67	45205.5
556.869	45516.79
557.068	45856.75
557.268	45709.3
557.467	45768.69
557.667	45537.27
557.866	45785.07
558.065	45565.94
558.265	45293.56
558.464	45004.8
558.663	45852.65
558.863	44914.69
559.062	45516.79
559.261	44738.56
559.461	45305.85
559.66	44959.74
559.859	45074.43
560.058	45029.37
560.258	45123.58
560.457	44652.55
560.656	45015.04
560.855	44875.77
561.054	45062.14
561.253	44767.23
561.453	44804.1
561.652	44736.51
561.851	45246.46
562.05	44320.77
562.249	44396.55
562.448	44963.84
562.647	44414.98
562.846	44310.53
563.045	44288.01
563.244	43976.72
563.443	44607.49
563.642	43765.77
563.841	44167.18
564.04	43444.24
564.239	44308.49
564.438	43823.12
564.637	44179.46
564.836	43786.25
565.035	43139.1
565.234	43589.65
565.432	43311.13
565.631	43345.94
565.83	44199.94
566.029	43079.71
566.228	43401.24
566.427	43378.71
566.625	42702.88
566.824	42207.27
567.023	43116.57
567.222	42530.85
567.42	43237.4
567.619	42772.51
567.818	42940.44
568.016	42690.59
568.215	43069.47
568.414	42913.82
568.612	43304.98
568.811	42530.85
569.01	42788.89
569.208	42182.69
569.407	42485.79
569.605	41621.55
569.804	42461.22
570.002	41785.39
570.201	42334.24
570.4	41642.03
570.598	41615.41
570.797	41320.5
570.995	41658.41
571.193	41066.55
571.392	41738.29
571.59	41418.8
571.789	41273.4
571.987	41134.13
572.186	41105.46
572.384	41160.76
572.582	41269.3
572.781	41080.89
572.979	40454.21
573.177	40544.32
573.376	40544.32
573.574	40489.02
573.772	40763.45
573.971	40323.14
574.169	40206.41
574.367	39911.5
574.565	40499.26
574.763	39934.03
574.962	39966.79
575.16	39524.43
575.358	40335.43
575.556	39407.7
575.754	39780.43
575.952	39178.32
576.151	39731.28
576.349	39014.49
576.547	39368.79
576.745	38887.51
576.943	39268.44
577.141	38772.83
577.339	39010.39
577.537	38682.72
577.735	38590.56
577.933	38479.97
578.131	38912.09
578.329	38537.31
578.527	38430.82
578.725	38287.46
578.923	38729.82
579.121	38291.55
579.319	38074.47
579.516	38291.55
579.714	38148.2
579.912	37918.82
580.11	37914.73
580.308	37843.05
580.506	37572.72
580.704	37034.1
580.901	37329.01
581.099	37607.53
581.297	37199.99
581.495	37058.68
581.692	37349.49
581.89	36808.82
582.088	37124.21
582.285	37030.01
582.483	37062.77
582.681	36741.24
582.878	36501.63
583.076	36016.26
583.274	36432
583.471	36386.94
583.669	36182.15
583.866	36237.44
584.064	36456.57
584.262	35645.58
584.459	36391.04
584.657	35836.04
584.854	36188.29
585.052	35467.41
585.249	35686.54
585.447	35774.6
585.644	35428.49
585.841	35322
586.039	35481.74
586.236	34803.86
586.434	34941.08
586.631	34904.21
586.828	35059.86
587.026	34807.96
587.223	34865.3
587.42	34461.85
587.618	34562.2
587.815	34007.2
588.012	34242.72
588.21	33982.63
588.407	34193.57
588.604	33775.78
588.801	33958.05
588.999	33974.44
589.196	33978.53
589.393	33706.15
589.59	33726.63
589.787	33525.93
589.984	33220.78
590.182	33294.51
590.379	33042.61
590.576	33663.15
590.773	33048.75
590.97	32975.03
591.167	32870.58
591.364	32766.13
591.561	33038.51
591.758	32573.63
591.955	32805.05
592.152	32620.73
592.349	32309.44
592.546	32452.8
592.743	32293.05
592.94	31496.39
593.137	32125.12
593.334	32325.82
593.531	31668.42
593.727	32307.39
593.924	31887.56
594.121	31684.81
594.318	31637.7
594.515	31283.41
594.712	31502.54
594.908	31035.6
595.105	31463.63
595.302	31160.53
595.499	31258.83
595.696	31131.86
595.892	30818.52
596.089	30988.5
596.286	30920.91
596.482	30669.01
596.679	30609.62
596.876	30656.73
597.072	30523.61
597.269	30120.16
597.466	30214.37
597.662	30030.05
597.859	29821.16
598.055	30111.97
598.252	29735.14
598.448	29616.36
598.645	29669.61
598.841	29399.27
599.038	29339.88
599.234	29925.6
599.431	29251.82
599.627	28911.86
599.824	29319.4
600.02	28739.83
600.217	29262.06
600.413	28559.61
600.609	28633.33
600.806	28623.09
601.002	28737.78
601.198	28504.31
601.395	28655.86
601.591	28299.51
601.787	28186.88
601.984	28051.71
602.18	28324.09
602.376	28111.1
602.572	27924.74
602.769	27859.2
602.965	27629.83
603.161	27795.71
603.357	27769.09
603.553	27504.9
603.75	27791.62
603.946	27115.79
604.142	27486.47
604.338	26829.07
604.534	27267.34
604.73	27011.34
604.926	26949.9
605.122	27046.16
605.318	27091.21
605.514	26691.86
605.71	26415.38
605.906	26698
606.102	26552.6
606.298	26460.44
606.494	26585.36
606.69	26396.95
606.886	26421.53
607.082	26143
607.278	26452.25
607.474	26003.74
607.67	26132.76
607.866	25786.66
608.062	26114.33
608.257	25528.61
608.453	25848.1
608.649	25565.48
608.845	25647.4
609.041	25999.65
609.236	25790.75
609.432	25463.08
609.628	25741.6
609.824	25690.4
610.019	25245.99
610.215	25514.28
610.411	25563.43
610.606	25352.49
610.802	25114.92
610.998	25262.38
611.193	25377.06
611.389	24729.91
611.584	25151.79
611.78	24998.19
611.976	24987.95
612.171	24936.75
612.367	24809.78
612.562	24582.45
612.758	24369.46
612.953	24293.69
613.149	24797.49
613.344	24230.2
613.539	24709.43
613.735	24647.99
613.93	24535.35
614.126	24578.36
614.321	24686.9
614.517	24496.44
614.712	24119.61
614.907	23984.44
615.103	24265.02
615.298	24047.93
615.493	24496.44
615.688	23841.09
615.884	24418.61
616.079	23730.5
616.274	24025.4
616.47	24129.85
616.665	24164.67
616.86	23662.91
617.055	23927.1
617.25	23615.81
617.445	23867.71
617.641	23503.17
617.836	23431.49
618.031	23204.17
618.226	23687.49
618.421	23308.61
618.616	23421.25
618.811	22837.58
619.006	23370.05
619.201	22821.2
619.396	23083.34
619.591	22688.08
619.786	22790.48
619.981	22702.42
620.176	22714.7
620.371	22403.41
620.566	22419.8
620.761	22141.27
620.956	22118.75
621.151	22032.73
621.346	22384.98
621.541	21541.22
621.735	22061.4
621.93	21573.99
622.125	21453.16
622.32	21428.58
622.515	21836.13
622.709	21248.36
622.904	21240.17
623.099	21105
623.294	20851.05
623.488	20836.72
623.683	20758.89
623.878	20584.82
624.072	20560.24
624.267	20337.01
624.462	20302.2
624.656	20035.96
624.851	20261.24
625.046	19966.33
625.24	20171.13
625.435	19798.4
625.629	19683.71
625.824	19530.11
626.018	19589.5
626.213	18813.32
626.407	19368.32
626.602	19138.95
626.796	19292.55
626.991	18856.33
627.185	18997.64
627.38	18821.52
627.574	18602.38
627.768	18606.48
627.963	18620.81
628.157	18188.69
628.352	18153.88
628.546	18016.66
628.74	18418.07
628.935	17887.64
629.129	18299.28
629.323	17688.99
629.517	17795.48
629.712	17654.17
629.906	17570.21
630.1	17521.06
630.294	17422.75
630.489	16998.82
630.683	17256.87
630.877	17052.07
631.071	16964.01
631.265	16890.28
631.459	16849.32
631.653	16902.57
631.848	16767.4
632.042	16622
632.236	16636.33
632.43	16286.13
632.624	16308.66
632.818	16288.18
633.012	15987.13
633.206	15997.37
633.4	16032.18
633.594	15907.26
633.788	15903.16
633.982	15618.49
634.176	15983.03
634.369	15854.01
634.563	15591.87
634.757	15446.46
634.951	15493.57
635.145	15348.16
635.339	15442.37
635.533	15100.36
635.726	15206.85
635.92	15112.64
636.114	14647.76
636.308	14850.5
636.501	14858.7
636.695	14678.47
636.889	14451.15
637.083	14379.47
637.276	14557.64
637.47	14451.15
637.664	14381.52
637.857	14236.11
638.051	14328.27
638.244	14127.57
638.438	14059.99
638.632	13785.56
638.825	13771.22
639.019	13687.26
639.212	13636.06
639.406	13789.66
639.599	13658.59
639.793	13795.8
639.986	13298.14
640.18	13425.12
640.373	13644.25
640.567	13308.38
640.76	13320.67
640.954	13011.43
641.147	12886.5
641.34	13066.72
641.534	12962.28
641.727	12737
641.92	12775.91
642.114	12696.04
642.307	12675.56
642.5	12558.83
642.694	12343.79
642.887	12220.91
643.08	12540.4
643.273	12329.45
643.467	12571.11
643.66	12167.66
643.853	12130.8
644.046	12087.79
644.239	12059.12
644.432	11983.35
644.626	11751.93
644.819	11772.41
645.012	11934.2
645.205	11708.92
645.398	11475.45
645.591	11422.2
645.784	11577.85
645.977	11356.67
646.17	11280.89
646.363	11108.87
646.556	11248.13
646.749	11170.3
646.942	11295.23
647.135	10994.18
647.328	10953.22
647.521	10885.64
647.714	10834.44
647.907	10850.82
648.099	10686.98
648.292	10760.71
648.485	10662.41
648.678	10467.85
648.871	10568.2
649.064	10465.8
649.256	10385.93
649.449	10197.52
649.642	10338.83
649.835	10228.24
650.027	10148.37
650.22	10232.33
650.413	10220.05
650.605	10156.56
650.798	9935.38
650.991	10017.3
651.183	10007.06
651.376	9728.53
651.568	9929.24
651.761	9773.59
651.954	9767.45
652.146	9663
652.339	9763.35
652.531	9521.69
652.724	9640.47
652.916	9325.08
653.109	9660.95
653.301	9200.16
653.494	9320.99
653.686	9200.16
653.879	9339.42
654.071	9050.66
654.263	9101.86
654.456	9026.08
654.648	9003.55
654.84	8858.15
655.033	8960.55
655.225	9001.51
655.417	8823.33
655.61	8993.31
655.802	8798.76
655.994	8501.8
656.186	8606.25
656.379	8446.51
656.571	8673.83
656.763	8536.62
656.955	8546.86
657.148	8430.12
657.34	8512.04
657.532	8327.72
657.724	8317.48
657.916	8229.42
658.108	8282.67
658.3	8245.8
658.492	8139.31
658.684	8067.63
658.876	7987.76
659.068	7905.84
659.26	7961.14
659.452	8049.2
659.644	7715.38
659.836	7860.79
660.028	7836.21
660.22	7631.41
660.412	7664.18
660.604	7576.12
660.796	7727.67
660.988	7500.34
661.18	7617.08
661.372	7393.85
661.563	7522.87
661.755	7342.65
661.947	7348.79
662.139	7150.14
662.331	7615.03
662.522	7291.45
662.714	7250.49
662.906	7103.04
663.097	7172.67
663.289	7084.61
663.481	7086.65
663.673	6955.58
663.864	6982.21
664.056	6953.54
664.247	7160.38
664.439	6840.9
664.631	6941.25
664.822	6861.38
665.014	6672.96
665.205	6658.63
665.397	6758.98
665.588	6603.33
665.78	6570.57
665.971	6511.18
666.163	6683.2
666.354	6507.08
666.546	6523.46
666.737	6392.39
666.929	6488.65
667.12	6537.8
667.311	6279.75
667.503	6242.89
667.694	6292.04
667.885	6308.43
668.077	6142.54
668.268	6308.43
668.459	6091.34
668.651	6181.45
668.842	5935.7
669.033	6077.01
669.224	5976.66
669.416	5898.83
669.607	6085.2
669.798	5956.18
669.989	5968.46
670.18	5749.33
670.371	5798.48
670.563	5927.5
670.754	5827.15
670.945	5753.43
671.136	5806.67
671.327	5644.88
671.518	5730.9
671.709	5573.21
671.9	5691.99
672.091	5448.28
672.282	5552.73
672.473	5376.6
672.664	5593.69
672.855	5542.49
673.046	5440.09
673.237	5446.23
673.428	5425.75
673.619	5331.55
673.809	5345.88
674	5333.59
674.191	5440.09
674.382	5309.02
674.573	5358.17
674.764	5159.52
674.954	5184.09
675.145	5024.35
675.336	5177.95
675.527	5177.95
675.717	5091.93
675.908	5040.73
676.099	5214.81
676.289	5018.21
676.48	5147.23
676.671	4794.98
676.861	4952.67
677.052	4897.38
677.243	4803.17
677.433	4958.81
677.624	4928.1
677.814	4909.66
678.005	4821.6
678.195	4897.38
678.386	4739.68
678.576	4858.46
678.767	4686.44
678.957	4708.96
679.148	4846.18
679.338	4745.83
679.529	4625
679.719	4725.35
679.909	4774.5
680.1	4553.32
680.29	4823.65
680.481	4725.35
680.671	4489.83
680.861	4627.04
681.052	4469.35
681.242	4606.56
681.432	4530.79
681.622	4500.07
681.813	4545.13
682.003	4549.22
682.193	4438.63
682.383	4452.97
682.573	4403.82
682.764	4328.04
682.954	4401.77
683.144	4346.47
683.334	4305.51
683.524	4291.18
683.714	4205.16
683.904	4176.49
684.094	4342.38
684.284	4215.4
684.474	4397.67
684.664	4096.62
684.854	4213.35
685.044	4172.39
685.234	4125.29
685.424	4227.69
685.614	4086.38
685.804	4067.95
685.994	4133.48
686.184	4254.31
686.374	4106.86
686.564	4004.46
686.753	4057.71
686.943	4115.05
687.133	4072.04
687.323	4031.09
687.513	3887.73
687.702	3943.02
687.892	3850.86
688.082	3879.54
688.272	3918.45
688.461	4018.8
688.651	3859.06
688.841	3814
689.03	3646.07
689.22	3840.62
689.41	3639.92
689.599	3768.95
689.789	3760.75
689.979	3738.23
690.168	3725.94
690.358	3603.06
690.547	3674.74
690.737	3693.17
690.926	3541.62
691.116	3697.27
691.305	3555.96
691.495	3576.44
691.684	3502.71
691.874	3650.16
692.063	3527.28
692.252	3451.51
692.442	3467.89
692.631	3484.28
692.82	3482.23
693.01	3355.26
693.199	3345.02
693.388	3371.64
693.578	3428.98
693.767	3318.39
693.956	3357.3
694.146	3545.72
694.335	3373.69
694.524	3365.5
694.713	3474.04
694.902	3357.3
695.092	3342.97
695.281	3332.73
695.47	3285.62
695.659	3238.52
695.848	3254.9
696.037	3332.73
696.226	3349.11
696.415	3269.24
696.604	3197.56
696.793	3246.71
696.982	3166.84
697.171	3312.25
697.36	3439.22
697.549	3121.79
697.738	3164.79
697.927	3070.59
698.116	3170.94
698.305	3205.75
698.494	3105.4
698.683	2992.77
698.872	3091.07
699.061	3109.5
699.25	3152.51
699.438	3050.11
699.627	3113.6
699.816	3056.25
700.005	3089.02
700.193	2974.33
700.382	2998.91
700.571	3056.25
700.76	2957.95
700.948	3050.11
701.137	2962.05
701.326	2937.47
701.514	2857.6
701.703	3000.96
701.892	2998.91
702.08	3148.41
702.269	3035.77
702.457	2927.23
702.646	3003
702.834	3041.92
703.023	2888.32
703.212	2888.32
703.4	3058.3
703.589	2962.05
703.777	2929.28
703.965	2947.71
704.154	2902.65
704.342	2808.45
704.531	2878.08
704.719	2822.78
704.907	3003
705.096	2728.58
705.284	2857.6
705.472	2869.89
705.661	2773.63
705.849	2904.7
706.037	2853.5
706.226	2800.26
706.414	2744.96
706.602	2898.56
706.79	2884.22
706.979	2812.54
707.167	2769.54
707.355	2861.69
707.543	2857.6
707.731	2796.16
707.919	2679.43
708.107	2775.68
708.296	2728.58
708.484	2689.67
708.672	2798.21
708.86	2648.71
709.048	2706.05
709.236	2771.58
709.424	2712.19
709.612	2597.51
709.8	2693.76
709.988	2663.04
710.176	2800.26
710.364	2681.47
710.551	2591.36
710.739	2560.64
710.927	2628.23
711.115	2765.44
711.303	2663.04
711.491	2685.57
711.679	2562.69
711.866	2552.45
712.054	2577.03
712.242	2597.51
712.43	2486.92
712.617	2531.97
712.805	2617.99
712.993	2591.36
713.181	2613.89
713.368	2548.36
713.556	2544.26
713.744	2538.12
713.931	2554.5
714.119	2534.02
714.306	2574.98
714.494	2534.02
714.682	2525.83
714.869	2378.37
715.057	2419.33
715.244	2523.78
715.432	2515.59
715.619	2480.77
715.807	2441.86
715.994	2497.16
716.182	2572.93
716.369	2507.4
716.556	2552.45
716.744	2419.33
716.931	2550.4
717.119	2419.33
717.306	2550.4
717.493	2454.15
717.681	2470.53
717.868	2458.25
718.055	2472.58
718.242	2402.95
718.43	2396.81
718.617	2409.09
718.804	2368.13
718.991	2312.84
719.179	2474.63
719.366	2302.6
719.553	2378.37
719.74	2380.42
719.927	2341.51
720.114	2306.7
720.301	2411.14
720.488	2327.18
720.676	2400.9
720.863	2298.5
721.05	2439.81
721.237	2278.02
721.424	2343.56
721.611	2296.46
721.798	2253.45
721.985	2181.77
722.172	2222.73
722.358	2280.07
722.545	2417.29
722.732	2265.74
722.919	2239.11
723.106	2183.82
723.293	2194.06
723.48	2296.46
723.667	2175.63
723.853	2189.96
724.04	2300.55
724.227	2318.98
724.414	2380.42
724.6	2263.69
724.787	2167.43
724.974	2222.73
725.161	2247.3
725.347	2175.63
725.534	2343.56
725.72	2142.86
725.907	2212.49
726.094	2187.91
726.28	2058.89
726.467	2222.73
726.653	2173.58
726.84	2247.3
727.027	2237.06
727.213	2183.82
727.4	2030.22
727.586	2175.63
727.773	2239.11
727.959	2196.11
728.145	2241.16
728.332	2105.99
728.518	2112.14
728.705	2118.28
728.891	2062.99
729.077	2048.65
729.264	2151.05
729.45	2161.29
729.636	2097.8
729.823	2075.28
730.009	2136.71
730.195	2206.34
730.382	1991.31
730.568	2077.32
730.754	2052.75
730.94	2067.08
731.126	2103.95
731.313	1991.31
731.499	2056.84
731.685	2062.99
731.871	2081.42
732.057	2026.12
732.243	2034.32
732.429	2060.94
732.615	2114.19
732.801	2024.08
732.987	2075.28
733.173	2042.51
733.359	2081.42
733.545	2083.47
733.731	1886.86
733.917	2112.14
734.103	2052.75
734.289	2058.89
734.475	2022.03
734.661	2081.42
734.847	1987.21
735.033	2050.7
735.219	1979.02
735.404	2155.15
735.59	1942.16
735.776	1950.35
735.962	1956.49
736.148	1993.36
736.333	1886.86
736.519	1979.02
736.705	1962.64
736.89	1970.83
737.076	1913.49
737.262	1901.2
737.447	1956.49
737.633	1790.61
737.819	1868.43
738.004	1860.24
738.19	1938.06
738.375	1895.05
738.561	1895.05
738.747	1831.57
738.932	1958.54
739.118	1911.44
739.303	1958.54
739.489	1864.33
739.674	1770.13
739.859	1833.61
740.045	1794.7
740.23	1819.28
740.416	1798.8
740.601	1786.51
740.786	1870.48
740.972	1778.32
741.157	1806.99
741.342	1872.53
741.528	1772.18
741.713	1796.75
741.898	1776.27
742.084	1720.98
742.269	1784.46
742.454	1854.09
742.639	1796.75
742.824	1753.74
743.01	1786.51
743.195	1745.55
743.38	1723.02
743.565	1815.18
743.75	1702.54
743.935	1612.43
744.12	1657.49
744.305	1634.96
744.49	1514.13
744.675	1675.92
744.86	1618.58
745.045	1653.39
745.23	1712.78
745.415	1600.15
745.6	1686.16
745.785	1669.78
745.97	1655.44
746.155	1677.97
746.34	1620.63
746.525	1481.36
746.71	1643.15
746.895	1485.46
747.079	1616.53
747.264	1579.67
747.449	1606.29
747.634	1614.48
747.819	1542.8
748.003	1475.22
748.188	1530.52
748.373	1557.14
748.557	1485.46
748.742	1460.88
748.927	1454.74
749.111	1399.45
749.296	1458.84
749.481	1510.04
749.665	1464.98
749.85	1487.51
750.034	1399.45
750.219	1485.46
750.404	1331.86
750.588	1469.08
750.773	1417.88
750.957	1366.68
751.141	1407.64
751.326	1342.1
751.51	1512.08
751.695	1282.71
751.879	1362.58
752.064	1407.64
752.248	1243.8
752.432	1333.91
752.617	1450.64
752.801	1264.28
752.985	1254.04
753.17	1297.05
753.354	1217.18
753.538	1323.67
753.722	1301.14
753.907	1208.98
754.091	1356.44
754.275	1233.56
754.459	1254.04
754.643	1243.8
754.828	1204.89
755.012	1174.17
755.196	1170.07
755.38	1122.97
755.564	1165.98
755.748	1165.98
755.932	1196.7
756.116	1114.78
756.3	1219.22
756.484	1112.73
756.668	1217.18
756.852	1069.72
757.036	1041.05
757.22	1075.87
757.404	1096.35
757.588	1026.72
757.772	1018.52
757.956	1073.82
758.14	1118.87
758.323	1008.28
758.507	1125.02
758.691	1077.91
758.875	1079.96
759.059	1028.76
759.242	1024.67
759.426	996
759.61	991.9
759.794	1084.06
759.977	1016.48
760.161	989.85
760.345	1012.38
760.528	1061.53
760.712	963.23
760.895	952.99
761.079	1012.38
761.263	1043.1
761.446	1034.91
761.63	961.18
761.813	1051.29
761.997	991.9
762.18	998.04
762.364	944.8
762.547	955.04
762.731	1018.52
762.914	952.99
763.098	961.18
763.281	934.56
763.464	877.21
763.648	977.56
763.831	879.26
764.015	873.12
764.198	959.13
764.381	932.51
764.564	838.3
764.748	799.39
764.931	938.65
765.114	875.17
765.297	916.12
765.481	889.5
765.664	893.6
765.847	836.25
766.03	905.88
766.213	873.12
766.397	850.59
766.58	881.31
766.763	963.23
766.946	836.25
767.129	801.44
767.312	850.59
767.495	901.79
767.678	840.35
767.861	866.97
768.044	828.06
768.227	823.97
768.41	770.72
768.593	752.29
768.776	840.35
768.959	860.83
769.142	832.16
769.324	809.63
769.507	830.11
769.69	793.25
769.873	819.87
770.056	754.34
770.239	754.34
770.421	762.53
770.604	766.62
770.787	789.15
770.97	850.59
771.152	852.64
771.335	848.54
771.518	707.23
771.7	836.25
771.883	846.49
772.066	787.1
772.248	805.53
772.431	750.24
772.613	785.05
772.796	725.66
772.978	819.87
773.161	744.1
773.343	748.19
773.526	658.08
773.708	709.28
773.891	666.27
774.073	717.47
774.256	662.18
774.438	750.24
774.621	744.1
774.803	733.86
774.985	715.42
775.168	680.61
775.35	731.81
775.532	676.51
775.715	602.79
775.897	742.05
776.079	582.31
776.261	725.66
776.444	696.99
776.626	582.31
776.808	692.9
776.99	565.92
777.173	684.7
777.355	639.65
777.537	641.7
777.719	668.32
777.901	629.41
778.083	676.51
778.265	598.69
778.447	617.12
778.629	621.22
778.811	643.74
778.993	543.39
779.175	658.08
779.357	563.87
779.539	588.45
779.721	602.79
779.903	582.31
780.085	584.35
780.267	617.12
780.449	520.87
780.631	619.17
780.812	547.49
780.994	600.74
781.176	547.49
781.358	506.53
781.54	484
781.721	553.63
781.903	572.07
782.085	459.43
782.267	549.54
782.448	512.67
782.63	522.91
782.812	555.68
782.993	615.07
783.175	539.3
783.357	531.11
783.538	565.92
783.72	479.91
783.901	465.57
784.083	512.67
784.264	391.84
784.446	434.85
784.627	492.2
784.809	387.75
784.99	477.86
785.172	506.53
785.353	428.71
785.535	393.89
785.716	537.25
785.897	492.2
786.079	467.62
786.26	420.52
786.441	451.24
786.623	578.21
786.804	438.95
786.985	414.37
787.167	457.38
787.348	397.99
787.529	389.8
787.71	434.85
787.891	531.11
788.073	400.04
788.254	420.52
788.435	385.7
788.616	414.37
788.797	309.93
788.978	361.13
789.159	387.75
789.34	357.03
789.522	397.99
789.703	367.27
789.884	324.26
790.065	389.8
790.246	379.56
790.427	318.12
790.607	357.03
790.788	357.03
790.969	324.26
791.15	400.04
791.331	381.6
791.512	320.17
791.693	299.69
791.874	289.45
792.054	340.65
792.235	357.03
792.416	350.89
792.597	361.13
792.778	365.22
792.958	342.69
793.139	389.8
793.32	307.88
793.5	357.03
793.681	295.59
793.862	330.41
794.042	230.06
794.223	281.25
794.404	307.88
794.584	322.21
794.765	324.26
794.945	299.69
795.126	295.59
795.306	311.97
795.487	287.4
795.667	293.54
795.848	375.46
796.028	322.21
796.209	289.45
796.389	307.88
796.57	295.59
796.75	268.97
796.93	275.11
797.111	338.6
797.291	314.02
797.471	271.01
797.652	240.3
797.832	291.49
798.012	262.82
798.192	250.53
798.373	266.92
798.553	250.53
798.733	293.54
798.913	279.21
799.093	336.55
799.274	203.43
799.454	316.07
799.634	197.29
799.814	275.11
799.994	283.3
800.174	328.36
800.354	264.87
800.534	252.58
800.714	311.97
800.894	217.77
801.074	279.21
801.254	262.82
801.434	295.59
801.614	217.77
801.794	246.44
801.974	551.59
802.154	311.97
802.334	174.76
802.514	152.23
802.693	176.81
802.873	252.58
803.053	205.48
803.233	277.16
803.413	182.95
803.592	258.73
803.772	240.3
803.952	213.67
804.131	221.86
804.311	207.53
804.491	303.78
804.67	182.95
804.85	230.06
805.03	230.06
805.209	176.81
805.389	203.43
805.568	221.86
805.748	185
805.928	234.15
806.107	236.2
806.287	182.95
806.466	191.14
806.646	164.52
806.825	203.43
807.004	254.63
807.184	197.29
807.363	182.95
807.543	168.62
807.722	240.3
807.901	240.3
808.081	199.34
808.26	146.09
808.439	170.66
808.619	185
808.798	234.15
808.977	172.71
809.156	219.82
809.336	170.66
809.515	178.86
809.694	131.75
809.873	195.24
810.052	180.9
810.231	250.53
810.411	283.3
810.59	201.38
810.769	252.58
810.948	160.42
811.127	154.28
811.306	98.99
811.485	84.65
811.664	223.91
811.843	121.51
812.022	240.3
812.201	225.96
812.38	125.61
812.559	168.62
812.737	137.9
812.916	189.1
813.095	178.86
813.274	148.14
813.453	152.23
813.632	168.62
813.811	174.76
813.989	111.27
814.168	207.53
814.347	172.71
814.526	127.66
814.704	180.9
814.883	189.1
815.062	189.1
815.24	228.01
815.419	141.99
815.598	168.62
815.776	166.57
815.955	170.66
816.133	94.89
816.312	172.71
816.49	195.24
816.669	111.27
816.847	172.71
817.026	158.38
817.204	141.99
817.383	74.41
817.561	144.04
817.74	215.72
817.918	191.14
818.097	148.14
818.275	135.85
818.453	31.4
818.632	168.62
818.81	141.99
818.988	105.13
819.167	141.99
819.345	129.7
819.523	58.03
819.701	168.62
819.879	172.71
820.058	60.07
820.236	80.55
820.414	187.05
820.592	166.57
820.77	115.37
820.948	119.46
821.127	131.75
821.305	189.1
821.483	101.03
821.661	129.7
821.839	107.18
822.017	107.18
822.195	150.18
822.373	88.75
822.551	117.42
822.729	45.74
822.907	144.04
823.085	105.13
823.262	119.46
823.44	201.38
823.618	84.65
823.796	37.55
823.974	154.28
824.152	41.64
824.329	68.27
824.507	70.31
824.685	94.89
824.863	23.21
825.04	146.09
825.218	111.27
825.396	94.89
825.574	117.42
825.751	94.89
825.929	146.09
826.107	90.79
826.284	144.04
826.462	74.41
826.639	150.18
826.817	135.85
826.994	90.79
827.172	129.7
827.349	96.94
827.527	58.03
827.704	90.79
827.882	148.14
828.059	96.94
828.237	133.8
828.414	74.41
828.591	74.41
828.769	111.27
828.946	111.27
829.124	178.86
829.301	170.66
829.478	92.84
829.655	113.32
829.833	58.03
830.01	53.93
830.187	125.61
830.364	148.14
830.542	33.45
830.719	121.51
830.896	31.4
831.073	84.65
831.25	109.23
831.427	131.75
831.604	129.7
831.782	105.13
831.959	98.99
832.136	119.46
832.313	60.07
832.49	74.41
832.667	117.42
832.844	55.98
833.021	123.56
833.198	117.42
833.374	68.27
833.551	62.12
833.728	84.65
833.905	127.66
834.082	111.27
834.259	88.75
834.436	101.03
834.612	27.31
834.789	82.6
834.966	148.14
835.143	86.7
835.319	53.93
835.496	109.23
835.673	19.11
835.85	98.99
836.026	133.8
836.203	148.14
836.38	92.84
836.556	82.6
836.733	43.69
836.909	96.94
837.086	160.42
837.262	45.74
837.439	92.84
837.616	109.23
837.792	98.99
837.968	80.55
838.145	90.79
838.321	76.46
838.498	107.18
838.674	45.74
838.851	82.6
839.027	53.93
839.203	72.36
839.38	88.75
839.556	96.94
839.732	29.35
839.909	53.93
840.085	88.75
840.261	70.31
840.437	90.79
840.614	125.61
840.79	86.7
840.966	68.27
841.142	41.64
841.318	72.36
841.494	55.98
841.671	70.31
841.847	121.51
842.023	45.74
842.199	127.66
842.375	90.79
842.551	33.45
842.727	-13.65
842.903	80.55
843.079	96.94
843.255	111.27
843.431	117.42
843.607	144.04
843.783	19.11
843.959	31.4
844.134	4.78
844.31	76.46
844.486	-32.08
844.662	31.4
844.838	43.69
845.013	66.22
845.189	68.27
845.365	37.55
845.541	31.4
845.716	94.89
845.892	127.66
846.068	55.98
846.244	109.23
846.419	101.03
846.595	-11.61
846.77	113.32
846.946	53.93
847.122	43.69
847.297	121.51
847.473	72.36
847.648	15.02
847.824	33.45
847.999	17.07
848.175	80.55
848.35	60.07
848.526	127.66
848.701	27.31
848.876	80.55
849.052	47.79
849.227	66.22
849.403	19.11
849.578	76.46
849.753	-7.51
849.929	23.21
850.104	17.07
850.279	29.35
850.454	68.27
850.63	45.74
850.805	-11.61
850.98	35.5
851.155	96.94
851.33	-7.51
851.505	29.35
851.681	117.42
851.856	96.94
852.031	121.51
852.206	74.41
852.381	17.07
852.556	37.55
852.731	82.6
852.906	64.17
853.081	103.08
853.256	111.27
853.431	78.51
853.606	39.59
853.781	6.83
853.956	27.31
854.131	19.11
854.305	23.21
854.48	58.03
854.655	86.7
854.83	19.11
855.005	27.31
855.18	82.6
855.354	58.03
855.529	39.59
855.704	-7.51
855.879	37.55
856.053	86.7
856.228	76.46
856.403	90.79
856.577	88.75
856.752	8.87
856.926	39.59
857.101	29.35
857.276	88.75
857.45	49.83
857.625	35.5
857.799	-27.99
857.974	-11.61
858.148	55.98
858.323	-9.56
858.497	92.84
858.672	58.03
858.846	31.4
859.02	60.07
859.195	92.84
859.369	70.31
859.543	78.51
859.718	53.93
859.892	-11.61
860.066	33.45
860.241	4.78
860.415	-3.41
860.589	58.03
860.763	51.88
860.938	39.59
861.112	53.93
861.286	15.02
861.46	94.89
861.634	43.69
861.808	107.18
861.982	43.69
862.157	41.64
862.331	29.35
862.505	41.64
862.679	31.4
862.853	15.02
863.027	92.84
863.201	156.33
863.375	10.92
863.549	62.12
863.722	51.88
863.896	158.38
864.07	-17.75
864.244	12.97
864.418	66.22
864.592	39.59
864.766	2.73
864.939	68.27
865.113	43.69
865.287	41.64
865.461	-25.94
865.634	37.55
865.808	76.46
865.982	21.16
866.156	21.16
866.329	0.68
866.503	103.08
866.676	21.16
866.85	15.02
867.024	-25.94
867.197	107.18
867.371	49.83
867.544	58.03
867.718	31.4
867.891	47.79
868.065	78.51
868.238	68.27
868.412	88.75
868.585	51.88
868.759	37.55
868.932	29.35
869.105	-11.61
869.279	6.83
869.452	55.98
869.625	49.83
869.799	29.35
869.972	-48.47
870.145	-23.89
870.319	78.51
870.492	39.59
870.665	72.36
870.838	25.26
871.011	121.51
871.185	92.84
871.358	29.35
871.531	12.97
871.704	45.74
871.877	6.83
872.05	0.68
872.223	-34.13
872.396	41.64
872.569	127.66
872.742	23.21
872.915	105.13
873.088	51.88
873.261	66.22
873.434	-36.18
873.607	0.68
873.78	86.7
873.953	-11.61
874.126	27.31
874.299	31.4
874.471	17.07
874.644	31.4
874.817	39.59
874.99	117.42
875.163	8.87
875.335	45.74
875.508	-27.99
875.681	-3.41
875.853	-7.51
876.026	33.45
876.199	33.45
876.371	107.18
876.544	49.83
876.717	35.5
876.889	21.16
877.062	19.11
877.234	45.74
877.407	-30.04
877.579	43.69
877.752	66.22
877.924	-19.8
878.097	96.94
878.269	74.41
878.442	60.07
878.614	39.59
878.786	41.64
878.959	4.78
879.131	41.64
879.303	-79.19
879.476	82.6
879.648	76.46
879.82	-30.04
879.993	8.87
880.165	60.07
880.337	37.55
880.509	86.7
880.681	-42.32
880.854	58.03
881.026	12.97
881.198	111.27
881.37	62.12
881.542	31.4
881.714	17.07
881.886	-13.65
882.058	-50.52
882.23	68.27
882.402	-40.28
882.574	53.93
882.746	-23.89
882.918	41.64
883.09	21.16
883.262	66.22
883.434	41.64
883.606	66.22
883.778	41.64
883.95	-19.8
884.122	55.98
884.293	35.5
884.465	45.74
884.637	68.27
884.809	82.6
884.98	49.83
885.152	-36.18
885.324	-44.37
885.496	62.12
885.667	29.35
885.839	19.11
886.011	58.03
886.182	15.02
886.354	94.89
886.525	25.26
886.697	41.64
886.869	70.31
887.04	8.87
887.212	-9.56
887.383	74.41
887.555	-36.18
887.726	12.97
887.897	21.16
888.069	41.64
888.24	12.97
888.412	-7.51
888.583	-73.04
888.754	25.26
888.926	-36.18
889.097	-7.51
889.268	-15.7
889.44	45.74
889.611	-48.47
889.782	39.59
889.953	27.31
890.125	15.02
890.296	-7.51
890.467	62.12
890.638	4.78
890.809	12.97
890.98	-34.13
891.151	66.22
891.323	45.74
891.494	62.12
891.665	101.03
891.836	37.55
892.007	12.97
892.178	43.69
892.349	8.87
892.52	6.83
892.691	58.03
892.862	66.22
893.032	4.78
893.203	4.78
893.374	2.73
893.545	45.74
893.716	15.02
893.887	37.55
894.057	23.21
894.228	31.4
894.399	62.12
894.57	41.64
894.74	41.64
894.911	21.16
895.082	6.83
895.253	111.27
895.423	-52.56
895.594	33.45
895.764	19.11
895.935	-52.56
896.106	103.08
896.276	4.78
896.447	17.07
896.617	-13.65
896.788	60.07
896.958	37.55
897.129	4.78
897.299	19.11
897.47	55.98
897.64	-7.51
897.81	6.83
897.981	49.83
898.151	-52.56
898.322	-25.94
898.492	64.17
898.662	8.87
898.832	51.88
899.003	-13.65
899.173	-13.65
899.343	0.68
899.513	4.78
