Data from USB4F104151__20__11-05-02-153.txt Node

Date: Wed Mar 12 11:05:02 EDT 2025
User: louis
Spectrometer: USB4F10415
Trigger mode: 4
Integration Time (sec): 2.000000E-2
Scans to average: 1
Electric dark correction enabled: true
Nonlinearity correction enabled: false
Boxcar width: 0
XAxis mode: Wavelengths
Number of Pixels in Spectrum: 3648
>>>>>Begin Spectral Data<<<<<
178.204	-24.75
178.424	-24.75
178.644	-24.75
178.864	-114.86
179.084	-26.79
179.304	55.12
179.524	38.74
179.744	-16.55
179.964	24.4
180.184	-26.79
180.404	5.97
180.624	-6.31
180.844	-71.85
181.064	-26.79
181.283	-57.51
181.503	48.98
181.723	32.6
181.943	16.21
182.163	30.55
182.383	-14.51
182.602	36.69
182.822	-6.31
183.042	-14.51
183.262	-2.22
183.482	5.97
183.701	8.02
183.921	-18.6
184.141	-16.55
184.361	79.7
184.58	-59.56
184.8	46.93
185.02	77.65
185.239	-41.13
185.459	85.84
185.679	81.75
185.898	-51.37
186.118	32.6
186.338	46.93
186.557	65.36
186.777	24.4
186.997	-34.99
187.216	-20.65
187.436	46.93
187.655	-41.13
187.875	10.07
188.095	100.18
188.314	14.17
188.534	-0.17
188.753	38.74
188.973	8.02
189.192	28.5
189.412	5.97
189.631	-22.7
189.851	51.03
190.07	34.64
190.29	-77.99
190.509	-147.62
190.729	20.31
190.948	73.56
191.168	65.36
191.387	38.74
191.607	-4.27
191.826	42.84
192.045	46.93
192.265	30.55
192.484	-43.18
192.704	14.17
192.923	-6.31
193.142	51.03
193.362	18.26
193.581	-18.6
193.8	46.93
194.02	16.21
194.239	14.17
194.458	100.18
194.678	36.69
194.897	30.55
195.116	-30.89
195.335	157.52
195.555	30.55
195.774	-12.46
195.993	16.21
196.212	18.26
196.432	16.21
196.651	128.85
196.87	-24.75
197.089	-16.55
197.308	-43.18
197.528	-16.55
197.747	40.79
197.966	-10.41
198.185	91.99
198.404	-12.46
198.623	24.4
198.842	44.88
199.062	51.03
199.281	30.55
199.5	-55.47
199.719	55.12
199.938	-92.33
200.157	26.45
200.376	-22.7
200.595	-4.27
200.814	46.93
201.033	98.13
201.252	46.93
201.471	-61.61
201.69	24.4
201.909	67.41
202.128	89.94
202.347	46.93
202.566	-6.31
202.785	-53.42
203.004	20.31
203.223	30.55
203.442	-26.79
203.661	-6.31
203.879	-6.31
204.098	61.27
204.317	-71.85
204.536	12.12
204.755	5.97
204.974	40.79
205.193	26.45
205.411	145.24
205.63	-10.41
205.849	-2.22
206.068	-26.79
206.287	30.55
206.505	77.65
206.724	-86.19
206.943	-30.89
207.162	83.8
207.381	-18.6
207.599	8.02
207.818	32.6
208.037	16.21
208.255	-10.41
208.474	-41.13
208.693	38.74
208.911	-16.55
209.13	38.74
209.349	55.12
209.567	-32.94
209.786	48.98
210.005	22.36
210.223	55.12
210.442	-41.13
210.661	32.6
210.879	36.69
211.098	75.6
211.316	-30.89
211.535	-0.17
211.753	-26.79
211.972	46.93
212.191	61.27
212.409	8.02
212.628	12.12
212.846	69.46
213.065	20.31
213.283	26.45
213.502	-65.71
213.72	5.97
213.938	-6.31
214.157	40.79
214.375	12.12
214.594	-49.32
214.812	-6.31
215.031	63.32
215.249	28.5
215.467	55.12
215.686	-34.99
215.904	-6.31
216.122	-61.61
216.341	30.55
216.559	73.56
216.778	-2.22
216.996	-41.13
217.214	40.79
217.432	65.36
217.651	5.97
217.869	61.27
218.087	-24.75
218.306	-4.27
218.524	-32.94
218.742	-8.36
218.96	-8.36
219.179	-22.7
219.397	51.03
219.615	8.02
219.833	12.12
220.051	-4.27
220.27	46.93
220.488	85.84
220.706	-18.6
220.924	-30.89
221.142	22.36
221.36	28.5
221.578	40.79
221.796	-30.89
222.015	71.51
222.233	36.69
222.451	63.32
222.669	-14.51
222.887	34.64
223.105	-10.41
223.323	-10.41
223.541	42.84
223.759	-8.36
223.977	-22.7
224.195	28.5
224.413	-8.36
224.631	-26.79
224.849	55.12
225.067	71.51
225.285	-8.36
225.503	-6.31
225.721	10.07
225.939	10.07
226.157	3.93
226.375	75.6
226.592	16.21
226.81	10.07
227.028	3.93
227.246	55.12
227.464	20.31
227.682	91.99
227.9	5.97
228.117	-20.65
228.335	32.6
228.553	53.08
228.771	-2.22
228.989	34.64
229.206	24.4
229.424	53.08
229.642	85.84
229.86	14.17
230.077	65.36
230.295	46.93
230.513	18.26
230.731	71.51
230.948	79.7
231.166	81.75
231.384	57.17
231.601	24.4
231.819	24.4
232.037	18.26
232.254	-12.46
232.472	14.17
232.689	-0.17
232.907	-18.6
233.125	57.17
233.342	51.03
233.56	3.93
233.777	87.89
233.995	10.07
234.213	3.93
234.43	36.69
234.648	-12.46
234.865	14.17
235.083	63.32
235.3	-37.03
235.518	24.4
235.735	18.26
235.953	-18.6
236.17	-8.36
236.388	-6.31
236.605	77.65
236.822	30.55
237.04	42.84
237.257	100.18
237.475	5.97
237.692	42.84
237.909	91.99
238.127	34.64
238.344	28.5
238.562	89.94
238.779	-6.31
238.996	57.17
239.214	-8.36
239.431	48.98
239.648	67.41
239.865	1.88
240.083	5.97
240.3	53.08
240.517	42.84
240.735	22.36
240.952	-24.75
241.169	26.45
241.386	-8.36
241.603	34.64
241.821	46.93
242.038	38.74
242.255	87.89
242.472	18.26
242.689	-37.03
242.907	40.79
243.124	-10.41
243.341	30.55
243.558	-59.56
243.775	61.27
243.992	1.88
244.209	22.36
244.426	59.22
244.643	91.99
244.86	85.84
245.078	24.4
245.295	22.36
245.512	71.51
245.729	24.4
245.946	30.55
246.163	24.4
246.38	5.97
246.597	26.45
246.814	34.64
247.031	-39.08
247.248	-8.36
247.464	36.69
247.681	-4.27
247.898	-37.03
248.115	20.31
248.332	12.12
248.549	81.75
248.766	83.8
248.983	51.03
249.2	18.26
249.417	63.32
249.633	10.07
249.85	28.5
250.067	-37.03
250.284	75.6
250.501	20.31
250.717	81.75
250.934	1.88
251.151	-12.46
251.368	79.7
251.585	87.89
251.801	-16.55
252.018	-10.41
252.235	18.26
252.451	94.04
252.668	22.36
252.885	24.4
253.102	-12.46
253.318	14.17
253.535	32.6
253.752	16.21
253.968	-43.18
254.185	71.51
254.401	32.6
254.618	53.08
254.835	1.88
255.051	8.02
255.268	79.7
255.484	63.32
255.701	12.12
255.917	-14.51
256.134	8.02
256.351	30.55
256.567	28.5
256.784	-4.27
257	34.64
257.217	126.8
257.433	42.84
257.65	3.93
257.866	-28.84
258.082	61.27
258.299	51.03
258.515	16.21
258.732	16.21
258.948	22.36
259.165	46.93
259.381	1.88
259.597	55.12
259.814	-18.6
260.03	57.17
260.246	-8.36
260.463	30.55
260.679	1.88
260.895	51.03
261.112	-16.55
261.328	44.88
261.544	-32.94
261.761	91.99
261.977	42.84
262.193	-12.46
262.409	26.45
262.626	40.79
262.842	14.17
263.058	67.41
263.274	26.45
263.49	38.74
263.707	48.98
263.923	81.75
264.139	36.69
264.355	-2.22
264.571	46.93
264.787	48.98
265.004	40.79
265.22	1.88
265.436	48.98
265.652	-34.99
265.868	-30.89
266.084	10.07
266.3	5.97
266.516	-59.56
266.732	51.03
266.948	55.12
267.164	-22.7
267.38	28.5
267.596	42.84
267.812	77.65
268.028	38.74
268.244	-16.55
268.46	20.31
268.676	-37.03
268.892	44.88
269.108	-69.8
269.324	63.32
269.54	-34.99
269.756	65.36
269.972	-2.22
270.188	53.08
270.403	79.7
270.619	69.46
270.835	-20.65
271.051	85.84
271.267	1.88
271.483	14.17
271.698	55.12
271.914	51.03
272.13	30.55
272.346	-26.79
272.562	-6.31
272.777	55.12
272.993	32.6
273.209	22.36
273.425	-6.31
273.64	-0.17
273.856	-39.08
274.072	-2.22
274.287	-57.51
274.503	59.22
274.719	42.84
274.934	-0.17
275.15	79.7
275.366	-2.22
275.581	-12.46
275.797	91.99
276.012	12.12
276.228	26.45
276.444	94.04
276.659	8.02
276.875	42.84
277.09	10.07
277.306	36.69
277.521	-47.27
277.737	57.17
277.952	30.55
278.168	100.18
278.383	106.32
278.599	-22.7
278.814	71.51
279.03	-30.89
279.245	18.26
279.461	3.93
279.676	-8.36
279.892	3.93
280.107	20.31
280.322	14.17
280.538	-4.27
280.753	-0.17
280.969	100.18
281.184	44.88
281.399	71.51
281.615	-22.7
281.83	26.45
282.045	57.17
282.26	-26.79
282.476	-22.7
282.691	79.7
282.906	12.12
283.122	-4.27
283.337	26.45
283.552	30.55
283.767	14.17
283.983	96.08
284.198	63.32
284.413	-18.6
284.628	-139.43
284.843	36.69
285.058	-0.17
285.274	-14.51
285.489	-18.6
285.704	57.17
285.919	-22.7
286.134	67.41
286.349	-8.36
286.564	-8.36
286.779	102.23
286.995	32.6
287.21	-22.7
287.425	28.5
287.64	-32.94
287.855	-65.71
288.07	-22.7
288.285	-0.17
288.5	63.32
288.715	10.07
288.93	-14.51
289.145	34.64
289.36	57.17
289.575	34.64
289.79	32.6
290.004	22.36
290.219	20.31
290.434	16.21
290.649	-86.19
290.864	-12.46
291.079	-14.51
291.294	77.65
291.509	5.97
291.724	40.79
291.938	-34.99
292.153	5.97
292.368	8.02
292.583	61.27
292.798	20.31
293.012	24.4
293.227	16.21
293.442	28.5
293.657	-20.65
293.871	-14.51
294.086	22.36
294.301	36.69
294.516	53.08
294.73	20.31
294.945	22.36
295.16	30.55
295.374	32.6
295.589	53.08
295.804	-53.42
296.018	-71.85
296.233	24.4
296.447	-43.18
296.662	24.4
296.877	75.6
297.091	55.12
297.306	24.4
297.52	10.07
297.735	1.88
297.949	1.88
298.164	94.04
298.378	16.21
298.593	-20.65
298.807	5.97
299.022	-43.18
299.236	83.8
299.451	-16.55
299.665	20.31
299.88	1.88
300.094	30.55
300.309	42.84
300.523	-32.94
300.737	48.98
300.952	18.26
301.166	98.13
301.381	42.84
301.595	53.08
301.809	51.03
302.024	32.6
302.238	-22.7
302.452	63.32
302.667	-14.51
302.881	-2.22
303.095	40.79
303.309	42.84
303.524	59.22
303.738	18.26
303.952	24.4
304.166	65.36
304.381	-28.84
304.595	32.6
304.809	36.69
305.023	51.03
305.237	-2.22
305.452	14.17
305.666	73.56
305.88	-2.22
306.094	83.8
306.308	46.93
306.522	55.12
306.736	1.88
306.95	40.79
307.164	-0.17
307.379	26.45
307.593	71.51
307.807	36.69
308.021	-6.31
308.235	1.88
308.449	-59.56
308.663	-16.55
308.877	69.46
309.091	28.5
309.305	96.08
309.519	-18.6
309.733	55.12
309.947	59.22
310.161	104.28
310.374	75.6
310.588	34.64
310.802	10.07
311.016	55.12
311.23	38.74
311.444	-26.79
311.658	34.64
311.872	5.97
312.085	26.45
312.299	42.84
312.513	22.36
312.727	-4.27
312.941	-28.84
313.154	67.41
313.368	34.64
313.582	-30.89
313.796	-26.79
314.009	-16.55
314.223	51.03
314.437	81.75
314.651	26.45
314.864	24.4
315.078	20.31
315.292	44.88
315.505	34.64
315.719	10.07
315.933	-14.51
316.146	-24.75
316.36	16.21
316.573	42.84
316.787	-32.94
317.001	71.51
317.214	10.07
317.428	73.56
317.641	8.02
317.855	-8.36
318.068	57.17
318.282	36.69
318.495	112.47
318.709	104.28
318.922	55.12
319.136	104.28
319.349	53.08
319.563	102.23
319.776	14.17
319.99	-2.22
320.203	18.26
320.417	-22.7
320.63	32.6
320.843	100.18
321.057	51.03
321.27	114.52
321.483	18.26
321.697	75.6
321.91	83.8
322.124	81.75
322.337	-16.55
322.55	-8.36
322.763	-2.22
322.977	5.97
323.19	75.6
323.403	30.55
323.617	46.93
323.83	38.74
324.043	30.55
324.256	75.6
324.469	-47.27
324.683	51.03
324.896	67.41
325.109	-10.41
325.322	-4.27
325.535	106.32
325.748	18.26
325.962	-41.13
326.175	59.22
326.388	18.26
326.601	18.26
326.814	81.75
327.027	100.18
327.24	69.46
327.453	-102.57
327.666	18.26
327.879	-4.27
328.092	22.36
328.305	18.26
328.518	73.56
328.731	20.31
328.944	63.32
329.157	26.45
329.37	42.84
329.583	63.32
329.796	30.55
330.009	-0.17
330.222	22.36
330.435	83.8
330.648	83.8
330.861	32.6
331.073	53.08
331.286	100.18
331.499	8.02
331.712	42.84
331.925	73.56
332.138	-34.99
332.35	-77.99
332.563	20.31
332.776	57.17
332.989	1.88
333.202	34.64
333.414	1.88
333.627	55.12
333.84	38.74
334.053	36.69
334.265	-32.94
334.478	12.12
334.691	-0.17
334.903	-12.46
335.116	46.93
335.329	-0.17
335.541	48.98
335.754	32.6
335.966	-24.75
336.179	42.84
336.392	-10.41
336.604	73.56
336.817	79.7
337.029	14.17
337.242	18.26
337.454	57.17
337.667	57.17
337.88	-6.31
338.092	120.66
338.305	79.7
338.517	79.7
338.729	20.31
338.942	59.22
339.154	63.32
339.367	55.12
339.579	18.26
339.792	-20.65
340.004	96.08
340.217	-20.65
340.429	63.32
340.641	38.74
340.854	40.79
341.066	61.27
341.278	18.26
341.491	81.75
341.703	3.93
341.915	16.21
342.128	-41.13
342.34	71.51
342.552	5.97
342.764	-39.08
342.977	-18.6
343.189	71.51
343.401	75.6
343.613	14.17
343.826	94.04
344.038	38.74
344.25	42.84
344.462	-63.66
344.674	38.74
344.886	8.02
345.099	16.21
345.311	26.45
345.523	40.79
345.735	-73.9
345.947	42.84
346.159	59.22
346.371	26.45
346.583	28.5
346.795	71.51
347.007	38.74
347.219	48.98
347.431	1.88
347.643	124.76
347.855	14.17
348.067	57.17
348.279	-16.55
348.491	-32.94
348.703	-22.7
348.915	28.5
349.127	18.26
349.339	10.07
349.551	3.93
349.763	116.56
349.975	61.27
350.187	91.99
350.399	73.56
350.61	36.69
350.822	-8.36
351.034	51.03
351.246	8.02
351.458	46.93
351.669	40.79
351.881	46.93
352.093	57.17
352.305	51.03
352.517	67.41
352.728	30.55
352.94	22.36
353.152	65.36
353.363	-51.37
353.575	63.32
353.787	12.12
353.999	-59.56
354.21	59.22
354.422	67.41
354.633	100.18
354.845	16.21
355.057	100.18
355.268	89.94
355.48	73.56
355.692	85.84
355.903	-20.65
356.115	3.93
356.326	-55.47
356.538	32.6
356.749	42.84
356.961	96.08
357.172	67.41
357.384	5.97
357.595	59.22
357.807	18.26
358.018	48.98
358.23	79.7
358.441	118.61
358.653	20.31
358.864	46.93
359.075	65.36
359.287	1.88
359.498	132.95
359.709	106.32
359.921	24.4
360.132	-37.03
360.344	44.88
360.555	-10.41
360.766	124.76
360.977	1.88
361.189	87.89
361.4	14.17
361.611	118.61
361.823	67.41
362.034	8.02
362.245	-20.65
362.456	77.65
362.667	53.08
362.879	59.22
363.09	8.02
363.301	55.12
363.512	26.45
363.723	67.41
363.935	83.8
364.146	26.45
364.357	36.69
364.568	67.41
364.779	-22.7
364.99	63.32
365.201	-22.7
365.412	40.79
365.623	-0.17
365.834	42.84
366.045	20.31
366.256	59.22
366.467	120.66
366.678	5.97
366.889	-45.23
367.1	18.26
367.311	55.12
367.522	26.45
367.733	67.41
367.944	87.89
368.155	69.46
368.366	30.55
368.577	94.04
368.788	16.21
368.999	3.93
369.209	79.7
369.42	89.94
369.631	55.12
369.842	30.55
370.053	77.65
370.264	-8.36
370.474	67.41
370.685	65.36
370.896	5.97
371.107	34.64
371.317	44.88
371.528	28.5
371.739	63.32
371.95	77.65
372.16	102.23
372.371	18.26
372.582	8.02
372.792	57.17
373.003	106.32
373.214	34.64
373.424	14.17
373.635	59.22
373.846	83.8
374.056	73.56
374.267	59.22
374.477	42.84
374.688	10.07
374.898	38.74
375.109	1.88
375.319	36.69
375.53	63.32
375.74	55.12
375.951	-14.51
376.161	20.31
376.372	59.22
376.582	55.12
376.793	65.36
377.003	59.22
377.214	8.02
377.424	-20.65
377.635	14.17
377.845	69.46
378.055	75.6
378.266	14.17
378.476	16.21
378.686	106.32
378.897	77.65
379.107	12.12
379.317	14.17
379.528	3.93
379.738	83.8
379.948	-2.22
380.158	53.08
380.369	51.03
380.579	46.93
380.789	85.84
380.999	98.13
381.21	10.07
381.42	98.13
381.63	14.17
381.84	118.61
382.05	67.41
382.261	91.99
382.471	8.02
382.681	30.55
382.891	57.17
383.101	135
383.311	-18.6
383.521	38.74
383.731	-6.31
383.941	75.6
384.151	128.85
384.361	104.28
384.571	42.84
384.781	55.12
384.991	-43.18
385.201	48.98
385.411	1.88
385.621	73.56
385.831	32.6
386.041	22.36
386.251	112.47
386.461	75.6
386.671	10.07
386.881	42.84
387.091	8.02
387.301	139.09
387.511	87.89
387.72	18.26
387.93	20.31
388.14	34.64
388.35	36.69
388.56	-37.03
388.769	51.03
388.979	36.69
389.189	5.97
389.399	22.36
389.609	128.85
389.818	55.12
390.028	118.61
390.238	137.04
390.447	38.74
390.657	102.23
390.867	42.84
391.076	-24.75
391.286	-18.6
391.496	-18.6
391.705	-2.22
391.915	73.56
392.125	30.55
392.334	114.52
392.544	18.26
392.753	108.37
392.963	85.84
393.172	3.93
393.382	75.6
393.591	71.51
393.801	36.69
394.01	53.08
394.22	81.75
394.429	42.84
394.639	91.99
394.848	130.9
395.058	63.32
395.267	79.7
395.477	79.7
395.686	79.7
395.895	143.19
396.105	67.41
396.314	89.94
396.524	89.94
396.733	63.32
396.942	94.04
397.152	85.84
397.361	149.33
397.57	126.8
397.78	79.7
397.989	-14.51
398.198	153.43
398.407	83.8
398.617	32.6
398.826	53.08
399.035	128.85
399.244	63.32
399.453	120.66
399.663	87.89
399.872	147.28
400.081	42.84
400.29	132.95
400.499	63.32
400.708	149.33
400.917	94.04
401.127	48.98
401.336	98.13
401.545	79.7
401.754	91.99
401.963	79.7
402.172	106.32
402.381	81.75
402.59	75.6
402.799	114.52
403.008	112.47
403.217	122.71
403.426	73.56
403.635	102.23
403.844	157.52
404.053	106.32
404.262	169.81
404.471	182.1
404.68	165.71
404.888	171.86
405.097	124.76
405.306	135
405.515	159.57
405.724	137.04
405.933	137.04
406.142	112.47
406.35	229.2
406.559	100.18
406.768	106.32
406.977	165.71
407.185	157.52
407.394	216.91
407.603	173.91
407.812	165.71
408.02	186.19
408.229	243.54
408.438	231.25
408.646	175.95
408.855	139.09
409.064	255.83
409.272	286.54
409.481	231.25
409.69	233.3
409.898	239.44
410.107	278.35
410.315	284.5
410.524	370.51
410.733	304.98
410.941	339.79
411.15	288.59
411.358	268.11
411.567	329.55
411.775	427.85
411.984	407.38
412.192	343.89
412.401	376.66
412.609	450.38
412.818	401.23
413.026	481.1
413.234	526.16
413.443	499.53
413.651	456.53
413.86	530.25
414.068	603.98
414.276	556.88
414.485	614.22
414.693	581.45
414.901	706.38
415.11	665.42
415.318	640.84
415.526	669.52
415.734	702.28
415.943	763.72
416.151	765.77
416.359	765.77
416.567	763.72
416.776	853.83
416.984	868.17
417.192	884.55
417.4	806.73
417.608	952.13
417.817	968.52
418.025	995.14
418.233	1109.83
418.441	929.61
418.649	1011.53
418.857	1210.18
419.065	1216.32
419.273	1197.89
419.481	1277.76
419.689	1281.86
419.897	1337.15
420.105	1466.17
420.313	1505.09
420.521	1556.29
420.729	1427.26
420.937	1462.08
421.145	1615.68
421.353	1713.98
421.561	1761.08
421.769	1808.19
421.977	1916.73
422.185	1832.76
422.393	2012.98
422.601	2187.06
422.809	2029.37
423.017	2019.13
423.224	2258.74
423.432	2258.74
423.64	2295.6
423.848	2441.01
424.056	2518.83
424.263	2750.25
424.471	2731.82
424.679	2631.47
424.887	2811.69
425.094	2938.66
425.302	2944.81
425.51	3000.1
425.718	3112.74
425.925	3067.69
426.133	3424.03
426.341	3579.68
426.548	3569.44
426.756	3622.69
426.964	3741.47
427.171	3956.5
427.379	3946.27
427.586	4106.01
427.794	4142.87
428.001	4564.75
428.209	4556.56
428.417	4503.31
428.624	4919.05
428.832	4880.14
429.039	4861.71
429.247	4794.12
429.454	5363.46
429.662	5523.2
429.869	5232.39
430.076	5588.74
430.284	5414.66
430.491	5775.1
430.699	5965.56
430.906	5906.17
431.114	6117.11
431.321	6452.98
431.528	6575.86
431.736	6889.2
431.943	7167.72
432.15	7114.47
432.358	7147.24
432.565	7603.94
432.772	7333.61
432.979	7737.06
433.187	7925.47
433.394	8117.98
433.601	8474.32
433.808	8468.18
434.016	8550.1
434.223	8900.3
434.43	9352.9
434.637	9137.87
434.844	9594.56
435.052	10030.78
435.259	9920.19
435.466	10229.43
435.673	9991.87
435.88	10782.38
436.087	11114.16
436.294	11007.66
436.501	10903.21
436.708	11196.07
436.915	11335.34
437.122	11785.89
437.329	11871.9
437.537	12289.69
437.743	12613.27
437.95	12568.21
438.157	13274.76
438.364	13565.57
438.571	13680.26
438.778	13850.24
438.985	15044.21
439.192	14227.07
439.399	14687.86
439.606	14435.96
439.813	15263.34
440.02	15941.22
440.227	15900.26
440.433	15787.62
440.64	16260.7
440.847	16117.34
441.054	16674.39
441.261	17825.35
441.467	17702.47
441.674	17854.02
441.881	18656.82
442.088	18540.09
442.294	18054.72
442.501	18767.41
442.708	19271.22
442.914	19990.05
443.121	20575.77
443.328	20125.22
443.534	21550.6
443.741	20858.39
443.948	20467.23
444.154	22408.7
444.361	21937.67
444.568	22081.03
444.774	22300.16
444.981	22754.81
445.187	23076.34
445.394	24157.67
445.6	23950.82
445.807	26041.8
446.013	24845.79
446.22	25513.42
446.426	26289.6
446.633	26535.36
446.839	27536.82
447.046	26432.96
447.252	27864.49
447.459	27958.7
447.665	27508.15
447.871	28882.33
448.078	30162.31
448.284	28628.38
448.491	29308.31
448.697	30297.48
448.903	31223.16
449.11	31047.04
449.316	30479.75
449.522	31014.27
449.728	31804.78
449.935	32122.22
450.141	32150.89
450.347	32671.07
450.553	31661.43
450.76	32210.28
450.966	32955.74
451.172	32746.85
451.378	33068.38
451.584	32822.62
451.791	33609.04
451.997	33557.85
452.203	33826.13
452.409	33832.27
452.615	33746.26
452.821	32324.97
453.027	31864.18
453.233	33881.42
453.44	32154.99
453.646	32578.92
453.852	32742.75
454.058	33463.64
454.264	32124.27
454.47	33025.37
454.676	32191.85
454.882	32789.86
455.088	29619.6
455.294	30311.81
455.5	30864.77
455.705	31323.51
455.911	29765.01
456.117	29072.79
456.323	28824.99
456.529	27348.4
456.735	28335.52
456.941	27495.86
457.147	26922.43
457.352	26635.71
457.558	26017.22
457.764	26119.62
457.97	25581.01
458.176	24821.21
458.381	24831.45
458.587	23393.78
458.793	23559.66
458.999	22298.11
459.204	24251.88
459.41	23320.05
459.616	21753.35
459.821	21718.54
460.027	21513.74
460.233	20882.97
460.438	20278.82
460.644	20553.24
460.85	19383.85
461.055	19228.21
461.261	18939.44
461.466	17899.08
461.672	17176.14
461.878	18363.97
462.083	17258.06
462.289	17043.03
462.494	16748.12
462.7	16070.24
462.905	15591.02
463.111	16117.34
463.316	16207.45
463.522	15861.35
463.727	15945.31
463.932	15644.26
464.138	15789.67
464.343	15773.28
464.549	15326.83
464.754	16039.52
464.959	15879.78
465.165	15507.05
465.37	14689.91
465.575	14712.44
465.781	15183.47
465.986	15482.47
466.191	14671.48
466.397	14384.76
466.602	13739.65
466.807	14325.37
467.012	14093.95
467.218	14345.85
467.423	13876.87
467.628	14157.44
467.833	14829.17
468.038	14243.45
468.244	13823.62
468.449	14247.55
468.654	13559.43
468.859	13708.93
469.064	13446.79
469.269	13035.15
469.474	13237.9
469.679	13598.34
469.885	12840.59
470.09	13166.22
470.295	12942.99
470.5	12832.4
470.705	12795.54
470.91	12439.19
471.115	12502.68
471.32	12652.18
471.525	12377.75
471.73	12244.63
471.935	12326.55
472.139	11753.12
472.344	11980.45
472.549	11962.01
472.754	11871.9
472.959	11562.66
473.164	11177.64
473.369	11011.76
473.574	11314.86
473.778	11544.23
473.983	11151.02
474.188	11081.39
474.393	10522.29
474.598	10651.31
474.802	10593.97
475.007	10581.68
475.212	10565.3
475.417	10143.42
475.621	10204.86
475.826	10094.27
476.031	10092.22
476.235	10026.68
476.44	10049.21
476.645	9780.93
476.849	9797.31
477.054	9549.51
477.259	9619.14
477.463	9574.08
477.668	9301.7
477.872	9375.43
478.077	9256.65
478.282	8984.27
478.486	9047.76
478.691	8838.86
478.895	9105.1
479.1	8902.35
479.304	8720.08
479.509	8738.51
479.713	8769.23
479.918	8412.88
480.122	8488.66
480.326	8629.97
480.531	8484.56
480.735	8492.76
480.94	8560.34
481.144	8539.86
481.348	8247
481.553	8580.82
481.757	8345.3
481.961	8290.01
482.166	8273.62
482.37	8216.28
482.574	8210.14
482.778	8232.66
482.983	8326.87
483.187	8513.24
483.391	8285.91
483.595	8376.02
483.8	8083.16
484.004	8216.28
484.208	8281.81
484.412	8382.17
484.616	8285.91
484.821	8298.2
485.025	8103.64
485.229	8298.2
485.433	8220.38
485.637	8310.49
485.841	8148.7
486.045	8124.12
486.249	8404.69
486.453	8070.87
486.657	8335.06
486.861	8435.41
487.065	8005.34
487.269	8091.35
487.473	8036.06
487.677	8267.48
487.881	8208.09
488.085	8074.97
488.289	8335.06
488.493	8265.43
488.697	8220.38
488.901	8294.1
489.105	8228.57
489.309	8318.68
489.512	8459.99
489.716	8345.3
489.92	8328.92
490.124	8400.6
490.328	8378.07
490.531	8531.67
490.735	8535.76
490.939	8459.99
491.143	8482.52
491.346	8578.77
491.55	8566.48
491.754	8525.52
491.958	8658.64
492.161	8539.86
492.365	8754.9
492.569	8802
492.772	8513.24
492.976	8754.9
493.18	8967.88
493.383	8779.47
493.587	9137.87
493.79	9191.11
493.994	8908.49
494.197	8912.59
494.401	9166.54
494.605	9066.19
494.808	9320.14
495.012	9336.52
495.215	9428.68
495.419	9449.16
495.622	9543.36
495.825	9735.87
496.029	9606.85
496.232	9991.87
496.436	9721.54
496.639	10059.45
496.843	10034.88
497.046	10167.99
497.249	10202.81
497.453	10264.25
497.656	10604.21
497.859	10329.78
498.063	10624.69
498.266	10948.27
498.469	10755.76
498.673	10813.1
498.876	11124.4
499.079	11200.17
499.282	11185.83
499.485	11343.53
499.689	11310.76
499.892	11742.88
500.095	11740.83
500.298	11943.58
500.501	11919.01
500.705	12160.67
500.908	12199.58
501.111	12398.23
501.314	12684.95
501.517	12809.87
501.72	12983.95
501.923	12895.89
502.126	13348.49
502.329	13422.22
502.532	13430.41
502.735	13297.29
502.938	13600.39
503.141	13878.91
503.344	14046.85
503.547	14007.94
503.75	14315.13
503.953	14306.94
504.156	14562.94
504.359	14429.82
504.562	14718.58
504.765	15236.72
504.968	15259.24
505.17	15296.11
505.373	15552.1
505.576	15804
505.779	15855.2
505.982	15881.83
506.185	16281.18
506.387	16359
506.59	16643.67
506.793	16688.73
506.996	16651.86
507.198	17131.09
507.401	17239.63
507.604	17524.3
507.807	17864.26
508.009	17856.07
508.212	17940.04
508.415	17985.09
508.617	18159.17
508.82	18331.2
509.022	18093.63
509.225	18837.05
509.428	19007.03
509.63	19301.93
509.833	19334.7
510.035	19598.89
510.238	19596.84
510.44	19996.2
510.643	20287.01
510.845	20835.86
511.048	20489.76
511.25	20547.1
511.453	20710.94
511.655	21919.24
511.858	21126.67
512.06	21591.56
512.262	21650.95
512.465	21792.26
512.667	22210.05
512.87	22484.48
513.072	22496.77
513.274	22947.32
513.477	23102.96
513.679	23231.99
513.881	23565.81
514.084	23897.58
514.286	24010.21
514.488	24118.76
514.69	24729.05
514.893	24892.89
515.095	24770.01
515.297	25224.66
515.499	25126.36
515.701	25486.8
515.904	25566.67
516.106	26158.53
516.308	26179.01
516.51	26326.47
516.712	26367.43
516.914	27080.12
517.116	27190.71
517.318	27217.33
517.52	27680.17
517.722	27727.28
517.925	28048.81
518.127	28282.28
518.329	28472.74
518.531	28501.41
518.733	29185.43
518.935	29474.2
519.136	29171.1
519.338	29812.11
519.54	29949.32
519.742	30215.56
519.944	30303.62
520.146	30721.41
520.348	30838.14
520.55	30809.47
520.752	31176.06
520.954	31898.99
521.155	31497.59
521.357	31948.14
521.559	32161.13
521.761	32920.93
521.963	32490.85
522.164	33066.33
522.366	32929.12
522.568	33242.46
522.77	33709.39
522.971	34063.69
523.173	33733.97
523.375	34331.98
523.576	33996.11
523.778	34440.52
523.98	34970.94
524.181	35050.81
524.383	35110.21
524.584	35407.16
524.786	35679.54
524.988	35607.86
525.189	35724.6
525.391	36283.69
525.592	36326.7
525.794	36365.61
525.995	36445.48
526.197	36363.56
526.398	36527.4
526.6	36842.79
526.801	37201.18
527.003	37092.64
527.204	37666.07
527.406	37557.53
527.607	37604.63
527.808	38014.23
528.01	37514.52
528.211	37879.06
528.412	38352.14
528.614	38049.04
528.815	38389
529.016	38872.32
529.218	38597.9
529.419	38794.5
529.62	38796.55
529.822	38874.37
530.023	38776.07
530.224	38987.01
530.425	38737.16
530.626	38835.46
530.828	38622.47
531.029	39529.72
531.23	39113.98
531.431	38907.14
531.632	39400.7
531.833	39718.14
532.035	39544.06
532.236	39595.26
532.437	39656.7
532.638	39070.98
532.839	39709.94
533.04	39935.22
533.241	39206.14
533.442	40135.92
533.643	39912.69
533.844	39656.7
534.045	39773.43
534.246	39480.57
534.447	40191.22
534.648	39707.9
534.849	39742.71
535.05	39857.4
535.251	39929.08
535.451	39746.81
535.652	40109.3
535.853	40303.85
536.054	39963.89
536.255	40193.26
536.456	39808.25
536.657	40232.18
536.857	39685.37
537.058	40213.74
537.259	40111.35
537.46	40252.66
537.66	40000.75
537.861	39804.15
538.062	39986.42
538.263	39861.49
538.463	40115.44
538.664	39705.85
538.865	39957.75
539.065	40058.1
539.266	39210.24
539.466	40377.58
539.667	39615.74
539.868	40281.33
540.068	39900.4
540.269	39802.1
540.469	40244.46
540.67	39918.84
540.87	39865.59
541.071	40013.04
541.271	39834.87
541.472	39884.02
541.672	39546.11
541.873	39697.66
542.073	39245.05
542.274	39888.12
542.474	40107.25
542.675	39638.26
542.875	39853.3
543.075	39922.93
543.276	39298.3
543.476	40203.5
543.676	39451.9
543.877	39630.07
544.077	39804.15
544.277	39906.55
544.478	39859.45
544.678	39486.71
544.878	39744.76
545.078	39785.72
545.279	39267.58
545.479	39445.76
545.679	39912.69
545.879	39693.56
546.079	39816.44
546.28	39435.52
546.48	39218.43
546.68	39808.25
546.88	39648.5
547.08	39552.25
547.28	39677.18
547.48	39361.79
547.68	39519.48
547.88	39671.03
548.081	39955.7
548.281	39048.45
548.481	39619.83
548.681	39810.29
548.881	39525.63
549.081	39542.01
549.28	38976.77
549.48	39494.91
549.68	39552.25
549.88	39718.14
550.08	39292.16
550.28	39431.42
550.48	39515.39
550.68	39341.31
550.88	38884.61
551.08	39156.99
551.279	39275.77
551.479	39337.21
551.679	39140.61
551.879	39292.16
552.079	39562.49
552.278	39169.28
552.478	39214.33
552.678	38939.91
552.878	39419.13
553.077	38968.58
553.277	38618.38
553.477	39386.36
553.676	38767.88
553.876	39253.25
554.076	38784.26
554.275	38980.87
554.475	38348.04
554.674	38970.63
554.874	38870.28
555.074	38561.03
555.273	38726.92
555.473	38929.67
555.672	38333.71
555.872	38456.59
556.071	38839.56
556.271	38776.07
556.47	38321.42
556.67	38374.67
556.869	38622.47
557.068	38393.1
557.268	38128.91
557.467	38362.38
557.667	38300.94
557.866	38386.96
558.065	38083.86
558.265	37948.69
558.464	37811.48
558.663	38645
558.863	37684.5
559.062	38038.8
559.261	37872.92
559.461	38149.39
559.66	37788.95
559.859	37711.13
560.058	37260.57
560.258	37618.97
560.457	37170.46
560.656	37803.28
560.855	37403.93
561.054	37440.79
561.253	37141.79
561.453	37301.53
561.652	37201.18
561.851	37451.03
562.05	36951.33
562.249	36834.6
562.448	36965.67
562.647	37084.45
562.846	36379.95
563.045	36746.53
563.244	36566.31
563.443	36883.75
563.642	36468.01
563.841	36535.59
564.04	36205.87
564.239	36468.01
564.438	35945.78
564.637	36216.11
564.836	35714.36
565.035	35841.33
565.234	35896.63
565.432	35534.14
565.631	35831.09
565.83	35718.45
566.029	35423.54
566.228	35700.02
566.427	35429.69
566.625	35327.29
566.824	35052.86
567.023	35509.56
567.222	34448.71
567.42	35200.32
567.619	35132.73
567.818	34962.75
568.016	34585.93
568.215	35272
568.414	34733.38
568.612	34964.8
568.811	34043.21
569.01	34669.89
569.208	34133.32
569.407	34340.17
569.605	33742.16
569.804	34123.08
570.002	33926.48
570.201	34200.91
570.4	33625.43
570.598	33658.2
570.797	33453.4
570.995	33781.07
571.193	33017.18
571.392	33488.21
571.59	33166.68
571.789	33183.07
571.987	33187.16
572.186	33168.73
572.384	32937.31
572.582	32939.36
572.781	32746.85
572.979	32132.46
573.177	32693.6
573.376	32691.55
573.574	32435.56
573.772	32472.42
573.971	32173.42
574.169	32062.83
574.367	31794.54
574.565	32042.35
574.763	31726.96
574.962	31792.5
575.16	31454.58
575.358	31542.64
575.556	30905.73
575.754	31655.28
575.952	30840.19
576.151	31452.53
576.349	31032.7
576.547	30930.3
576.745	31010.17
576.943	31024.51
577.141	30895.49
577.339	31135.1
577.537	30778.75
577.735	30293.38
577.933	30565.76
578.131	30502.28
578.329	30199.18
578.527	30033.29
578.725	30231.94
578.923	30354.82
579.121	30068.11
579.319	30195.08
579.516	30109.07
579.714	29871.5
579.912	29646.22
580.11	29638.03
580.308	29672.85
580.506	29744.53
580.704	29091.23
580.901	29154.71
581.099	29007.26
581.297	28818.85
581.495	29271.45
581.692	29638.03
581.89	28812.7
582.088	29031.83
582.285	28685.73
582.483	28947.87
582.681	28632.48
582.878	28384.68
583.076	28052.91
583.274	28255.65
583.471	28190.12
583.669	28274.09
583.866	28145.06
584.064	28290.47
584.262	27454.9
584.459	28022.19
584.657	27700.65
584.854	27921.84
585.052	27491.76
585.249	27913.64
585.447	27487.67
585.644	27055.54
585.841	27262.39
586.039	27489.71
586.236	26752.45
586.434	27168.18
586.631	27080.12
586.828	27084.22
587.026	26940.86
587.223	26658.24
587.42	26723.77
587.618	26873.28
587.815	26279.36
588.012	26244.55
588.21	26359.24
588.407	26674.62
588.604	26293.7
588.801	26101.19
588.999	25941.45
589.196	25861.58
589.393	25669.07
589.59	25849.29
589.787	25646.54
589.984	25765.32
590.182	25585.1
590.379	25468.37
590.576	25523.66
590.773	25689.55
590.97	25396.69
591.167	25265.62
591.364	25077.21
591.561	25212.37
591.758	24786.4
591.955	24763.87
592.152	25193.94
592.349	24731.1
592.546	24794.59
592.743	24782.3
592.94	24364.51
593.137	24663.52
593.334	24546.78
593.531	23961.06
593.727	24167.91
593.924	24096.23
594.121	23770.6
594.318	24258.02
594.515	23821.8
594.712	24014.31
594.908	23662.06
595.105	23840.23
595.302	23735.79
595.499	23530.99
595.696	23539.18
595.892	23285.23
596.089	23786.99
596.286	23451.12
596.482	23209.46
596.679	23152.12
596.876	23326.19
597.072	22846.97
597.269	23182.84
597.466	22855.16
597.662	22830.58
597.859	22851.06
598.055	22601.21
598.252	22640.12
598.448	22490.62
598.645	22679.04
598.841	22173.19
599.038	22607.36
599.234	22285.83
599.431	21962.25
599.627	22322.69
599.824	22097.41
600.02	22056.45
600.217	21986.82
600.413	22117.89
600.609	21990.92
600.806	21614.09
601.002	21767.69
601.198	21696.01
601.395	21577.23
601.591	21636.62
601.787	21618.19
601.984	21442.06
602.18	21773.83
602.376	21253.65
602.572	21296.66
602.769	21050.9
602.965	20850.2
603.161	21009.94
603.357	20973.08
603.553	20831.77
603.75	20870.68
603.946	20741.66
604.142	21063.19
604.338	20422.17
604.534	20690.46
604.73	20463.13
604.926	20354.59
605.122	20737.56
605.318	20186.66
605.514	20024.87
605.71	20149.79
605.906	19856.93
606.102	19977.76
606.298	19832.36
606.494	20117.03
606.69	19916.33
606.886	20000.29
607.082	19539.5
607.278	19998.24
607.474	19750.44
607.67	19627.56
607.866	19375.66
608.062	19719.72
608.257	19484.2
608.453	19426.86
608.649	19805.74
608.845	19277.36
609.041	19338.8
609.236	19260.98
609.432	19291.69
609.628	19215.92
609.824	19033.65
610.019	18808.37
610.215	19263.02
610.411	19037.75
610.606	18873.91
610.802	18730.55
610.998	18818.61
611.193	18978.36
611.389	18728.5
611.584	18671.16
611.78	18562.62
611.976	18894.39
612.171	18771.51
612.367	18505.27
612.562	18767.41
612.758	18341.44
612.953	18316.86
613.149	18626.11
613.344	18323.01
613.539	18206.27
613.735	18136.64
613.93	18136.64
614.126	18124.35
614.321	18392.64
614.517	18316.86
614.712	18073.15
614.907	17884.74
615.103	18079.3
615.298	18163.26
615.493	18124.35
615.688	17725
615.884	18189.89
616.079	17737.29
616.274	17917.51
616.47	17905.22
616.665	17708.62
616.86	17475.15
617.055	17466.95
617.25	17442.38
617.445	17630.79
617.641	17512.01
617.836	17575.5
618.031	17249.87
618.226	17471.05
618.421	17053.27
618.616	17354.32
618.811	17077.84
619.006	17200.72
619.201	16762.45
619.396	16997.97
619.591	16871
619.786	16938.58
619.981	16625.24
620.176	17049.17
620.371	16373.34
620.566	16694.87
620.761	16539.22
620.956	16653.91
621.151	16150.11
621.346	16387.68
621.541	16178.78
621.735	16178.78
621.93	15965.79
622.125	16039.52
622.32	15779.43
622.515	15849.06
622.709	15570.54
622.904	15609.45
623.099	15558.25
623.294	15636.07
623.488	15578.73
623.683	15210.09
623.878	15029.87
624.072	15087.22
624.267	15251.05
624.462	15025.78
624.656	14990.96
624.851	14933.62
625.046	14607.99
625.24	14741.11
625.435	14495.35
625.629	14521.98
625.824	14755.44
626.018	14470.78
626.213	14220.92
626.407	14120.57
626.602	13938.3
626.796	14098.05
626.991	13817.47
627.185	13760.13
627.38	13995.65
627.574	13952.64
627.768	13692.55
627.963	13620.87
628.157	13520.52
628.352	13588.1
628.546	13635.21
628.74	13346.44
628.935	13264.52
629.129	13309.58
629.323	13168.27
629.517	13178.51
629.712	13035.15
629.906	13022.86
630.1	12770.96
630.294	12830.35
630.489	12684.95
630.683	12734.1
630.877	12693.14
631.071	12420.76
631.265	12510.87
631.459	12486.29
631.653	12132
631.848	12353.18
632.042	12351.13
632.236	12390.04
632.43	11826.85
632.624	12134.04
632.818	11886.24
633.012	11753.12
633.206	11767.46
633.4	11863.71
633.594	11671.2
633.788	11691.68
633.982	11665.06
634.176	11685.54
634.369	11638.44
634.563	11267.75
634.757	11347.62
634.951	11185.83
635.145	11474.6
635.339	11302.57
635.533	11261.61
635.726	11241.13
635.92	10886.83
636.114	10944.17
636.308	10976.94
636.501	10854.06
636.695	10897.07
636.889	10718.9
637.083	10518.2
637.276	10518.2
637.47	10473.14
637.664	10722.99
637.857	10364.6
638.051	10380.98
638.244	10376.89
638.438	10360.5
638.632	10421.94
638.825	10258.1
639.019	10135.23
639.212	9981.63
639.406	10038.97
639.599	9946.81
639.793	10016.44
639.986	9658.05
640.18	9838.27
640.373	9725.63
640.567	9709.25
640.76	9785.02
640.954	9588.42
641.147	9635.52
641.34	9516.74
641.534	9508.55
641.727	9445.06
641.92	9422.53
642.114	9191.11
642.307	9363.14
642.5	9359.05
642.694	9033.42
642.887	9119.43
643.08	8883.92
643.273	8961.74
643.467	9037.52
643.66	8865.49
643.853	8732.37
644.046	8785.62
644.239	8857.29
644.432	8576.72
644.626	8677.07
644.819	8550.1
645.012	8498.9
645.205	8615.63
645.398	8556.24
645.591	8439.51
645.784	8328.92
645.977	8302.29
646.17	8363.73
646.363	8189.66
646.556	8240.86
646.749	8042.2
646.942	8079.07
647.135	7974.62
647.328	7931.61
647.521	8025.82
647.714	7870.17
647.907	7935.71
648.099	7825.12
648.292	7999.2
648.485	7818.97
648.678	7716.58
648.871	7663.33
649.064	7339.75
649.256	7755.49
649.449	7483.11
649.642	7571.17
649.835	7472.87
650.027	7454.44
650.22	7266.02
650.413	7333.61
650.605	7468.77
650.798	7292.65
650.991	7286.5
651.183	7243.49
651.376	7050.99
651.568	7329.51
651.761	7024.36
651.954	6842.09
652.146	7007.98
652.339	6932.2
652.531	6883.05
652.724	7050.99
652.916	6786.8
653.109	6719.21
653.301	6739.69
653.494	6866.67
653.686	6727.41
653.879	6811.37
654.071	6657.78
654.263	6680.3
654.456	6745.84
654.648	6571.76
654.84	6661.87
655.033	6543.09
655.225	6463.22
655.417	6438.64
655.61	6563.57
655.802	6553.33
655.994	6479.6
656.186	6487.79
656.379	6156.02
656.571	6227.7
656.763	6108.92
656.955	6121.21
657.148	6158.07
657.34	6201.08
657.532	6174.46
657.724	6141.69
657.916	6061.82
658.108	6010.62
658.3	5902.08
658.492	5969.66
658.684	5859.07
658.876	5836.54
659.068	5766.91
659.26	5861.12
659.452	5879.55
659.644	5854.97
659.836	5580.54
660.028	5590.78
660.22	5668.61
660.412	5623.55
660.604	5543.68
660.796	5545.73
660.988	5402.37
661.18	5418.75
661.372	5394.18
661.563	5433.09
661.755	5465.86
661.947	5342.98
662.139	5250.82
662.331	5345.03
662.522	5164.81
662.714	5259.01
662.906	5316.36
663.097	5158.66
663.289	5261.06
663.481	5068.55
663.673	5152.52
663.864	4972.3
664.056	5050.12
664.247	5113.61
664.439	5097.22
664.631	5021.45
664.822	5072.65
665.014	5089.03
665.205	4880.14
665.397	4853.52
665.588	4927.24
665.78	4871.95
665.971	4871.95
666.163	4800.27
666.354	4695.82
666.546	4740.88
666.737	4716.3
666.929	4732.69
667.12	4765.45
667.311	4810.51
667.503	4546.32
667.694	4722.45
667.885	4671.25
668.077	4577.04
668.268	4562.7
668.459	4650.77
668.651	4478.74
668.842	4507.41
669.033	4474.64
669.224	4503.31
669.416	4519.7
669.607	4523.79
669.798	4347.67
669.989	4441.87
670.18	4384.53
670.371	4466.45
670.563	4278.04
670.754	4415.25
670.945	4249.36
671.136	4257.56
671.327	4343.57
671.518	4259.6
671.709	4232.98
671.9	4241.17
672.091	4116.25
672.282	4192.02
672.473	4120.34
672.664	4171.54
672.855	4050.71
673.046	4165.4
673.237	4149.01
673.428	4159.25
673.619	3948.31
673.809	4075.29
674	4151.06
674.191	4011.8
674.382	4071.19
674.573	4065.05
674.764	3950.36
674.954	3882.78
675.145	3936.03
675.336	3903.26
675.527	3987.22
675.717	3923.74
675.908	4038.42
676.099	3847.96
676.289	3888.92
676.48	3886.87
676.671	3698.46
676.861	3886.87
677.052	3784.48
677.243	3874.59
677.433	3649.31
677.624	3821.34
677.814	3686.17
678.005	3723.04
678.195	3811.1
678.386	3735.32
678.576	3598.11
678.767	3735.32
678.957	3790.62
679.148	3657.5
679.338	3675.93
679.529	3790.62
679.719	3688.22
679.909	3794.72
680.1	3718.94
680.29	3852.06
680.481	3618.59
680.671	3591.97
680.861	3596.06
681.052	3688.22
681.242	3458.85
681.432	3618.59
681.622	3624.73
681.813	3692.32
682.003	3622.69
682.193	3591.97
682.383	3604.25
682.573	3495.71
682.764	3612.45
682.954	3335.97
683.144	3381.03
683.334	3413.79
683.524	3577.63
683.714	3516.19
683.904	3520.29
684.094	3411.75
684.284	3553.06
684.474	3391.27
684.664	3460.9
684.854	3401.51
685.044	3348.26
685.234	3464.99
685.424	3325.73
685.614	3489.57
685.804	3354.4
685.994	3313.44
686.184	3282.72
686.374	3387.17
686.564	3499.81
686.753	3426.08
686.943	3219.24
687.133	3319.59
687.323	3323.68
687.513	3225.38
687.702	3145.51
687.892	3268.39
688.082	3204.9
688.272	3350.31
688.461	3276.58
688.651	3182.37
688.841	3206.95
689.03	3168.04
689.22	3286.82
689.41	3176.23
689.599	3180.32
689.789	3063.59
689.979	3071.78
690.168	3180.32
690.358	3137.32
690.547	3067.69
690.737	3000.1
690.926	3125.03
691.116	3063.59
691.305	3012.39
691.495	3057.45
691.684	3014.44
691.874	3041.06
692.063	2920.23
692.252	2989.86
692.442	2905.9
692.631	2848.55
692.82	2983.72
693.01	2953
693.199	2924.33
693.388	2883.37
693.578	2840.36
693.767	2946.86
693.956	2778.92
694.146	2680.62
694.335	2907.94
694.524	2897.71
694.713	2916.14
694.902	2891.56
695.092	2750.25
695.281	2754.35
695.47	2735.92
695.659	2717.48
695.848	2746.16
696.037	2901.8
696.226	2842.41
696.415	2778.92
696.604	2768.68
696.793	2678.57
696.982	2684.72
697.171	2684.72
697.36	2770.73
697.549	2733.87
697.738	2756.4
697.927	2651.95
698.116	2766.64
698.305	2629.42
698.494	2676.52
698.683	2711.34
698.872	2778.92
699.061	2754.35
699.25	2678.57
699.438	2529.07
699.627	2709.29
699.816	2692.91
700.005	2688.81
700.193	2729.77
700.382	2664.24
700.571	2711.34
700.76	2639.66
700.948	2697
701.137	2627.37
701.326	2602.8
701.514	2545.45
701.703	2656.04
701.892	2668.33
702.08	2717.48
702.269	2799.4
702.457	2512.69
702.646	2664.24
702.834	2451.25
703.023	2524.97
703.212	2742.06
703.4	2629.42
703.589	2668.33
703.777	2592.56
703.965	2574.13
704.154	2654
704.342	2703.15
704.531	2600.75
704.719	2594.61
704.907	2647.85
705.096	2582.32
705.284	2768.68
705.472	2615.09
705.661	2709.29
705.849	2699.05
706.037	2647.85
706.226	2574.13
706.414	2594.61
706.602	2486.06
706.79	2479.92
706.979	2484.02
707.167	2627.37
707.355	2447.15
707.543	2658.09
707.731	2557.74
707.919	2506.54
708.107	2606.89
708.296	2510.64
708.484	2574.13
708.672	2680.62
708.86	2586.41
709.048	2504.5
709.236	2549.55
709.424	2692.91
709.612	2680.62
709.8	2570.03
709.988	2629.42
710.176	2580.27
710.364	2461.49
710.551	2635.57
710.739	2449.2
710.927	2590.51
711.115	2584.37
711.303	2529.07
711.491	2598.7
711.679	2582.32
711.866	2522.93
712.054	2522.93
712.242	2443.06
712.43	2629.42
712.617	2481.97
712.805	2574.13
712.993	2459.44
713.181	2506.54
713.368	2576.17
713.556	2502.45
713.744	2461.49
713.931	2604.85
714.119	2574.13
714.306	2443.06
714.494	2545.45
714.682	2574.13
714.869	2430.77
715.057	2563.89
715.244	2500.4
715.432	2508.59
715.619	2467.63
715.807	2602.8
715.994	2694.96
716.182	2408.24
716.369	2463.54
716.556	2529.07
716.744	2602.8
716.931	2463.54
717.119	2567.98
717.306	2580.27
717.493	2504.5
717.681	2531.12
717.868	2465.58
718.055	2453.3
718.242	2551.6
718.43	2449.2
718.617	2484.02
718.804	2461.49
718.991	2459.44
719.179	2533.17
719.366	2393.9
719.553	2461.49
719.74	2441.01
719.927	2496.3
720.114	2406.19
720.301	2467.63
720.488	2473.78
720.676	2451.25
720.863	2385.71
721.05	2512.69
721.237	2494.26
721.424	2484.02
721.611	2430.77
721.798	2395.95
721.985	2377.52
722.172	2328.37
722.358	2303.79
722.545	2508.59
722.732	2303.79
722.919	2449.2
723.106	2598.7
723.293	2361.14
723.48	2492.21
723.667	2367.28
723.853	2406.19
724.04	2352.95
724.227	2498.35
724.414	2436.91
724.6	2416.43
724.787	2545.45
724.974	2367.28
725.161	2408.24
725.347	2344.75
725.534	2389.81
725.72	2524.97
725.907	2367.28
726.094	2518.83
726.28	2420.53
726.467	2367.28
726.653	2443.06
726.84	2393.9
727.027	2398
727.213	2398
727.4	2375.47
727.586	2428.72
727.773	2361.14
727.959	2342.71
728.145	2398
728.332	2408.24
728.518	2500.4
728.705	2402.1
728.891	2391.86
729.077	2369.33
729.264	2311.99
729.45	2277.17
729.636	2342.71
729.823	2379.57
730.009	2443.06
730.195	2441.01
730.382	2289.46
730.568	2344.75
730.754	2361.14
730.94	2377.52
731.126	2344.75
731.313	2391.86
731.499	2438.96
731.685	2430.77
731.871	2301.75
732.057	2381.62
732.243	2283.31
732.429	2287.41
732.615	2469.68
732.801	2369.33
732.987	2383.66
733.173	2350.9
733.359	2256.69
733.545	2365.23
733.731	2287.41
733.917	2348.85
734.103	2379.57
734.289	2404.14
734.475	2271.03
734.661	2324.27
734.847	2180.92
735.033	2324.27
735.219	2346.8
735.404	2273.07
735.59	2344.75
735.776	2363.19
735.962	2279.22
736.148	2221.88
736.333	2242.36
736.519	2383.66
736.705	2342.71
736.89	2316.08
737.076	2254.64
737.262	2271.03
737.447	2332.47
737.633	2281.27
737.819	2348.85
738.004	2287.41
738.19	2228.02
738.375	2148.15
738.561	2297.65
738.747	2258.74
738.932	2230.07
739.118	2365.23
739.303	2201.4
739.489	2121.52
739.674	2182.96
739.859	2103.09
740.045	2244.4
740.23	2137.91
740.416	2109.24
740.601	2178.87
740.786	2213.68
740.972	2099
741.157	2197.3
741.342	2148.15
741.528	2113.33
741.713	2189.11
741.898	2092.85
742.084	2187.06
742.269	2121.52
742.454	2062.13
742.639	2047.8
742.824	2133.81
743.01	2058.04
743.195	2142
743.38	2027.32
743.565	2142
743.75	2058.04
743.935	1996.6
744.12	2066.23
744.305	2103.09
744.49	2015.03
744.675	1955.64
744.86	2000.69
745.045	1967.93
745.23	1931.06
745.415	1939.26
745.6	1857.34
745.785	2002.74
745.97	1953.59
746.155	1879.86
746.34	2000.69
746.525	1843
746.71	1978.17
746.895	1947.45
747.079	1898.3
747.264	1908.54
747.449	1853.24
747.634	1906.49
747.819	1830.71
748.003	1849.15
748.188	1812.28
748.373	1793.85
748.557	1754.94
748.742	1865.53
748.927	1777.47
749.111	1732.41
749.296	1783.61
749.481	1707.84
749.665	1650.49
749.85	1890.1
750.034	1828.67
750.219	1679.16
750.404	1589.05
750.588	1699.64
750.773	1640.25
750.957	1617.72
751.141	1679.16
751.326	1754.94
751.51	1679.16
751.695	1619.77
751.879	1642.3
752.064	1556.29
752.248	1587.01
752.432	1685.31
752.617	1537.85
752.801	1525.57
752.985	1468.22
753.17	1449.79
753.354	1507.13
753.538	1511.23
753.722	1595.2
753.907	1488.7
754.091	1443.65
754.275	1527.61
754.459	1449.79
754.643	1443.65
754.828	1382.21
755.012	1380.16
755.196	1394.5
755.38	1433.41
755.564	1357.63
755.748	1363.78
755.932	1408.83
756.116	1464.13
756.3	1337.15
756.484	1279.81
756.668	1374.02
756.852	1320.77
757.036	1333.06
757.22	1236.8
757.404	1294.15
757.588	1271.62
757.772	1308.48
757.956	1191.75
758.14	1236.8
758.323	1228.61
758.507	1306.43
758.691	1171.27
758.875	1212.23
759.059	1265.47
759.242	1296.19
759.426	1156.93
759.61	1308.48
759.794	1150.79
759.977	1197.89
760.161	1224.51
760.345	1232.71
760.528	1214.27
760.712	1103.68
760.895	1107.78
761.079	1242.95
761.263	1161.03
761.446	1210.18
761.63	1111.88
761.813	1093.44
761.997	1089.35
762.18	1199.94
762.364	1052.49
762.547	1048.39
762.731	1095.49
762.914	1083.2
763.098	1034.05
763.281	1146.69
763.464	1056.58
763.648	1072.96
763.831	1056.58
764.015	1060.68
764.198	1019.72
764.381	1154.88
764.564	989
764.748	935.75
764.931	1001.29
765.114	1044.29
765.297	960.33
765.481	968.52
765.664	974.66
765.847	1013.57
766.03	1025.86
766.213	927.56
766.397	1005.38
766.58	993.09
766.763	1023.81
766.946	995.14
767.129	896.84
767.312	919.37
767.495	948.04
767.678	937.8
767.861	1017.67
768.044	923.46
768.227	986.95
768.41	937.8
768.593	980.81
768.776	982.85
768.959	870.22
769.142	972.61
769.324	929.61
769.507	1040.2
769.69	1027.91
769.873	915.27
770.056	829.26
770.239	935.75
770.421	909.13
770.604	927.56
770.787	859.98
770.97	917.32
771.152	788.3
771.335	866.12
771.518	800.59
771.7	909.13
771.883	962.37
772.066	825.16
772.248	902.98
772.431	835.4
772.613	960.33
772.796	786.25
772.978	816.97
773.161	855.88
773.343	843.59
773.526	833.35
773.708	714.57
773.891	792.39
774.073	804.68
774.256	802.63
774.438	835.4
774.621	808.78
774.803	751.43
774.985	698.19
775.168	730.95
775.35	763.72
775.532	751.43
775.715	657.23
775.897	687.95
776.079	728.91
776.261	692.04
776.444	702.28
776.626	665.42
776.808	692.04
776.99	689.99
777.173	706.38
777.355	675.66
777.537	681.8
777.719	759.63
777.901	692.04
778.083	755.53
778.265	689.99
778.447	630.6
778.629	696.14
778.811	657.23
778.993	687.95
779.175	649.04
779.357	665.42
779.539	663.37
779.721	636.75
779.903	620.36
780.085	628.56
780.267	550.73
780.449	659.28
780.631	618.32
780.812	644.94
780.994	651.08
781.176	515.92
781.358	614.22
781.54	575.31
781.721	606.03
781.903	595.79
782.085	548.68
782.267	499.53
782.448	563.02
782.63	468.81
782.812	563.02
782.993	544.59
783.175	477.01
783.357	532.3
783.538	538.45
783.72	550.73
783.901	509.77
784.083	462.67
784.264	456.53
784.446	538.45
784.627	497.49
784.809	419.66
784.99	466.77
785.172	415.57
785.353	548.68
785.535	411.47
785.716	429.9
785.897	472.91
786.079	468.81
786.26	495.44
786.441	497.49
786.623	429.9
786.804	370.51
786.985	440.14
787.167	481.1
787.348	417.61
787.529	444.24
787.71	421.71
787.891	421.71
788.073	470.86
788.254	423.76
788.435	462.67
788.616	415.57
788.797	456.53
788.978	352.08
789.159	431.95
789.34	456.53
789.522	388.94
789.703	317.26
789.884	374.61
790.065	309.07
790.246	411.47
790.427	309.07
790.607	370.51
790.788	431.95
790.969	317.26
791.15	384.85
791.331	415.57
791.512	419.66
791.693	362.32
791.874	321.36
792.054	417.61
792.235	397.14
792.416	274.26
792.597	241.49
792.778	354.13
792.958	317.26
793.139	315.22
793.32	335.7
793.5	298.83
793.681	264.02
793.862	366.42
794.042	309.07
794.223	288.59
794.404	421.71
794.584	229.2
794.765	266.07
794.945	274.26
795.126	323.41
795.306	323.41
795.487	272.21
795.667	288.59
795.848	319.31
796.028	323.41
796.209	225.11
796.389	239.44
796.57	294.74
796.75	302.93
796.93	264.02
797.111	370.51
797.291	364.37
797.471	298.83
797.652	229.2
797.832	323.41
798.012	249.68
798.192	255.83
798.373	261.97
798.553	210.77
798.733	259.92
798.913	327.5
799.093	261.97
799.274	180.05
799.454	302.93
799.634	286.54
799.814	247.63
799.994	255.83
800.174	198.48
800.354	264.02
800.534	264.02
800.714	292.69
800.894	216.91
801.074	276.31
801.254	266.07
801.434	225.11
801.614	243.54
801.794	282.45
801.974	646.99
802.154	194.39
802.334	276.31
802.514	202.58
802.693	360.27
802.873	178
803.053	272.21
803.233	239.44
803.413	233.3
803.592	202.58
803.772	280.4
803.952	294.74
804.131	288.59
804.311	247.63
804.491	208.72
804.67	186.19
804.85	251.73
805.03	149.33
805.209	278.35
805.389	182.1
805.568	190.29
805.748	153.43
805.928	227.15
806.107	157.52
806.287	184.15
806.466	261.97
806.646	145.24
806.825	229.2
807.004	159.57
807.184	128.85
807.363	223.06
807.543	206.67
807.722	239.44
807.901	188.24
808.081	235.35
808.26	200.53
808.439	163.67
808.619	149.33
808.798	178
808.977	149.33
809.156	192.34
809.336	237.39
809.515	208.72
809.694	106.32
809.873	184.15
810.052	137.04
810.231	194.39
810.411	171.86
810.59	214.87
810.769	194.39
810.948	173.91
811.127	116.56
811.306	190.29
811.485	190.29
811.664	218.96
811.843	194.39
812.022	175.95
812.201	192.34
812.38	157.52
812.559	104.28
812.737	214.87
812.916	137.04
813.095	124.76
813.274	120.66
813.453	159.57
813.632	173.91
813.811	91.99
813.989	112.47
814.168	124.76
814.347	218.96
814.526	135
814.704	208.72
814.883	149.33
815.062	128.85
815.24	137.04
815.419	153.43
815.598	190.29
815.776	36.69
815.955	79.7
816.133	83.8
816.312	157.52
816.49	132.95
816.669	110.42
816.847	137.04
817.026	143.19
817.204	100.18
817.383	106.32
817.561	122.71
817.74	75.6
817.918	186.19
818.097	59.22
818.275	122.71
818.453	112.47
818.632	59.22
818.81	145.24
818.988	169.81
819.167	153.43
819.345	124.76
819.523	135
819.701	135
819.879	114.52
820.058	106.32
820.236	108.37
820.414	132.95
820.592	210.77
820.77	124.76
820.948	75.6
821.127	81.75
821.305	83.8
821.483	96.08
821.661	108.37
821.839	145.24
822.017	145.24
822.195	106.32
822.373	165.71
822.551	155.47
822.729	141.14
822.907	122.71
823.085	163.67
823.262	137.04
823.44	83.8
823.618	106.32
823.796	151.38
823.974	67.41
824.152	118.61
824.329	75.6
824.507	132.95
824.685	102.23
824.863	87.89
825.04	79.7
825.218	180.05
825.396	79.7
825.574	135
825.751	120.66
825.929	178
826.107	112.47
826.284	38.74
826.462	104.28
826.639	126.8
826.817	24.4
826.994	130.9
827.172	57.17
827.349	159.57
827.527	51.03
827.704	40.79
827.882	124.76
828.059	89.94
828.237	122.71
828.414	94.04
828.591	36.69
828.769	112.47
828.946	55.12
829.124	106.32
829.301	85.84
829.478	102.23
829.655	65.36
829.833	128.85
830.01	104.28
830.187	75.6
830.364	110.42
830.542	57.17
830.719	51.03
830.896	36.69
831.073	132.95
831.25	87.89
831.427	100.18
831.604	96.08
831.782	98.13
831.959	81.75
832.136	87.89
832.313	104.28
832.49	18.26
832.667	135
832.844	124.76
833.021	110.42
833.198	65.36
833.374	77.65
833.551	100.18
833.728	18.26
833.905	63.32
834.082	67.41
834.259	63.32
834.436	55.12
834.612	77.65
834.789	14.17
834.966	104.28
835.143	28.5
835.319	59.22
835.496	96.08
835.673	83.8
835.85	118.61
836.026	75.6
836.203	75.6
836.38	-0.17
836.556	122.71
836.733	18.26
836.909	48.98
837.086	36.69
837.262	124.76
837.439	30.55
837.616	67.41
837.792	42.84
837.968	77.65
838.145	100.18
838.321	61.27
838.498	59.22
838.674	120.66
838.851	34.64
839.027	130.9
839.203	59.22
839.38	65.36
839.556	40.79
839.732	81.75
839.909	100.18
840.085	79.7
840.261	73.56
840.437	94.04
840.614	59.22
840.79	57.17
840.966	81.75
841.142	32.6
841.318	132.95
841.494	135
841.671	36.69
841.847	16.21
842.023	48.98
842.199	67.41
842.375	71.51
842.551	89.94
842.727	79.7
842.903	30.55
843.079	75.6
843.255	94.04
843.431	-12.46
843.607	120.66
843.783	-6.31
843.959	38.74
844.134	57.17
844.31	42.84
844.486	-4.27
844.662	22.36
844.838	48.98
845.013	24.4
845.189	57.17
845.365	69.46
845.541	55.12
845.716	42.84
845.892	12.12
846.068	104.28
846.244	30.55
846.419	24.4
846.595	67.41
846.77	75.6
846.946	83.8
847.122	22.36
847.297	42.84
847.473	77.65
847.648	22.36
847.824	-6.31
847.999	-18.6
848.175	-14.51
848.35	48.98
848.526	46.93
848.701	114.52
848.876	30.55
849.052	51.03
849.227	44.88
849.403	36.69
849.578	32.6
849.753	67.41
849.929	61.27
850.104	75.6
850.279	59.22
850.454	65.36
850.63	73.56
850.805	14.17
850.98	12.12
851.155	55.12
851.33	10.07
851.505	18.26
851.681	108.37
851.856	-2.22
852.031	59.22
852.206	46.93
852.381	-55.47
852.556	18.26
852.731	-10.41
852.906	38.74
853.081	91.99
853.256	20.31
853.431	96.08
853.606	79.7
853.781	36.69
853.956	34.64
854.131	-39.08
854.305	-2.22
854.48	46.93
854.655	73.56
854.83	18.26
855.005	28.5
855.18	42.84
855.354	-8.36
855.529	22.36
855.704	48.98
855.879	44.88
856.053	-10.41
856.228	98.13
856.403	65.36
856.577	65.36
856.752	16.21
856.926	-37.03
857.101	79.7
857.276	-28.84
857.45	-20.65
857.625	98.13
857.799	46.93
857.974	69.46
858.148	-28.84
858.323	30.55
858.497	61.27
858.672	40.79
858.846	5.97
859.02	-0.17
859.195	8.02
859.369	30.55
859.543	57.17
859.718	18.26
859.892	14.17
860.066	24.4
860.241	26.45
860.415	89.94
860.589	-2.22
860.763	106.32
860.938	59.22
861.112	-10.41
861.286	20.31
861.46	-16.55
861.634	65.36
861.808	91.99
861.982	-2.22
862.157	5.97
862.331	28.5
862.505	-59.56
862.679	16.21
862.853	16.21
863.027	-0.17
863.201	57.17
863.375	-82.09
863.549	57.17
863.722	12.12
863.896	63.32
864.07	-32.94
864.244	-20.65
864.418	59.22
864.592	5.97
864.766	75.6
864.939	14.17
865.113	1.88
865.287	24.4
865.461	-59.56
865.634	53.08
865.808	26.45
865.982	10.07
866.156	63.32
866.329	5.97
866.503	-82.09
866.676	126.8
866.85	81.75
867.024	42.84
867.197	14.17
867.371	-18.6
867.544	40.79
867.718	26.45
867.891	28.5
868.065	-2.22
868.238	28.5
868.412	79.7
868.585	18.26
868.759	40.79
868.932	3.93
869.105	10.07
869.279	28.5
869.452	-43.18
869.625	83.8
869.799	16.21
869.972	40.79
870.145	-39.08
870.319	-18.6
870.492	8.02
870.665	48.98
870.838	32.6
871.011	24.4
871.185	-6.31
871.358	22.36
871.531	1.88
871.704	-34.99
871.877	63.32
872.05	1.88
872.223	12.12
872.396	46.93
872.569	63.32
872.742	-8.36
872.915	-22.7
873.088	-6.31
873.261	34.64
873.434	38.74
873.607	-10.41
873.78	-12.46
873.953	-18.6
874.126	75.6
874.299	-37.03
874.471	57.17
874.644	42.84
874.817	-30.89
874.99	38.74
875.163	1.88
875.335	42.84
875.508	-59.56
875.681	98.13
875.853	-4.27
876.026	69.46
876.199	-6.31
876.371	38.74
876.544	10.07
876.717	-12.46
876.889	1.88
877.062	51.03
877.234	14.17
877.407	-8.36
877.579	-37.03
877.752	16.21
877.924	-4.27
878.097	18.26
878.269	-32.94
878.442	28.5
878.614	-51.37
878.786	48.98
878.959	18.26
879.131	14.17
879.303	-2.22
879.476	-6.31
879.648	32.6
879.82	-30.89
879.993	44.88
880.165	1.88
880.337	-0.17
880.509	-12.46
880.681	8.02
880.854	-49.32
881.026	5.97
881.198	67.41
881.37	-8.36
881.542	34.64
881.714	-16.55
881.886	30.55
882.058	46.93
882.23	63.32
882.402	-14.51
882.574	16.21
882.746	18.26
882.918	-20.65
883.09	40.79
883.262	1.88
883.434	32.6
883.606	14.17
883.778	-22.7
883.95	48.98
884.122	-2.22
884.293	-10.41
884.465	-10.41
884.637	18.26
884.809	-14.51
884.98	26.45
885.152	-10.41
885.324	63.32
885.496	-12.46
885.667	12.12
885.839	-45.23
886.011	61.27
886.182	-43.18
886.354	12.12
886.525	14.17
886.697	-24.75
886.869	-51.37
887.04	-32.94
887.212	-20.65
887.383	8.02
887.555	-4.27
887.726	75.6
887.897	-28.84
888.069	-37.03
888.24	85.84
888.412	38.74
888.583	-20.65
888.754	-22.7
888.926	-16.55
889.097	-18.6
889.268	34.64
889.44	32.6
889.611	-57.51
889.782	-30.89
889.953	28.5
890.125	114.52
890.296	-18.6
890.467	30.55
890.638	12.12
890.809	18.26
890.98	-34.99
891.151	-2.22
891.323	-34.99
891.494	-12.46
891.665	46.93
891.836	28.5
892.007	-6.31
892.178	69.46
892.349	-14.51
892.52	-6.31
892.691	18.26
892.862	-41.13
893.032	1.88
893.203	26.45
893.374	-18.6
893.545	14.17
893.716	-22.7
893.887	77.65
894.057	-32.94
894.228	-16.55
894.399	22.36
894.57	83.8
894.74	1.88
894.911	69.46
895.082	55.12
895.253	48.98
895.423	-71.85
895.594	48.98
895.764	-8.36
895.935	14.17
896.106	65.36
896.276	8.02
896.447	22.36
896.617	10.07
896.788	-102.57
896.958	12.12
897.129	-55.47
897.299	-14.51
897.47	10.07
897.64	-80.04
897.81	124.76
897.981	-2.22
898.151	-69.8
898.322	46.93
898.492	40.79
898.662	-118.95
898.832	-57.51
899.003	51.03
899.173	10.07
899.343	-12.46
899.513	-8.36
