Data from USB4F104151__150__11-08-20-431.txt Node

Date: Wed Mar 12 11:08:20 EDT 2025
User: louis
Spectrometer: USB4F10415
Trigger mode: 4
Integration Time (sec): 2.000000E-2
Scans to average: 1
Electric dark correction enabled: true
Nonlinearity correction enabled: false
Boxcar width: 0
XAxis mode: Wavelengths
Number of Pixels in Spectrum: 3648
>>>>>Begin Spectral Data<<<<<
178.204	-132.61
178.424	-132.61
178.644	-132.61
178.864	-99.84
179.084	-87.55
179.304	-58.88
179.524	-11.78
179.744	23.04
179.964	61.95
180.184	-17.92
180.404	-15.87
180.624	6.66
180.844	12.8
181.064	-50.69
181.283	-34.3
181.503	61.95
181.723	23.04
181.943	66.05
182.163	53.76
182.383	16.9
182.602	68.09
182.822	41.47
183.042	35.33
183.262	10.75
183.482	27.14
183.701	84.48
183.921	0.51
184.141	14.85
184.361	29.18
184.58	74.24
184.8	-30.21
185.02	-9.73
185.239	-3.58
185.459	0.51
185.679	29.18
185.898	-32.26
186.118	31.23
186.338	59.9
186.557	51.71
186.777	-32.26
186.997	0.51
187.216	-5.63
187.436	61.95
187.655	-1.54
187.875	31.23
188.095	-13.82
188.314	57.86
188.534	61.95
188.753	47.62
188.973	68.09
189.192	70.14
189.412	41.47
189.631	-15.87
189.851	-15.87
190.07	-24.06
190.29	-5.63
190.509	74.24
190.729	53.76
190.948	14.85
191.168	70.14
191.387	82.43
191.607	2.56
191.826	49.66
192.045	-36.35
192.265	57.86
192.484	61.95
192.704	-22.02
192.923	-1.54
193.142	86.53
193.362	20.99
193.581	18.94
193.8	45.57
194.02	0.51
194.239	-54.78
194.458	43.52
194.678	55.81
194.897	27.14
195.116	25.09
195.335	64
195.555	57.86
195.774	16.9
195.993	72.19
196.212	8.7
196.432	-22.02
196.651	-54.78
196.87	59.9
197.089	-24.06
197.308	37.38
197.528	37.38
197.747	37.38
197.966	-9.73
198.185	70.14
198.404	10.75
198.623	49.66
198.842	-28.16
199.062	14.85
199.281	51.71
199.5	35.33
199.719	-26.11
199.938	115.2
200.157	74.24
200.376	-1.54
200.595	61.95
200.814	-7.68
201.033	59.9
201.252	-42.5
201.471	-3.58
201.69	-28.16
201.909	29.18
202.128	-7.68
202.347	-26.11
202.566	-28.16
202.785	-24.06
203.004	37.38
203.223	68.09
203.442	-3.58
203.661	-9.73
203.879	-13.82
204.098	57.86
204.317	6.66
204.536	102.91
204.755	43.52
204.974	14.85
205.193	51.71
205.411	61.95
205.63	-3.58
205.849	76.29
206.068	14.85
206.287	12.8
206.505	29.18
206.724	6.66
206.943	0.51
207.162	2.56
207.381	-32.26
207.599	8.7
207.818	35.33
208.037	35.33
208.255	0.51
208.474	-11.78
208.693	49.66
208.911	82.43
209.13	-26.11
209.349	41.47
209.567	-15.87
209.786	25.09
210.005	49.66
210.223	37.38
210.442	12.8
210.661	23.04
210.879	-13.82
211.098	100.86
211.316	-52.74
211.535	33.28
211.753	66.05
211.972	55.81
212.191	-44.54
212.409	90.62
212.628	8.7
212.846	12.8
213.065	33.28
213.283	8.7
213.502	51.71
213.72	70.14
213.938	64
214.157	4.61
214.375	57.86
214.594	98.81
214.812	33.28
215.031	33.28
215.249	-38.4
215.467	55.81
215.686	20.99
215.904	-9.73
216.122	8.7
216.341	53.76
216.559	-62.98
216.778	80.38
216.996	43.52
217.214	18.94
217.432	-44.54
217.651	16.9
217.869	-65.02
218.087	12.8
218.306	53.76
218.524	-28.16
218.742	-9.73
218.96	80.38
219.179	4.61
219.397	61.95
219.615	20.99
219.833	-9.73
220.051	-15.87
220.27	70.14
220.488	14.85
220.706	45.57
220.924	-9.73
221.142	25.09
221.36	-54.78
221.578	27.14
221.796	6.66
222.015	12.8
222.233	25.09
222.451	123.39
222.669	47.62
222.887	57.86
223.105	-13.82
223.323	-46.59
223.541	-87.55
223.759	27.14
223.977	31.23
224.195	51.71
224.413	76.29
224.631	68.09
224.849	-15.87
225.067	41.47
225.285	18.94
225.503	-1.54
225.721	-60.93
225.939	12.8
226.157	14.85
226.375	143.87
226.592	-15.87
226.81	4.61
227.028	37.38
227.246	-56.83
227.464	61.95
227.682	-67.07
227.9	31.23
228.117	16.9
228.335	43.52
228.553	12.8
228.771	-17.92
228.989	16.9
229.206	-22.02
229.424	20.99
229.642	-7.68
229.86	-52.74
230.077	25.09
230.295	84.48
230.513	53.76
230.731	4.61
230.948	-11.78
231.166	12.8
231.384	-40.45
231.601	-34.3
231.819	-26.11
232.037	43.52
232.254	35.33
232.472	-7.68
232.689	18.94
232.907	-13.82
233.125	49.66
233.342	66.05
233.56	-58.88
233.777	0.51
233.995	-44.54
234.213	20.99
234.43	57.86
234.648	16.9
234.865	43.52
235.083	4.61
235.3	25.09
235.518	10.75
235.735	117.25
235.953	82.43
236.17	0.51
236.388	43.52
236.605	76.29
236.822	78.33
237.04	84.48
237.257	-3.58
237.475	-9.73
237.692	10.75
237.909	35.33
238.127	14.85
238.344	141.82
238.562	78.33
238.779	-26.11
238.996	72.19
239.214	-60.93
239.431	66.05
239.648	-15.87
239.865	39.42
240.083	57.86
240.3	31.23
240.517	-3.58
240.735	51.71
240.952	59.9
241.169	59.9
241.386	86.53
241.603	20.99
241.821	-44.54
242.038	94.72
242.255	4.61
242.472	-13.82
242.689	90.62
242.907	82.43
243.124	4.61
243.341	20.99
243.558	8.7
243.775	6.66
243.992	29.18
244.209	43.52
244.426	-22.02
244.643	41.47
244.86	-30.21
245.078	-9.73
245.295	61.95
245.512	47.62
245.729	-34.3
245.946	88.57
246.163	66.05
246.38	39.42
246.597	-13.82
246.814	-30.21
247.031	-9.73
247.248	35.33
247.464	29.18
247.681	12.8
247.898	31.23
248.115	57.86
248.332	10.75
248.549	37.38
248.766	104.96
248.983	98.81
249.2	27.14
249.417	55.81
249.633	25.09
249.85	27.14
250.067	-15.87
250.284	-32.26
250.501	59.9
250.717	33.28
250.934	-11.78
251.151	64
251.368	119.29
251.585	4.61
251.801	55.81
252.018	66.05
252.235	53.76
252.451	25.09
252.668	20.99
252.885	55.81
253.102	25.09
253.318	10.75
253.535	23.04
253.752	47.62
253.968	-28.16
254.185	53.76
254.401	37.38
254.618	-54.78
254.835	20.99
255.051	33.28
255.268	39.42
255.484	0.51
255.701	18.94
255.917	0.51
256.134	16.9
256.351	55.81
256.567	78.33
256.784	-69.12
257	-34.3
257.217	10.75
257.433	23.04
257.65	45.57
257.866	8.7
258.082	23.04
258.299	49.66
258.515	10.75
258.732	4.61
258.948	23.04
259.165	43.52
259.381	51.71
259.597	74.24
259.814	37.38
260.03	4.61
260.246	-17.92
260.463	33.28
260.679	25.09
260.895	27.14
261.112	27.14
261.328	61.95
261.544	18.94
261.761	78.33
261.977	39.42
262.193	-1.54
262.409	164.35
262.626	84.48
262.842	4.61
263.058	-19.97
263.274	-5.63
263.49	66.05
263.707	88.57
263.923	14.85
264.139	-48.64
264.355	37.38
264.571	137.73
264.787	18.94
265.004	55.81
265.22	-3.58
265.436	-1.54
265.652	35.33
265.868	27.14
266.084	59.9
266.3	37.38
266.516	-15.87
266.732	-22.02
266.948	-11.78
267.164	0.51
267.38	78.33
267.596	43.52
267.812	55.81
268.028	57.86
268.244	37.38
268.46	-9.73
268.676	37.38
268.892	-26.11
269.108	-15.87
269.324	66.05
269.54	-13.82
269.756	14.85
269.972	16.9
270.188	61.95
270.403	39.42
270.619	23.04
270.835	37.38
271.051	4.61
271.267	-7.68
271.483	12.8
271.698	92.67
271.914	29.18
272.13	8.7
272.346	-3.58
272.562	8.7
272.777	39.42
272.993	29.18
273.209	-1.54
273.425	43.52
273.64	16.9
273.856	39.42
274.072	0.51
274.287	43.52
274.503	2.56
274.719	59.9
274.934	57.86
275.15	16.9
275.366	16.9
275.581	-5.63
275.797	8.7
276.012	109.05
276.228	-26.11
276.444	-1.54
276.659	51.71
276.875	12.8
277.09	27.14
277.306	27.14
277.521	84.48
277.737	74.24
277.952	29.18
278.168	39.42
278.383	4.61
278.599	-11.78
278.814	18.94
279.03	76.29
279.245	119.29
279.461	-7.68
279.676	59.9
279.892	-15.87
280.107	64
280.322	86.53
280.538	39.42
280.753	0.51
280.969	4.61
281.184	4.61
281.399	16.9
281.615	20.99
281.83	35.33
282.045	-22.02
282.26	41.47
282.476	53.76
282.691	20.99
282.906	10.75
283.122	16.9
283.337	12.8
283.552	70.14
283.767	45.57
283.983	31.23
284.198	39.42
284.413	43.52
284.628	117.25
284.843	-1.54
285.058	74.24
285.274	53.76
285.489	45.57
285.704	59.9
285.919	8.7
286.134	109.05
286.349	20.99
286.564	76.29
286.779	109.05
286.995	4.61
287.21	-30.21
287.425	33.28
287.64	16.9
287.855	72.19
288.07	33.28
288.285	78.33
288.5	16.9
288.715	43.52
288.93	-11.78
289.145	0.51
289.36	25.09
289.575	23.04
289.79	59.9
290.004	57.86
290.219	-5.63
290.434	-22.02
290.649	8.7
290.864	29.18
291.079	16.9
291.294	20.99
291.509	27.14
291.724	49.66
291.938	86.53
292.153	2.56
292.368	-17.92
292.583	49.66
292.798	64
293.012	-24.06
293.227	8.7
293.442	29.18
293.657	12.8
293.871	92.67
294.086	-19.97
294.301	64
294.516	47.62
294.73	10.75
294.945	2.56
295.16	0.51
295.374	20.99
295.589	59.9
295.804	23.04
296.018	43.52
296.233	39.42
296.447	-15.87
296.662	14.85
296.877	104.96
297.091	20.99
297.306	61.95
297.52	16.9
297.735	55.81
297.949	-5.63
298.164	127.49
298.378	82.43
298.593	10.75
298.807	27.14
299.022	-11.78
299.236	61.95
299.451	33.28
299.665	-15.87
299.88	86.53
300.094	25.09
300.309	-7.68
300.523	4.61
300.737	29.18
300.952	-38.4
301.166	-5.63
301.381	4.61
301.595	47.62
301.809	10.75
302.024	-19.97
302.238	47.62
302.452	29.18
302.667	20.99
302.881	49.66
303.095	-1.54
303.309	-1.54
303.524	-17.92
303.738	16.9
303.952	16.9
304.166	33.28
304.381	-30.21
304.595	33.28
304.809	16.9
305.023	0.51
305.237	16.9
305.452	10.75
305.666	4.61
305.88	14.85
306.094	47.62
306.308	72.19
306.522	45.57
306.736	0.51
306.95	72.19
307.164	35.33
307.379	57.86
307.593	84.48
307.807	139.77
308.021	41.47
308.235	33.28
308.449	0.51
308.663	6.66
308.877	57.86
309.091	74.24
309.305	45.57
309.519	-34.3
309.733	66.05
309.947	-44.54
310.161	12.8
310.374	23.04
310.588	86.53
310.802	-5.63
311.016	39.42
311.23	47.62
311.444	25.09
311.658	33.28
311.872	-1.54
312.085	55.81
312.299	47.62
312.513	29.18
312.727	82.43
312.941	-3.58
313.154	59.9
313.368	8.7
313.582	4.61
313.796	45.57
314.009	31.23
314.223	59.9
314.437	74.24
314.651	-15.87
314.864	35.33
315.078	-11.78
315.292	35.33
315.505	45.57
315.719	-17.92
315.933	0.51
316.146	29.18
316.36	20.99
316.573	49.66
316.787	70.14
317.001	96.77
317.214	-11.78
317.428	72.19
317.641	4.61
317.855	29.18
318.068	53.76
318.282	43.52
318.495	90.62
318.709	27.14
318.922	6.66
319.136	41.47
319.349	78.33
319.563	-24.06
319.776	41.47
319.99	51.71
320.203	90.62
320.417	31.23
320.63	-11.78
320.843	121.34
321.057	37.38
321.27	49.66
321.483	80.38
321.697	-7.68
321.91	64
322.124	4.61
322.337	51.71
322.55	64
322.763	29.18
322.977	113.15
323.19	57.86
323.403	31.23
323.617	66.05
323.83	98.81
324.043	57.86
324.256	64
324.469	6.66
324.683	88.57
324.896	6.66
325.109	29.18
325.322	55.81
325.535	53.76
325.748	80.38
325.962	-11.78
326.175	82.43
326.388	37.38
326.601	84.48
326.814	57.86
327.027	18.94
327.24	92.67
327.453	-15.87
327.666	115.2
327.879	27.14
328.092	45.57
328.305	-44.54
328.518	20.99
328.731	4.61
328.944	33.28
329.157	10.75
329.37	23.04
329.583	76.29
329.796	-13.82
330.009	-15.87
330.222	90.62
330.435	31.23
330.648	10.75
330.861	25.09
331.073	16.9
331.286	31.23
331.499	-7.68
331.712	-58.88
331.925	49.66
332.138	29.18
332.35	109.05
332.563	-15.87
332.776	33.28
332.989	107.01
333.202	-11.78
333.414	45.57
333.627	2.56
333.84	33.28
334.053	4.61
334.265	6.66
334.478	10.75
334.691	14.85
334.903	-30.21
335.116	74.24
335.329	39.42
335.541	-1.54
335.754	57.86
335.966	78.33
336.179	-28.16
336.392	20.99
336.604	35.33
336.817	12.8
337.029	68.09
337.242	31.23
337.454	33.28
337.667	-1.54
337.88	57.86
338.092	98.81
338.305	59.9
338.517	4.61
338.729	6.66
338.942	-24.06
339.154	4.61
339.367	92.67
339.579	59.9
339.792	4.61
340.004	43.52
340.217	8.7
340.429	55.81
340.641	23.04
340.854	2.56
341.066	86.53
341.278	57.86
341.491	37.38
341.703	72.19
341.915	41.47
342.128	74.24
342.34	33.28
342.552	72.19
342.764	51.71
342.977	6.66
343.189	6.66
343.401	59.9
343.613	37.38
343.826	31.23
344.038	10.75
344.25	-42.5
344.462	78.33
344.674	27.14
344.886	125.44
345.099	98.81
345.311	74.24
345.523	18.94
345.735	-7.68
345.947	102.91
346.159	31.23
346.371	12.8
346.583	39.42
346.795	102.91
347.007	23.04
347.219	88.57
347.431	2.56
347.643	68.09
347.855	-26.11
348.067	-17.92
348.279	-13.82
348.491	113.15
348.703	43.52
348.915	80.38
349.127	16.9
349.339	107.01
349.551	-13.82
349.763	57.86
349.975	-5.63
350.187	41.47
350.399	111.1
350.61	59.9
350.822	66.05
351.034	98.81
351.246	16.9
351.458	53.76
351.669	45.57
351.881	39.42
352.093	16.9
352.305	98.81
352.517	76.29
352.728	10.75
352.94	35.33
353.152	88.57
353.363	-1.54
353.575	68.09
353.787	12.8
353.999	-5.63
354.21	84.48
354.422	14.85
354.633	33.28
354.845	57.86
355.057	37.38
355.268	33.28
355.48	57.86
355.692	43.52
355.903	8.7
356.115	61.95
356.326	66.05
356.538	37.38
356.749	113.15
356.961	98.81
357.172	23.04
357.384	121.34
357.595	86.53
357.807	41.47
358.018	8.7
358.23	-28.16
358.441	18.94
358.653	0.51
358.864	-15.87
359.075	-67.07
359.287	51.71
359.498	92.67
359.709	43.52
359.921	37.38
360.132	31.23
360.344	82.43
360.555	43.52
360.766	47.62
360.977	37.38
361.189	59.9
361.4	29.18
361.611	47.62
361.823	0.51
362.034	8.7
362.245	-11.78
362.456	68.09
362.667	66.05
362.879	16.9
363.09	47.62
363.301	31.23
363.512	107.01
363.723	74.24
363.935	12.8
364.146	53.76
364.357	20.99
364.568	33.28
364.779	-7.68
364.99	49.66
365.201	-13.82
365.412	70.14
365.623	27.14
365.834	33.28
366.045	70.14
366.256	61.95
366.467	33.28
366.678	61.95
366.889	23.04
367.1	39.42
367.311	72.19
367.522	80.38
367.733	76.29
367.944	43.52
368.155	45.57
368.366	39.42
368.577	20.99
368.788	100.86
368.999	20.99
369.209	27.14
369.42	35.33
369.631	78.33
369.842	20.99
370.053	4.61
370.264	37.38
370.474	-3.58
370.685	72.19
370.896	20.99
371.107	86.53
371.317	125.44
371.528	53.76
371.739	104.96
371.95	12.8
372.16	72.19
372.371	12.8
372.582	51.71
372.792	23.04
373.003	47.62
373.214	16.9
373.424	39.42
373.635	29.18
373.846	104.96
374.056	125.44
374.267	45.57
374.477	39.42
374.688	78.33
374.898	29.18
375.109	-42.5
375.319	49.66
375.53	115.2
375.74	51.71
375.951	43.52
376.161	51.71
376.372	123.39
376.582	94.72
376.793	23.04
377.003	4.61
377.214	49.66
377.424	35.33
377.635	0.51
377.845	20.99
378.055	107.01
378.266	-38.4
378.476	43.52
378.686	-17.92
378.897	78.33
379.107	102.91
379.317	55.81
379.528	39.42
379.738	16.9
379.948	51.71
380.158	18.94
380.369	61.95
380.579	76.29
380.789	66.05
380.999	53.76
381.21	25.09
381.42	45.57
381.63	8.7
381.84	74.24
382.05	61.95
382.261	-40.45
382.471	8.7
382.681	41.47
382.891	68.09
383.101	51.71
383.311	61.95
383.521	41.47
383.731	66.05
383.941	76.29
384.151	66.05
384.361	61.95
384.571	12.8
384.781	61.95
384.991	20.99
385.201	70.14
385.411	2.56
385.621	61.95
385.831	59.9
386.041	150.01
386.251	86.53
386.461	111.1
386.671	45.57
386.881	80.38
387.091	-19.97
387.301	33.28
387.511	25.09
387.72	68.09
387.93	102.91
388.14	6.66
388.35	-1.54
388.56	27.14
388.769	57.86
388.979	29.18
389.189	107.01
389.399	45.57
389.609	29.18
389.818	53.76
390.028	4.61
390.238	84.48
390.447	61.95
390.657	82.43
390.867	64
391.076	64
391.286	76.29
391.496	82.43
391.705	49.66
391.915	131.58
392.125	115.2
392.334	55.81
392.544	115.2
392.753	29.18
392.963	70.14
393.172	70.14
393.382	61.95
393.591	100.86
393.801	-3.58
394.01	92.67
394.22	80.38
394.429	115.2
394.639	90.62
394.848	137.73
395.058	117.25
395.267	70.14
395.477	117.25
395.686	80.38
395.895	94.72
396.105	66.05
396.314	90.62
396.524	125.44
396.733	39.42
396.942	127.49
397.152	86.53
397.361	133.63
397.57	123.39
397.78	41.47
397.989	37.38
398.198	53.76
398.407	117.25
398.617	117.25
398.826	61.95
399.035	78.33
399.244	57.86
399.453	156.16
399.663	115.2
399.872	125.44
400.081	119.29
400.29	166.4
400.499	76.29
400.708	64
400.917	53.76
401.127	51.71
401.336	111.1
401.545	188.93
401.754	96.77
401.963	117.25
402.172	137.73
402.381	107.01
402.59	94.72
402.799	61.95
403.008	117.25
403.217	184.83
403.426	68.09
403.635	104.96
403.844	117.25
404.053	129.53
404.262	70.14
404.471	213.5
404.68	137.73
404.888	123.39
405.097	147.97
405.306	113.15
405.515	123.39
405.724	209.4
405.933	190.97
406.142	184.83
406.35	199.16
406.559	115.2
406.768	168.45
406.977	166.4
407.185	209.4
407.394	168.45
407.603	186.88
407.812	195.07
408.02	244.22
408.229	182.78
408.438	211.45
408.646	207.36
408.855	209.4
409.064	221.69
409.272	207.36
409.481	270.84
409.69	283.13
409.898	276.99
410.107	307.71
410.315	260.6
410.524	340.47
410.733	289.28
410.941	352.76
411.15	348.67
411.358	340.47
411.567	469.5
411.775	367.1
411.984	412.15
412.192	403.96
412.401	461.3
412.609	479.74
412.818	506.36
413.026	471.54
413.234	492.02
413.443	481.78
413.651	449.02
413.86	526.84
414.068	541.18
414.276	545.27
414.485	547.32
414.693	672.25
414.901	668.15
415.11	672.25
415.318	631.29
415.526	711.16
415.734	795.12
415.943	737.78
416.151	772.6
416.359	797.17
416.567	750.07
416.776	748.02
416.984	905.71
417.192	881.14
417.4	930.29
417.608	922.1
417.817	956.91
418.025	946.67
418.233	1110.51
418.441	1020.4
418.649	1026.54
418.857	1223.15
419.065	1245.68
419.273	1145.33
419.481	1251.82
419.689	1210.86
419.897	1378.79
420.105	1282.54
420.313	1501.67
420.521	1288.68
420.729	1569.26
420.937	1565.16
421.145	1559.02
421.353	1712.61
421.561	1800.68
421.769	1911.27
421.977	1806.82
422.185	1841.64
422.393	2025.95
422.601	2136.54
422.809	2128.35
423.017	2150.88
423.224	2181.6
423.432	2298.33
423.64	2288.09
423.848	2490.84
424.056	2413.02
424.263	2734.55
424.471	2517.47
424.679	2603.48
424.887	2822.61
425.094	2795.99
425.302	2955.73
425.51	3021.27
425.718	2968.02
425.925	3066.32
426.133	3391.95
426.341	3441.1
426.548	3574.22
426.756	3676.62
426.964	3686.86
427.171	3850.69
427.379	3996.1
427.586	4002.24
427.794	4147.65
428.001	4262.33
428.209	4553.15
428.417	4471.23
428.624	4764.09
428.832	4721.08
429.039	4809.14
429.247	4749.75
429.454	5337.52
429.662	5441.96
429.869	5046.71
430.076	5499.31
430.284	5534.12
430.491	5599.66
430.699	5986.72
430.906	5966.24
431.114	5966.24
431.321	6107.55
431.528	6242.72
431.736	6721.95
431.943	7090.58
432.15	6920.6
432.358	6986.13
432.565	7408.01
432.772	7377.3
432.979	7764.36
433.187	7739.79
433.394	7813.51
433.601	8331.65
433.808	8345.98
434.016	8257.92
434.223	8819.07
434.43	9218.42
434.637	9083.25
434.844	9666.92
435.052	9658.73
435.259	9884.01
435.466	10015.08
435.673	9826.67
435.88	10303.84
436.087	11004.25
436.294	10854.75
436.501	10776.92
436.708	10783.07
436.915	11446.61
437.122	11817.29
437.329	11745.61
437.537	12210.5
437.743	12392.77
437.95	12259.65
438.157	12820.8
438.364	13148.47
438.571	13113.66
438.778	13470
438.985	14524.71
439.192	13990.19
439.399	14420.26
439.606	14235.94
439.813	14844.19
440.02	15622.42
440.227	15751.44
440.433	15321.37
440.64	15804.69
440.847	15638.8
441.054	15952.14
441.261	17242.36
441.467	17027.32
441.674	17230.07
441.881	17987.82
442.088	18071.79
442.294	17791.22
442.501	18127.08
442.708	18594.02
442.914	19284.19
443.121	20078.8
443.328	19372.25
443.534	21178.56
443.741	20256.97
443.948	20013.26
444.154	21739.7
444.361	21315.77
444.568	21602.49
444.774	21233.85
444.981	22048.94
445.187	22296.75
445.394	23400.6
445.6	23013.54
445.807	25254.01
446.013	24270.99
446.22	24752.26
446.426	25548.92
446.633	25800.82
446.839	26589.29
447.046	25610.36
447.252	26908.77
447.459	26978.4
447.665	26908.77
447.871	28301.39
448.078	29122.63
448.284	27459.68
448.491	28717.13
448.697	29499.45
448.903	30318.64
449.11	29990.97
449.316	29417.54
449.522	30275.63
449.728	30994.47
449.935	31080.49
450.141	31090.73
450.347	31860.76
450.553	30603.31
450.76	31066.15
450.966	31971.35
451.172	31950.87
451.378	32544.78
451.584	31823.9
451.791	32743.44
451.997	32565.26
452.203	33171.46
452.409	33193.99
452.615	33257.48
452.821	31508.51
453.027	31316
453.233	32774.16
453.44	31545.37
453.646	32401.43
453.852	32116.76
454.058	32690.19
454.264	31445.02
454.47	32391.19
454.676	31211.56
454.882	32223.25
455.088	29546.56
455.294	29984.82
455.5	30277.68
455.705	30705.71
455.911	29343.81
456.117	28809.29
456.323	28518.48
456.529	26822.76
456.735	28112.98
456.941	27418.72
457.147	26617.96
457.352	26390.64
457.558	25919.6
457.764	25966.71
457.97	25376.89
458.176	25045.12
458.381	24690.82
458.587	23632.02
458.793	23511.19
458.999	22302.89
459.204	23971.99
459.41	23316.64
459.616	21561.53
459.821	21696.69
460.027	21518.52
460.233	21313.72
460.438	20170.96
460.644	20306.12
460.85	19454.17
461.055	18983.13
461.261	19091.68
461.466	17654
461.672	17309.94
461.878	18137.32
462.083	17234.17
462.289	16859.39
462.494	16642.31
462.7	16011.53
462.905	15196.44
463.111	16171.27
463.316	16486.66
463.522	15716.62
463.727	15984.91
463.932	15591.7
464.138	15704.34
464.343	15821.07
464.549	15309.08
464.754	15675.66
464.959	15462.68
465.165	15413.52
465.37	14930.2
465.575	14401.83
465.781	15061.27
465.986	15112.47
466.191	14596.39
466.397	14321.96
466.602	13646.13
466.807	14133.54
467.012	14096.68
467.218	14061.87
467.423	13820.21
467.628	13867.31
467.833	14434.6
468.038	14242.09
468.244	13551.92
468.449	14016.81
468.654	13877.55
468.859	13599.02
469.064	13388.08
469.269	12964.15
469.474	12986.68
469.679	13310.26
469.885	12837.18
470.09	13242.68
470.295	13314.36
470.5	12888.38
470.705	12845.37
470.91	12421.44
471.115	12269.89
471.32	12560.7
471.525	12433.73
471.73	12122.44
471.935	12017.99
472.139	11811.15
472.344	11819.34
472.549	11856.2
472.754	11735.37
472.959	11284.82
473.164	11063.64
473.369	11037.02
473.574	11217.24
473.778	11202.9
473.983	11350.35
474.188	11274.58
474.393	10596.7
474.598	10791.26
474.802	10678.62
475.007	10459.49
475.212	10633.57
475.417	9978.22
475.621	10070.37
475.826	10162.53
476.031	9955.69
476.235	9939.3
476.44	10074.47
476.645	9722.22
476.849	9752.94
477.054	9671.02
477.259	9458.03
477.463	9496.94
477.668	9253.23
477.872	9193.84
478.077	9185.65
478.282	9019.77
478.486	8780.15
478.691	8935.8
478.895	8931.7
479.1	8872.31
479.304	8814.97
479.509	8491.39
479.713	8649.08
479.918	8425.86
480.122	8481.15
480.326	8472.96
480.531	8575.36
480.735	8452.48
480.94	8321.41
481.144	8511.87
481.348	8223.11
481.553	8214.91
481.757	8120.71
481.961	8192.39
482.166	8266.11
482.37	8329.6
482.574	8020.36
482.778	8089.99
482.983	8173.96
483.187	8165.76
483.391	8362.37
483.595	8069.51
483.8	8206.72
484.004	8190.34
484.208	8294.79
484.412	8315.27
484.616	8192.39
484.821	8198.53
485.025	7948.68
485.229	8190.34
485.433	7963.01
485.637	8085.89
485.841	8098.18
486.045	8227.2
486.249	8141.19
486.453	8012.17
486.657	8042.89
486.861	8157.57
487.065	8079.75
487.269	8104.32
487.473	8167.81
487.677	8278.4
487.881	8200.58
488.085	8268.16
488.289	8311.17
488.493	8106.37
488.697	8288.64
488.901	8180.1
489.105	8376.7
489.309	8135.04
489.512	8229.25
489.716	8223.11
489.92	8157.57
490.124	8460.67
490.328	8427.9
490.531	8227.2
490.735	8415.62
490.939	8300.93
491.143	8151.43
491.346	8354.18
491.55	8812.92
491.754	8487.29
491.958	8427.9
492.161	8503.68
492.365	8679.8
492.569	8429.95
492.772	8759.67
492.976	8819.07
493.18	8618.36
493.383	8688
493.587	8962.42
493.79	8937.85
493.994	8755.58
494.197	8999.29
494.401	9056.63
494.605	9105.78
494.808	9187.7
495.012	9116.02
495.215	9273.71
495.419	9410.93
495.622	9318.77
495.825	9351.54
496.029	9435.5
496.232	9789.8
496.436	9552.24
496.639	9978.22
496.843	9728.36
497.046	10119.53
497.249	10097
497.453	10117.48
497.656	10479.97
497.859	10219.88
498.063	10516.83
498.266	10568.03
498.469	10305.89
498.673	10561.89
498.876	10797.4
499.079	10938.71
499.282	10813.79
499.485	10940.76
499.689	11141.46
499.892	11331.92
500.095	11379.03
500.298	11805
500.501	11589.97
500.705	12067.14
500.908	12030.28
501.111	12276.04
501.314	12312.9
501.517	12552.51
501.72	12546.37
501.923	12431.68
502.126	12941.63
502.329	13058.36
502.532	13181.24
502.735	13050.17
502.938	13486.39
503.141	13453.62
503.344	13777.2
503.547	13781.29
503.75	14096.68
503.953	14090.54
504.156	14082.35
504.359	14393.64
504.562	14385.44
504.765	14889.24
504.968	14889.24
505.17	15063.32
505.373	14983.45
505.576	15386.9
505.779	15429.91
505.982	15524.12
506.185	15794.45
506.387	15986.96
506.59	15989
506.793	16191.75
506.996	16304.39
507.198	16406.79
507.401	16658.69
507.604	17031.42
507.807	17244.41
508.009	17434.87
508.212	17588.47
508.415	17694.96
508.617	17926.38
508.82	18071.79
509.022	17891.57
509.225	18571.49
509.428	18594.02
509.63	18720.99
509.833	19013.85
510.035	19345.62
510.238	18890.98
510.44	19357.91
510.643	19562.71
510.845	19937.49
511.048	19910.86
511.25	19945.68
511.453	20209.87
511.655	20863.17
511.858	20459.72
512.06	20949.18
512.262	21047.49
512.465	21135.55
512.667	21387.45
512.87	21614.77
513.072	21545.14
513.274	22495.4
513.477	22560.94
513.679	22333.61
513.881	22775.97
514.084	22823.08
514.286	22870.18
514.488	23468.19
514.69	23853.2
514.893	23795.86
515.095	23939.22
515.297	24240.27
515.499	24162.45
515.701	24608.9
515.904	25038.98
516.106	25155.71
516.308	25426.04
516.51	25553.02
516.712	25745.53
516.914	25536.63
517.116	26327.15
517.318	26282.09
517.52	26462.32
517.722	26583.15
517.925	27031.65
518.127	27269.22
518.329	27390.05
518.531	27529.31
518.733	27752.54
518.935	28115.03
519.136	28213.33
519.338	28624.97
519.54	28487.76
519.742	29341.76
519.944	28878.92
520.146	29458.49
520.348	29610.04
520.55	29976.63
520.752	30208.05
520.954	30214.19
521.155	30404.66
521.357	30939.18
521.559	30992.42
521.761	31541.28
521.963	31258.66
522.164	31676.44
522.366	31922.2
522.568	31930.39
522.77	32014.36
522.971	32530.45
523.173	32645.13
523.375	32677.9
523.576	32892.94
523.778	33077.26
523.98	33335.3
524.181	33560.58
524.383	33595.39
524.584	33908.73
524.786	33826.81
524.988	33720.32
525.189	34416.63
525.391	34430.96
525.592	34930.67
525.794	35074.02
525.995	35143.66
526.197	35051.5
526.398	35373.03
526.6	35307.49
526.801	35553.25
527.003	35647.46
527.204	35651.55
527.406	36069.34
527.607	36222.94
527.808	36648.91
528.01	35833.82
528.211	36356.05
528.412	36980.68
528.614	36802.51
528.815	36759.5
529.016	37115.85
529.218	36915.15
529.419	36927.44
529.62	37072.84
529.822	36923.34
530.023	36966.35
530.224	37091.27
530.425	37175.24
530.626	37070.79
530.828	36935.63
531.029	37916.61
531.23	37459.91
531.431	37697.47
531.632	37740.48
531.833	38090.68
532.035	37767.1
532.236	38082.49
532.437	37976
532.638	37865.41
532.839	38084.54
533.04	38184.89
533.241	37838.78
533.442	38328.25
533.643	38305.72
533.844	38576.05
534.045	38051.77
534.246	37509.06
534.447	38348.73
534.648	38455.22
534.849	38074.3
535.05	37883.84
535.251	38166.46
535.451	38188.99
535.652	38537.14
535.853	37881.79
536.054	38668.21
536.255	38295.48
536.456	37947.32
536.657	38827.95
536.857	38180.79
537.058	37779.39
537.259	38354.87
537.46	38369.21
537.66	38186.94
537.861	38000.57
538.062	38272.95
538.263	38510.52
538.463	38162.36
538.664	37947.32
538.865	38328.25
539.065	38373.3
539.266	37930.94
539.466	38574
539.667	37965.76
539.868	38756.27
540.068	38246.33
540.269	38277.05
540.469	38363.06
540.67	38369.21
540.87	38381.49
541.071	38078.39
541.271	38256.57
541.472	37855.17
541.672	38236.09
541.873	38236.09
542.073	37869.5
542.274	38514.61
542.474	38170.55
542.675	38111.16
542.875	38397.88
543.075	37943.23
543.276	37801.92
543.476	38522.8
543.676	37953.47
543.877	38479.8
544.077	38311.86
544.277	38070.2
544.478	38176.7
544.678	38256.57
544.878	38240.18
545.078	38031.29
545.279	37908.41
545.479	37726.14
545.679	37744.58
545.879	38299.58
546.079	38176.7
546.28	38299.58
546.48	37627.84
546.68	38152.12
546.88	38041.53
547.08	38004.67
547.28	37840.83
547.48	37898.17
547.68	37961.66
547.88	37756.86
548.081	38041.53
548.281	37633.99
548.481	37707.71
548.681	38035.39
548.881	37803.97
549.081	37775.3
549.28	37670.85
549.48	38002.62
549.68	37922.75
549.88	37920.7
550.08	37853.12
550.28	37763.01
550.48	37590.98
550.68	37935.04
550.88	37482.44
551.08	37572.55
551.279	37697.47
551.479	37476.29
551.679	37377.99
551.879	37595.07
552.079	37861.31
552.278	37427.14
552.478	37398.47
552.678	37492.68
552.878	37455.81
553.077	37226.44
553.277	37543.88
553.477	37988.28
553.676	37339.08
553.876	37738.43
554.076	37248.97
554.275	37720
554.475	36931.53
554.674	37361.61
554.874	37074.89
555.074	36906.96
555.273	37337.03
555.473	37457.86
555.672	37175.24
555.872	36941.77
556.071	36949.96
556.271	37421
556.47	36868.05
556.67	36638.67
556.869	36751.31
557.068	37060.55
557.268	36440.02
557.467	36677.58
557.667	36472.79
557.866	36794.32
558.065	36884.43
558.265	36616.15
558.464	36388.82
558.663	36763.6
558.863	36061.15
559.062	36624.34
559.261	36102.11
559.461	36261.85
559.66	35821.53
559.859	36566.99
560.058	36102.11
560.258	35911.64
560.457	35565.54
560.656	36622.29
560.855	35567.59
561.054	36083.67
561.253	35704.8
561.453	35631.07
561.652	35733.47
561.851	35782.62
562.05	35805.15
562.249	35284.97
562.448	35540.96
562.647	35456.99
562.846	35375.08
563.045	35368.93
563.244	34750.45
563.443	35796.96
563.642	34922.48
563.841	35178.47
564.04	34824.17
564.239	35336.16
564.438	34738.16
564.637	34754.54
564.836	34975.72
565.035	34383.86
565.234	34670.57
565.432	34097.14
565.631	34308.08
565.83	34631.66
566.029	34316.28
566.228	33882.11
566.427	34007.03
566.625	33908.73
566.824	33970.17
567.023	33976.31
567.222	33437.7
567.42	33671.17
567.619	33441.79
567.818	33634.3
568.016	33466.37
568.215	33366.02
568.414	33452.03
568.612	33406.98
568.811	33013.77
569.01	33183.75
569.208	33060.87
569.407	33337.35
569.605	32602.13
569.804	33060.87
570.002	32684.05
570.201	32948.23
570.4	32487.44
570.598	32391.19
570.797	32163.86
570.995	32127
571.193	32192.53
571.392	32045.08
571.59	31758.36
571.789	31975.45
571.987	31827.99
572.186	31997.98
572.384	31834.14
572.582	31942.68
572.781	31549.47
572.979	31457.31
573.177	31383.59
573.376	31246.37
573.574	31348.77
573.772	31244.32
573.971	31047.72
574.169	30771.24
574.367	31322.15
574.565	30910.5
574.763	30834.73
574.962	30799.91
575.16	30214.19
575.358	30801.96
575.556	30224.43
575.754	30582.83
575.952	30208.05
576.151	30373.94
576.349	29884.47
576.547	29999.16
576.745	30103.6
576.943	29923.38
577.141	29849.66
577.339	29837.37
577.537	29558.84
577.735	29411.39
577.933	29403.2
578.131	29702.2
578.329	29202.5
578.527	29235.27
578.725	28938.31
578.923	29106.24
579.121	29118.53
579.319	29126.72
579.516	29237.31
579.714	28936.26
579.912	28756.04
580.11	28403.79
580.308	28366.93
580.506	28500.05
580.704	28311.63
580.901	28389.45
581.099	28465.23
581.297	28153.94
581.495	28303.44
581.692	28139.6
581.89	27760.73
582.088	27879.51
582.285	27779.16
582.483	27791.45
582.681	27953.24
582.878	27727.96
583.076	27236.45
583.274	27676.76
583.471	27338.85
583.669	27496.54
583.866	27093.09
584.064	27422.81
584.262	26931.3
584.459	27220.06
584.657	26691.69
584.854	26945.64
585.052	26837.09
585.249	26718.31
585.447	26746.98
585.644	26675.3
585.841	26572.91
586.039	26648.68
586.236	26224.75
586.434	26329.2
586.631	26267.76
586.828	26118.26
587.026	26159.22
587.223	26067.06
587.42	25854.07
587.618	25755.77
587.815	25743.48
588.012	25528.44
588.21	25669.75
588.407	25976.95
588.604	25505.91
588.801	25415.8
588.999	25581.69
589.196	25479.29
589.393	25399.42
589.59	25129.09
589.787	25176.19
589.984	24864.9
590.182	24778.89
590.379	24635.53
590.576	24746.12
590.773	24545.42
590.97	24338.57
591.167	24877.19
591.364	24371.34
591.561	24529.03
591.758	24117.39
591.955	24457.35
592.152	24600.71
592.349	24146.06
592.546	24311.95
592.743	23951.51
592.94	23627.93
593.137	23865.49
593.334	23812.24
593.531	23634.07
593.727	23689.37
593.924	23740.57
594.121	23253.15
594.318	23552.15
594.515	23216.29
594.712	23603.35
594.908	23617.69
595.105	23265.44
595.302	23146.65
595.499	23140.51
595.696	22943.91
595.892	22952.1
596.089	23109.79
596.286	22931.62
596.482	22890.66
596.679	22829.22
596.876	22587.56
597.072	22663.33
597.269	22491.3
597.466	22403.24
597.662	22335.66
597.859	22352.04
598.055	22159.53
598.252	22120.62
598.448	22309.04
598.645	21838
598.841	21766.32
599.038	21928.11
599.234	21905.59
599.431	21782.71
599.627	21821.62
599.824	21792.95
600.02	21395.64
600.217	21606.58
600.413	21489.85
600.609	21586.1
600.806	21246.14
601.002	21387.45
601.198	21276.86
601.395	21106.88
601.591	21072.06
601.787	21016.77
601.984	20848.83
602.18	21229.76
602.376	20900.03
602.572	20738.24
602.769	20658.37
602.965	20451.53
603.161	20521.16
603.357	20267.21
603.553	20371.66
603.75	20656.32
603.946	20375.75
604.142	20261.07
604.338	19812.56
604.534	20209.87
604.73	20037.84
604.926	19757.27
605.122	19943.63
605.318	19687.64
605.514	19886.29
605.71	19529.94
605.906	19460.31
606.102	19972.3
606.298	19546.33
606.494	19441.88
606.69	19577.05
606.886	19495.13
607.082	19212.51
607.278	19441.88
607.474	19134.68
607.67	19556.57
607.866	19099.87
608.062	19259.61
608.257	19132.64
608.453	19122.4
608.649	19036.38
608.845	18880.74
609.041	18682.08
609.236	18720.99
609.432	18843.87
609.628	18647.27
609.824	18854.11
610.019	18847.97
610.215	18657.51
610.411	18852.06
610.606	18499.81
610.802	18741.47
610.998	18718.95
611.193	18510.05
611.389	18530.53
611.584	18323.69
611.78	18252.01
611.976	18542.82
612.171	18233.58
612.367	18282.73
612.562	18348.26
612.758	17914.09
612.953	17942.77
613.149	17985.77
613.344	17799.41
613.539	18325.74
613.735	18229.48
613.93	17961.2
614.126	17897.71
614.321	18217.19
614.517	17760.5
614.712	17703.15
614.907	17553.65
615.103	17832.18
615.298	17492.21
615.493	17539.32
615.688	17330.42
615.884	17934.57
616.079	17228.03
616.274	17938.67
616.47	17254.65
616.665	17555.7
616.86	17316.09
617.055	17262.84
617.25	17340.66
617.445	17359.1
617.641	17127.67
617.836	17453.3
618.031	16906.49
618.226	17039.61
618.421	16953.6
618.616	17021.18
618.811	16695.55
619.006	17150.2
619.201	16849.15
619.396	16808.19
619.591	16118.03
619.786	16877.82
619.981	16662.79
620.176	16642.31
620.371	16267.53
620.566	16267.53
620.761	16312.58
620.956	16367.88
621.151	16013.58
621.346	16234.76
621.541	15876.37
621.735	15999.24
621.93	15878.41
622.125	15597.84
622.32	15628.56
622.515	15837.45
622.709	15497.49
622.904	15434
623.099	15409.43
623.294	15548.69
623.488	15178.01
623.683	15292.69
623.878	14997.79
624.072	15163.67
624.267	14784.8
624.462	15102.23
624.656	14768.41
624.851	14776.61
625.046	14637.34
625.24	14485.79
625.435	14594.34
625.629	14600.48
625.824	14297.38
626.018	14283.05
626.213	13992.23
626.407	13865.26
626.602	13797.68
626.796	13951.28
626.991	13926.7
627.185	13773.1
627.38	13586.74
627.574	13607.22
627.768	13431.09
627.963	13420.85
628.157	13230.39
628.352	13390.13
628.546	13072.7
628.74	13443.38
628.935	13154.62
629.129	13320.5
629.323	12888.38
629.517	12818.75
629.712	12814.65
629.906	13080.89
630.1	12828.99
630.294	12734.78
630.489	12548.42
630.683	12505.41
630.877	12265.8
631.071	12308.8
631.265	12446.02
631.459	12204.36
631.653	12233.03
631.848	12161.35
632.042	12157.25
632.236	12153.16
632.43	11938.12
632.624	11948.36
632.818	11737.42
633.012	11499.86
633.206	11694.41
633.4	11831.63
633.594	11409.75
633.788	11387.22
633.982	11575.63
634.176	11313.49
634.369	11340.11
634.563	11432.27
634.757	11350.35
634.951	11225.43
635.145	11237.72
635.339	11047.26
635.533	11020.63
635.726	11020.63
635.92	10670.43
636.114	10797.4
636.308	10764.64
636.501	10619.23
636.695	10854.75
636.889	10686.81
637.083	10684.76
637.276	10391.91
637.47	10506.59
637.664	10447.2
637.857	10352.99
638.051	10342.75
638.244	10217.83
638.438	10090.85
638.632	10330.47
638.825	10047.85
639.019	10131.81
639.212	9980.26
639.406	9888.11
639.599	9775.47
639.793	9994.6
639.986	9656.68
640.18	9646.44
640.373	9711.98
640.567	9599.34
640.76	9374.06
640.954	9451.89
641.147	9472.37
641.34	9292.15
641.534	9384.3
641.727	9312.63
641.92	9345.39
642.114	9255.28
642.307	9222.52
642.5	9179.51
642.694	8880.5
642.887	9042.29
643.08	9120.12
643.273	8939.9
643.467	8878.46
643.66	8688
643.853	8882.55
644.046	8526.21
644.239	8728.95
644.432	8720.76
644.626	8399.23
644.819	8546.69
645.012	8573.31
645.205	8477.05
645.398	8413.57
645.591	8386.94
645.784	8362.37
645.977	8171.91
646.17	8307.07
646.363	8139.14
646.556	8010.12
646.749	8126.85
646.942	8212.87
647.135	8049.03
647.328	7999.88
647.521	7901.58
647.714	7995.78
647.907	7856.52
648.099	7877
648.292	7696.78
648.485	7684.49
648.678	7588.24
648.871	7588.24
649.064	7594.38
649.256	7512.46
649.449	7561.61
649.642	7498.13
649.835	7543.18
650.027	7471.5
650.22	7315.86
650.413	7190.93
650.605	7360.91
650.798	7315.86
650.991	7037.33
651.183	7252.37
651.376	7168.4
651.568	7160.21
651.761	7066
651.954	7012.76
652.146	7012.76
652.339	7055.76
652.531	6832.54
652.724	6949.27
652.916	6951.32
653.109	6750.62
653.301	6734.23
653.494	6824.34
653.686	6617.5
653.879	6607.26
654.071	6480.29
654.263	6558.11
654.456	6570.4
654.648	6562.2
654.84	6459.81
655.033	6371.74
655.225	6433.18
655.417	6439.33
655.61	6384.03
655.802	6234.53
655.994	6244.77
656.186	6381.98
656.379	6287.78
656.571	5994.92
656.763	6250.91
656.955	6209.95
657.148	6005.16
657.34	6232.48
657.532	5947.81
657.724	5996.96
657.916	6144.42
658.108	6027.68
658.3	5761.45
658.492	5800.36
658.684	5622.19
658.876	5663.15
659.068	5740.97
659.26	5679.53
659.452	5679.53
659.644	5657
659.836	5675.43
660.028	5759.4
660.22	5472.68
660.412	5376.43
660.604	5581.23
660.796	5599.66
660.988	5353.9
661.18	5401.01
661.372	5306.8
661.563	5558.7
661.755	5439.92
661.947	5419.44
662.139	5331.37
662.331	5251.5
662.522	5054.9
662.714	5378.48
662.906	4995.51
663.097	5173.68
663.289	5106.1
663.481	4952.5
663.673	5087.67
663.864	5005.75
664.056	4852.15
664.247	5015.99
664.439	5030.32
664.631	4940.21
664.822	4981.17
665.014	4972.98
665.205	4815.29
665.397	4932.02
665.588	4889.01
665.78	4764.09
665.971	4618.68
666.163	4655.54
666.354	4868.53
666.546	4794.81
666.737	4657.59
666.929	4637.11
667.12	4784.57
667.311	4786.61
667.503	4622.78
667.694	4602.3
667.885	4600.25
668.077	4553.15
668.268	4354.49
668.459	4567.48
668.651	4551.1
668.842	4428.22
669.033	4340.16
669.224	4456.89
669.416	4549.05
669.607	4280.77
669.798	4282.81
669.989	4411.84
670.18	4331.97
670.371	4211.14
670.563	4231.62
670.754	4268.48
670.945	4026.82
671.136	4303.29
671.327	4225.47
671.518	4241.86
671.709	4209.09
671.9	4170.18
672.091	4219.33
672.282	4125.12
672.473	4024.77
672.664	4061.63
672.855	4108.74
673.046	4067.78
673.237	4055.49
673.428	4149.7
673.619	4055.49
673.809	3893.7
674	4016.58
674.191	4170.18
674.382	3887.56
674.573	3973.57
674.764	4018.63
674.954	3942.85
675.145	3914.18
675.336	3920.32
675.527	3840.45
675.717	3942.85
675.908	3787.21
676.099	3752.39
676.289	3930.56
676.48	3719.62
676.671	3693
676.861	3570.12
677.052	3725.77
677.243	3717.58
677.433	3600.84
677.624	3797.45
677.814	3819.97
678.005	3662.28
678.195	3602.89
678.386	3641.8
678.576	3592.65
678.767	3617.22
678.957	3598.79
679.148	3652.04
679.338	3553.74
679.529	3529.16
679.719	3473.87
679.909	3613.13
680.1	3580.36
680.29	3574.22
680.481	3453.39
680.671	3394
680.861	3611.08
681.052	3621.32
681.242	3504.59
681.432	3633.61
681.622	3365.32
681.813	3480.01
682.003	3443.15
682.193	3410.38
682.383	3547.59
682.573	3283.41
682.764	3310.03
682.954	3416.52
683.144	3465.68
683.334	3383.76
683.524	3482.06
683.714	3498.44
683.904	3320.27
684.094	3408.33
684.284	3400.14
684.474	3322.32
684.664	3353.04
684.854	3428.81
685.044	3326.41
685.234	3273.17
685.424	3310.03
685.614	3254.73
685.804	3244.49
685.994	3187.15
686.184	3316.17
686.374	3176.91
686.564	3271.12
686.753	3396.04
686.943	3060.18
687.133	3199.44
687.323	3144.14
687.513	3211.73
687.702	3090.9
687.892	2970.07
688.082	3176.91
688.272	3060.18
688.461	3193.3
688.651	3146.19
688.841	3023.31
689.03	3054.03
689.22	3017.17
689.41	3027.41
689.599	3008.98
689.789	2941.4
689.979	2935.25
690.168	2933.2
690.358	2771.41
690.547	2925.01
690.737	2955.73
690.926	2843.09
691.116	2914.77
691.305	2920.92
691.495	2818.52
691.684	2949.59
691.874	2775.51
692.063	2951.63
692.252	2839
692.442	2738.65
692.631	2683.35
692.82	2843.09
693.01	2759.13
693.199	2879.96
693.388	2742.74
693.578	2855.38
693.767	2740.69
693.956	2720.21
694.146	2560.47
694.335	2750.93
694.524	2595.29
694.713	2707.93
694.902	2685.4
695.092	2662.87
695.281	2505.18
695.47	2726.36
695.659	2677.21
695.848	2566.62
696.037	2621.91
696.226	2609.62
696.415	2638.3
696.604	2654.68
696.793	2666.97
696.982	2566.62
697.171	2642.39
697.36	2564.57
697.549	2462.17
697.738	2509.27
697.927	2601.43
698.116	2576.86
698.305	2531.8
698.494	2482.65
698.683	2605.53
698.872	2601.43
699.061	2517.47
699.25	2462.17
699.438	2460.12
699.627	2466.27
699.816	2494.94
700.005	2548.19
700.193	2486.75
700.382	2564.57
700.571	2435.55
700.76	2611.67
700.948	2464.22
701.137	2410.97
701.326	2486.75
701.514	2443.74
701.703	2449.88
701.892	2474.46
702.08	2425.31
702.269	2484.7
702.457	2394.59
702.646	2634.2
702.834	2382.3
703.023	2496.99
703.212	2554.33
703.4	2535.9
703.589	2478.55
703.777	2433.5
703.965	2384.35
704.154	2640.34
704.342	2404.83
704.531	2433.5
704.719	2404.83
704.907	2515.42
705.096	2417.12
705.284	2458.07
705.472	2417.12
705.661	2464.22
705.849	2439.64
706.037	2451.93
706.226	2496.99
706.414	2445.79
706.602	2427.35
706.79	2445.79
706.979	2437.59
707.167	2443.74
707.355	2421.21
707.543	2413.02
707.731	2435.55
707.919	2427.35
708.107	2339.29
708.296	2423.26
708.484	2359.77
708.672	2376.16
708.86	2421.21
709.048	2400.73
709.236	2386.4
709.424	2429.4
709.612	2331.1
709.8	2372.06
709.988	2372.06
710.176	2509.27
710.364	2253.28
710.551	2378.2
710.739	2392.54
710.927	2431.45
711.115	2380.25
711.303	2359.77
711.491	2308.57
711.679	2431.45
711.866	2388.44
712.054	2378.2
712.242	2322.91
712.43	2384.35
712.617	2363.87
712.805	2359.77
712.993	2302.43
713.181	2281.95
713.368	2425.31
713.556	2386.4
713.744	2263.52
713.931	2402.78
714.119	2275.81
714.306	2314.72
714.494	2286.05
714.682	2410.97
714.869	2357.72
715.057	2351.58
715.244	2296.28
715.432	2370.01
715.619	2451.93
715.807	2290.14
715.994	2314.72
716.182	2177.5
716.369	2333.15
716.556	2345.44
716.744	2193.89
716.931	2308.57
717.119	2314.72
717.306	2257.37
717.493	2302.43
717.681	2453.98
717.868	2259.42
718.055	2290.14
718.242	2329.05
718.43	2253.28
718.617	2214.37
718.804	2226.65
718.991	2292.19
719.179	2224.61
719.366	2339.29
719.553	2384.35
719.74	2269.66
719.927	2224.61
720.114	2210.27
720.301	2294.24
720.488	2261.47
720.676	2216.41
720.863	2292.19
721.05	2281.95
721.237	2296.28
721.424	2206.17
721.611	2376.16
721.798	2263.52
721.985	2195.93
722.172	2154.98
722.358	2269.66
722.545	2238.94
722.732	2284
722.919	2271.71
723.106	2189.79
723.293	2304.48
723.48	2322.91
723.667	2238.94
723.853	2200.03
724.04	2122.21
724.227	2279.9
724.414	2210.27
724.6	2253.28
724.787	2185.69
724.974	2208.22
725.161	2185.69
725.347	2208.22
725.534	2126.3
725.72	2197.98
725.907	2279.9
726.094	2228.7
726.28	2146.78
726.467	2175.45
726.653	2097.63
726.84	2171.36
727.027	2304.48
727.213	2181.6
727.4	2208.22
727.586	2114.02
727.773	2208.22
727.959	2228.7
728.145	2183.65
728.332	2212.32
728.518	2216.41
728.705	2357.72
728.891	2185.69
729.077	2187.74
729.264	2140.64
729.45	2132.45
729.636	2093.54
729.823	2097.63
730.009	2193.89
730.195	2220.51
730.382	2189.79
730.568	2105.82
730.754	2304.48
730.94	2140.64
731.126	2216.41
731.313	2173.41
731.499	2189.79
731.685	2140.64
731.871	2179.55
732.057	2214.37
732.243	2103.78
732.429	2224.61
732.615	2195.93
732.801	2142.69
732.987	2126.3
733.173	2091.49
733.359	2107.87
733.545	2099.68
733.731	2157.02
733.917	2124.26
734.103	2109.92
734.289	2154.98
734.475	2081.25
734.661	2073.06
734.847	2189.79
735.033	2128.35
735.219	2056.67
735.404	2200.03
735.59	2101.73
735.776	2126.3
735.962	2134.5
736.148	2093.54
736.333	2169.31
736.519	2236.89
736.705	2081.25
736.89	2071.01
737.076	2019.81
737.262	2101.73
737.447	2109.92
737.633	2124.26
737.819	2140.64
738.004	2103.78
738.19	2054.62
738.375	2042.34
738.561	2087.39
738.747	2101.73
738.932	2054.62
739.118	2052.58
739.303	2036.19
739.489	2030.05
739.674	2021.86
739.859	1944.03
740.045	2101.73
740.23	2015.71
740.416	2001.38
740.601	2046.43
740.786	1982.95
740.972	1954.27
741.157	1989.09
741.342	1954.27
741.528	2062.82
741.713	1974.75
741.898	1927.65
742.084	2062.82
742.269	2036.19
742.454	2003.43
742.639	1929.7
742.824	1972.71
743.01	1941.99
743.195	2044.38
743.38	1874.4
743.565	1890.79
743.75	1831.4
743.935	1794.53
744.12	1860.07
744.305	1835.49
744.49	1862.12
744.675	1886.69
744.86	1729
745.045	1864.16
745.23	1833.44
745.415	1819.11
745.6	1913.31
745.785	1798.63
745.97	1819.11
746.155	1853.92
746.34	1798.63
746.525	1858.02
746.71	1880.55
746.895	1757.67
747.079	1774.05
747.264	1692.13
747.449	1780.2
747.634	1698.28
747.819	1835.49
748.003	1712.61
748.188	1729
748.373	1571.3
748.557	1692.13
748.742	1669.61
748.927	1745.38
749.111	1614.31
749.296	1589.74
749.481	1657.32
749.665	1634.79
749.85	1606.12
750.034	1640.93
750.219	1632.74
750.404	1614.31
750.588	1585.64
750.773	1614.31
750.957	1559.02
751.141	1507.82
751.326	1503.72
751.51	1442.28
751.695	1583.59
751.879	1397.23
752.064	1540.58
752.248	1524.2
752.432	1450.47
752.617	1470.95
752.801	1403.37
752.985	1434.09
753.17	1493.48
753.354	1419.75
753.538	1487.34
753.722	1370.6
753.907	1350.12
754.091	1454.57
754.275	1391.08
754.459	1333.74
754.643	1280.49
754.828	1366.51
755.012	1194.48
755.196	1298.92
755.38	1286.64
755.564	1303.02
755.748	1356.27
755.932	1292.78
756.116	1239.53
756.3	1282.54
756.484	1257.96
756.668	1323.5
756.852	1190.38
757.036	1262.06
757.22	1202.67
757.404	1251.82
757.588	1157.61
757.772	1145.33
757.956	1167.85
758.14	1184.24
758.323	1208.81
758.507	1196.53
758.691	1147.37
758.875	1212.91
759.059	1104.37
759.242	1118.7
759.426	1120.75
759.61	1219.05
759.794	1071.6
759.977	1145.33
760.161	1122.8
760.345	1196.53
760.528	1163.76
760.712	1133.04
760.895	1077.74
761.079	1102.32
761.263	1040.88
761.446	1053.17
761.63	1116.65
761.813	1006.06
761.997	1012.21
762.18	1006.06
762.364	993.78
762.547	971.25
762.731	1028.59
762.914	1047.02
763.098	969.2
763.281	1012.21
763.464	1110.51
763.648	1016.3
763.831	1001.97
764.015	1057.26
764.198	975.35
764.381	987.63
764.564	1059.31
764.748	979.44
764.931	1106.42
765.114	887.28
765.297	985.58
765.481	889.33
765.664	840.18
765.847	907.76
766.03	915.95
766.213	924.15
766.397	911.86
766.58	1028.59
766.763	938.48
766.946	967.15
767.129	928.24
767.312	926.19
767.495	967.15
767.678	907.76
767.861	930.29
768.044	930.29
768.227	920.05
768.41	999.92
768.593	897.52
768.776	954.87
768.959	991.73
769.142	905.71
769.324	846.32
769.507	930.29
769.69	809.46
769.873	909.81
770.056	895.47
770.239	831.99
770.421	811.51
770.604	784.88
770.787	813.56
770.97	897.52
771.152	735.73
771.335	838.13
771.518	725.49
771.7	844.28
771.883	801.27
772.066	838.13
772.248	868.85
772.431	768.5
772.613	815.6
772.796	809.46
772.978	735.73
773.161	844.28
773.343	834.04
773.526	702.97
773.708	764.4
773.891	741.88
774.073	729.59
774.256	786.93
774.438	743.92
774.621	721.4
774.803	715.25
774.985	682.49
775.168	651.77
775.35	713.21
775.532	711.16
775.715	784.88
775.897	774.64
776.079	659.96
776.261	770.55
776.444	754.16
776.626	731.64
776.808	649.72
776.99	678.39
777.173	627.19
777.355	643.57
777.537	676.34
777.719	645.62
777.901	616.95
778.083	606.71
778.265	668.15
778.447	655.86
778.629	651.77
778.811	647.67
778.993	614.9
779.175	684.53
779.357	639.48
779.539	604.66
779.721	627.19
779.903	649.72
780.085	653.81
780.267	518.65
780.449	590.33
780.631	606.71
780.812	635.38
780.994	586.23
781.176	518.65
781.358	557.56
781.54	569.85
781.721	541.18
781.903	500.22
782.085	500.22
782.267	608.76
782.448	498.17
782.63	594.42
782.812	524.79
782.993	537.08
783.175	535.03
783.357	580.09
783.538	545.27
783.72	530.94
783.901	438.78
784.083	424.44
784.264	512.5
784.446	457.21
784.627	422.39
784.809	455.16
784.99	463.35
785.172	479.74
785.353	426.49
785.535	479.74
785.716	487.93
785.897	381.43
786.079	475.64
786.26	492.02
786.441	457.21
786.623	410.11
786.804	403.96
786.985	422.39
787.167	502.26
787.348	432.63
787.529	434.68
787.71	459.26
787.891	371.19
788.073	360.95
788.254	369.15
788.435	369.15
788.616	438.78
788.797	381.43
788.978	387.58
789.159	371.19
789.34	350.71
789.522	395.77
789.703	369.15
789.884	358.91
790.065	451.07
790.246	344.57
790.427	451.07
790.607	356.86
790.788	408.06
790.969	377.34
791.15	322.04
791.331	365.05
791.512	350.71
791.693	289.28
791.874	264.7
792.054	369.15
792.235	381.43
792.416	438.78
792.597	330.23
792.778	305.66
792.958	328.19
793.139	311.8
793.32	371.19
793.5	332.28
793.681	369.15
793.862	242.17
794.042	360.95
794.223	324.09
794.404	305.66
794.584	299.52
794.765	338.43
794.945	236.03
795.126	383.48
795.306	320
795.487	356.86
795.667	301.56
795.848	262.65
796.028	266.75
796.209	350.71
796.389	313.85
796.57	322.04
796.75	268.8
796.93	252.41
797.111	236.03
797.291	248.32
797.471	295.42
797.652	309.76
797.832	303.61
798.012	233.98
798.192	225.79
798.373	375.29
798.553	291.32
798.733	276.99
798.913	195.07
799.093	262.65
799.274	305.66
799.454	205.31
799.634	262.65
799.814	268.8
799.994	266.75
800.174	297.47
800.354	279.04
800.534	242.17
800.714	250.36
800.894	279.04
801.074	229.88
801.254	244.22
801.434	250.36
801.614	238.08
801.794	219.64
801.974	535.03
802.154	188.93
802.334	303.61
802.514	266.75
802.693	207.36
802.873	242.17
803.053	180.73
803.233	154.11
803.413	254.46
803.592	190.97
803.772	213.5
803.952	188.93
804.131	190.97
804.311	231.93
804.491	291.32
804.67	225.79
804.85	252.41
805.03	248.32
805.209	274.94
805.389	258.56
805.568	215.55
805.748	193.02
805.928	178.69
806.107	240.12
806.287	203.26
806.466	147.97
806.646	160.25
806.825	207.36
807.004	176.64
807.184	184.83
807.363	268.8
807.543	156.16
807.722	186.88
807.901	244.22
808.081	209.4
808.26	135.68
808.439	193.02
808.619	236.03
808.798	111.1
808.977	158.21
809.156	227.84
809.336	160.25
809.515	162.3
809.694	207.36
809.873	205.31
810.052	207.36
810.231	266.75
810.411	135.68
810.59	147.97
810.769	176.64
810.948	231.93
811.127	145.92
811.306	231.93
811.485	176.64
811.664	217.6
811.843	258.56
812.022	178.69
812.201	176.64
812.38	127.49
812.559	188.93
812.737	145.92
812.916	129.53
813.095	131.58
813.274	143.87
813.453	164.35
813.632	199.16
813.811	164.35
813.989	174.59
814.168	166.4
814.347	162.3
814.526	154.11
814.704	141.82
814.883	178.69
815.062	150.01
815.24	131.58
815.419	111.1
815.598	94.72
815.776	125.44
815.955	162.3
816.133	186.88
816.312	109.05
816.49	160.25
816.669	152.06
816.847	168.45
817.026	145.92
817.204	135.68
817.383	119.29
817.561	84.48
817.74	195.07
817.918	176.64
818.097	133.63
818.275	135.68
818.453	133.63
818.632	94.72
818.81	133.63
818.988	135.68
819.167	174.59
819.345	119.29
819.523	86.53
819.701	109.05
819.879	172.54
820.058	119.29
820.236	143.87
820.414	70.14
820.592	90.62
820.77	156.16
820.948	168.45
821.127	43.52
821.305	86.53
821.483	82.43
821.661	205.31
821.839	119.29
822.017	82.43
822.195	129.53
822.373	158.21
822.551	135.68
822.729	117.25
822.907	109.05
823.085	88.57
823.262	115.2
823.44	119.29
823.618	66.05
823.796	117.25
823.974	117.25
824.152	152.06
824.329	68.09
824.507	70.14
824.685	193.02
824.863	129.53
825.04	43.52
825.218	92.67
825.396	72.19
825.574	27.14
825.751	125.44
825.929	109.05
826.107	51.71
826.284	88.57
826.462	53.76
826.639	104.96
826.817	109.05
826.994	92.67
827.172	64
827.349	92.67
827.527	129.53
827.704	80.38
827.882	82.43
828.059	111.1
828.237	127.49
828.414	86.53
828.591	14.85
828.769	53.76
828.946	72.19
829.124	147.97
829.301	94.72
829.478	47.62
829.655	82.43
829.833	74.24
830.01	119.29
830.187	115.2
830.364	49.66
830.542	104.96
830.719	137.73
830.896	102.91
831.073	43.52
831.25	61.95
831.427	123.39
831.604	78.33
831.782	117.25
831.959	121.34
832.136	53.76
832.313	88.57
832.49	4.61
832.667	25.09
832.844	-15.87
833.021	70.14
833.198	70.14
833.374	139.77
833.551	98.81
833.728	27.14
833.905	45.57
834.082	12.8
834.259	29.18
834.436	129.53
834.612	25.09
834.789	86.53
834.966	109.05
835.143	51.71
835.319	141.82
835.496	119.29
835.673	41.47
835.85	14.85
836.026	178.69
836.203	51.71
836.38	84.48
836.556	64
836.733	123.39
836.909	59.9
837.086	35.33
837.262	-1.54
837.439	66.05
837.616	76.29
837.792	33.28
837.968	78.33
838.145	57.86
838.321	143.87
838.498	49.66
838.674	135.68
838.851	37.38
839.027	10.75
839.203	45.57
839.38	37.38
839.556	92.67
839.732	47.62
839.909	129.53
840.085	78.33
840.261	45.57
840.437	43.52
840.614	18.94
840.79	47.62
840.966	109.05
841.142	66.05
841.318	39.42
841.494	115.2
841.671	127.49
841.847	-11.78
842.023	70.14
842.199	55.81
842.375	37.38
842.551	90.62
842.727	57.86
842.903	117.25
843.079	-34.3
843.255	29.18
843.431	10.75
843.607	111.1
843.783	29.18
843.959	145.92
844.134	16.9
844.31	127.49
844.486	-17.92
844.662	80.38
844.838	6.66
845.013	72.19
845.189	18.94
845.365	61.95
845.541	84.48
845.716	115.2
845.892	82.43
846.068	84.48
846.244	102.91
846.419	80.38
846.595	31.23
846.77	53.76
846.946	10.75
847.122	76.29
847.297	10.75
847.473	92.67
847.648	-26.11
847.824	61.95
847.999	25.09
848.175	55.81
848.35	70.14
848.526	41.47
848.701	90.62
848.876	64
849.052	88.57
849.227	61.95
849.403	88.57
849.578	23.04
849.753	76.29
849.929	27.14
850.104	-7.68
850.279	74.24
850.454	33.28
850.63	104.96
850.805	25.09
850.98	35.33
851.155	8.7
851.33	39.42
851.505	-26.11
851.681	41.47
851.856	-46.59
852.031	70.14
852.206	51.71
852.381	115.2
852.556	68.09
852.731	92.67
852.906	23.04
853.081	4.61
853.256	96.77
853.431	45.57
853.606	35.33
853.781	70.14
853.956	18.94
854.131	94.72
854.305	59.9
854.48	57.86
854.655	76.29
854.83	14.85
855.005	59.9
855.18	119.29
855.354	6.66
855.529	47.62
855.704	45.57
855.879	55.81
856.053	29.18
856.228	113.15
856.403	-7.68
856.577	-17.92
856.752	-3.58
856.926	16.9
857.101	29.18
857.276	-9.73
857.45	25.09
857.625	43.52
857.799	8.7
857.974	-38.4
858.148	-9.73
858.323	94.72
858.497	-9.73
858.672	68.09
858.846	25.09
859.02	66.05
859.195	8.7
859.369	-3.58
859.543	86.53
859.718	59.9
859.892	10.75
860.066	31.23
860.241	35.33
860.415	-54.78
860.589	68.09
860.763	59.9
860.938	49.66
861.112	90.62
861.286	78.33
861.46	84.48
861.634	16.9
861.808	76.29
861.982	18.94
862.157	57.86
862.331	31.23
862.505	-34.3
862.679	49.66
862.853	18.94
863.027	31.23
863.201	16.9
863.375	0.51
863.549	74.24
863.722	-42.5
863.896	68.09
864.07	0.51
864.244	37.38
864.418	23.04
864.592	-13.82
864.766	8.7
864.939	23.04
865.113	6.66
865.287	84.48
865.461	-19.97
865.634	29.18
865.808	10.75
865.982	35.33
866.156	29.18
866.329	6.66
866.503	27.14
866.676	4.61
866.85	20.99
867.024	-44.54
867.197	25.09
867.371	57.86
867.544	12.8
867.718	-7.68
867.891	37.38
868.065	-5.63
868.238	-19.97
868.412	109.05
868.585	37.38
868.759	-67.07
868.932	100.86
869.105	57.86
869.279	-22.02
869.452	-71.17
869.625	45.57
869.799	41.47
869.972	-36.35
870.145	-38.4
870.319	-3.58
870.492	-5.63
870.665	-56.83
870.838	59.9
871.011	-13.82
871.185	18.94
871.358	127.49
871.531	43.52
871.704	16.9
871.877	74.24
872.05	43.52
872.223	-28.16
872.396	43.52
872.569	6.66
872.742	70.14
872.915	25.09
873.088	-69.12
873.261	-44.54
873.434	61.95
873.607	18.94
873.78	-38.4
873.953	-93.69
874.126	33.28
874.299	59.9
874.471	-19.97
874.644	-17.92
874.817	18.94
874.99	61.95
875.163	59.9
875.335	43.52
875.508	59.9
875.681	104.96
875.853	72.19
876.026	37.38
876.199	47.62
876.371	20.99
876.544	-11.78
876.717	16.9
876.889	92.67
877.062	70.14
877.234	2.56
877.407	66.05
877.579	45.57
877.752	23.04
877.924	29.18
878.097	41.47
878.269	4.61
878.442	78.33
878.614	-7.68
878.786	27.14
878.959	78.33
879.131	64
879.303	41.47
879.476	8.7
879.648	68.09
879.82	10.75
879.993	-22.02
880.165	80.38
880.337	-40.45
880.509	16.9
880.681	10.75
880.854	-26.11
881.026	0.51
881.198	16.9
881.37	-42.5
881.542	6.66
881.714	12.8
881.886	0.51
882.058	23.04
882.23	33.28
882.402	39.42
882.574	27.14
882.746	-3.58
882.918	57.86
883.09	25.09
883.262	59.9
883.434	4.61
883.606	33.28
883.778	23.04
883.95	68.09
884.122	0.51
884.293	16.9
884.465	-5.63
884.637	41.47
884.809	-34.3
884.98	100.86
885.152	-9.73
885.324	94.72
885.496	-3.58
885.667	4.61
885.839	8.7
886.011	66.05
886.182	-7.68
886.354	41.47
886.525	80.38
886.697	49.66
886.869	8.7
887.04	-69.12
887.212	2.56
887.383	23.04
887.555	18.94
887.726	6.66
887.897	20.99
888.069	-30.21
888.24	20.99
888.412	12.8
888.583	20.99
888.754	0.51
888.926	16.9
889.097	-28.16
889.268	-28.16
889.44	12.8
889.611	-71.17
889.782	-1.54
889.953	-46.59
890.125	72.19
890.296	-93.69
890.467	-5.63
890.638	-17.92
890.809	25.09
890.98	-9.73
891.151	147.97
891.323	-34.3
891.494	-1.54
891.665	-40.45
891.836	10.75
892.007	68.09
892.178	57.86
892.349	-34.3
892.52	-19.97
892.691	20.99
892.862	-71.17
893.032	4.61
893.203	-38.4
893.374	18.94
893.545	-3.58
893.716	39.42
893.887	-46.59
894.057	-11.78
894.228	-11.78
894.399	-32.26
894.57	47.62
894.74	-54.78
894.911	74.24
895.082	-9.73
895.253	-73.21
895.423	-48.64
895.594	57.86
895.764	29.18
895.935	-36.35
896.106	4.61
896.276	29.18
896.447	39.42
896.617	16.9
896.788	27.14
896.958	-28.16
897.129	35.33
897.299	43.52
897.47	-22.02
897.64	10.75
897.81	20.99
897.981	-36.35
898.151	39.42
898.322	59.9
898.492	-56.83
898.662	33.28
898.832	10.75
899.003	43.52
899.173	14.85
899.343	-13.82
899.513	-30.21
