Data from USB4F104151__93__11-06-47-761.txt Node

Date: Wed Mar 12 11:06:47 EDT 2025
User: louis
Spectrometer: USB4F10415
Trigger mode: 4
Integration Time (sec): 2.000000E-2
Scans to average: 1
Electric dark correction enabled: true
Nonlinearity correction enabled: false
Boxcar width: 0
XAxis mode: Wavelengths
Number of Pixels in Spectrum: 3648
>>>>>Begin Spectral Data<<<<<
178.204	-91.82
178.424	-91.82
178.644	-91.82
178.864	-75.43
179.084	-57
179.304	-30.38
179.524	69.97
179.744	20.82
179.964	4.44
180.184	45.4
180.404	-50.86
180.624	2.39
180.844	18.77
181.064	16.73
181.283	-7.85
181.503	-81.58
181.723	-7.85
181.943	14.68
182.163	47.44
182.383	-67.24
182.602	39.25
182.822	12.63
183.042	20.82
183.262	24.92
183.482	35.16
183.701	22.87
183.921	39.25
184.141	-40.62
184.361	94.55
184.58	-5.8
184.8	33.11
185.02	-26.28
185.239	26.96
185.459	2.39
185.679	49.49
185.898	-46.76
186.118	104.79
186.338	-77.48
186.557	53.59
186.777	14.68
186.997	-34.47
187.216	0.34
187.436	-26.28
187.655	94.55
187.875	4.44
188.095	22.87
188.314	33.11
188.534	80.21
188.753	35.16
188.973	0.34
189.192	-9.9
189.412	61.78
189.631	-28.33
189.851	-16.04
190.07	-20.14
190.29	-24.23
190.509	-44.71
190.729	-34.47
190.948	24.92
191.168	51.54
191.387	53.59
191.607	51.54
191.826	-30.38
192.045	43.35
192.265	74.07
192.484	-28.33
192.704	-46.76
192.923	-22.19
193.142	14.68
193.362	6.49
193.581	86.36
193.8	0.34
194.02	18.77
194.239	-24.23
194.458	16.73
194.678	-7.85
194.897	-1.71
195.116	-57
195.335	10.58
195.555	-40.62
195.774	37.2
195.993	4.44
196.212	-16.04
196.432	-7.85
196.651	0.34
196.87	37.2
197.089	104.79
197.308	41.3
197.528	4.44
197.747	-5.8
197.966	82.26
198.185	26.96
198.404	-79.53
198.623	-69.29
198.842	51.54
199.062	12.63
199.281	-7.85
199.5	55.64
199.719	39.25
199.938	-18.09
200.157	33.11
200.376	-34.47
200.595	57.68
200.814	47.44
201.033	-30.38
201.252	49.49
201.471	69.97
201.69	49.49
201.909	-30.38
202.128	94.55
202.347	0.34
202.566	43.35
202.785	-3.75
203.004	10.58
203.223	26.96
203.442	10.58
203.661	8.53
203.879	76.12
204.098	-9.9
204.317	10.58
204.536	94.55
204.755	-24.23
204.974	115.03
205.193	16.73
205.411	98.64
205.63	29.01
205.849	-16.04
206.068	33.11
206.287	-40.62
206.505	10.58
206.724	53.59
206.943	14.68
207.162	61.78
207.381	-5.8
207.599	102.74
207.818	-40.62
208.037	72.02
208.255	69.97
208.474	26.96
208.693	-5.8
208.911	37.2
209.13	16.73
209.349	-1.71
209.567	-9.9
209.786	41.3
210.005	-9.9
210.223	-32.43
210.442	31.06
210.661	-1.71
210.879	33.11
211.098	-7.85
211.316	-13.99
211.535	22.87
211.753	29.01
211.972	6.49
212.191	-32.43
212.409	35.16
212.628	0.34
212.846	4.44
213.065	82.26
213.283	10.58
213.502	2.39
213.72	29.01
213.938	39.25
214.157	133.46
214.375	69.97
214.594	6.49
214.812	6.49
215.031	37.2
215.249	63.83
215.467	-18.09
215.686	24.92
215.904	102.74
216.122	-9.9
216.341	47.44
216.559	43.35
216.778	12.63
216.996	14.68
217.214	39.25
217.432	-54.95
217.651	6.49
217.869	49.49
218.087	53.59
218.306	18.77
218.524	112.98
218.742	69.97
218.96	61.78
219.179	37.2
219.397	63.83
219.615	35.16
219.833	65.88
220.051	-18.09
220.27	29.01
220.488	-9.9
220.706	-20.14
220.924	-26.28
221.142	-9.9
221.36	29.01
221.578	-11.95
221.796	12.63
222.015	16.73
222.233	-44.71
222.451	8.53
222.669	-48.81
222.887	16.73
223.105	12.63
223.323	29.01
223.541	47.44
223.759	0.34
223.977	69.97
224.195	57.68
224.413	16.73
224.631	18.77
224.849	8.53
225.067	16.73
225.285	26.96
225.503	-3.75
225.721	-48.81
225.939	-40.62
226.157	0.34
226.375	65.88
226.592	37.2
226.81	74.07
227.028	49.49
227.246	6.49
227.464	-18.09
227.682	-22.19
227.9	-20.14
228.117	0.34
228.335	65.88
228.553	6.49
228.771	12.63
228.989	35.16
229.206	12.63
229.424	-9.9
229.642	8.53
229.86	74.07
230.077	-3.75
230.295	-13.99
230.513	76.12
230.731	18.77
230.948	82.26
231.166	12.63
231.384	-32.43
231.601	61.78
231.819	-42.67
232.037	-38.57
232.254	-67.24
232.472	49.49
232.689	-73.39
232.907	-5.8
233.125	12.63
233.342	-34.47
233.56	33.11
233.777	82.26
233.995	29.01
234.213	-7.85
234.43	24.92
234.648	-40.62
234.865	-20.14
235.083	20.82
235.3	-24.23
235.518	20.82
235.735	84.31
235.953	16.73
236.17	-26.28
236.388	22.87
236.605	16.73
236.822	-44.71
237.04	8.53
237.257	-1.71
237.475	-75.43
237.692	18.77
237.909	12.63
238.127	8.53
238.344	2.39
238.562	69.97
238.779	-9.9
238.996	-69.29
239.214	-85.67
239.431	-7.85
239.648	12.63
239.865	33.11
240.083	-18.09
240.3	61.78
240.517	29.01
240.735	31.06
240.952	-48.81
241.169	-5.8
241.386	2.39
241.603	26.96
241.821	55.64
242.038	-7.85
242.255	51.54
242.472	-32.43
242.689	26.96
242.907	39.25
243.124	29.01
243.341	-46.76
243.558	-1.71
243.775	29.01
243.992	8.53
244.209	18.77
244.426	43.35
244.643	69.97
244.86	-48.81
245.078	29.01
245.295	72.02
245.512	-32.43
245.729	-24.23
245.946	-18.09
246.163	4.44
246.38	0.34
246.597	84.31
246.814	-28.33
247.031	-11.95
247.248	76.12
247.464	-7.85
247.681	-7.85
247.898	63.83
248.115	43.35
248.332	-7.85
248.549	-3.75
248.766	86.36
248.983	39.25
249.2	-9.9
249.417	31.06
249.633	-7.85
249.85	-11.95
250.067	24.92
250.284	-24.23
250.501	8.53
250.717	49.49
250.934	-36.52
251.151	80.21
251.368	-7.85
251.585	72.02
251.801	22.87
252.018	35.16
252.235	20.82
252.451	-40.62
252.668	6.49
252.885	12.63
253.102	16.73
253.318	37.2
253.535	20.82
253.752	-7.85
253.968	14.68
254.185	35.16
254.401	31.06
254.618	33.11
254.835	-40.62
255.051	10.58
255.268	69.97
255.484	12.63
255.701	-20.14
255.917	37.2
256.134	61.78
256.351	41.3
256.567	16.73
256.784	-3.75
257	-38.57
257.217	20.82
257.433	59.73
257.65	24.92
257.866	14.68
258.082	-7.85
258.299	-34.47
258.515	-28.33
258.732	-7.85
258.948	47.44
259.165	74.07
259.381	24.92
259.597	-22.19
259.814	18.77
260.03	-1.71
260.246	31.06
260.463	-16.04
260.679	45.4
260.895	16.73
261.112	22.87
261.328	63.83
261.544	35.16
261.761	31.06
261.977	-9.9
262.193	4.44
262.409	-11.95
262.626	-7.85
262.842	10.58
263.058	-13.99
263.274	-36.52
263.49	47.44
263.707	86.36
263.923	16.73
264.139	-52.91
264.355	-57
264.571	45.4
264.787	29.01
265.004	45.4
265.22	-22.19
265.436	-52.91
265.652	31.06
265.868	-7.85
266.084	20.82
266.3	-36.52
266.516	-24.23
266.732	74.07
266.948	-7.85
267.164	-11.95
267.38	10.58
267.596	16.73
267.812	-34.47
268.028	74.07
268.244	14.68
268.46	-11.95
268.676	-71.34
268.892	22.87
269.108	-1.71
269.324	24.92
269.54	6.49
269.756	-11.95
269.972	14.68
270.188	0.34
270.403	12.63
270.619	35.16
270.835	-7.85
271.051	45.4
271.267	26.96
271.483	-3.75
271.698	-13.99
271.914	37.2
272.13	-1.71
272.346	57.68
272.562	-3.75
272.777	35.16
272.993	-63.15
273.209	8.53
273.425	-13.99
273.64	31.06
273.856	-36.52
274.072	0.34
274.287	-24.23
274.503	86.36
274.719	57.68
274.934	-22.19
275.15	16.73
275.366	-20.14
275.581	-1.71
275.797	0.34
276.012	-11.95
276.228	24.92
276.444	4.44
276.659	49.49
276.875	37.2
277.09	6.49
277.306	-20.14
277.521	49.49
277.737	26.96
277.952	-26.28
278.168	-13.99
278.383	22.87
278.599	-34.47
278.814	51.54
279.03	-38.57
279.245	78.16
279.461	18.77
279.676	33.11
279.892	-16.04
280.107	6.49
280.322	-24.23
280.538	41.3
280.753	51.54
280.969	-83.63
281.184	-61.1
281.399	35.16
281.615	59.73
281.83	63.83
282.045	18.77
282.26	8.53
282.476	-73.39
282.691	16.73
282.906	2.39
283.122	129.36
283.337	-26.28
283.552	-22.19
283.767	-36.52
283.983	45.4
284.198	-18.09
284.413	69.97
284.628	24.92
284.843	65.88
285.058	82.26
285.274	26.96
285.489	0.34
285.704	-1.71
285.919	20.82
286.134	33.11
286.349	-36.52
286.564	-36.52
286.779	16.73
286.995	37.2
287.21	-30.38
287.425	41.3
287.64	8.53
287.855	53.59
288.07	-59.05
288.285	31.06
288.5	51.54
288.715	35.16
288.93	29.01
289.145	2.39
289.36	45.4
289.575	-13.99
289.79	69.97
290.004	61.78
290.219	43.35
290.434	-40.62
290.649	-24.23
290.864	-24.23
291.079	20.82
291.294	63.83
291.509	41.3
291.724	61.78
291.938	53.59
292.153	4.44
292.368	29.01
292.583	10.58
292.798	6.49
293.012	-11.95
293.227	-40.62
293.442	16.73
293.657	24.92
293.871	63.83
294.086	-9.9
294.301	92.5
294.516	-26.28
294.73	80.21
294.945	8.53
295.16	29.01
295.374	63.83
295.589	59.73
295.804	31.06
296.018	-52.91
296.233	78.16
296.447	65.88
296.662	45.4
296.877	45.4
297.091	18.77
297.306	10.58
297.52	-54.95
297.735	14.68
297.949	57.68
298.164	53.59
298.378	94.55
298.593	16.73
298.807	-48.81
299.022	47.44
299.236	41.3
299.451	-93.87
299.665	57.68
299.88	-13.99
300.094	49.49
300.309	16.73
300.523	43.35
300.737	16.73
300.952	31.06
301.166	29.01
301.381	72.02
301.595	8.53
301.809	16.73
302.024	26.96
302.238	33.11
302.452	22.87
302.667	35.16
302.881	29.01
303.095	47.44
303.309	2.39
303.524	-77.48
303.738	-69.29
303.952	37.2
304.166	35.16
304.381	0.34
304.595	61.78
304.809	0.34
305.023	78.16
305.237	-32.43
305.452	29.01
305.666	14.68
305.88	-34.47
306.094	43.35
306.308	45.4
306.522	69.97
306.736	-20.14
306.95	33.11
307.164	86.36
307.379	-24.23
307.593	29.01
307.807	4.44
308.021	33.11
308.235	33.11
308.449	-71.34
308.663	-24.23
308.877	-9.9
309.091	-30.38
309.305	2.39
309.519	-1.71
309.733	35.16
309.947	67.92
310.161	53.59
310.374	33.11
310.588	104.79
310.802	8.53
311.016	18.77
311.23	49.49
311.444	37.2
311.658	-18.09
311.872	69.97
312.085	47.44
312.299	22.87
312.513	41.3
312.727	63.83
312.941	-54.95
313.154	57.68
313.368	29.01
313.582	37.2
313.796	-3.75
314.009	29.01
314.223	90.45
314.437	86.36
314.651	6.49
314.864	33.11
315.078	82.26
315.292	-3.75
315.505	67.92
315.719	41.3
315.933	18.77
316.146	53.59
316.36	45.4
316.573	61.78
316.787	24.92
317.001	61.78
317.214	29.01
317.428	-16.04
317.641	12.63
317.855	12.63
318.068	74.07
318.282	6.49
318.495	39.25
318.709	2.39
318.922	0.34
319.136	43.35
319.349	33.11
319.563	29.01
319.776	10.58
319.99	82.26
320.203	-16.04
320.417	41.3
320.63	4.44
320.843	33.11
321.057	43.35
321.27	-22.19
321.483	6.49
321.697	41.3
321.91	20.82
322.124	51.54
322.337	22.87
322.55	6.49
322.763	-34.47
322.977	-34.47
323.19	20.82
323.403	-44.71
323.617	4.44
323.83	45.4
324.043	37.2
324.256	47.44
324.469	-32.43
324.683	24.92
324.896	-20.14
325.109	-34.47
325.322	-16.04
325.535	0.34
325.748	20.82
325.962	6.49
326.175	-22.19
326.388	-9.9
326.601	55.64
326.814	51.54
327.027	78.16
327.24	24.92
327.453	-83.63
327.666	53.59
327.879	24.92
328.092	18.77
328.305	45.4
328.518	22.87
328.731	41.3
328.944	74.07
329.157	-7.85
329.37	-28.33
329.583	24.92
329.796	65.88
330.009	45.4
330.222	45.4
330.435	14.68
330.648	65.88
330.861	33.11
331.073	-24.23
331.286	29.01
331.499	49.49
331.712	-28.33
331.925	-18.09
332.138	18.77
332.35	6.49
332.563	-3.75
332.776	35.16
332.989	-30.38
333.202	-5.8
333.414	-69.29
333.627	-11.95
333.84	-20.14
334.053	69.97
334.265	86.36
334.478	53.59
334.691	-16.04
334.903	16.73
335.116	-26.28
335.329	0.34
335.541	2.39
335.754	45.4
335.966	-24.23
336.179	0.34
336.392	33.11
336.604	24.92
336.817	37.2
337.029	-32.43
337.242	10.58
337.454	-30.38
337.667	-50.86
337.88	137.56
338.092	-3.75
338.305	24.92
338.517	49.49
338.729	20.82
338.942	59.73
339.154	26.96
339.367	22.87
339.579	0.34
339.792	-46.76
340.004	67.92
340.217	0.34
340.429	-5.8
340.641	-3.75
340.854	63.83
341.066	-34.47
341.278	80.21
341.491	49.49
341.703	-50.86
341.915	12.63
342.128	2.39
342.34	24.92
342.552	-20.14
342.764	-16.04
342.977	63.83
343.189	72.02
343.401	33.11
343.613	-36.52
343.826	8.53
344.038	4.44
344.25	41.3
344.462	-30.38
344.674	0.34
344.886	-18.09
345.099	88.4
345.311	-42.67
345.523	0.34
345.735	-30.38
345.947	29.01
346.159	-32.43
346.371	65.88
346.583	18.77
346.795	74.07
347.007	61.78
347.219	-75.43
347.431	43.35
347.643	24.92
347.855	-67.24
348.067	47.44
348.279	-7.85
348.491	88.4
348.703	53.59
348.915	59.73
349.127	-40.62
349.339	59.73
349.551	-63.15
349.763	49.49
349.975	-16.04
350.187	-22.19
350.399	49.49
350.61	45.4
350.822	8.53
351.034	-26.28
351.246	-57
351.458	35.16
351.669	-20.14
351.881	10.58
352.093	39.25
352.305	67.92
352.517	18.77
352.728	14.68
352.94	-59.05
353.152	-34.47
353.363	-69.29
353.575	29.01
353.787	57.68
353.999	-28.33
354.21	16.73
354.422	-1.71
354.633	-16.04
354.845	49.49
355.057	43.35
355.268	39.25
355.48	31.06
355.692	69.97
355.903	80.21
356.115	-59.05
356.326	2.39
356.538	8.53
356.749	-28.33
356.961	69.97
357.172	24.92
357.384	-13.99
357.595	80.21
357.807	-7.85
358.018	108.88
358.23	22.87
358.441	10.58
358.653	-3.75
358.864	33.11
359.075	10.58
359.287	67.92
359.498	31.06
359.709	14.68
359.921	84.31
360.132	29.01
360.344	-20.14
360.555	53.59
360.766	-26.28
360.977	-7.85
361.189	29.01
361.4	72.02
361.611	8.53
361.823	94.55
362.034	14.68
362.245	-50.86
362.456	61.78
362.667	-28.33
362.879	80.21
363.09	45.4
363.301	-3.75
363.512	-44.71
363.723	-36.52
363.935	-1.71
364.146	10.58
364.357	-9.9
364.568	-42.67
364.779	63.83
364.99	74.07
365.201	65.88
365.412	72.02
365.623	90.45
365.834	-71.34
366.045	2.39
366.256	41.3
366.467	22.87
366.678	35.16
366.889	-32.43
367.1	-32.43
367.311	18.77
367.522	51.54
367.733	22.87
367.944	-16.04
368.155	43.35
368.366	45.4
368.577	98.64
368.788	16.73
368.999	8.53
369.209	8.53
369.42	-13.99
369.631	51.54
369.842	2.39
370.053	-28.33
370.264	29.01
370.474	41.3
370.685	41.3
370.896	31.06
371.107	24.92
371.317	-57
371.528	4.44
371.739	-9.9
371.95	63.83
372.16	33.11
372.371	22.87
372.582	49.49
372.792	20.82
373.003	63.83
373.214	-13.99
373.424	24.92
373.635	37.2
373.846	-26.28
374.056	76.12
374.267	76.12
374.477	-7.85
374.688	26.96
374.898	53.59
375.109	10.58
375.319	80.21
375.53	125.27
375.74	33.11
375.951	78.16
376.161	-40.62
376.372	47.44
376.582	-18.09
376.793	-9.9
377.003	-7.85
377.214	63.83
377.424	53.59
377.635	29.01
377.845	14.68
378.055	6.49
378.266	8.53
378.476	-7.85
378.686	-7.85
378.897	20.82
379.107	-11.95
379.317	8.53
379.528	-91.82
379.738	24.92
379.948	65.88
380.158	37.2
380.369	24.92
380.579	53.59
380.789	6.49
380.999	-67.24
381.21	35.16
381.42	26.96
381.63	53.59
381.84	8.53
382.05	-11.95
382.261	20.82
382.471	18.77
382.681	18.77
382.891	2.39
383.101	-18.09
383.311	-40.62
383.521	57.68
383.731	8.53
383.941	65.88
384.151	41.3
384.361	49.49
384.571	86.36
384.781	26.96
384.991	22.87
385.201	-11.95
385.411	72.02
385.621	-48.81
385.831	24.92
386.041	-34.47
386.251	-34.47
386.461	55.64
386.671	6.49
386.881	-9.9
387.091	61.78
387.301	-5.8
387.511	39.25
387.72	16.73
387.93	4.44
388.14	16.73
388.35	43.35
388.56	41.3
388.769	20.82
388.979	45.4
389.189	63.83
389.399	2.39
389.609	65.88
389.818	106.84
390.028	53.59
390.238	41.3
390.447	-3.75
390.657	-13.99
390.867	12.63
391.076	-22.19
391.286	41.3
391.496	-50.86
391.705	-1.71
391.915	16.73
392.125	49.49
392.334	37.2
392.544	72.02
392.753	22.87
392.963	24.92
393.172	92.5
393.382	41.3
393.591	10.58
393.801	8.53
394.01	-48.81
394.22	-3.75
394.429	-48.81
394.639	-1.71
394.848	53.59
395.058	41.3
395.267	82.26
395.477	55.64
395.686	96.6
395.895	88.4
396.105	49.49
396.314	53.59
396.524	47.44
396.733	12.63
396.942	80.21
397.152	94.55
397.361	53.59
397.57	63.83
397.78	16.73
397.989	14.68
398.198	96.6
398.407	90.45
398.617	-1.71
398.826	35.16
399.035	22.87
399.244	43.35
399.453	67.92
399.663	55.64
399.872	108.88
400.081	6.49
400.29	49.49
400.499	57.68
400.708	43.35
400.917	84.31
401.127	29.01
401.336	-24.23
401.545	96.6
401.754	16.73
401.963	14.68
402.172	147.8
402.381	6.49
402.59	82.26
402.799	-28.33
403.008	76.12
403.217	76.12
403.426	117.08
403.635	29.01
403.844	61.78
404.053	57.68
404.262	80.21
404.471	55.64
404.68	69.97
404.888	98.64
405.097	82.26
405.306	65.88
405.515	39.25
405.724	22.87
405.933	158.03
406.142	35.16
406.35	125.27
406.559	84.31
406.768	98.64
406.977	102.74
407.185	74.07
407.394	104.79
407.603	80.21
407.812	125.27
408.02	86.36
408.229	61.78
408.438	49.49
408.646	72.02
408.855	14.68
409.064	213.33
409.272	139.6
409.481	127.32
409.69	74.07
409.898	106.84
410.107	127.32
410.315	235.86
410.524	143.7
410.733	155.99
410.941	94.55
411.15	203.09
411.358	182.61
411.567	237.91
411.775	188.75
411.984	276.82
412.192	180.56
412.401	239.95
412.609	155.99
412.818	235.86
413.026	215.38
413.234	278.87
413.443	164.18
413.651	256.34
413.86	190.8
414.068	321.87
414.276	325.97
414.485	313.68
414.693	356.69
414.901	325.97
415.11	256.34
415.318	260.43
415.526	416.08
415.734	381.26
415.943	338.26
416.151	379.22
416.359	420.17
416.567	411.98
416.776	434.51
416.984	498
417.192	516.43
417.4	416.08
417.608	424.27
417.817	498
418.025	543.05
418.233	588.11
418.441	512.33
418.649	575.82
418.857	639.31
419.065	618.83
419.273	618.83
419.481	584.01
419.689	708.94
419.897	694.6
420.105	690.51
420.313	784.71
420.521	809.29
420.729	692.55
420.937	811.34
421.145	794.95
421.353	885.06
421.561	823.62
421.769	993.61
421.977	1032.52
422.185	999.75
422.393	1030.47
422.601	1079.62
422.809	1059.14
423.017	1165.64
423.224	1147.2
423.432	1179.97
423.64	1104.2
423.848	1259.84
424.056	1337.66
424.263	1339.71
424.471	1362.24
424.679	1280.32
424.887	1294.66
425.094	1495.36
425.302	1497.41
425.51	1636.67
425.718	1634.62
425.925	1546.56
426.133	1710.4
426.341	1782.07
426.548	1796.41
426.756	1808.7
426.964	1868.09
427.171	1999.16
427.379	1939.77
427.586	2056.5
427.794	2068.79
428.001	2210.1
428.209	2265.39
428.417	2289.97
428.624	2380.08
428.832	2431.28
429.039	2480.43
429.247	2451.76
429.454	2566.45
429.662	2943.27
429.869	2615.6
430.076	2867.5
430.284	2777.39
430.491	2933.03
430.699	3074.34
430.906	2996.52
431.114	2982.18
431.321	3119.4
431.528	3277.09
431.736	3506.46
431.943	3641.63
432.15	3676.45
432.358	3490.08
432.565	3778.84
432.772	3717.4
432.979	3834.14
433.187	3895.58
433.394	3883.29
433.601	4348.18
433.808	4227.35
434.016	4354.32
434.223	4428.05
434.43	4622.61
434.637	4575.5
434.844	4915.47
435.052	5095.69
435.259	4921.61
435.466	4899.08
435.673	4915.47
435.88	5198.09
436.087	5624.06
436.294	5595.39
436.501	5554.43
436.708	5458.18
436.915	5816.57
437.122	6185.21
437.329	6015.23
437.537	6156.54
437.743	6205.69
437.95	6306.04
438.157	6680.82
438.364	6588.66
438.571	6822.13
438.778	6977.77
438.985	7385.32
439.192	7209.19
439.399	7512.29
439.606	7131.37
439.813	7764.19
440.02	8116.44
440.227	7979.23
440.433	7862.49
440.64	8134.87
440.847	8136.92
441.054	8151.26
441.261	8906.96
441.467	8636.63
441.674	8724.69
441.881	9261.26
442.088	9263.3
442.294	9191.63
442.501	9431.24
442.708	9558.21
442.914	9881.79
443.121	10383.54
443.328	10182.84
443.534	10934.45
443.741	10614.96
443.948	10397.88
444.154	10936.49
444.361	11016.37
444.568	11090.09
444.774	11192.49
444.981	11378.86
445.187	11694.24
445.394	11907.23
445.6	11757.73
445.807	13181.07
446.013	12513.43
446.22	12783.76
446.426	13066.38
446.633	13273.23
446.839	13721.73
447.046	13185.16
447.252	13830.27
447.459	14047.36
447.665	13994.11
447.871	14463.1
448.078	14993.52
448.284	14362.75
448.491	14741.62
448.697	15270
448.903	15489.13
449.11	15708.26
449.316	15419.5
449.522	15714.41
449.728	15913.06
449.935	15982.69
450.141	16226.4
450.347	16656.47
450.553	15923.3
450.76	16003.17
450.966	16681.05
451.172	16674.9
451.378	17010.77
451.584	16545.88
451.791	17070.16
451.997	17012.82
452.203	17264.72
452.409	17309.77
452.615	17401.93
452.821	16296.03
453.027	16193.63
453.233	17170.51
453.44	16541.78
453.646	16736.34
453.852	16713.81
454.058	17094.74
454.264	16459.87
454.47	16783.45
454.676	16531.55
454.882	16963.67
455.088	15636.58
455.294	15732.84
455.5	16087.14
455.705	15923.3
455.911	15648.87
456.117	15159.41
456.323	14938.23
456.529	14076.03
456.735	14743.67
456.941	14344.31
457.147	13940.86
457.352	14006.4
457.558	13748.36
457.764	13594.76
457.97	13359.24
458.176	12855.44
458.381	13187.21
458.587	12613.78
458.793	12597.4
458.999	11727.01
459.204	12716.18
459.41	12175.52
459.616	11468.97
459.821	11468.97
460.027	11497.64
460.233	11546.79
460.438	10909.87
460.644	10733.75
460.85	10469.56
461.055	10213.56
461.261	10184.89
461.466	9377.99
461.672	9230.54
461.878	9615.55
462.083	8990.92
462.289	8913.1
462.494	8831.18
462.7	8392.92
462.905	8218.84
463.111	8552.66
463.316	8526.04
463.522	8327.38
463.727	8319.19
463.932	8265.94
464.138	8247.51
464.343	8286.42
464.549	7973.08
464.754	8351.96
464.959	8222.94
465.165	8143.07
465.37	7811.29
465.575	7594.21
465.781	7858.4
465.986	7913.69
466.191	7633.12
466.397	7448.8
466.602	7133.42
466.807	7426.28
467.012	7573.73
467.218	7315.69
467.423	7475.43
467.628	7295.21
467.833	7794.91
468.038	7190.76
468.244	7180.52
468.449	7467.24
468.654	7387.36
468.859	7114.98
469.064	7090.41
469.269	6717.68
469.474	6826.22
469.679	7147.75
469.885	6813.93
470.09	7008.49
470.295	6961.39
470.5	6746.35
470.705	6826.22
470.91	6564.08
471.115	6471.92
471.32	6551.79
471.525	6637.81
471.73	6398.2
471.935	6330.61
472.139	6332.66
472.344	6271.22
472.549	6293.75
472.754	6084.86
472.959	6066.42
473.164	5884.16
473.369	5755.13
473.574	6125.82
473.778	5951.74
473.983	5959.93
474.188	5980.41
474.393	5662.97
474.598	5820.67
474.802	5538.05
475.007	5613.82
475.212	5544.19
475.417	5425.41
475.621	5386.5
475.826	5427.46
476.031	5206.28
476.235	5304.58
476.44	5284.1
476.645	5226.76
476.849	5101.83
477.054	5077.26
477.259	5071.11
477.463	5028.1
477.668	4874.51
477.872	5007.62
478.077	4868.36
478.282	4837.64
478.486	4878.6
478.691	4759.82
478.895	4780.3
479.1	4694.29
479.304	4706.57
479.509	4600.08
479.713	4673.81
479.918	4337.94
480.122	4417.81
480.326	4647.18
480.531	4380.95
480.735	4458.77
480.94	4423.95
481.144	4485.39
481.348	4413.71
481.553	4327.7
481.757	4438.29
481.961	4501.78
482.166	4370.71
482.37	4382.99
482.574	4382.99
482.778	4305.17
482.983	4479.25
483.187	4405.52
483.391	4339.99
483.595	4364.56
483.8	4184.34
484.004	4516.11
484.208	4489.49
484.412	4325.65
484.616	4487.44
484.821	4458.77
485.025	4337.94
485.229	4366.61
485.433	4428.05
485.637	4370.71
485.841	4448.53
486.045	4245.78
486.249	4387.09
486.453	4233.49
486.657	4356.37
486.861	4260.12
487.065	4440.34
487.269	4323.6
487.473	4333.84
487.677	4438.29
487.881	4303.12
488.085	4358.42
488.289	4366.61
488.493	4262.16
488.697	4342.04
488.901	4530.45
489.105	4485.39
489.309	4419.86
489.512	4499.73
489.716	4446.48
489.92	4401.43
490.124	4426
490.328	4466.96
490.531	4393.23
490.735	4616.46
490.939	4489.49
491.143	4471.06
491.346	4440.34
491.55	4534.54
491.754	4618.51
491.958	4528.4
492.161	4579.6
492.365	4608.27
492.569	4577.55
492.772	4757.77
492.976	4661.52
493.18	4722.96
493.383	4677.9
493.587	4784.4
493.79	4985.1
493.994	4720.91
494.197	4870.41
494.401	4962.57
494.605	4837.64
494.808	4976.91
495.012	4864.27
495.215	5009.67
495.419	5044.49
495.622	4952.33
495.825	5046.54
496.029	5062.92
496.232	5091.59
496.436	5105.93
496.639	5409.03
496.843	5200.13
497.046	5374.21
497.249	5331.2
497.453	5402.88
497.656	5595.39
497.859	5447.94
498.063	5681.41
498.266	5738.75
498.469	5611.78
498.673	5730.56
498.876	5849.34
499.079	5894.4
499.282	5912.83
499.485	6023.42
499.689	6099.19
499.892	6160.63
500.095	6277.37
500.298	6357.24
500.501	6172.92
500.705	6525.17
500.908	6555.89
501.111	6559.99
501.314	6680.82
501.517	6775.02
501.72	6695.15
501.923	6732.01
502.126	6838.51
502.329	6850.8
502.532	7162.09
502.735	7194.86
502.938	7287.01
503.141	7325.93
503.344	7500
503.547	7377.12
503.75	7669.98
503.953	7477.48
504.156	7588.07
504.359	7753.95
504.562	7960.8
504.765	8138.97
504.968	8136.92
505.17	8141.02
505.373	8136.92
505.576	8306.9
505.779	8593.62
505.982	8505.56
506.185	8575.19
506.387	8700.11
506.59	8835.28
506.793	8995.02
506.996	8974.54
507.198	9121.99
507.401	9171.15
507.604	9330.89
507.807	9439.43
508.009	9500.87
508.212	9472.2
508.415	9644.23
508.617	9756.86
508.82	9867.45
509.022	9869.5
509.225	10457.27
509.428	10275
509.63	10299.58
509.833	10334.39
510.035	10762.42
510.238	10369.21
510.44	10752.18
510.643	10772.66
510.845	10729.65
511.048	11026.61
511.25	11059.37
511.453	11258.03
511.655	11409.58
511.858	11479.21
512.06	11731.11
512.262	11976.86
512.465	11780.26
512.667	12157.08
512.87	11927.71
513.072	12142.75
513.274	12363.93
513.477	12525.72
513.679	12683.41
513.881	12732.56
514.084	12667.03
514.286	12894.35
514.488	12968.08
514.69	13291.66
514.893	13420.68
515.095	13494.41
515.297	13621.38
515.499	13811.84
515.701	13904
515.904	14004.35
516.106	14071.93
516.308	14112.89
516.51	14497.91
516.712	14551.16
516.914	14710.9
517.116	14831.73
517.318	15097.97
517.52	15032.43
517.722	15136.88
517.925	15294.57
518.127	15728.74
518.329	15730.79
518.531	15528.04
518.733	15964.26
518.935	16111.71
519.136	16175.2
519.338	16412.76
519.54	16494.68
519.742	16789.59
519.944	16601.18
520.146	17092.69
520.348	17377.36
520.55	17102.93
520.752	17377.36
520.954	17565.77
521.155	17547.34
521.357	17784.9
521.559	18288.7
521.761	18438.2
521.963	18204.74
522.164	18364.48
522.366	18141.25
522.568	18841.65
522.77	18638.9
522.971	19269.68
523.173	18860.09
523.375	19159.09
523.576	19345.45
523.778	19281.97
523.98	19568.68
524.181	19830.82
524.383	19525.68
524.584	19970.08
524.786	20025.38
524.988	20244.51
525.189	20721.69
525.391	20441.12
525.592	20543.52
525.794	20625.43
525.995	20641.82
526.197	20971.54
526.398	20940.82
526.6	21022.74
526.801	21280.78
527.003	21426.19
527.204	21559.31
527.406	21690.38
527.607	21727.24
527.808	21862.41
528.01	21717
528.211	21774.35
528.412	21946.37
528.614	22081.54
528.815	22009.86
529.016	22136.84
529.218	22155.27
529.419	22306.82
529.62	22587.39
529.822	22450.17
530.023	22495.23
530.224	22573.05
530.425	22552.57
530.626	22478.85
530.828	22538.24
531.029	23185.4
531.23	22781.95
531.431	22919.16
531.632	23115.76
531.833	23107.57
532.035	22960.12
532.236	23179.25
532.437	23252.98
532.638	23287.79
532.839	23371.76
533.04	23400.43
533.241	23175.16
533.442	23478.26
533.643	23650.28
533.844	23191.54
534.045	23414.77
534.246	23109.62
534.447	23502.83
534.648	23484.4
534.849	23404.53
535.05	23160.82
535.251	23382
535.451	23515.12
535.652	23855.08
535.853	23834.6
536.054	23582.7
536.255	23801.83
536.456	23511.02
536.657	24078.31
536.857	23670.76
537.058	23388.14
537.259	23764.97
537.46	23879.66
537.66	23941.1
537.861	23701.48
538.062	23742.44
538.263	23740.4
538.463	23797.74
538.664	23959.53
538.865	23939.05
539.065	24160.23
539.266	23629.8
539.466	23900.14
539.667	23711.72
539.868	24174.56
540.068	24090.6
540.269	23832.55
540.469	23644.14
540.67	23685.1
540.87	23998.44
541.071	23769.07
541.271	24121.32
541.472	23961.58
541.672	23537.65
541.873	23666.67
542.073	23511.02
542.274	24104.93
542.474	23850.99
542.675	23840.75
542.875	23984.1
543.075	23961.58
543.276	23519.21
543.476	24029.16
543.676	23666.67
543.877	24008.68
544.077	24104.93
544.277	24147.94
544.478	23824.36
544.678	24317.92
544.878	23685.1
545.078	23771.11
545.279	23576.56
545.479	23801.83
545.679	24012.77
545.879	23638
546.079	23685.1
546.28	23482.35
546.48	23609.33
546.68	23721.96
546.88	23889.9
547.08	23822.31
547.28	23769.07
547.48	23523.31
547.68	23930.86
547.88	23908.33
548.081	23879.66
548.281	23791.59
548.481	23717.87
548.681	23885.8
548.881	23584.75
549.081	23992.3
549.28	23750.63
549.48	23920.62
549.68	23908.33
549.88	24184.8
550.08	23508.97
550.28	23943.14
550.48	23791.59
550.68	23799.79
550.88	23713.77
551.08	23463.92
551.279	23734.25
551.479	23644.14
551.679	23881.7
551.879	23744.49
552.079	23652.33
552.278	23678.96
552.478	23871.47
552.678	23504.88
552.878	23625.71
553.077	23644.14
553.277	23341.04
553.477	24076.26
553.676	23578.61
553.876	23547.89
554.076	23359.47
554.275	23214.07
554.475	23234.55
554.674	23492.59
554.874	23502.83
555.074	23236.59
555.273	23525.36
555.473	23594.99
555.672	22929.4
555.872	23189.49
556.071	23533.55
556.271	23271.41
556.47	23414.77
556.67	23066.61
556.869	23072.76
557.068	23338.99
557.268	23154.68
557.467	23447.54
557.667	23179.25
557.866	22904.82
558.065	22904.82
558.265	22894.58
558.464	23025.65
558.663	23033.85
558.863	22603.77
559.062	22980.6
559.261	22480.89
559.461	22853.62
559.66	22380.54
559.859	22503.42
560.058	22624.25
560.258	22630.4
560.457	22249.47
560.656	22945.78
560.855	22294.53
561.054	22599.68
561.253	22300.67
561.453	22274.05
561.652	22562.81
561.851	22417.41
562.05	21948.42
562.249	22007.81
562.448	22222.85
562.647	21868.55
562.846	22073.35
563.045	21932.04
563.244	21749.77
563.443	22032.39
563.642	21526.54
563.841	21934.09
564.04	21899.27
564.239	21901.32
564.438	21780.49
564.637	21499.92
564.836	21684.23
565.035	21047.32
565.234	21506.06
565.432	21551.12
565.631	21211.15
565.83	21207.06
566.029	21174.29
566.228	21180.43
566.427	20936.73
566.625	21159.95
566.824	20793.37
567.023	21090.32
567.222	20494.36
567.42	20885.53
567.619	20811.8
567.818	20918.29
568.016	20893.72
568.215	20711.45
568.414	20549.66
568.612	20684.83
568.811	20295.71
569.01	20305.95
569.208	20258.85
569.407	20052
569.605	20097.06
569.804	19968.04
570.002	20033.57
570.201	19974.18
570.4	19798.06
570.598	19767.34
570.797	19709.99
570.995	20152.35
571.193	19476.52
571.392	19671.08
571.59	19560.49
571.789	19200.05
571.987	19382.32
572.186	19097.65
572.384	19337.26
572.582	19279.92
572.781	19331.12
572.979	18706.49
573.177	19179.57
573.376	18989.11
573.574	19034.16
573.772	18892.85
573.971	18722.87
574.169	18714.68
574.367	18520.12
574.565	18810.93
574.763	18599.99
574.962	18511.93
575.16	18370.62
575.358	18317.37
575.556	17891.4
575.754	18233.41
575.952	18233.41
576.151	18452.54
576.349	18178.11
576.547	18239.55
576.745	17985.6
576.943	18085.95
577.141	18092.1
577.339	17846.34
577.537	17971.27
577.735	18022.47
577.933	17721.41
578.131	17684.55
578.329	17588.3
578.527	17518.67
578.725	17492.04
578.923	17606.73
579.121	17559.63
579.319	17360.97
579.516	17479.75
579.714	17451.08
579.912	17170.51
580.11	17412.17
580.308	17344.59
580.506	17229.9
580.704	16924.76
580.901	16996.43
581.099	16898.13
581.297	16879.7
581.495	16726.1
581.692	16816.21
581.89	17012.82
582.088	16963.67
582.285	16730.2
582.483	16689.24
582.681	16599.13
582.878	16480.35
583.076	16349.28
583.274	16777.3
583.471	16564.31
583.669	16468.06
583.866	16154.72
584.064	16363.61
584.262	16085.09
584.459	16253.02
584.657	16056.42
584.854	16001.12
585.052	15792.23
585.249	16025.7
585.447	16117.86
585.644	15771.75
585.841	16085.09
586.039	15827.04
586.236	15657.06
586.434	15638.63
586.631	15603.82
586.828	15718.5
587.026	15593.58
587.223	15708.26
587.42	15335.53
587.618	15272.04
587.815	15284.33
588.012	15288.43
588.21	15366.25
588.407	15358.06
588.604	15286.38
588.801	15108.21
588.999	14983.28
589.196	15048.82
589.393	14903.41
589.59	15032.43
589.787	14882.93
589.984	14997.62
590.182	14508.15
590.379	14631.03
590.576	14710.9
590.773	14692.47
590.97	14438.52
591.167	14557.3
591.364	14536.82
591.561	14479.48
591.758	14481.53
591.955	14315.64
592.152	14467.19
592.349	14266.49
592.546	14538.87
592.743	14184.57
592.94	14194.81
593.137	14239.87
593.334	14329.98
593.531	14035.07
593.727	14229.63
593.924	13967.49
594.121	13899.91
594.318	13912.19
594.515	13770.88
594.712	13828.23
594.908	13803.65
595.105	13904
595.302	13813.89
595.499	13682.82
595.696	13715.59
595.892	13783.17
596.089	13488.26
596.286	13904
596.482	13549.7
596.679	13473.93
596.876	13471.88
597.072	13502.6
597.269	13498.5
597.466	13256.84
597.662	13131.92
597.859	13416.58
598.055	13242.51
598.252	13142.16
598.448	12966.03
598.645	13154.44
598.841	12884.11
599.038	12896.4
599.234	12791.95
599.431	13041.81
599.627	13068.43
599.824	13158.54
600.02	12748.95
600.217	12753.04
600.413	12750.99
600.609	12595.35
600.806	12556.44
601.002	12562.58
601.198	12540.05
601.395	12564.63
601.591	12261.53
601.787	12632.21
601.984	12339.35
602.18	12687.51
602.376	12419.22
602.572	12349.59
602.769	12511.38
602.965	12071.07
603.161	12204.19
603.357	12046.49
603.553	12048.54
603.75	12122.27
603.946	12091.55
604.142	12017.82
604.338	11899.04
604.534	11964.57
604.73	11794.59
604.926	11831.46
605.122	11847.84
605.318	11716.77
605.514	11739.3
605.71	11690.15
605.906	11653.28
606.102	11587.75
606.298	11538.6
606.494	11638.95
606.69	11577.51
606.886	11415.72
607.082	11399.34
607.278	11524.26
607.474	11341.99
607.67	11559.08
607.866	11268.27
608.062	11458.73
608.257	11210.92
608.453	11376.81
608.649	11294.89
608.845	11176.11
609.041	11217.07
609.236	11327.66
609.432	11028.65
609.628	11112.62
609.824	10967.21
610.019	11364.52
610.215	10840.24
610.411	11006.13
610.606	11026.61
610.802	10928.3
610.998	11079.85
611.193	11149.48
611.389	10911.92
611.584	10985.65
611.78	10850.48
611.976	10969.26
612.171	10889.39
612.367	10641.59
612.562	10617.01
612.758	10793.14
612.953	10606.77
613.149	10760.37
613.344	10422.45
613.539	10786.99
613.735	10645.68
613.93	10633.4
614.126	10649.78
614.321	10688.69
614.517	10823.86
614.712	10682.55
614.907	10401.97
615.103	10537.14
615.298	10451.13
615.493	10590.39
615.688	10135.74
615.884	10404.02
616.079	10272.95
616.274	10307.77
616.47	10182.84
616.665	10461.37
616.86	10477.75
617.055	10328.25
617.25	10084.54
617.445	10295.48
617.641	10076.35
617.836	10139.83
618.031	10070.2
618.226	10217.66
618.421	10123.45
618.616	10107.07
618.811	9806.02
619.006	10023.1
619.201	10082.49
619.396	9820.35
619.591	9857.21
619.786	9918.65
619.981	9887.93
620.176	9797.82
620.371	9636.03
620.566	9769.15
620.761	9654.47
620.956	9666.75
621.151	9617.6
621.346	9502.92
621.541	9418.95
621.735	9515.2
621.93	9287.88
622.125	9165
622.32	9060.56
622.515	9418.95
622.709	9285.83
622.904	9109.71
623.099	9181.39
623.294	9142.47
623.488	8970.44
623.683	9035.98
623.878	8888.53
624.072	8954.06
624.267	8943.82
624.462	8679.63
624.656	8878.29
624.851	8665.3
625.046	8618.19
625.24	8687.82
625.435	8626.39
625.629	8671.44
625.824	8489.17
626.018	8356.05
626.213	8351.96
626.407	8255.7
626.602	8222.94
626.796	8280.28
626.991	8317.14
627.185	8280.28
627.38	8038.62
627.574	8087.77
627.768	8036.57
627.963	7934.17
628.157	8081.63
628.352	8108.25
628.546	7909.6
628.74	7792.86
628.935	7950.56
629.129	7764.19
629.323	7647.46
629.517	7583.97
629.712	7727.33
629.906	7586.02
630.1	7629.02
630.294	7557.35
630.489	7485.67
630.683	7526.63
630.877	7442.66
631.071	7370.98
631.265	7338.21
631.459	7190.76
631.653	7330.02
631.848	7131.37
632.042	7307.49
632.236	7233.77
632.43	6949.1
632.624	6926.57
632.818	6990.06
633.012	6879.47
633.206	6940.91
633.4	6932.72
633.594	6764.78
633.788	6967.53
633.982	6934.76
634.176	6815.98
634.369	6883.56
634.563	6897.9
634.757	6652.14
634.951	6772.97
635.145	6893.8
635.339	6654.19
635.533	6549.75
635.726	6557.94
635.92	6457.59
636.114	6293.75
636.308	6449.39
636.501	6318.32
636.695	6297.85
636.889	6381.81
637.083	6248.69
637.276	6217.97
637.47	6260.98
637.664	6289.65
637.857	6220.02
638.051	6045.95
638.244	6064.38
638.438	6111.48
638.632	6027.51
638.825	5882.11
639.019	5878.01
639.212	5996.79
639.406	5912.83
639.599	5939.45
639.793	5998.84
639.986	5527.81
640.18	5794.04
640.373	5634.3
640.567	5599.49
640.76	5585.15
640.954	5734.65
641.147	5681.41
641.34	5595.39
641.534	5497.09
641.727	5548.29
641.92	5546.24
642.114	5560.58
642.307	5286.15
642.5	5558.53
642.694	5402.88
642.887	5370.12
643.08	5361.92
643.273	5177.61
643.467	5251.33
643.66	5265.67
643.853	5261.57
644.046	5210.37
644.239	5112.07
644.432	5124.36
644.626	5132.55
644.819	5028.1
645.012	5040.39
645.205	4851.98
645.398	5146.89
645.591	5130.5
645.784	4995.34
645.977	4989.19
646.17	5028.1
646.363	4819.21
646.556	4763.92
646.749	4806.92
646.942	4907.27
647.135	4702.48
647.328	4694.29
647.521	4790.54
647.714	4604.18
647.907	4573.46
648.099	4667.66
648.292	4528.4
648.485	4534.54
648.678	4571.41
648.871	4391.19
649.064	4364.56
649.256	4499.73
649.449	4399.38
649.642	4595.98
649.835	4391.19
650.027	4454.67
650.22	4501.78
650.413	4479.25
650.605	4315.41
650.798	4202.77
650.991	4268.31
651.183	4280.6
651.376	4311.32
651.568	4200.73
651.761	4337.94
651.954	4182.29
652.146	4137.24
652.339	4034.84
652.531	4325.65
652.724	4129.05
652.916	4075.8
653.109	4016.41
653.301	4112.66
653.494	4167.96
653.686	4030.74
653.879	4034.84
654.071	4135.19
654.263	3965.21
654.456	4018.46
654.648	3871
654.84	3832.09
655.033	3807.52
655.225	3879.19
655.417	3838.23
655.61	3873.05
655.802	3823.9
655.994	3746.08
656.186	3899.67
656.379	3690.78
656.571	3684.64
656.763	3658.01
656.955	3815.71
657.148	3832.09
657.34	3748.12
657.532	3549.47
657.724	3662.11
657.916	3576.09
658.108	3584.29
658.3	3522.85
658.492	3582.24
658.684	3477.79
658.876	3473.7
659.068	3586.33
659.26	3381.54
659.452	3485.98
659.644	3567.9
659.836	3203.36
660.028	3533.09
660.22	3375.39
660.412	3463.46
660.604	3361.06
660.796	3375.39
660.988	3346.72
661.18	3252.52
661.372	3295.52
661.563	3383.59
661.755	3320.1
661.947	3326.24
662.139	3301.67
662.331	3229.99
662.522	3330.34
662.714	3205.41
662.906	3344.67
663.097	3178.79
663.289	3039.53
663.481	3086.63
663.673	3211.56
663.864	3219.75
664.056	2969.9
664.247	3078.44
664.439	3074.34
664.631	2965.8
664.822	2957.61
665.014	3039.53
665.205	3080.49
665.397	3017
665.588	3098.92
665.78	2902.31
665.971	2961.7
666.163	3051.81
666.354	3072.29
666.546	2881.83
666.737	2885.93
666.929	2914.6
667.12	2900.27
667.311	2930.98
667.503	2799.91
667.694	2879.79
667.885	2904.36
668.077	2789.67
668.268	2826.54
668.459	2761
668.651	2709.8
668.842	2810.15
669.033	2752.81
669.224	2691.37
669.416	2847.02
669.607	2761
669.798	2754.86
669.989	2804.01
670.18	2761
670.371	2730.28
670.563	2695.47
670.754	2783.53
670.945	2758.96
671.136	2642.22
671.327	2595.12
671.518	2597.17
671.709	2713.9
671.9	2718
672.091	2652.46
672.282	2607.41
672.473	2582.83
672.664	2629.93
672.855	2697.52
673.046	2679.08
673.237	2543.92
673.428	2474.29
673.619	2593.07
673.809	2679.08
674	2646.32
674.191	2662.7
674.382	2574.64
674.573	2613.55
674.764	2537.77
674.954	2576.69
675.145	2527.53
675.336	2464.05
675.527	2537.77
675.717	2525.49
675.908	2541.87
676.099	2367.79
676.289	2371.89
676.48	2451.76
676.671	2437.42
676.861	2494.77
677.052	2423.09
677.243	2535.73
677.433	2519.34
677.624	2470.19
677.814	2443.57
678.005	2382.13
678.195	2505.01
678.386	2433.33
678.576	2373.94
678.767	2515.25
678.957	2382.13
679.148	2593.07
679.338	2371.89
679.529	2474.29
679.719	2511.15
679.909	2392.37
680.1	2511.15
680.29	2459.95
680.481	2496.82
680.671	2488.62
680.861	2429.23
681.052	2388.27
681.242	2384.18
681.432	2412.85
681.622	2398.51
681.813	2316.59
682.003	2343.22
682.193	2502.96
682.383	2494.77
682.573	2425.14
682.764	2365.75
682.954	2361.65
683.144	2384.18
683.334	2332.98
683.524	2410.8
683.714	2380.08
683.904	2316.59
684.094	2242.87
684.284	2373.94
684.474	2390.32
684.664	2310.45
684.854	2361.65
685.044	2398.51
685.234	2371.89
685.424	2367.79
685.614	2294.07
685.804	2289.97
685.994	2328.88
686.184	2253.11
686.374	2255.15
686.564	2216.24
686.753	2238.77
686.943	2269.49
687.133	2163
687.323	2230.58
687.513	2185.52
687.702	2316.59
687.892	2273.59
688.082	2265.39
688.272	2216.24
688.461	2177.33
688.651	2316.59
688.841	2177.33
689.03	2105.65
689.22	2089.27
689.41	2136.37
689.599	2124.08
689.789	2144.56
689.979	2158.9
690.168	2169.14
690.358	2234.68
690.547	2216.24
690.737	2126.13
690.926	2218.29
691.116	2099.51
691.305	2027.83
691.495	2095.41
691.684	2025.78
691.874	2044.21
692.063	1956.15
692.252	2136.37
692.442	2201.91
692.631	2052.41
692.82	2087.22
693.01	2076.98
693.199	1888.57
693.388	2011.45
693.578	2019.64
693.767	1980.73
693.956	2146.61
694.146	2040.12
694.335	1970.49
694.524	2038.07
694.713	2038.07
694.902	2095.41
695.092	1945.91
695.281	2062.65
695.47	1968.44
695.659	1980.73
695.848	2029.88
696.037	1956.15
696.226	1993.01
696.415	2060.6
696.604	1995.06
696.793	1896.76
696.982	1993.01
697.171	1952.06
697.36	2033.97
697.549	1993.01
697.738	1933.62
697.927	1878.33
698.116	2031.93
698.305	1917.24
698.494	1911.1
698.683	1962.3
698.872	1988.92
699.061	1913.14
699.25	2001.21
699.438	1915.19
699.627	1880.38
699.816	2013.49
700.005	1909.05
700.193	1933.62
700.382	1968.44
700.571	1974.58
700.76	1976.63
700.948	2003.25
701.137	2036.02
701.326	1935.67
701.514	1853.75
701.703	1935.67
701.892	1915.19
702.08	1970.49
702.269	1960.25
702.457	1947.96
702.646	1851.71
702.834	1941.82
703.023	1990.97
703.212	2050.36
703.4	1900.86
703.589	1972.54
703.777	2013.49
703.965	1976.63
704.154	2036.02
704.342	2056.5
704.531	2003.25
704.719	1919.29
704.907	1917.24
705.096	1993.01
705.284	2074.93
705.472	1929.53
705.661	1986.87
705.849	2003.25
706.037	1892.66
706.226	1859.9
706.414	1960.25
706.602	2021.69
706.79	1919.29
706.979	1995.06
707.167	1968.44
707.355	2009.4
707.543	1855.8
707.731	1988.92
707.919	1956.15
708.107	1970.49
708.296	2031.93
708.484	1853.75
708.672	2003.25
708.86	1962.3
709.048	1995.06
709.236	1947.96
709.424	2015.54
709.612	1909.05
709.8	1988.92
709.988	1972.54
710.176	1978.68
710.364	2019.64
710.551	1972.54
710.739	1952.06
710.927	2015.54
711.115	2068.79
711.303	1841.47
711.491	2015.54
711.679	1993.01
711.866	1956.15
712.054	2056.5
712.242	1892.66
712.43	1950.01
712.617	1966.39
712.805	2017.59
712.993	1960.25
713.181	1950.01
713.368	2003.25
713.556	1933.62
713.744	1958.2
713.931	1980.73
714.119	1999.16
714.306	2085.17
714.494	2062.65
714.682	1919.29
714.869	2044.21
715.057	2064.69
715.244	1907
715.432	2003.25
715.619	2048.31
715.807	2044.21
715.994	2101.56
716.182	1874.23
716.369	1911.1
716.556	2048.31
716.744	1863.99
716.931	1990.97
717.119	2003.25
717.306	2074.93
717.493	2027.83
717.681	1954.1
717.868	1911.1
718.055	1952.06
718.242	2013.49
718.43	1990.97
718.617	1980.73
718.804	1917.24
718.991	2058.55
719.179	2019.64
719.366	2042.17
719.553	1941.82
719.74	1970.49
719.927	2056.5
720.114	1995.06
720.301	1962.3
720.488	2042.17
720.676	1970.49
720.863	2003.25
721.05	1859.9
721.237	1990.97
721.424	1997.11
721.611	2066.74
721.798	2025.78
721.985	1941.82
722.172	2015.54
722.358	2128.18
722.545	2107.7
722.732	1966.39
722.919	2017.59
723.106	1925.43
723.293	2009.4
723.48	2058.55
723.667	2048.31
723.853	2003.25
724.04	1896.76
724.227	2103.61
724.414	1978.68
724.6	1945.91
724.787	1919.29
724.974	1990.97
725.161	1870.14
725.347	2025.78
725.534	1962.3
725.72	2019.64
725.907	2001.21
726.094	2019.64
726.28	1997.11
726.467	2070.84
726.653	1995.06
726.84	2005.3
727.027	2025.78
727.213	1911.1
727.4	2105.65
727.586	2105.65
727.773	2027.83
727.959	1984.82
728.145	2070.84
728.332	2031.93
728.518	1970.49
728.705	1976.63
728.891	1995.06
729.077	1952.06
729.264	1962.3
729.45	2031.93
729.636	2074.93
729.823	1960.25
730.009	2122.04
730.195	2046.26
730.382	2115.89
730.568	2003.25
730.754	1962.3
730.94	1984.82
731.126	2072.89
731.313	2083.13
731.499	2087.22
731.685	1960.25
731.871	1984.82
732.057	2033.97
732.243	2089.27
732.429	1984.82
732.615	1956.15
732.801	1917.24
732.987	1907
733.173	2076.98
733.359	1995.06
733.545	2111.8
733.731	2040.12
733.917	1984.82
734.103	2005.3
734.289	2038.07
734.475	2017.59
734.661	2031.93
734.847	2040.12
735.033	2103.61
735.219	2050.36
735.404	2009.4
735.59	2048.31
735.776	2048.31
735.962	2175.28
736.148	1997.11
736.333	2009.4
736.519	2081.08
736.705	1917.24
736.89	2144.56
737.076	2019.64
737.262	1820.99
737.447	2031.93
737.633	1927.48
737.819	1980.73
738.004	1966.39
738.19	1886.52
738.375	1923.38
738.561	2062.65
738.747	1913.14
738.932	1866.04
739.118	2044.21
739.303	1956.15
739.489	1941.82
739.674	1970.49
739.859	1933.62
740.045	1872.18
740.23	1941.82
740.416	1896.76
740.601	1872.18
740.786	1769.79
740.972	1767.74
741.157	1902.9
741.342	1896.76
741.528	2019.64
741.713	1890.62
741.898	1884.47
742.084	1917.24
742.269	1853.75
742.454	1806.65
742.639	1945.91
742.824	1812.79
743.01	1888.57
743.195	1921.34
743.38	1691.96
743.565	1743.16
743.75	1900.86
743.935	1872.18
744.12	1761.59
744.305	1804.6
744.49	1685.82
744.675	1800.51
744.86	1757.5
745.045	1745.21
745.23	1880.38
745.415	1730.87
745.6	1732.92
745.785	1648.96
745.97	1759.55
746.155	1753.4
746.34	1722.68
746.525	1579.33
746.71	1784.12
746.895	1669.44
747.079	1700.16
747.264	1628.48
747.449	1737.02
747.634	1681.72
747.819	1577.28
748.003	1612.09
748.188	1581.37
748.373	1626.43
748.557	1569.09
748.742	1608
748.927	1564.99
749.111	1622.33
749.296	1599.8
749.481	1601.85
749.665	1556.8
749.85	1472.83
750.034	1376.58
750.219	1567.04
750.404	1554.75
750.588	1409.34
750.773	1446.21
750.957	1470.78
751.141	1513.79
751.326	1417.54
751.51	1464.64
751.695	1395.01
751.879	1374.53
752.064	1474.88
752.248	1433.92
752.432	1409.34
752.617	1405.25
752.801	1448.26
752.985	1349.95
753.17	1380.67
753.354	1352
753.538	1366.34
753.722	1317.19
753.907	1403.2
754.091	1233.22
754.275	1259.84
754.459	1210.69
754.643	1231.17
754.828	1212.74
755.012	1347.9
755.196	1231.17
755.38	1319.23
755.564	1159.49
755.748	1255.75
755.932	1190.21
756.116	1200.45
756.3	1212.74
756.484	1139.01
756.668	1196.36
756.852	1173.83
757.036	1132.87
757.22	1155.4
757.404	1110.34
757.588	1108.29
757.772	1134.92
757.956	1110.34
758.14	1130.82
758.323	1091.91
758.507	1167.68
758.691	1030.47
758.875	1108.29
759.059	1136.96
759.242	1151.3
759.426	1042.76
759.61	1040.71
759.794	1073.48
759.977	1120.58
760.161	1001.8
760.345	1018.18
760.528	1098.05
760.712	1036.61
760.895	1005.89
761.079	985.41
761.263	942.41
761.446	1018.18
761.63	1036.61
761.813	1030.47
761.997	1063.24
762.18	971.08
762.364	1024.33
762.547	1003.85
762.731	983.37
762.914	981.32
763.098	975.17
763.281	885.06
763.464	934.22
763.648	958.79
763.831	878.92
764.015	923.98
764.198	999.75
764.381	1044.81
764.564	897.35
764.748	868.68
764.931	911.69
765.114	911.69
765.297	977.22
765.481	913.74
765.664	901.45
765.847	889.16
766.03	919.88
766.213	852.3
766.397	897.35
766.58	913.74
766.763	874.82
766.946	821.58
767.129	934.22
767.312	835.91
767.495	870.73
767.678	825.67
767.861	784.71
768.044	860.49
768.227	883.02
768.41	907.59
768.593	909.64
768.776	737.61
768.959	792.91
769.142	854.34
769.324	792.91
769.507	782.67
769.69	715.08
769.873	827.72
770.056	844.1
770.239	717.13
770.421	850.25
770.604	762.19
770.787	770.38
770.97	846.15
771.152	702.79
771.335	770.38
771.518	766.28
771.7	776.52
771.883	772.43
772.066	692.55
772.248	811.34
772.431	844.1
772.613	792.91
772.796	704.84
772.978	651.6
773.161	735.56
773.343	700.75
773.526	686.41
773.708	702.79
773.891	741.71
774.073	651.6
774.256	665.93
774.438	667.98
774.621	739.66
774.803	737.61
774.985	702.79
775.168	674.12
775.35	633.16
775.532	665.93
775.715	606.54
775.897	645.45
776.079	633.16
776.261	667.98
776.444	643.4
776.626	606.54
776.808	663.88
776.99	645.45
777.173	596.3
777.355	633.16
777.537	563.53
777.719	565.58
777.901	588.11
778.083	598.35
778.265	588.11
778.447	596.3
778.629	581.96
778.811	604.49
778.993	590.16
779.175	637.26
779.357	536.91
779.539	520.53
779.721	516.43
779.903	495.95
780.085	555.34
780.267	571.72
780.449	627.02
780.631	565.58
780.812	551.24
780.994	446.8
781.176	508.24
781.358	520.53
781.54	532.81
781.721	514.38
781.903	500.05
782.085	553.29
782.267	414.03
782.448	479.57
782.63	475.47
782.812	405.84
782.993	469.33
783.175	551.24
783.357	424.27
783.538	469.33
783.72	487.76
783.901	340.3
784.083	389.46
784.264	430.41
784.446	424.27
784.627	434.51
784.809	350.54
784.99	485.71
785.172	465.23
785.353	366.93
785.535	325.97
785.716	397.65
785.897	336.21
786.079	368.98
786.26	362.83
786.441	434.51
786.623	299.34
786.804	407.89
786.985	358.74
787.167	395.6
787.348	291.15
787.529	407.89
787.71	334.16
787.891	328.02
788.073	385.36
788.254	344.4
788.435	395.6
788.616	264.53
788.797	239.95
788.978	344.4
789.159	287.06
789.34	330.06
789.522	399.7
789.703	315.73
789.884	346.45
790.065	389.46
790.246	358.74
790.427	342.35
790.607	352.59
790.788	422.22
790.969	213.33
791.15	293.2
791.331	276.82
791.512	313.68
791.693	223.57
791.874	233.81
792.054	252.24
792.235	231.76
792.416	305.49
792.597	301.39
792.778	282.96
792.958	323.92
793.139	368.98
793.32	323.92
793.5	280.91
793.681	239.95
793.862	315.73
794.042	330.06
794.223	307.54
794.404	223.57
794.584	201.04
794.765	328.02
794.945	301.39
795.126	297.3
795.306	280.91
795.487	213.33
795.667	278.87
795.848	375.12
796.028	239.95
796.209	276.82
796.389	252.24
796.57	328.02
796.75	172.37
796.93	184.66
797.111	278.87
797.291	229.71
797.471	266.58
797.652	244.05
797.832	198.99
798.012	184.66
798.192	250.19
798.373	207.19
798.553	149.84
798.733	237.91
798.913	180.56
799.093	182.61
799.274	205.14
799.454	260.43
799.634	188.75
799.814	223.57
799.994	211.28
800.174	209.23
800.354	201.04
800.534	178.51
800.714	203.09
800.894	205.14
801.074	221.52
801.254	295.25
801.434	237.91
801.614	211.28
801.794	143.7
801.974	549.2
802.154	190.8
802.334	192.85
802.514	143.7
802.693	205.14
802.873	112.98
803.053	209.23
803.233	162.13
803.413	209.23
803.592	164.18
803.772	131.41
803.952	209.23
804.131	186.71
804.311	186.71
804.491	219.47
804.67	147.8
804.85	180.56
805.03	270.67
805.209	217.43
805.389	272.72
805.568	155.99
805.748	164.18
805.928	207.19
806.107	147.8
806.287	235.86
806.466	194.9
806.646	188.75
806.825	229.71
807.004	143.7
807.184	188.75
807.363	192.85
807.543	233.81
807.722	141.65
807.901	184.66
808.081	266.58
808.26	145.75
808.439	170.32
808.619	166.23
808.798	100.69
808.977	162.13
809.156	123.22
809.336	164.18
809.515	174.42
809.694	94.55
809.873	117.08
810.052	131.41
810.231	192.85
810.411	141.65
810.59	69.97
810.769	129.36
810.948	121.17
811.127	133.46
811.306	151.89
811.485	178.51
811.664	125.27
811.843	112.98
812.022	94.55
812.201	176.47
812.38	229.71
812.559	98.64
812.737	147.8
812.916	26.96
813.095	80.21
813.274	160.08
813.453	133.46
813.632	94.55
813.811	176.47
813.989	117.08
814.168	203.09
814.347	57.68
814.526	158.03
814.704	90.45
814.883	213.33
815.062	164.18
815.24	108.88
815.419	121.17
815.598	65.88
815.776	88.4
815.955	131.41
816.133	125.27
816.312	90.45
816.49	102.74
816.669	155.99
816.847	115.03
817.026	108.88
817.204	141.65
817.383	117.08
817.561	59.73
817.74	121.17
817.918	96.6
818.097	69.97
818.275	168.27
818.453	198.99
818.632	69.97
818.81	49.49
818.988	72.02
819.167	133.46
819.345	155.99
819.523	35.16
819.701	123.22
819.879	102.74
820.058	164.18
820.236	129.36
820.414	104.79
820.592	-3.75
820.77	100.69
820.948	129.36
821.127	45.4
821.305	110.93
821.483	86.36
821.661	57.68
821.839	127.32
822.017	74.07
822.195	72.02
822.373	86.36
822.551	102.74
822.729	121.17
822.907	55.64
823.085	84.31
823.262	135.51
823.44	90.45
823.618	90.45
823.796	106.84
823.974	57.68
824.152	26.96
824.329	47.44
824.507	61.78
824.685	139.6
824.863	90.45
825.04	88.4
825.218	108.88
825.396	90.45
825.574	84.31
825.751	149.84
825.929	106.84
826.107	-36.52
826.284	188.75
826.462	12.63
826.639	41.3
826.817	43.35
826.994	180.56
827.172	39.25
827.349	96.6
827.527	72.02
827.704	108.88
827.882	117.08
828.059	-24.23
828.237	61.78
828.414	90.45
828.591	8.53
828.769	18.77
828.946	53.59
829.124	106.84
829.301	61.78
829.478	117.08
829.655	82.26
829.833	108.88
830.01	104.79
830.187	55.64
830.364	63.83
830.542	117.08
830.719	94.55
830.896	119.12
831.073	61.78
831.25	26.96
831.427	26.96
831.604	47.44
831.782	63.83
831.959	29.01
832.136	84.31
832.313	88.4
832.49	-7.85
832.667	63.83
832.844	65.88
833.021	127.32
833.198	65.88
833.374	-32.43
833.551	20.82
833.728	43.35
833.905	76.12
834.082	47.44
834.259	-3.75
834.436	63.83
834.612	8.53
834.789	53.59
834.966	0.34
835.143	39.25
835.319	47.44
835.496	92.5
835.673	59.73
835.85	57.68
836.026	31.06
836.203	112.98
836.38	53.59
836.556	63.83
836.733	18.77
836.909	162.13
837.086	69.97
837.262	2.39
837.439	16.73
837.616	26.96
837.792	72.02
837.968	16.73
838.145	108.88
838.321	53.59
838.498	35.16
838.674	74.07
838.851	76.12
839.027	92.5
839.203	37.2
839.38	78.16
839.556	80.21
839.732	41.3
839.909	10.58
840.085	106.84
840.261	20.82
840.437	37.2
840.614	14.68
840.79	24.92
840.966	10.58
841.142	29.01
841.318	88.4
841.494	55.64
841.671	98.64
841.847	8.53
842.023	78.16
842.199	115.03
842.375	47.44
842.551	74.07
842.727	24.92
842.903	102.74
843.079	-11.95
843.255	33.11
843.431	100.69
843.607	82.26
843.783	6.49
843.959	59.73
844.134	-11.95
844.31	43.35
844.486	63.83
844.662	74.07
844.838	86.36
845.013	90.45
845.189	43.35
845.365	10.58
845.541	104.79
845.716	69.97
845.892	61.78
846.068	39.25
846.244	12.63
846.419	31.06
846.595	43.35
846.77	-3.75
846.946	47.44
847.122	0.34
847.297	-42.67
847.473	24.92
847.648	-52.91
847.824	-38.57
847.999	12.63
848.175	-69.29
848.35	80.21
848.526	51.54
848.701	53.59
848.876	45.4
849.052	69.97
849.227	33.11
849.403	-18.09
849.578	41.3
849.753	12.63
849.929	10.58
850.104	-24.23
850.279	-20.14
850.454	12.63
850.63	29.01
850.805	-9.9
850.98	35.16
851.155	74.07
851.33	8.53
851.505	-38.57
851.681	-11.95
851.856	26.96
852.031	67.92
852.206	65.88
852.381	86.36
852.556	-40.62
852.731	100.69
852.906	53.59
853.081	47.44
853.256	41.3
853.431	37.2
853.606	37.2
853.781	14.68
853.956	-13.99
854.131	72.02
854.305	47.44
854.48	31.06
854.655	-40.62
854.83	-73.39
855.005	18.77
855.18	69.97
855.354	26.96
855.529	29.01
855.704	0.34
855.879	63.83
856.053	6.49
856.228	31.06
856.403	78.16
856.577	53.59
856.752	18.77
856.926	-3.75
857.101	-81.58
857.276	18.77
857.45	0.34
857.625	78.16
857.799	22.87
857.974	45.4
858.148	-9.9
858.323	69.97
858.497	88.4
858.672	-11.95
858.846	6.49
859.02	43.35
859.195	-52.91
859.369	74.07
859.543	69.97
859.718	10.58
859.892	10.58
860.066	0.34
860.241	-52.91
860.415	14.68
860.589	33.11
860.763	-16.04
860.938	61.78
861.112	78.16
861.286	-20.14
861.46	49.49
861.634	-36.52
861.808	76.12
861.982	80.21
862.157	-9.9
862.331	33.11
862.505	88.4
862.679	12.63
862.853	2.39
863.027	-32.43
863.201	57.68
863.375	43.35
863.549	-13.99
863.722	-11.95
863.896	123.22
864.07	-18.09
864.244	33.11
864.418	10.58
864.592	49.49
864.766	6.49
864.939	-9.9
865.113	-40.62
865.287	35.16
865.461	-11.95
865.634	20.82
865.808	16.73
865.982	-42.67
866.156	12.63
866.329	-30.38
866.503	31.06
866.676	16.73
866.85	-16.04
867.024	2.39
867.197	92.5
867.371	-34.47
867.544	12.63
867.718	0.34
867.891	57.68
868.065	20.82
868.238	-102.06
868.412	8.53
868.585	-24.23
868.759	14.68
868.932	-24.23
869.105	-24.23
869.279	-26.28
869.452	63.83
869.625	37.2
869.799	39.25
869.972	12.63
870.145	-24.23
870.319	12.63
870.492	12.63
870.665	16.73
870.838	-61.1
871.011	8.53
871.185	41.3
871.358	33.11
871.531	119.12
871.704	57.68
871.877	-13.99
872.05	-24.23
872.223	-7.85
872.396	47.44
872.569	45.4
872.742	35.16
872.915	57.68
873.088	-61.1
873.261	-57
873.434	33.11
873.607	-16.04
873.78	39.25
873.953	-69.29
874.126	-32.43
874.299	69.97
874.471	-7.85
874.644	57.68
874.817	67.92
874.99	8.53
875.163	18.77
875.335	35.16
875.508	33.11
875.681	4.44
875.853	-16.04
876.026	14.68
876.199	-36.52
876.371	41.3
876.544	0.34
876.717	-28.33
876.889	41.3
877.062	76.12
877.234	-7.85
877.407	-28.33
877.579	-3.75
877.752	-16.04
877.924	24.92
878.097	51.54
878.269	61.78
878.442	45.4
878.614	-59.05
878.786	24.92
878.959	-24.23
879.131	53.59
879.303	-48.81
879.476	-24.23
879.648	33.11
879.82	-5.8
879.993	-32.43
880.165	0.34
880.337	-26.28
880.509	-48.81
880.681	-32.43
880.854	-65.19
881.026	29.01
881.198	24.92
881.37	-1.71
881.542	-61.1
881.714	-63.15
881.886	-20.14
882.058	26.96
882.23	53.59
882.402	12.63
882.574	20.82
882.746	-61.1
882.918	45.4
883.09	8.53
883.262	0.34
883.434	24.92
883.606	-1.71
883.778	-38.57
883.95	33.11
884.122	39.25
884.293	-11.95
884.465	16.73
884.637	47.44
884.809	-77.48
884.98	-3.75
885.152	22.87
885.324	37.2
885.496	98.64
885.667	-71.34
885.839	-89.77
886.011	59.73
886.182	-18.09
886.354	-44.71
886.525	8.53
886.697	80.21
886.869	0.34
887.04	31.06
887.212	-9.9
887.383	0.34
887.555	16.73
887.726	0.34
887.897	22.87
888.069	-32.43
888.24	-20.14
888.412	92.5
888.583	16.73
888.754	39.25
888.926	-20.14
889.097	-7.85
889.268	-13.99
889.44	-83.63
889.611	-22.19
889.782	-11.95
889.953	-30.38
890.125	65.88
890.296	-44.71
890.467	-7.85
890.638	-44.71
890.809	-24.23
890.98	12.63
891.151	-48.81
891.323	16.73
891.494	-9.9
891.665	20.82
891.836	-44.71
892.007	31.06
892.178	69.97
892.349	49.49
892.52	-46.76
892.691	-48.81
892.862	4.44
893.032	41.3
893.203	-46.76
893.374	18.77
893.545	-40.62
893.716	-5.8
893.887	0.34
894.057	31.06
894.228	-7.85
894.399	35.16
894.57	2.39
894.74	-7.85
894.911	12.63
895.082	98.64
895.253	4.44
895.423	12.63
895.594	57.68
895.764	-11.95
895.935	2.39
896.106	-24.23
896.276	-32.43
896.447	-36.52
896.617	-40.62
896.788	12.63
896.958	45.4
897.129	-5.8
897.299	-5.8
897.47	10.58
897.64	6.49
897.81	-3.75
897.981	45.4
898.151	-44.71
898.322	-9.9
898.492	10.58
898.662	14.68
898.832	57.68
899.003	-30.38
899.173	8.53
899.343	53.59
899.513	14.68
