Data from USB4F104151__35__11-05-16-531.txt Node

Date: Wed Mar 12 11:05:16 EDT 2025
User: louis
Spectrometer: USB4F10415
Trigger mode: 4
Integration Time (sec): 2.000000E-2
Scans to average: 1
Electric dark correction enabled: true
Nonlinearity correction enabled: false
Boxcar width: 0
XAxis mode: Wavelengths
Number of Pixels in Spectrum: 3648
>>>>>Begin Spectral Data<<<<<
178.204	3.24
178.424	3.24
178.644	3.24
178.864	-107.35
179.084	-2.9
179.304	5.29
179.524	9.39
179.744	-17.24
179.964	68.78
180.184	-58.2
180.404	-54.1
180.624	3.24
180.844	-25.43
181.064	-54.1
181.283	66.73
181.503	25.77
181.723	29.87
181.943	52.39
182.163	29.87
182.383	17.58
182.602	70.83
182.822	33.96
183.042	-33.62
183.262	66.73
183.482	19.63
183.701	-11.09
183.921	-15.19
184.141	13.48
184.361	-2.9
184.58	87.21
184.8	124.07
185.02	-50
185.239	70.83
185.459	3.24
185.679	9.39
185.898	-7
186.118	-0.85
186.338	60.59
186.557	-2.9
186.777	-23.38
186.997	19.63
187.216	-35.67
187.436	-17.24
187.655	-0.85
187.875	44.2
188.095	-11.09
188.314	44.2
188.534	7.34
188.753	-33.62
188.973	46.25
189.192	66.73
189.412	19.63
189.631	103.59
189.851	46.25
190.07	85.16
190.29	-39.76
190.509	40.11
190.729	19.63
190.948	113.83
191.168	167.08
191.387	56.49
191.607	11.43
191.826	40.11
192.045	29.87
192.265	74.92
192.484	68.78
192.704	-11.09
192.923	-31.57
193.142	81.07
193.362	81.07
193.581	48.3
193.8	44.2
194.02	72.87
194.239	-0.85
194.458	117.93
194.678	13.48
194.897	81.07
195.116	3.24
195.335	31.91
195.555	-2.9
195.774	103.59
195.993	60.59
196.212	50.35
196.432	21.67
196.651	33.96
196.87	36.01
197.089	103.59
197.308	7.34
197.528	64.68
197.747	-50
197.966	-41.81
198.185	-2.9
198.404	79.02
198.623	21.67
198.842	23.72
199.062	-56.15
199.281	42.15
199.5	72.87
199.719	38.06
199.938	25.77
200.157	56.49
200.376	15.53
200.595	89.26
200.814	56.49
201.033	-25.43
201.252	15.53
201.471	9.39
201.69	-19.29
201.909	40.11
202.128	13.48
202.347	27.82
202.566	15.53
202.785	27.82
203.004	-60.24
203.223	128.17
203.442	17.58
203.661	85.16
203.879	-0.85
204.098	58.54
204.317	-7
204.536	-13.14
204.755	5.29
204.974	62.63
205.193	62.63
205.411	60.59
205.63	70.83
205.849	7.34
206.068	52.39
206.287	70.83
206.505	68.78
206.724	-2.9
206.943	-4.95
207.162	42.15
207.381	29.87
207.599	23.72
207.818	-23.38
208.037	-0.85
208.255	5.29
208.474	89.26
208.693	56.49
208.911	52.39
209.13	62.63
209.349	40.11
209.567	-2.9
209.786	44.2
210.005	-9.05
210.223	1.19
210.442	-50
210.661	52.39
210.879	27.82
211.098	31.91
211.316	50.35
211.535	42.15
211.753	-50
211.972	48.3
212.191	62.63
212.409	60.59
212.628	-13.14
212.846	101.55
213.065	7.34
213.283	56.49
213.502	17.58
213.72	-27.48
213.938	33.96
214.157	42.15
214.375	44.2
214.594	31.91
214.812	117.93
215.031	64.68
215.249	-45.91
215.467	97.45
215.686	13.48
215.904	103.59
216.122	54.44
216.341	54.44
216.559	-0.85
216.778	64.68
216.996	-21.33
217.214	38.06
217.432	38.06
217.651	50.35
217.869	-25.43
218.087	-21.33
218.306	5.29
218.524	23.72
218.742	11.43
218.96	25.77
219.179	-7
219.397	25.77
219.615	13.48
219.833	130.22
220.051	44.2
220.27	113.83
220.488	126.12
220.706	-70.48
220.924	64.68
221.142	7.34
221.36	36.01
221.578	62.63
221.796	46.25
222.015	9.39
222.233	38.06
222.451	-43.86
222.669	74.92
222.887	42.15
223.105	62.63
223.323	-11.09
223.541	66.73
223.759	-7
223.977	25.77
224.195	107.69
224.413	15.53
224.631	58.54
224.849	-4.95
225.067	83.11
225.285	-17.24
225.503	15.53
225.721	-23.38
225.939	40.11
226.157	46.25
226.375	52.39
226.592	48.3
226.81	89.26
227.028	15.53
227.246	-0.85
227.464	19.63
227.682	23.72
227.9	1.19
228.117	29.87
228.335	15.53
228.553	21.67
228.771	13.48
228.989	25.77
229.206	68.78
229.424	-56.15
229.642	17.58
229.86	46.25
230.077	99.5
230.295	9.39
230.513	38.06
230.731	23.72
230.948	117.93
231.166	1.19
231.384	15.53
231.601	-43.86
231.819	60.59
232.037	29.87
232.254	68.78
232.472	54.44
232.689	58.54
232.907	27.82
233.125	13.48
233.342	38.06
233.56	-0.85
233.777	36.01
233.995	-15.19
234.213	17.58
234.43	21.67
234.648	66.73
234.865	-0.85
235.083	52.39
235.3	-50
235.518	70.83
235.735	72.87
235.953	31.91
236.17	103.59
236.388	25.77
236.605	7.34
236.822	87.21
237.04	-13.14
237.257	-64.34
237.475	-45.91
237.692	36.01
237.909	-9.05
238.127	19.63
238.344	11.43
238.562	23.72
238.779	33.96
238.996	3.24
239.214	46.25
239.431	81.07
239.648	7.34
239.865	27.82
240.083	15.53
240.3	44.2
240.517	11.43
240.735	29.87
240.952	-9.05
241.169	44.2
241.386	13.48
241.603	33.96
241.821	68.78
242.038	40.11
242.255	44.2
242.472	72.87
242.689	66.73
242.907	-15.19
243.124	-58.2
243.341	31.91
243.558	21.67
243.775	15.53
243.992	5.29
244.209	48.3
244.426	76.97
244.643	46.25
244.86	36.01
245.078	52.39
245.295	17.58
245.512	68.78
245.729	29.87
245.946	19.63
246.163	52.39
246.38	85.16
246.597	-9.05
246.814	60.59
247.031	68.78
247.248	-19.29
247.464	15.53
247.681	29.87
247.898	66.73
248.115	25.77
248.332	21.67
248.549	-11.09
248.766	60.59
248.983	103.59
249.2	52.39
249.417	81.07
249.633	23.72
249.85	64.68
250.067	1.19
250.284	68.78
250.501	38.06
250.717	9.39
250.934	58.54
251.151	-21.33
251.368	-11.09
251.585	38.06
251.801	-15.19
252.018	9.39
252.235	27.82
252.451	19.63
252.668	15.53
252.885	38.06
253.102	21.67
253.318	-21.33
253.535	48.3
253.752	-17.24
253.968	40.11
254.185	9.39
254.401	-2.9
254.618	111.78
254.835	-25.43
255.051	54.44
255.268	66.73
255.484	66.73
255.701	52.39
255.917	109.74
256.134	5.29
256.351	29.87
256.567	31.91
256.784	60.59
257	-17.24
257.217	89.26
257.433	76.97
257.65	-13.14
257.866	60.59
258.082	36.01
258.299	-0.85
258.515	115.88
258.732	36.01
258.948	15.53
259.165	52.39
259.381	11.43
259.597	74.92
259.814	38.06
260.03	3.24
260.246	40.11
260.463	23.72
260.679	74.92
260.895	70.83
261.112	79.02
261.328	-0.85
261.544	-15.19
261.761	38.06
261.977	48.3
262.193	13.48
262.409	68.78
262.626	107.69
262.842	40.11
263.058	33.96
263.274	142.5
263.49	21.67
263.707	17.58
263.923	31.91
264.139	38.06
264.355	9.39
264.571	50.35
264.787	68.78
265.004	56.49
265.22	62.63
265.436	3.24
265.652	40.11
265.868	29.87
266.084	60.59
266.3	29.87
266.516	36.01
266.732	72.87
266.948	85.16
267.164	99.5
267.38	5.29
267.596	56.49
267.812	52.39
268.028	31.91
268.244	66.73
268.46	85.16
268.676	38.06
268.892	-11.09
269.108	-4.95
269.324	107.69
269.54	-9.05
269.756	46.25
269.972	19.63
270.188	-19.29
270.403	62.63
270.619	60.59
270.835	105.64
271.051	81.07
271.267	19.63
271.483	76.97
271.698	-7
271.914	5.29
272.13	40.11
272.346	42.15
272.562	52.39
272.777	60.59
272.993	66.73
273.209	54.44
273.425	44.2
273.64	50.35
273.856	76.97
274.072	17.58
274.287	-2.9
274.503	23.72
274.719	19.63
274.934	81.07
275.15	19.63
275.366	117.93
275.581	42.15
275.797	23.72
276.012	-0.85
276.228	15.53
276.444	-0.85
276.659	44.2
276.875	11.43
277.09	79.02
277.306	66.73
277.521	-86.87
277.737	97.45
277.952	31.91
278.168	38.06
278.383	126.12
278.599	-11.09
278.814	-11.09
279.03	-21.33
279.245	-9.05
279.461	66.73
279.676	62.63
279.892	5.29
280.107	-9.05
280.322	13.48
280.538	33.96
280.753	29.87
280.969	46.25
281.184	-7
281.399	-0.85
281.615	60.59
281.83	66.73
282.045	23.72
282.26	11.43
282.476	27.82
282.691	70.83
282.906	-23.38
283.122	44.2
283.337	-15.19
283.552	23.72
283.767	38.06
283.983	31.91
284.198	95.4
284.413	19.63
284.628	40.11
284.843	50.35
285.058	11.43
285.274	-27.48
285.489	-21.33
285.704	62.63
285.919	-11.09
286.134	-11.09
286.349	105.64
286.564	105.64
286.779	7.34
286.995	33.96
287.21	-17.24
287.425	13.48
287.64	60.59
287.855	62.63
288.07	13.48
288.285	72.87
288.5	15.53
288.715	-0.85
288.93	-15.19
289.145	36.01
289.36	-19.29
289.575	89.26
289.79	19.63
290.004	56.49
290.219	105.64
290.434	-27.48
290.649	29.87
290.864	44.2
291.079	25.77
291.294	44.2
291.509	40.11
291.724	52.39
291.938	15.53
292.153	44.2
292.368	42.15
292.583	27.82
292.798	52.39
293.012	-9.05
293.227	-0.85
293.442	-17.24
293.657	150.7
293.871	89.26
294.086	-0.85
294.301	115.88
294.516	-0.85
294.73	38.06
294.945	15.53
295.16	19.63
295.374	19.63
295.589	64.68
295.804	50.35
296.018	1.19
296.233	27.82
296.447	9.39
296.662	15.53
296.877	56.49
297.091	21.67
297.306	74.92
297.52	23.72
297.735	-7
297.949	1.19
298.164	74.92
298.378	36.01
298.593	-15.19
298.807	-47.96
299.022	33.96
299.236	83.11
299.451	79.02
299.665	-9.05
299.88	21.67
300.094	9.39
300.309	72.87
300.523	19.63
300.737	64.68
300.952	-23.38
301.166	66.73
301.381	-23.38
301.595	74.92
301.809	52.39
302.024	46.25
302.238	44.2
302.452	117.93
302.667	40.11
302.881	66.73
303.095	42.15
303.309	64.68
303.524	58.54
303.738	-0.85
303.952	19.63
304.166	99.5
304.381	-11.09
304.595	48.3
304.809	79.02
305.023	64.68
305.237	-17.24
305.452	70.83
305.666	31.91
305.88	40.11
306.094	27.82
306.308	76.97
306.522	56.49
306.736	-0.85
306.95	111.78
307.164	25.77
307.379	-9.05
307.593	56.49
307.807	48.3
308.021	70.83
308.235	21.67
308.449	-66.39
308.663	15.53
308.877	7.34
309.091	38.06
309.305	-7
309.519	13.48
309.733	33.96
309.947	72.87
310.161	13.48
310.374	27.82
310.588	119.98
310.802	-41.81
311.016	36.01
311.23	85.16
311.444	87.21
311.658	31.91
311.872	62.63
312.085	-25.43
312.299	56.49
312.513	-27.48
312.727	15.53
312.941	-4.95
313.154	72.87
313.368	-2.9
313.582	27.82
313.796	-11.09
314.009	31.91
314.223	72.87
314.437	44.2
314.651	44.2
314.864	46.25
315.078	1.19
315.292	-47.96
315.505	-15.19
315.719	-2.9
315.933	126.12
316.146	76.97
316.36	13.48
316.573	48.3
316.787	17.58
317.001	97.45
317.214	-23.38
317.428	29.87
317.641	13.48
317.855	31.91
318.068	46.25
318.282	-9.05
318.495	122.02
318.709	91.31
318.922	-78.68
319.136	-13.14
319.349	44.2
319.563	50.35
319.776	36.01
319.99	99.5
320.203	97.45
320.417	74.92
320.63	60.59
320.843	70.83
321.057	5.29
321.27	38.06
321.483	17.58
321.697	72.87
321.91	52.39
322.124	33.96
322.337	-17.24
322.55	-9.05
322.763	33.96
322.977	21.67
323.19	38.06
323.403	23.72
323.617	56.49
323.83	76.97
324.043	27.82
324.256	74.92
324.469	27.82
324.683	50.35
324.896	-13.14
325.109	31.91
325.322	15.53
325.535	89.26
325.748	76.97
325.962	66.73
326.175	52.39
326.388	128.17
326.601	62.63
326.814	99.5
327.027	79.02
327.24	93.35
327.453	-29.52
327.666	42.15
327.879	52.39
328.092	31.91
328.305	13.48
328.518	5.29
328.731	27.82
328.944	-47.96
329.157	-23.38
329.37	40.11
329.583	42.15
329.796	87.21
330.009	-17.24
330.222	62.63
330.435	17.58
330.648	64.68
330.861	-33.62
331.073	11.43
331.286	33.96
331.499	31.91
331.712	-19.29
331.925	15.53
332.138	62.63
332.35	13.48
332.563	25.77
332.776	3.24
332.989	40.11
333.202	38.06
333.414	-9.05
333.627	40.11
333.84	52.39
334.053	7.34
334.265	23.72
334.478	72.87
334.691	68.78
334.903	68.78
335.116	-9.05
335.329	27.82
335.541	13.48
335.754	83.11
335.966	-27.48
336.179	27.82
336.392	7.34
336.604	17.58
336.817	46.25
337.029	74.92
337.242	11.43
337.454	25.77
337.667	25.77
337.88	58.54
338.092	29.87
338.305	52.39
338.517	64.68
338.729	27.82
338.942	40.11
339.154	36.01
339.367	5.29
339.579	46.25
339.792	-19.29
340.004	85.16
340.217	33.96
340.429	60.59
340.641	-4.95
340.854	-17.24
341.066	23.72
341.278	13.48
341.491	101.55
341.703	-9.05
341.915	-23.38
342.128	9.39
342.34	3.24
342.552	-4.95
342.764	27.82
342.977	40.11
343.189	27.82
343.401	91.31
343.613	13.48
343.826	56.49
344.038	3.24
344.25	11.43
344.462	36.01
344.674	33.96
344.886	111.78
345.099	-0.85
345.311	21.67
345.523	11.43
345.735	31.91
345.947	60.59
346.159	93.35
346.371	42.15
346.583	-13.14
346.795	81.07
347.007	50.35
347.219	29.87
347.431	60.59
347.643	115.88
347.855	33.96
348.067	109.74
348.279	23.72
348.491	56.49
348.703	89.26
348.915	23.72
349.127	-37.72
349.339	101.55
349.551	5.29
349.763	-13.14
349.975	-29.52
350.187	9.39
350.399	13.48
350.61	81.07
350.822	-25.43
351.034	-4.95
351.246	-0.85
351.458	9.39
351.669	-11.09
351.881	64.68
352.093	74.92
352.305	-7
352.517	40.11
352.728	50.35
352.94	21.67
353.152	107.69
353.363	81.07
353.575	1.19
353.787	52.39
353.999	103.59
354.21	-13.14
354.422	31.91
354.633	11.43
354.845	60.59
355.057	9.39
355.268	99.5
355.48	93.35
355.692	-13.14
355.903	-4.95
356.115	11.43
356.326	7.34
356.538	105.64
356.749	5.29
356.961	44.2
357.172	68.78
357.384	54.44
357.595	81.07
357.807	-21.33
358.018	70.83
358.23	9.39
358.441	113.83
358.653	76.97
358.864	42.15
359.075	-2.9
359.287	-33.62
359.498	85.16
359.709	7.34
359.921	-13.14
360.132	19.63
360.344	33.96
360.555	58.54
360.766	42.15
360.977	105.64
361.189	58.54
361.4	74.92
361.611	15.53
361.823	33.96
362.034	60.59
362.245	-33.62
362.456	25.77
362.667	119.98
362.879	29.87
363.09	42.15
363.301	64.68
363.512	-11.09
363.723	-35.67
363.935	52.39
364.146	146.6
364.357	93.35
364.568	46.25
364.779	52.39
364.99	70.83
365.201	1.19
365.412	74.92
365.623	31.91
365.834	-2.9
366.045	17.58
366.256	58.54
366.467	60.59
366.678	36.01
366.889	-13.14
367.1	19.63
367.311	33.96
367.522	15.53
367.733	91.31
367.944	68.78
368.155	60.59
368.366	76.97
368.577	27.82
368.788	119.98
368.999	-45.91
369.209	33.96
369.42	87.21
369.631	136.36
369.842	21.67
370.053	21.67
370.264	95.4
370.474	105.64
370.685	38.06
370.896	-27.48
371.107	85.16
371.317	44.2
371.528	25.77
371.739	40.11
371.95	40.11
372.16	89.26
372.371	5.29
372.582	36.01
372.792	29.87
373.003	9.39
373.214	52.39
373.424	79.02
373.635	36.01
373.846	23.72
374.056	33.96
374.267	103.59
374.477	27.82
374.688	27.82
374.898	54.44
375.109	23.72
375.319	27.82
375.53	25.77
375.74	-2.9
375.951	-9.05
376.161	25.77
376.372	68.78
376.582	-66.39
376.793	-23.38
377.003	-11.09
377.214	107.69
377.424	58.54
377.635	13.48
377.845	-0.85
378.055	89.26
378.266	-43.86
378.476	66.73
378.686	31.91
378.897	124.07
379.107	-23.38
379.317	111.78
379.528	38.06
379.738	7.34
379.948	1.19
380.158	66.73
380.369	60.59
380.579	5.29
380.789	-35.67
380.999	44.2
381.21	46.25
381.42	58.54
381.63	40.11
381.84	60.59
382.05	60.59
382.261	31.91
382.471	79.02
382.681	38.06
382.891	-35.67
383.101	52.39
383.311	25.77
383.521	29.87
383.731	60.59
383.941	74.92
384.151	103.59
384.361	76.97
384.571	79.02
384.781	27.82
384.991	54.44
385.201	101.55
385.411	79.02
385.621	60.59
385.831	42.15
386.041	-4.95
386.251	31.91
386.461	-0.85
386.671	97.45
386.881	-7
387.091	46.25
387.301	76.97
387.511	56.49
387.72	60.59
387.93	27.82
388.14	52.39
388.35	62.63
388.56	-0.85
388.769	-15.19
388.979	-9.05
389.189	5.29
389.399	-7
389.609	40.11
389.818	48.3
390.028	64.68
390.238	62.63
390.447	81.07
390.657	72.87
390.867	-4.95
391.076	48.3
391.286	101.55
391.496	64.68
391.705	-0.85
391.915	56.49
392.125	27.82
392.334	-17.24
392.544	76.97
392.753	44.2
392.963	66.73
393.172	5.29
393.382	5.29
393.591	74.92
393.801	21.67
394.01	42.15
394.22	-13.14
394.429	130.22
394.639	7.34
394.848	85.16
395.058	27.82
395.267	40.11
395.477	11.43
395.686	109.74
395.895	70.83
396.105	154.79
396.314	64.68
396.524	62.63
396.733	-37.72
396.942	5.29
397.152	70.83
397.361	70.83
397.57	60.59
397.78	13.48
397.989	72.87
398.198	81.07
398.407	40.11
398.617	50.35
398.826	60.59
399.035	44.2
399.244	99.5
399.453	68.78
399.663	101.55
399.872	36.01
400.081	81.07
400.29	101.55
400.499	-21.33
400.708	97.45
400.917	5.29
401.127	11.43
401.336	40.11
401.545	169.13
401.754	115.88
401.963	101.55
402.172	91.31
402.381	74.92
402.59	111.78
402.799	36.01
403.008	142.5
403.217	64.68
403.426	95.4
403.635	23.72
403.844	79.02
404.053	58.54
404.262	33.96
404.471	83.11
404.68	99.5
404.888	91.31
405.097	52.39
405.306	46.25
405.515	128.17
405.724	187.56
405.933	83.11
406.142	70.83
406.35	128.17
406.559	111.78
406.768	70.83
406.977	130.22
407.185	103.59
407.394	181.42
407.603	105.64
407.812	183.46
408.02	212.14
408.229	79.02
408.438	140.46
408.646	72.87
408.855	111.78
409.064	156.84
409.272	83.11
409.481	165.03
409.69	191.66
409.898	142.5
410.107	183.46
410.315	130.22
410.524	154.79
410.733	175.27
410.941	259.24
411.15	210.09
411.358	224.42
411.567	189.61
411.775	251.05
411.984	205.99
412.192	302.25
412.401	216.23
412.609	308.39
412.818	277.67
413.026	380.07
413.234	232.62
413.443	271.53
413.651	236.71
413.86	339.11
414.068	353.45
414.276	324.77
414.485	349.35
414.693	404.64
414.901	349.35
415.11	373.92
415.318	443.56
415.526	453.8
415.734	502.95
415.943	464.04
416.151	529.57
416.359	535.71
416.567	554.15
416.776	603.3
416.984	613.54
417.192	601.25
417.4	613.54
417.608	576.67
417.817	656.54
418.025	597.15
418.233	691.36
418.441	638.11
418.649	742.56
418.857	769.18
419.065	787.61
419.273	849.05
419.481	973.98
419.689	838.81
419.897	920.73
420.105	990.36
420.313	1002.65
420.521	984.22
420.729	1010.84
420.937	1090.71
421.145	1105.05
421.353	1170.58
421.561	1207.45
421.769	1229.98
421.977	1307.8
422.185	1379.48
422.393	1381.53
422.601	1477.78
422.809	1420.44
423.017	1438.87
423.224	1664.15
423.432	1608.85
423.64	1600.66
423.848	1801.36
424.056	1748.11
424.263	1928.33
424.471	1795.22
424.679	1893.52
424.887	2045.07
425.094	2094.22
425.302	2180.23
425.51	2126.99
425.718	2331.78
425.925	2206.86
426.133	2292.87
426.341	2559.11
426.548	2589.83
426.756	2589.83
426.964	2608.26
427.171	2763.9
427.379	2802.82
427.586	2905.21
427.794	2952.32
428.001	3026.04
428.209	3234.94
428.417	3101.82
428.624	3433.59
428.832	3404.92
429.039	3429.49
429.247	3460.21
429.454	3773.55
429.662	4029.55
429.869	3710.07
430.076	4023.41
430.284	3910.77
430.491	4166.76
430.699	4277.35
430.906	4265.07
431.114	4392.04
431.321	4574.31
431.528	4662.37
431.736	4744.29
431.943	5141.6
432.15	5074.01
432.358	5164.12
432.565	5295.19
432.772	5207.13
432.979	5534.81
433.187	5819.47
433.394	5706.84
433.601	6147.15
433.808	6206.54
434.016	6202.44
434.223	6319.18
434.43	6771.78
434.637	6413.38
434.844	6896.71
435.052	7052.35
435.259	7158.85
435.466	7054.4
435.673	7167.04
435.88	7437.37
436.087	7918.64
436.294	7945.27
436.501	7633.97
436.708	8135.73
436.915	8188.97
437.122	8590.38
437.329	8307.76
437.537	8760.36
437.743	8909.86
437.95	8760.36
438.157	9413.66
438.364	9651.22
438.571	9546.78
438.778	9569.3
438.985	10552.33
439.192	10212.37
439.399	10476.55
439.606	10157.07
439.813	10767.37
440.02	11430.91
440.227	11250.69
440.433	11015.17
440.64	11392
440.847	11676.66
441.054	11928.56
441.261	12383.21
441.467	12131.31
441.674	12397.55
441.881	13120.48
442.088	12923.88
442.294	13034.47
442.501	13308.9
442.708	13442.01
442.914	14007.25
443.121	14777.29
443.328	14205.91
443.534	15260.61
443.741	14781.39
443.948	14728.14
444.154	15842.23
444.361	15483.84
444.568	15831.99
444.774	15541.18
444.981	15848.38
445.187	16268.21
445.394	17187.75
445.6	16464.82
445.807	18430.87
446.013	17560.48
446.22	17906.59
446.426	18764.68
446.633	18729.87
446.839	19491.71
447.046	18500.5
447.252	19520.38
447.459	19514.24
447.665	19530.62
447.871	20370.29
448.078	21212.01
448.284	20050.81
448.491	20659.06
448.697	21468
448.903	21967.71
449.11	21877.6
449.316	21599.07
449.522	21910.36
449.728	23028.56
449.935	23057.23
450.141	22723.41
450.347	23284.55
450.553	22461.27
450.76	22534.99
450.966	23563.08
451.172	23190.34
451.378	23911.23
451.584	23317.32
451.791	23749.44
451.997	23712.58
452.203	24267.58
452.409	24331.06
452.615	23794.5
452.821	22967.12
453.027	22717.26
453.233	24148.79
453.44	23038.8
453.646	22838.09
453.852	23171.91
454.058	23409.48
454.264	22686.54
454.47	23382.85
454.676	22721.36
454.882	23501.64
455.088	21631.84
455.294	21908.32
455.5	21963.61
455.705	21953.37
455.911	21332.84
456.117	20939.63
456.323	20691.82
456.529	19344.26
456.735	20231.03
456.941	19510.14
457.147	19307.4
457.352	18729.87
457.558	18443.15
457.764	18686.86
457.97	18271.12
458.176	17865.63
458.381	17785.76
458.587	16761.77
458.793	16905.13
458.999	16184.24
459.204	17345.44
459.41	16815.02
459.616	15864.76
459.821	15623.1
460.027	15485.89
460.233	15072.2
460.438	14377.94
460.644	14781.39
460.85	14070.74
461.055	13710.3
461.261	13638.62
461.466	12575.72
461.672	12184.56
461.878	13364.19
462.083	12424.17
462.289	12166.13
462.494	11944.95
462.7	11557.88
462.905	11183.1
463.111	11508.73
463.316	11473.92
463.522	11336.7
463.727	11273.21
463.932	11254.78
464.138	11228.16
464.343	11258.88
464.549	10925.06
464.754	11203.58
464.959	11246.59
465.165	11037.7
465.37	10800.13
465.575	10249.23
465.781	10728.45
465.986	10791.94
466.191	10419.21
466.397	10343.44
466.602	9747.48
466.807	9948.18
467.012	10202.13
467.218	10023.95
467.423	9987.09
467.628	9980.95
467.833	10316.81
468.038	10054.67
468.244	9683.99
468.449	10050.58
468.654	9821.2
468.859	9649.18
469.064	9704.47
469.269	9350.17
469.474	9348.12
469.679	9468.95
469.885	9210.91
470.09	9489.43
470.295	9153.57
470.5	9094.18
470.705	9081.89
470.91	9061.41
471.115	8776.74
471.32	9063.46
471.525	8879.14
471.73	8817.7
471.935	8809.51
472.139	8318
472.344	8420.39
472.549	8373.29
472.754	8418.35
472.959	8262.7
473.164	8033.33
473.369	8029.23
473.574	8062
473.778	7996.46
473.983	8164.4
474.188	8023.09
474.393	7730.23
474.598	7588.92
474.802	7656.5
475.007	7541.82
475.212	7406.65
475.417	7394.36
475.621	7201.85
475.826	7078.97
476.031	7197.76
476.235	7050.3
476.44	7072.83
476.645	6995.01
476.849	7056.45
477.054	7089.21
477.259	6808.64
477.463	6960.19
477.668	6591.56
477.872	6558.79
478.077	6741.06
478.282	6722.63
478.486	6294.6
478.691	6403.14
478.895	6245.45
479.1	6433.86
479.304	6351.95
479.509	6243.4
479.713	6294.6
479.918	6030.41
480.122	5899.34
480.326	6028.37
480.531	6181.96
480.735	6118.48
480.94	6149.2
481.144	6134.86
481.348	5837.91
481.553	5893.2
481.757	5893.2
481.961	6003.79
482.166	6024.27
482.37	6018.13
482.574	5792.85
482.778	5846.1
482.983	6071.37
483.187	5903.44
483.391	5837.91
483.595	5934.16
483.8	5833.81
484.004	5987.41
484.208	5938.26
484.412	5907.54
484.616	5803.09
484.821	5964.88
485.025	5782.61
485.229	5962.83
485.433	5745.75
485.637	6106.19
485.841	5874.77
486.045	5831.76
486.249	5848.15
486.453	5901.39
486.657	5864.53
486.861	5979.22
487.065	5837.91
487.269	5876.82
487.473	5743.7
487.677	5903.44
487.881	5997.65
488.085	5952.59
488.289	5778.51
488.493	5983.31
488.697	5954.64
488.901	5928.02
489.105	5971.02
489.309	5903.44
489.512	5805.14
489.716	5854.29
489.92	5948.5
490.124	5983.31
490.328	6132.81
490.531	6003.79
490.735	6081.61
490.939	6106.19
491.143	5872.72
491.346	5971.02
491.55	6200.4
491.754	6050.89
491.958	6179.92
492.161	5993.55
492.365	6257.74
492.569	6294.6
492.772	6077.52
492.976	6368.33
493.18	6407.24
493.383	6607.94
493.587	6495.3
493.79	6640.71
493.994	6360.14
494.197	6550.6
494.401	6677.57
494.605	6550.6
494.808	6671.43
495.012	6911.04
495.215	6814.79
495.419	6751.3
495.622	6878.27
495.825	6859.84
496.029	7097.41
496.232	7035.97
496.436	7093.31
496.639	7203.9
496.843	7054.4
497.046	7312.44
497.249	7355.45
497.453	7494.71
497.656	7580.73
497.859	7507
498.063	7676.98
498.266	7797.81
498.469	7615.54
498.673	7885.87
498.876	8109.1
499.079	8201.26
499.282	8123.44
499.485	8260.65
499.689	8361
499.892	8453.16
500.095	8363.05
500.298	8576.04
500.501	8508.46
500.705	8764.45
500.908	9006.11
501.111	8918.05
501.314	9002.02
501.517	9176.09
501.72	9184.29
501.923	9253.92
502.126	9520.15
502.329	9329.69
502.532	9634.84
502.735	9663.51
502.938	10021.91
503.141	9927.7
503.344	9987.09
503.547	10046.48
503.75	10234.89
503.953	10476.55
504.156	10398.73
504.359	10535.95
504.562	10566.67
504.765	11019.27
504.968	10918.92
505.17	10945.54
505.373	10957.83
505.576	11279.36
505.779	11432.96
505.982	11465.72
506.185	11865.08
506.387	11830.26
506.59	11899.89
506.793	12372.97
506.996	11985.91
507.198	12315.63
507.401	12401.65
507.604	12497.9
507.807	12874.73
508.009	12737.51
508.212	12907.49
508.415	13226.98
508.617	12942.31
508.82	13366.24
509.022	13284.32
509.225	13550.56
509.428	13661.15
509.63	14050.26
509.833	13898.71
510.035	14316.5
510.238	14095.32
510.44	14332.88
510.643	14654.41
510.845	14744.52
511.048	14527.44
511.25	15023.05
511.453	15057.86
511.655	15369.15
511.858	15526.85
512.06	15342.53
512.262	15754.17
512.465	15549.37
512.667	15954.87
512.87	16405.42
513.072	16053.17
513.274	16550.83
513.477	16669.61
513.679	16653.23
513.881	17169.32
514.084	16909.22
514.286	17400.74
514.488	17451.94
514.69	17816.47
514.893	17892.25
515.095	17949.59
515.297	18303.89
515.499	18146.2
515.701	18422.67
515.904	18563.98
516.106	18721.68
516.308	19241.86
516.51	19129.22
516.712	19426.18
516.914	19381.12
517.116	20085.62
517.318	19977.08
517.52	20202.36
517.722	20335.48
517.925	20454.26
518.127	20607.86
518.329	20730.73
518.531	20745.07
518.733	21285.73
518.935	21267.3
519.136	21422.95
519.338	21918.56
519.54	22168.41
519.742	22211.42
519.944	22244.18
520.146	22584.15
520.348	22430.55
520.55	22805.33
520.752	22944.59
520.954	23348.04
521.155	23126.86
521.357	23554.88
521.559	23894.85
521.761	24273.72
521.963	23851.84
522.164	24314.68
522.366	24472.37
522.568	24281.91
522.77	24783.66
522.971	25008.94
523.173	25070.38
523.375	25129.77
523.576	25084.72
523.778	25353
523.98	25609
524.181	25885.47
524.383	25711.39
524.584	26106.65
524.786	26051.36
524.988	26034.97
525.189	26661.65
525.391	26542.87
525.592	26673.94
525.794	27132.68
525.995	27173.64
526.197	26854.16
526.398	27400.97
526.6	27255.56
526.801	27476.74
527.003	27945.73
527.204	27650.82
527.406	27857.67
527.607	28146.43
527.808	28224.25
528.01	28119.81
528.211	28336.89
528.412	28685.04
528.614	28766.96
528.815	28594.93
529.016	28848.88
529.218	28488.44
529.419	28678.9
529.62	28760.82
529.822	29178.61
530.023	29084.4
530.224	29274.86
530.425	29328.11
530.626	28691.19
530.828	29004.53
531.029	29879.01
531.23	29217.52
531.431	29475.56
531.632	29661.93
531.833	29989.6
532.035	29516.52
532.236	29690.6
532.437	29639.4
532.638	29729.51
532.839	29788.9
533.04	30020.32
533.241	29680.36
533.442	30294.75
533.643	30081.76
533.844	29924.07
534.045	30257.88
534.246	30014.18
534.447	30335.71
534.648	30008.03
534.849	30225.12
535.05	30030.56
535.251	30204.64
535.451	29868.77
535.652	30233.31
535.853	30190.3
536.054	30278.36
536.255	30554.84
536.456	29844.2
536.657	30921.43
536.857	30249.69
537.058	29944.55
537.259	30499.55
537.46	30106.34
537.66	29973.22
537.861	30186.21
538.062	30323.42
538.263	30507.74
538.463	30419.67
538.664	30311.13
538.865	30253.79
539.065	30259.93
539.266	29956.83
539.466	30395.1
539.667	30071.52
539.868	30632.66
540.068	30175.97
540.269	30233.31
540.469	30560.98
540.67	30079.71
540.87	29993.7
541.071	30102.24
541.271	30409.43
541.472	29905.63
541.672	29713.13
541.873	29930.21
542.073	30214.88
542.274	30626.52
542.474	30264.03
542.675	29803.24
542.875	30530.26
543.075	30102.24
543.276	30014.18
543.476	30554.84
543.676	30040.8
543.877	30253.79
544.077	30098.14
544.277	30069.47
544.478	30292.7
544.678	30071.52
544.878	29991.65
545.078	30186.21
545.279	29672.17
545.479	30005.98
545.679	29915.87
545.879	30028.51
546.079	29944.55
546.28	30175.97
546.48	29735.65
546.68	30304.99
546.88	29942.5
547.08	29934.31
547.28	29752.04
547.48	30026.46
547.68	29809.38
547.88	29991.65
548.081	30251.74
548.281	29928.16
548.481	29852.39
548.681	30309.08
548.881	30008.03
549.081	29967.07
549.28	29584.1
549.48	30126.81
549.68	29881.06
549.88	30212.83
550.08	29690.6
550.28	30071.52
550.48	29575.91
550.68	30020.32
550.88	30069.47
551.08	29997.79
551.279	30059.23
551.479	29704.93
551.679	29657.83
551.879	29786.85
552.079	29975.27
552.278	29649.64
552.478	29819.62
552.678	29879.01
552.878	29971.17
553.077	29655.78
553.277	29135.6
553.477	30147.29
553.676	29895.39
553.876	29592.3
554.076	29463.27
554.275	29668.07
554.475	29192.94
554.674	29590.25
554.874	29446.89
555.074	29244.14
555.273	29446.89
555.473	29524.71
555.672	29219.56
555.872	29614.82
556.071	29424.36
556.271	29326.06
556.47	29197.04
556.67	29000.43
556.869	29231.85
557.068	29420.27
557.268	28959.47
557.467	29238
557.667	29053.68
557.866	29268.72
558.065	29039.34
558.265	29180.65
558.464	28570.36
558.663	28908.27
558.863	28488.44
559.062	29168.37
559.261	28355.32
559.461	28988.14
559.66	28271.36
559.859	28547.83
560.058	28338.94
560.258	28359.42
560.457	28228.35
560.656	28590.84
560.855	28359.42
561.054	28527.35
561.253	28156.67
561.453	28132.09
561.652	28267.26
561.851	28248.83
562.05	28220.16
562.249	27751.17
562.448	28373.75
562.647	27960.06
562.846	27626.25
563.045	28056.32
563.244	27216.65
563.443	27953.92
563.642	27140.88
563.841	27431.69
564.04	27450.12
564.239	27321.1
564.438	27181.84
564.637	27228.94
564.836	27423.5
565.035	26858.26
565.234	27065.1
565.432	27132.68
565.631	26899.22
565.83	27042.57
566.029	26616.6
566.228	26876.69
566.427	26743.57
566.625	26678.04
566.824	26231.58
567.023	26659.6
567.222	26166.04
567.42	26245.91
567.619	26176.28
567.818	26299.16
568.016	26137.37
568.215	26510.1
568.414	25930.53
568.612	26059.55
568.811	26100.51
569.01	25981.73
569.208	25789.22
569.407	25717.54
569.605	25506.6
569.804	25678.63
570.002	25387.82
570.201	25539.36
570.4	25244.46
570.598	25164.59
570.797	25125.68
570.995	25320.23
571.193	24671.03
571.392	25166.63
571.59	24752.94
571.789	24691.51
571.987	24636.21
572.186	24476.47
572.384	24464.18
572.582	24652.59
572.781	24730.42
572.979	23847.74
573.177	24312.63
573.376	24238.9
573.574	24214.33
573.772	24197.95
573.971	23876.41
574.169	23544.64
574.367	23419.72
574.565	23681.86
574.763	23724.86
574.962	23612.23
575.16	23200.58
575.358	23581.51
575.556	22997.84
575.754	23894.85
575.952	23452.48
576.151	23239.5
576.349	23122.76
576.547	22981.45
576.745	23280.46
576.943	23130.95
577.141	23102.28
577.339	22762.32
577.537	22715.22
577.735	22834
577.933	22403.92
578.131	22711.12
578.329	22532.95
578.527	22567.76
578.725	22367.06
578.923	22504.28
579.121	22344.53
579.319	22106.97
579.516	22078.3
579.714	22113.11
579.912	21801.82
580.11	21615.46
580.308	22049.63
580.506	21717.86
580.704	21599.07
580.901	21513.06
581.099	21726.05
581.297	21572.45
581.495	21132.14
581.692	21672.8
581.89	21115.75
582.088	21654.37
582.285	21314.41
582.483	21240.68
582.681	21009.26
582.878	20814.7
583.076	20845.42
583.274	21277.54
583.471	20960.11
583.669	20949.87
583.866	20857.71
584.064	20614
584.262	20372.34
584.459	20804.46
584.657	20435.83
584.854	21042.03
585.052	20091.77
585.249	20685.68
585.447	20448.11
585.644	20267.89
585.841	20425.59
586.039	20145.02
586.236	20020.09
586.434	20067.19
586.631	19921.79
586.828	20022.14
587.026	19950.46
587.223	19819.39
587.42	19657.6
587.618	19692.41
587.815	19506.05
588.012	19553.15
588.21	19481.47
588.407	19557.25
588.604	19147.65
588.801	19413.89
588.999	19037.06
589.196	19469.19
589.393	19102.6
589.59	19235.72
589.787	18805.64
589.984	18949
590.182	18719.63
590.379	18793.36
590.576	18762.64
590.773	18770.83
590.97	18441.11
591.167	18572.18
591.364	18615.18
591.561	18842.51
591.758	18488.21
591.955	18477.97
592.152	18531.22
592.349	18310.04
592.546	18449.3
592.743	18185.11
592.94	18031.51
593.137	18324.37
593.334	18158.49
593.531	17900.44
593.727	17978.26
593.924	17847.19
594.121	17916.83
594.318	17851.29
594.515	17765.28
594.712	17578.91
594.908	17646.49
595.105	17918.87
595.302	17494.94
595.499	17351.59
595.696	17365.92
595.892	17146.79
596.089	17529.76
596.286	17331.11
596.482	17195.94
596.679	17167.27
596.876	17384.35
597.072	17157.03
597.269	16747.44
597.466	16716.72
597.662	16866.22
597.859	16894.89
598.055	17023.91
598.252	16735.15
598.448	16767.91
598.645	16757.67
598.841	16599.98
599.038	16647.08
599.234	16722.86
599.431	16321.46
599.627	16200.63
599.824	16237.49
600.02	16143.28
600.217	16186.29
600.413	16174
600.609	16356.27
600.806	16163.76
601.002	16055.22
601.198	15932.34
601.395	15930.3
601.591	15834.04
601.787	15913.91
601.984	15629.24
602.18	16137.14
602.376	15596.48
602.572	15815.61
602.769	15401.92
602.965	15168.45
603.161	15532.99
603.357	15664.06
603.553	15485.89
603.75	15549.37
603.946	15289.28
604.142	15287.23
604.338	14873.54
604.534	15096.77
604.73	14945.22
604.926	15000.52
605.122	14990.28
605.318	14810.06
605.514	14832.58
605.71	14629.84
605.906	14492.62
606.102	14844.87
606.298	14771.15
606.494	14953.41
606.69	14574.54
606.886	14779.34
607.082	14330.83
607.278	14742.47
607.474	14277.58
607.67	14543.82
607.866	14326.74
608.062	14347.22
608.257	14230.48
608.453	14138.32
608.649	14242.77
608.845	14234.58
609.041	14050.26
609.236	14420.94
609.432	14087.12
609.628	13960.15
609.824	14236.63
610.019	13779.93
610.215	13980.63
610.411	13863.9
610.606	13900.76
610.802	13861.85
610.998	13648.86
611.193	13863.9
611.389	13747.16
611.584	13556.7
611.78	13622.23
611.976	13775.83
612.171	13597.66
612.367	13741.02
612.562	13767.64
612.758	13437.92
612.953	13517.79
613.149	13231.07
613.344	13399.01
613.539	13753.3
613.735	13519.84
613.93	13556.7
614.126	13364.19
614.321	13360.09
614.517	13220.83
614.712	13054.95
614.907	13194.21
615.103	13519.84
615.298	12895.21
615.493	13052.9
615.688	12950.5
615.884	13343.71
616.079	13177.83
616.274	13030.37
616.47	13267.94
616.665	12932.07
616.86	12887.01
617.055	12936.17
617.25	12823.53
617.445	12936.17
617.641	12682.22
617.836	12813.29
618.031	12665.83
618.226	12930.02
618.421	12387.31
618.616	12639.21
618.811	12712.94
619.006	12690.41
619.201	12313.58
619.396	12585.96
619.591	12358.64
619.786	12327.92
619.981	12149.75
620.176	12190.7
620.371	11883.51
620.566	12286.96
620.761	12055.54
620.956	12129.27
621.151	11963.38
621.346	11983.86
621.541	11947
621.735	11930.61
621.93	11713.53
622.125	11746.3
622.32	11426.81
622.515	11781.11
622.709	11478.01
622.904	11580.41
623.099	11389.95
623.294	11523.07
623.488	11224.06
623.683	11181.06
623.878	11039.75
624.072	11195.39
624.267	11107.33
624.462	11121.66
624.656	10923.01
624.851	10869.76
625.046	10933.25
625.24	11004.93
625.435	10793.99
625.629	10746.89
625.824	10632.2
626.018	10656.78
626.213	10480.65
626.407	10791.94
626.602	10173.46
626.796	10351.63
626.991	10372.11
627.185	10355.72
627.38	10185.74
627.574	10208.27
627.768	9982.99
627.963	9917.46
628.157	9937.94
628.352	9864.21
628.546	9755.67
628.74	9921.56
628.935	9671.7
629.129	9739.29
629.323	9485.34
629.517	9743.38
629.712	9419.8
629.906	9571.35
630.1	9407.52
630.294	9616.41
630.489	9358.36
630.683	9354.27
630.877	9018.4
631.071	9182.24
631.265	9274.4
631.459	9180.19
631.653	9092.13
631.848	8893.47
632.042	9026.59
632.236	9032.74
632.43	8782.88
632.624	8920.1
632.818	8868.9
633.012	8727.59
633.206	8698.92
633.4	8735.78
633.594	8569.9
633.788	8598.57
633.982	8588.33
634.176	8588.33
634.369	8565.8
634.563	8260.65
634.757	8391.72
634.951	8297.52
635.145	8332.33
635.339	8289.32
635.533	8268.84
635.726	8174.64
635.92	8039.47
636.114	8100.91
636.308	7912.5
636.501	8059.95
636.695	7959.6
636.889	7756.85
637.083	7990.32
637.276	7783.48
637.47	7662.65
637.664	7646.26
637.857	7738.42
638.051	7642.17
638.244	7515.19
638.438	7615.54
638.632	7590.97
638.825	7531.58
639.019	7371.83
639.212	7275.58
639.406	7359.55
639.599	7226.43
639.793	7117.89
639.986	7228.48
640.18	7093.31
640.373	7257.15
640.567	7040.06
640.76	6917.19
640.954	7066.69
641.147	7109.69
641.34	7031.87
641.534	7078.97
641.727	6995.01
641.92	6798.4
642.114	6845.51
642.307	6825.03
642.5	6636.61
642.694	6730.82
642.887	6491.21
643.08	6663.24
643.273	6630.47
643.467	6620.23
643.66	6333.51
643.853	6573.13
644.046	6409.29
644.239	6417.48
644.432	6399.05
644.626	6323.27
644.819	6333.51
645.012	6315.08
645.205	6253.64
645.398	6290.51
645.591	6227.02
645.784	6091.85
645.977	6022.22
646.17	6161.48
646.363	6188.11
646.556	5903.44
646.749	6126.67
646.942	5866.58
647.135	5987.41
647.328	5901.39
647.521	5956.69
647.714	5854.29
647.907	5807.19
648.099	5964.88
648.292	5692.5
648.485	5790.8
648.678	5712.98
648.871	5725.27
649.064	5588.05
649.256	5538.9
649.449	5622.87
649.642	5555.29
649.835	5465.18
650.027	5473.37
650.22	5475.42
650.413	5327.96
650.605	5409.88
650.798	5375.06
650.991	5221.47
651.183	5444.7
651.376	5385.3
651.568	5276.76
651.761	5344.35
651.954	5291.1
652.146	5155.93
652.339	5282.91
652.531	5020.77
652.724	5008.48
652.916	5157.98
653.109	5028.96
653.301	5102.68
653.494	4955.23
653.686	4979.81
653.879	5074.01
654.071	4869.22
654.263	4983.9
654.456	4777.06
654.648	4863.07
654.84	4768.87
655.033	4883.55
655.225	4791.39
655.417	4854.88
655.61	4689
655.802	4799.59
655.994	4611.17
656.186	4693.09
656.379	4707.43
656.571	4664.42
656.763	4574.31
656.955	4625.51
657.148	4498.53
657.34	4570.21
657.532	4492.39
657.724	4494.44
657.916	4365.42
658.108	4510.82
658.3	4389.99
658.492	4297.83
658.684	4275.31
658.876	4471.91
659.068	4303.98
659.26	4349.03
659.452	4332.65
659.644	4050.03
659.836	4152.43
660.028	4209.77
660.22	4138.09
660.412	4097.13
660.604	4099.18
660.796	4123.76
660.988	4086.89
661.18	4068.46
661.372	4019.31
661.563	3970.16
661.755	3986.54
661.947	3933.29
662.139	4047.98
662.331	3847.28
662.522	3853.42
662.714	3865.71
662.906	3789.94
663.097	3996.78
663.289	3839.09
663.481	3923.05
663.673	3718.26
663.864	3863.66
664.056	3810.42
664.247	3945.58
664.439	3601.52
664.631	3757.17
664.822	3691.63
665.014	3652.72
665.205	3708.02
665.397	3630.2
665.588	3675.25
665.78	3535.99
665.971	3597.43
666.163	3589.24
666.354	3554.42
666.546	3503.22
666.737	3458.17
666.929	3431.54
667.12	3447.93
667.311	3421.3
667.503	3433.59
667.694	3544.18
667.885	3341.43
668.077	3298.42
668.268	3312.76
668.459	3347.58
668.651	3351.67
668.842	3343.48
669.033	3286.14
669.224	3329.14
669.416	3355.77
669.607	3267.7
669.798	3335.29
669.989	3167.35
670.18	3294.33
670.371	3265.66
670.563	3232.89
670.754	3200.12
670.945	3169.4
671.136	3120.25
671.327	3157.11
671.518	3155.07
671.709	3064.96
671.9	3204.22
672.091	3226.75
672.282	3314.81
672.473	3220.6
672.664	3116.16
672.855	3136.63
673.046	3054.72
673.237	3103.87
673.428	2960.51
673.619	2968.7
673.809	3042.43
674	2862.21
674.191	3165.31
674.382	2972.8
674.573	2997.37
674.764	3052.67
674.954	3009.66
675.145	2808.96
675.336	2960.51
675.527	2888.83
675.717	2837.63
675.908	2931.84
676.099	2978.94
676.289	2808.96
676.48	2917.5
676.671	2774.14
676.861	2817.15
677.052	2823.3
677.243	2972.8
677.433	2808.96
677.624	2800.77
677.814	2786.43
678.005	2774.14
678.195	2794.62
678.386	2753.66
678.576	2841.73
678.767	2735.23
678.957	2919.55
679.148	2845.82
679.338	2825.34
679.529	2772.1
679.719	2665.6
679.909	2755.71
680.1	2786.43
680.29	2772.1
680.481	2669.7
680.671	2790.53
680.861	2778.24
681.052	2849.92
681.242	2860.16
681.432	2632.83
681.622	2653.31
681.813	2649.22
682.003	2628.74
682.193	2694.27
682.383	2724.99
682.573	2737.28
682.764	2575.49
682.954	2645.12
683.144	2608.26
683.334	2700.42
683.524	2673.79
683.714	2618.5
683.904	2663.55
684.094	2694.27
684.284	2729.09
684.474	2696.32
684.664	2690.18
684.854	2804.86
685.044	2542.72
685.234	2641.03
685.424	2688.13
685.614	2616.45
685.804	2495.62
685.994	2694.27
686.184	2469
686.374	2657.41
686.564	2536.58
686.753	2604.16
686.943	2497.67
687.133	2499.72
687.323	2481.28
687.513	2378.89
687.702	2540.68
687.892	2473.09
688.082	2483.33
688.272	2469
688.461	2456.71
688.651	2475.14
688.841	2464.9
689.03	2301.06
689.22	2575.49
689.41	2362.5
689.599	2428.04
689.789	2407.56
689.979	2428.04
690.168	2419.85
690.358	2335.88
690.547	2368.65
690.737	2473.09
690.926	2329.74
691.116	2225.29
691.305	2309.26
691.495	2327.69
691.684	2202.76
691.874	2339.97
692.063	2210.95
692.252	2231.43
692.442	2210.95
692.631	2243.72
692.82	2192.52
693.01	2270.34
693.199	2274.44
693.388	2133.13
693.578	2321.54
693.767	2362.5
693.956	2172.04
694.146	2184.33
694.335	2294.92
694.524	2165.9
694.713	2208.9
694.902	2071.69
695.092	2221.19
695.281	2145.42
695.47	2133.13
695.659	2102.41
695.848	2077.83
696.037	2116.75
696.226	2231.43
696.415	2210.95
696.604	2155.66
696.793	2075.79
696.982	2098.31
697.171	2172.04
697.36	2145.42
697.549	2077.83
697.738	2165.9
697.927	2149.51
698.116	2069.64
698.305	2159.75
698.494	2012.3
698.683	2260.1
698.872	2180.23
699.061	1989.77
699.25	2120.84
699.438	2155.66
699.627	2092.17
699.816	2204.81
700.005	2133.13
700.193	2153.61
700.382	2116.75
700.571	2024.59
700.76	1961.1
700.948	2120.84
701.137	2059.4
701.326	2141.32
701.514	2071.69
701.703	2075.79
701.892	2151.56
702.08	2079.88
702.269	2051.21
702.457	1977.48
702.646	2131.08
702.834	2038.92
703.023	2053.26
703.212	2126.99
703.4	2061.45
703.589	2012.3
703.777	1959.05
703.965	2014.35
704.154	2114.7
704.342	2137.23
704.531	2110.6
704.719	2045.07
704.907	2135.18
705.096	1991.82
705.284	2184.33
705.472	2092.17
705.661	2141.32
705.849	2182.28
706.037	2108.55
706.226	2055.31
706.414	2022.54
706.602	1918.09
706.79	2026.64
706.979	2006.16
707.167	2225.29
707.355	2020.49
707.543	2006.16
707.731	2149.51
707.919	2043.02
708.107	2073.74
708.296	2067.6
708.484	2026.64
708.672	2137.23
708.86	2141.32
709.048	2126.99
709.236	2030.73
709.424	2063.5
709.612	2151.56
709.8	2141.32
709.988	2061.45
710.176	2071.69
710.364	2075.79
710.551	2135.18
710.739	2045.07
710.927	2077.83
711.115	2196.62
711.303	2034.83
711.491	2065.55
711.679	1995.92
711.866	2104.46
712.054	2094.22
712.242	1993.87
712.43	2145.42
712.617	2118.79
712.805	2069.64
712.993	2020.49
713.181	2057.36
713.368	2133.13
713.556	2139.27
713.744	2073.74
713.931	2061.45
714.119	2018.44
714.306	2129.03
714.494	2069.64
714.682	1995.92
714.869	1940.62
715.057	2067.6
715.244	2036.88
715.432	2174.09
715.619	2059.4
715.807	2034.83
715.994	2075.79
716.182	2053.26
716.369	2174.09
716.556	2169.99
716.744	2065.55
716.931	2073.74
717.119	2077.83
717.306	2129.03
717.493	2059.4
717.681	2143.37
717.868	2155.66
718.055	2147.47
718.242	2106.51
718.43	2149.51
718.617	2090.12
718.804	2034.83
718.991	2004.11
719.179	2004.11
719.366	1977.48
719.553	2141.32
719.74	2079.88
719.927	2159.75
720.114	2067.6
720.301	2063.5
720.488	1983.63
720.676	2122.89
720.863	2147.47
721.05	2131.08
721.237	2102.41
721.424	2069.64
721.611	2129.03
721.798	2065.55
721.985	2075.79
722.172	1985.68
722.358	2002.06
722.545	2018.44
722.732	2182.28
722.919	2178.19
723.106	2083.98
723.293	2155.66
723.48	1963.15
723.667	2086.03
723.853	1979.53
724.04	2022.54
724.227	1997.96
724.414	2114.7
724.6	2083.98
724.787	2202.76
724.974	2178.19
725.161	2100.36
725.347	2086.03
725.534	2073.74
725.72	2145.42
725.907	2024.59
726.094	2206.86
726.28	2067.6
726.467	2133.13
726.653	2020.49
726.84	2102.41
727.027	2051.21
727.213	2004.11
727.4	2053.26
727.586	2065.55
727.773	2104.46
727.959	1985.68
728.145	2012.3
728.332	1977.48
728.518	2051.21
728.705	2030.73
728.891	2124.94
729.077	2045.07
729.264	2131.08
729.45	1961.1
729.636	1993.87
729.823	2010.25
730.009	2092.17
730.195	2137.23
730.382	2024.59
730.568	2118.79
730.754	1991.82
730.94	2008.2
731.126	2137.23
731.313	2047.12
731.499	2083.98
731.685	2026.64
731.871	1969.29
732.057	2047.12
732.243	2061.45
732.429	2036.88
732.615	2067.6
732.801	1977.48
732.987	2010.25
733.173	1957
733.359	1989.77
733.545	2100.36
733.731	2036.88
733.917	2047.12
734.103	2010.25
734.289	2069.64
734.475	1963.15
734.661	2122.89
734.847	2124.94
735.033	1952.91
735.219	1969.29
735.404	1954.96
735.59	2032.78
735.776	1967.24
735.962	2182.28
736.148	2010.25
736.333	2153.61
736.519	1997.96
736.705	1975.44
736.89	1983.63
737.076	1969.29
737.262	1930.38
737.447	2124.94
737.633	1997.96
737.819	2043.02
738.004	1963.15
738.19	1909.9
738.375	1895.57
738.561	1952.91
738.747	1889.42
738.932	1977.48
739.118	1954.96
739.303	1977.48
739.489	1954.96
739.674	1887.37
739.859	1885.33
740.045	1873.04
740.23	1864.85
740.416	1895.57
740.601	1948.81
740.786	1883.28
740.972	1866.89
741.157	2002.06
741.342	1877.13
741.528	1883.28
741.713	1891.47
741.898	1893.52
742.084	1907.85
742.269	1918.09
742.454	1856.65
742.639	1817.74
742.824	1838.22
743.01	1862.8
743.195	1791.12
743.38	1774.74
743.565	1852.56
743.75	1840.27
743.935	1768.59
744.12	1838.22
744.305	1805.46
744.49	1711.25
744.675	1750.16
744.86	1774.74
745.045	1875.09
745.23	1739.92
745.415	1748.11
745.6	1733.78
745.785	1793.17
745.97	1793.17
746.155	1821.84
746.34	1725.58
746.525	1569.94
746.71	1793.17
746.895	1684.62
747.079	1635.47
747.264	1569.94
747.449	1594.51
747.634	1664.15
747.819	1686.67
748.003	1584.27
748.188	1512.6
748.373	1528.98
748.557	1592.47
748.742	1555.6
748.927	1604.75
749.111	1569.94
749.296	1451.16
749.481	1535.12
749.665	1582.23
749.85	1547.41
750.034	1467.54
750.219	1528.98
750.404	1397.91
750.588	1475.73
750.773	1402.01
750.957	1477.78
751.141	1461.4
751.326	1404.05
751.51	1381.53
751.695	1408.15
751.879	1369.24
752.064	1387.67
752.248	1430.68
752.432	1406.1
752.617	1324.18
752.801	1350.81
752.985	1371.29
753.17	1426.58
753.354	1332.37
753.538	1369.24
753.722	1303.7
753.907	1309.85
754.091	1309.85
754.275	1305.75
754.459	1242.26
754.643	1309.85
754.828	1291.41
755.012	1225.88
755.196	1209.5
755.38	1215.64
755.564	1258.65
755.748	1258.65
755.932	1209.5
756.116	1158.3
756.3	1176.73
756.484	1133.72
756.668	1172.63
756.852	1137.82
757.036	1135.77
757.22	1199.26
757.404	1209.5
757.588	998.56
757.772	1166.49
757.956	1043.61
758.14	1086.62
758.323	1039.51
758.507	1098.91
758.691	1002.65
758.875	1004.7
759.059	1043.61
759.242	1094.81
759.426	1027.23
759.61	1014.94
759.794	1070.23
759.977	1082.52
760.161	1086.62
760.345	1006.75
760.528	1053.85
760.712	994.46
760.895	1010.84
761.079	1033.37
761.263	1064.09
761.446	937.12
761.63	953.5
761.813	967.84
761.997	947.36
762.18	1012.89
762.364	1016.99
762.547	1039.51
762.731	867.49
762.914	892.06
763.098	1006.75
763.281	963.74
763.464	857.25
763.648	914.59
763.831	988.32
764.015	906.4
764.198	834.72
764.381	926.88
764.564	916.64
764.748	969.88
764.931	937.12
765.114	951.45
765.297	930.97
765.481	904.35
765.664	867.49
765.847	861.34
766.03	877.73
766.213	941.21
766.397	851.1
766.58	773.28
766.763	920.73
766.946	832.67
767.129	812.19
767.312	920.73
767.495	785.57
767.678	746.66
767.861	959.64
768.044	779.42
768.227	820.38
768.41	756.9
768.593	808.09
768.776	842.91
768.959	842.91
769.142	896.16
769.324	855.2
769.507	808.09
769.69	767.13
769.873	771.23
770.056	910.49
770.239	746.66
770.421	758.94
770.604	789.66
770.787	816.29
770.97	804
771.152	738.46
771.335	742.56
771.518	865.44
771.7	720.03
771.883	797.85
772.066	873.63
772.248	840.86
772.431	756.9
772.613	748.7
772.796	804
772.978	720.03
773.161	801.95
773.343	699.55
773.526	699.55
773.708	699.55
773.891	726.18
774.073	779.42
774.256	685.22
774.438	728.22
774.621	715.94
774.803	711.84
774.985	627.87
775.168	662.69
775.35	584.87
775.532	627.87
775.715	629.92
775.897	691.36
776.079	609.44
776.261	535.71
776.444	654.5
776.626	613.54
776.808	539.81
776.99	560.29
777.173	609.44
777.355	578.72
777.537	593.06
777.719	683.17
777.901	482.47
778.083	601.25
778.265	570.53
778.447	586.91
778.629	578.72
778.811	560.29
778.993	582.82
779.175	591.01
779.357	504.99
779.539	457.89
779.721	564.39
779.903	509.09
780.085	537.76
780.267	560.29
780.449	425.12
780.631	494.76
780.812	521.38
780.994	584.87
781.176	562.34
781.358	523.43
781.54	541.86
781.721	476.32
781.903	494.76
782.085	517.28
782.267	498.85
782.448	431.27
782.63	480.42
782.812	500.9
782.993	433.32
783.175	484.52
783.357	461.99
783.538	423.08
783.72	451.75
783.901	302.25
784.083	359.59
784.264	328.87
784.446	367.78
784.627	335.01
784.809	449.7
784.99	398.5
785.172	365.73
785.353	423.08
785.535	521.38
785.716	404.64
785.897	353.45
786.079	396.45
786.26	437.41
786.441	445.6
786.623	380.07
786.804	369.83
786.985	347.3
787.167	433.32
787.348	279.72
787.529	306.34
787.71	410.79
787.891	310.44
788.073	349.35
788.254	326.82
788.435	408.74
788.616	429.22
788.797	337.06
788.978	367.78
789.159	375.97
789.34	398.5
789.522	355.49
789.703	380.07
789.884	357.54
790.065	310.44
790.246	357.54
790.427	341.16
790.607	304.29
790.788	304.29
790.969	347.3
791.15	287.91
791.331	281.77
791.512	279.72
791.693	328.87
791.874	322.73
792.054	292.01
792.235	335.01
792.416	257.19
792.597	269.48
792.778	306.34
792.958	343.21
793.139	302.25
793.32	265.38
793.5	285.86
793.681	296.1
793.862	220.33
794.042	302.25
794.223	261.29
794.404	269.48
794.584	220.33
794.765	300.2
794.945	281.77
795.126	302.25
795.306	279.72
795.487	318.63
795.667	197.8
795.848	263.33
796.028	261.29
796.209	234.66
796.389	257.19
796.57	253.09
796.75	265.38
796.93	296.1
797.111	167.08
797.291	228.52
797.471	222.38
797.652	236.71
797.832	218.28
798.012	177.32
798.192	208.04
798.373	242.85
798.553	201.9
798.733	302.25
798.913	234.66
799.093	246.95
799.274	220.33
799.454	179.37
799.634	255.14
799.814	152.74
799.994	218.28
800.174	279.72
800.354	281.77
800.534	162.98
800.714	208.04
800.894	191.66
801.074	160.94
801.254	240.81
801.434	218.28
801.614	208.04
801.794	115.88
801.974	564.39
802.154	146.6
802.334	208.04
802.514	156.84
802.693	236.71
802.873	220.33
803.053	105.64
803.233	132.26
803.413	197.8
803.592	144.55
803.772	228.52
803.952	208.04
804.131	203.94
804.311	183.46
804.491	197.8
804.67	81.07
804.85	167.08
805.03	253.09
805.209	216.23
805.389	216.23
805.568	97.45
805.748	140.46
805.928	144.55
806.107	183.46
806.287	119.98
806.466	187.56
806.646	165.03
806.825	177.32
807.004	173.22
807.184	171.18
807.363	185.51
807.543	222.38
807.722	44.2
807.901	136.36
808.081	136.36
808.26	160.94
808.439	128.17
808.619	134.31
808.798	158.89
808.977	203.94
809.156	158.89
809.336	208.04
809.515	187.56
809.694	150.7
809.873	87.21
810.052	136.36
810.231	150.7
810.411	160.94
810.59	146.6
810.769	83.11
810.948	142.5
811.127	109.74
811.306	162.98
811.485	115.88
811.664	191.66
811.843	66.73
812.022	242.85
812.201	152.74
812.38	138.41
812.559	144.55
812.737	152.74
812.916	111.78
813.095	146.6
813.274	154.79
813.453	148.65
813.632	130.22
813.811	91.31
813.989	83.11
814.168	191.66
814.347	134.31
814.526	119.98
814.704	169.13
814.883	128.17
815.062	42.15
815.24	169.13
815.419	74.92
815.598	162.98
815.776	66.73
815.955	148.65
816.133	95.4
816.312	107.69
816.49	101.55
816.669	146.6
816.847	109.74
817.026	115.88
817.204	134.31
817.383	128.17
817.561	105.64
817.74	68.78
817.918	60.59
818.097	152.74
818.275	148.65
818.453	38.06
818.632	105.64
818.81	103.59
818.988	124.07
819.167	93.35
819.345	91.31
819.523	42.15
819.701	105.64
819.879	169.13
820.058	19.63
820.236	124.07
820.414	81.07
820.592	50.35
820.77	7.34
820.948	46.25
821.127	89.26
821.305	87.21
821.483	97.45
821.661	160.94
821.839	111.78
822.017	113.83
822.195	62.63
822.373	130.22
822.551	171.18
822.729	89.26
822.907	152.74
823.085	97.45
823.262	101.55
823.44	33.96
823.618	46.25
823.796	42.15
823.974	48.3
824.152	70.83
824.329	72.87
824.507	113.83
824.685	122.02
824.863	60.59
825.04	25.77
825.218	124.07
825.396	85.16
825.574	103.59
825.751	50.35
825.929	115.88
826.107	109.74
826.284	60.59
826.462	87.21
826.639	148.65
826.817	79.02
826.994	107.69
827.172	101.55
827.349	138.41
827.527	33.96
827.704	58.54
827.882	81.07
828.059	91.31
828.237	89.26
828.414	126.12
828.591	85.16
828.769	42.15
828.946	31.91
829.124	136.36
829.301	175.27
829.478	85.16
829.655	72.87
829.833	85.16
830.01	79.02
830.187	72.87
830.364	79.02
830.542	68.78
830.719	128.17
830.896	33.96
831.073	83.11
831.25	105.64
831.427	146.6
831.604	76.97
831.782	89.26
831.959	124.07
832.136	46.25
832.313	60.59
832.49	148.65
832.667	126.12
832.844	31.91
833.021	93.35
833.198	128.17
833.374	40.11
833.551	70.83
833.728	17.58
833.905	17.58
834.082	25.77
834.259	21.67
834.436	117.93
834.612	79.02
834.789	72.87
834.966	91.31
835.143	42.15
835.319	-19.29
835.496	146.6
835.673	60.59
835.85	-9.05
836.026	-37.72
836.203	115.88
836.38	33.96
836.556	19.63
836.733	85.16
836.909	1.19
837.086	44.2
837.262	70.83
837.439	89.26
837.616	-0.85
837.792	13.48
837.968	103.59
838.145	113.83
838.321	50.35
838.498	72.87
838.674	19.63
838.851	68.78
839.027	3.24
839.203	23.72
839.38	21.67
839.556	46.25
839.732	66.73
839.909	-29.52
840.085	124.07
840.261	60.59
840.437	64.68
840.614	48.3
840.79	103.59
840.966	109.74
841.142	-23.38
841.318	23.72
841.494	99.5
841.671	15.53
841.847	-0.85
842.023	38.06
842.199	126.12
842.375	76.97
842.551	93.35
842.727	-21.33
842.903	56.49
843.079	-21.33
843.255	50.35
843.431	3.24
843.607	-7
843.783	68.78
843.959	66.73
844.134	48.3
844.31	99.5
844.486	50.35
844.662	46.25
844.838	52.39
845.013	66.73
845.189	50.35
845.365	93.35
845.541	56.49
845.716	36.01
845.892	42.15
846.068	33.96
846.244	99.5
846.419	52.39
846.595	56.49
846.77	40.11
846.946	87.21
847.122	-0.85
847.297	44.2
847.473	113.83
847.648	54.44
847.824	62.63
847.999	74.92
848.175	52.39
848.35	60.59
848.526	79.02
848.701	70.83
848.876	56.49
849.052	81.07
849.227	79.02
849.403	5.29
849.578	11.43
849.753	23.72
849.929	126.12
850.104	-41.81
850.279	56.49
850.454	60.59
850.63	58.54
850.805	42.15
850.98	89.26
851.155	-2.9
851.33	11.43
851.505	-29.52
851.681	103.59
851.856	46.25
852.031	44.2
852.206	15.53
852.381	40.11
852.556	23.72
852.731	42.15
852.906	52.39
853.081	93.35
853.256	70.83
853.431	62.63
853.606	66.73
853.781	-27.48
853.956	15.53
854.131	50.35
854.305	11.43
854.48	46.25
854.655	44.2
854.83	40.11
855.005	-31.57
855.18	9.39
855.354	25.77
855.529	-2.9
855.704	56.49
855.879	72.87
856.053	29.87
856.228	60.59
856.403	-25.43
856.577	64.68
856.752	-27.48
856.926	36.01
857.101	19.63
857.276	46.25
857.45	50.35
857.625	46.25
857.799	11.43
857.974	70.83
858.148	19.63
858.323	11.43
858.497	-11.09
858.672	19.63
858.846	-23.38
859.02	3.24
859.195	-37.72
859.369	7.34
859.543	11.43
859.718	87.21
859.892	-13.14
860.066	79.02
860.241	52.39
860.415	-43.86
860.589	50.35
860.763	17.58
860.938	19.63
861.112	-7
861.286	-45.91
861.46	-2.9
861.634	40.11
861.808	-7
861.982	42.15
862.157	52.39
862.331	54.44
862.505	40.11
862.679	-29.52
862.853	72.87
863.027	23.72
863.201	64.68
863.375	-13.14
863.549	76.97
863.722	27.82
863.896	85.16
864.07	-7
864.244	-17.24
864.418	70.83
864.592	-29.52
864.766	50.35
864.939	-13.14
865.113	62.63
865.287	64.68
865.461	-29.52
865.634	-9.05
865.808	-4.95
865.982	17.58
866.156	38.06
866.329	-19.29
866.503	56.49
866.676	83.11
866.85	48.3
867.024	105.64
867.197	54.44
867.371	89.26
867.544	29.87
867.718	58.54
867.891	81.07
868.065	-27.48
868.238	-7
868.412	11.43
868.585	13.48
868.759	33.96
868.932	-13.14
869.105	25.77
869.279	9.39
869.452	23.72
869.625	70.83
869.799	23.72
869.972	15.53
870.145	-25.43
870.319	44.2
870.492	-19.29
870.665	40.11
870.838	66.73
871.011	36.01
871.185	29.87
871.358	-19.29
871.531	-60.24
871.704	-4.95
871.877	-31.57
872.05	72.87
872.223	58.54
872.396	38.06
872.569	72.87
872.742	-23.38
872.915	27.82
873.088	13.48
873.261	15.53
873.434	31.91
873.607	81.07
873.78	70.83
873.953	48.3
874.126	42.15
874.299	56.49
874.471	42.15
874.644	3.24
874.817	3.24
874.99	81.07
875.163	11.43
875.335	7.34
875.508	25.77
875.681	62.63
875.853	-29.52
876.026	-4.95
876.199	7.34
876.371	70.83
876.544	42.15
876.717	11.43
876.889	-0.85
877.062	38.06
877.234	76.97
877.407	25.77
877.579	50.35
877.752	-9.05
877.924	52.39
878.097	76.97
878.269	29.87
878.442	11.43
878.614	-43.86
878.786	56.49
878.959	42.15
879.131	21.67
879.303	7.34
879.476	50.35
879.648	15.53
879.82	23.72
879.993	-13.14
880.165	17.58
880.337	-4.95
880.509	-13.14
880.681	76.97
880.854	13.48
881.026	33.96
881.198	27.82
881.37	15.53
881.542	50.35
881.714	25.77
881.886	46.25
882.058	50.35
882.23	44.2
882.402	27.82
882.574	50.35
882.746	-7
882.918	85.16
883.09	36.01
883.262	15.53
883.434	11.43
883.606	9.39
883.778	-11.09
883.95	70.83
884.122	58.54
884.293	7.34
884.465	66.73
884.637	79.02
884.809	36.01
884.98	11.43
885.152	13.48
885.324	15.53
885.496	31.91
885.667	-25.43
885.839	-13.14
886.011	23.72
886.182	48.3
886.354	-17.24
886.525	-25.43
886.697	62.63
886.869	-43.86
887.04	29.87
887.212	27.82
887.383	99.5
887.555	-17.24
887.726	1.19
887.897	-25.43
888.069	-11.09
888.24	15.53
888.412	-9.05
888.583	36.01
888.754	25.77
888.926	-23.38
889.097	7.34
889.268	7.34
889.44	-37.72
889.611	-27.48
889.782	1.19
889.953	1.19
890.125	64.68
890.296	87.21
890.467	74.92
890.638	7.34
890.809	-13.14
890.98	-13.14
891.151	81.07
891.323	40.11
891.494	23.72
891.665	33.96
891.836	-0.85
892.007	-9.05
892.178	-33.62
892.349	-0.85
892.52	36.01
892.691	19.63
892.862	31.91
893.032	-25.43
893.203	29.87
893.374	-23.38
893.545	50.35
893.716	15.53
893.887	83.11
894.057	5.29
894.228	-21.33
894.399	13.48
894.57	-9.05
894.74	17.58
894.911	-0.85
895.082	3.24
895.253	9.39
895.423	3.24
895.594	23.72
895.764	19.63
895.935	-74.58
896.106	-7
896.276	23.72
896.447	23.72
896.617	-4.95
896.788	15.53
896.958	52.39
897.129	-43.86
897.299	-4.95
897.47	64.68
897.64	48.3
897.81	-2.9
897.981	1.19
898.151	-41.81
898.322	31.91
898.492	-21.33
898.662	50.35
898.832	25.77
899.003	-7
899.173	40.11
899.343	29.87
899.513	54.44
