Data from USB4F104151__26__11-05-08-431.txt Node

Date: Wed Mar 12 11:05:08 EDT 2025
User: louis
Spectrometer: USB4F10415
Trigger mode: 4
Integration Time (sec): 2.000000E-2
Scans to average: 1
Electric dark correction enabled: true
Nonlinearity correction enabled: false
Boxcar width: 0
XAxis mode: Wavelengths
Number of Pixels in Spectrum: 3648
>>>>>Begin Spectral Data<<<<<
178.204	-111.44
178.424	-111.44
178.644	-111.44
178.864	-103.25
179.084	-148.31
179.304	19.63
179.524	-76.63
179.744	21.67
179.964	-25.43
180.184	1.19
180.404	-37.72
180.624	-11.09
180.844	-11.09
181.064	-31.57
181.283	89.26
181.503	-19.29
181.723	81.07
181.943	3.24
182.163	54.44
182.383	54.44
182.602	95.4
182.822	3.24
183.042	-39.76
183.262	74.92
183.482	3.24
183.701	70.83
183.921	107.69
184.141	-50
184.361	-11.09
184.58	-54.1
184.8	-9.05
185.02	36.01
185.239	-33.62
185.459	11.43
185.679	56.49
185.898	-7
186.118	62.63
186.338	11.43
186.557	17.58
186.777	27.82
186.997	19.63
187.216	21.67
187.436	93.35
187.655	38.06
187.875	3.24
188.095	-4.95
188.314	91.31
188.534	-15.19
188.753	46.25
188.973	-21.33
189.192	52.39
189.412	23.72
189.631	27.82
189.851	19.63
190.07	40.11
190.29	-4.95
190.509	-25.43
190.729	58.54
190.948	87.21
191.168	119.98
191.387	15.53
191.607	-19.29
191.826	11.43
192.045	11.43
192.265	-35.67
192.484	-17.24
192.704	42.15
192.923	5.29
193.142	3.24
193.362	11.43
193.581	56.49
193.8	23.72
194.02	19.63
194.239	-15.19
194.458	68.78
194.678	68.78
194.897	93.35
195.116	50.35
195.335	60.59
195.555	44.2
195.774	11.43
195.993	-47.96
196.212	64.68
196.432	-25.43
196.651	46.25
196.87	21.67
197.089	31.91
197.308	17.58
197.528	9.39
197.747	11.43
197.966	27.82
198.185	54.44
198.404	19.63
198.623	76.97
198.842	15.53
199.062	-15.19
199.281	40.11
199.5	-58.2
199.719	58.54
199.938	-11.09
200.157	23.72
200.376	25.77
200.595	-19.29
200.814	42.15
201.033	-13.14
201.252	-62.29
201.471	68.78
201.69	13.48
201.909	11.43
202.128	-11.09
202.347	29.87
202.566	40.11
202.785	-13.14
203.004	-2.9
203.223	93.35
203.442	83.11
203.661	-19.29
203.879	19.63
204.098	105.64
204.317	38.06
204.536	31.91
204.755	40.11
204.974	17.58
205.193	-0.85
205.411	50.35
205.63	-43.86
205.849	-0.85
206.068	44.2
206.287	-2.9
206.505	-21.33
206.724	11.43
206.943	85.16
207.162	-45.91
207.381	46.25
207.599	115.88
207.818	-19.29
208.037	62.63
208.255	44.2
208.474	52.39
208.693	-31.57
208.911	66.73
209.13	42.15
209.349	29.87
209.567	-68.44
209.786	-7
210.005	76.97
210.223	-27.48
210.442	36.01
210.661	46.25
210.879	-23.38
211.098	-21.33
211.316	29.87
211.535	87.21
211.753	7.34
211.972	-15.19
212.191	15.53
212.409	93.35
212.628	27.82
212.846	7.34
213.065	-19.29
213.283	19.63
213.502	48.3
213.72	46.25
213.938	-7
214.157	36.01
214.375	-4.95
214.594	56.49
214.812	-41.81
215.031	-9.05
215.249	-45.91
215.467	13.48
215.686	21.67
215.904	72.87
216.122	1.19
216.341	-35.67
216.559	109.74
216.778	7.34
216.996	74.92
217.214	21.67
217.432	36.01
217.651	36.01
217.869	-60.24
218.087	-31.57
218.306	-29.52
218.524	50.35
218.742	-50
218.96	-7
219.179	15.53
219.397	66.73
219.615	70.83
219.833	-21.33
220.051	-23.38
220.27	60.59
220.488	54.44
220.706	50.35
220.924	36.01
221.142	11.43
221.36	7.34
221.578	46.25
221.796	52.39
222.015	-23.38
222.233	29.87
222.451	79.02
222.669	-11.09
222.887	48.3
223.105	-58.2
223.323	7.34
223.541	42.15
223.759	91.31
223.977	31.91
224.195	64.68
224.413	101.55
224.631	23.72
224.849	62.63
225.067	156.84
225.285	-23.38
225.503	29.87
225.721	23.72
225.939	-21.33
226.157	27.82
226.375	99.5
226.592	19.63
226.81	58.54
227.028	60.59
227.246	72.87
227.464	33.96
227.682	66.73
227.9	-0.85
228.117	36.01
228.335	-37.72
228.553	-35.67
228.771	40.11
228.989	48.3
229.206	50.35
229.424	-21.33
229.642	23.72
229.86	29.87
230.077	54.44
230.295	52.39
230.513	44.2
230.731	15.53
230.948	3.24
231.166	83.11
231.384	27.82
231.601	15.53
231.819	105.64
232.037	27.82
232.254	-11.09
232.472	42.15
232.689	-0.85
232.907	60.59
233.125	19.63
233.342	-4.95
233.56	-23.38
233.777	17.58
233.995	23.72
234.213	79.02
234.43	7.34
234.648	17.58
234.865	-19.29
235.083	27.82
235.3	62.63
235.518	-33.62
235.735	19.63
235.953	89.26
236.17	-7
236.388	25.77
236.605	60.59
236.822	111.78
237.04	52.39
237.257	19.63
237.475	19.63
237.692	36.01
237.909	58.54
238.127	79.02
238.344	33.96
238.562	-0.85
238.779	-25.43
238.996	-19.29
239.214	-7
239.431	62.63
239.648	60.59
239.865	-7
240.083	11.43
240.3	36.01
240.517	29.87
240.735	-4.95
240.952	58.54
241.169	33.96
241.386	25.77
241.603	52.39
241.821	83.11
242.038	66.73
242.255	72.87
242.472	62.63
242.689	-0.85
242.907	9.39
243.124	25.77
243.341	36.01
243.558	-7
243.775	-47.96
243.992	1.19
244.209	85.16
244.426	58.54
244.643	19.63
244.86	76.97
245.078	-4.95
245.295	40.11
245.512	72.87
245.729	93.35
245.946	81.07
246.163	-21.33
246.38	17.58
246.597	58.54
246.814	38.06
247.031	76.97
247.248	29.87
247.464	17.58
247.681	-13.14
247.898	70.83
248.115	19.63
248.332	19.63
248.549	36.01
248.766	38.06
248.983	17.58
249.2	70.83
249.417	97.45
249.633	93.35
249.85	-9.05
250.067	25.77
250.284	44.2
250.501	93.35
250.717	42.15
250.934	44.2
251.151	13.48
251.368	-4.95
251.585	1.19
251.801	-72.53
252.018	-11.09
252.235	9.39
252.451	-43.86
252.668	58.54
252.885	19.63
253.102	38.06
253.318	13.48
253.535	11.43
253.752	-27.48
253.968	1.19
254.185	29.87
254.401	29.87
254.618	-25.43
254.835	-103.25
255.051	11.43
255.268	19.63
255.484	44.2
255.701	-11.09
255.917	19.63
256.134	46.25
256.351	-17.24
256.567	-47.96
256.784	29.87
257	44.2
257.217	76.97
257.433	-23.38
257.65	15.53
257.866	36.01
258.082	58.54
258.299	-68.44
258.515	56.49
258.732	25.77
258.948	15.53
259.165	-15.19
259.381	17.58
259.597	50.35
259.814	-11.09
260.03	105.64
260.246	7.34
260.463	15.53
260.679	13.48
260.895	31.91
261.112	27.82
261.328	-13.14
261.544	5.29
261.761	-13.14
261.977	50.35
262.193	-0.85
262.409	-13.14
262.626	7.34
262.842	17.58
263.058	40.11
263.274	64.68
263.49	60.59
263.707	31.91
263.923	-4.95
264.139	11.43
264.355	48.3
264.571	38.06
264.787	66.73
265.004	33.96
265.22	-4.95
265.436	89.26
265.652	38.06
265.868	42.15
266.084	64.68
266.3	11.43
266.516	1.19
266.732	-7
266.948	27.82
267.164	38.06
267.38	25.77
267.596	58.54
267.812	7.34
268.028	81.07
268.244	15.53
268.46	76.97
268.676	-2.9
268.892	5.29
269.108	50.35
269.324	-41.81
269.54	-43.86
269.756	9.39
269.972	13.48
270.188	87.21
270.403	23.72
270.619	52.39
270.835	68.78
271.051	44.2
271.267	36.01
271.483	31.91
271.698	68.78
271.914	117.93
272.13	93.35
272.346	-7
272.562	117.93
272.777	-4.95
272.993	-41.81
273.209	60.59
273.425	134.31
273.64	93.35
273.856	27.82
274.072	23.72
274.287	-23.38
274.503	105.64
274.719	72.87
274.934	-0.85
275.15	-19.29
275.366	5.29
275.581	76.97
275.797	27.82
276.012	15.53
276.228	17.58
276.444	33.96
276.659	70.83
276.875	-4.95
277.09	76.97
277.306	29.87
277.521	-11.09
277.737	38.06
277.952	-27.48
278.168	72.87
278.383	11.43
278.599	29.87
278.814	19.63
279.03	50.35
279.245	52.39
279.461	87.21
279.676	31.91
279.892	9.39
280.107	-2.9
280.322	21.67
280.538	58.54
280.753	50.35
280.969	44.2
281.184	3.24
281.399	7.34
281.615	42.15
281.83	15.53
282.045	29.87
282.26	42.15
282.476	1.19
282.691	70.83
282.906	23.72
283.122	-9.05
283.337	17.58
283.552	79.02
283.767	15.53
283.983	-17.24
284.198	27.82
284.413	44.2
284.628	-90.96
284.843	74.92
285.058	1.19
285.274	-60.24
285.489	-25.43
285.704	40.11
285.919	-25.43
286.134	23.72
286.349	9.39
286.564	46.25
286.779	87.21
286.995	15.53
287.21	48.3
287.425	42.15
287.64	29.87
287.855	-0.85
288.07	19.63
288.285	21.67
288.5	89.26
288.715	64.68
288.93	64.68
289.145	44.2
289.36	93.35
289.575	29.87
289.79	89.26
290.004	-2.9
290.219	-0.85
290.434	9.39
290.649	11.43
290.864	-19.29
291.079	-9.05
291.294	-7
291.509	44.2
291.724	-7
291.938	87.21
292.153	-9.05
292.368	68.78
292.583	56.49
292.798	31.91
293.012	74.92
293.227	11.43
293.442	81.07
293.657	25.77
293.871	11.43
294.086	42.15
294.301	40.11
294.516	70.83
294.73	74.92
294.945	33.96
295.16	23.72
295.374	93.35
295.589	-0.85
295.804	-21.33
296.018	5.29
296.233	72.87
296.447	-27.48
296.662	-2.9
296.877	64.68
297.091	33.96
297.306	64.68
297.52	-37.72
297.735	38.06
297.949	99.5
298.164	56.49
298.378	79.02
298.593	3.24
298.807	-15.19
299.022	70.83
299.236	1.19
299.451	3.24
299.665	62.63
299.88	31.91
300.094	93.35
300.309	7.34
300.523	33.96
300.737	33.96
300.952	52.39
301.166	-7
301.381	-19.29
301.595	-17.24
301.809	23.72
302.024	-4.95
302.238	-19.29
302.452	29.87
302.667	119.98
302.881	48.3
303.095	52.39
303.309	36.01
303.524	64.68
303.738	21.67
303.952	-9.05
304.166	31.91
304.381	83.11
304.595	50.35
304.809	15.53
305.023	3.24
305.237	-60.24
305.452	-13.14
305.666	40.11
305.88	58.54
306.094	-7
306.308	48.3
306.522	38.06
306.736	105.64
306.95	-2.9
307.164	17.58
307.379	11.43
307.593	40.11
307.807	70.83
308.021	38.06
308.235	7.34
308.449	21.67
308.663	15.53
308.877	36.01
309.091	48.3
309.305	7.34
309.519	-45.91
309.733	62.63
309.947	36.01
310.161	-11.09
310.374	23.72
310.588	19.63
310.802	40.11
311.016	103.59
311.23	17.58
311.444	56.49
311.658	60.59
311.872	62.63
312.085	48.3
312.299	40.11
312.513	23.72
312.727	68.78
312.941	-13.14
313.154	48.3
313.368	-13.14
313.582	62.63
313.796	-21.33
314.009	1.19
314.223	38.06
314.437	44.2
314.651	21.67
314.864	44.2
315.078	36.01
315.292	36.01
315.505	-74.58
315.719	19.63
315.933	-52.05
316.146	15.53
316.36	-15.19
316.573	27.82
316.787	11.43
317.001	-13.14
317.214	1.19
317.428	70.83
317.641	44.2
317.855	-7
318.068	-33.62
318.282	-0.85
318.495	13.48
318.709	72.87
318.922	17.58
319.136	36.01
319.349	15.53
319.563	9.39
319.776	48.3
319.99	-4.95
320.203	42.15
320.417	-25.43
320.63	-31.57
320.843	38.06
321.057	31.91
321.27	3.24
321.483	52.39
321.697	130.22
321.91	-17.24
322.124	7.34
322.337	-37.72
322.55	-17.24
322.763	50.35
322.977	-31.57
323.19	13.48
323.403	11.43
323.617	31.91
323.83	44.2
324.043	33.96
324.256	29.87
324.469	-19.29
324.683	48.3
324.896	72.87
325.109	-31.57
325.322	81.07
325.535	68.78
325.748	38.06
325.962	15.53
326.175	81.07
326.388	56.49
326.601	81.07
326.814	-15.19
327.027	40.11
327.24	85.16
327.453	-45.91
327.666	83.11
327.879	21.67
328.092	42.15
328.305	-9.05
328.518	81.07
328.731	46.25
328.944	99.5
329.157	87.21
329.37	50.35
329.583	62.63
329.796	99.5
330.009	56.49
330.222	72.87
330.435	3.24
330.648	38.06
330.861	7.34
331.073	46.25
331.286	31.91
331.499	58.54
331.712	23.72
331.925	-43.86
332.138	42.15
332.35	76.97
332.563	52.39
332.776	5.29
332.989	-15.19
333.202	-4.95
333.414	25.77
333.627	40.11
333.84	21.67
334.053	-35.67
334.265	3.24
334.478	81.07
334.691	9.39
334.903	60.59
335.116	-9.05
335.329	36.01
335.541	40.11
335.754	58.54
335.966	19.63
336.179	124.07
336.392	23.72
336.604	27.82
336.817	-0.85
337.029	111.78
337.242	36.01
337.454	79.02
337.667	74.92
337.88	68.78
338.092	48.3
338.305	44.2
338.517	-33.62
338.729	146.6
338.942	11.43
339.154	13.48
339.367	-25.43
339.579	-0.85
339.792	5.29
340.004	64.68
340.217	36.01
340.429	74.92
340.641	-58.2
340.854	-37.72
341.066	52.39
341.278	5.29
341.491	46.25
341.703	-4.95
341.915	11.43
342.128	52.39
342.34	3.24
342.552	-19.29
342.764	89.26
342.977	-13.14
343.189	-4.95
343.401	46.25
343.613	13.48
343.826	19.63
344.038	101.55
344.25	66.73
344.462	81.07
344.674	50.35
344.886	52.39
345.099	40.11
345.311	25.77
345.523	58.54
345.735	83.11
345.947	36.01
346.159	-15.19
346.371	68.78
346.583	17.58
346.795	36.01
347.007	-4.95
347.219	38.06
347.431	-2.9
347.643	72.87
347.855	-11.09
348.067	-56.15
348.279	-0.85
348.491	62.63
348.703	40.11
348.915	15.53
349.127	42.15
349.339	1.19
349.551	48.3
349.763	76.97
349.975	97.45
350.187	46.25
350.399	-31.57
350.61	58.54
350.822	17.58
351.034	42.15
351.246	31.91
351.458	13.48
351.669	50.35
351.881	95.4
352.093	5.29
352.305	11.43
352.517	-21.33
352.728	48.3
352.94	74.92
353.152	91.31
353.363	-17.24
353.575	7.34
353.787	52.39
353.999	42.15
354.21	85.16
354.422	21.67
354.633	17.58
354.845	52.39
355.057	38.06
355.268	19.63
355.48	33.96
355.692	44.2
355.903	-31.57
356.115	-50
356.326	46.25
356.538	23.72
356.749	13.48
356.961	83.11
357.172	-29.52
357.384	68.78
357.595	60.59
357.807	33.96
358.018	21.67
358.23	70.83
358.441	5.29
358.653	83.11
358.864	72.87
359.075	40.11
359.287	85.16
359.498	29.87
359.709	27.82
359.921	83.11
360.132	97.45
360.344	36.01
360.555	52.39
360.766	-11.09
360.977	50.35
361.189	25.77
361.4	38.06
361.611	56.49
361.823	11.43
362.034	79.02
362.245	36.01
362.456	76.97
362.667	44.2
362.879	87.21
363.09	-56.15
363.301	76.97
363.512	21.67
363.723	33.96
363.935	60.59
364.146	-13.14
364.357	36.01
364.568	42.15
364.779	17.58
364.99	23.72
365.201	-54.1
365.412	134.31
365.623	31.91
365.834	52.39
366.045	56.49
366.256	52.39
366.467	23.72
366.678	79.02
366.889	15.53
367.1	64.68
367.311	7.34
367.522	25.77
367.733	46.25
367.944	13.48
368.155	17.58
368.366	33.96
368.577	11.43
368.788	25.77
368.999	107.69
369.209	81.07
369.42	89.26
369.631	105.64
369.842	17.58
370.053	38.06
370.264	81.07
370.474	-47.96
370.685	58.54
370.896	74.92
371.107	60.59
371.317	19.63
371.528	113.83
371.739	-15.19
371.95	-21.33
372.16	105.64
372.371	13.48
372.582	52.39
372.792	9.39
373.003	21.67
373.214	146.6
373.424	-25.43
373.635	13.48
373.846	-37.72
374.056	58.54
374.267	44.2
374.477	66.73
374.688	99.5
374.898	81.07
375.109	48.3
375.319	74.92
375.53	42.15
375.74	23.72
375.951	-25.43
376.161	81.07
376.372	-15.19
376.582	81.07
376.793	40.11
377.003	38.06
377.214	74.92
377.424	15.53
377.635	25.77
377.845	19.63
378.055	52.39
378.266	13.48
378.476	91.31
378.686	58.54
378.897	44.2
379.107	19.63
379.317	38.06
379.528	17.58
379.738	101.55
379.948	64.68
380.158	31.91
380.369	27.82
380.579	50.35
380.789	83.11
380.999	89.26
381.21	109.74
381.42	70.83
381.63	66.73
381.84	46.25
382.05	74.92
382.261	62.63
382.471	-19.29
382.681	-4.95
382.891	81.07
383.101	111.78
383.311	81.07
383.521	83.11
383.731	52.39
383.941	60.59
384.151	122.02
384.361	66.73
384.571	54.44
384.781	60.59
384.991	29.87
385.201	54.44
385.411	58.54
385.621	-21.33
385.831	3.24
386.041	99.5
386.251	-23.38
386.461	134.31
386.671	-9.05
386.881	81.07
387.091	7.34
387.301	48.3
387.511	25.77
387.72	54.44
387.93	76.97
388.14	46.25
388.35	1.19
388.56	31.91
388.769	52.39
388.979	-9.05
389.189	-9.05
389.399	-17.24
389.609	74.92
389.818	105.64
390.028	85.16
390.238	-2.9
390.447	13.48
390.657	79.02
390.867	23.72
391.076	105.64
391.286	126.12
391.496	105.64
391.705	29.87
391.915	60.59
392.125	85.16
392.334	-2.9
392.544	132.26
392.753	31.91
392.963	64.68
393.172	81.07
393.382	50.35
393.591	72.87
393.801	167.08
394.01	107.69
394.22	60.59
394.429	48.3
394.639	93.35
394.848	21.67
395.058	79.02
395.267	52.39
395.477	58.54
395.686	68.78
395.895	142.5
396.105	169.13
396.314	40.11
396.524	60.59
396.733	97.45
396.942	48.3
397.152	85.16
397.361	74.92
397.57	60.59
397.78	119.98
397.989	128.17
398.198	142.5
398.407	124.07
398.617	87.21
398.826	58.54
399.035	93.35
399.244	126.12
399.453	122.02
399.663	109.74
399.872	113.83
400.081	119.98
400.29	31.91
400.499	115.88
400.708	101.55
400.917	158.89
401.127	119.98
401.336	189.61
401.545	150.7
401.754	134.31
401.963	85.16
402.172	117.93
402.381	21.67
402.59	148.65
402.799	103.59
403.008	181.42
403.217	115.88
403.426	58.54
403.635	132.26
403.844	60.59
404.053	183.46
404.262	126.12
404.471	150.7
404.68	115.88
404.888	99.5
405.097	152.74
405.306	150.7
405.515	140.46
405.724	91.31
405.933	154.79
406.142	130.22
406.35	122.02
406.559	154.79
406.768	156.84
406.977	152.74
407.185	183.46
407.394	203.94
407.603	148.65
407.812	216.23
408.02	156.84
408.229	150.7
408.438	205.99
408.646	195.75
408.855	226.47
409.064	296.1
409.272	249
409.481	193.7
409.69	300.2
409.898	201.9
410.107	269.48
410.315	287.91
410.524	263.33
410.733	337.06
410.941	314.53
411.15	396.45
411.358	341.16
411.567	408.74
411.775	396.45
411.984	324.77
412.192	339.11
412.401	283.81
412.609	427.17
412.818	425.12
413.026	404.64
413.234	453.8
413.443	408.74
413.651	480.42
413.86	502.95
414.068	558.24
414.276	517.28
414.485	550.05
414.693	646.3
414.901	611.49
415.11	558.24
415.318	658.59
415.526	576.67
415.734	726.18
415.943	744.61
416.151	728.22
416.359	738.46
416.567	781.47
416.776	863.39
416.984	900.25
417.192	892.06
417.4	867.49
417.608	810.14
417.817	867.49
418.025	1025.18
418.233	1023.13
418.441	1076.38
418.649	998.56
418.857	1094.81
419.065	1252.5
419.273	1193.11
419.481	1195.16
419.689	1363.09
419.897	1313.94
420.105	1336.47
420.313	1408.15
420.521	1469.59
420.729	1426.58
420.937	1445.01
421.145	1584.27
421.353	1760.4
421.561	1823.89
421.769	1608.85
421.977	2006.16
422.185	1760.4
422.393	1864.85
422.601	2061.45
422.809	2067.6
423.017	2120.84
423.224	2245.77
423.432	2210.95
423.64	2397.32
423.848	2491.52
424.056	2475.14
424.263	2520.2
424.471	2499.72
424.679	2641.03
424.887	2925.69
425.094	2911.36
425.302	2952.32
425.51	3099.77
425.718	3150.97
425.925	3089.53
426.133	3275.9
426.341	3357.82
426.548	3720.31
426.756	3609.72
426.964	3566.71
427.171	3804.27
427.379	3878
427.586	3996.78
427.794	4033.65
428.001	4258.92
428.209	4486.25
428.417	4480.1
428.624	4650.08
428.832	4742.24
429.039	4738.15
429.247	4703.33
429.454	5264.47
429.662	5524.57
429.869	5088.35
430.076	5530.71
430.284	5526.61
430.491	5569.62
430.699	5940.3
430.906	5885.01
431.114	6044.75
431.321	6071.37
431.528	6487.11
431.736	6755.4
431.943	6888.51
432.15	6743.11
432.358	6941.76
432.565	7371.83
432.772	7349.31
432.979	7500.86
433.187	7666.74
433.394	7763
433.601	8440.87
433.808	8385.58
434.016	8420.39
434.223	8782.88
434.43	9137.18
434.637	8956.96
434.844	9647.13
435.052	9686.04
435.259	9894.93
435.466	9735.19
435.673	9686.04
435.88	10525.71
436.087	11068.42
436.294	10783.75
436.501	10793.99
436.708	10806.28
436.915	11283.45
437.122	11645.94
437.329	11643.9
437.537	12004.34
437.743	12344.3
437.95	12348.4
438.157	12588.01
438.364	13308.9
438.571	13458.4
438.778	13282.27
438.985	14539.72
439.192	13808.6
439.399	14353.36
439.606	14050.26
439.813	15006.66
440.02	15911.86
440.227	15598.52
440.433	15379.39
440.64	15846.33
440.847	15786.94
441.054	16047.03
441.261	17339.3
441.467	17183.65
441.674	17505.18
441.881	17820.57
442.088	17773.47
442.294	17615.77
442.501	18240.4
442.708	18688.91
442.914	19575.68
443.121	20362.1
443.328	19473.28
443.534	21132.14
443.741	20747.12
443.948	20177.78
444.154	21908.32
444.361	21375.84
444.568	21848.93
444.774	21541.73
444.981	21957.47
445.187	22635.35
445.394	23536.45
445.6	23106.38
445.807	25637.67
446.013	24349.5
446.22	24879.92
446.426	26139.42
446.633	26022.69
446.839	27177.74
447.046	25705.25
447.252	27007.76
447.459	27370.25
447.665	27284.23
447.871	28441.34
448.078	29301.48
448.284	28209.92
448.491	28758.77
448.697	29780.71
448.903	30503.64
449.11	30229.21
449.316	29805.28
449.522	30808.79
449.728	31341.26
449.935	31650.5
450.141	31496.91
450.347	32070.34
450.553	31052.5
450.76	31535.82
450.966	32295.61
451.172	31994.56
451.378	32344.77
451.584	32484.03
451.791	33079.99
451.997	32721.59
452.203	33073.84
452.409	33145.52
452.615	33510.06
452.821	31935.17
453.027	31085.26
453.233	33329.84
453.44	31797.96
453.646	32084.67
453.852	32148.16
454.058	32754.36
454.264	31199.95
454.47	31994.56
454.676	31501
454.882	32549.56
455.088	29569.77
455.294	30141.15
455.5	30239.45
455.705	30798.55
455.911	29700.84
456.117	29178.61
456.323	28537.59
456.529	26764.05
456.735	28003.07
456.941	27538.18
457.147	26848.02
457.352	26139.42
457.558	25928.48
457.764	25811.74
457.97	25396.01
458.176	24746.8
458.381	24970.03
458.587	23348.04
458.793	23698.24
458.999	22037.34
459.204	23911.23
459.41	23139.15
459.616	21695.33
459.821	21525.35
460.027	21341.03
460.233	20800.37
460.438	19991.42
460.644	20181.88
460.85	19358.6
461.055	19030.92
461.261	19217.29
461.466	17535.9
461.672	16894.89
461.878	18391.95
462.083	16868.27
462.289	16634.8
462.494	16542.64
462.7	15795.13
462.905	15358.91
463.111	15801.27
463.316	16229.3
463.522	15643.58
463.727	15668.16
463.932	15569.85
464.138	15647.68
464.343	15627.2
464.549	15070.15
464.754	15551.42
464.959	15539.13
465.165	15408.06
465.37	14629.84
465.575	14126.04
465.781	15016.9
465.986	15227.84
466.191	14480.33
466.397	14142.42
466.602	13474.78
466.807	13951.96
467.012	13956.05
467.218	13962.2
467.423	13802.46
467.628	13935.57
467.833	14291.92
468.038	13861.85
468.244	13333.47
468.449	13972.44
468.654	13683.67
468.859	13210.59
469.064	13603.8
469.269	12897.25
469.474	12903.4
469.679	13198.31
469.885	12925.93
470.09	12923.88
470.295	12952.55
470.5	12479.47
470.705	12698.6
470.91	12274.67
471.115	12235.76
471.32	12610.54
471.525	12108.79
471.73	12131.31
471.935	11858.93
472.139	11492.35
472.344	11824.12
472.549	11607.03
472.754	11392
472.959	11373.57
473.164	11127.81
473.369	11017.22
473.574	11406.33
473.778	10996.74
473.983	11201.54
474.188	10871.81
474.393	10284.05
474.598	10605.58
474.802	10624.01
475.007	10341.39
475.212	10417.16
475.417	10060.82
475.621	9896.98
475.826	10062.87
476.031	9802.77
476.235	9853.97
476.44	9798.68
476.645	9610.26
476.849	9561.11
477.054	9423.9
477.259	9262.11
477.463	9448.47
477.668	8977.44
477.872	9092.13
478.077	8813.6
478.282	9024.54
478.486	8922.15
478.691	8774.69
478.895	8807.46
479.1	8735.78
479.304	8948.77
479.509	8348.72
479.713	8535.08
479.918	8561.7
480.122	8338.48
480.326	8561.7
480.531	8420.39
480.735	8432.68
480.94	8283.18
481.144	8571.94
481.348	8170.54
481.553	8102.96
481.757	8154.16
481.961	8219.69
482.166	8203.31
482.37	8125.49
482.574	7920.69
482.778	8025.14
482.983	8338.48
483.187	8125.49
483.391	8293.42
483.595	8295.47
483.8	7959.6
484.004	8154.16
484.208	8021.04
484.412	7990.32
484.616	8131.63
484.821	8043.57
485.025	7928.88
485.229	8158.25
485.433	8125.49
485.637	8131.63
485.841	8156.21
486.045	8123.44
486.249	8029.23
486.453	8027.18
486.657	8143.92
486.861	8094.77
487.065	7894.07
487.269	8023.09
487.473	7887.92
487.677	8119.34
487.881	8186.93
488.085	8082.48
488.289	8182.83
488.493	8043.57
488.697	8363.05
488.901	8145.97
489.105	8160.3
489.309	8227.89
489.512	8047.66
489.716	8090.67
489.92	8070.19
490.124	8074.29
490.328	8344.62
490.531	8223.79
490.735	8559.66
490.939	8361
491.143	8379.43
491.346	8391.72
491.55	8543.27
491.754	8594.47
491.958	8586.28
492.161	8619.05
492.365	8340.52
492.569	8649.77
492.772	8438.83
492.976	8645.67
493.18	8645.67
493.383	8829.99
493.587	8977.44
493.79	8772.64
493.994	8809.51
494.197	8866.85
494.401	9024.54
494.605	8973.35
494.808	9288.73
495.012	9237.53
495.215	9262.11
495.419	9143.33
495.622	9210.91
495.825	9266.21
496.029	9305.12
496.232	9765.91
496.436	9671.7
496.639	9720.85
496.843	9888.79
497.046	9745.43
497.249	10259.47
497.453	10169.36
497.656	10294.29
497.859	10267.66
498.063	10435.6
498.266	10599.43
498.469	10738.69
498.673	10722.31
498.876	10957.83
499.079	11039.75
499.282	11160.58
499.485	11447.29
499.689	11262.97
499.892	11604.99
500.095	11426.81
500.298	11865.08
500.501	11615.23
500.705	11924.47
500.908	12278.77
501.111	12276.72
501.314	12256.24
501.517	12442.6
501.72	12508.14
501.923	12655.59
502.126	12954.6
502.329	12999.65
502.532	13251.55
502.735	13202.4
502.938	13460.45
503.141	13628.38
503.344	13827.03
503.547	13966.29
503.75	14281.68
503.953	14238.67
504.156	14377.94
504.359	14490.57
504.562	14717.9
504.765	14947.27
504.968	15147.97
505.17	15123.4
505.373	15254.47
505.576	15465.41
505.779	15891.38
505.982	15805.37
506.185	16061.37
506.387	16077.75
506.59	16286.64
506.793	16690.09
506.996	16599.98
507.198	16970.66
507.401	16837.55
507.604	17003.43
507.807	17615.77
508.009	17578.91
508.212	17873.82
508.415	18125.72
508.617	18135.96
508.82	18264.98
509.022	18346.9
509.225	18838.41
509.428	18946.95
509.63	19291.01
509.833	19254.15
510.035	19647.36
510.238	19417.99
510.44	19915.64
510.643	20126.58
510.845	20294.52
511.048	20409.2
511.25	20548.47
511.453	20650.86
511.655	21375.84
511.858	21207.91
512.06	21416.8
512.262	21824.35
512.465	21732.19
512.667	22358.87
512.87	22510.42
513.072	22496.08
513.274	22956.88
513.477	23075.66
513.679	23300.94
513.881	23401.29
514.084	23765.82
514.286	23741.25
514.488	23964.48
514.69	24681.27
514.893	24867.63
515.095	24980.27
515.297	25301.8
515.499	25422.63
515.701	25449.25
515.904	25969.44
516.106	26041.12
516.308	26450.71
516.51	26745.62
516.712	26919.7
516.914	26956.56
517.116	27702.02
517.318	27486.98
517.52	28044.03
517.722	27898.62
517.925	28050.17
518.127	28517.11
518.329	28932.85
518.531	28920.56
518.733	29381.35
518.935	29475.56
519.136	29799.14
519.338	30085.86
519.54	30307.04
519.742	30550.74
519.944	30841.56
520.146	31355.6
520.348	31040.21
520.55	31427.28
520.752	31509.19
520.954	32635.58
521.155	32166.59
521.357	32789.17
521.559	32750.26
521.761	33438.38
521.963	33596.07
522.164	33790.63
522.366	33540.78
522.568	33872.55
522.77	34319.01
522.971	35242.64
523.173	34493.08
523.375	35285.65
523.576	34857.62
523.778	35287.7
523.98	36278.91
524.181	35838.6
524.383	35918.47
524.584	36704.89
524.786	36749.95
524.988	36156.03
525.189	36803.19
525.391	37161.59
525.592	37513.84
525.794	37565.04
525.995	37698.16
526.197	37773.93
526.398	37397.1
526.6	38054.5
526.801	38386.27
527.003	38177.38
527.204	38466.14
527.406	38726.24
527.607	38941.27
527.808	38961.75
528.01	38486.62
528.211	39299.67
528.412	39539.28
528.614	39989.83
528.815	39746.12
529.016	40079.94
529.218	39668.3
529.419	40137.29
529.62	40389.19
529.822	39936.59
530.023	40018.5
530.224	40456.77
530.425	40446.53
530.626	40272.45
530.828	40428.1
531.029	41105.98
531.23	40827.45
531.431	40450.63
531.632	40739.39
531.833	40964.67
532.035	41228.85
532.236	41132.6
532.437	41464.37
532.638	41278
532.839	41267.76
533.04	41185.85
533.241	41337.4
533.442	41824.81
533.643	41187.89
533.844	41312.82
534.045	41732.65
534.246	41060.92
534.447	41699.89
534.648	41255.48
534.849	41663.02
535.05	41808.43
535.251	41810.48
535.451	41228.85
535.652	41480.75
535.853	41615.92
536.054	41638.45
536.255	41769.52
536.456	41513.52
536.657	41687.6
536.857	41343.54
537.058	41198.13
537.259	41849.39
537.46	41407.03
537.66	41605.68
537.861	42242.6
538.062	41550.38
538.263	42045.99
538.463	41712.17
538.664	41728.56
538.865	41859.63
539.065	42089
539.266	41339.44
539.466	42183.21
539.667	41337.4
539.868	41753.13
540.068	41980.46
540.269	42009.13
540.469	41894.44
540.67	41660.97
540.87	41910.83
541.071	41935.4
541.271	41706.03
541.472	41937.45
541.672	41558.58
541.873	41501.23
542.073	41179.7
542.274	41824.81
542.474	41767.47
542.675	41970.22
542.875	41937.45
543.075	41849.39
543.276	41028.15
543.476	41677.36
543.676	41404.98
543.877	42023.47
544.077	41495.09
544.277	41765.42
544.478	41534
544.678	41521.71
544.878	41626.16
545.078	41806.38
545.279	41763.37
545.479	41433.65
545.679	41706.03
545.879	41583.15
546.079	41710.13
546.28	41431.6
546.48	41210.42
546.68	41249.33
546.88	41853.48
547.08	41300.53
547.28	41441.84
547.48	41034.3
547.68	41388.6
547.88	41255.48
548.081	41271.86
548.281	41390.64
548.481	41116.22
548.681	41847.34
548.881	41685.55
549.081	41558.58
549.28	41316.92
549.48	41382.45
549.68	41654.83
549.88	41544.24
550.08	41050.68
550.28	41472.56
550.48	41142.84
550.68	41603.63
550.88	41280.05
551.08	41124.41
551.279	41462.32
551.479	40903.23
551.679	41105.98
551.879	40843.84
552.079	41269.81
552.278	40849.98
552.478	41232.95
552.678	40858.17
552.878	41300.53
553.077	41042.49
553.277	40931.9
553.477	41468.47
553.676	41067.06
553.876	40940.09
554.076	40831.55
554.275	40935.99
554.475	40464.96
554.674	40999.48
554.874	40768.06
555.074	40659.52
555.273	40946.23
555.473	40751.68
555.672	40622.65
555.872	40819.26
556.071	40530.5
556.271	40604.22
556.47	40507.97
556.67	40018.5
556.869	40174.15
557.068	40628.8
557.268	39977.54
557.467	40190.53
557.667	40178.25
557.866	40251.97
558.065	39961.16
558.265	39907.91
558.464	39389.78
558.663	40399.43
558.863	39490.13
559.062	40315.46
559.261	39309.91
559.461	39782.99
559.66	39510.61
559.859	39817.8
560.058	39404.11
560.258	39526.99
560.457	38883.93
560.656	39002.71
560.855	39187.03
561.054	39303.76
561.253	39023.19
561.453	39211.6
561.652	39060.05
561.851	38826.59
562.05	38515.29
562.249	38302.31
562.448	38842.97
562.647	38589.02
562.846	38589.02
563.045	38349.41
563.244	38201.96
563.443	38400.61
563.642	37775.98
563.841	38638.17
564.04	37597.8
564.239	38791.77
564.438	37591.66
564.637	37479.02
564.836	37450.35
565.035	37544.56
565.234	37712.49
565.432	37425.78
565.631	36977.27
565.83	37331.57
566.029	36932.22
566.228	37190.26
566.427	37104.24
566.625	36272.77
566.824	36430.46
567.023	36850.3
567.222	36106.88
567.42	36663.93
567.619	36491.9
567.818	36168.32
568.016	36160.13
568.215	36182.66
568.414	35879.56
568.612	36508.29
568.811	35885.7
569.01	35594.89
569.208	35404.43
569.407	35943.05
569.605	35070.61
569.804	35545.74
570.002	35025.56
570.201	35433.1
570.4	34886.29
570.598	34951.83
570.797	34742.94
570.995	34972.31
571.193	34284.19
571.392	34572.96
571.59	34486.94
571.789	34345.63
571.987	34054.82
572.186	33997.48
572.384	33661.61
572.582	33960.61
572.781	34177.7
572.979	33630.89
573.177	33522.35
573.376	33776.3
573.574	33559.21
573.772	33694.38
573.971	33333.93
574.169	33419.95
574.367	32891.57
574.565	33252.02
574.763	32789.17
574.962	32715.45
575.16	32197.31
575.358	32756.41
575.556	32295.61
575.754	32584.38
575.952	32025.28
576.151	32375.48
576.349	32121.54
576.547	31972.03
576.745	32068.29
576.943	32182.98
577.141	31718.09
577.339	31697.61
577.537	31541.96
577.735	31728.33
577.933	31525.58
578.131	31367.88
578.329	31097.55
578.527	31068.88
578.725	31146.7
578.923	30966.48
579.121	30819.03
579.319	30786.26
579.516	30806.74
579.714	30919.38
579.912	30259.93
580.11	30413.53
580.308	30495.45
580.506	30212.83
580.704	29905.63
580.901	30202.59
581.099	30188.25
581.297	29709.03
581.495	29649.64
581.692	29762.28
581.89	29709.03
582.088	29815.52
582.285	29008.62
582.483	29588.2
582.681	29430.51
582.878	29512.42
583.076	29151.98
583.274	29100.78
583.471	28883.7
583.669	28838.64
583.866	28814.07
584.064	29274.86
584.262	28472.06
584.459	28881.65
584.657	28461.82
584.854	28777.2
585.052	28236.54
585.249	28234.49
585.447	28601.08
585.644	27790.08
585.841	27900.67
586.039	27867.91
586.236	27517.7
586.434	27822.85
586.631	27329.29
586.828	27581.19
587.026	27599.62
587.223	27067.15
587.42	27558.66
587.618	27597.57
587.815	27005.71
588.012	27122.44
588.21	27009.81
588.407	27177.74
588.604	26762
588.801	26649.36
588.999	26850.06
589.196	26745.62
589.393	26559.25
589.59	26700.56
589.787	26356.5
589.984	26037.02
590.182	26049.31
590.379	26211.1
590.576	25961.25
590.773	26088.22
590.97	25723.68
591.167	25586.47
591.364	25508.65
591.561	25463.59
591.758	25455.4
591.955	25815.84
592.152	25531.17
592.349	25490.21
592.546	25473.83
592.743	25221.93
592.94	25062.19
593.137	25039.66
593.334	25183.02
593.531	24886.06
593.727	25322.28
593.924	25082.67
594.121	24816.43
594.318	24671.03
594.515	24259.38
594.712	24576.82
594.908	24247.1
595.105	24429.37
595.302	23884.61
595.499	24152.89
595.696	24245.05
595.892	23829.31
596.089	24195.9
596.286	24050.49
596.482	23782.21
596.679	23661.38
596.876	23661.38
597.072	23532.36
597.269	23550.79
597.466	23206.73
597.662	23401.29
597.859	23374.66
598.055	23493.44
598.252	23155.53
598.448	23001.93
598.645	22979.4
598.841	22999.88
599.038	22952.78
599.234	22729.55
599.431	22557.52
599.627	22782.8
599.824	22680.4
600.02	22403.92
600.217	22635.35
600.413	22340.44
600.609	22158.17
600.806	22291.29
601.002	22434.64
601.198	21963.61
601.395	21836.64
601.591	21984.09
601.787	21904.22
601.984	21865.31
602.18	21998.43
602.376	21795.68
602.572	21687.14
602.769	21771.1
602.965	21398.37
603.161	21748.57
603.357	21416.8
603.553	21279.59
603.75	21547.87
603.946	20994.92
604.142	21105.51
604.338	21119.85
604.534	20994.92
604.73	21005.16
604.926	20859.76
605.122	20794.22
605.318	20867.95
605.514	20714.35
605.71	20566.9
605.906	20482.93
606.102	20208.5
606.298	20280.18
606.494	20355.96
606.69	20185.97
606.886	19997.56
607.082	19815.29
607.278	20204.41
607.474	19919.74
607.67	20046.71
607.866	19667.84
608.062	20073.34
608.257	19788.67
608.453	19721.09
608.649	19800.96
608.845	19737.47
609.041	19788.67
609.236	19643.26
609.432	19663.74
609.628	19563.39
609.824	19653.5
610.019	19235.72
610.215	19440.51
610.411	19149.7
610.606	19501.95
610.802	19420.03
610.998	18987.91
611.193	19325.83
611.389	19145.61
611.584	18746.25
611.78	19092.36
611.976	18983.82
612.171	18795.4
612.367	18846.6
612.562	18713.49
612.758	18627.47
612.953	18400.15
613.149	18645.9
613.344	18539.41
613.539	18920.33
613.735	18549.65
613.93	18525.07
614.126	18516.88
614.321	18650
614.517	18604.94
614.712	18260.88
614.907	18095
615.103	18305.94
615.298	18199.44
615.493	18377.62
615.688	17951.64
615.884	18379.67
616.079	18088.85
616.274	17986.46
616.47	17914.78
616.665	17982.36
616.86	17888.15
617.055	17779.61
617.25	17769.37
617.445	17873.82
617.641	17556.38
617.836	17832.86
618.031	17329.06
618.226	17890.2
618.421	17359.78
618.616	17408.93
618.811	17365.92
619.006	17513.38
619.201	16671.66
619.396	17298.34
619.591	16970.66
619.786	17060.77
619.981	17034.15
620.176	17046.44
620.371	16774.06
620.566	17017.77
620.761	16974.76
620.956	16985
621.151	16563.12
621.346	16589.74
621.541	16286.64
621.735	16708.52
621.93	16143.28
622.125	16264.11
622.32	15979.45
622.515	15999.93
622.709	15944.63
622.904	15901.62
623.099	15717.31
623.294	15666.11
623.488	15631.29
623.683	15809.47
623.878	15246.27
624.072	15219.65
624.267	15492.03
624.462	15219.65
624.656	14984.13
624.851	15084.48
625.046	14814.15
625.24	14871.5
625.435	14762.95
625.629	14609.36
625.824	14597.07
626.018	14801.86
626.213	14345.17
626.407	14560.2
626.602	14345.17
626.796	14253.01
626.991	14226.39
627.185	14269.39
627.38	14052.31
627.574	13870.04
627.768	13857.75
627.963	13679.58
628.157	13630.43
628.352	13863.9
628.546	13487.07
628.74	13695.96
628.935	13593.56
629.129	13450.21
629.323	13208.55
629.517	13358.05
629.712	13011.94
629.906	13259.74
630.1	12784.62
630.294	12979.17
630.489	12805.1
630.683	13067.24
630.877	12624.87
631.071	12551.15
631.265	12628.97
631.459	12678.12
631.653	12569.58
631.848	12508.14
632.042	12389.36
632.236	12583.91
632.43	12078.07
632.624	12309.49
632.818	12168.18
633.012	11951.09
633.206	11938.8
633.4	12145.65
633.594	11721.72
633.788	11920.37
633.982	11719.67
634.176	11602.94
634.369	11695.1
634.563	11539.45
634.757	11645.94
634.951	11457.53
635.145	11531.26
635.339	11488.25
635.533	11187.2
635.726	11367.42
635.92	11062.27
636.114	11086.85
636.308	10947.59
636.501	10884.1
636.695	10916.87
636.889	10785.8
637.083	10460.17
637.276	10681.35
637.47	10628.1
637.664	10398.73
637.857	10503.18
638.051	10750.98
638.244	10396.68
638.438	10447.88
638.632	10288.14
638.825	10415.12
639.019	10187.79
639.212	10150.93
639.406	10052.63
639.599	9974.8
639.793	9939.99
639.986	9784.34
640.18	9882.64
640.373	9559.06
640.567	9509.91
640.76	9860.12
640.954	9704.47
641.147	9698.33
641.34	9585.69
641.534	9370.65
641.727	9384.99
641.92	9311.26
642.114	9223.2
642.307	9266.21
642.5	9270.3
642.694	9147.42
642.887	9049.12
643.08	9284.64
643.273	9112.61
643.467	9145.38
643.66	8995.87
643.853	8752.17
644.046	8789.03
644.239	8717.35
644.432	8639.53
644.626	8801.32
644.819	8639.53
645.012	8576.04
645.205	8555.56
645.398	8455.21
645.591	8367.15
645.784	8447.02
645.977	8248.36
646.17	8385.58
646.363	8139.82
646.556	8225.84
646.749	8283.18
646.942	8170.54
647.135	8016.94
647.328	8154.16
647.521	7889.97
647.714	7973.94
647.907	7826.48
648.099	8074.29
648.292	7889.97
648.485	7799.86
648.678	7711.8
648.871	7638.07
649.064	7629.88
649.256	7734.32
649.449	7654.45
649.642	7560.25
649.835	7433.27
650.027	7554.1
650.22	7521.34
650.413	7191.61
650.605	7459.9
650.798	7334.97
650.991	7300.16
651.183	7287.87
651.376	7193.66
651.568	7212.09
651.761	7277.63
651.954	7216.19
652.146	7101.5
652.339	6890.56
652.531	7019.58
652.724	6904.9
652.916	6757.44
653.109	6835.27
653.301	6917.19
653.494	6820.93
653.686	6634.57
653.879	6784.07
654.071	6722.63
654.263	6587.46
654.456	6546.5
654.648	6544.45
654.84	6505.54
655.033	6505.54
655.225	6437.96
655.417	6376.52
655.61	6493.26
655.802	6405.19
655.994	6310.99
656.186	6433.86
656.379	6222.92
656.571	6171.72
656.763	6134.86
656.955	6306.89
657.148	6181.96
657.34	6220.88
657.532	6069.33
657.724	5973.07
657.916	5958.74
658.108	6138.96
658.3	5938.26
658.492	5981.26
658.684	5999.7
658.876	5770.32
659.068	5784.66
659.26	5762.13
659.452	5790.8
659.644	5702.74
659.836	5792.85
660.028	5733.46
660.22	5694.55
660.412	5493.85
660.604	5491.8
660.796	5442.65
660.988	5551.19
661.18	5581.91
661.372	5497.94
661.563	5573.72
661.755	5319.77
661.947	5364.82
662.139	5309.53
662.331	5358.68
662.522	5264.47
662.714	5170.27
662.906	5231.71
663.097	5090.4
663.289	5207.13
663.481	5178.46
663.673	5334.11
663.864	5092.44
664.056	5114.97
664.247	4881.5
664.439	5076.06
664.631	5031.01
664.822	5088.35
665.014	4912.22
665.205	5008.48
665.397	4824.16
665.588	4965.47
665.78	4895.84
665.971	4732
666.163	4887.65
666.354	4807.78
666.546	4836.45
666.737	4662.37
666.929	4756.58
667.12	4656.23
667.311	4666.47
667.503	4654.18
667.694	4705.38
667.885	4629.6
668.077	4721.76
668.268	4494.44
668.459	4600.93
668.651	4607.08
668.842	4549.73
669.033	4557.93
669.224	4568.16
669.416	4467.81
669.607	4471.91
669.798	4297.83
669.989	4463.72
670.18	4422.76
670.371	4293.74
670.563	4283.5
670.754	4387.94
670.945	4226.15
671.136	4330.6
671.327	4320.36
671.518	4338.79
671.709	4220.01
671.9	4357.22
672.091	4246.63
672.282	4283.5
672.473	4220.01
672.664	4215.91
672.855	4246.63
673.046	4303.98
673.237	4258.92
673.428	4209.77
673.619	4168.81
673.809	4097.13
674	4103.28
674.191	4039.79
674.382	4103.28
674.573	4189.29
674.764	4131.95
674.954	4064.36
675.145	4033.65
675.336	4027.5
675.527	4068.46
675.717	3966.06
675.908	3966.06
676.099	3947.63
676.289	3878
676.48	3955.82
676.671	3873.9
676.861	3859.57
677.052	3882.1
677.243	3992.69
677.433	3869.81
677.624	3966.06
677.814	3751.03
678.005	3927.15
678.195	3921.01
678.386	3863.66
678.576	3675.25
678.767	3812.46
678.957	3818.61
679.148	3847.28
679.338	3730.55
679.529	3724.4
679.719	3720.31
679.909	3796.08
680.1	3789.94
680.29	3675.25
680.481	3751.03
680.671	3757.17
680.861	3763.31
681.052	3687.54
681.242	3613.81
681.432	3644.53
681.622	3527.8
681.813	3673.2
682.003	3695.73
682.193	3572.85
682.383	3576.95
682.573	3748.98
682.764	3562.61
682.954	3628.15
683.144	3613.81
683.334	3605.62
683.524	3490.93
683.714	3583.09
683.904	3452.02
684.094	3642.48
684.284	3714.16
684.474	3538.04
684.664	3611.76
684.854	3574.9
685.044	3486.84
685.234	3552.37
685.424	3597.43
685.614	3566.71
685.804	3456.12
685.994	3540.08
686.184	3349.62
686.374	3394.68
686.564	3353.72
686.753	3374.2
686.943	3331.19
687.133	3449.97
687.323	3427.45
687.513	3480.69
687.702	3341.43
687.892	3263.61
688.082	3288.18
688.272	3312.76
688.461	3406.97
688.651	3353.72
688.841	3388.53
689.03	3361.91
689.22	3372.15
689.41	3275.9
689.599	3249.27
689.789	3366.01
689.979	3284.09
690.168	3208.31
690.358	3226.75
690.547	3132.54
690.737	3200.12
690.926	3140.73
691.116	3087.48
691.305	3099.77
691.495	3296.38
691.684	3040.38
691.874	3110.01
692.063	3222.65
692.252	3110.01
692.442	3054.72
692.631	2980.99
692.82	3120.25
693.01	3038.33
693.199	3124.35
693.388	3024
693.578	3132.54
693.767	2944.13
693.956	2972.8
694.146	2997.37
694.335	2921.6
694.524	2933.89
694.713	2915.45
694.902	2942.08
695.092	3110.01
695.281	2980.99
695.47	3122.3
695.659	2948.22
695.848	2944.13
696.037	2847.87
696.226	2976.89
696.415	2974.85
696.604	2993.28
696.793	2882.69
696.982	2866.3
697.171	2983.04
697.36	3021.95
697.549	2970.75
697.738	2927.74
697.927	2911.36
698.116	2911.36
698.305	2915.45
698.494	2962.56
698.683	2878.59
698.872	2870.4
699.061	2948.22
699.25	2929.79
699.438	2970.75
699.627	2972.8
699.816	2942.08
700.005	2888.83
700.193	2839.68
700.382	2897.02
700.571	2942.08
700.76	2894.97
700.948	2903.17
701.137	2872.45
701.326	3044.48
701.514	2774.14
701.703	2897.02
701.892	2819.2
702.08	2927.74
702.269	2940.03
702.457	2843.78
702.646	2919.55
702.834	2876.54
703.023	2958.46
703.212	2817.15
703.4	2892.93
703.589	2825.34
703.777	2937.98
703.965	2919.55
704.154	2829.44
704.342	2985.09
704.531	3011.71
704.719	2958.46
704.907	2897.02
705.096	2849.92
705.284	2819.2
705.472	2851.97
705.661	2839.68
705.849	2974.85
706.037	2841.73
706.226	2788.48
706.414	2864.25
706.602	2739.33
706.79	2780.29
706.979	2837.63
707.167	2866.3
707.355	2878.59
707.543	2882.69
707.731	2919.55
707.919	2876.54
708.107	2866.3
708.296	2841.73
708.484	2718.85
708.672	2829.44
708.86	2858.11
709.048	2860.16
709.236	2880.64
709.424	2933.89
709.612	2757.76
709.8	2845.82
709.988	2993.28
710.176	2899.07
710.364	2800.77
710.551	2897.02
710.739	2765.95
710.927	2684.03
711.115	2866.3
711.303	2870.4
711.491	2823.3
711.679	2878.59
711.866	2747.52
712.054	2839.68
712.242	2811.01
712.43	2833.54
712.617	2776.19
712.805	2747.52
712.993	2827.39
713.181	2817.15
713.368	2733.18
713.556	2747.52
713.744	2817.15
713.931	2878.59
714.119	2849.92
714.306	2843.78
714.494	2673.79
714.682	2897.02
714.869	2811.01
715.057	2737.28
715.244	2802.82
715.432	2837.63
715.619	2720.9
715.807	2827.39
715.994	2788.48
716.182	2792.58
716.369	2622.59
716.556	2788.48
716.744	2733.18
716.931	2671.75
717.119	2821.25
717.306	2860.16
717.493	2798.72
717.681	2806.91
717.868	2780.29
718.055	2806.91
718.242	2765.95
718.43	2768
718.617	2718.85
718.804	2784.38
718.991	2798.72
719.179	2788.48
719.366	2759.81
719.553	2677.89
719.74	2749.57
719.927	2759.81
720.114	2813.06
720.301	2698.37
720.488	2712.71
720.676	2690.18
720.863	2749.57
721.05	2825.34
721.237	2665.6
721.424	2761.86
721.611	2630.79
721.798	2669.7
721.985	2735.23
722.172	2686.08
722.358	2661.51
722.545	2659.46
722.732	2512
722.919	2710.66
723.106	2684.03
723.293	2735.23
723.48	2694.27
723.667	2583.68
723.853	2464.9
724.04	2690.18
724.227	2579.59
724.414	2663.55
724.6	2706.56
724.787	2585.73
724.974	2522.24
725.161	2673.79
725.347	2665.6
725.534	2761.86
725.72	2589.83
725.907	2774.14
726.094	2651.27
726.28	2577.54
726.467	2727.04
726.653	2616.45
726.84	2520.2
727.027	2651.27
727.213	2612.35
727.4	2708.61
727.586	2575.49
727.773	2616.45
727.959	2514.05
728.145	2606.21
728.332	2542.72
728.518	2727.04
728.705	2536.58
728.891	2581.64
729.077	2598.02
729.264	2675.84
729.45	2563.2
729.636	2616.45
729.823	2587.78
730.009	2581.64
730.195	2643.07
730.382	2587.78
730.568	2520.2
730.754	2573.44
730.94	2643.07
731.126	2612.35
731.313	2593.92
731.499	2606.21
731.685	2481.28
731.871	2518.15
732.057	2391.17
732.243	2575.49
732.429	2561.16
732.615	2600.07
732.801	2442.37
732.987	2395.27
733.173	2624.64
733.359	2653.31
733.545	2542.72
733.731	2507.91
733.917	2534.53
734.103	2563.2
734.289	2495.62
734.475	2471.04
734.661	2516.1
734.847	2692.23
735.033	2518.15
735.219	2489.48
735.404	2569.35
735.59	2481.28
735.776	2499.72
735.962	2575.49
736.148	2481.28
736.333	2577.54
736.519	2425.99
736.705	2417.8
736.89	2473.09
737.076	2471.04
737.262	2352.26
737.447	2473.09
737.633	2407.56
737.819	2581.64
738.004	2436.23
738.19	2456.71
738.375	2442.37
738.561	2501.76
738.747	2358.41
738.932	2417.8
739.118	2542.72
739.303	2462.85
739.489	2458.76
739.674	2469
739.859	2403.46
740.045	2356.36
740.23	2450.57
740.416	2262.15
740.601	2395.27
740.786	2327.69
740.972	2407.56
741.157	2354.31
741.342	2323.59
741.528	2204.81
741.713	2235.53
741.898	2249.86
742.084	2333.83
742.269	2335.88
742.454	2247.82
742.639	2337.93
742.824	2225.29
743.01	2378.89
743.195	2266.25
743.38	2188.43
743.565	2288.78
743.75	2194.57
743.935	2116.75
744.12	2190.47
744.305	2213
744.49	2165.9
744.675	2288.78
744.86	2153.61
745.045	2124.94
745.23	2239.62
745.415	2079.88
745.6	2090.12
745.785	2030.73
745.97	2172.04
746.155	2147.47
746.34	2055.31
746.525	2116.75
746.71	2094.22
746.895	1995.92
747.079	2047.12
747.264	2010.25
747.449	2096.27
747.634	2057.36
747.819	1987.72
748.003	2118.79
748.188	2024.59
748.373	2096.27
748.557	1909.9
748.742	2000.01
748.927	1864.85
749.111	1807.5
749.296	1963.15
749.481	1918.09
749.665	1846.41
749.85	1942.67
750.034	1903.76
750.219	1922.19
750.404	1766.54
750.588	1803.41
750.773	1735.82
750.957	1780.88
751.141	1780.88
751.326	1778.83
751.51	1637.52
751.695	1682.58
751.879	1709.2
752.064	1735.82
752.248	1647.76
752.432	1787.02
752.617	1557.65
752.801	1717.39
752.985	1563.79
753.17	1621.14
753.354	1772.69
753.538	1676.43
753.722	1596.56
753.907	1533.08
754.091	1547.41
754.275	1574.03
754.459	1610.9
754.643	1576.08
754.828	1399.96
755.012	1555.6
755.196	1438.87
755.38	1617.04
755.564	1463.44
755.748	1434.77
755.932	1424.53
756.116	1510.55
756.3	1473.68
756.484	1391.77
756.668	1428.63
756.852	1367.19
757.036	1492.12
757.22	1428.63
757.404	1442.96
757.588	1338.52
757.772	1404.05
757.956	1299.61
758.14	1399.96
758.323	1285.27
758.507	1375.38
758.691	1418.39
758.875	1389.72
759.059	1307.8
759.242	1320.09
759.426	1281.18
759.61	1307.8
759.794	1420.44
759.977	1309.85
760.161	1320.09
760.345	1256.6
760.528	1232.02
760.712	1184.92
760.895	1268.89
761.079	1232.02
761.263	1125.53
761.446	1277.08
761.63	1186.97
761.813	1338.52
761.997	1160.34
762.18	1162.39
762.364	1133.72
762.547	1139.87
762.731	1221.78
762.914	1256.6
763.098	1057.95
763.281	1176.73
763.464	1049.75
763.648	1174.68
763.831	1084.57
764.015	1148.06
764.198	1174.68
764.381	1182.87
764.564	1182.87
764.748	1051.8
764.931	1117.34
765.114	1109.15
765.297	1182.87
765.481	1066.14
765.664	1033.37
765.847	1121.43
766.03	1107.1
766.213	1021.08
766.397	1113.24
766.58	1006.75
766.763	1074.33
766.946	1057.95
767.129	1148.06
767.312	1064.09
767.495	947.36
767.678	1012.89
767.861	1027.23
768.044	1031.32
768.227	996.51
768.41	1062.04
768.593	1014.94
768.776	947.36
768.959	1076.38
769.142	1019.04
769.324	1027.23
769.507	1025.18
769.69	920.73
769.873	965.79
770.056	998.56
770.239	998.56
770.421	922.78
770.604	951.45
770.787	918.68
770.97	957.6
771.152	943.26
771.335	916.64
771.518	928.92
771.7	879.77
771.883	904.35
772.066	980.12
772.248	879.77
772.431	924.83
772.613	951.45
772.796	933.02
772.978	900.25
773.161	988.32
773.343	773.28
773.526	910.49
773.708	851.1
773.891	842.91
774.073	861.34
774.256	801.95
774.438	881.82
774.621	838.81
774.803	834.72
774.985	847.01
775.168	926.88
775.35	703.65
775.532	750.75
775.715	769.18
775.897	795.81
776.079	804
776.261	840.86
776.444	787.61
776.626	791.71
776.808	744.61
776.99	830.62
777.173	797.85
777.355	769.18
777.537	769.18
777.719	785.57
777.901	697.5
778.083	752.8
778.265	691.36
778.447	654.5
778.629	683.17
778.811	754.85
778.993	670.88
779.175	681.12
779.357	705.7
779.539	691.36
779.721	638.11
779.903	662.69
780.085	619.68
780.267	670.88
780.449	572.58
780.631	617.63
780.812	638.11
780.994	625.83
781.176	611.49
781.358	595.11
781.54	619.68
781.721	584.87
781.903	648.35
782.085	640.16
782.267	570.53
782.448	478.37
782.63	599.2
782.812	603.3
782.993	580.77
783.175	617.63
783.357	556.19
783.538	455.84
783.72	511.14
783.901	607.39
784.083	515.23
784.264	582.82
784.446	552.1
784.627	480.42
784.809	564.39
784.99	535.71
785.172	586.91
785.353	492.71
785.535	533.67
785.716	482.47
785.897	461.99
786.079	586.91
786.26	529.57
786.441	523.43
786.623	453.8
786.804	478.37
786.985	459.94
787.167	453.8
787.348	439.46
787.529	447.65
787.71	412.84
787.891	439.46
788.073	464.04
788.254	455.84
788.435	470.18
788.616	449.7
788.797	453.8
788.978	552.1
789.159	402.6
789.34	437.41
789.522	369.83
789.703	361.64
789.884	455.84
790.065	433.32
790.246	406.69
790.427	447.65
790.607	378.02
790.788	351.4
790.969	353.45
791.15	433.32
791.331	392.36
791.512	316.58
791.693	400.55
791.874	343.21
792.054	437.41
792.235	380.07
792.416	349.35
792.597	410.79
792.778	412.84
792.958	341.16
793.139	427.17
793.32	345.25
793.5	330.92
793.681	388.26
793.862	384.16
794.042	367.78
794.223	332.97
794.404	371.88
794.584	320.68
794.765	265.38
794.945	378.02
795.126	345.25
795.306	283.81
795.487	314.53
795.667	345.25
795.848	402.6
796.028	359.59
796.209	330.92
796.389	263.33
796.57	332.97
796.75	263.33
796.93	343.21
797.111	357.54
797.291	277.67
797.471	269.48
797.652	267.43
797.832	343.21
798.012	330.92
798.192	267.43
798.373	251.05
798.553	326.82
798.733	292.01
798.913	205.99
799.093	304.29
799.274	304.29
799.454	298.15
799.634	271.53
799.814	253.09
799.994	287.91
800.174	242.85
800.354	292.01
800.534	238.76
800.714	265.38
800.894	335.01
801.074	300.2
801.254	281.77
801.434	320.68
801.614	208.04
801.794	216.23
801.974	656.54
802.154	261.29
802.334	220.33
802.514	208.04
802.693	220.33
802.873	265.38
803.053	306.34
803.233	306.34
803.413	279.72
803.592	238.76
803.772	189.61
803.952	203.94
804.131	271.53
804.311	255.14
804.491	259.24
804.67	150.7
804.85	244.9
805.03	251.05
805.209	341.16
805.389	203.94
805.568	197.8
805.748	230.57
805.928	244.9
806.107	312.49
806.287	187.56
806.466	197.8
806.646	232.62
806.825	199.85
807.004	246.95
807.184	224.42
807.363	224.42
807.543	238.76
807.722	203.94
807.901	179.37
808.081	214.18
808.26	183.46
808.439	62.63
808.619	199.85
808.798	146.6
808.977	232.62
809.156	177.32
809.336	212.14
809.515	173.22
809.694	156.84
809.873	189.61
810.052	220.33
810.231	160.94
810.411	205.99
810.59	171.18
810.769	142.5
810.948	205.99
811.127	205.99
811.306	154.79
811.485	111.78
811.664	142.5
811.843	246.95
812.022	218.28
812.201	216.23
812.38	177.32
812.559	134.31
812.737	148.65
812.916	199.85
813.095	162.98
813.274	171.18
813.453	249
813.632	197.8
813.811	156.84
813.989	226.47
814.168	212.14
814.347	126.12
814.526	122.02
814.704	130.22
814.883	197.8
815.062	138.41
815.24	119.98
815.419	119.98
815.598	144.55
815.776	72.87
815.955	185.51
816.133	74.92
816.312	160.94
816.49	154.79
816.669	101.55
816.847	230.57
817.026	183.46
817.204	85.16
817.383	175.27
817.561	113.83
817.74	232.62
817.918	140.46
818.097	195.75
818.275	87.21
818.453	128.17
818.632	205.99
818.81	173.22
818.988	152.74
819.167	167.08
819.345	189.61
819.523	93.35
819.701	95.4
819.879	119.98
820.058	181.42
820.236	169.13
820.414	152.74
820.592	144.55
820.77	93.35
820.948	134.31
821.127	119.98
821.305	158.89
821.483	107.69
821.661	113.83
821.839	154.79
822.017	152.74
822.195	115.88
822.373	70.83
822.551	134.31
822.729	175.27
822.907	68.78
823.085	111.78
823.262	97.45
823.44	76.97
823.618	58.54
823.796	117.93
823.974	91.31
824.152	124.07
824.329	58.54
824.507	134.31
824.685	97.45
824.863	152.74
825.04	81.07
825.218	140.46
825.396	126.12
825.574	83.11
825.751	142.5
825.929	107.69
826.107	31.91
826.284	115.88
826.462	36.01
826.639	64.68
826.817	44.2
826.994	107.69
827.172	89.26
827.349	138.41
827.527	76.97
827.704	103.59
827.882	85.16
828.059	64.68
828.237	132.26
828.414	148.65
828.591	101.55
828.769	50.35
828.946	38.06
829.124	136.36
829.301	142.5
829.478	136.36
829.655	95.4
829.833	87.21
830.01	85.16
830.187	158.89
830.364	19.63
830.542	146.6
830.719	142.5
830.896	25.77
831.073	54.44
831.25	124.07
831.427	76.97
831.604	101.55
831.782	107.69
831.959	56.49
832.136	33.96
832.313	91.31
832.49	93.35
832.667	91.31
832.844	17.58
833.021	79.02
833.198	70.83
833.374	83.11
833.551	101.55
833.728	79.02
833.905	130.22
834.082	91.31
834.259	119.98
834.436	122.02
834.612	72.87
834.789	60.59
834.966	23.72
835.143	117.93
835.319	48.3
835.496	70.83
835.673	122.02
835.85	1.19
836.026	85.16
836.203	117.93
836.38	119.98
836.556	64.68
836.733	68.78
836.909	119.98
837.086	79.02
837.262	162.98
837.439	115.88
837.616	-2.9
837.792	109.74
837.968	44.2
838.145	42.15
838.321	103.59
838.498	103.59
838.674	93.35
838.851	81.07
839.027	66.73
839.203	44.2
839.38	54.44
839.556	72.87
839.732	144.55
839.909	36.01
840.085	31.91
840.261	13.48
840.437	89.26
840.614	99.5
840.79	132.26
840.966	-4.95
841.142	74.92
841.318	46.25
841.494	74.92
841.671	21.67
841.847	91.31
842.023	-15.19
842.199	134.31
842.375	50.35
842.551	68.78
842.727	56.49
842.903	60.59
843.079	42.15
843.255	64.68
843.431	-4.95
843.607	105.64
843.783	113.83
843.959	111.78
844.134	70.83
844.31	79.02
844.486	9.39
844.662	79.02
844.838	-17.24
845.013	79.02
845.189	109.74
845.365	7.34
845.541	-11.09
845.716	56.49
845.892	46.25
846.068	29.87
846.244	15.53
846.419	40.11
846.595	27.82
846.77	-2.9
846.946	58.54
847.122	95.4
847.297	56.49
847.473	117.93
847.648	-54.1
847.824	42.15
847.999	-47.96
848.175	81.07
848.35	85.16
848.526	38.06
848.701	126.12
848.876	33.96
849.052	76.97
849.227	68.78
849.403	56.49
849.578	93.35
849.753	44.2
849.929	27.82
850.104	-17.24
850.279	40.11
850.454	97.45
850.63	44.2
850.805	-9.05
850.98	50.35
851.155	23.72
851.33	52.39
851.505	-29.52
851.681	72.87
851.856	3.24
852.031	76.97
852.206	60.59
852.381	38.06
852.556	60.59
852.731	-37.72
852.906	33.96
853.081	74.92
853.256	3.24
853.431	-37.72
853.606	70.83
853.781	48.3
853.956	-33.62
854.131	9.39
854.305	21.67
854.48	-39.76
854.655	70.83
854.83	44.2
855.005	-0.85
855.18	-0.85
855.354	83.11
855.529	46.25
855.704	97.45
855.879	7.34
856.053	11.43
856.228	-50
856.403	62.63
856.577	-21.33
856.752	25.77
856.926	58.54
857.101	29.87
857.276	97.45
857.45	85.16
857.625	31.91
857.799	97.45
857.974	62.63
858.148	-9.05
858.323	-29.52
858.497	-2.9
858.672	64.68
858.846	1.19
859.02	52.39
859.195	7.34
859.369	11.43
859.543	58.54
859.718	27.82
859.892	27.82
860.066	33.96
860.241	128.17
860.415	-41.81
860.589	89.26
860.763	-4.95
860.938	31.91
861.112	-37.72
861.286	13.48
861.46	-17.24
861.634	11.43
861.808	9.39
861.982	36.01
862.157	1.19
862.331	-9.05
862.505	-29.52
862.679	-13.14
862.853	48.3
863.027	109.74
863.201	83.11
863.375	-17.24
863.549	17.58
863.722	46.25
863.896	117.93
864.07	-23.38
864.244	-17.24
864.418	13.48
864.592	-25.43
864.766	-9.05
864.939	7.34
865.113	27.82
865.287	9.39
865.461	-27.48
865.634	1.19
865.808	1.19
865.982	-15.19
866.156	-4.95
866.329	70.83
866.503	-7
866.676	-7
866.85	23.72
867.024	79.02
867.197	-0.85
867.371	15.53
867.544	-13.14
867.718	-4.95
867.891	56.49
868.065	-7
868.238	-2.9
868.412	52.39
868.585	31.91
868.759	1.19
868.932	-33.62
869.105	29.87
869.279	-31.57
869.452	68.78
869.625	64.68
869.799	7.34
869.972	-35.67
870.145	52.39
870.319	21.67
870.492	-29.52
870.665	27.82
870.838	7.34
871.011	3.24
871.185	-50
871.358	-15.19
871.531	74.92
871.704	-0.85
871.877	66.73
872.05	-0.85
872.223	36.01
872.396	97.45
872.569	27.82
872.742	68.78
872.915	-19.29
873.088	54.44
873.261	3.24
873.434	1.19
873.607	-13.14
873.78	19.63
873.953	40.11
874.126	46.25
874.299	3.24
874.471	-56.15
874.644	62.63
874.817	11.43
874.99	42.15
875.163	54.44
875.335	27.82
875.508	-136.02
875.681	25.77
875.853	56.49
876.026	-7
876.199	56.49
876.371	-29.52
876.544	13.48
876.717	9.39
876.889	-25.43
877.062	58.54
877.234	-0.85
877.407	36.01
877.579	-15.19
877.752	5.29
877.924	-21.33
878.097	-13.14
878.269	23.72
878.442	-11.09
878.614	76.97
878.786	46.25
878.959	-56.15
879.131	72.87
879.303	9.39
879.476	15.53
879.648	50.35
879.82	33.96
879.993	-70.48
880.165	64.68
880.337	-47.96
880.509	-2.9
880.681	23.72
880.854	25.77
881.026	31.91
881.198	81.07
881.37	-33.62
881.542	-7
881.714	-47.96
881.886	-4.95
882.058	33.96
882.23	-39.76
882.402	36.01
882.574	23.72
882.746	27.82
882.918	29.87
883.09	19.63
883.262	-7
883.434	33.96
883.606	42.15
883.778	-4.95
883.95	-17.24
884.122	85.16
884.293	95.4
884.465	-56.15
884.637	-9.05
884.809	38.06
884.98	-15.19
885.152	-9.05
885.324	3.24
885.496	27.82
885.667	-43.86
885.839	-11.09
886.011	29.87
886.182	-4.95
886.354	44.2
886.525	-66.39
886.697	40.11
886.869	-39.76
887.04	-0.85
887.212	11.43
887.383	81.07
887.555	68.78
887.726	-45.91
887.897	-0.85
888.069	-7
888.24	33.96
888.412	5.29
888.583	-31.57
888.754	21.67
888.926	19.63
889.097	36.01
889.268	38.06
889.44	44.2
889.611	-2.9
889.782	9.39
889.953	7.34
890.125	11.43
890.296	9.39
890.467	-19.29
890.638	7.34
890.809	-50
890.98	-17.24
891.151	54.44
891.323	-27.48
891.494	33.96
891.665	64.68
891.836	-7
892.007	-37.72
892.178	-7
892.349	19.63
892.52	36.01
892.691	-21.33
892.862	-25.43
893.032	-72.53
893.203	27.82
893.374	-133.97
893.545	15.53
893.716	3.24
893.887	21.67
894.057	74.92
894.228	-2.9
894.399	-43.86
894.57	64.68
894.74	21.67
894.911	-9.05
895.082	23.72
895.253	-4.95
895.423	23.72
895.594	-23.38
895.764	-21.33
895.935	9.39
896.106	3.24
896.276	48.3
896.447	50.35
896.617	-23.38
896.788	15.53
896.958	91.31
897.129	21.67
897.299	-43.86
897.47	40.11
897.64	130.22
897.81	-13.14
897.981	17.58
898.151	-2.9
898.322	-21.33
898.492	48.3
898.662	58.54
898.832	-33.62
899.003	38.06
899.173	-27.48
899.343	3.24
899.513	-54.1
