Data from USB4F104151__156__11-08-32-070.txt Node

Date: Wed Mar 12 11:08:32 EDT 2025
User: louis
Spectrometer: USB4F10415
Trigger mode: 4
Integration Time (sec): 2.000000E-2
Scans to average: 1
Electric dark correction enabled: true
Nonlinearity correction enabled: false
Boxcar width: 0
XAxis mode: Wavelengths
Number of Pixels in Spectrum: 3648
>>>>>Begin Spectral Data<<<<<
178.204	-46.08
178.424	-46.08
178.644	-46.08
178.864	-44.03
179.084	-109.57
179.304	52.22
179.524	-17.41
179.744	7.17
179.964	33.79
180.184	-3.07
180.404	70.65
180.624	-62.46
180.844	-1.02
181.064	-76.8
181.283	-21.5
181.503	-33.79
181.723	52.22
181.943	5.12
182.163	89.09
182.383	64.51
182.602	50.18
182.822	64.51
183.042	5.12
183.262	-7.17
183.482	39.94
183.701	15.36
183.921	31.74
184.141	-3.07
184.361	138.24
184.58	-1.02
184.8	7.17
185.02	39.94
185.239	48.13
185.459	25.6
185.679	72.7
185.898	-37.89
186.118	25.6
186.338	-5.12
186.557	93.18
186.777	29.7
186.997	74.75
187.216	15.36
187.436	25.6
187.655	29.7
187.875	21.5
188.095	9.22
188.314	39.94
188.534	109.57
188.753	3.07
188.973	68.61
189.192	15.36
189.412	17.41
189.631	21.5
189.851	82.94
190.07	64.51
190.29	-11.26
190.509	37.89
190.729	-31.74
190.948	44.03
191.168	82.94
191.387	99.33
191.607	33.79
191.826	44.03
192.045	27.65
192.265	23.55
192.484	3.07
192.704	-60.42
192.923	-9.22
193.142	44.03
193.362	44.03
193.581	62.46
193.8	-11.26
194.02	-5.12
194.239	11.26
194.458	89.09
194.678	-37.89
194.897	1.02
195.116	66.56
195.335	-15.36
195.555	29.7
195.774	44.03
195.993	33.79
196.212	44.03
196.432	-21.5
196.651	9.22
196.87	-27.65
197.089	78.85
197.308	97.28
197.528	72.7
197.747	3.07
197.966	11.26
198.185	138.24
198.404	1.02
198.623	80.89
198.842	31.74
199.062	44.03
199.281	115.71
199.5	15.36
199.719	54.27
199.938	48.13
200.157	29.7
200.376	101.37
200.595	-11.26
200.814	115.71
201.033	27.65
201.252	95.23
201.471	84.99
201.69	76.8
201.909	54.27
202.128	58.37
202.347	-23.55
202.566	17.41
202.785	-9.22
203.004	39.94
203.223	93.18
203.442	13.31
203.661	-11.26
203.879	93.18
204.098	35.84
204.317	23.55
204.536	39.94
204.755	39.94
204.974	103.42
205.193	-23.55
205.411	35.84
205.63	1.02
205.849	13.31
206.068	39.94
206.287	5.12
206.505	54.27
206.724	15.36
206.943	50.18
207.162	82.94
207.381	62.46
207.599	46.08
207.818	-19.46
208.037	66.56
208.255	9.22
208.474	70.65
208.693	89.09
208.911	54.27
209.13	35.84
209.349	39.94
209.567	136.19
209.786	101.37
210.005	82.94
210.223	103.42
210.442	3.07
210.661	41.98
210.879	27.65
211.098	-5.12
211.316	46.08
211.535	-31.74
211.753	-17.41
211.972	-84.99
212.191	11.26
212.409	33.79
212.628	66.56
212.846	-25.6
213.065	132.09
213.283	62.46
213.502	82.94
213.72	58.37
213.938	19.46
214.157	101.37
214.375	33.79
214.594	27.65
214.812	23.55
215.031	-70.65
215.249	-21.5
215.467	-5.12
215.686	50.18
215.904	66.56
216.122	97.28
216.341	74.75
216.559	1.02
216.778	39.94
216.996	58.37
217.214	60.42
217.432	-9.22
217.651	80.89
217.869	-11.26
218.087	103.42
218.306	111.61
218.524	54.27
218.742	50.18
218.96	44.03
219.179	60.42
219.397	87.04
219.615	17.41
219.833	107.52
220.051	60.42
220.27	76.8
220.488	39.94
220.706	-31.74
220.924	68.61
221.142	87.04
221.36	21.5
221.578	52.22
221.796	84.99
222.015	5.12
222.233	-1.02
222.451	125.95
222.669	1.02
222.887	5.12
223.105	-39.94
223.323	25.6
223.541	-95.23
223.759	48.13
223.977	97.28
224.195	17.41
224.413	-29.7
224.631	-1.02
224.849	97.28
225.067	25.6
225.285	9.22
225.503	13.31
225.721	-17.41
225.939	-1.02
226.157	58.37
226.375	50.18
226.592	29.7
226.81	21.5
227.028	54.27
227.246	56.32
227.464	-9.22
227.682	105.47
227.9	35.84
228.117	-25.6
228.335	50.18
228.553	29.7
228.771	70.65
228.989	-3.07
229.206	91.13
229.424	15.36
229.642	-7.17
229.86	37.89
230.077	64.51
230.295	17.41
230.513	25.6
230.731	58.37
230.948	-9.22
231.166	25.6
231.384	31.74
231.601	-7.17
231.819	27.65
232.037	11.26
232.254	66.56
232.472	72.7
232.689	17.41
232.907	99.33
233.125	35.84
233.342	35.84
233.56	54.27
233.777	-7.17
233.995	39.94
234.213	64.51
234.43	15.36
234.648	62.46
234.865	44.03
235.083	70.65
235.3	11.26
235.518	-44.03
235.735	17.41
235.953	-5.12
236.17	29.7
236.388	15.36
236.605	37.89
236.822	52.22
237.04	15.36
237.257	66.56
237.475	-19.46
237.692	-29.7
237.909	82.94
238.127	44.03
238.344	80.89
238.562	44.03
238.779	48.13
238.996	44.03
239.214	58.37
239.431	68.61
239.648	9.22
239.865	103.42
240.083	25.6
240.3	-1.02
240.517	35.84
240.735	52.22
240.952	-11.26
241.169	35.84
241.386	62.46
241.603	9.22
241.821	50.18
242.038	84.99
242.255	48.13
242.472	29.7
242.689	-56.32
242.907	99.33
243.124	23.55
243.341	72.7
243.558	13.31
243.775	89.09
243.992	-41.98
244.209	39.94
244.426	33.79
244.643	52.22
244.86	37.89
245.078	103.42
245.295	138.24
245.512	54.27
245.729	9.22
245.946	11.26
246.163	60.42
246.38	62.46
246.597	27.65
246.814	25.6
247.031	41.98
247.248	101.37
247.464	31.74
247.681	46.08
247.898	48.13
248.115	17.41
248.332	31.74
248.549	101.37
248.766	78.85
248.983	119.81
249.2	19.46
249.417	62.46
249.633	-15.36
249.85	72.7
250.067	21.5
250.284	-25.6
250.501	123.9
250.717	31.74
250.934	-41.98
251.151	68.61
251.368	52.22
251.585	-9.22
251.801	33.79
252.018	33.79
252.235	-23.55
252.451	-33.79
252.668	-7.17
252.885	33.79
253.102	64.51
253.318	80.89
253.535	50.18
253.752	68.61
253.968	3.07
254.185	-44.03
254.401	119.81
254.618	15.36
254.835	21.5
255.051	93.18
255.268	74.75
255.484	50.18
255.701	29.7
255.917	58.37
256.134	3.07
256.351	46.08
256.567	17.41
256.784	105.47
257	-9.22
257.217	23.55
257.433	-31.74
257.65	78.85
257.866	21.5
258.082	-7.17
258.299	7.17
258.515	31.74
258.732	62.46
258.948	15.36
259.165	33.79
259.381	50.18
259.597	44.03
259.814	15.36
260.03	46.08
260.246	80.89
260.463	39.94
260.679	56.32
260.895	46.08
261.112	33.79
261.328	-7.17
261.544	62.46
261.761	37.89
261.977	-5.12
262.193	1.02
262.409	154.62
262.626	1.02
262.842	-11.26
263.058	27.65
263.274	27.65
263.49	33.79
263.707	115.71
263.923	89.09
264.139	-15.36
264.355	-39.94
264.571	44.03
264.787	37.89
265.004	46.08
265.22	48.13
265.436	17.41
265.652	44.03
265.868	60.42
266.084	-1.02
266.3	33.79
266.516	-1.02
266.732	76.8
266.948	19.46
267.164	39.94
267.38	72.7
267.596	21.5
267.812	-1.02
268.028	37.89
268.244	39.94
268.46	-3.07
268.676	27.65
268.892	39.94
269.108	17.41
269.324	-29.7
269.54	-15.36
269.756	19.46
269.972	23.55
270.188	50.18
270.403	39.94
270.619	54.27
270.835	-5.12
271.051	-7.17
271.267	25.6
271.483	1.02
271.698	-9.22
271.914	72.7
272.13	9.22
272.346	46.08
272.562	58.37
272.777	78.85
272.993	21.5
273.209	54.27
273.425	23.55
273.64	66.56
273.856	84.99
274.072	136.19
274.287	15.36
274.503	66.56
274.719	115.71
274.934	5.12
275.15	-46.08
275.366	74.75
275.581	56.32
275.797	-11.26
276.012	50.18
276.228	103.42
276.444	23.55
276.659	46.08
276.875	87.04
277.09	29.7
277.306	-23.55
277.521	41.98
277.737	-3.07
277.952	33.79
278.168	27.65
278.383	76.8
278.599	17.41
278.814	46.08
279.03	154.62
279.245	-27.65
279.461	-17.41
279.676	50.18
279.892	7.17
280.107	68.61
280.322	29.7
280.538	89.09
280.753	68.61
280.969	3.07
281.184	117.76
281.399	103.42
281.615	70.65
281.83	119.81
282.045	70.65
282.26	35.84
282.476	3.07
282.691	56.32
282.906	9.22
283.122	-82.94
283.337	78.85
283.552	50.18
283.767	37.89
283.983	97.28
284.198	9.22
284.413	60.42
284.628	31.74
284.843	97.28
285.058	46.08
285.274	39.94
285.489	-68.61
285.704	68.61
285.919	-15.36
286.134	99.33
286.349	-11.26
286.564	33.79
286.779	46.08
286.995	-37.89
287.21	11.26
287.425	21.5
287.64	-9.22
287.855	123.9
288.07	60.42
288.285	21.5
288.5	93.18
288.715	-21.5
288.93	35.84
289.145	74.75
289.36	128
289.575	15.36
289.79	78.85
290.004	78.85
290.219	56.32
290.434	-23.55
290.649	17.41
290.864	41.98
291.079	72.7
291.294	19.46
291.509	25.6
291.724	93.18
291.938	111.61
292.153	33.79
292.368	29.7
292.583	99.33
292.798	72.7
293.012	-7.17
293.227	21.5
293.442	37.89
293.657	99.33
293.871	93.18
294.086	23.55
294.301	54.27
294.516	-1.02
294.73	29.7
294.945	62.46
295.16	72.7
295.374	87.04
295.589	62.46
295.804	19.46
296.018	93.18
296.233	66.56
296.447	58.37
296.662	19.46
296.877	35.84
297.091	97.28
297.306	52.22
297.52	66.56
297.735	29.7
297.949	7.17
298.164	91.13
298.378	109.57
298.593	-15.36
298.807	23.55
299.022	37.89
299.236	41.98
299.451	41.98
299.665	60.42
299.88	56.32
300.094	39.94
300.309	25.6
300.523	31.74
300.737	7.17
300.952	41.98
301.166	66.56
301.381	54.27
301.595	37.89
301.809	1.02
302.024	99.33
302.238	-7.17
302.452	-5.12
302.667	17.41
302.881	70.65
303.095	103.42
303.309	46.08
303.524	78.85
303.738	50.18
303.952	3.07
304.166	68.61
304.381	15.36
304.595	91.13
304.809	25.6
305.023	58.37
305.237	3.07
305.452	46.08
305.666	31.74
305.88	56.32
306.094	39.94
306.308	82.94
306.522	115.71
306.736	54.27
306.95	-1.02
307.164	41.98
307.379	52.22
307.593	72.7
307.807	-21.5
308.021	74.75
308.235	3.07
308.449	-25.6
308.663	70.65
308.877	50.18
309.091	50.18
309.305	31.74
309.519	-19.46
309.733	87.04
309.947	-37.89
310.161	70.65
310.374	50.18
310.588	64.51
310.802	76.8
311.016	-7.17
311.23	21.5
311.444	25.6
311.658	62.46
311.872	64.51
312.085	62.46
312.299	37.89
312.513	17.41
312.727	-33.79
312.941	82.94
313.154	-35.84
313.368	70.65
313.582	25.6
313.796	56.32
314.009	54.27
314.223	68.61
314.437	17.41
314.651	66.56
314.864	54.27
315.078	25.6
315.292	-25.6
315.505	33.79
315.719	70.65
315.933	144.38
316.146	66.56
316.36	60.42
316.573	117.76
316.787	44.03
317.001	-23.55
317.214	64.51
317.428	9.22
317.641	21.5
317.855	39.94
318.068	148.48
318.282	-1.02
318.495	15.36
318.709	17.41
318.922	35.84
319.136	117.76
319.349	41.98
319.563	121.85
319.776	54.27
319.99	-11.26
320.203	91.13
320.417	78.85
320.63	60.42
320.843	117.76
321.057	3.07
321.27	50.18
321.483	7.17
321.697	48.13
321.91	95.23
322.124	64.51
322.337	91.13
322.55	80.89
322.763	72.7
322.977	50.18
323.19	80.89
323.403	54.27
323.617	-9.22
323.83	-1.02
324.043	15.36
324.256	1.02
324.469	54.27
324.683	37.89
324.896	82.94
325.109	7.17
325.322	-33.79
325.535	101.37
325.748	29.7
325.962	15.36
326.175	35.84
326.388	128
326.601	-23.55
326.814	35.84
327.027	66.56
327.24	54.27
327.453	35.84
327.666	7.17
327.879	68.61
328.092	13.31
328.305	-25.6
328.518	37.89
328.731	87.04
328.944	5.12
329.157	76.8
329.37	-7.17
329.583	115.71
329.796	33.79
330.009	25.6
330.222	50.18
330.435	93.18
330.648	93.18
330.861	11.26
331.073	5.12
331.286	64.51
331.499	41.98
331.712	84.99
331.925	-19.46
332.138	13.31
332.35	80.89
332.563	21.5
332.776	119.81
332.989	48.13
333.202	128
333.414	82.94
333.627	91.13
333.84	11.26
334.053	37.89
334.265	64.51
334.478	-41.98
334.691	84.99
334.903	99.33
335.116	72.7
335.329	44.03
335.541	130.05
335.754	76.8
335.966	11.26
336.179	48.13
336.392	60.42
336.604	-15.36
336.817	84.99
337.029	50.18
337.242	-44.03
337.454	3.07
337.667	37.89
337.88	84.99
338.092	54.27
338.305	25.6
338.517	21.5
338.729	48.13
338.942	-7.17
339.154	60.42
339.367	99.33
339.579	60.42
339.792	56.32
340.004	-5.12
340.217	-23.55
340.429	25.6
340.641	33.79
340.854	82.94
341.066	-11.26
341.278	107.52
341.491	31.74
341.703	15.36
341.915	37.89
342.128	136.19
342.34	35.84
342.552	-41.98
342.764	46.08
342.977	48.13
343.189	46.08
343.401	29.7
343.613	41.98
343.826	46.08
344.038	46.08
344.25	46.08
344.462	41.98
344.674	23.55
344.886	76.8
345.099	27.65
345.311	9.22
345.523	70.65
345.735	80.89
345.947	138.24
346.159	74.75
346.371	142.33
346.583	66.56
346.795	95.23
347.007	76.8
347.219	84.99
347.431	84.99
347.643	54.27
347.855	44.03
348.067	29.7
348.279	62.46
348.491	39.94
348.703	21.5
348.915	25.6
349.127	17.41
349.339	39.94
349.551	52.22
349.763	152.57
349.975	39.94
350.187	82.94
350.399	46.08
350.61	46.08
350.822	48.13
351.034	31.74
351.246	76.8
351.458	82.94
351.669	74.75
351.881	23.55
352.093	1.02
352.305	9.22
352.517	168.96
352.728	48.13
352.94	56.32
353.152	72.7
353.363	19.46
353.575	-35.84
353.787	103.42
353.999	107.52
354.21	130.05
354.422	93.18
354.633	70.65
354.845	93.18
355.057	87.04
355.268	76.8
355.48	39.94
355.692	37.89
355.903	68.61
356.115	70.65
356.326	-7.17
356.538	142.33
356.749	80.89
356.961	87.04
357.172	-13.31
357.384	41.98
357.595	121.85
357.807	15.36
358.018	66.56
358.23	50.18
358.441	119.81
358.653	41.98
358.864	39.94
359.075	52.22
359.287	54.27
359.498	121.85
359.709	78.85
359.921	58.37
360.132	-17.41
360.344	87.04
360.555	50.18
360.766	74.75
360.977	64.51
361.189	41.98
361.4	82.94
361.611	166.91
361.823	64.51
362.034	99.33
362.245	1.02
362.456	-7.17
362.667	-15.36
362.879	72.7
363.09	-9.22
363.301	78.85
363.512	99.33
363.723	123.9
363.935	23.55
364.146	119.81
364.357	21.5
364.568	31.74
364.779	60.42
364.99	132.09
365.201	35.84
365.412	60.42
365.623	-13.31
365.834	91.13
366.045	-27.65
366.256	87.04
366.467	13.31
366.678	78.85
366.889	-41.98
367.1	56.32
367.311	105.47
367.522	76.8
367.733	7.17
367.944	119.81
368.155	58.37
368.366	60.42
368.577	23.55
368.788	70.65
368.999	3.07
369.209	76.8
369.42	154.62
369.631	144.38
369.842	76.8
370.053	64.51
370.264	25.6
370.474	25.6
370.685	15.36
370.896	60.42
371.107	95.23
371.317	74.75
371.528	84.99
371.739	107.52
371.95	56.32
372.16	136.19
372.371	52.22
372.582	37.89
372.792	56.32
373.003	87.04
373.214	21.5
373.424	125.95
373.635	48.13
373.846	105.47
374.056	123.9
374.267	44.03
374.477	140.29
374.688	46.08
374.898	-27.65
375.109	13.31
375.319	66.56
375.53	105.47
375.74	58.37
375.951	7.17
376.161	82.94
376.372	89.09
376.582	39.94
376.793	70.65
377.003	62.46
377.214	87.04
377.424	60.42
377.635	29.7
377.845	107.52
378.055	48.13
378.266	46.08
378.476	113.66
378.686	74.75
378.897	84.99
379.107	3.07
379.317	160.77
379.528	50.18
379.738	115.71
379.948	-1.02
380.158	5.12
380.369	-25.6
380.579	84.99
380.789	80.89
380.999	74.75
381.21	31.74
381.42	138.24
381.63	-33.79
381.84	119.81
382.05	56.32
382.261	80.89
382.471	41.98
382.681	7.17
382.891	80.89
383.101	109.57
383.311	87.04
383.521	54.27
383.731	115.71
383.941	95.23
384.151	27.65
384.361	123.9
384.571	132.09
384.781	25.6
384.991	64.51
385.201	84.99
385.411	146.43
385.621	70.65
385.831	93.18
386.041	7.17
386.251	80.89
386.461	115.71
386.671	89.09
386.881	148.48
387.091	148.48
387.301	99.33
387.511	31.74
387.72	72.7
387.93	111.61
388.14	21.5
388.35	44.03
388.56	125.95
388.769	115.71
388.979	48.13
389.189	9.22
389.399	117.76
389.609	66.56
389.818	93.18
390.028	121.85
390.238	70.65
390.447	84.99
390.657	-1.02
390.867	84.99
391.076	62.46
391.286	66.56
391.496	64.51
391.705	91.13
391.915	103.42
392.125	105.47
392.334	21.5
392.544	41.98
392.753	111.61
392.963	74.75
393.172	89.09
393.382	103.42
393.591	136.19
393.801	123.9
394.01	144.38
394.22	76.8
394.429	130.05
394.639	87.04
394.848	142.33
395.058	99.33
395.267	93.18
395.477	138.24
395.686	68.61
395.895	146.43
396.105	132.09
396.314	181.25
396.524	109.57
396.733	115.71
396.942	132.09
397.152	105.47
397.361	60.42
397.57	115.71
397.78	183.29
397.989	48.13
398.198	144.38
398.407	146.43
398.617	119.81
398.826	105.47
399.035	125.95
399.244	189.44
399.453	136.19
399.663	74.75
399.872	70.65
400.081	87.04
400.29	148.48
400.499	179.2
400.708	171.01
400.917	115.71
401.127	140.29
401.336	142.33
401.545	175.1
401.754	177.15
401.963	146.43
402.172	148.48
402.381	214.01
402.59	93.18
402.799	158.72
403.008	134.14
403.217	142.33
403.426	179.2
403.635	148.48
403.844	171.01
404.053	130.05
404.262	140.29
404.471	173.05
404.68	138.24
404.888	154.62
405.097	148.48
405.306	187.39
405.515	181.25
405.724	224.25
405.933	203.77
406.142	216.06
406.35	236.54
406.559	218.11
406.768	224.25
406.977	285.69
407.185	199.68
407.394	259.07
407.603	234.49
407.812	254.97
408.02	371.71
408.229	222.2
408.438	238.59
408.646	320.51
408.855	248.83
409.064	300.03
409.272	287.74
409.481	396.28
409.69	404.47
409.898	314.36
410.107	320.51
410.315	392.19
410.524	453.63
410.733	383.99
410.941	343.03
411.15	406.52
411.358	461.82
411.567	508.92
411.775	525.3
411.984	492.54
412.192	519.16
412.401	545.78
412.609	531.45
412.818	599.03
413.026	568.31
413.234	707.57
413.443	664.57
413.651	674.81
413.86	668.66
414.068	699.38
414.276	756.72
414.485	687.09
414.693	791.54
414.901	840.69
415.11	787.44
415.318	885.75
415.526	873.46
415.734	953.33
415.943	984.05
416.151	1078.26
416.359	1029.1
416.567	1076.21
416.776	1106.93
416.984	1184.75
417.192	1108.98
417.4	1188.85
417.608	1127.41
417.817	1270.76
418.025	1295.34
418.233	1303.53
418.441	1418.22
418.649	1340.4
418.857	1510.38
419.065	1571.82
419.273	1547.24
419.481	1479.66
419.689	1770.47
419.897	1817.57
420.105	1844.2
420.313	1950.69
420.521	1909.73
420.729	1924.07
420.937	2024.42
421.145	2085.86
421.353	2147.3
421.561	2208.73
421.769	2380.76
421.977	2339.8
422.185	2401.24
422.393	2563.03
422.601	2663.38
422.809	2679.77
423.017	2853.84
423.224	2794.45
423.432	3093.46
423.64	3036.11
423.848	3210.19
424.056	3331.02
424.263	3417.04
424.471	3378.12
424.679	3468.24
424.887	3664.84
425.094	3840.97
425.302	3771.33
425.51	4119.49
425.718	4058.05
425.925	4019.14
426.133	4301.76
426.341	4363.2
426.548	4811.7
426.756	4643.77
426.964	4729.78
427.171	5036.98
427.379	5098.42
427.586	5258.16
427.794	5389.23
428.001	5671.85
428.209	5843.88
428.417	5819.3
428.624	6247.33
428.832	6394.78
429.039	6060.96
429.247	6159.27
429.454	6575
429.662	7068.56
429.869	6699.93
430.076	7277.46
430.284	7025.56
430.491	7316.37
430.699	7816.07
430.906	7697.29
431.114	7697.29
431.321	7984.01
431.528	8194.95
431.736	8985.46
431.943	9335.67
432.15	8940.41
432.358	9020.28
432.565	9581.42
432.772	9388.91
432.979	9995.11
433.187	10189.67
433.394	10273.64
433.601	10836.83
433.808	10908.51
434.016	10881.88
434.223	11416.4
434.43	11916.11
434.637	11877.19
434.844	12317.51
435.052	12809.02
435.259	12745.53
435.466	12716.86
435.673	12454.72
435.88	13665.07
436.087	14289.7
436.294	14238.5
436.501	13996.84
436.708	14072.62
436.915	14474.02
437.122	15276.82
437.329	15242.01
437.537	15792.91
437.743	15887.12
437.95	15831.82
438.157	16530.18
438.364	16831.23
438.571	16960.25
438.778	17052.41
438.985	18836.19
439.192	18205.42
439.399	18719.46
439.606	18213.61
439.813	19049.18
440.02	20675.27
440.227	20089.55
440.433	19794.64
440.64	20662.98
440.847	20269.77
441.054	20933.31
441.261	22268.59
441.467	21803.7
441.674	22280.88
441.881	23214.75
442.088	23145.12
442.294	22932.13
442.501	23943.83
442.708	24281.74
442.914	24998.53
443.121	25891.44
443.328	25432.7
443.534	26876.52
443.741	26387.05
443.948	26260.08
444.154	28111.44
444.361	27730.52
444.568	28056.15
444.774	28199.51
444.981	28527.18
445.187	28947.01
445.394	30300.72
445.6	29925.94
445.807	32958.99
446.013	30931.5
446.22	32053.78
446.426	33147.4
446.633	33296.9
446.839	34433.52
447.046	32899.59
447.252	34963.95
447.459	34953.71
447.665	34501.11
447.871	36147.67
448.078	37732.8
448.284	35617.25
448.491	37022.16
448.697	38402.49
448.903	38576.56
449.11	38857.14
449.316	38095.29
449.522	39041.45
449.728	40024.48
449.935	40382.87
450.141	40415.64
450.347	41154.96
450.553	39725.47
450.76	40561.05
450.966	41240.97
451.172	41343.37
451.378	41879.94
451.584	41486.73
451.791	42031.49
451.997	41898.37
452.203	42600.82
452.409	42332.54
452.615	42469.75
452.821	41275.79
453.027	40442.26
453.233	42514.81
453.44	40528.28
453.646	40845.71
453.852	41494.92
454.058	41908.61
454.264	40513.94
454.47	41122.19
454.676	40192.41
454.882	41587.08
455.088	37974.46
455.294	38279.61
455.5	38781.36
455.705	39522.72
455.911	37917.12
456.117	37317.06
456.323	36477.4
456.529	34605.55
456.735	35881.44
456.941	35412.45
457.147	34621.94
457.352	33516.03
457.558	32897.55
457.764	32887.31
457.97	32725.52
458.176	31599.13
458.381	31719.96
458.587	30304.82
458.793	30073.4
458.999	28525.13
459.204	30663.21
459.41	29872.7
459.616	27662.94
459.821	27609.69
460.027	27621.98
460.233	27318.88
460.438	25614.97
460.644	26165.87
460.85	25258.62
461.055	24959.62
461.261	24613.51
461.466	22631.08
461.672	21895.86
461.878	23579.29
462.083	22164.14
462.289	21680.82
462.494	21648.05
462.7	20581.06
462.905	19915.47
463.111	20888.26
463.316	20693.7
463.522	20323.02
463.727	20470.47
463.932	20505.29
464.138	20024.01
464.343	20253.39
464.549	19731.15
464.754	20261.58
464.959	20366.03
465.165	19956.43
465.37	19342.04
465.575	18977.5
465.781	19356.38
465.986	19604.18
466.191	18838.24
466.397	18471.65
466.602	17541.88
466.807	18281.19
467.012	18197.23
467.218	17949.42
467.423	18017.01
467.628	18277.1
467.833	18821.86
468.038	17955.57
468.244	17476.34
468.449	18029.29
468.654	17629.94
468.859	17511.16
469.064	17429.24
469.269	16743.17
469.474	16907.01
469.679	17173.24
469.885	16517.89
470.09	16864
470.295	16610.05
470.5	16341.77
470.705	16669.44
470.91	16222.98
471.115	15995.66
471.32	16280.33
471.525	16001.8
471.73	15446.8
471.935	15637.27
472.139	15106.84
472.344	15305.49
472.549	15328.02
472.754	15123.23
472.959	14779.17
473.164	14248.74
473.369	14275.37
473.574	14822.17
473.778	14537.51
473.983	14209.83
474.188	14322.47
474.393	13941.55
474.598	13765.42
474.802	13476.66
475.007	13560.63
475.212	13441.84
475.417	13030.2
475.621	13097.78
475.826	13017.91
476.031	12954.43
476.235	12694.33
476.44	12645.18
476.645	12581.7
476.849	12491.59
477.054	12538.69
477.259	12305.22
477.463	12159.81
477.668	12127.05
477.872	12110.66
478.077	11744.08
478.282	11309.91
478.486	11537.23
478.691	11703.12
478.895	11404.11
479.1	11455.31
479.304	11086.68
479.509	11017.05
479.713	11326.29
479.918	11039.58
480.122	10902.36
480.326	10986.33
480.531	11019.1
480.735	10726.24
480.94	10906.46
481.144	11051.86
481.348	10693.47
481.553	10679.13
481.757	10249.06
481.961	10642.27
482.166	10709.85
482.37	10802.01
482.574	10425.18
482.778	10595.17
482.983	10732.38
483.187	10558.3
483.391	10771.29
483.595	10607.45
483.8	10580.83
484.004	10232.68
484.208	10797.92
484.412	10521.44
484.616	10681.18
484.821	10601.31
485.025	10427.23
485.229	10687.32
485.433	10490.72
485.637	10603.36
485.841	10439.52
486.045	10546.02
486.249	10484.58
486.453	10486.62
486.657	10584.93
486.861	10404.71
487.065	10316.64
487.269	10419.04
487.473	10478.43
487.677	10560.35
487.881	10693.47
488.085	10568.54
488.289	10482.53
488.493	10646.37
488.697	10646.37
488.901	10572.64
489.105	10503.01
489.309	10546.02
489.512	10666.85
489.716	10777.44
489.92	10591.07
490.124	10486.62
490.328	10845.02
490.531	10765.15
490.735	11015
490.939	10847.07
491.143	10697.56
491.346	10926.94
491.55	10941.27
491.754	10918.75
491.958	10908.51
492.161	10941.27
492.365	11062.1
492.569	10914.65
492.772	11144.02
492.976	11238.23
493.18	11275.09
493.383	11287.38
493.587	11617.1
493.79	11594.58
493.994	11223.89
494.197	11610.96
494.401	11496.27
494.605	11625.29
494.808	11977.55
495.012	11821.9
495.215	11766.6
495.419	12069.7
495.622	12069.7
495.825	12100.42
496.029	12282.69
496.232	12540.74
496.436	12383.04
496.639	12561.22
496.843	12735.29
497.046	12903.23
497.249	12942.14
497.453	13046.58
497.656	13185.85
497.859	13417.27
498.063	13386.55
498.266	13767.47
498.469	13697.84
498.673	13816.62
498.876	13841.2
499.079	13871.92
499.282	14041.9
499.485	14410.53
499.689	14615.33
499.892	14897.95
500.095	14537.51
500.298	14912.28
500.501	15143.7
500.705	15403.8
500.908	15608.59
501.111	15598.35
501.314	15780.62
501.517	16263.94
501.72	16294.66
501.923	16347.91
502.126	16608
502.329	16679.68
502.532	16892.67
502.735	17101.56
502.938	17341.18
503.141	17294.07
503.344	17636.08
503.547	17781.49
503.75	17812.21
503.953	18107.12
504.156	18305.77
504.359	18350.82
504.562	18692.83
504.765	19075.8
504.968	19014.37
505.17	19141.34
505.373	19448.54
505.576	19696.34
505.779	20175.56
505.982	20163.28
506.185	20277.96
506.387	20249.29
506.59	20574.92
506.793	20832.96
506.996	20808.39
507.198	21455.54
507.401	21168.83
507.604	21858.99
507.807	21740.21
508.009	22119.09
508.212	22375.08
508.415	22727.33
508.617	23085.73
508.82	23009.95
509.022	22844.07
509.225	23589.53
509.428	23454.36
509.63	23878.29
509.833	23825.04
510.035	24271.5
510.238	24175.25
510.44	24650.38
510.643	24898.18
510.845	25242.24
511.048	24857.22
511.25	25516.67
511.453	25696.89
511.655	26528.36
511.858	26077.81
512.06	26741.35
512.262	26925.67
512.465	26819.17
512.667	27226.72
512.87	27806.3
513.072	27454.05
513.274	28246.61
513.477	28334.67
513.679	28445.26
513.881	29047.36
514.084	29188.67
514.286	28803.66
514.488	29254.21
514.69	30165.56
514.893	30265.91
515.095	30009.91
515.297	31191.59
515.499	30214.71
515.701	31081
515.904	31590.94
516.106	31136.29
516.308	31740.44
516.51	32426.51
516.712	32305.68
516.914	32537.1
517.116	32795.15
517.318	33311.24
517.52	33106.44
517.722	33769.98
517.925	34189.81
518.127	33929.72
518.329	34681.33
518.531	34245.11
518.733	35045.87
518.935	35475.94
519.136	35221.99
519.338	35779.04
519.54	35940.83
519.742	36428.24
519.944	36491.73
520.146	37022.16
520.348	37276.1
520.55	37450.18
520.752	37263.82
520.954	38283.7
521.155	37595.59
521.357	38527.41
521.559	38664.63
521.761	38769.07
521.963	38775.22
522.164	39444.9
522.366	39444.9
522.568	39596.45
522.77	40069.53
522.971	40530.33
523.173	40055.2
523.375	40757.65
523.576	40724.88
523.778	40692.12
523.98	41257.35
524.181	41345.42
524.383	41386.38
524.584	42209.66
524.786	41574.79
524.988	41798.02
525.189	42381.69
525.391	42641.78
525.592	43024.75
525.794	42897.78
525.995	42752.37
526.197	42981.74
526.398	43250.03
526.6	43110.77
526.801	43737.44
527.003	43821.41
527.204	43628.9
527.406	43888.99
527.607	44181.85
527.808	44435.8
528.01	43698.53
528.211	44433.75
528.412	45164.88
528.614	44546.39
528.815	44949.84
529.016	45324.62
529.218	44519.77
529.419	44990.8
529.62	44876.12
529.822	45021.52
530.023	45128.02
530.224	45037.9
530.425	45111.63
530.626	45224.27
530.828	44747.09
531.029	46229.82
531.23	44837.2
531.431	45642.06
531.632	45553.99
531.833	45896
532.035	45736.26
532.236	45904.2
532.437	45820.23
532.638	45568.33
532.839	45965.63
533.04	45953.35
533.241	45271.37
533.442	46559.55
533.643	46238.01
533.844	45605.19
534.045	46176.58
534.246	45996.35
534.447	46123.33
534.648	45984.07
534.849	46338.36
535.05	45766.98
535.251	46156.1
535.451	45451.59
535.652	46123.33
535.853	46190.91
536.054	46160.19
536.255	46684.47
536.456	45910.34
536.657	46391.61
536.857	46440.76
537.058	45926.72
537.259	46209.34
537.46	46319.93
537.66	45873.48
537.861	46061.89
538.062	46190.91
538.263	46235.97
538.463	46061.89
538.664	45830.47
538.865	46272.83
539.065	46479.67
539.266	45752.65
539.466	46485.82
539.667	45726.02
539.868	46252.35
540.068	45959.49
540.269	45797.7
540.469	46330.17
540.67	45791.56
540.87	45853
541.071	46168.38
541.271	46457.15
541.472	45703.49
541.672	45443.4
541.873	45619.53
542.073	45111.63
542.274	46305.6
542.474	46195.01
542.675	45586.76
542.875	46156.1
543.075	45424.97
543.276	45298
543.476	45857.09
543.676	45773.13
543.877	45603.14
544.077	45269.33
544.277	45726.02
544.478	45873.48
544.678	46117.18
544.878	45640.01
545.078	45771.08
545.279	44988.75
545.479	45267.28
545.679	45488.46
545.879	45467.98
546.079	45705.54
546.28	45652.3
546.48	45250.89
546.68	45943.11
546.88	45316.43
547.08	45314.38
547.28	45240.65
547.48	44921.17
547.68	45402.44
547.88	45197.65
548.081	45607.24
548.281	45158.73
548.481	45060.43
548.681	45566.28
548.881	45039.95
549.081	45160.78
549.28	45177.17
549.48	45562.18
549.68	45254.99
549.88	45635.91
550.08	45003.09
550.28	45508.94
550.48	45130.06
550.68	45510.99
550.88	45062.48
551.08	44980.56
551.279	44925.27
551.479	44980.56
551.679	45132.11
551.879	44710.23
552.079	45341
552.278	44939.6
552.478	44955.99
552.678	44656.98
552.878	44964.18
553.077	44632.41
553.277	44730.71
553.477	45277.52
553.676	44851.54
553.876	44808.53
554.076	44581.21
554.275	44763.48
554.475	44513.62
554.674	44517.72
554.874	44630.36
555.074	44699.99
555.273	44566.87
555.473	44839.25
555.672	44351.84
555.872	44599.64
556.071	44501.34
556.271	44695.89
556.47	44110.17
556.67	44245.34
556.869	44009.82
557.068	44321.12
557.268	43764.07
557.467	44161.37
557.667	44015.97
557.866	43743.59
558.065	44007.78
558.265	43958.63
558.464	43420.01
558.663	44140.89
558.863	43434.35
559.062	44142.94
559.261	43295.08
559.461	44249.44
559.66	43012.46
559.859	43452.78
560.058	43297.13
560.258	43802.98
560.457	43260.27
560.656	43481.45
560.855	43258.22
561.054	43708.77
561.253	42735.99
561.453	43047.28
561.652	43063.66
561.851	42920.31
562.05	43133.29
562.249	42353.02
562.448	42856.82
562.647	42803.57
562.846	42668.4
563.045	42529.14
563.244	42090.88
563.443	42942.83
563.642	41980.29
563.841	42373.5
564.04	42602.87
564.239	42465.66
564.438	41605.51
564.637	42453.37
564.836	42389.88
565.035	41511.3
565.234	41779.59
565.432	41474.44
565.631	41683.33
565.83	41707.91
566.029	41714.05
566.228	41322.89
566.427	41318.79
566.625	40989.07
566.824	40575.38
567.023	41093.52
567.222	40587.67
567.42	41433.48
567.619	41068.94
567.818	40645.01
568.016	40655.25
568.215	40905.1
568.414	40624.53
568.612	40946.06
568.811	40464.79
569.01	40618.39
569.208	40061.34
569.407	40466.84
569.605	39661.99
569.804	40534.42
570.002	39748
570.201	40151.45
570.4	39655.84
570.598	39596.45
570.797	39596.45
570.995	39541.16
571.193	39006.64
571.392	39633.32
571.59	38996.4
571.789	38947.25
571.987	39358.89
572.186	38633.91
572.384	38496.69
572.582	38846.9
572.781	38724.02
572.979	38390.2
573.177	38582.71
573.376	38947.25
573.574	38652.34
573.772	38498.74
573.971	38224.31
574.169	37960.12
574.367	37951.93
574.565	38330.81
574.763	38246.84
574.962	37552.58
575.16	37384.65
575.358	37636.55
575.556	37163.46
575.754	37722.56
575.952	37185.99
576.151	37378.5
576.349	36798.93
576.547	36698.58
576.745	36798.93
576.943	37183.94
577.141	36708.82
577.339	36755.92
577.537	36364.76
577.735	36596.18
577.933	36254.17
578.131	36927.95
578.329	36225.5
578.527	35944.92
578.725	36090.33
578.923	36284.89
579.121	35957.21
579.319	35678.69
579.516	36196.82
579.714	35656.16
579.912	35301.86
580.11	35772.89
580.308	35463.65
580.506	35123.69
580.704	34949.61
580.901	35332.58
581.099	35408.36
581.297	35019.24
581.495	35232.23
581.692	35107.3
581.89	34552.3
582.088	34867.69
582.285	34830.83
582.483	34957.8
582.681	34644.46
582.878	34322.93
583.076	34400.76
583.274	34277.88
583.471	34066.94
583.669	34273.78
583.866	33804.8
584.064	33974.78
584.262	33516.03
584.459	33829.37
584.657	33976.83
584.854	33923.58
585.052	33192.45
585.249	33237.51
585.447	33530.37
585.644	32907.79
585.841	32950.79
586.039	33405.44
586.236	32553.49
586.434	32569.87
586.631	32799.24
586.828	32709.13
587.026	32774.67
587.223	32635.41
587.42	32029.21
587.618	32895.5
587.815	32242.2
588.012	32219.67
588.21	32193.04
588.407	32291.35
588.604	31693.34
588.801	31988.25
588.999	31619.61
589.196	31490.59
589.393	31664.67
589.59	31388.19
589.787	31320.61
589.984	30992.94
590.182	31033.89
590.379	31425.06
590.576	30968.36
590.773	30937.64
590.97	30915.11
591.167	30843.43
591.364	30652.97
591.561	30435.89
591.758	30431.79
591.955	30435.89
592.152	30403.12
592.349	30210.61
592.546	30532.14
592.743	30298.67
592.94	29981.24
593.137	30003.77
593.334	30026.29
593.531	29667.9
593.727	29878.84
593.924	29690.43
594.121	29418.05
594.318	29735.48
594.515	28932.68
594.712	29354.56
594.908	29018.69
595.105	29303.36
595.302	28893.77
595.499	29311.55
595.696	28668.49
595.892	28693.07
596.089	29221.44
596.286	28904.01
596.482	28650.06
596.679	28555.85
596.876	28861
597.072	28027.48
597.269	28633.68
597.466	28082.77
597.662	28090.96
597.859	28256.85
598.055	27994.71
598.252	27599.45
598.448	27783.77
598.645	27687.51
598.841	27337.31
599.038	27767.38
599.234	27556.44
599.431	27427.42
599.627	27146.85
599.824	27310.69
600.02	27161.19
600.217	27138.66
600.413	26995.3
600.609	26925.67
600.806	26499.69
601.002	26778.22
601.198	26544.75
601.395	26538.6
601.591	26653.29
601.787	26368.62
601.984	26251.89
602.18	26428.01
602.376	26159.73
602.572	26077.81
602.769	26305.13
602.965	25942.64
603.161	25956.98
603.357	25498.23
603.553	25760.37
603.75	25764.47
603.946	25242.24
604.142	25485.95
604.338	25254.53
604.534	25498.23
604.73	25279.1
604.926	25035.39
605.122	25533.05
605.318	25463.42
605.514	24892.04
605.71	24701.58
605.906	25035.39
606.102	24877.7
606.298	24896.13
606.494	24650.38
606.69	24492.68
606.886	24441.48
607.082	24261.26
607.278	24717.96
607.474	24089.23
607.67	24498.83
607.866	24126.1
608.062	24646.28
608.257	23898.77
608.453	24251.02
608.649	24097.42
608.845	23818.9
609.041	23947.92
609.236	23902.87
609.432	23786.13
609.628	23650.97
609.824	23974.55
610.019	23474.84
610.215	23550.62
610.411	23784.09
610.606	23528.09
610.802	23446.17
610.998	23564.95
611.193	23546.52
611.389	23354.01
611.584	23216.8
611.78	23005.86
611.976	23315.1
612.171	22923.94
612.367	23394.97
612.562	23042.72
612.758	23159.45
612.953	22837.92
613.149	23057.06
613.344	22594.22
613.539	23098.02
613.735	22620.84
613.93	22909.6
614.126	22706.85
614.321	22913.7
614.517	22661.8
614.712	22909.6
614.907	22469.29
615.103	22715.05
615.298	22420.14
615.493	22854.31
615.688	22123.18
615.884	22975.14
616.079	21891.76
616.274	22250.16
616.47	22481.58
616.665	22237.87
616.86	22098.61
617.055	21924.53
617.25	22098.61
617.445	22153.9
617.641	21699.25
617.836	22043.31
618.031	21723.83
618.226	21887.67
618.421	21633.72
618.616	21893.81
618.811	21459.64
619.006	21703.35
619.201	21105.34
619.396	21555.9
619.591	20722.37
619.786	21004.99
619.981	20581.06
620.176	21088.96
620.371	20744.9
620.566	20699.84
620.761	20386.5
620.956	20804.29
621.151	20384.46
621.346	20464.33
621.541	20208.33
621.735	20458.18
621.93	20128.46
622.125	19927.76
622.32	19684.05
622.515	20337.35
622.709	19940.05
622.904	19847.89
623.099	19798.74
623.294	19352.28
623.488	19133.15
623.683	19407.58
623.878	19262.17
624.072	19194.59
624.267	19063.52
624.462	18784.99
624.656	18735.84
624.851	19038.94
625.046	18561.76
625.24	18907.87
625.435	18537.19
625.629	18422.5
625.824	18172.65
626.018	18000.62
626.213	17808.11
626.407	18105.07
626.602	17736.43
626.796	17873.65
626.991	17844.98
627.185	17591.03
627.38	17607.41
627.574	17398.52
627.768	17335.03
627.963	17210.11
628.157	16902.91
628.352	17255.16
628.546	16734.98
628.74	17033.98
628.935	16968.45
629.129	16489.22
629.323	16567.04
629.517	16431.88
629.712	16429.83
629.906	16294.66
630.1	16100.11
630.294	16395.01
630.489	15940.36
630.683	16163.59
630.877	15784.72
631.071	15817.49
631.265	15708.94
631.459	15667.98
631.653	15424.28
631.848	15399.7
632.042	15321.88
632.236	15127.32
632.43	15293.21
632.624	15074.07
632.818	14910.24
633.012	14748.45
633.206	14865.18
633.4	14977.82
633.594	14732.06
633.788	14691.1
633.982	14592.8
634.176	14535.46
634.369	14480.16
634.563	14351.14
634.757	14459.68
634.951	14547.75
635.145	14254.89
635.339	14275.37
635.533	14111.53
635.726	14195.5
635.92	13755.18
636.114	14005.03
636.308	13972.27
636.501	13806.38
636.695	13806.38
636.889	13746.99
637.083	13384.5
637.276	13470.51
637.47	13214.52
637.664	13396.79
637.857	13259.57
638.051	13488.95
638.244	12985.15
638.438	12970.81
638.632	12925.75
638.825	12954.43
639.019	12655.42
639.212	12864.32
639.406	12702.53
639.599	12628.8
639.793	12456.77
639.986	12495.68
640.18	12632.9
640.373	12301.12
640.567	12141.38
640.76	12239.69
640.954	12057.42
641.147	12172.1
641.34	12038.98
641.534	11844.43
641.727	12276.55
641.92	12004.17
642.114	11901.77
642.307	11778.89
642.5	11739.98
642.694	11633.49
642.887	11457.36
643.08	11424.59
643.273	11443.03
643.467	11289.43
643.66	11379.54
643.853	11098.97
644.046	10883.93
644.239	11211.6
644.432	11066.2
644.626	10885.98
644.819	10996.57
645.012	10838.87
645.205	10761.05
645.398	10779.48
645.591	10791.77
645.784	10687.32
645.977	10496.86
646.17	10541.92
646.363	10539.87
646.556	10306.4
646.749	10390.37
646.942	10380.13
647.135	10142.57
647.328	10187.62
647.521	10068.84
647.714	9913.19
647.907	10290.02
648.099	9970.54
648.292	10036.07
648.485	9982.82
648.678	9661.29
648.871	9603.95
649.064	9579.37
649.256	9724.78
649.449	9732.97
649.642	9538.41
649.835	9569.13
650.027	9575.28
650.22	9501.55
650.413	9397.1
650.605	9352.05
650.798	9343.86
650.991	9192.31
651.183	9306.99
651.376	9057.14
651.568	9280.37
651.761	9016.18
651.954	8981.37
652.146	8954.74
652.339	8987.51
652.531	8964.98
652.724	8829.82
652.916	8784.76
653.109	8768.38
653.301	8788.86
653.494	8911.74
653.686	8383.36
653.879	8674.17
654.071	8536.96
654.263	8594.3
654.456	8405.89
654.648	8467.33
654.84	8338.3
655.033	8416.13
655.225	8274.82
655.417	8039.3
655.61	8237.95
655.802	8151.94
655.994	8061.83
656.186	8129.41
656.379	8090.5
656.571	8059.78
656.763	7926.66
656.955	7818.12
657.148	7789.45
657.34	7685
657.532	7777.16
657.724	7639.95
657.916	7748.49
658.108	7584.65
658.3	7531.41
658.492	7723.91
658.684	7480.21
658.876	7435.15
659.068	7451.53
659.26	7371.66
659.452	7316.37
659.644	7455.63
659.836	7168.91
660.028	7218.07
660.22	7312.27
660.412	7043.99
660.604	7035.8
660.796	7117.72
660.988	6945.69
661.18	7138.2
661.372	6996.89
661.563	6923.16
661.755	6912.92
661.947	6828.95
662.139	6767.51
662.331	6853.53
662.522	6685.59
662.714	6706.07
662.906	6570.91
663.097	6634.39
663.289	6656.92
663.481	6493.08
663.673	6554.52
663.864	6570.91
664.056	6452.13
664.247	6468.51
664.439	6321.06
664.631	6661.02
664.822	6329.25
665.014	6480.8
665.205	6325.15
665.397	6247.33
665.588	6257.57
665.78	6069.16
665.971	6106.02
666.163	5987.24
666.354	6153.12
666.546	6087.59
666.737	6038.44
666.929	6028.2
667.12	6022.05
667.311	5993.38
667.503	5950.37
667.694	5925.8
667.885	5858.21
668.077	5766.06
668.268	5825.45
668.459	5772.2
668.651	5827.5
668.842	5784.49
669.033	5747.62
669.224	5714.86
669.416	5968.8
669.607	5741.48
669.798	5624.75
669.989	5700.52
670.18	5604.27
670.371	5594.03
670.563	5374.89
670.754	5528.49
670.945	5458.86
671.136	5405.61
671.327	5417.9
671.518	5405.61
671.709	5168.05
671.9	5462.96
672.091	5266.35
672.282	5229.49
672.473	5219.25
672.664	5147.57
672.855	5186.48
673.046	5182.38
673.237	5198.77
673.428	5141.43
673.619	5178.29
673.809	5163.95
674	5219.25
674.191	5178.29
674.382	4973.49
674.573	5073.84
674.764	5131.19
674.954	5036.98
675.145	4875.19
675.336	5020.6
675.527	4963.25
675.717	5147.57
675.908	4821.94
676.099	4871.09
676.289	4801.46
676.48	4985.78
676.671	4768.7
676.861	4869.05
677.052	4735.93
677.243	4860.85
677.433	4756.41
677.624	4783.03
677.814	4658.1
678.005	4819.89
678.195	4768.7
678.386	4813.75
678.576	4707.26
678.767	4651.96
678.957	4649.91
679.148	4590.52
679.338	4621.24
679.529	4760.5
679.719	4641.72
679.909	4416.44
680.1	4518.84
680.29	4451.26
680.481	4520.89
680.671	4553.66
680.861	4383.68
681.052	4479.93
681.242	4535.23
681.432	4359.1
681.622	4389.82
681.813	4410.3
682.003	4348.86
682.193	4363.2
682.383	4467.64
682.573	4377.53
682.764	4412.35
682.954	4389.82
683.144	4213.7
683.334	4297.66
683.524	4373.44
683.714	4273.09
683.904	4203.46
684.094	4275.13
684.284	4273.09
684.474	4346.81
684.664	4174.78
684.854	4225.98
685.044	4096.96
685.234	4039.62
685.424	4109.25
685.614	4107.2
685.804	4199.36
685.994	4160.45
686.184	4033.47
686.374	4162.5
686.564	4197.31
686.753	4058.05
686.943	3967.94
687.133	4006.85
687.323	3959.75
687.513	4092.87
687.702	3980.23
687.892	3955.65
688.082	3902.4
688.272	4000.71
688.461	3879.88
688.651	3832.77
688.841	3898.31
689.03	3834.82
689.22	3812.29
689.41	3773.38
689.599	3673.03
689.789	3826.63
689.979	3720.14
690.168	3773.38
690.358	3652.55
690.547	3660.74
690.737	3713.99
690.926	3757
691.116	3531.72
691.305	3615.69
691.495	3529.67
691.684	3537.87
691.874	3529.67
692.063	3529.67
692.252	3451.85
692.442	3523.53
692.631	3494.86
692.82	3445.71
693.01	3521.48
693.199	3392.46
693.388	3376.08
693.578	3300.3
693.767	3353.55
693.956	3408.84
694.146	3396.56
694.335	3539.91
694.524	3238.86
694.713	3298.25
694.902	3386.32
695.092	3275.73
695.281	3261.39
695.47	3275.73
695.659	3265.49
695.848	3273.68
696.037	3163.09
696.226	3363.79
696.415	3238.86
696.604	3263.44
696.793	3079.12
696.982	3185.62
697.171	3122.13
697.36	3097.55
697.549	3167.18
697.738	3087.31
697.927	3122.13
698.116	3017.68
698.305	3091.41
698.494	3292.11
698.683	3111.89
698.872	3095.5
699.061	3081.17
699.25	3003.35
699.438	3021.78
699.627	3111.89
699.816	3111.89
700.005	3009.49
700.193	3058.64
700.382	3107.79
700.571	3072.98
700.76	3064.79
700.948	3062.74
701.137	3118.03
701.326	3079.12
701.514	2946
701.703	2995.15
701.892	2905.04
702.08	2995.15
702.269	2900.95
702.457	2921.43
702.646	2896.85
702.834	2896.85
703.023	2993.11
703.212	3070.93
703.4	2880.47
703.589	2819.03
703.777	2958.29
703.965	2866.13
704.154	2888.66
704.342	2968.53
704.531	2900.95
704.719	2866.13
704.907	2913.24
705.096	2773.97
705.284	2896.85
705.472	2948.05
705.661	3011.54
705.849	2943.96
706.037	2970.58
706.226	2728.92
706.414	2890.71
706.602	2780.12
706.79	2851.8
706.979	2786.26
707.167	2954.19
707.355	2843.6
707.543	2874.32
707.731	2843.6
707.919	2782.17
708.107	2788.31
708.296	2841.56
708.484	2755.54
708.672	2819.03
708.86	2749.4
709.048	2827.22
709.236	2823.12
709.424	2872.28
709.612	2812.89
709.8	2894.8
709.988	2763.73
710.176	2741.21
710.364	2880.47
710.551	2673.62
710.739	2737.11
710.927	2851.8
711.115	2782.17
711.303	2843.6
711.491	2753.49
711.679	2634.71
711.866	2753.49
712.054	2833.36
712.242	2708.44
712.43	2778.07
712.617	2835.41
712.805	2669.53
712.993	2712.53
713.181	2683.86
713.368	2675.67
713.556	2773.97
713.744	2606.04
713.931	2796.5
714.119	2638.81
714.306	2716.63
714.494	2698.2
714.682	2767.83
714.869	2724.82
715.057	2681.82
715.244	2786.26
715.432	2683.86
715.619	2757.59
715.807	2655.19
715.994	2659.29
716.182	2751.45
716.369	2667.48
716.556	2692.05
716.744	2649.05
716.931	2630.62
717.119	2771.93
717.306	2710.49
717.493	2694.1
717.681	2776.02
717.868	2866.13
718.055	2794.45
718.242	2692.05
718.43	2724.82
718.617	2710.49
718.804	2753.49
718.991	2718.68
719.179	2690.01
719.366	2630.62
719.553	2683.86
719.74	2708.44
719.927	2632.66
720.114	2644.95
720.301	2538.46
720.488	2601.94
720.676	2706.39
720.863	2757.59
721.05	2659.29
721.237	2538.46
721.424	2663.38
721.611	2628.57
721.798	2608.09
721.985	2563.03
722.172	2665.43
722.358	2634.71
722.545	2694.1
722.732	2583.51
722.919	2618.33
723.106	2690.01
723.293	2661.34
723.48	2573.27
723.667	2421.72
723.853	2630.62
724.04	2681.82
724.227	2626.52
724.414	2675.67
724.6	2544.6
724.787	2558.94
724.974	2708.44
725.161	2630.62
725.347	2569.18
725.534	2657.24
725.72	2677.72
725.907	2669.53
726.094	2616.28
726.28	2673.62
726.467	2552.79
726.653	2548.7
726.84	2599.9
727.027	2704.34
727.213	2495.45
727.4	2520.03
727.586	2601.94
727.773	2642.9
727.959	2595.8
728.145	2603.99
728.332	2612.18
728.518	2552.79
728.705	2606.04
728.891	2540.51
729.077	2556.89
729.264	2548.7
729.45	2591.7
729.636	2515.93
729.823	2481.11
730.009	2546.65
730.195	2614.23
730.382	2589.66
730.568	2520.03
730.754	2606.04
730.94	2532.31
731.126	2634.71
731.313	2528.22
731.499	2622.42
731.685	2706.39
731.871	2515.93
732.057	2597.85
732.243	2702.29
732.429	2681.82
732.615	2589.66
732.801	2577.37
732.987	2530.27
733.173	2485.21
733.359	2687.96
733.545	2663.38
733.731	2567.13
733.917	2540.51
734.103	2524.12
734.289	2606.04
734.475	2573.27
734.661	2587.61
734.847	2577.37
735.033	2554.84
735.219	2497.5
735.404	2626.52
735.59	2665.43
735.776	2587.61
735.962	2524.12
736.148	2593.75
736.333	2515.93
736.519	2599.9
736.705	2616.28
736.89	2419.68
737.076	2597.85
737.262	2558.94
737.447	2485.21
737.633	2479.07
737.819	2491.35
738.004	2503.64
738.19	2524.12
738.375	2538.46
738.561	2464.73
738.747	2450.39
738.932	2372.57
739.118	2434.01
739.303	2538.46
739.489	2477.02
739.674	2499.55
739.859	2470.87
740.045	2372.57
740.23	2440.15
740.416	2417.63
740.601	2436.06
740.786	2372.57
740.972	2366.43
741.157	2468.83
741.342	2499.55
741.528	2458.59
741.713	2431.96
741.898	2257.89
742.084	2298.84
742.269	2290.65
742.454	2438.11
742.639	2419.68
742.824	2311.13
743.01	2427.87
743.195	2300.89
743.38	2323.42
743.565	2360.28
743.75	2366.43
743.935	2370.52
744.12	2397.15
744.305	2180.06
744.49	2210.78
744.675	2223.07
744.86	2243.55
745.045	2173.92
745.23	2243.55
745.415	2264.03
745.6	2294.75
745.785	2216.93
745.97	2188.25
746.155	2151.39
746.34	2259.93
746.525	2198.49
746.71	2196.45
746.895	2149.34
747.079	2108.38
747.264	2126.82
747.449	2096.1
747.634	2149.34
747.819	2087.9
748.003	2079.71
748.188	2147.3
748.373	2112.48
748.557	2112.48
748.742	2020.32
748.927	1977.31
749.111	2135.01
749.296	1979.36
749.481	2132.96
749.665	1874.92
749.85	1993.7
750.034	1911.78
750.219	1946.59
750.404	1979.36
750.588	2042.85
750.773	1883.11
750.957	1889.25
751.141	1778.66
751.326	1922.02
751.51	1836
751.695	1815.52
751.879	1854.44
752.064	1840.1
752.248	1848.29
752.432	1856.48
752.617	1762.28
752.801	1741.8
752.985	1776.61
753.17	1745.89
753.354	1795.04
753.538	1760.23
753.722	1700.84
753.907	1663.97
754.091	1737.7
754.275	1729.51
754.459	1729.51
754.643	1487.85
754.828	1555.43
755.012	1668.07
755.196	1532.9
755.38	1522.66
755.564	1584.1
755.748	1530.86
755.932	1657.83
756.116	1547.24
756.3	1565.67
756.484	1534.95
756.668	1487.85
756.852	1489.9
757.036	1559.53
757.22	1532.9
757.404	1543.14
757.588	1457.13
757.772	1457.13
757.956	1491.95
758.14	1397.74
758.323	1489.9
758.507	1491.95
758.691	1379.31
758.875	1401.83
759.059	1455.08
759.242	1297.39
759.426	1455.08
759.61	1364.97
759.794	1393.64
759.977	1407.98
760.161	1457.13
760.345	1270.76
760.528	1479.66
760.712	1391.59
760.895	1354.73
761.079	1303.53
761.263	1311.72
761.446	1301.48
761.63	1391.59
761.813	1262.57
761.997	1334.25
762.18	1272.81
762.364	1250.28
762.547	1264.62
762.731	1246.19
762.914	1364.97
763.098	1274.86
763.281	1348.59
763.464	1209.33
763.648	1270.76
763.831	1180.65
764.015	1205.23
764.198	1264.62
764.381	1291.24
764.564	1151.98
764.748	1256.43
764.931	1180.65
765.114	1188.85
765.297	1203.18
765.481	1194.99
765.664	1147.89
765.847	1199.09
766.03	1180.65
766.213	1168.37
766.397	1184.75
766.58	1131.5
766.763	1139.69
766.946	1127.41
767.129	1229.81
767.312	1113.07
767.495	1190.89
767.678	1147.89
767.861	1082.35
768.044	1102.83
768.227	1049.58
768.41	1035.25
768.593	1172.46
768.776	1139.69
768.959	1045.49
769.142	1108.98
769.324	1127.41
769.507	1049.58
769.69	1037.3
769.873	1029.1
770.056	1127.41
770.239	1164.27
770.421	1082.35
770.604	1127.41
770.787	994.29
770.97	1061.87
771.152	1072.11
771.335	1039.34
771.518	1008.62
771.7	963.57
771.883	1039.34
772.066	1080.3
772.248	969.71
772.431	961.52
772.613	982
772.796	1033.2
772.978	938.99
773.161	1033.2
773.343	1012.72
773.526	988.14
773.708	973.81
773.891	912.37
774.073	928.75
774.256	879.6
774.438	895.99
774.621	998.38
774.803	959.47
774.985	920.56
775.168	904.18
775.35	857.07
775.532	922.61
775.715	861.17
775.897	900.08
776.079	871.41
776.261	809.97
776.444	883.7
776.626	895.99
776.808	824.31
776.99	816.12
777.173	795.64
777.355	832.5
777.537	875.51
777.719	764.92
777.901	746.48
778.083	869.36
778.265	828.4
778.447	834.55
778.629	746.48
778.811	840.69
778.993	762.87
779.175	752.63
779.357	781.3
779.539	709.62
779.721	723.96
779.903	707.57
780.085	703.48
780.267	721.91
780.449	680.95
780.631	726
780.812	728.05
780.994	762.87
781.176	639.99
781.358	642.04
781.54	668.66
781.721	644.09
781.903	726
782.085	556.02
782.267	668.66
782.448	713.72
782.63	685.05
782.812	635.89
782.993	732.15
783.175	642.04
783.357	609.27
783.538	646.13
783.72	631.8
783.901	633.85
784.083	621.56
784.264	580.6
784.446	584.7
784.627	564.22
784.809	570.36
784.99	556.02
785.172	494.58
785.353	662.52
785.535	445.43
785.716	531.45
785.897	490.49
786.079	570.36
786.26	500.73
786.441	590.84
786.623	517.11
786.804	490.49
786.985	533.5
787.167	535.54
787.348	584.7
787.529	478.2
787.71	590.84
787.891	529.4
788.073	576.5
788.254	492.54
788.435	478.2
788.616	494.58
788.797	455.67
788.978	420.86
789.159	486.39
789.34	498.68
789.522	412.67
789.703	467.96
789.884	484.34
790.065	498.68
790.246	437.24
790.427	443.39
790.607	513.02
790.788	486.39
790.969	472.06
791.15	406.52
791.331	467.96
791.512	420.86
791.693	420.86
791.874	480.25
792.054	480.25
792.235	451.58
792.416	457.72
792.597	381.95
792.778	498.68
792.958	357.37
793.139	408.57
793.32	435.19
793.5	361.47
793.681	377.85
793.862	396.28
794.042	447.48
794.223	312.32
794.404	429.05
794.584	340.99
794.765	375.8
794.945	394.23
795.126	334.84
795.306	359.42
795.487	320.51
795.667	416.76
795.848	396.28
796.028	406.52
796.209	365.56
796.389	328.7
796.57	353.27
796.75	379.9
796.93	400.38
797.111	334.84
797.291	293.88
797.471	386.04
797.652	300.03
797.832	322.56
798.012	398.33
798.192	263.16
798.373	334.84
798.553	287.74
798.733	347.13
798.913	259.07
799.093	326.65
799.274	437.24
799.454	320.51
799.634	371.71
799.814	197.63
799.994	345.08
800.174	336.89
800.354	308.22
800.534	265.21
800.714	304.12
800.894	287.74
801.074	336.89
801.254	289.79
801.434	242.68
801.614	293.88
801.794	345.08
801.974	658.42
802.154	246.78
802.334	283.64
802.514	275.45
802.693	328.7
802.873	281.6
803.053	310.27
803.233	338.94
803.413	259.07
803.592	297.98
803.772	273.4
803.952	248.83
804.131	218.11
804.311	189.44
804.491	211.96
804.67	252.92
804.85	224.25
805.03	308.22
805.209	336.89
805.389	234.49
805.568	312.32
805.748	279.55
805.928	269.31
806.107	254.97
806.287	265.21
806.466	234.49
806.646	209.92
806.825	132.09
807.004	277.5
807.184	189.44
807.363	261.12
807.543	265.21
807.722	244.73
807.901	265.21
808.081	291.84
808.26	158.72
808.439	193.53
808.619	205.82
808.798	228.35
808.977	214.01
809.156	211.96
809.336	234.49
809.515	130.05
809.694	234.49
809.873	230.4
810.052	279.55
810.231	261.12
810.411	209.92
810.59	246.78
810.769	271.36
810.948	207.87
811.127	240.64
811.306	222.2
811.485	226.3
811.664	201.72
811.843	193.53
812.022	160.77
812.201	269.31
812.38	289.79
812.559	183.29
812.737	254.97
812.916	154.62
813.095	101.37
813.274	179.2
813.453	265.21
813.632	207.87
813.811	195.58
813.989	160.77
814.168	238.59
814.347	154.62
814.526	181.25
814.704	171.01
814.883	285.69
815.062	164.86
815.24	175.1
815.419	54.27
815.598	232.44
815.776	222.2
815.955	181.25
816.133	80.89
816.312	164.86
816.49	101.37
816.669	123.9
816.847	148.48
817.026	205.82
817.204	224.25
817.383	158.72
817.561	132.09
817.74	175.1
817.918	183.29
818.097	132.09
818.275	201.72
818.453	175.1
818.632	171.01
818.81	164.86
818.988	152.57
819.167	177.15
819.345	191.49
819.523	144.38
819.701	175.1
819.879	105.47
820.058	115.71
820.236	158.72
820.414	181.25
820.592	246.78
820.77	189.44
820.948	132.09
821.127	95.23
821.305	111.61
821.483	134.14
821.661	214.01
821.839	121.85
822.017	197.63
822.195	187.39
822.373	97.28
822.551	177.15
822.729	132.09
822.907	121.85
823.085	254.97
823.262	160.77
823.44	156.67
823.618	125.95
823.796	158.72
823.974	107.52
824.152	134.14
824.329	152.57
824.507	76.8
824.685	175.1
824.863	187.39
825.04	164.86
825.218	117.76
825.396	125.95
825.574	136.19
825.751	113.66
825.929	150.53
826.107	109.57
826.284	103.42
826.462	171.01
826.639	136.19
826.817	111.61
826.994	72.7
827.172	91.13
827.349	175.1
827.527	132.09
827.704	177.15
827.882	70.65
828.059	87.04
828.237	95.23
828.414	123.9
828.591	78.85
828.769	142.33
828.946	203.77
829.124	148.48
829.301	152.57
829.478	101.37
829.655	91.13
829.833	91.13
830.01	23.55
830.187	175.1
830.364	128
830.542	125.95
830.719	95.23
830.896	113.66
831.073	123.9
831.25	154.62
831.427	125.95
831.604	146.43
831.782	123.9
831.959	115.71
832.136	152.57
832.313	148.48
832.49	128
832.667	76.8
832.844	93.18
833.021	119.81
833.198	113.66
833.374	148.48
833.551	99.33
833.728	130.05
833.905	119.81
834.082	19.46
834.259	64.51
834.436	33.79
834.612	156.67
834.789	70.65
834.966	60.42
835.143	111.61
835.319	93.18
835.496	136.19
835.673	76.8
835.85	111.61
836.026	128
836.203	173.05
836.38	60.42
836.556	62.46
836.733	148.48
836.909	138.24
837.086	134.14
837.262	107.52
837.439	103.42
837.616	119.81
837.792	87.04
837.968	144.38
838.145	101.37
838.321	72.7
838.498	41.98
838.674	181.25
838.851	80.89
839.027	54.27
839.203	101.37
839.38	52.22
839.556	44.03
839.732	62.46
839.909	111.61
840.085	68.61
840.261	97.28
840.437	103.42
840.614	89.09
840.79	87.04
840.966	64.51
841.142	84.99
841.318	80.89
841.494	44.03
841.671	111.61
841.847	41.98
842.023	113.66
842.199	74.75
842.375	37.89
842.551	3.07
842.727	19.46
842.903	115.71
843.079	146.43
843.255	68.61
843.431	78.85
843.607	80.89
843.783	48.13
843.959	82.94
844.134	89.09
844.31	91.13
844.486	105.47
844.662	70.65
844.838	82.94
845.013	142.33
845.189	74.75
845.365	89.09
845.541	91.13
845.716	136.19
845.892	76.8
846.068	66.56
846.244	37.89
846.419	99.33
846.595	3.07
846.77	80.89
846.946	138.24
847.122	99.33
847.297	70.65
847.473	68.61
847.648	48.13
847.824	54.27
847.999	66.56
848.175	78.85
848.35	105.47
848.526	17.41
848.701	78.85
848.876	89.09
849.052	132.09
849.227	89.09
849.403	66.56
849.578	91.13
849.753	78.85
849.929	54.27
850.104	87.04
850.279	76.8
850.454	27.65
850.63	46.08
850.805	168.96
850.98	95.23
851.155	101.37
851.33	78.85
851.505	46.08
851.681	115.71
851.856	41.98
852.031	31.74
852.206	50.18
852.381	68.61
852.556	1.02
852.731	87.04
852.906	64.51
853.081	111.61
853.256	9.22
853.431	35.84
853.606	-9.22
853.781	33.79
853.956	52.22
854.131	19.46
854.305	84.99
854.48	27.65
854.655	-39.94
854.83	70.65
855.005	-11.26
855.18	52.22
855.354	82.94
855.529	91.13
855.704	64.51
855.879	39.94
856.053	93.18
856.228	33.79
856.403	19.46
856.577	50.18
856.752	54.27
856.926	33.79
857.101	-13.31
857.276	29.7
857.45	39.94
857.625	66.56
857.799	41.98
857.974	50.18
858.148	5.12
858.323	37.89
858.497	52.22
858.672	80.89
858.846	62.46
859.02	72.7
859.195	31.74
859.369	52.22
859.543	91.13
859.718	50.18
859.892	89.09
860.066	46.08
860.241	29.7
860.415	5.12
860.589	-33.79
860.763	46.08
860.938	29.7
861.112	15.36
861.286	33.79
861.46	5.12
861.634	11.26
861.808	39.94
861.982	27.65
862.157	72.7
862.331	87.04
862.505	64.51
862.679	74.75
862.853	148.48
863.027	54.27
863.201	-1.02
863.375	64.51
863.549	58.37
863.722	-29.7
863.896	58.37
864.07	-29.7
864.244	64.51
864.418	37.89
864.592	54.27
864.766	-31.74
864.939	17.41
865.113	-48.13
865.287	68.61
865.461	39.94
865.634	37.89
865.808	15.36
865.982	3.07
866.156	62.46
866.329	9.22
866.503	46.08
866.676	54.27
866.85	-50.18
867.024	13.31
867.197	37.89
867.371	-27.65
867.544	21.5
867.718	19.46
867.891	44.03
868.065	-39.94
868.238	39.94
868.412	-19.46
868.585	48.13
868.759	62.46
868.932	-41.98
869.105	-23.55
869.279	19.46
869.452	-48.13
869.625	5.12
869.799	76.8
869.972	-54.27
870.145	46.08
870.319	50.18
870.492	27.65
870.665	-7.17
870.838	82.94
871.011	-87.04
871.185	46.08
871.358	-13.31
871.531	121.85
871.704	-23.55
871.877	52.22
872.05	76.8
872.223	1.02
872.396	66.56
872.569	52.22
872.742	-64.51
872.915	58.37
873.088	-7.17
873.261	31.74
873.434	74.75
873.607	15.36
873.78	-25.6
873.953	52.22
874.126	62.46
874.299	-35.84
874.471	103.42
874.644	9.22
874.817	-33.79
874.99	56.32
875.163	-27.65
875.335	-1.02
875.508	25.6
875.681	41.98
875.853	58.37
876.026	72.7
876.199	23.55
876.371	-35.84
876.544	89.09
876.717	17.41
876.889	-48.13
877.062	25.6
877.234	21.5
877.407	64.51
877.579	-9.22
877.752	-35.84
877.924	25.6
878.097	15.36
878.269	11.26
878.442	13.31
878.614	64.51
878.786	37.89
878.959	-27.65
879.131	21.5
879.303	-11.26
879.476	-48.13
879.648	111.61
879.82	39.94
879.993	3.07
880.165	68.61
880.337	-37.89
880.509	7.17
880.681	-23.55
880.854	-3.07
881.026	33.79
881.198	50.18
881.37	-21.5
881.542	97.28
881.714	54.27
881.886	39.94
882.058	25.6
882.23	9.22
882.402	48.13
882.574	-13.31
882.746	105.47
882.918	87.04
883.09	25.6
883.262	-44.03
883.434	82.94
883.606	-13.31
883.778	25.6
883.95	46.08
884.122	87.04
884.293	68.61
884.465	25.6
884.637	39.94
884.809	3.07
884.98	41.98
885.152	37.89
885.324	64.51
885.496	-27.65
885.667	13.31
885.839	-11.26
886.011	82.94
886.182	-5.12
886.354	21.5
886.525	60.42
886.697	66.56
886.869	-66.56
887.04	27.65
887.212	33.79
887.383	78.85
887.555	29.7
887.726	56.32
887.897	9.22
888.069	19.46
888.24	41.98
888.412	99.33
888.583	29.7
888.754	48.13
888.926	44.03
889.097	33.79
889.268	19.46
889.44	50.18
889.611	58.37
889.782	-31.74
889.953	31.74
890.125	105.47
890.296	-17.41
890.467	54.27
890.638	-19.46
890.809	-27.65
890.98	29.7
891.151	-35.84
891.323	33.79
891.494	15.36
891.665	56.32
891.836	31.74
892.007	-5.12
892.178	93.18
892.349	19.46
892.52	33.79
892.691	1.02
892.862	70.65
893.032	66.56
893.203	-7.17
893.374	56.32
893.545	52.22
893.716	-5.12
893.887	76.8
894.057	11.26
894.228	-3.07
894.399	60.42
894.57	62.46
894.74	37.89
894.911	-17.41
895.082	-17.41
895.253	-19.46
895.423	70.65
895.594	5.12
895.764	-44.03
895.935	-37.89
896.106	-11.26
896.276	9.22
896.447	-58.37
896.617	-11.26
896.788	-25.6
896.958	7.17
897.129	11.26
897.299	27.65
897.47	-15.36
897.64	50.18
897.81	74.75
897.981	44.03
898.151	11.26
898.322	-27.65
898.492	-35.84
898.662	44.03
898.832	15.36
899.003	-19.46
899.173	-7.17
899.343	-7.17
899.513	9.22
