Data from USB4F104151__41__11-05-27-669.txt Node

Date: Wed Mar 12 11:05:27 EDT 2025
User: louis
Spectrometer: USB4F10415
Trigger mode: 4
Integration Time (sec): 2.000000E-2
Scans to average: 1
Electric dark correction enabled: true
Nonlinearity correction enabled: false
Boxcar width: 0
XAxis mode: Wavelengths
Number of Pixels in Spectrum: 3648
>>>>>Begin Spectral Data<<<<<
178.204	-56.49
178.424	-56.49
178.644	-56.49
178.864	-27.82
179.084	-36.01
179.304	-29.87
179.524	-1.19
179.744	-15.53
179.964	-19.63
180.184	23.38
180.404	-9.39
180.624	25.43
180.844	-11.43
181.064	-48.3
181.283	56.15
181.503	2.9
181.723	27.48
181.943	-54.44
182.163	68.44
182.383	11.09
182.602	90.96
182.822	60.24
183.042	-25.77
183.262	-11.43
183.482	-48.3
183.701	39.76
183.921	54.1
184.141	-36.01
184.361	29.52
184.58	74.58
184.8	-19.63
185.02	-13.48
185.239	37.72
185.459	-40.11
185.679	101.2
185.898	21.33
186.118	7
186.338	15.19
186.557	50
186.777	15.19
186.997	37.72
187.216	7
187.436	21.33
187.655	-11.43
187.875	41.81
188.095	4.95
188.314	17.24
188.534	33.62
188.753	62.29
188.973	52.05
189.192	31.57
189.412	70.48
189.631	15.19
189.851	-36.01
190.07	45.91
190.29	11.09
190.509	11.09
190.729	90.96
190.948	41.81
191.168	82.77
191.387	50
191.607	4.95
191.826	90.96
192.045	-1.19
192.265	-46.25
192.484	50
192.704	113.49
192.923	-1.19
193.142	35.67
193.362	45.91
193.581	47.96
193.8	19.29
194.02	74.58
194.239	58.2
194.458	37.72
194.678	-13.48
194.897	-7.34
195.116	19.29
195.335	19.29
195.555	-29.87
195.774	-27.82
195.993	33.62
196.212	13.14
196.432	-29.87
196.651	84.82
196.87	31.57
197.089	31.57
197.308	-7.34
197.528	56.15
197.747	-27.82
197.966	-9.39
198.185	-25.77
198.404	9.05
198.623	-3.24
198.842	78.68
199.062	95.06
199.281	64.34
199.5	21.33
199.719	21.33
199.938	33.62
200.157	-9.39
200.376	76.63
200.595	31.57
200.814	27.48
201.033	-60.59
201.252	-17.58
201.471	66.39
201.69	-1.19
201.909	52.05
202.128	-42.15
202.347	45.91
202.566	-23.72
202.785	50
203.004	7
203.223	39.76
203.442	-11.43
203.661	43.86
203.879	37.72
204.098	2.9
204.317	11.09
204.536	115.54
204.755	56.15
204.974	9.05
205.193	-19.63
205.411	68.44
205.63	84.82
205.849	82.77
206.068	9.05
206.287	29.52
206.505	66.39
206.724	7
206.943	-1.19
207.162	50
207.381	54.1
207.599	84.82
207.818	-19.63
208.037	31.57
208.255	-5.29
208.474	90.96
208.693	4.95
208.911	119.64
209.13	66.39
209.349	13.14
209.567	62.29
209.786	58.2
210.005	7
210.223	31.57
210.442	-33.96
210.661	17.24
210.879	90.96
211.098	50
211.316	88.92
211.535	72.53
211.753	39.76
211.972	13.14
212.191	19.29
212.409	-72.87
212.628	29.52
212.846	25.43
213.065	84.82
213.283	74.58
213.502	35.67
213.72	41.81
213.938	72.53
214.157	86.87
214.375	-3.24
214.594	9.05
214.812	11.09
215.031	43.86
215.249	27.48
215.467	41.81
215.686	47.96
215.904	19.29
216.122	-27.82
216.341	60.24
216.559	7
216.778	-1.19
216.996	19.29
217.214	27.48
217.432	15.19
217.651	33.62
217.869	47.96
218.087	7
218.306	45.91
218.524	93.01
218.742	21.33
218.96	41.81
219.179	-50.35
219.397	74.58
219.615	7
219.833	19.29
220.051	25.43
220.27	37.72
220.488	15.19
220.706	43.86
220.924	35.67
221.142	25.43
221.36	4.95
221.578	58.2
221.796	60.24
222.015	29.52
222.233	66.39
222.451	29.52
222.669	-13.48
222.887	15.19
223.105	-7.34
223.323	29.52
223.541	43.86
223.759	52.05
223.977	11.09
224.195	41.81
224.413	62.29
224.631	113.49
224.849	-36.01
225.067	58.2
225.285	-56.49
225.503	43.86
225.721	47.96
225.939	80.72
226.157	19.29
226.375	58.2
226.592	-7.34
226.81	-27.82
227.028	62.29
227.246	88.92
227.464	27.48
227.682	72.53
227.9	4.95
228.117	39.76
228.335	15.19
228.553	23.38
228.771	29.52
228.989	76.63
229.206	47.96
229.424	82.77
229.642	74.58
229.86	-1.19
230.077	37.72
230.295	90.96
230.513	27.48
230.731	35.67
230.948	82.77
231.166	13.14
231.384	15.19
231.601	2.9
231.819	23.38
232.037	-33.96
232.254	-21.67
232.472	17.24
232.689	7
232.907	45.91
233.125	11.09
233.342	37.72
233.56	17.24
233.777	7
233.995	23.38
234.213	17.24
234.43	29.52
234.648	52.05
234.865	62.29
235.083	45.91
235.3	33.62
235.518	27.48
235.735	74.58
235.953	47.96
236.17	-27.82
236.388	41.81
236.605	-33.96
236.822	60.24
237.04	41.81
237.257	-3.24
237.475	17.24
237.692	37.72
237.909	62.29
238.127	27.48
238.344	7
238.562	17.24
238.779	-76.97
238.996	45.91
239.214	90.96
239.431	13.14
239.648	56.15
239.865	54.1
240.083	23.38
240.3	123.73
240.517	-46.25
240.735	101.2
240.952	-19.63
241.169	109.4
241.386	39.76
241.603	29.52
241.821	-3.24
242.038	60.24
242.255	45.91
242.472	39.76
242.689	-27.82
242.907	60.24
243.124	78.68
243.341	17.24
243.558	-9.39
243.775	41.81
243.992	45.91
244.209	7
244.426	60.24
244.643	35.67
244.86	11.09
245.078	27.48
245.295	11.09
245.512	76.63
245.729	50
245.946	17.24
246.163	84.82
246.38	25.43
246.597	-17.58
246.814	-40.11
247.031	45.91
247.248	86.87
247.464	4.95
247.681	54.1
247.898	47.96
248.115	33.62
248.332	47.96
248.549	7
248.766	-7.34
248.983	9.05
249.2	68.44
249.417	33.62
249.633	4.95
249.85	80.72
250.067	-25.77
250.284	-25.77
250.501	33.62
250.717	43.86
250.934	52.05
251.151	0.85
251.368	23.38
251.585	56.15
251.801	25.43
252.018	60.24
252.235	29.52
252.451	21.33
252.668	-13.48
252.885	21.33
253.102	50
253.318	-42.15
253.535	31.57
253.752	2.9
253.968	-23.72
254.185	2.9
254.401	13.14
254.618	19.29
254.835	70.48
255.051	31.57
255.268	-27.82
255.484	29.52
255.701	56.15
255.917	52.05
256.134	13.14
256.351	123.73
256.567	66.39
256.784	-36.01
257	45.91
257.217	17.24
257.433	15.19
257.65	11.09
257.866	35.67
258.082	88.92
258.299	60.24
258.515	17.24
258.732	2.9
258.948	4.95
259.165	50
259.381	35.67
259.597	50
259.814	68.44
260.03	19.29
260.246	45.91
260.463	-13.48
260.679	113.49
260.895	13.14
261.112	23.38
261.328	56.15
261.544	41.81
261.761	121.68
261.977	29.52
262.193	50
262.409	107.35
262.626	19.29
262.842	45.91
263.058	-40.11
263.274	13.14
263.49	54.1
263.707	78.68
263.923	47.96
264.139	80.72
264.355	-54.44
264.571	70.48
264.787	88.92
265.004	60.24
265.22	41.81
265.436	64.34
265.652	-11.43
265.868	45.91
266.084	35.67
266.3	41.81
266.516	7
266.732	45.91
266.948	21.33
267.164	2.9
267.38	68.44
267.596	76.63
267.812	33.62
268.028	78.68
268.244	-3.24
268.46	52.05
268.676	27.48
268.892	35.67
269.108	29.52
269.324	23.38
269.54	37.72
269.756	-48.3
269.972	-23.72
270.188	50
270.403	62.29
270.619	-27.82
270.835	43.86
271.051	21.33
271.267	37.72
271.483	66.39
271.698	-5.29
271.914	7
272.13	39.76
272.346	39.76
272.562	41.81
272.777	45.91
272.993	-7.34
273.209	58.2
273.425	17.24
273.64	0.85
273.856	15.19
274.072	-1.19
274.287	2.9
274.503	97.11
274.719	82.77
274.934	41.81
275.15	35.67
275.366	17.24
275.581	35.67
275.797	19.29
276.012	-38.06
276.228	60.24
276.444	17.24
276.659	74.58
276.875	31.57
277.09	84.82
277.306	52.05
277.521	54.1
277.737	35.67
277.952	78.68
278.168	70.48
278.383	72.53
278.599	25.43
278.814	56.15
279.03	17.24
279.245	58.2
279.461	-11.43
279.676	31.57
279.892	2.9
280.107	43.86
280.322	-62.63
280.538	50
280.753	-7.34
280.969	45.91
281.184	76.63
281.399	13.14
281.615	70.48
281.83	-23.72
282.045	109.4
282.26	13.14
282.476	29.52
282.691	43.86
282.906	33.62
283.122	123.73
283.337	-17.58
283.552	31.57
283.767	60.24
283.983	41.81
284.198	39.76
284.413	31.57
284.628	25.43
284.843	25.43
285.058	80.72
285.274	45.91
285.489	7
285.704	39.76
285.919	78.68
286.134	-3.24
286.349	88.92
286.564	7
286.779	84.82
286.995	99.16
287.21	0.85
287.425	99.16
287.64	72.53
287.855	82.77
288.07	45.91
288.285	29.52
288.5	90.96
288.715	45.91
288.93	45.91
289.145	82.77
289.36	66.39
289.575	13.14
289.79	-11.43
290.004	-11.43
290.219	45.91
290.434	21.33
290.649	80.72
290.864	-1.19
291.079	11.09
291.294	70.48
291.509	2.9
291.724	58.2
291.938	43.86
292.153	0.85
292.368	52.05
292.583	33.62
292.798	45.91
293.012	37.72
293.227	97.11
293.442	70.48
293.657	56.15
293.871	125.78
294.086	35.67
294.301	50
294.516	93.01
294.73	90.96
294.945	7
295.16	95.06
295.374	125.78
295.589	84.82
295.804	45.91
296.018	2.9
296.233	47.96
296.447	72.53
296.662	4.95
296.877	21.33
297.091	15.19
297.306	123.73
297.52	29.52
297.735	29.52
297.949	19.29
298.164	9.05
298.378	2.9
298.593	78.68
298.807	70.48
299.022	43.86
299.236	50
299.451	62.29
299.665	-9.39
299.88	52.05
300.094	76.63
300.309	74.58
300.523	31.57
300.737	78.68
300.952	45.91
301.166	52.05
301.381	52.05
301.595	-40.11
301.809	-15.53
302.024	56.15
302.238	29.52
302.452	84.82
302.667	78.68
302.881	0.85
303.095	-7.34
303.309	41.81
303.524	68.44
303.738	-3.24
303.952	-15.53
304.166	52.05
304.381	-31.91
304.595	123.73
304.809	23.38
305.023	80.72
305.237	52.05
305.452	-29.87
305.666	60.24
305.88	21.33
306.094	0.85
306.308	43.86
306.522	62.29
306.736	70.48
306.95	-36.01
307.164	43.86
307.379	45.91
307.593	54.1
307.807	82.77
308.021	68.44
308.235	103.25
308.449	-7.34
308.663	-21.67
308.877	54.1
309.091	72.53
309.305	27.48
309.519	86.87
309.733	27.48
309.947	2.9
310.161	74.58
310.374	78.68
310.588	70.48
310.802	-3.24
311.016	9.05
311.23	4.95
311.444	9.05
311.658	41.81
311.872	123.73
312.085	56.15
312.299	88.92
312.513	27.48
312.727	2.9
312.941	56.15
313.154	19.29
313.368	68.44
313.582	41.81
313.796	-5.29
314.009	19.29
314.223	52.05
314.437	-13.48
314.651	17.24
314.864	-27.82
315.078	111.44
315.292	29.52
315.505	39.76
315.719	88.92
315.933	54.1
316.146	54.1
316.36	-52.39
316.573	68.44
316.787	41.81
317.001	90.96
317.214	43.86
317.428	74.58
317.641	39.76
317.855	-5.29
318.068	72.53
318.282	-9.39
318.495	68.44
318.709	68.44
318.922	19.29
319.136	76.63
319.349	76.63
319.563	27.48
319.776	17.24
319.99	17.24
320.203	64.34
320.417	15.19
320.63	39.76
320.843	43.86
321.057	41.81
321.27	-9.39
321.483	9.05
321.697	95.06
321.91	66.39
322.124	68.44
322.337	97.11
322.55	78.68
322.763	64.34
322.977	113.49
323.19	-48.3
323.403	97.11
323.617	-33.96
323.83	82.77
324.043	74.58
324.256	50
324.469	80.72
324.683	31.57
324.896	62.29
325.109	27.48
325.322	31.57
325.535	-9.39
325.748	33.62
325.962	17.24
326.175	27.48
326.388	19.29
326.601	41.81
326.814	23.38
327.027	97.11
327.24	144.21
327.453	-3.24
327.666	29.52
327.879	82.77
328.092	74.58
328.305	23.38
328.518	-3.24
328.731	19.29
328.944	80.72
329.157	93.01
329.37	45.91
329.583	123.73
329.796	2.9
330.009	-7.34
330.222	90.96
330.435	70.48
330.648	121.68
330.861	-19.63
331.073	113.49
331.286	31.57
331.499	105.3
331.712	9.05
331.925	25.43
332.138	41.81
332.35	111.44
332.563	13.14
332.776	84.82
332.989	62.29
333.202	41.81
333.414	39.76
333.627	33.62
333.84	62.29
334.053	78.68
334.265	37.72
334.478	60.24
334.691	58.2
334.903	-3.24
335.116	-7.34
335.329	58.2
335.541	54.1
335.754	97.11
335.966	4.95
336.179	39.76
336.392	-38.06
336.604	27.48
336.817	72.53
337.029	29.52
337.242	56.15
337.454	33.62
337.667	90.96
337.88	64.34
338.092	29.52
338.305	13.14
338.517	2.9
338.729	-27.82
338.942	146.26
339.154	64.34
339.367	11.09
339.579	-48.3
339.792	17.24
340.004	86.87
340.217	47.96
340.429	103.25
340.641	119.64
340.854	25.43
341.066	33.62
341.278	90.96
341.491	4.95
341.703	74.58
341.915	66.39
342.128	41.81
342.34	27.48
342.552	0.85
342.764	90.96
342.977	66.39
343.189	43.86
343.401	35.67
343.613	-15.53
343.826	29.52
344.038	-40.11
344.25	50
344.462	27.48
344.674	97.11
344.886	27.48
345.099	-17.58
345.311	60.24
345.523	84.82
345.735	47.96
345.947	80.72
346.159	72.53
346.371	45.91
346.583	86.87
346.795	76.63
347.007	17.24
347.219	54.1
347.431	90.96
347.643	45.91
347.855	19.29
348.067	-19.63
348.279	19.29
348.491	-7.34
348.703	4.95
348.915	119.64
349.127	-11.43
349.339	52.05
349.551	9.05
349.763	58.2
349.975	-27.82
350.187	31.57
350.399	60.24
350.61	54.1
350.822	21.33
351.034	54.1
351.246	84.82
351.458	35.67
351.669	90.96
351.881	72.53
352.093	-31.91
352.305	2.9
352.517	19.29
352.728	-21.67
352.94	45.91
353.152	68.44
353.363	43.86
353.575	93.01
353.787	74.58
353.999	66.39
354.21	58.2
354.422	27.48
354.633	19.29
354.845	82.77
355.057	50
355.268	80.72
355.48	95.06
355.692	113.49
355.903	93.01
356.115	54.1
356.326	-27.82
356.538	86.87
356.749	13.14
356.961	113.49
357.172	37.72
357.384	37.72
357.595	58.2
357.807	76.63
358.018	17.24
358.23	33.62
358.441	21.33
358.653	58.2
358.864	25.43
359.075	-3.24
359.287	109.4
359.498	82.77
359.709	27.48
359.921	60.24
360.132	78.68
360.344	11.09
360.555	19.29
360.766	86.87
360.977	15.19
361.189	121.68
361.4	29.52
361.611	76.63
361.823	109.4
362.034	33.62
362.245	39.76
362.456	37.72
362.667	25.43
362.879	78.68
363.09	64.34
363.301	82.77
363.512	11.09
363.723	90.96
363.935	-40.11
364.146	82.77
364.357	-27.82
364.568	140.12
364.779	31.57
364.99	80.72
365.201	80.72
365.412	45.91
365.623	39.76
365.834	88.92
366.045	101.2
366.256	50
366.467	56.15
366.678	4.95
366.889	90.96
367.1	74.58
367.311	47.96
367.522	-21.67
367.733	43.86
367.944	82.77
368.155	72.53
368.366	64.34
368.577	80.72
368.788	95.06
368.999	37.72
369.209	64.34
369.42	11.09
369.631	107.35
369.842	68.44
370.053	25.43
370.264	17.24
370.474	52.05
370.685	-9.39
370.896	31.57
371.107	2.9
371.317	21.33
371.528	31.57
371.739	56.15
371.95	9.05
372.16	111.44
372.371	19.29
372.582	70.48
372.792	-3.24
373.003	47.96
373.214	33.62
373.424	66.39
373.635	-3.24
373.846	54.1
374.056	0.85
374.267	70.48
374.477	129.88
374.688	2.9
374.898	-42.15
375.109	76.63
375.319	125.78
375.53	37.72
375.74	52.05
375.951	19.29
376.161	144.21
376.372	72.53
376.582	62.29
376.793	93.01
377.003	84.82
377.214	33.62
377.424	103.25
377.635	47.96
377.845	19.29
378.055	86.87
378.266	86.87
378.476	99.16
378.686	21.33
378.897	76.63
379.107	25.43
379.317	68.44
379.528	62.29
379.738	70.48
379.948	25.43
380.158	78.68
380.369	86.87
380.579	19.29
380.789	70.48
380.999	-1.19
381.21	90.96
381.42	39.76
381.63	0.85
381.84	88.92
382.05	62.29
382.261	72.53
382.471	41.81
382.681	41.81
382.891	127.83
383.101	78.68
383.311	90.96
383.521	-3.24
383.731	119.64
383.941	95.06
384.151	62.29
384.361	33.62
384.571	29.52
384.781	58.2
384.991	11.09
385.201	68.44
385.411	84.82
385.621	29.52
385.831	105.3
386.041	-29.87
386.251	97.11
386.461	82.77
386.671	60.24
386.881	23.38
387.091	29.52
387.301	107.35
387.511	15.19
387.72	99.16
387.93	84.82
388.14	31.57
388.35	101.2
388.56	74.58
388.769	27.48
388.979	95.06
389.189	95.06
389.399	39.76
389.609	54.1
389.818	90.96
390.028	103.25
390.238	66.39
390.447	45.91
390.657	119.64
390.867	39.76
391.076	17.24
391.286	17.24
391.496	174.93
391.705	80.72
391.915	131.92
392.125	101.2
392.334	7
392.544	-29.87
392.753	47.96
392.963	35.67
393.172	111.44
393.382	37.72
393.591	103.25
393.801	68.44
394.01	142.16
394.22	41.81
394.429	76.63
394.639	15.19
394.848	56.15
395.058	97.11
395.267	115.54
395.477	86.87
395.686	86.87
395.895	93.01
396.105	115.54
396.314	37.72
396.524	105.3
396.733	62.29
396.942	88.92
397.152	154.45
397.361	41.81
397.57	164.69
397.78	142.16
397.989	115.54
398.198	146.26
398.407	150.36
398.617	76.63
398.826	82.77
399.035	52.05
399.244	148.31
399.453	58.2
399.663	17.24
399.872	117.59
400.081	39.76
400.29	117.59
400.499	54.1
400.708	111.44
400.917	56.15
401.127	64.34
401.336	74.58
401.545	115.54
401.754	140.12
401.963	117.59
402.172	117.59
402.381	35.67
402.59	52.05
402.799	150.36
403.008	144.21
403.217	140.12
403.426	52.05
403.635	207.7
403.844	107.35
404.053	162.64
404.262	144.21
404.471	191.31
404.68	168.79
404.888	158.55
405.097	152.4
405.306	158.55
405.515	183.12
405.724	140.12
405.933	109.4
406.142	181.07
406.35	166.74
406.559	123.73
406.768	189.27
406.977	217.94
407.185	123.73
407.394	125.78
407.603	72.53
407.812	189.27
408.02	183.12
408.229	238.42
408.438	207.7
408.646	187.22
408.855	269.14
409.064	299.86
409.272	267.09
409.481	293.71
409.69	279.38
409.898	222.03
410.107	191.31
410.315	281.43
410.524	238.42
410.733	256.85
410.941	279.38
411.15	306
411.358	299.86
411.567	394.06
411.775	334.67
411.984	342.86
412.192	318.29
412.401	355.15
412.609	430.93
412.818	383.82
413.026	410.45
413.234	486.22
413.443	473.93
413.651	488.27
413.86	533.33
414.068	500.56
414.276	545.61
414.485	596.81
414.693	572.24
414.901	623.44
415.11	615.24
415.318	570.19
415.526	572.24
415.734	613.2
415.943	715.59
416.151	633.68
416.359	611.15
416.567	756.55
416.776	817.99
416.984	809.8
417.192	836.42
417.4	854.86
417.608	852.81
417.817	977.73
418.025	848.71
418.233	1059.65
418.441	963.4
418.649	1069.89
418.857	1049.41
419.065	1141.57
419.273	1106.76
419.481	1141.57
419.689	1254.21
419.897	1286.98
420.105	1289.03
420.313	1207.11
420.521	1375.04
420.729	1393.47
420.937	1461.06
421.145	1520.45
421.353	1528.64
421.561	1598.27
421.769	1659.71
421.977	1727.29
422.185	1669.95
422.393	1821.5
422.601	1907.51
422.809	1911.61
423.017	1991.48
423.224	2067.25
423.432	2216.76
423.64	2143.03
423.848	2452.27
424.056	2288.43
424.263	2349.87
424.471	2458.42
424.679	2470.7
424.887	2655.02
425.094	2769.71
425.302	2769.71
425.51	2800.43
425.718	2851.63
425.925	2904.87
426.133	2984.74
426.341	3259.17
426.548	3304.23
426.756	3341.09
426.964	3466.02
427.171	3570.46
427.379	3715.87
427.586	3826.46
427.794	3791.64
428.001	3994.39
428.209	4315.92
428.417	4158.23
428.624	4416.27
428.832	4502.29
429.039	4479.76
429.247	4479.76
429.454	4883.21
429.662	5155.59
429.869	4813.58
430.076	5124.87
430.284	4926.22
430.491	5141.25
430.699	5516.03
430.906	5546.75
431.114	5755.65
431.321	5985.02
431.528	5819.13
431.736	6404.85
431.943	6501.11
432.15	6245.11
432.358	6685.42
432.565	6992.62
432.772	6804.21
432.979	7342.82
433.187	7355.11
433.394	7326.44
433.601	8045.27
433.808	7764.7
434.016	7889.63
434.223	8182.49
434.43	8798.93
434.637	8418
434.844	9095.88
435.052	9290.44
435.259	9083.59
435.466	9300.68
435.673	9104.07
435.88	9605.83
436.087	9915.07
436.294	10275.51
436.501	10228.41
436.708	10363.58
436.915	10543.8
437.122	10947.25
437.329	11002.54
437.537	11375.27
437.743	11649.7
437.95	11537.06
438.157	12161.69
438.364	12446.36
438.571	12343.96
438.778	12636.82
438.985	13605.51
439.192	13320.84
439.399	13417.1
439.606	13322.89
439.813	14236.28
440.02	14869.11
440.227	14750.32
440.433	14549.62
440.64	14918.26
440.847	15092.34
441.054	15247.98
441.261	16081.5
441.467	16106.08
441.674	16405.08
441.881	16833.11
442.088	17177.17
442.294	16716.37
442.501	17508.94
442.708	17676.87
442.914	18577.98
443.121	19202.61
443.328	18543.16
443.534	19755.56
443.741	19323.44
443.948	19049.01
444.154	20609.56
444.361	20236.83
444.568	20793.88
444.774	20840.98
444.981	20812.31
445.187	21533.2
445.394	22362.62
445.6	21776.91
445.807	23980.52
446.013	23036.41
446.22	23339.51
446.426	24345.06
446.633	24728.03
446.839	25424.34
447.046	24234.47
447.252	25801.16
447.459	25702.86
447.665	25326.03
447.871	26763.71
448.078	27806.13
448.284	26347.97
448.491	27161.01
448.697	28316.07
448.903	28479.91
449.11	28672.42
449.316	28279.21
449.522	28871.07
449.728	29696.4
449.935	29856.14
450.141	29532.56
450.347	30157.19
450.553	29653.39
450.76	29661.58
450.966	30759.3
451.172	30273.93
451.378	31168.89
451.584	30366.09
451.791	31220.09
451.997	31037.82
452.203	31605.11
452.409	31336.82
452.615	31476.09
452.821	30220.68
453.027	29733.26
453.233	31021.44
453.44	29895.05
453.646	30087.56
453.852	30466.44
454.058	30837.12
454.264	29858.19
454.47	30632.32
454.676	29550.99
454.882	30837.12
455.088	28172.71
455.294	28494.24
455.5	28678.56
455.705	28803.49
455.911	27953.58
456.117	27484.59
456.323	26745.28
456.529	25586.13
456.735	26483.14
456.941	25713.1
457.147	25410
457.352	24629.73
457.558	24406.5
457.764	24367.59
457.97	24027.62
458.176	23271.92
458.381	23433.71
458.587	22362.62
458.793	21973.51
458.999	20828.7
459.204	22682.11
459.41	21907.98
459.616	20455.97
459.821	20513.31
460.027	20544.03
460.233	19958.31
460.438	18790.97
460.644	18895.41
460.85	18082.37
461.055	17961.54
461.261	18178.62
461.466	16601.69
461.672	16347.74
461.878	17156.69
462.083	15956.58
462.289	15702.63
462.494	15667.81
462.7	14940.79
462.905	14635.64
463.111	15174.25
463.316	15334
463.522	14848.63
463.727	14991.98
463.932	14717.56
464.138	14914.16
464.343	14735.99
464.549	14453.37
464.754	14991.98
464.959	14899.83
465.165	14596.73
465.37	14054.01
465.575	13589.13
465.781	14094.97
465.986	14346.87
466.191	13765.25
466.397	13496.97
466.602	13040.27
466.807	13380.23
467.012	13468.3
467.218	13343.37
467.423	12966.54
467.628	13339.27
467.833	13705.86
468.038	13308.55
468.244	12870.29
468.449	13265.55
468.654	13070.99
468.859	12984.98
469.064	12479.13
469.269	12270.23
469.474	12337.82
469.679	12464.79
469.885	12348.06
470.09	12440.22
470.295	12163.74
470.5	11946.66
470.705	11834.02
470.91	11752.1
471.115	11592.36
471.32	11737.76
471.525	12004
471.73	11420.33
471.935	11463.33
472.139	10861.23
472.344	11080.36
472.549	11037.36
472.754	11018.93
472.959	10748.59
473.164	10482.36
473.369	10498.74
473.574	10965.68
473.778	10590.9
473.983	10797.74
474.188	10357.43
474.393	10097.34
474.598	10019.52
474.802	9816.77
475.007	9829.06
475.212	9884.35
475.417	9468.61
475.621	9568.96
475.826	9702.08
476.031	9439.94
476.235	9368.26
476.44	9433.8
476.645	9065.16
476.849	9265.86
477.054	9247.43
477.259	8962.76
477.463	9093.83
477.668	8930
477.872	8862.41
478.077	8501.97
478.282	8413.91
478.486	8665.81
478.691	8356.57
478.895	8418
479.1	8334.04
479.304	8397.53
479.509	8010.46
479.713	8239.83
479.918	7879.39
480.122	7961.31
480.326	8176.34
480.531	8010.46
480.735	8004.32
480.94	8037.08
481.144	8192.73
481.348	7949.02
481.553	7953.12
481.757	7727.84
481.961	7828.19
482.166	7883.49
482.37	7785.18
482.574	7699.17
482.778	7693.02
482.983	7787.23
483.187	7781.09
483.391	7863.01
483.595	7717.6
483.8	7666.4
484.004	7744.22
484.208	7813.85
484.412	7916.25
484.616	7834.33
484.821	7850.72
485.025	7637.73
485.229	7746.27
485.433	7693.02
485.637	7932.64
485.841	7545.57
486.045	7578.34
486.249	7840.48
486.453	7656.16
486.657	7820
486.861	7799.52
487.065	7508.71
487.269	7770.85
487.473	7502.56
487.677	7799.52
487.881	7758.56
488.085	7756.51
488.289	7725.79
488.493	7762.65
488.697	8008.41
488.901	7981.79
489.105	7824.09
489.309	7848.67
489.512	7840.48
489.716	7789.28
489.92	7805.66
490.124	7723.74
490.328	7998.17
490.531	7979.74
490.735	8028.89
490.939	8174.3
491.143	7942.88
491.346	8053.47
491.55	7879.39
491.754	8080.09
491.958	8073.95
492.161	8217.3
492.365	8026.84
492.569	8194.78
492.772	8151.77
492.976	8268.5
493.18	8405.72
493.383	8504.02
493.587	8551.12
493.79	8542.93
493.994	8442.58
494.197	8571.6
494.401	8757.97
494.605	8739.54
494.808	8698.58
495.012	8809.17
495.215	8739.54
495.419	9026.25
495.622	9024.2
495.825	9177.8
496.029	9114.31
496.232	9386.69
496.436	9218.76
496.639	9695.94
496.843	9624.26
497.046	9562.82
497.249	9564.87
497.453	9628.35
497.656	9740.99
497.859	9718.47
498.063	9970.37
498.266	10531.51
498.469	10205.88
498.673	10226.36
498.876	10558.13
499.079	10433.21
499.282	10431.16
499.485	10859.18
499.689	10846.9
499.892	10834.61
500.095	11055.79
500.298	11379.37
500.501	11342.5
500.705	11492.01
500.908	11641.51
501.111	11762.34
501.314	11811.49
501.517	11809.44
501.72	12071.58
501.923	11979.42
502.126	12325.53
502.329	12538.52
502.532	12548.76
502.735	12690.07
502.938	12939.92
503.141	13015.69
503.344	13277.83
503.547	13275.79
503.75	13456.01
503.953	13836.93
504.156	13826.69
504.359	14160.51
504.562	13732.48
504.765	14393.98
504.968	14553.72
505.17	14721.65
505.373	14533.24
505.576	15067.76
505.779	15270.51
505.982	14971.5
506.185	15172.21
506.387	15385.19
506.59	15577.7
506.793	15989.35
506.996	15915.62
507.198	16208.48
507.401	16380.51
507.604	16743
507.807	16890.45
508.009	16792.15
508.212	17044.05
508.415	17222.22
508.617	17381.96
508.82	17533.51
509.022	17492.55
509.225	17961.54
509.428	17904.2
509.63	18287.17
509.833	18270.78
510.035	18721.34
510.238	18872.89
510.44	19024.44
510.643	19114.55
510.845	19143.22
511.048	19513.9
511.25	19810.86
511.453	20226.59
511.655	20601.37
511.858	20111.91
512.06	20462.11
512.262	20791.83
512.465	21127.7
512.667	21232.15
512.87	20752.92
513.072	21565.96
513.274	21809.67
513.477	21836.3
513.679	22366.72
513.881	22211.07
514.084	22718.97
514.286	22622.72
514.488	22788.6
514.69	23669.23
514.893	23613.93
515.095	23783.91
515.297	23757.29
515.499	24054.25
515.701	24209.89
515.904	24549.85
516.106	24875.48
516.308	25125.33
516.51	25377.23
516.712	25383.38
516.914	25622.99
517.116	25928.14
517.318	26261.96
517.52	26259.91
517.722	26290.63
517.925	26730.94
518.127	27132.34
518.329	27638.19
518.531	27130.3
518.733	27933.1
518.935	28471.71
519.136	28203.43
519.338	28416.42
519.54	28613.02
519.742	29131.16
519.944	29305.24
520.146	29620.63
520.348	29841.81
520.55	29731.22
520.752	29997.45
520.954	30759.3
521.155	30230.92
521.357	30998.91
521.559	31201.66
521.761	31697.27
521.963	31611.25
522.164	31457.65
522.366	32151.91
522.568	32280.94
522.77	32455.01
522.971	32889.18
523.173	32614.76
523.375	32983.39
523.576	33018.21
523.778	33335.64
523.98	33642.84
524.181	33581.4
524.383	33861.97
524.584	34289.99
524.786	34214.22
524.988	34289.99
525.189	34515.27
525.391	35041.6
525.592	35201.34
525.794	35111.23
525.995	35385.66
526.197	35301.69
526.398	35303.74
526.6	36213.04
526.801	36028.72
527.003	36546.86
527.204	36520.23
527.406	36604.2
527.607	36542.76
527.808	37034.27
528.01	36141.36
528.211	36602.15
528.412	37781.78
528.614	37198.11
528.815	37314.84
529.016	37681.43
529.218	37273.88
529.419	37538.07
529.62	37710.1
529.822	37226.78
530.023	37947.67
530.224	37918.99
530.425	37832.98
530.626	38031.63
530.828	38082.83
531.029	38719.75
531.23	38240.53
531.431	38099.22
531.632	38295.82
531.833	38672.65
532.035	38631.69
532.236	38797.57
532.437	38656.26
532.638	38666.5
532.839	38816.01
533.04	39282.94
533.241	38347.02
533.442	39334.14
533.643	38746.37
533.844	39336.19
534.045	39198.98
534.246	38551.82
534.447	39069.95
534.648	39106.82
534.849	39403.77
535.05	38838.53
535.251	39098.62
535.451	38877.44
535.652	39799.03
535.853	39166.21
536.054	39442.68
536.255	39250.17
536.456	39008.51
536.657	39831.8
536.857	39098.62
537.058	38684.94
537.259	39334.14
537.46	39522.55
537.66	39334.14
537.861	39270.65
538.062	39176.45
538.263	39567.61
538.463	39555.32
538.664	39057.67
538.865	39809.27
539.065	39416.06
539.266	39254.27
539.466	39749.88
539.667	39049.47
539.868	39837.94
540.068	39586.04
540.269	39289.09
540.469	39778.55
540.67	39074.05
540.87	39102.72
541.071	39254.27
541.271	39330.05
541.472	39747.83
541.672	39504.12
541.873	39362.81
542.073	38588.68
542.274	39295.23
542.474	39207.17
542.675	39061.76
542.875	39344.38
543.075	39319.81
543.276	38953.22
543.476	39756.02
543.676	39233.79
543.877	39280.89
544.077	39565.56
544.277	39026.95
544.478	39194.88
544.678	39616.76
544.878	39227.65
545.078	39969.01
545.279	38992.13
545.479	39418.11
545.679	39407.87
545.879	39092.48
546.079	39213.31
546.28	39397.63
546.48	38908.16
546.68	39377.15
546.88	39213.31
547.08	38957.31
547.28	38912.26
547.48	38914.31
547.68	39063.81
547.88	39117.06
548.081	39440.64
548.281	39053.57
548.481	39461.12
548.681	39213.31
548.881	39342.33
549.081	39266.56
549.28	39053.57
549.48	39344.38
549.68	38887.68
549.88	39442.68
550.08	38902.02
550.28	39123.2
550.48	38834.44
550.68	39581.95
550.88	38861.06
551.08	38910.21
551.279	39207.17
551.479	38783.24
551.679	39227.65
551.879	38916.36
552.079	39098.62
552.278	38787.33
552.478	38777.09
552.678	38775.05
552.878	38934.79
553.077	38854.92
553.277	38422.8
553.477	39307.52
553.676	38922.5
553.876	38828.29
554.076	38656.26
554.275	38404.36
554.475	38058.26
554.674	38736.13
554.874	38500.62
555.074	38482.19
555.273	38740.23
555.473	38988.03
555.672	38353.16
555.872	38121.74
556.071	38459.66
556.271	38459.66
556.47	38410.51
556.67	38138.13
556.869	38365.45
557.068	38344.97
557.268	38091.02
557.467	38326.54
557.667	37769.49
557.866	38021.39
558.065	38113.55
558.265	37533.98
558.464	37624.09
558.663	38035.73
558.863	37615.9
559.062	38154.51
559.261	37583.13
559.461	37968.15
559.66	37390.62
559.859	37673.24
560.058	37493.02
560.258	37529.88
560.457	36905.25
560.656	37521.69
560.855	37026.08
561.054	37060.9
561.253	36929.83
561.453	37343.52
561.652	36714.79
561.851	37247.26
562.05	36788.52
562.249	36596.01
562.448	37136.67
562.647	36456.75
562.846	36514.09
563.045	36718.89
563.244	36352.3
563.443	36624.68
563.642	36198.7
563.841	36426.03
564.04	36231.47
564.239	36620.58
564.438	35709.24
564.637	36192.56
564.836	35797.3
565.035	35445.05
565.234	35660.09
565.432	35828.02
565.631	35727.67
565.83	35557.69
566.029	35602.74
566.228	35391.8
566.427	35416.38
566.625	35213.63
566.824	34533.7
567.023	35266.88
567.222	34277.71
567.42	35117.37
567.619	34576.71
567.818	34828.61
568.016	35062.08
568.215	34812.23
568.414	34328.91
568.612	34892.1
568.811	34296.14
569.01	34410.82
569.208	33823.06
569.407	34136.4
569.605	33585.49
569.804	34007.37
570.002	33618.26
570.201	33950.03
570.4	33270.11
570.598	33300.83
570.797	33096.03
570.995	33622.36
571.193	32823.65
571.392	33571.16
571.59	32774.5
571.789	33155.42
571.987	32819.55
572.186	32893.28
572.384	32627.04
572.582	32903.52
572.781	32641.38
572.979	32352.62
573.177	32504.17
573.376	32332.14
573.574	31791.47
573.772	32680.29
573.971	31537.52
574.169	32016.75
574.367	31656.31
574.565	31963.5
574.763	31711.6
574.962	31506.8
575.16	31244.66
575.358	31578.48
575.556	31326.58
575.754	31983.98
575.952	30916.99
576.151	31222.14
576.349	30945.66
576.547	31035.77
576.745	30824.83
576.943	30898.56
577.141	30790.02
577.339	30906.75
577.537	30517.64
577.735	30491.01
577.933	30136.71
578.131	30525.83
578.329	30484.87
578.527	30011.79
578.725	30181.77
578.923	30253.45
579.121	29944.2
579.319	29579.67
579.516	30017.93
579.714	29622.67
579.912	29737.36
580.11	29573.52
580.308	29618.58
580.506	29368.73
580.704	28653.98
580.901	29342.1
581.099	29649.3
581.297	28834.21
581.495	29141.4
581.692	29094.3
581.89	29006.23
582.088	28965.28
582.285	28502.43
582.483	29122.97
582.681	28733.85
582.878	28570.02
583.076	28410.28
583.274	28750.24
583.471	28271.01
583.669	28391.84
583.866	27992.49
584.064	28217.77
584.262	28125.61
584.459	28187.05
584.657	27630
584.854	27967.91
585.052	27421.11
585.249	27695.53
585.447	27500.98
585.644	27611.57
585.841	27060.66
586.039	27748.78
586.236	26880.44
586.434	27228.6
586.631	26837.44
586.828	27216.31
587.026	27003.32
587.223	26972.6
587.42	26866.11
587.618	26864.06
587.815	26499.52
588.012	26765.76
588.21	26243.52
588.407	26616.26
588.604	26563.01
588.801	26276.29
588.999	26022.34
589.196	26020.3
589.393	25979.34
589.59	25944.52
589.787	25731.53
589.984	26040.78
590.182	25313.75
590.379	26071.5
590.576	25514.45
590.773	25543.12
590.97	25410
591.167	25516.5
591.364	25197.01
591.561	25442.77
591.758	24898.01
591.955	25051.61
592.152	25180.63
592.349	25022.94
592.546	24914.39
592.743	24748.51
592.94	24408.54
593.137	24775.13
593.334	24789.47
593.531	24068.58
593.727	24785.37
593.924	24447.46
594.121	24289.76
594.318	24490.46
594.515	24064.49
594.712	24637.92
594.908	24103.4
595.105	24359.39
595.302	23871.98
595.499	24013.29
595.696	23970.28
595.892	23556.59
596.089	23609.84
596.286	23839.21
596.482	23482.86
596.679	23546.35
596.876	23441.9
597.072	23273.97
597.269	23306.74
597.466	22827.51
597.662	23077.37
597.859	23101.94
598.055	23069.17
598.252	22817.27
598.448	22903.29
598.645	22637.05
598.841	22583.8
599.038	22407.68
599.234	22477.31
599.431	22448.64
599.627	22544.89
599.824	22635
600.02	22407.68
600.217	22241.79
600.413	22520.32
600.609	22260.23
600.806	22053.38
601.002	22133.25
601.198	21789.19
601.395	21932.55
601.591	21842.44
601.787	21727.75
601.984	21791.24
602.18	21948.93
602.376	21533.2
602.572	21443.09
602.769	21266.96
602.965	21221.91
603.161	21430.8
603.357	20998.68
603.553	21162.51
603.75	21303.82
603.946	20931.09
604.142	21103.12
604.338	20757.02
604.534	20949.53
604.73	20800.02
604.926	20664.86
605.122	20709.91
605.318	20503.07
605.514	20611.61
605.71	20279.84
605.906	20406.81
606.102	20263.46
606.298	20138.53
606.494	20189.73
606.69	20312.61
606.886	20062.76
607.082	19896.87
607.278	20222.5
607.474	19878.44
607.67	20277.79
607.866	19595.82
608.062	19954.21
608.257	19669.55
608.453	19849.77
608.649	19730.98
608.845	19606.06
609.041	19554.86
609.236	19542.57
609.432	19532.33
609.628	19460.65
609.824	19354.16
610.019	19073.59
610.215	19079.73
610.411	19468.84
610.606	18997.81
610.802	19487.28
610.998	19098.16
611.193	19233.33
611.389	19309.1
611.584	19108.4
611.78	18973.24
611.976	18891.32
612.171	19118.64
612.367	19053.11
612.562	18885.17
612.758	18518.59
612.953	18739.77
613.149	18938.42
613.344	18678.33
613.539	19257.9
613.735	18715.19
613.93	18684.47
614.126	18319.93
614.321	18623.03
614.517	18408
614.712	18600.51
614.907	18762.3
615.103	18659.9
615.298	18223.68
615.493	18461.24
615.688	18147.9
615.884	18551.35
616.079	17977.92
616.274	18354.75
616.47	18002.5
616.665	17887.81
616.86	17848.9
617.055	17943.11
617.25	17848.9
617.445	17891.91
617.641	17709.64
617.836	17932.87
618.031	17627.72
618.226	17617.48
618.421	17652.3
618.616	17975.88
618.811	17617.48
619.006	17902.15
619.201	17148.5
619.396	17379.92
619.591	17125.97
619.786	17136.21
619.981	17242.7
620.176	17228.37
620.371	16749.14
620.566	17056.34
620.761	16869.97
620.956	17062.48
621.151	16548.44
621.346	16718.42
621.541	16239.2
621.735	16937.55
621.93	16489.05
622.125	16392.8
622.32	16294.49
622.515	16435.8
622.709	16265.82
622.904	16114.27
623.099	16009.83
623.294	15960.67
623.488	15788.64
623.683	15743.59
623.878	15667.81
624.072	15680.1
624.267	15405.67
624.462	15348.33
624.656	15022.7
624.851	15194.73
625.046	15233.64
625.24	15250.03
625.435	14938.74
625.629	14975.6
625.824	15096.43
626.018	14971.5
626.213	14488.18
626.407	14600.82
626.602	14506.62
626.796	14600.82
626.991	14443.13
627.185	14461.56
627.38	14350.97
627.574	14101.12
627.768	14322.3
627.963	13965.95
628.157	13945.47
628.352	13968
628.546	13757.06
628.74	13800.07
628.935	13755.01
629.129	13968
629.323	13570.69
629.517	13525.64
629.712	13572.74
629.906	13259.4
630.1	13247.12
630.294	13286.03
630.489	13232.78
630.683	13132.43
630.877	12974.74
631.071	12837.52
631.265	13214.35
631.459	12642.96
631.653	12915.34
631.848	12761.75
632.042	12356.25
632.236	12657.3
632.43	12341.91
632.624	12405.4
632.818	12284.57
633.012	12296.86
633.206	12317.34
633.4	12071.58
633.594	12176.03
633.788	12118.68
633.982	12133.02
634.176	12094.11
634.369	11934.37
634.563	11934.37
634.757	11860.64
634.951	11750.05
635.145	11635.36
635.339	11772.58
635.533	11387.56
635.726	11717.28
635.92	11360.94
636.114	11432.61
636.308	11162.28
636.501	11266.73
636.695	11252.39
636.889	11268.78
637.083	11057.84
637.276	10906.29
637.47	10992.3
637.664	10846.9
637.857	11010.73
638.051	10875.57
638.244	10660.53
638.438	10711.73
638.632	10511.03
638.825	10400.44
639.019	10441.4
639.212	10437.3
639.406	10484.41
639.599	10318.52
639.793	10232.51
639.986	10068.67
640.18	9968.32
640.373	10289.85
640.567	9999.04
640.76	10140.35
640.954	9863.87
641.147	9884.35
641.34	9689.79
641.534	9784
641.727	9767.62
641.92	9802.43
642.114	9685.7
642.307	9505.48
642.5	9540.29
642.694	9392.84
642.887	9388.74
643.08	9456.33
643.273	9235.14
643.467	9460.42
643.66	9335.49
643.853	9118.41
644.046	9044.68
644.239	9030.35
644.432	8975.05
644.626	9085.64
644.819	8930
645.012	8841.93
645.205	9013.96
645.398	8909.52
645.591	8852.17
645.784	8532.69
645.977	8602.32
646.17	8680.14
646.363	8436.44
646.556	8426.2
646.749	8674
646.942	8471.25
647.135	8456.92
647.328	8526.55
647.521	8381.14
647.714	8178.39
647.907	8354.52
648.099	8329.94
648.292	8274.65
648.485	8080.09
648.678	8190.68
648.871	7756.51
649.064	7940.83
649.256	8102.62
649.449	7670.5
649.642	7768.8
649.835	7738.08
650.027	7666.4
650.22	7701.22
650.413	7539.43
650.605	7600.87
650.798	7678.69
650.991	7551.71
651.183	7537.38
651.376	7377.64
651.568	7543.52
651.761	7527.14
651.954	7437.03
652.146	7418.6
652.339	7353.06
652.531	7262.95
652.724	7207.66
652.916	7013.1
653.109	7301.86
653.301	7201.51
653.494	7150.31
653.686	6933.23
653.879	7033.58
654.071	6943.47
654.263	6920.94
654.456	6945.52
654.648	6847.21
654.84	6796.01
655.033	6884.08
655.225	6777.58
655.417	6775.53
655.61	6816.49
655.802	6662.9
655.994	6634.22
656.186	6632.18
656.379	6507.25
656.571	6800.11
656.763	6540.02
656.955	6435.57
657.148	6474.48
657.34	6296.31
657.532	6478.58
657.724	6286.07
657.916	6370.04
658.108	6206.2
658.3	6335.22
658.492	6226.68
658.684	6234.87
658.876	6152.95
659.068	6099.7
659.26	6163.19
659.452	6083.32
659.644	6238.97
659.836	6095.61
660.028	6030.07
660.22	5937.91
660.412	5714.69
660.604	5974.78
660.796	5866.24
660.988	5829.37
661.18	5704.45
661.372	5778.17
661.563	5675.77
661.755	5792.51
661.947	5538.56
662.139	5554.94
662.331	5665.53
662.522	5485.31
662.714	5546.75
662.906	5585.66
663.097	5530.37
663.289	5331.72
663.481	5464.83
663.673	5380.87
663.864	5413.63
664.056	5440.26
664.247	5368.58
664.439	5190.41
664.631	5149.45
664.822	5243.65
665.014	5204.74
665.205	5344
665.397	5298.95
665.588	5104.39
665.78	5059.34
665.971	5090.06
666.163	5198.6
666.354	5040.9
666.546	4846.35
666.737	4961.03
666.929	4952.84
667.12	5036.81
667.311	5063.43
667.503	4879.11
667.694	4954.89
667.885	4924.17
668.077	4934.41
668.268	4825.87
668.459	4832.01
668.651	4752.14
668.842	4746
669.033	4731.66
669.224	4743.95
669.416	4809.48
669.607	4735.76
669.798	4647.69
669.989	4635.41
670.18	4676.37
670.371	4803.34
670.563	4567.82
670.754	4608.78
670.945	4524.82
671.136	4483.86
671.327	4598.54
671.518	4647.69
671.709	4369.17
671.9	4514.58
672.091	4506.38
672.282	4346.64
672.473	4494.1
672.664	4467.47
672.855	4459.28
673.046	4508.43
673.237	4352.79
673.428	4444.95
673.619	4293.4
673.809	4342.55
674	4219.67
674.191	4229.91
674.382	4334.36
674.573	4186.9
674.764	4303.64
674.954	4234
675.145	4135.7
675.336	4268.82
675.527	4297.49
675.717	4324.12
675.908	4109.08
676.099	4027.16
676.289	4125.46
676.48	4029.21
676.671	4125.46
676.861	4021.02
677.052	4090.65
677.243	4096.79
677.433	4113.17
677.624	4147.99
677.814	4131.61
678.005	3971.86
678.195	4150.04
678.386	4178.71
678.576	3904.28
678.767	4072.22
678.957	3971.86
679.148	4080.41
679.338	4051.74
679.529	3988.25
679.719	4025.11
679.909	3998.49
680.1	3973.91
680.29	4064.02
680.481	3896.09
680.671	4018.97
680.861	3994.39
681.052	3910.43
681.242	3787.55
681.432	4027.16
681.622	3937.05
681.813	3771.16
682.003	3803.93
682.193	3853.08
682.383	3746.59
682.573	3793.69
682.764	3586.85
682.954	3810.08
683.144	3846.94
683.334	3791.64
683.524	3783.45
683.714	3656.48
683.904	3592.99
684.094	3773.21
684.284	3828.51
684.474	3724.06
684.664	3762.97
684.854	3699.48
685.044	3816.22
685.234	3531.55
685.424	3701.53
685.614	3617.57
685.804	3816.22
685.994	3689.25
686.184	3865.37
686.374	3683.1
686.564	3582.75
686.753	3719.96
686.943	3455.78
687.133	3498.78
687.323	3566.37
687.513	3625.76
687.702	3531.55
687.892	3552.03
688.082	3619.61
688.272	3613.47
688.461	3558.18
688.651	3543.84
688.841	3412.77
689.03	3382.05
689.22	3599.13
689.41	3412.77
689.599	3517.22
689.789	3459.87
689.979	3380
690.168	3429.15
690.358	3420.96
690.547	3435.3
690.737	3302.18
690.926	3357.47
691.116	3259.17
691.305	3375.91
691.495	3246.88
691.684	3345.19
691.874	3316.51
692.063	3238.69
692.252	3285.8
692.442	3255.08
692.631	3199.78
692.82	3222.31
693.01	3103.53
693.199	3224.36
693.388	3126.05
693.578	3091.24
693.767	3138.34
693.956	3238.69
694.146	3146.53
694.335	3203.88
694.524	3156.77
694.713	3173.16
694.902	3132.2
695.092	3164.97
695.281	3224.36
695.47	3164.97
695.659	3169.06
695.848	3068.71
696.037	3089.19
696.226	3089.19
696.415	3072.81
696.604	2990.89
696.793	2978.6
696.982	2956.07
697.171	3035.94
697.36	3150.63
697.549	2923.3
697.738	2949.93
697.927	3087.14
698.116	2951.98
698.305	3052.33
698.494	2949.93
698.683	3068.71
698.872	3042.09
699.061	3029.8
699.25	2888.49
699.438	2999.08
699.627	2872.11
699.816	3005.22
700.005	3005.22
700.193	2890.54
700.382	2902.83
700.571	2974.5
700.76	2872.11
700.948	2997.03
701.137	2970.41
701.326	3089.19
701.514	3074.85
701.703	3019.56
701.892	2951.98
702.08	2962.22
702.269	2978.6
702.457	2970.41
702.646	2908.97
702.834	2917.16
703.023	2800.43
703.212	2851.63
703.4	2851.63
703.589	2900.78
703.777	2962.22
703.965	2859.82
704.154	2966.31
704.342	2892.59
704.531	2882.35
704.719	2849.58
704.907	2935.59
705.096	2892.59
705.284	3015.46
705.472	2894.63
705.661	2915.11
705.849	2847.53
706.037	2951.98
706.226	2820.91
706.414	2841.39
706.602	3011.37
706.79	2870.06
706.979	2874.15
707.167	2900.78
707.355	2872.11
707.543	3037.99
707.731	2956.07
707.919	2892.59
708.107	2810.67
708.296	3019.56
708.484	2941.74
708.672	2888.49
708.86	2904.87
709.048	2904.87
709.236	2974.5
709.424	2847.53
709.612	3015.46
709.8	2843.43
709.988	2874.15
710.176	2898.73
710.364	2777.9
710.551	2902.83
710.739	2956.07
710.927	2839.34
711.115	2956.07
711.303	2962.22
711.491	2911.02
711.679	2784.04
711.866	2913.06
712.054	2908.97
712.242	2861.87
712.43	2902.83
712.617	2865.96
712.805	2726.7
712.993	2964.26
713.181	2810.67
713.368	2933.54
713.556	2872.11
713.744	2790.19
713.931	2906.92
714.119	2835.24
714.306	2835.24
714.494	2843.43
714.682	2870.06
714.869	2706.22
715.057	2714.41
715.244	2786.09
715.432	2827.05
715.619	2890.54
715.807	2839.34
715.994	2894.63
716.182	2808.62
716.369	2777.9
716.556	2954.02
716.744	2769.71
716.931	2708.27
717.119	2769.71
717.306	2816.81
717.493	2843.43
717.681	2833.19
717.868	2779.95
718.055	2726.7
718.242	2794.28
718.43	2847.53
718.617	2853.67
718.804	2741.04
718.991	2847.53
719.179	2841.39
719.366	2673.45
719.553	2788.14
719.74	2810.67
719.927	2634.54
720.114	2800.43
720.301	2749.23
720.488	2843.43
720.676	2732.84
720.863	2788.14
721.05	2804.52
721.237	2757.42
721.424	2829.1
721.611	2820.91
721.798	2736.94
721.985	2708.27
722.172	2683.69
722.358	2749.23
722.545	2806.57
722.732	2732.84
722.919	2786.09
723.106	2827.05
723.293	2763.56
723.48	2898.73
723.667	2829.1
723.853	2876.2
724.04	2773.8
724.227	2751.28
724.414	2757.42
724.6	2738.99
724.787	2818.86
724.974	2700.08
725.161	2616.11
725.347	2659.12
725.534	2634.54
725.72	2743.08
725.907	2820.91
726.094	2829.1
726.28	2851.63
726.467	2695.98
726.653	2765.61
726.84	2612.01
727.027	2786.09
727.213	2679.6
727.4	2720.56
727.586	2761.52
727.773	2745.13
727.959	2741.04
728.145	2732.84
728.332	2765.61
728.518	2831.15
728.705	2730.8
728.891	2724.65
729.077	2812.71
729.264	2718.51
729.45	2708.27
729.636	2706.22
729.823	2683.69
730.009	2673.45
730.195	2571.05
730.382	2814.76
730.568	2679.6
730.754	2743.08
730.94	2661.16
731.126	2814.76
731.313	2738.99
731.499	2732.84
731.685	2886.44
731.871	2548.53
732.057	2790.19
732.243	2708.27
732.429	2634.54
732.615	2822.95
732.801	2624.3
732.987	2618.16
733.173	2659.12
733.359	2646.83
733.545	2695.98
733.731	2607.92
733.917	2605.87
734.103	2675.5
734.289	2536.24
734.475	2730.8
734.661	2839.34
734.847	2675.5
735.033	2671.4
735.219	2571.05
735.404	2624.3
735.59	2626.35
735.776	2728.75
735.962	2683.69
736.148	2640.69
736.333	2646.83
736.519	2702.12
736.705	2712.36
736.89	2587.44
737.076	2528.05
737.262	2761.52
737.447	2630.45
737.633	2693.93
737.819	2695.98
738.004	2507.57
738.19	2575.15
738.375	2614.06
738.561	2659.12
738.747	2517.81
738.932	2614.06
739.118	2554.67
739.303	2695.98
739.489	2607.92
739.674	2595.63
739.859	2550.57
740.045	2712.36
740.23	2589.49
740.416	2614.06
740.601	2583.34
740.786	2523.95
740.972	2523.95
741.157	2542.38
741.342	2622.25
741.528	2505.52
741.713	2390.83
741.898	2534.19
742.084	2390.83
742.269	2640.69
742.454	2546.48
742.639	2462.51
742.824	2388.78
743.01	2560.81
743.195	2431.79
743.38	2431.79
743.565	2407.22
743.75	2270
743.935	2394.93
744.12	2501.42
744.305	2323.25
744.49	2245.43
744.675	2333.49
744.86	2267.95
745.045	2419.5
745.23	2335.54
745.415	2308.91
745.6	2302.77
745.785	2208.56
745.97	2347.83
746.155	2257.71
746.34	2249.52
746.525	2300.72
746.71	2218.8
746.895	2292.53
747.079	2245.43
747.264	2183.99
747.449	2149.17
747.634	2229.04
747.819	2130.74
748.003	2122.55
748.188	2188.08
748.373	2224.95
748.557	2040.63
748.742	2106.17
748.927	2108.21
749.111	2097.97
749.296	2093.88
749.481	2059.06
749.665	2071.35
749.85	1989.43
750.034	1993.53
750.219	1907.51
750.404	1975.1
750.588	2079.54
750.773	1946.42
750.957	1860.41
751.141	1917.75
751.326	1927.99
751.51	1868.6
751.695	1833.79
751.879	2011.96
752.064	1856.31
752.248	1911.61
752.432	1846.07
752.617	1850.17
752.801	1794.87
752.985	1729.34
753.17	1813.31
753.354	1733.43
753.538	1739.58
753.722	1626.94
753.907	1735.48
754.091	1733.43
754.275	1674.04
754.459	1684.28
754.643	1690.43
754.828	1786.68
755.012	1647.42
755.196	1647.42
755.38	1495.87
755.564	1502.01
755.748	1641.28
755.932	1680.19
756.116	1624.89
756.3	1594.17
756.484	1471.29
756.668	1567.55
756.852	1573.69
757.036	1512.25
757.22	1522.49
757.404	1487.68
757.588	1508.16
757.772	1549.12
757.956	1487.68
758.14	1512.25
758.323	1399.62
758.507	1422.14
758.691	1413.95
758.875	1434.43
759.059	1520.45
759.242	1397.57
759.426	1526.59
759.61	1559.36
759.794	1381.18
759.977	1362.75
760.161	1325.89
760.345	1471.29
760.528	1338.18
760.712	1489.73
760.895	1418.05
761.079	1303.36
761.263	1260.35
761.446	1327.94
761.63	1362.75
761.813	1295.17
761.997	1248.07
762.18	1356.61
762.364	1411.9
762.547	1264.45
762.731	1250.11
762.914	1299.27
763.098	1248.07
763.281	1372.99
763.464	1334.08
763.648	1282.88
763.831	1332.03
764.015	1264.45
764.198	1241.92
764.381	1155.91
764.564	1268.55
764.748	1203.01
764.931	1170.24
765.114	1237.83
765.297	1233.73
765.481	1196.87
765.664	1149.76
765.847	1217.35
766.03	1194.82
766.213	1166.15
766.397	1153.86
766.58	1092.42
766.763	1196.87
766.946	1090.37
767.129	1203.01
767.312	1155.91
767.495	1196.87
767.678	1160
767.861	1065.8
768.044	1205.06
768.227	1114.95
768.41	1100.61
768.593	1227.59
768.776	1149.76
768.959	1188.68
769.142	1110.85
769.324	1133.38
769.507	932.68
769.69	1008.45
769.873	1088.32
770.056	1090.37
770.239	1114.95
770.421	1008.45
770.604	1178.44
770.787	1014.6
770.97	1080.13
771.152	1121.09
771.335	1012.55
771.518	926.54
771.7	990.02
771.883	1004.36
772.066	1053.51
772.248	992.07
772.431	1002.31
772.613	1008.45
772.796	981.83
772.978	985.93
773.161	998.21
773.343	922.44
773.526	1014.6
773.708	947.01
773.891	889.67
774.073	877.38
774.256	901.96
774.438	971.59
774.621	928.58
774.803	932.68
774.985	885.58
775.168	906.06
775.35	805.71
775.532	846.66
775.715	865.1
775.897	893.77
776.079	822.09
776.261	793.42
776.444	881.48
776.626	822.09
776.808	815.94
776.99	791.37
777.173	828.23
777.355	830.28
777.537	764.75
777.719	762.7
777.901	760.65
778.083	760.65
778.265	795.47
778.447	772.94
778.629	750.41
778.811	801.61
778.993	758.6
779.175	754.51
779.357	697.16
779.539	725.83
779.721	740.17
779.903	748.36
780.085	713.55
780.267	752.46
780.449	668.49
780.631	729.93
780.812	643.92
780.994	697.16
781.176	652.11
781.358	731.98
781.54	734.03
781.721	693.07
781.903	664.4
782.085	668.49
782.267	693.07
782.448	625.48
782.63	656.2
782.812	611.15
782.993	668.49
783.175	617.29
783.357	641.87
783.538	559.95
783.72	529.23
783.901	605
784.083	697.16
784.264	641.87
784.446	574.28
784.627	529.23
784.809	611.15
784.99	564.04
785.172	594.76
785.353	531.28
785.535	641.87
785.716	500.56
785.897	537.42
786.079	582.48
786.26	609.1
786.441	578.38
786.623	482.13
786.804	559.95
786.985	594.76
787.167	549.71
787.348	463.69
787.529	555.85
787.71	551.76
787.891	547.66
788.073	492.37
788.254	508.75
788.435	439.12
788.616	475.98
788.797	439.12
788.978	475.98
789.159	527.18
789.34	422.73
789.522	406.35
789.703	451.41
789.884	467.79
790.065	342.86
790.246	422.73
790.427	420.69
790.607	504.65
790.788	441.17
790.969	373.58
791.15	480.08
791.331	430.93
791.512	416.59
791.693	383.82
791.874	441.17
792.054	420.69
792.235	441.17
792.416	299.86
792.597	373.58
792.778	406.35
792.958	465.74
793.139	418.64
793.32	504.65
793.5	406.35
793.681	426.83
793.862	447.31
794.042	394.06
794.223	342.86
794.404	410.45
794.584	398.16
794.765	363.34
794.945	355.15
795.126	482.13
795.306	381.78
795.487	422.73
795.667	310.1
795.848	424.78
796.028	396.11
796.209	426.83
796.389	351.06
796.57	269.14
796.75	312.14
796.93	332.62
797.111	365.39
797.291	334.67
797.471	357.2
797.652	322.38
797.832	367.44
798.012	363.34
798.192	262.99
798.373	332.62
798.553	279.38
798.733	299.86
798.913	340.82
799.093	320.34
799.274	385.87
799.454	353.1
799.634	355.15
799.814	353.1
799.994	328.53
800.174	308.05
800.354	258.9
800.534	254.8
800.714	310.1
800.894	340.82
801.074	262.99
801.254	324.43
801.434	299.86
801.614	283.47
801.794	316.24
801.974	627.53
802.154	293.71
802.334	295.76
802.514	240.47
802.693	306
802.873	265.04
803.053	359.25
803.233	318.29
803.413	308.05
803.592	248.66
803.772	234.32
803.952	256.85
804.131	287.57
804.311	299.86
804.491	254.8
804.67	181.07
804.85	346.96
805.03	185.17
805.209	262.99
805.389	250.71
805.568	238.42
805.748	258.9
805.928	310.1
806.107	181.07
806.287	289.62
806.466	322.38
806.646	166.74
806.825	230.23
807.004	219.99
807.184	308.05
807.363	324.43
807.543	193.36
807.722	201.55
807.901	279.38
808.081	269.14
808.26	131.92
808.439	236.37
808.619	185.17
808.798	211.79
808.977	236.37
809.156	279.38
809.336	172.88
809.515	185.17
809.694	265.04
809.873	226.13
810.052	262.99
810.231	201.55
810.411	176.98
810.59	238.42
810.769	187.22
810.948	195.41
811.127	150.36
811.306	205.65
811.485	230.23
811.664	185.17
811.843	232.27
812.022	164.69
812.201	232.27
812.38	144.21
812.559	133.97
812.737	228.18
812.916	191.31
813.095	174.93
813.274	183.12
813.453	199.51
813.632	213.84
813.811	181.07
813.989	172.88
814.168	189.27
814.347	230.23
814.526	197.46
814.704	189.27
814.883	271.19
815.062	256.85
815.24	162.64
815.419	150.36
815.598	207.7
815.776	160.59
815.955	201.55
816.133	156.5
816.312	115.54
816.49	168.79
816.669	197.46
816.847	195.41
817.026	121.68
817.204	215.89
817.383	154.45
817.561	185.17
817.74	183.12
817.918	162.64
818.097	189.27
818.275	56.15
818.453	154.45
818.632	152.4
818.81	271.19
818.988	164.69
819.167	152.4
819.345	183.12
819.523	254.8
819.701	246.61
819.879	162.64
820.058	164.69
820.236	152.4
820.414	191.31
820.592	109.4
820.77	136.02
820.948	144.21
821.127	119.64
821.305	156.5
821.483	90.96
821.661	121.68
821.839	201.55
822.017	140.12
822.195	60.24
822.373	205.65
822.551	115.54
822.729	213.84
822.907	136.02
823.085	168.79
823.262	123.73
823.44	119.64
823.618	90.96
823.796	191.31
823.974	84.82
824.152	166.74
824.329	162.64
824.507	168.79
824.685	109.4
824.863	209.75
825.04	99.16
825.218	113.49
825.396	76.63
825.574	107.35
825.751	172.88
825.929	76.63
826.107	97.11
826.284	121.68
826.462	144.21
826.639	152.4
826.817	119.64
826.994	189.27
827.172	148.31
827.349	142.16
827.527	181.07
827.704	88.92
827.882	64.34
828.059	103.25
828.237	140.12
828.414	138.07
828.591	97.11
828.769	152.4
828.946	50
829.124	97.11
829.301	103.25
829.478	93.01
829.655	150.36
829.833	123.73
830.01	146.26
830.187	80.72
830.364	115.54
830.542	117.59
830.719	152.4
830.896	164.69
831.073	90.96
831.25	156.5
831.427	197.46
831.604	103.25
831.782	131.92
831.959	84.82
832.136	123.73
832.313	117.59
832.49	70.48
832.667	88.92
832.844	64.34
833.021	52.05
833.198	119.64
833.374	72.53
833.551	60.24
833.728	103.25
833.905	84.82
834.082	37.72
834.259	111.44
834.436	113.49
834.612	103.25
834.789	107.35
834.966	43.86
835.143	101.2
835.319	150.36
835.496	129.88
835.673	150.36
835.85	125.78
836.026	54.1
836.203	111.44
836.38	62.29
836.556	107.35
836.733	95.06
836.909	101.2
837.086	97.11
837.262	68.44
837.439	121.68
837.616	97.11
837.792	70.48
837.968	11.09
838.145	4.95
838.321	95.06
838.498	84.82
838.674	54.1
838.851	76.63
839.027	66.39
839.203	93.01
839.38	131.92
839.556	129.88
839.732	90.96
839.909	43.86
840.085	90.96
840.261	50
840.437	60.24
840.614	13.14
840.79	97.11
840.966	11.09
841.142	70.48
841.318	138.07
841.494	90.96
841.671	76.63
841.847	80.72
842.023	72.53
842.199	109.4
842.375	47.96
842.551	35.67
842.727	21.33
842.903	115.54
843.079	62.29
843.255	90.96
843.431	4.95
843.607	95.06
843.783	-27.82
843.959	82.77
844.134	7
844.31	150.36
844.486	0.85
844.662	68.44
844.838	64.34
845.013	60.24
845.189	88.92
845.365	7
845.541	90.96
845.716	37.72
845.892	72.53
846.068	64.34
846.244	21.33
846.419	15.19
846.595	64.34
846.77	7
846.946	109.4
847.122	78.68
847.297	17.24
847.473	156.5
847.648	64.34
847.824	72.53
847.999	43.86
848.175	88.92
848.35	43.86
848.526	127.83
848.701	119.64
848.876	72.53
849.052	74.58
849.227	33.62
849.403	11.09
849.578	95.06
849.753	21.33
849.929	136.02
850.104	4.95
850.279	0.85
850.454	62.29
850.63	62.29
850.805	50
850.98	-31.91
851.155	31.57
851.33	99.16
851.505	86.87
851.681	66.39
851.856	-38.06
852.031	144.21
852.206	31.57
852.381	93.01
852.556	-15.53
852.731	56.15
852.906	29.52
853.081	25.43
853.256	29.52
853.431	31.57
853.606	66.39
853.781	35.67
853.956	-3.24
854.131	111.44
854.305	-1.19
854.48	103.25
854.655	54.1
854.83	29.52
855.005	27.48
855.18	-38.06
855.354	80.72
855.529	-19.63
855.704	-23.72
855.879	31.57
856.053	-5.29
856.228	86.87
856.403	7
856.577	13.14
856.752	-21.67
856.926	142.16
857.101	70.48
857.276	62.29
857.45	56.15
857.625	58.2
857.799	35.67
857.974	23.38
858.148	64.34
858.323	66.39
858.497	90.96
858.672	-7.34
858.846	90.96
859.02	50
859.195	23.38
859.369	43.86
859.543	45.91
859.718	-29.87
859.892	-42.15
860.066	56.15
860.241	35.67
860.415	-13.48
860.589	-3.24
860.763	45.91
860.938	74.58
861.112	2.9
861.286	56.15
861.46	58.2
861.634	13.14
861.808	62.29
861.982	-25.77
862.157	43.86
862.331	9.05
862.505	70.48
862.679	19.29
862.853	62.29
863.027	17.24
863.201	103.25
863.375	23.38
863.549	33.62
863.722	35.67
863.896	31.57
864.07	47.96
864.244	68.44
864.418	11.09
864.592	54.1
864.766	9.05
864.939	7
865.113	21.33
865.287	64.34
865.461	-42.15
865.634	103.25
865.808	23.38
865.982	72.53
866.156	-68.78
866.329	33.62
866.503	-40.11
866.676	70.48
866.85	127.83
867.024	54.1
867.197	54.1
867.371	142.16
867.544	54.1
867.718	2.9
867.891	-15.53
868.065	4.95
868.238	37.72
868.412	45.91
868.585	78.68
868.759	41.81
868.932	33.62
869.105	9.05
869.279	33.62
869.452	76.63
869.625	-64.68
869.799	74.58
869.972	-17.58
870.145	37.72
870.319	56.15
870.492	23.38
870.665	4.95
870.838	76.63
871.011	7
871.185	17.24
871.358	-29.87
871.531	88.92
871.704	-19.63
871.877	0.85
872.05	-11.43
872.223	58.2
872.396	13.14
872.569	31.57
872.742	-21.67
872.915	70.48
873.088	-3.24
873.261	13.14
873.434	-44.2
873.607	-13.48
873.78	29.52
873.953	2.9
874.126	31.57
874.299	45.91
874.471	56.15
874.644	-7.34
874.817	80.72
874.99	-25.77
875.163	-5.29
875.335	50
875.508	-1.19
875.681	23.38
875.853	64.34
876.026	-7.34
876.199	41.81
876.371	58.2
876.544	60.24
876.717	-23.72
876.889	-46.25
877.062	35.67
877.234	15.19
877.407	7
877.579	0.85
877.752	31.57
877.924	-11.43
878.097	17.24
878.269	41.81
878.442	7
878.614	58.2
878.786	27.48
878.959	-27.82
879.131	64.34
879.303	2.9
879.476	27.48
879.648	29.52
879.82	15.19
879.993	58.2
880.165	15.19
880.337	11.09
880.509	4.95
880.681	13.14
880.854	0.85
881.026	88.92
881.198	99.16
881.37	-36.01
881.542	27.48
881.714	15.19
881.886	23.38
882.058	13.14
882.23	23.38
882.402	-44.2
882.574	62.29
882.746	136.02
882.918	-7.34
883.09	-54.44
883.262	29.52
883.434	39.76
883.606	0.85
883.778	11.09
883.95	17.24
884.122	9.05
884.293	146.26
884.465	74.58
884.637	-9.39
884.809	78.68
884.98	45.91
885.152	86.87
885.324	0.85
885.496	-17.58
885.667	-7.34
885.839	25.43
886.011	39.76
886.182	66.39
886.354	86.87
886.525	-17.58
886.697	52.05
886.869	84.82
887.04	-1.19
887.212	27.48
887.383	84.82
887.555	33.62
887.726	27.48
887.897	-3.24
888.069	86.87
888.24	47.96
888.412	2.9
888.583	86.87
888.754	-15.53
888.926	41.81
889.097	-3.24
889.268	-38.06
889.44	111.44
889.611	4.95
889.782	-3.24
889.953	-74.92
890.125	82.77
890.296	0.85
890.467	2.9
890.638	-23.72
890.809	62.29
890.98	31.57
891.151	68.44
891.323	19.29
891.494	56.15
891.665	66.39
891.836	-1.19
892.007	27.48
892.178	62.29
892.349	35.67
892.52	-3.24
892.691	0.85
892.862	37.72
893.032	13.14
893.203	25.43
893.374	41.81
893.545	50
893.716	82.77
893.887	62.29
894.057	33.62
894.228	2.9
894.399	23.38
894.57	-15.53
894.74	58.2
894.911	-31.91
895.082	19.29
895.253	39.76
895.423	93.01
895.594	-31.91
895.764	7
895.935	35.67
896.106	37.72
896.276	-5.29
896.447	21.33
896.617	17.24
896.788	-11.43
896.958	-29.87
897.129	-3.24
897.299	-19.63
897.47	0.85
897.64	29.52
897.81	-13.48
897.981	0.85
898.151	-58.54
898.322	47.96
898.492	82.77
898.662	-46.25
898.832	9.05
899.003	-60.59
899.173	47.96
899.343	-85.16
899.513	-36.01
