Data from USB4F104151__108__11-07-13-958.txt Node

Date: Wed Mar 12 11:07:13 EDT 2025
User: louis
Spectrometer: USB4F10415
Trigger mode: 4
Integration Time (sec): 2.000000E-2
Scans to average: 1
Electric dark correction enabled: true
Nonlinearity correction enabled: false
Boxcar width: 0
XAxis mode: Wavelengths
Number of Pixels in Spectrum: 3648
>>>>>Begin Spectral Data<<<<<
178.204	35.33
178.424	35.33
178.644	35.33
178.864	-112.13
179.084	-9.73
179.304	45.57
179.524	16.9
179.744	-36.35
179.964	12.8
180.184	8.7
180.404	-24.06
180.624	41.47
180.844	10.75
181.064	0.51
181.283	-32.26
181.503	-44.54
181.723	0.51
181.943	-38.4
182.163	47.62
182.383	43.52
182.602	0.51
182.822	53.76
183.042	41.47
183.262	0.51
183.482	10.75
183.701	-3.58
183.921	86.53
184.141	74.24
184.361	90.62
184.58	0.51
184.8	39.42
185.02	61.95
185.239	55.81
185.459	-17.92
185.679	72.19
185.898	4.61
186.118	10.75
186.338	-5.63
186.557	41.47
186.777	35.33
186.997	27.14
187.216	31.23
187.436	35.33
187.655	64
187.875	78.33
188.095	31.23
188.314	35.33
188.534	37.38
188.753	-34.3
188.973	92.67
189.192	2.56
189.412	29.18
189.631	-11.78
189.851	18.94
190.07	80.38
190.29	51.71
190.509	-3.58
190.729	35.33
190.948	98.81
191.168	100.86
191.387	102.91
191.607	41.47
191.826	-36.35
192.045	51.71
192.265	-26.11
192.484	10.75
192.704	-17.92
192.923	-34.3
193.142	39.42
193.362	-17.92
193.581	47.62
193.8	14.85
194.02	88.57
194.239	51.71
194.458	55.81
194.678	-42.5
194.897	111.1
195.116	47.62
195.335	31.23
195.555	6.66
195.774	14.85
195.993	78.33
196.212	39.42
196.432	-28.16
196.651	-5.63
196.87	4.61
197.089	76.29
197.308	70.14
197.528	59.9
197.747	-9.73
197.966	55.81
198.185	115.2
198.404	-19.97
198.623	123.39
198.842	49.66
199.062	-26.11
199.281	64
199.5	4.61
199.719	-9.73
199.938	59.9
200.157	123.39
200.376	2.56
200.595	51.71
200.814	76.29
201.033	47.62
201.252	66.05
201.471	39.42
201.69	43.52
201.909	2.56
202.128	-9.73
202.347	86.53
202.566	47.62
202.785	-13.82
203.004	74.24
203.223	25.09
203.442	61.95
203.661	-19.97
203.879	51.71
204.098	72.19
204.317	-32.26
204.536	88.57
204.755	59.9
204.974	8.7
205.193	68.09
205.411	29.18
205.63	35.33
205.849	66.05
206.068	-24.06
206.287	59.9
206.505	117.25
206.724	135.68
206.943	29.18
207.162	-15.87
207.381	66.05
207.599	-9.73
207.818	16.9
208.037	82.43
208.255	72.19
208.474	94.72
208.693	109.05
208.911	68.09
209.13	72.19
209.349	55.81
209.567	64
209.786	68.09
210.005	45.57
210.223	10.75
210.442	100.86
210.661	35.33
210.879	88.57
211.098	51.71
211.316	47.62
211.535	41.47
211.753	37.38
211.972	47.62
212.191	115.2
212.409	33.28
212.628	-1.54
212.846	-50.69
213.065	39.42
213.283	72.19
213.502	82.43
213.72	31.23
213.938	39.42
214.157	90.62
214.375	-3.58
214.594	39.42
214.812	41.47
215.031	121.34
215.249	-26.11
215.467	66.05
215.686	88.57
215.904	100.86
216.122	-15.87
216.341	33.28
216.559	23.04
216.778	121.34
216.996	51.71
217.214	78.33
217.432	-7.68
217.651	-13.82
217.869	12.8
218.087	66.05
218.306	61.95
218.524	-3.58
218.742	39.42
218.96	4.61
219.179	64
219.397	53.76
219.615	6.66
219.833	27.14
220.051	-87.55
220.27	25.09
220.488	35.33
220.706	27.14
220.924	92.67
221.142	45.57
221.36	14.85
221.578	8.7
221.796	-11.78
222.015	37.38
222.233	41.47
222.451	-52.74
222.669	29.18
222.887	64
223.105	72.19
223.323	-13.82
223.541	16.9
223.759	76.29
223.977	-26.11
224.195	2.56
224.413	12.8
224.631	31.23
224.849	27.14
225.067	51.71
225.285	10.75
225.503	14.85
225.721	14.85
225.939	-9.73
226.157	25.09
226.375	92.67
226.592	18.94
226.81	90.62
227.028	33.28
227.246	2.56
227.464	80.38
227.682	18.94
227.9	43.52
228.117	72.19
228.335	51.71
228.553	16.9
228.771	-30.21
228.989	76.29
229.206	4.61
229.424	10.75
229.642	23.04
229.86	8.7
230.077	64
230.295	49.66
230.513	31.23
230.731	43.52
230.948	66.05
231.166	31.23
231.384	-5.63
231.601	33.28
231.819	49.66
232.037	27.14
232.254	-1.54
232.472	86.53
232.689	49.66
232.907	68.09
233.125	61.95
233.342	-11.78
233.56	64
233.777	37.38
233.995	43.52
234.213	125.44
234.43	43.52
234.648	0.51
234.865	47.62
235.083	90.62
235.3	115.2
235.518	-17.92
235.735	20.99
235.953	47.62
236.17	6.66
236.388	16.9
236.605	35.33
236.822	59.9
237.04	59.9
237.257	12.8
237.475	-5.63
237.692	74.24
237.909	-38.4
238.127	-15.87
238.344	72.19
238.562	25.09
238.779	35.33
238.996	37.38
239.214	117.25
239.431	-36.35
239.648	29.18
239.865	25.09
240.083	6.66
240.3	76.29
240.517	-13.82
240.735	23.04
240.952	33.28
241.169	39.42
241.386	66.05
241.603	70.14
241.821	12.8
242.038	4.61
242.255	51.71
242.472	-17.92
242.689	51.71
242.907	23.04
243.124	27.14
243.341	-7.68
243.558	72.19
243.775	8.7
243.992	-60.93
244.209	-17.92
244.426	82.43
244.643	66.05
244.86	16.9
245.078	16.9
245.295	53.76
245.512	51.71
245.729	25.09
245.946	102.91
246.163	16.9
246.38	6.66
246.597	72.19
246.814	47.62
247.031	61.95
247.248	-7.68
247.464	43.52
247.681	47.62
247.898	68.09
248.115	127.49
248.332	74.24
248.549	16.9
248.766	27.14
248.983	35.33
249.2	-5.63
249.417	25.09
249.633	-13.82
249.85	115.2
250.067	20.99
250.284	25.09
250.501	80.38
250.717	84.48
250.934	-3.58
251.151	61.95
251.368	70.14
251.585	37.38
251.801	0.51
252.018	6.66
252.235	57.86
252.451	2.56
252.668	-38.4
252.885	59.9
253.102	4.61
253.318	25.09
253.535	-13.82
253.752	49.66
253.968	84.48
254.185	35.33
254.401	47.62
254.618	43.52
254.835	18.94
255.051	84.48
255.268	-1.54
255.484	64
255.701	76.29
255.917	-22.02
256.134	70.14
256.351	39.42
256.567	-34.3
256.784	27.14
257	35.33
257.217	47.62
257.433	-7.68
257.65	68.09
257.866	43.52
258.082	-1.54
258.299	37.38
258.515	59.9
258.732	16.9
258.948	8.7
259.165	35.33
259.381	88.57
259.597	135.68
259.814	27.14
260.03	43.52
260.246	12.8
260.463	80.38
260.679	47.62
260.895	45.57
261.112	61.95
261.328	72.19
261.544	25.09
261.761	10.75
261.977	96.77
262.193	76.29
262.409	8.7
262.626	104.96
262.842	80.38
263.058	53.76
263.274	72.19
263.49	51.71
263.707	35.33
263.923	39.42
264.139	-42.5
264.355	66.05
264.571	66.05
264.787	-7.68
265.004	55.81
265.22	-44.54
265.436	-9.73
265.652	78.33
265.868	-24.06
266.084	8.7
266.3	16.9
266.516	-7.68
266.732	55.81
266.948	8.7
267.164	-7.68
267.38	80.38
267.596	27.14
267.812	47.62
268.028	16.9
268.244	51.71
268.46	49.66
268.676	84.48
268.892	43.52
269.108	33.28
269.324	141.82
269.54	57.86
269.756	111.1
269.972	-13.82
270.188	18.94
270.403	109.05
270.619	35.33
270.835	64
271.051	25.09
271.267	80.38
271.483	10.75
271.698	31.23
271.914	61.95
272.13	39.42
272.346	43.52
272.562	111.1
272.777	45.57
272.993	49.66
273.209	-19.97
273.425	53.76
273.64	102.91
273.856	49.66
274.072	-3.58
274.287	76.29
274.503	37.38
274.719	47.62
274.934	2.56
275.15	61.95
275.366	2.56
275.581	25.09
275.797	43.52
276.012	76.29
276.228	14.85
276.444	47.62
276.659	33.28
276.875	-5.63
277.09	47.62
277.306	51.71
277.521	80.38
277.737	84.48
277.952	43.52
278.168	23.04
278.383	80.38
278.599	10.75
278.814	74.24
279.03	78.33
279.245	25.09
279.461	31.23
279.676	66.05
279.892	6.66
280.107	10.75
280.322	31.23
280.538	102.91
280.753	74.24
280.969	78.33
281.184	27.14
281.399	37.38
281.615	61.95
281.83	135.68
282.045	4.61
282.26	111.1
282.476	98.81
282.691	51.71
282.906	88.57
283.122	80.38
283.337	14.85
283.552	31.23
283.767	-3.58
283.983	39.42
284.198	72.19
284.413	39.42
284.628	8.7
284.843	12.8
285.058	12.8
285.274	35.33
285.489	37.38
285.704	57.86
285.919	-15.87
286.134	43.52
286.349	57.86
286.564	-3.58
286.779	123.39
286.995	16.9
287.21	74.24
287.425	68.09
287.64	20.99
287.855	8.7
288.07	43.52
288.285	8.7
288.5	100.86
288.715	141.82
288.93	84.48
289.145	-11.78
289.36	33.28
289.575	23.04
289.79	41.47
290.004	14.85
290.219	109.05
290.434	47.62
290.649	55.81
290.864	-38.4
291.079	98.81
291.294	29.18
291.509	57.86
291.724	39.42
291.938	16.9
292.153	88.57
292.368	59.9
292.583	121.34
292.798	43.52
293.012	66.05
293.227	35.33
293.442	6.66
293.657	47.62
293.871	78.33
294.086	74.24
294.301	66.05
294.516	59.9
294.73	33.28
294.945	10.75
295.16	33.28
295.374	39.42
295.589	61.95
295.804	16.9
296.018	41.47
296.233	66.05
296.447	57.86
296.662	31.23
296.877	33.28
297.091	66.05
297.306	51.71
297.52	86.53
297.735	80.38
297.949	39.42
298.164	78.33
298.378	-28.16
298.593	20.99
298.807	41.47
299.022	55.81
299.236	25.09
299.451	25.09
299.665	59.9
299.88	72.19
300.094	-3.58
300.309	139.77
300.523	23.04
300.737	53.76
300.952	80.38
301.166	29.18
301.381	25.09
301.595	20.99
301.809	82.43
302.024	53.76
302.238	127.49
302.452	23.04
302.667	47.62
302.881	90.62
303.095	66.05
303.309	66.05
303.524	55.81
303.738	-15.87
303.952	4.61
304.166	66.05
304.381	-1.54
304.595	100.86
304.809	10.75
305.023	100.86
305.237	100.86
305.452	68.09
305.666	29.18
305.88	141.82
306.094	39.42
306.308	23.04
306.522	76.29
306.736	18.94
306.95	51.71
307.164	14.85
307.379	35.33
307.593	6.66
307.807	88.57
308.021	109.05
308.235	33.28
308.449	137.73
308.663	10.75
308.877	111.1
309.091	14.85
309.305	43.52
309.519	-13.82
309.733	47.62
309.947	23.04
310.161	-13.82
310.374	109.05
310.588	107.01
310.802	-9.73
311.016	-13.82
311.23	78.33
311.444	64
311.658	84.48
311.872	39.42
312.085	68.09
312.299	74.24
312.513	76.29
312.727	86.53
312.941	80.38
313.154	72.19
313.368	51.71
313.582	55.81
313.796	68.09
314.009	96.77
314.223	43.52
314.437	80.38
314.651	74.24
314.864	53.76
315.078	-58.88
315.292	12.8
315.505	70.14
315.719	66.05
315.933	64
316.146	57.86
316.36	0.51
316.573	92.67
316.787	68.09
317.001	80.38
317.214	117.25
317.428	55.81
317.641	-7.68
317.855	2.56
318.068	113.15
318.282	82.43
318.495	76.29
318.709	57.86
318.922	33.28
319.136	78.33
319.349	64
319.563	-32.26
319.776	45.57
319.99	31.23
320.203	68.09
320.417	-30.21
320.63	41.47
320.843	115.2
321.057	113.15
321.27	29.18
321.483	78.33
321.697	111.1
321.91	43.52
322.124	123.39
322.337	111.1
322.55	27.14
322.763	84.48
322.977	86.53
323.19	59.9
323.403	27.14
323.617	35.33
323.83	66.05
324.043	68.09
324.256	57.86
324.469	-40.45
324.683	-1.54
324.896	25.09
325.109	117.25
325.322	61.95
325.535	16.9
325.748	68.09
325.962	12.8
326.175	135.68
326.388	64
326.601	117.25
326.814	53.76
327.027	74.24
327.24	107.01
327.453	123.39
327.666	-7.68
327.879	76.29
328.092	29.18
328.305	123.39
328.518	33.28
328.731	10.75
328.944	113.15
329.157	90.62
329.37	25.09
329.583	55.81
329.796	152.06
330.009	90.62
330.222	61.95
330.435	80.38
330.648	55.81
330.861	20.99
331.073	39.42
331.286	18.94
331.499	96.77
331.712	92.67
331.925	35.33
332.138	57.86
332.35	33.28
332.563	33.28
332.776	84.48
332.989	2.56
333.202	37.38
333.414	80.38
333.627	45.57
333.84	31.23
334.053	57.86
334.265	-7.68
334.478	8.7
334.691	25.09
334.903	27.14
335.116	115.2
335.329	90.62
335.541	25.09
335.754	55.81
335.966	43.52
336.179	107.01
336.392	78.33
336.604	-19.97
336.817	23.04
337.029	41.47
337.242	43.52
337.454	125.44
337.667	35.33
337.88	111.1
338.092	41.47
338.305	92.67
338.517	45.57
338.729	55.81
338.942	-5.63
339.154	6.66
339.367	37.38
339.579	78.33
339.792	23.04
340.004	47.62
340.217	100.86
340.429	96.77
340.641	57.86
340.854	53.76
341.066	82.43
341.278	156.16
341.491	43.52
341.703	64
341.915	55.81
342.128	92.67
342.34	90.62
342.552	10.75
342.764	-26.11
342.977	59.9
343.189	-1.54
343.401	53.76
343.613	10.75
343.826	29.18
344.038	23.04
344.25	145.92
344.462	35.33
344.674	109.05
344.886	-7.68
345.099	-3.58
345.311	55.81
345.523	70.14
345.735	18.94
345.947	104.96
346.159	109.05
346.371	55.81
346.583	25.09
346.795	61.95
347.007	72.19
347.219	37.38
347.431	31.23
347.643	78.33
347.855	31.23
348.067	102.91
348.279	18.94
348.491	-19.97
348.703	6.66
348.915	41.47
349.127	59.9
349.339	84.48
349.551	68.09
349.763	80.38
349.975	37.38
350.187	51.71
350.399	90.62
350.61	70.14
350.822	84.48
351.034	86.53
351.246	96.77
351.458	51.71
351.669	35.33
351.881	82.43
352.093	51.71
352.305	41.47
352.517	64
352.728	45.57
352.94	43.52
353.152	115.2
353.363	109.05
353.575	86.53
353.787	100.86
353.999	76.29
354.21	125.44
354.422	109.05
354.633	37.38
354.845	41.47
355.057	18.94
355.268	145.92
355.48	6.66
355.692	39.42
355.903	10.75
356.115	64
356.326	-50.69
356.538	117.25
356.749	57.86
356.961	172.54
357.172	55.81
357.384	31.23
357.595	55.81
357.807	92.67
358.018	59.9
358.23	27.14
358.441	109.05
358.653	96.77
358.864	29.18
359.075	10.75
359.287	55.81
359.498	84.48
359.709	4.61
359.921	41.47
360.132	35.33
360.344	70.14
360.555	47.62
360.766	2.56
360.977	53.76
361.189	133.63
361.4	43.52
361.611	98.81
361.823	92.67
362.034	66.05
362.245	8.7
362.456	45.57
362.667	33.28
362.879	51.71
363.09	8.7
363.301	88.57
363.512	6.66
363.723	66.05
363.935	109.05
364.146	35.33
364.357	70.14
364.568	121.34
364.779	76.29
364.99	59.9
365.201	47.62
365.412	82.43
365.623	25.09
365.834	84.48
366.045	80.38
366.256	141.82
366.467	150.01
366.678	47.62
366.889	76.29
367.1	88.57
367.311	57.86
367.522	59.9
367.733	55.81
367.944	86.53
368.155	102.91
368.366	14.85
368.577	139.77
368.788	107.01
368.999	4.61
369.209	14.85
369.42	154.11
369.631	143.87
369.842	109.05
370.053	66.05
370.264	53.76
370.474	6.66
370.685	115.2
370.896	53.76
371.107	14.85
371.317	94.72
371.528	96.77
371.739	39.42
371.95	33.28
372.16	37.38
372.371	39.42
372.582	43.52
372.792	135.68
373.003	16.9
373.214	47.62
373.424	123.39
373.635	53.76
373.846	104.96
374.056	25.09
374.267	53.76
374.477	121.34
374.688	53.76
374.898	76.29
375.109	18.94
375.319	84.48
375.53	29.18
375.74	64
375.951	70.14
376.161	84.48
376.372	111.1
376.582	113.15
376.793	80.38
377.003	39.42
377.214	117.25
377.424	68.09
377.635	41.47
377.845	84.48
378.055	94.72
378.266	80.38
378.476	74.24
378.686	84.48
378.897	80.38
379.107	86.53
379.317	23.04
379.528	0.51
379.738	53.76
379.948	-44.54
380.158	113.15
380.369	92.67
380.579	68.09
380.789	16.9
380.999	90.62
381.21	61.95
381.42	174.59
381.63	51.71
381.84	158.21
382.05	104.96
382.261	-17.92
382.471	107.01
382.681	127.49
382.891	170.49
383.101	100.86
383.311	86.53
383.521	113.15
383.731	158.21
383.941	104.96
384.151	147.97
384.361	96.77
384.571	74.24
384.781	113.15
384.991	88.57
385.201	100.86
385.411	78.33
385.621	96.77
385.831	113.15
386.041	139.77
386.251	109.05
386.461	109.05
386.671	133.63
386.881	72.19
387.091	45.57
387.301	109.05
387.511	72.19
387.72	78.33
387.93	111.1
388.14	-19.97
388.35	14.85
388.56	90.62
388.769	66.05
388.979	59.9
389.189	125.44
389.399	23.04
389.609	23.04
389.818	121.34
390.028	25.09
390.238	45.57
390.447	160.25
390.657	98.81
390.867	119.29
391.076	88.57
391.286	141.82
391.496	104.96
391.705	166.4
391.915	39.42
392.125	115.2
392.334	94.72
392.544	104.96
392.753	68.09
392.963	102.91
393.172	125.44
393.382	55.81
393.591	98.81
393.801	59.9
394.01	98.81
394.22	64
394.429	104.96
394.639	68.09
394.848	123.39
395.058	109.05
395.267	117.25
395.477	141.82
395.686	84.48
395.895	186.88
396.105	131.58
396.314	115.2
396.524	150.01
396.733	154.11
396.942	227.84
397.152	182.78
397.361	141.82
397.57	102.91
397.78	141.82
397.989	154.11
398.198	152.06
398.407	131.58
398.617	100.86
398.826	121.34
399.035	139.77
399.244	133.63
399.453	176.64
399.663	180.73
399.872	145.92
400.081	154.11
400.29	139.77
400.499	109.05
400.708	107.01
400.917	100.86
401.127	127.49
401.336	221.69
401.545	199.16
401.754	158.21
401.963	197.12
402.172	197.12
402.381	160.25
402.59	162.3
402.799	180.73
403.008	154.11
403.217	168.45
403.426	182.78
403.635	203.26
403.844	215.55
404.053	170.49
404.262	182.78
404.471	236.03
404.68	201.21
404.888	219.64
405.097	174.59
405.306	254.46
405.515	289.28
405.724	254.46
405.933	227.84
406.142	272.89
406.35	223.74
406.559	221.69
406.768	195.07
406.977	283.13
407.185	238.08
407.394	301.56
407.603	270.84
407.812	377.34
408.02	377.34
408.229	317.95
408.438	262.65
408.646	307.71
408.855	305.66
409.064	342.52
409.272	313.85
409.481	305.66
409.69	410.11
409.898	377.34
410.107	371.19
410.315	367.1
410.524	453.11
410.733	457.21
410.941	473.59
411.15	481.78
411.358	580.09
411.567	522.74
411.775	573.94
411.984	582.14
412.192	588.28
412.401	551.42
412.609	594.42
412.818	643.57
413.026	641.53
413.234	690.68
413.443	662.01
413.651	698.87
413.86	766.45
414.068	803.32
414.276	770.55
414.485	803.32
414.693	877.04
414.901	825.84
415.11	922.1
415.318	883.19
415.526	1018.35
415.734	1092.08
415.943	1081.84
416.151	1085.94
416.359	1090.03
416.567	1094.13
416.776	1182.19
416.984	1300.97
417.192	1247.72
417.4	1317.36
417.608	1235.44
417.817	1395.18
418.025	1481.19
418.233	1520.1
418.441	1509.86
418.649	1577.45
418.857	1759.72
419.065	1677.8
419.273	1673.7
419.481	1769.96
419.689	1888.74
419.897	2028
420.105	1987.04
420.313	1939.94
420.521	2122.21
420.729	2187.74
420.937	2216.41
421.145	2382.3
421.353	2406.88
421.561	2607.58
421.769	2613.72
421.977	2666.97
422.185	2755.03
422.393	2828.76
422.601	3062.23
422.809	3080.66
423.017	3029.46
423.224	3074.51
423.432	3312.08
423.64	3314.13
423.848	3594.7
424.056	3455.44
424.263	3828.17
424.471	3824.07
424.679	3776.97
424.887	4028.87
425.094	4399.55
425.302	4196.8
425.51	4362.69
425.718	4565.43
425.925	4557.24
426.133	4874.68
426.341	4972.98
426.548	5185.97
426.756	5470.64
426.964	5323.18
427.171	5650.86
427.379	5724.58
427.586	5847.46
427.794	5974.44
428.001	6269.34
428.209	6506.91
428.417	6461.85
428.624	6965.65
428.832	6969.75
429.039	6893.97
429.247	6879.64
429.454	7510.41
429.662	7942.53
429.869	7434.64
430.076	8032.65
430.284	7811.46
430.491	8214.91
430.699	8698.24
430.906	8606.08
431.114	8806.78
431.321	9171.32
431.528	9173.36
431.736	9814.38
431.943	10240.36
432.15	9988.46
432.358	10168.68
432.565	10633.57
432.772	10615.13
432.979	11272.53
433.187	11411.79
433.394	11542.86
433.601	12245.32
433.808	12185.93
434.016	12118.34
434.223	12847.42
434.43	13379.89
434.637	13322.55
434.844	13981.99
435.052	14307.62
435.259	14303.53
435.466	14500.13
435.673	14184.74
435.88	15192.34
436.087	15780.11
436.294	15698.19
436.501	15399.19
436.708	16009.48
436.915	16437.51
437.122	17074.43
437.329	16898.3
437.537	17533.17
437.743	18077.93
437.95	17740.02
438.157	18823.39
438.364	19472.6
438.571	19189.98
438.778	19206.36
438.985	21364.92
439.192	20363.47
439.399	20977.86
439.606	20527.3
439.813	21973.17
440.02	23005.34
440.227	22419.63
440.433	22327.47
440.64	23294.11
440.847	23031.97
441.054	23658.65
441.261	24957.06
441.467	24815.75
441.674	25284.73
441.881	26067.06
442.088	26232.94
442.294	25933.94
442.501	26820.71
442.708	26923.11
442.914	28377.17
443.121	29222.98
443.328	28545.1
443.534	30578.73
443.741	30033.97
443.948	29339.71
444.154	31420.45
444.361	30930.98
444.568	31791.13
444.774	31182.88
444.981	32016.41
445.187	33200.13
445.394	34551.79
445.6	33538.05
445.807	36976.59
446.013	35416.04
446.22	35688.42
446.426	37558.21
446.633	37900.22
446.839	38758.32
447.046	37664.71
447.252	39305.13
447.459	39061.42
447.665	38948.78
447.871	40707.99
448.078	42549.11
448.284	40148.89
448.491	42012.54
448.697	43448.17
448.903	43988.83
449.11	44226.4
449.316	43077.49
449.522	43771.75
449.728	45117.26
449.935	45340.49
450.141	45522.76
450.347	46364.48
450.553	45086.54
450.76	45442.89
450.966	46978.87
451.172	46292.8
451.378	47570.73
451.584	46802.74
451.791	47480.62
451.997	47191.86
452.203	47716.14
452.409	48627.48
452.615	47576.87
452.821	46298.94
453.027	45885.25
453.233	48189.22
453.44	46108.48
453.646	47230.77
453.852	46528.31
454.058	47847.21
454.264	45832
454.47	46855.99
454.676	45862.72
454.882	47241.01
455.088	43011.95
455.294	43843.43
455.5	44476.25
455.705	44965.71
455.911	43005.81
456.117	42127.23
456.323	42229.63
456.529	39335.85
456.735	41344.91
456.941	40056.73
457.147	39761.83
457.352	38289.34
457.558	37779.39
457.764	37984.19
457.97	37195.72
458.176	36214.74
458.381	36351.96
458.587	34627.57
458.793	34760.69
458.999	33005.58
459.204	35434.47
459.41	33918.97
459.616	32190.48
459.821	31799.32
460.027	31969.3
460.233	31293.47
460.438	29659.2
460.644	29790.27
460.85	28502.09
461.055	28426.32
461.261	28352.59
461.466	26110.07
461.672	25331.84
461.878	26984.55
462.083	25432.19
462.289	25022.59
462.494	24600.71
462.7	23638.17
462.905	23034.02
463.111	23963.79
463.316	23855.25
463.522	23015.58
463.727	23509.15
463.932	23273.63
464.138	23388.32
464.343	23009.44
464.549	22655.14
464.754	23396.51
464.959	23042.21
465.165	23206.05
465.37	21971.12
465.575	21534.9
465.781	22347.95
465.986	22227.12
466.191	21473.46
466.397	21162.17
466.602	20414.66
466.807	20988.1
467.012	21141.69
467.218	20840.64
467.423	20476.1
467.628	20877.51
467.833	21618.87
468.038	20717.76
468.244	20297.93
468.449	21027.01
468.654	20080.85
468.859	20070.61
469.064	20162.76
469.269	19304.67
469.474	19583.19
469.679	19675.35
469.885	19224.79
470.09	19603.67
470.295	19364.06
470.5	18669.8
470.705	19198.17
470.91	18553.06
471.115	18350.31
471.32	18788.58
471.525	18467.05
471.73	18020.59
471.935	18090.22
472.139	17430.77
472.344	17535.22
472.549	17514.74
472.754	17002.75
472.959	16752.9
473.164	16531.72
473.369	16406.79
473.574	16896.25
473.778	16820.48
473.983	16595.2
474.188	16654.59
474.393	15958.28
474.598	15935.76
474.802	15763.73
475.007	15626.51
475.212	15571.22
475.417	14827.81
475.621	14862.62
475.826	15245.59
476.031	14958.88
476.235	14690.59
476.44	14895.39
476.645	14326.05
476.849	14700.83
477.054	14203.18
477.259	14149.93
477.463	14297.38
477.668	13842.73
477.872	14123.3
478.077	13748.53
478.282	13441.33
478.486	13132.09
478.691	13330.74
478.895	13472.05
479.1	13216.05
479.304	13160.76
479.509	12603.71
479.713	13142.33
479.918	12917.05
480.122	12464.45
480.326	12771.65
480.531	12403.01
480.735	12577.09
480.94	12511.55
481.144	12857.66
481.348	12384.58
481.553	12603.71
481.757	12153.16
481.961	12294.47
482.166	12353.86
482.37	12382.53
482.574	12009.8
482.778	12155.21
482.983	12491.07
483.187	12286.28
483.391	12349.76
483.595	12226.89
483.8	12151.11
484.004	12169.54
484.208	12517.7
484.412	12106.06
484.616	12302.66
484.821	12224.84
485.025	12036.42
485.229	12267.84
485.433	12120.39
485.637	12202.31
485.841	12220.74
486.045	11905.35
486.249	12218.69
486.453	12339.52
486.657	12329.28
486.861	12284.23
487.065	11882.83
487.269	12366.15
487.473	12085.58
487.677	12300.61
487.881	12243.27
488.085	12378.44
488.289	12161.35
488.493	12038.47
488.697	12300.61
488.901	12517.7
489.105	12130.63
489.309	12609.86
489.512	12167.49
489.716	12628.29
489.92	12357.96
490.124	12304.71
490.328	12661.05
490.531	12429.63
490.735	12659.01
490.939	12529.98
491.143	12419.39
491.346	12534.08
491.55	12886.33
491.754	12771.65
491.958	13009.21
492.161	12687.68
492.365	12947.77
492.569	12945.72
492.772	12749.12
492.976	13148.47
493.18	12978.49
493.383	13343.03
493.587	13248.82
493.79	13263.16
493.994	13416.76
494.197	13406.52
494.401	13662.51
494.605	13809.97
494.808	13887.79
495.012	13932.84
495.215	13906.22
495.419	14223.65
495.622	14055.72
495.825	14188.84
496.029	14211.37
496.232	14717.22
496.436	14432.55
496.639	14866.72
496.843	14719.26
497.046	14928.16
497.249	15302.93
497.453	15237.4
497.656	15247.64
497.859	15300.89
498.063	15730.96
498.266	15794.45
498.469	15589.65
498.673	16371.97
498.876	16386.31
499.079	16687.36
499.282	16597.25
499.485	16853.25
499.689	17010.94
499.892	17043.71
500.095	17232.12
500.298	17484.02
500.501	17379.57
500.705	17905.9
500.908	18202.86
501.111	18278.63
501.314	18632.93
501.517	18630.88
501.72	18888.93
501.923	18731.23
502.126	19192.03
502.329	19863.76
502.532	19749.07
502.735	19744.98
502.938	20035.79
503.141	20306.12
503.344	20615.37
503.547	20625.61
503.75	20799.68
503.953	21387.45
504.156	21565.62
504.359	21567.67
504.562	21645.49
504.765	22227.12
504.968	22280.36
505.17	22925.47
505.373	22636.71
505.576	23302.3
505.779	23230.62
505.982	23324.83
506.185	24092.82
506.387	24000.66
506.59	24311.95
506.793	24782.98
506.996	24561.8
507.198	25114.75
507.401	25067.65
507.604	25456.76
507.807	25804.92
508.009	25989.24
508.212	26151.02
508.415	26839.14
508.617	27076.71
508.82	27148.39
509.022	26876.01
509.225	27451.49
509.428	27961.43
509.63	27879.51
509.833	28151.89
510.035	29239.36
510.238	28833.86
510.44	29278.27
510.643	29562.94
510.845	29751.35
511.048	29442.11
511.25	30031.93
511.453	30459.95
511.655	31322.15
511.858	31021.09
512.06	31227.94
512.262	31373.35
512.465	32112.66
512.667	32264.21
512.87	32774.16
513.072	32716.81
513.274	33267.72
513.477	33363.97
513.679	33806.33
513.881	33882.11
514.084	34486.26
514.286	34238.45
514.488	34811.88
514.69	35301.35
514.893	35813.34
515.095	35915.74
515.297	36294.61
515.499	36573.14
515.701	36569.04
515.904	37265.35
516.106	37691.33
516.308	37748.67
516.51	38191.03
516.712	38305.72
516.914	38590.39
517.116	39428.01
517.318	39444.39
517.52	39507.88
517.722	39798.69
517.925	40159.13
518.127	40959.89
518.329	40748.95
518.531	41144.2
518.733	41725.83
518.935	42368.89
519.136	42119.04
519.338	42901.36
519.54	42655.61
519.742	43214.7
519.944	43724.64
520.146	44246.88
520.348	44322.65
520.55	44617.56
520.752	44875.6
520.954	45313.87
521.155	45453.13
521.357	45647.69
521.559	46251.84
521.761	46608.18
521.963	46929.72
522.164	46925.62
522.366	46888.76
522.568	47630.12
522.77	48246.56
522.971	48498.46
523.173	48273.18
523.375	48650.01
523.576	48748.31
523.778	48969.49
523.98	49448.72
524.181	49522.44
524.383	49610.51
524.584	50212.61
524.786	50288.38
524.988	50065.16
525.189	50646.78
525.391	51150.58
525.592	51582.7
525.794	51566.32
525.995	51554.03
526.197	52076.26
526.398	52113.12
526.6	52096.74
526.801	52254.43
527.003	52524.77
527.204	52262.63
527.406	52995.8
527.607	52713.18
527.808	53382.87
528.01	52858.59
528.211	53202.64
528.412	54415.04
528.614	53493.46
528.815	53679.82
529.016	54165.19
529.218	53726.92
529.419	54210.24
529.62	54236.87
529.822	54480.58
530.023	54365.89
530.224	54200
530.425	54580.93
530.626	54257.35
530.828	53880.52
531.029	55559.86
531.23	54857.4
531.431	54679.23
531.632	54656.7
531.833	55412.4
532.035	55123.64
532.236	55246.52
532.437	55285.43
532.638	55332.53
532.839	55189.17
533.04	55187.13
533.241	54970.04
533.442	55924.39
533.643	55660.21
533.844	55652.01
534.045	55762.61
534.246	55082.68
534.447	56063.66
534.648	55303.86
534.849	55609.01
535.05	55500.47
535.251	55893.68
535.451	55338.68
535.652	55770.8
535.853	55463.6
536.054	55910.06
536.255	55404.21
536.456	55090.87
536.657	56436.39
536.857	55742.13
537.058	55742.13
537.259	55824.04
537.46	55920.3
537.66	55721.65
537.861	55676.59
538.062	55467.7
538.263	55770.8
538.463	55570.1
538.664	56217.25
538.865	55678.64
539.065	56077.99
539.266	55504.56
539.466	55895.72
539.667	55250.61
539.868	56096.42
540.068	55633.58
540.269	55733.93
540.469	55963.31
540.67	55193.27
540.87	55406.26
541.071	55426.74
541.271	55699.12
541.472	55520.94
541.672	55471.79
541.873	55496.37
542.073	54890.17
542.274	55856.81
542.474	55539.38
542.675	55162.55
542.875	55373.49
543.075	55475.89
543.276	54777.53
543.476	56061.61
543.676	55252.66
543.877	55680.69
544.077	55389.87
544.277	55336.63
544.478	55383.73
544.678	55621.3
544.878	55566
545.078	55592.62
545.279	55031.48
545.479	55140.02
545.679	55324.34
545.879	54873.79
546.079	54791.87
546.28	54996.66
546.48	54951.61
546.68	55041.72
546.88	55101.11
547.08	55748.27
547.28	54955.71
547.48	54570.69
547.68	55330.48
547.88	54613.69
548.081	55328.44
548.281	55131.83
548.481	55039.67
548.681	55588.53
548.881	55281.33
549.081	55017.14
549.28	54556.35
549.48	55176.89
549.68	54515.39
549.88	55606.96
550.08	54804.16
550.28	55152.31
550.48	54775.48
550.68	55322.29
550.88	54376.13
551.08	54892.22
551.279	55074.49
551.479	54347.46
551.679	54523.58
551.879	54343.36
552.079	54941.37
552.278	54492.86
552.478	54707.9
552.678	54580.93
552.878	54709.95
553.077	54646.46
553.277	54722.24
553.477	55078.58
553.676	54441.67
553.876	54230.72
554.076	54279.88
554.275	54152.9
554.475	53698.25
554.674	54505.15
554.874	54707.9
555.074	54267.59
555.273	54144.71
555.473	54251.2
555.672	53948.1
555.872	53964.49
556.071	54296.26
556.271	54283.97
556.47	54005.45
556.67	53767.88
556.869	53923.53
557.068	53745.36
557.268	53638.86
557.467	53452.5
557.667	53579.47
557.866	53120.73
558.065	53911.24
558.265	53259.99
558.464	53284.56
558.663	54013.64
558.863	52735.71
559.062	54101.7
559.261	52717.28
559.461	53317.33
559.66	52412.13
559.859	52661.98
560.058	52645.6
560.258	52971.22
560.457	52377.31
560.656	53047
560.855	52473.57
561.054	52535.01
561.253	52049.64
561.453	52637.4
561.652	52883.16
561.851	53071.57
562.05	52301.54
562.249	51842.79
562.448	52313.83
562.647	52317.92
562.846	51912.42
563.045	51662.57
563.244	51523.31
563.443	52436.7
563.642	51633.9
563.841	51613.42
564.04	51193.59
564.239	52047.59
564.438	51011.32
564.637	51341.04
564.836	51506.93
565.035	50902.78
565.234	50996.98
565.432	50900.73
565.631	50829.05
565.83	50884.34
566.029	50765.56
566.228	50364.16
566.427	50413.31
566.625	50134.79
566.824	49985.29
567.023	50220.8
567.222	49450.77
567.42	50497.28
567.619	49835.78
567.818	49659.66
568.016	49422.09
568.215	50093.83
568.414	49864.46
568.612	50130.69
568.811	49340.18
569.01	49559.31
569.208	48975.64
569.407	49469.2
569.605	48598.81
569.804	49297.17
570.002	48516.89
570.201	48906.01
570.4	48357.15
570.598	48228.13
570.797	47970.08
570.995	48561.95
571.193	47388.46
571.392	48328.48
571.59	47746.86
571.789	47896.36
571.987	48246.56
572.186	47626.03
572.384	47583.02
572.582	47361.84
572.781	47765.29
572.979	46985.01
573.177	47034.16
573.376	47236.91
573.574	46210.88
573.772	47169.33
573.971	46382.91
574.169	46370.62
574.367	46100.29
574.565	46767.93
574.763	46106.43
574.962	45731.65
575.16	45432.65
575.358	46079.81
575.556	45270.86
575.754	46088
575.952	45836.1
576.151	45557.58
576.349	45201.23
576.547	45322.06
576.745	45195.09
576.943	45338.44
577.141	44898.13
577.339	45078.35
577.537	44703.57
577.735	44709.72
577.933	44230.49
578.131	44685.14
578.329	44406.62
578.527	44136.29
578.725	44291.93
578.923	44525.4
579.121	43714.4
579.319	43681.64
579.516	44013.41
579.714	43937.63
579.912	43810.66
580.11	43351.91
580.308	43702.12
580.506	43421.55
580.704	42678.13
580.901	43413.35
581.099	43581.29
581.297	42997.62
581.495	42712.95
581.692	43159.41
581.89	42442.62
582.088	42655.61
582.285	42129.28
582.483	42731.38
582.681	42502.01
582.878	42035.07
583.076	41701.25
583.274	41969.54
583.471	41727.88
583.669	41713.54
583.866	41617.28
584.064	41807.75
584.262	41035.66
584.459	41449.35
584.657	41107.34
584.854	41156.49
585.052	40476.57
585.249	41140.11
585.447	40738.71
585.644	40689.56
585.841	40816.53
586.039	41123.72
586.236	40226.71
586.434	40472.47
586.631	39935.9
586.828	40212.38
587.026	39997.34
587.223	39940
587.42	39720.87
587.618	39849.89
587.815	39675.81
588.012	39559.08
588.21	39229.35
588.407	39704.48
588.604	39002.03
588.801	39004.08
588.999	38948.78
589.196	38723.51
589.393	38768.56
589.59	38614.96
589.787	38363.06
589.984	37990.33
590.182	38127.55
590.379	38551.48
590.576	37681.09
590.773	38064.06
590.97	37715.9
591.167	37973.95
591.364	37216.2
591.561	37703.62
591.758	37027.79
591.955	37156.81
592.152	37304.26
592.349	37193.67
592.546	36900.81
592.743	37519.3
592.94	36397.01
593.137	36661.2
593.334	37148.62
593.531	35966.94
593.727	36847.57
593.924	36397.01
594.121	36255.7
594.318	36560.85
594.515	35635.17
594.712	36429.78
594.908	35930.08
595.105	35825.63
595.302	35420.13
595.499	35776.48
595.696	35225.57
595.892	35246.05
596.089	35287.01
596.286	35332.07
596.482	35188.71
596.679	35211.24
596.876	35248.1
597.072	34742.25
597.269	34500.59
597.466	34514.93
597.662	34371.57
597.859	34652.14
598.055	34639.86
598.252	34025.46
598.448	34099.19
598.645	34236.41
598.841	34138.1
599.038	33878.01
599.234	33464.32
599.431	33320.96
599.627	33202.18
599.824	33568.77
600.02	33095.69
600.217	33312.77
600.413	32940.04
600.609	32729.1
600.806	32583.69
601.002	33001.48
601.198	32649.23
601.395	32266.26
601.591	32374.8
601.787	32530.45
601.984	32415.76
602.18	32489.49
602.376	32235.54
602.572	32120.85
602.769	31993.88
602.965	31946.78
603.161	31946.78
603.357	31692.83
603.553	31426.59
603.75	31440.93
603.946	31336.48
604.142	31449.12
604.338	31283.23
604.534	31541.28
604.73	30947.37
604.926	31229.99
605.122	31004.71
605.318	31098.92
605.514	30568.49
605.71	30603.31
605.906	30351.41
606.102	30683.18
606.298	30375.98
606.494	30470.19
606.69	30455.86
606.886	30726.19
607.082	29851.7
607.278	30122.04
607.474	29708.35
607.67	30183.48
607.866	29558.84
608.062	30076.98
608.257	29571.13
608.453	29816.89
608.649	29732.92
608.845	29732.92
609.041	29775.93
609.236	29562.94
609.432	29591.61
609.628	29208.64
609.824	29245.51
610.019	29327.42
610.215	29044.8
610.411	29186.11
610.606	28641.35
610.802	28979.27
610.998	29042.76
611.193	28901.45
611.389	28819.53
611.584	28772.42
611.78	28592.2
611.976	28450.89
612.171	29106.24
612.367	28416.08
612.562	28569.68
612.758	28209.23
612.953	28559.44
613.149	28637.26
613.344	28037.2
613.539	28352.59
613.735	28033.11
613.93	28438.61
614.126	28153.94
614.321	28264.53
614.517	27951.19
614.712	28250.19
614.907	27592.79
615.103	28024.92
615.298	27881.56
615.493	28039.25
615.688	27578.46
615.884	28016.72
616.079	27441.25
616.274	27580.51
616.47	27861.08
616.665	27531.36
616.86	27385.95
617.055	27189.35
617.25	27215.97
617.445	27457.63
617.641	26800.23
617.836	27154.53
618.031	26929.25
618.226	27355.23
618.421	27105.38
618.616	27078.75
618.811	26591.34
619.006	27187.3
619.201	26482.8
619.396	26706.02
619.591	26075.25
619.786	26402.93
619.981	25682.04
620.176	26202.22
620.371	26175.6
620.566	25999.48
620.761	25858.17
620.956	25972.85
621.151	25460.86
621.346	25604.22
621.541	25194.62
621.735	25227.39
621.93	25004.16
622.125	25350.27
622.32	24596.62
622.515	24952.96
622.709	24291.47
622.904	24608.9
623.099	24420.49
623.294	24494.22
623.488	24203.41
623.683	24162.45
623.878	23759
624.072	24230.03
624.267	23621.78
624.462	23566.49
624.656	23423.13
624.851	23423.13
625.046	23066.78
625.24	23249.05
625.435	22859.94
625.629	22681.77
625.824	22851.75
626.018	22698.15
626.213	22173.87
626.407	22671.53
626.602	22059.18
626.796	22177.97
626.991	22104.24
627.185	21944.5
627.38	21909.68
627.574	21536.95
627.768	21625.01
627.963	21237.95
628.157	21199.04
628.352	21260.48
628.546	20785.35
628.74	20879.55
628.935	20879.55
629.129	20795.59
629.323	20562.12
629.517	20658.37
629.712	20785.35
629.906	20472.01
630.1	20064.46
630.294	20140.24
630.489	20308.17
630.683	20050.13
630.877	19859.66
631.071	19634.39
631.265	19761.36
631.459	19482.84
631.653	19556.57
631.848	19767.51
632.042	18888.93
632.236	19296.47
632.43	19302.62
632.624	19108.06
632.818	19036.38
633.012	18614.5
633.206	18528.49
633.4	18675.94
633.594	18381.03
633.788	18694.37
633.982	18460.9
634.176	18204.91
634.369	18157.8
634.563	17936.62
634.757	17901.81
634.951	18010.35
635.145	17981.68
635.339	17850.61
635.533	17750.26
635.726	17557.75
635.92	17316.09
636.114	17322.23
636.308	17502.45
636.501	17422.58
636.695	17203.45
636.889	16861.44
637.083	16861.44
637.276	16890.11
637.47	16662.79
637.664	16718.08
637.857	16617.73
638.051	16544
638.244	16611.59
638.438	16253.19
638.632	16369.93
638.825	16226.57
639.019	16253.19
639.212	15888.65
639.406	15911.18
639.599	15821.07
639.793	15849.74
639.986	15624.47
640.18	15694.1
640.373	15595.79
640.567	15147.29
640.76	15280.41
640.954	15237.4
641.147	15210.78
641.34	14846.24
641.534	15089.95
641.727	15122.71
641.92	14895.39
642.114	15069.47
642.307	14747.93
642.5	14631.2
642.694	14522.66
642.887	14438.69
643.08	14709.02
643.273	14381.35
643.467	14424.36
643.66	14240.04
643.853	14244.13
644.046	14059.82
644.239	14078.25
644.432	13797.68
644.626	13990.19
644.819	13830.44
645.012	13859.12
645.205	13736.24
645.398	13394.23
645.591	13556.02
645.784	13639.98
645.977	13474.1
646.17	13461.81
646.363	13318.45
646.556	13107.51
646.749	12855.61
646.942	13254.97
647.135	12902.72
647.328	12994.87
647.521	12769.6
647.714	12503.36
647.907	12742.97
648.099	12730.69
648.292	12708.16
648.485	12740.93
648.678	12443.97
648.871	12364.1
649.064	12210.5
649.256	12364.1
649.449	12157.25
649.642	12140.87
649.835	11977.03
650.027	12032.33
650.22	11866.44
650.413	11979.08
650.605	11790.67
650.798	12011.85
650.991	11684.17
651.183	11551.06
651.376	11610.45
651.568	11626.83
651.761	11567.44
651.954	11346.26
652.146	11301.2
652.339	11319.64
652.531	11290.96
652.724	11204.95
652.916	11016.54
653.109	11256.15
653.301	10842.46
653.494	11026.78
653.686	10807.64
653.879	10901.85
654.071	10729.82
654.263	10844.51
654.456	10473.82
654.648	10690.91
654.84	10385.76
655.033	10576.22
655.225	10359.14
655.417	10420.58
655.61	10359.14
655.802	10312.03
655.994	10236.26
656.186	10322.27
656.379	10058.09
656.571	10082.66
656.763	10168.68
656.955	10140.01
657.148	9908.58
657.34	9933.16
657.532	9658.73
657.724	9896.3
657.916	9754.99
658.108	9720.17
658.3	9644.4
658.492	9539.95
658.684	9519.47
658.876	9511.28
659.068	9431.41
659.26	9435.5
659.452	9509.23
659.644	9369.97
659.836	9120.12
660.028	9273.71
660.22	8987
660.412	9191.8
660.604	9044.34
660.796	9021.81
660.988	8919.42
661.18	9030.01
661.372	8898.94
661.563	8948.09
661.755	8794.49
661.947	8890.74
662.139	8737.15
662.331	8739.19
662.522	8526.21
662.714	8589.69
662.906	8548.73
663.097	8423.81
663.289	8419.71
663.481	8219.01
663.673	8317.31
663.864	8264.07
664.056	8153.48
664.247	8358.27
664.439	8200.58
664.631	8335.74
664.822	8053.13
665.014	8114.56
665.205	7903.62
665.397	7928.2
665.588	8044.93
665.78	7801.22
665.971	7997.83
666.163	7811.46
666.354	7692.68
666.546	7825.8
666.737	7760.27
666.929	7817.61
667.12	7780.75
667.311	7684.49
667.503	7600.52
667.694	7528.85
667.885	7502.22
668.077	7541.13
668.268	7305.62
668.459	7432.59
668.651	7385.49
668.842	7213.46
669.033	7350.67
669.224	7068.05
669.416	7270.8
669.607	7494.03
669.798	7264.66
669.989	7289.23
670.18	7066
670.371	7117.2
670.563	6961.56
670.754	7170.45
670.945	6891.93
671.136	7045.52
671.327	6887.83
671.518	6885.78
671.709	6867.35
671.9	6928.79
672.091	6857.11
672.282	6877.59
672.473	6683.03
672.664	6748.57
672.855	6592.92
673.046	6746.52
673.237	6648.22
673.428	6588.83
673.619	6515.1
673.809	6498.72
674	6404.51
674.191	6568.35
674.382	6455.71
674.573	6609.31
674.764	6457.76
674.954	6338.98
675.145	6343.07
675.336	6306.21
675.527	6338.98
675.717	6285.73
675.908	6183.33
676.099	6099.36
676.289	6416.8
676.48	6115.75
676.671	6101.41
676.861	6199.71
677.052	5935.53
677.243	5847.46
677.433	6037.92
677.624	6011.3
677.814	5990.82
678.005	6076.84
678.195	6021.54
678.386	5937.57
678.576	5786.02
678.767	5919.14
678.957	5994.92
679.148	5986.72
679.338	5929.38
679.529	5702.06
679.719	5677.48
679.909	5960.1
680.1	5804.46
680.29	5687.72
680.481	5679.53
680.671	5689.77
680.861	5745.06
681.052	5779.88
681.242	5679.53
681.432	5663.15
681.622	5521.84
681.813	5659.05
682.003	5536.17
682.193	5550.51
682.383	5523.88
682.573	5546.41
682.764	5540.27
682.954	5546.41
683.144	5511.6
683.334	5460.4
683.524	5446.06
683.714	5376.43
683.904	5314.99
684.094	5392.81
684.284	5396.91
684.474	5415.34
684.664	5308.85
684.854	5063.09
685.044	5198.26
685.234	5224.88
685.424	5226.93
685.614	5104.05
685.804	5104.05
685.994	5167.54
686.184	5237.17
686.374	5243.31
686.564	5183.92
686.753	5087.67
686.943	5130.67
687.133	4993.46
687.323	5050.8
687.513	5052.85
687.702	5085.62
687.892	4983.22
688.082	4846.01
688.272	4983.22
688.461	4884.92
688.651	4905.4
688.841	4807.09
689.03	4794.81
689.22	4897.21
689.41	4956.6
689.599	4749.75
689.789	4792.76
689.979	4786.61
690.168	4753.85
690.358	4610.49
690.547	4721.08
690.737	4655.54
690.926	4678.07
691.116	4553.15
691.305	4602.3
691.495	4633.02
691.684	4579.77
691.874	4731.32
692.063	4467.13
692.252	4446.65
692.442	4489.66
692.631	4458.94
692.82	4544.95
693.01	4379.07
693.199	4510.14
693.388	4499.9
693.578	4301.25
693.767	4374.97
693.956	4336.06
694.146	4436.41
694.335	4264.38
694.524	4266.43
694.713	4383.17
694.902	4303.29
695.092	4258.24
695.281	4161.98
695.47	4266.43
695.659	4118.98
695.848	4299.2
696.037	4215.23
696.226	4217.28
696.415	4280.77
696.604	4073.92
696.793	4035.01
696.982	4207.04
697.171	4125.12
697.36	4096.45
697.549	4041.15
697.738	4202.94
697.927	3949
698.116	4161.98
698.305	4176.32
698.494	4055.49
698.683	4059.59
698.872	4075.97
699.061	4127.17
699.25	3912.13
699.438	4053.44
699.627	3985.86
699.816	4020.67
700.005	4067.78
700.193	4090.31
700.382	4041.15
700.571	3924.42
700.76	3854.79
700.948	3987.91
701.137	3910.08
701.326	4080.07
701.514	3908.04
701.703	4051.39
701.892	3926.47
702.08	3951.04
702.269	3832.26
702.457	3785.16
702.646	3926.47
702.834	3817.93
703.023	3910.08
703.212	3844.55
703.4	3885.51
703.589	3750.34
703.777	3867.08
703.965	3791.3
704.154	3809.73
704.342	3520.97
704.531	3975.62
704.719	3709.38
704.907	3774.92
705.096	3756.49
705.284	3736.01
705.472	3873.22
705.661	3828.17
705.849	3795.4
706.037	3772.87
706.226	3627.46
706.414	3684.81
706.602	3676.62
706.79	3746.25
706.979	3621.32
707.167	3588.55
707.355	3647.94
707.543	3707.34
707.731	3815.88
707.919	3660.23
708.107	3535.31
708.296	3621.32
708.484	3658.18
708.672	3633.61
708.86	3649.99
709.048	3662.28
709.236	3711.43
709.424	3758.53
709.612	3723.72
709.8	3588.55
709.988	3451.34
710.176	3690.95
710.364	3553.74
710.551	3580.36
710.739	3514.83
710.927	3699.14
711.115	3545.55
711.303	3473.87
711.491	3621.32
711.679	3422.67
711.866	3578.31
712.054	3578.31
712.242	3531.21
712.43	3611.08
712.617	3514.83
712.805	3574.22
712.993	3434.96
713.181	3373.52
713.368	3506.63
713.556	3541.45
713.744	3459.53
713.931	3449.29
714.119	3658.18
714.306	3480.01
714.494	3541.45
714.682	3447.24
714.869	3355.08
715.057	3394
715.244	3420.62
715.432	3594.7
715.619	3490.25
715.807	3488.2
715.994	3418.57
716.182	3451.34
716.369	3410.38
716.556	3432.91
716.744	3414.48
716.931	3344.84
717.119	3410.38
717.306	3391.95
717.493	3310.03
717.681	3398.09
717.868	3316.17
718.055	3275.21
718.242	3469.77
718.43	3383.76
718.617	3326.41
718.804	3418.57
718.991	3353.04
719.179	3267.02
719.366	3353.04
719.553	3314.13
719.74	3295.69
719.927	3230.16
720.114	3260.88
720.301	3318.22
720.488	3172.82
720.676	3338.7
720.863	3291.6
721.05	3307.98
721.237	3328.46
721.424	3205.58
721.611	3283.41
721.798	3326.41
721.985	3211.73
722.172	3203.54
722.358	3178.96
722.545	3340.75
722.732	3097.04
722.919	3264.97
723.106	3242.45
723.293	3183.06
723.48	3332.56
723.667	3146.19
723.853	3138
724.04	3279.31
724.227	3043.79
724.414	3277.26
724.6	3203.54
724.787	3234.25
724.974	3088.85
725.161	3217.87
725.347	3084.75
725.534	3148.24
725.72	3135.95
725.907	3201.49
726.094	3144.14
726.28	3086.8
726.467	3142.1
726.653	3066.32
726.84	3230.16
727.027	3197.39
727.213	3121.62
727.4	3041.75
727.586	3039.7
727.773	3086.8
727.959	3131.86
728.145	3029.46
728.332	2972.11
728.518	3086.8
728.705	3109.33
728.891	3178.96
729.077	2972.11
729.264	2947.54
729.45	3013.07
729.636	3129.81
729.823	3035.6
730.009	3111.38
730.195	3054.03
730.382	3123.66
730.568	3076.56
730.754	2984.4
730.94	3043.79
731.126	3021.27
731.313	3183.06
731.499	2959.83
731.685	3078.61
731.871	3031.51
732.057	3117.52
732.243	2941.4
732.429	3078.61
732.615	3033.55
732.801	3074.51
732.987	3004.88
733.173	2998.74
733.359	2949.59
733.545	2896.34
733.731	2984.4
733.917	3006.93
734.103	2984.4
734.289	3031.51
734.475	2996.69
734.661	2804.18
734.847	2910.68
735.033	3000.79
735.219	2892.24
735.404	2927.06
735.59	2925.01
735.776	2892.24
735.962	2812.37
736.148	2957.78
736.333	2695.64
736.519	2916.82
736.705	2918.87
736.89	2968.02
737.076	2914.77
737.262	2759.13
737.447	2863.57
737.633	2785.75
737.819	2836.95
738.004	2775.51
738.19	2849.24
738.375	2834.9
738.561	2849.24
738.747	2738.65
738.932	2722.26
739.118	2818.52
739.303	2836.95
739.489	2820.56
739.674	2783.7
739.859	2830.8
740.045	2707.93
740.23	2750.93
740.416	2720.21
740.601	2783.7
740.786	2810.33
740.972	2703.83
741.157	2681.3
741.342	2576.86
741.528	2687.45
741.713	2673.11
741.898	2718.17
742.084	2634.2
742.269	2619.86
742.454	2644.44
742.639	2650.58
742.824	2589.14
743.01	2640.34
743.195	2611.67
743.38	2554.33
743.565	2492.89
743.75	2542.04
743.935	2470.36
744.12	2697.69
744.305	2597.34
744.49	2638.3
744.675	2441.69
744.86	2398.68
745.045	2509.27
745.23	2513.37
745.415	2415.07
745.6	2474.46
745.785	2443.74
745.97	2396.64
746.155	2423.26
746.34	2394.59
746.525	2351.58
746.71	2458.07
746.895	2337.24
747.079	2372.06
747.264	2349.53
747.449	2345.44
747.634	2314.72
747.819	2367.96
748.003	2197.98
748.188	2384.35
748.373	2329.05
748.557	2284
748.742	2191.84
748.927	2193.89
749.111	2197.98
749.296	2189.79
749.481	2177.5
749.665	2132.45
749.85	2136.54
750.034	2099.68
750.219	2181.6
750.404	2152.93
750.588	1989.09
750.773	2122.21
750.957	1970.66
751.141	2085.34
751.326	2101.73
751.51	2017.76
751.695	2048.48
751.879	2032.1
752.064	1991.14
752.248	1976.8
752.432	1939.94
752.617	2017.76
752.801	1923.55
752.985	1819.11
753.17	1960.42
753.354	1970.66
753.538	1880.55
753.722	1876.45
753.907	1835.49
754.091	1706.47
754.275	1923.55
754.459	1782.24
754.643	1726.95
754.828	1827.3
755.012	1821.16
755.196	1776.1
755.38	1769.96
755.564	1651.17
755.748	1681.89
755.932	1772
756.116	1681.89
756.3	1593.83
756.484	1645.03
756.668	1651.17
756.852	1688.04
757.036	1763.81
757.22	1618.41
757.404	1608.17
757.588	1559.02
757.772	1589.74
757.956	1679.85
758.14	1573.35
758.323	1645.03
758.507	1561.06
758.691	1653.22
758.875	1552.87
759.059	1538.54
759.242	1491.43
759.426	1608.17
759.61	1513.96
759.794	1526.25
759.977	1518.06
760.161	1503.72
760.345	1518.06
760.528	1569.26
760.712	1374.7
760.895	1419.75
761.079	1450.47
761.263	1368.56
761.446	1432.04
761.63	1405.42
761.813	1475.05
761.997	1378.79
762.18	1485.29
762.364	1391.08
762.547	1427.95
762.731	1391.08
762.914	1403.37
763.098	1436.14
763.281	1366.51
763.464	1348.08
763.648	1341.93
763.831	1425.9
764.015	1303.02
764.198	1294.83
764.381	1335.79
764.564	1290.73
764.748	1221.1
764.931	1292.78
765.114	1241.58
765.297	1401.32
765.481	1270.25
765.664	1307.12
765.847	1356.27
766.03	1278.44
766.213	1305.07
766.397	1219.05
766.58	1282.54
766.763	1346.03
766.946	1188.33
767.129	1214.96
767.312	1262.06
767.495	1165.81
767.678	1214.96
767.861	1282.54
768.044	1200.62
768.227	1130.99
768.41	1262.06
768.593	1171.95
768.776	1239.53
768.959	1171.95
769.142	1311.21
769.324	1130.99
769.507	1198.57
769.69	1133.04
769.873	1122.8
770.056	1038.83
770.239	1163.76
770.421	1094.13
770.604	1186.29
770.787	1036.78
770.97	1114.61
771.152	1190.38
771.335	1112.56
771.518	991.73
771.7	1051.12
771.883	1145.33
772.066	1079.79
772.248	1163.76
772.431	1055.22
772.613	1100.27
772.796	1057.26
772.978	1069.55
773.161	1081.84
773.343	1001.97
773.526	991.73
773.708	1030.64
773.891	1020.4
774.073	1098.22
774.256	1010.16
774.438	975.35
774.621	1022.45
774.803	989.68
774.985	995.82
775.168	1016.3
775.35	1036.78
775.532	1006.06
775.715	936.43
775.897	956.91
776.079	928.24
776.261	995.82
776.444	901.62
776.626	907.76
776.808	922.1
776.99	836.08
777.173	907.76
777.355	983.54
777.537	840.18
777.719	895.47
777.901	848.37
778.083	868.85
778.265	846.32
778.447	870.9
778.629	809.46
778.811	866.8
778.993	838.13
779.175	823.8
779.357	897.52
779.539	696.82
779.721	780.79
779.903	854.51
780.085	854.51
780.267	821.75
780.449	854.51
780.631	866.8
780.812	829.94
780.994	768.5
781.176	713.21
781.358	745.97
781.54	686.58
781.721	760.31
781.903	719.35
782.085	694.77
782.267	770.55
782.448	711.16
782.63	776.69
782.812	659.96
782.993	729.59
783.175	756.21
783.357	674.29
783.538	684.53
783.72	674.29
783.901	674.29
784.083	678.39
784.264	647.67
784.446	567.8
784.627	629.24
784.809	619
784.99	696.82
785.172	590.33
785.353	645.62
785.535	676.34
785.716	584.18
785.897	702.97
786.079	625.14
786.26	590.33
786.441	627.19
786.623	502.26
786.804	578.04
786.985	539.13
787.167	621.05
787.348	592.37
787.529	535.03
787.71	532.98
787.891	553.46
788.073	590.33
788.254	541.18
788.435	545.27
788.616	500.22
788.797	565.75
788.978	492.02
789.159	514.55
789.34	487.93
789.522	487.93
789.703	631.29
789.884	578.04
790.065	535.03
790.246	461.3
790.427	518.65
790.607	473.59
790.788	559.61
790.969	547.32
791.15	481.78
791.331	485.88
791.512	444.92
791.693	535.03
791.874	498.17
792.054	469.5
792.235	500.22
792.416	387.58
792.597	426.49
792.778	496.12
792.958	487.93
793.139	426.49
793.32	506.36
793.5	434.68
793.681	385.53
793.862	442.87
794.042	391.67
794.223	440.83
794.404	412.15
794.584	444.92
794.765	393.72
794.945	440.83
795.126	469.5
795.306	481.78
795.487	457.21
795.667	391.67
795.848	383.48
796.028	453.11
796.209	326.14
796.389	420.35
796.57	426.49
796.75	393.72
796.93	375.29
797.111	315.9
797.291	442.87
797.471	387.58
797.652	375.29
797.832	344.57
798.012	449.02
798.192	295.42
798.373	309.76
798.553	358.91
798.733	330.23
798.913	373.24
799.093	440.83
799.274	377.34
799.454	336.38
799.634	301.56
799.814	397.82
799.994	326.14
800.174	307.71
800.354	291.32
800.534	403.96
800.714	348.67
800.894	338.43
801.074	289.28
801.254	326.14
801.434	401.91
801.614	348.67
801.794	293.37
801.974	573.94
802.154	262.65
802.334	324.09
802.514	209.4
802.693	236.03
802.873	354.81
803.053	354.81
803.233	276.99
803.413	168.45
803.592	299.52
803.772	262.65
803.952	289.28
804.131	211.45
804.311	260.6
804.491	324.09
804.67	264.7
804.85	367.1
805.03	272.89
805.209	367.1
805.389	328.19
805.568	295.42
805.748	311.8
805.928	250.36
806.107	260.6
806.287	201.21
806.466	326.14
806.646	252.41
806.825	287.23
807.004	272.89
807.184	334.33
807.363	264.7
807.543	244.22
807.722	283.13
807.901	289.28
808.081	272.89
808.26	186.88
808.439	289.28
808.619	229.88
808.798	231.93
808.977	256.51
809.156	215.55
809.336	199.16
809.515	197.12
809.694	264.7
809.873	219.64
810.052	305.66
810.231	301.56
810.411	301.56
810.59	270.84
810.769	289.28
810.948	256.51
811.127	164.35
811.306	158.21
811.485	252.41
811.664	262.65
811.843	215.55
812.022	162.3
812.201	276.99
812.38	201.21
812.559	188.93
812.737	176.64
812.916	236.03
813.095	215.55
813.274	266.75
813.453	262.65
813.632	205.31
813.811	262.65
813.989	268.8
814.168	236.03
814.347	162.3
814.526	221.69
814.704	276.99
814.883	238.08
815.062	131.58
815.24	264.7
815.419	156.16
815.598	209.4
815.776	252.41
815.955	190.97
816.133	225.79
816.312	172.54
816.49	137.73
816.669	156.16
816.847	164.35
817.026	266.75
817.204	190.97
817.383	123.39
817.561	217.6
817.74	242.17
817.918	129.53
818.097	236.03
818.275	145.92
818.453	207.36
818.632	201.21
818.81	203.26
818.988	158.21
819.167	137.73
819.345	127.49
819.523	201.21
819.701	190.97
819.879	215.55
820.058	156.16
820.236	213.5
820.414	199.16
820.592	168.45
820.77	143.87
820.948	170.49
821.127	166.4
821.305	135.68
821.483	223.74
821.661	225.79
821.839	139.77
822.017	150.01
822.195	209.4
822.373	227.84
822.551	182.78
822.729	166.4
822.907	205.31
823.085	180.73
823.262	143.87
823.44	125.44
823.618	129.53
823.796	166.4
823.974	88.57
824.152	180.73
824.329	131.58
824.507	156.16
824.685	117.25
824.863	188.93
825.04	156.16
825.218	172.54
825.396	141.82
825.574	109.05
825.751	123.39
825.929	160.25
826.107	193.02
826.284	121.34
826.462	252.41
826.639	168.45
826.817	109.05
826.994	154.11
827.172	51.71
827.349	174.59
827.527	90.62
827.704	111.1
827.882	145.92
828.059	150.01
828.237	143.87
828.414	145.92
828.591	27.14
828.769	145.92
828.946	135.68
829.124	135.68
829.301	162.3
829.478	102.91
829.655	104.96
829.833	66.05
830.01	176.64
830.187	147.97
830.364	53.76
830.542	119.29
830.719	182.78
830.896	166.4
831.073	137.73
831.25	84.48
831.427	139.77
831.604	119.29
831.782	119.29
831.959	117.25
832.136	143.87
832.313	154.11
832.49	129.53
832.667	96.77
832.844	117.25
833.021	88.57
833.198	43.52
833.374	170.49
833.551	74.24
833.728	143.87
833.905	119.29
834.082	90.62
834.259	127.49
834.436	59.9
834.612	84.48
834.789	143.87
834.966	102.91
835.143	178.69
835.319	129.53
835.496	184.83
835.673	154.11
835.85	102.91
836.026	119.29
836.203	98.81
836.38	82.43
836.556	59.9
836.733	31.23
836.909	133.63
837.086	121.34
837.262	76.29
837.439	96.77
837.616	113.15
837.792	131.58
837.968	100.86
838.145	57.86
838.321	82.43
838.498	164.35
838.674	147.97
838.851	64
839.027	102.91
839.203	39.42
839.38	61.95
839.556	88.57
839.732	41.47
839.909	123.39
840.085	100.86
840.261	35.33
840.437	125.44
840.614	123.39
840.79	74.24
840.966	145.92
841.142	82.43
841.318	43.52
841.494	117.25
841.671	64
841.847	68.09
842.023	45.57
842.199	72.19
842.375	68.09
842.551	117.25
842.727	117.25
842.903	115.2
843.079	70.14
843.255	76.29
843.431	139.77
843.607	115.2
843.783	49.66
843.959	74.24
844.134	90.62
844.31	107.01
844.486	129.53
844.662	33.28
844.838	51.71
845.013	111.1
845.189	88.57
845.365	121.34
845.541	51.71
845.716	94.72
845.892	137.73
846.068	49.66
846.244	57.86
846.419	74.24
846.595	70.14
846.77	39.42
846.946	150.01
847.122	76.29
847.297	80.38
847.473	61.95
847.648	57.86
847.824	111.1
847.999	18.94
848.175	104.96
848.35	115.2
848.526	145.92
848.701	66.05
848.876	102.91
849.052	104.96
849.227	100.86
849.403	86.53
849.578	57.86
849.753	90.62
849.929	80.38
850.104	41.47
850.279	45.57
850.454	76.29
850.63	102.91
850.805	-5.63
850.98	102.91
851.155	86.53
851.33	76.29
851.505	49.66
851.681	29.18
851.856	-28.16
852.031	111.1
852.206	61.95
852.381	-44.54
852.556	66.05
852.731	57.86
852.906	47.62
853.081	78.33
853.256	55.81
853.431	88.57
853.606	84.48
853.781	70.14
853.956	78.33
854.131	64
854.305	8.7
854.48	23.04
854.655	76.29
854.83	39.42
855.005	35.33
855.18	76.29
855.354	45.57
855.529	100.86
855.704	123.39
855.879	33.28
856.053	27.14
856.228	6.66
856.403	84.48
856.577	104.96
856.752	96.77
856.926	53.76
857.101	72.19
857.276	39.42
857.45	18.94
857.625	78.33
857.799	88.57
857.974	57.86
858.148	20.99
858.323	18.94
858.497	35.33
858.672	66.05
858.846	10.75
859.02	72.19
859.195	94.72
859.369	45.57
859.543	51.71
859.718	31.23
859.892	43.52
860.066	72.19
860.241	51.71
860.415	88.57
860.589	2.56
860.763	23.04
860.938	66.05
861.112	14.85
861.286	64
861.46	72.19
861.634	39.42
861.808	57.86
861.982	68.09
862.157	8.7
862.331	68.09
862.505	18.94
862.679	-9.73
862.853	18.94
863.027	12.8
863.201	154.11
863.375	61.95
863.549	64
863.722	80.38
863.896	43.52
864.07	10.75
864.244	64
864.418	41.47
864.592	41.47
864.766	35.33
864.939	6.66
865.113	119.29
865.287	49.66
865.461	31.23
865.634	55.81
865.808	64
865.982	78.33
866.156	20.99
866.329	59.9
866.503	72.19
866.676	94.72
866.85	94.72
867.024	35.33
867.197	72.19
867.371	35.33
867.544	59.9
867.718	29.18
867.891	33.28
868.065	16.9
868.238	-5.63
868.412	45.57
868.585	53.76
868.759	88.57
868.932	57.86
869.105	94.72
869.279	76.29
869.452	113.15
869.625	18.94
869.799	31.23
869.972	12.8
870.145	-3.58
870.319	104.96
870.492	35.33
870.665	-9.73
870.838	-26.11
871.011	33.28
871.185	-22.02
871.358	84.48
871.531	-11.78
871.704	14.85
871.877	18.94
872.05	8.7
872.223	57.86
872.396	47.62
872.569	100.86
872.742	-9.73
872.915	10.75
873.088	70.14
873.261	59.9
873.434	70.14
873.607	25.09
873.78	76.29
873.953	14.85
874.126	76.29
874.299	25.09
874.471	6.66
874.644	6.66
874.817	33.28
874.99	29.18
875.163	59.9
875.335	51.71
875.508	90.62
875.681	53.76
875.853	0.51
876.026	39.42
876.199	72.19
876.371	-56.83
876.544	12.8
876.717	33.28
876.889	-1.54
877.062	-3.58
877.234	-17.92
877.407	10.75
877.579	29.18
877.752	107.01
877.924	49.66
878.097	-1.54
878.269	66.05
878.442	27.14
878.614	-1.54
878.786	59.9
878.959	47.62
879.131	35.33
879.303	59.9
879.476	39.42
879.648	-24.06
879.82	68.09
879.993	-3.58
880.165	14.85
880.337	-54.78
880.509	43.52
880.681	20.99
880.854	27.14
881.026	20.99
881.198	6.66
881.37	27.14
881.542	18.94
881.714	35.33
881.886	14.85
882.058	37.38
882.23	-11.78
882.402	113.15
882.574	55.81
882.746	18.94
882.918	72.19
883.09	2.56
883.262	-9.73
883.434	78.33
883.606	39.42
883.778	14.85
883.95	104.96
884.122	14.85
884.293	20.99
884.465	39.42
884.637	29.18
884.809	64
884.98	35.33
885.152	-19.97
885.324	35.33
885.496	33.28
885.667	14.85
885.839	35.33
886.011	41.47
886.182	49.66
886.354	86.53
886.525	10.75
886.697	23.04
886.869	-28.16
887.04	80.38
887.212	-1.54
887.383	72.19
887.555	-15.87
887.726	23.04
887.897	-32.26
888.069	8.7
888.24	66.05
888.412	6.66
888.583	-28.16
888.754	-1.54
888.926	57.86
889.097	12.8
889.268	6.66
889.44	64
889.611	-3.58
889.782	-56.83
889.953	14.85
890.125	59.9
890.296	29.18
890.467	12.8
890.638	23.04
890.809	2.56
890.98	59.9
891.151	-11.78
891.323	18.94
891.494	80.38
891.665	41.47
891.836	2.56
892.007	57.86
892.178	86.53
892.349	14.85
892.52	43.52
892.691	102.91
892.862	12.8
893.032	-30.21
893.203	57.86
893.374	-36.35
893.545	-5.63
893.716	55.81
893.887	74.24
894.057	-11.78
894.228	70.14
894.399	29.18
894.57	59.9
894.74	14.85
894.911	86.53
895.082	23.04
895.253	0.51
895.423	-13.82
895.594	10.75
895.764	2.56
895.935	68.09
896.106	45.57
896.276	-19.97
896.447	27.14
896.617	-13.82
896.788	27.14
896.958	-48.64
897.129	37.38
897.299	4.61
897.47	25.09
897.64	14.85
897.81	29.18
897.981	6.66
898.151	-3.58
898.322	-9.73
898.492	-3.58
898.662	-7.68
898.832	-36.35
899.003	20.99
899.173	64
899.343	20.99
899.513	-19.97
