Data from USB4F104151__143__11-08-11-631.txt Node

Date: Wed Mar 12 11:08:11 EDT 2025
User: louis
Spectrometer: USB4F10415
Trigger mode: 4
Integration Time (sec): 2.000000E-2
Scans to average: 1
Electric dark correction enabled: true
Nonlinearity correction enabled: false
Boxcar width: 0
XAxis mode: Wavelengths
Number of Pixels in Spectrum: 3648
>>>>>Begin Spectral Data<<<<<
178.204	-80.55
178.424	-80.55
178.644	-80.55
178.864	-70.31
179.084	7.51
179.304	30.04
179.524	-33.45
179.744	-37.55
179.964	21.85
180.184	19.8
180.404	32.08
180.624	19.8
180.844	-15.02
181.064	-21.16
181.283	-37.55
181.503	32.08
181.723	-10.92
181.943	-21.16
182.163	19.8
182.383	-2.73
182.602	71
182.822	25.94
183.042	23.89
183.262	17.75
183.482	52.56
183.701	60.76
183.921	17.75
184.141	-17.07
184.361	38.23
184.58	-23.21
184.8	34.13
185.02	-25.26
185.239	-10.92
185.459	54.61
185.679	79.19
185.898	-35.5
186.118	21.85
186.338	21.85
186.557	103.76
186.777	19.8
186.997	64.85
187.216	21.85
187.436	-4.78
187.655	21.85
187.875	34.13
188.095	13.65
188.314	138.58
188.534	7.51
188.753	-47.79
188.973	38.23
189.192	97.62
189.412	5.46
189.631	-25.26
189.851	48.47
190.07	54.61
190.29	122.2
190.509	5.46
190.729	54.61
190.948	87.38
191.168	75.09
191.387	27.99
191.607	54.61
191.826	77.14
192.045	56.66
192.265	58.71
192.484	52.56
192.704	7.51
192.923	13.65
193.142	73.04
193.362	56.66
193.581	-43.69
193.8	79.19
194.02	91.48
194.239	-0.68
194.458	93.52
194.678	81.24
194.897	42.32
195.116	36.18
195.335	60.76
195.555	87.38
195.774	68.95
195.993	54.61
196.212	48.47
196.432	-0.68
196.651	-55.98
196.87	15.7
197.089	109.91
197.308	11.61
197.528	99.67
197.747	13.65
197.966	7.51
198.185	-8.87
198.404	36.18
198.623	19.8
198.842	71
199.062	40.28
199.281	66.9
199.5	77.14
199.719	89.43
199.938	32.08
200.157	62.8
200.376	91.48
200.595	13.65
200.814	9.56
201.033	-45.74
201.252	75.09
201.471	56.66
201.69	87.38
201.909	23.89
202.128	27.99
202.347	36.18
202.566	32.08
202.785	-0.68
203.004	-19.11
203.223	140.63
203.442	62.8
203.661	5.46
203.879	25.94
204.098	40.28
204.317	-25.26
204.536	32.08
204.755	-19.11
204.974	27.99
205.193	38.23
205.411	118.1
205.63	27.99
205.849	15.7
206.068	40.28
206.287	25.94
206.505	46.42
206.724	111.96
206.943	48.47
207.162	79.19
207.381	107.86
207.599	27.99
207.818	32.08
208.037	5.46
208.255	60.76
208.474	44.37
208.693	40.28
208.911	27.99
209.13	40.28
209.349	99.67
209.567	68.95
209.786	93.52
210.005	38.23
210.223	17.75
210.442	-27.31
210.661	93.52
210.879	-0.68
211.098	3.41
211.316	105.81
211.535	15.7
211.753	44.37
211.972	1.37
212.191	68.95
212.409	46.42
212.628	85.33
212.846	-6.83
213.065	85.33
213.283	75.09
213.502	-43.69
213.72	-6.83
213.938	11.61
214.157	44.37
214.375	52.56
214.594	-17.07
214.812	21.85
215.031	68.95
215.249	85.33
215.467	40.28
215.686	-12.97
215.904	66.9
216.122	68.95
216.341	11.61
216.559	19.8
216.778	77.14
216.996	30.04
217.214	40.28
217.432	36.18
217.651	34.13
217.869	11.61
218.087	52.56
218.306	36.18
218.524	126.29
218.742	-37.55
218.96	105.81
219.179	52.56
219.397	21.85
219.615	93.52
219.833	83.28
220.051	-31.4
220.27	75.09
220.488	25.94
220.706	30.04
220.924	-10.92
221.142	38.23
221.36	-29.35
221.578	126.29
221.796	-45.74
222.015	34.13
222.233	77.14
222.451	56.66
222.669	62.8
222.887	62.8
223.105	-2.73
223.323	-10.92
223.541	64.85
223.759	-10.92
223.977	-49.83
224.195	62.8
224.413	46.42
224.631	38.23
224.849	-12.97
225.067	105.81
225.285	109.91
225.503	5.46
225.721	-70.31
225.939	30.04
226.157	77.14
226.375	111.96
226.592	36.18
226.81	105.81
227.028	60.76
227.246	91.48
227.464	58.71
227.682	32.08
227.9	17.75
228.117	73.04
228.335	54.61
228.553	19.8
228.771	-4.78
228.989	46.42
229.206	7.51
229.424	11.61
229.642	64.85
229.86	73.04
230.077	44.37
230.295	52.56
230.513	71
230.731	66.9
230.948	171.35
231.166	138.58
231.384	9.56
231.601	54.61
231.819	66.9
232.037	-0.68
232.254	44.37
232.472	77.14
232.689	120.15
232.907	81.24
233.125	27.99
233.342	-21.16
233.56	38.23
233.777	27.99
233.995	11.61
234.213	34.13
234.43	-4.78
234.648	42.32
234.865	97.62
235.083	42.32
235.3	56.66
235.518	38.23
235.735	34.13
235.953	66.9
236.17	56.66
236.388	85.33
236.605	-12.97
236.822	54.61
237.04	107.86
237.257	81.24
237.475	60.76
237.692	52.56
237.909	32.08
238.127	103.76
238.344	50.52
238.562	38.23
238.779	-21.16
238.996	-19.11
239.214	107.86
239.431	9.56
239.648	3.41
239.865	79.19
240.083	75.09
240.3	-17.07
240.517	-6.83
240.735	60.76
240.952	40.28
241.169	58.71
241.386	73.04
241.603	99.67
241.821	56.66
242.038	56.66
242.255	93.52
242.472	30.04
242.689	77.14
242.907	54.61
243.124	7.51
243.341	58.71
243.558	60.76
243.775	-41.64
243.992	-15.02
244.209	40.28
244.426	-2.73
244.643	13.65
244.86	114
245.078	75.09
245.295	-43.69
245.512	-25.26
245.729	30.04
245.946	81.24
246.163	21.85
246.38	48.47
246.597	58.71
246.814	17.75
247.031	50.52
247.248	25.94
247.464	30.04
247.681	71
247.898	-29.35
248.115	97.62
248.332	-15.02
248.549	101.72
248.766	-12.97
248.983	34.13
249.2	30.04
249.417	52.56
249.633	46.42
249.85	11.61
250.067	30.04
250.284	21.85
250.501	50.52
250.717	91.48
250.934	9.56
251.151	77.14
251.368	56.66
251.585	62.8
251.801	15.7
252.018	21.85
252.235	-15.02
252.451	38.23
252.668	-8.87
252.885	5.46
253.102	114
253.318	54.61
253.535	56.66
253.752	118.1
253.968	48.47
254.185	-2.73
254.401	21.85
254.618	71
254.835	30.04
255.051	101.72
255.268	64.85
255.484	64.85
255.701	9.56
255.917	13.65
256.134	42.32
256.351	32.08
256.567	7.51
256.784	85.33
257	-4.78
257.217	1.37
257.433	97.62
257.65	87.38
257.866	1.37
258.082	56.66
258.299	79.19
258.515	13.65
258.732	19.8
258.948	-41.64
259.165	-21.16
259.381	21.85
259.597	140.63
259.814	7.51
260.03	81.24
260.246	25.94
260.463	64.85
260.679	15.7
260.895	9.56
261.112	-15.02
261.328	71
261.544	15.7
261.761	99.67
261.977	93.52
262.193	-27.31
262.409	27.99
262.626	85.33
262.842	25.94
263.058	-25.26
263.274	48.47
263.49	81.24
263.707	142.68
263.923	-0.68
264.139	30.04
264.355	89.43
264.571	50.52
264.787	25.94
265.004	93.52
265.22	40.28
265.436	48.47
265.652	79.19
265.868	83.28
266.084	77.14
266.3	81.24
266.516	15.7
266.732	79.19
266.948	54.61
267.164	77.14
267.38	79.19
267.596	46.42
267.812	58.71
268.028	66.9
268.244	79.19
268.46	68.95
268.676	120.15
268.892	95.57
269.108	27.99
269.324	60.76
269.54	-2.73
269.756	34.13
269.972	-0.68
270.188	-64.17
270.403	44.37
270.619	48.47
270.835	48.47
271.051	36.18
271.267	111.96
271.483	9.56
271.698	19.8
271.914	36.18
272.13	68.95
272.346	77.14
272.562	21.85
272.777	46.42
272.993	114
273.209	-0.68
273.425	7.51
273.64	19.8
273.856	-15.02
274.072	36.18
274.287	52.56
274.503	15.7
274.719	71
274.934	36.18
275.15	30.04
275.366	23.89
275.581	73.04
275.797	11.61
276.012	-4.78
276.228	27.99
276.444	71
276.659	71
276.875	54.61
277.09	19.8
277.306	54.61
277.521	60.76
277.737	-2.73
277.952	56.66
278.168	109.91
278.383	46.42
278.599	89.43
278.814	-10.92
279.03	46.42
279.245	58.71
279.461	89.43
279.676	93.52
279.892	-19.11
280.107	77.14
280.322	93.52
280.538	50.52
280.753	114
280.969	68.95
281.184	40.28
281.399	23.89
281.615	5.46
281.83	60.76
282.045	-10.92
282.26	64.85
282.476	89.43
282.691	42.32
282.906	50.52
283.122	77.14
283.337	25.94
283.552	-17.07
283.767	23.89
283.983	32.08
284.198	40.28
284.413	19.8
284.628	44.37
284.843	52.56
285.058	-19.11
285.274	38.23
285.489	34.13
285.704	17.75
285.919	9.56
286.134	38.23
286.349	5.46
286.564	81.24
286.779	93.52
286.995	66.9
287.21	15.7
287.425	114
287.64	32.08
287.855	23.89
288.07	-37.55
288.285	109.91
288.5	58.71
288.715	99.67
288.93	85.33
289.145	81.24
289.36	79.19
289.575	-10.92
289.79	77.14
290.004	27.99
290.219	64.85
290.434	30.04
290.649	73.04
290.864	19.8
291.079	75.09
291.294	81.24
291.509	-12.97
291.724	23.89
291.938	116.05
292.153	52.56
292.368	-4.78
292.583	5.46
292.798	-0.68
293.012	81.24
293.227	130.39
293.442	60.76
293.657	79.19
293.871	25.94
294.086	27.99
294.301	36.18
294.516	105.81
294.73	71
294.945	66.9
295.16	19.8
295.374	36.18
295.589	-0.68
295.804	-31.4
296.018	42.32
296.233	77.14
296.447	32.08
296.662	21.85
296.877	132.44
297.091	23.89
297.306	66.9
297.52	79.19
297.735	85.33
297.949	-43.69
298.164	75.09
298.378	11.61
298.593	68.95
298.807	3.41
299.022	95.57
299.236	73.04
299.451	75.09
299.665	54.61
299.88	-8.87
300.094	36.18
300.309	66.9
300.523	64.85
300.737	60.76
300.952	48.47
301.166	54.61
301.381	-27.31
301.595	87.38
301.809	-23.21
302.024	-8.87
302.238	30.04
302.452	46.42
302.667	3.41
302.881	56.66
303.095	27.99
303.309	66.9
303.524	50.52
303.738	83.28
303.952	68.95
304.166	50.52
304.381	73.04
304.595	134.48
304.809	40.28
305.023	73.04
305.237	32.08
305.452	44.37
305.666	97.62
305.88	21.85
306.094	32.08
306.308	36.18
306.522	23.89
306.736	56.66
306.95	1.37
307.164	-27.31
307.379	48.47
307.593	19.8
307.807	48.47
308.021	103.76
308.235	1.37
308.449	13.65
308.663	73.04
308.877	-4.78
309.091	68.95
309.305	27.99
309.519	1.37
309.733	62.8
309.947	32.08
310.161	54.61
310.374	64.85
310.588	64.85
310.802	1.37
311.016	60.76
311.23	27.99
311.444	17.75
311.658	54.61
311.872	60.76
312.085	111.96
312.299	93.52
312.513	68.95
312.727	40.28
312.941	40.28
313.154	-2.73
313.368	13.65
313.582	48.47
313.796	-19.11
314.009	48.47
314.223	103.76
314.437	58.71
314.651	19.8
314.864	58.71
315.078	64.85
315.292	142.68
315.505	71
315.719	23.89
315.933	83.28
316.146	83.28
316.36	-31.4
316.573	130.39
316.787	30.04
317.001	5.46
317.214	81.24
317.428	46.42
317.641	81.24
317.855	36.18
318.068	66.9
318.282	46.42
318.495	46.42
318.709	87.38
318.922	62.8
319.136	81.24
319.349	77.14
319.563	66.9
319.776	17.75
319.99	-47.79
320.203	91.48
320.417	32.08
320.63	60.76
320.843	11.61
321.057	60.76
321.27	81.24
321.483	54.61
321.697	87.38
321.91	99.67
322.124	64.85
322.337	46.42
322.55	-23.21
322.763	11.61
322.977	64.85
323.19	44.37
323.403	38.23
323.617	40.28
323.83	36.18
324.043	97.62
324.256	15.7
324.469	48.47
324.683	34.13
324.896	36.18
325.109	101.72
325.322	-33.45
325.535	107.86
325.748	48.47
325.962	52.56
326.175	38.23
326.388	77.14
326.601	97.62
326.814	64.85
327.027	50.52
327.24	79.19
327.453	-49.83
327.666	52.56
327.879	-8.87
328.092	105.81
328.305	71
328.518	128.34
328.731	56.66
328.944	38.23
329.157	66.9
329.37	40.28
329.583	38.23
329.796	66.9
330.009	36.18
330.222	120.15
330.435	38.23
330.648	105.81
330.861	19.8
331.073	27.99
331.286	38.23
331.499	95.57
331.712	-23.21
331.925	9.56
332.138	89.43
332.35	21.85
332.563	54.61
332.776	93.52
332.989	17.75
333.202	60.76
333.414	46.42
333.627	107.86
333.84	73.04
334.053	52.56
334.265	-35.5
334.478	-62.12
334.691	58.71
334.903	83.28
335.116	25.94
335.329	60.76
335.541	44.37
335.754	122.2
335.966	44.37
336.179	64.85
336.392	81.24
336.604	-39.59
336.817	56.66
337.029	23.89
337.242	34.13
337.454	105.81
337.667	-4.78
337.88	60.76
338.092	48.47
338.305	58.71
338.517	81.24
338.729	54.61
338.942	99.67
339.154	3.41
339.367	54.61
339.579	7.51
339.792	68.95
340.004	52.56
340.217	73.04
340.429	32.08
340.641	-45.74
340.854	40.28
341.066	-33.45
341.278	81.24
341.491	120.15
341.703	21.85
341.915	71
342.128	-0.68
342.34	17.75
342.552	13.65
342.764	-17.07
342.977	27.99
343.189	-4.78
343.401	44.37
343.613	27.99
343.826	152.91
344.038	93.52
344.25	68.95
344.462	-8.87
344.674	105.81
344.886	-64.17
345.099	21.85
345.311	46.42
345.523	85.33
345.735	40.28
345.947	77.14
346.159	122.2
346.371	40.28
346.583	-6.83
346.795	68.95
347.007	60.76
347.219	38.23
347.431	19.8
347.643	83.28
347.855	5.46
348.067	71
348.279	-12.97
348.491	89.43
348.703	83.28
348.915	71
349.127	46.42
349.339	60.76
349.551	68.95
349.763	114
349.975	101.72
350.187	36.18
350.399	77.14
350.61	60.76
350.822	93.52
351.034	83.28
351.246	46.42
351.458	52.56
351.669	81.24
351.881	71
352.093	46.42
352.305	97.62
352.517	-62.12
352.728	103.76
352.94	54.61
353.152	11.61
353.363	58.71
353.575	44.37
353.787	122.2
353.999	5.46
354.21	81.24
354.422	62.8
354.633	-8.87
354.845	-10.92
355.057	44.37
355.268	-12.97
355.48	97.62
355.692	23.89
355.903	85.33
356.115	50.52
356.326	52.56
356.538	48.47
356.749	126.29
356.961	46.42
357.172	34.13
357.384	46.42
357.595	50.52
357.807	91.48
358.018	73.04
358.23	66.9
358.441	87.38
358.653	66.9
358.864	64.85
359.075	89.43
359.287	64.85
359.498	48.47
359.709	105.81
359.921	85.33
360.132	93.52
360.344	79.19
360.555	-10.92
360.766	101.72
360.977	-10.92
361.189	189.78
361.4	-6.83
361.611	81.24
361.823	-8.87
362.034	50.52
362.245	3.41
362.456	-25.26
362.667	58.71
362.879	81.24
363.09	64.85
363.301	1.37
363.512	3.41
363.723	60.76
363.935	81.24
364.146	60.76
364.357	75.09
364.568	64.85
364.779	64.85
364.99	99.67
365.201	50.52
365.412	71
365.623	60.76
365.834	101.72
366.045	68.95
366.256	19.8
366.467	21.85
366.678	48.47
366.889	15.7
367.1	87.38
367.311	85.33
367.522	44.37
367.733	120.15
367.944	3.41
368.155	68.95
368.366	17.75
368.577	68.95
368.788	68.95
368.999	23.89
369.209	50.52
369.42	58.71
369.631	93.52
369.842	89.43
370.053	30.04
370.264	83.28
370.474	68.95
370.685	58.71
370.896	58.71
371.107	89.43
371.317	50.52
371.528	66.9
371.739	7.51
371.95	9.56
372.16	48.47
372.371	-64.17
372.582	-21.16
372.792	91.48
373.003	85.33
373.214	89.43
373.424	163.15
373.635	77.14
373.846	64.85
374.056	19.8
374.267	75.09
374.477	71
374.688	30.04
374.898	23.89
375.109	93.52
375.319	38.23
375.53	105.81
375.74	122.2
375.951	95.57
376.161	21.85
376.372	95.57
376.582	91.48
376.793	142.68
377.003	36.18
377.214	64.85
377.424	99.67
377.635	19.8
377.845	79.19
378.055	109.91
378.266	23.89
378.476	77.14
378.686	73.04
378.897	81.24
379.107	64.85
379.317	79.19
379.528	81.24
379.738	99.67
379.948	-45.74
380.158	42.32
380.369	77.14
380.579	3.41
380.789	30.04
380.999	71
381.21	-0.68
381.42	126.29
381.63	77.14
381.84	89.43
382.05	93.52
382.261	60.76
382.471	77.14
382.681	66.9
382.891	101.72
383.101	-35.5
383.311	157.01
383.521	44.37
383.731	50.52
383.941	42.32
384.151	42.32
384.361	66.9
384.571	163.15
384.781	109.91
384.991	134.48
385.201	56.66
385.411	68.95
385.621	89.43
385.831	97.62
386.041	32.08
386.251	32.08
386.461	13.65
386.671	-4.78
386.881	83.28
387.091	32.08
387.301	91.48
387.511	99.67
387.72	75.09
387.93	38.23
388.14	36.18
388.35	97.62
388.56	77.14
388.769	25.94
388.979	93.52
389.189	-21.16
389.399	81.24
389.609	81.24
389.818	118.1
390.028	97.62
390.238	109.91
390.447	32.08
390.657	17.75
390.867	30.04
391.076	95.57
391.286	-17.07
391.496	105.81
391.705	62.8
391.915	52.56
392.125	64.85
392.334	118.1
392.544	91.48
392.753	40.28
392.963	89.43
393.172	79.19
393.382	130.39
393.591	77.14
393.801	56.66
394.01	60.76
394.22	52.56
394.429	38.23
394.639	120.15
394.848	99.67
395.058	144.72
395.267	122.2
395.477	89.43
395.686	134.48
395.895	66.9
396.105	152.91
396.314	66.9
396.524	159.06
396.733	60.76
396.942	48.47
397.152	101.72
397.361	91.48
397.57	122.2
397.78	138.58
397.989	138.58
398.198	124.24
398.407	144.72
398.617	66.9
398.826	118.1
399.035	128.34
399.244	42.32
399.453	107.86
399.663	107.86
399.872	111.96
400.081	87.38
400.29	148.82
400.499	152.91
400.708	150.87
400.917	99.67
401.127	109.91
401.336	93.52
401.545	124.24
401.754	132.44
401.963	197.97
402.172	109.91
402.381	107.86
402.59	136.53
402.799	146.77
403.008	114
403.217	109.91
403.426	177.49
403.635	105.81
403.844	171.35
404.053	165.2
404.262	179.54
404.471	181.59
404.68	134.48
404.888	126.29
405.097	222.55
405.306	152.91
405.515	163.15
405.724	165.2
405.933	183.63
406.142	220.5
406.35	171.35
406.559	161.11
406.768	136.53
406.977	152.91
407.185	189.78
407.394	193.87
407.603	142.68
407.812	236.88
408.02	245.07
408.229	212.31
408.438	189.78
408.646	206.16
408.855	187.73
409.064	271.7
409.272	230.74
409.481	240.98
409.69	230.74
409.898	238.93
410.107	253.27
410.315	413.01
410.524	374.1
410.733	400.72
410.941	316.75
411.15	277.84
411.358	271.7
411.567	423.25
411.775	427.34
411.984	372.05
412.192	425.29
412.401	402.77
412.609	453.97
412.818	415.06
413.026	437.58
413.234	525.65
413.443	521.55
413.651	494.93
413.86	607.56
414.068	570.7
414.276	595.28
414.485	605.52
414.693	572.75
414.901	742.73
415.11	673.1
415.318	681.29
415.526	654.67
415.734	683.34
415.943	720.2
416.151	761.16
416.359	697.67
416.567	722.25
416.776	783.69
416.984	834.89
417.192	922.95
417.4	951.62
417.608	890.18
417.817	920.9
418.025	1062.21
418.233	1115.46
418.441	1090.88
418.649	1115.46
418.857	1099.08
419.065	1203.52
419.273	1187.14
419.481	1238.34
419.689	1312.07
419.897	1324.35
420.105	1369.41
420.313	1402.18
420.521	1396.03
420.729	1492.29
420.937	1592.64
421.145	1549.63
421.353	1627.45
421.561	1717.56
421.769	1865.02
421.977	1846.59
422.185	1854.78
422.393	2002.23
422.601	2080.05
422.809	2114.87
423.017	2262.32
423.224	2243.89
423.432	2295.09
423.64	2233.65
423.848	2485.55
424.056	2426.16
424.263	2624.81
424.471	2536.75
424.679	2692.4
424.887	2899.24
425.094	2866.47
425.302	3032.36
425.51	3038.5
425.718	3108.13
425.925	3192.1
426.133	3433.76
426.341	3458.34
426.548	3591.45
426.756	3575.07
426.964	3593.5
427.171	3890.46
427.379	3970.33
427.586	4046.1
427.794	4068.63
428.001	4345.11
428.209	4386.07
428.417	4410.64
428.624	4748.56
428.832	4853
429.039	4801.8
429.247	4750.6
429.454	5143.81
429.662	5510.4
429.869	5332.23
430.076	5553.41
430.284	5307.65
430.491	5664
430.699	5885.18
430.906	5825.79
431.114	6089.98
431.321	6262.01
431.528	6429.94
431.736	6829.29
431.943	7101.67
432.15	7050.47
432.358	6946.03
432.565	7427.3
432.772	7281.89
432.979	7726.3
433.187	7818.46
433.394	7795.93
433.601	8402.13
433.808	8373.46
434.016	8230.1
434.223	8676.56
434.43	9383.11
434.637	8998.09
434.844	9622.72
435.052	9747.65
435.259	9663.68
435.466	9696.45
435.673	9819.33
435.88	10450.1
436.087	11019.44
436.294	10720.43
436.501	10529.97
436.708	10728.63
436.915	11355.3
437.122	11805.86
437.329	11728.03
437.537	11963.55
437.743	12416.15
437.95	12131.48
438.157	12694.68
438.364	13319.31
438.571	13155.47
438.778	13526.15
438.985	14679.16
439.192	14003.33
439.399	14259.32
439.606	14017.66
439.813	14865.52
440.02	15805.54
440.227	15590.5
440.433	15162.48
440.64	15930.47
440.847	15500.39
441.054	15875.17
441.261	17421.39
441.467	17050.71
441.674	17415.24
441.881	17779.78
442.088	17890.37
442.294	17318.99
442.501	18369.6
442.708	18529.34
442.914	19418.16
443.121	20042.79
443.328	19295.28
443.534	21150.74
443.741	20327.46
443.948	20130.85
444.154	21509.13
444.361	21312.53
444.568	21541.9
444.774	21527.56
444.981	21969.93
445.187	22406.14
445.394	23372.78
445.6	23211
445.807	25334.74
446.013	24030.18
446.22	24646.62
446.426	25725.9
446.633	25795.53
446.839	26782.65
447.046	25525.2
447.252	27038.65
447.459	26948.54
447.665	26813.37
447.871	28107.69
448.078	29150.1
448.284	27694
448.491	28582.82
448.697	29758.35
448.903	30339.97
449.11	30241.67
449.316	29817.74
449.522	30217.1
449.728	30868.35
449.935	31089.53
450.141	30909.31
450.347	31986.54
450.553	30878.59
450.76	31482.74
450.966	32234.35
451.172	31738.74
451.378	32287.59
451.584	31994.73
451.791	32519.01
451.997	32734.05
452.203	33084.25
452.409	33256.28
452.615	33317.72
452.821	31912.81
453.027	31306.62
453.233	33022.81
453.44	31277.94
453.646	32195.43
453.852	31834.99
454.058	32588.64
454.264	31531.89
454.47	32062.32
454.676	31548.28
454.882	32705.38
455.088	29746.06
455.294	30120.84
455.5	30258.06
455.705	30796.67
455.911	29381.52
456.117	28726.17
456.323	28427.17
456.529	26862.52
456.735	28564.39
456.941	27503.54
457.147	27046.84
457.352	26145.73
457.558	25981.9
457.764	26168.26
457.97	25324.5
458.176	25238.48
458.381	24800.22
458.587	23571.44
458.793	24093.67
458.999	22512.64
459.204	23899.11
459.41	23444.46
459.616	22107.14
459.821	21863.43
460.027	21779.47
460.233	21437.45
460.438	20309.02
460.644	20694.04
460.85	19641.39
461.055	19348.53
461.261	18965.56
461.466	17775.69
461.672	17278.03
461.878	18646.07
462.083	17364.04
462.289	17030.23
462.494	16811.09
462.7	16237.66
462.905	15424.62
463.111	16276.57
463.316	16270.43
463.522	16028.77
463.727	15955.04
463.932	15828.07
464.138	16002.15
464.343	16086.11
464.549	15408.23
464.754	15803.49
464.959	15815.78
465.165	15524.97
465.37	15322.22
465.575	14472.31
465.781	14974.06
465.986	15180.91
466.191	14998.64
466.397	14425.21
466.602	13474.95
466.807	13954.18
467.012	14347.39
467.218	14234.75
467.423	13855.87
467.628	14115.97
467.833	14556.28
468.038	14279.8
468.244	13640.84
468.449	14191.74
468.654	13733
468.859	13776
469.064	13724.8
469.269	13212.81
469.474	13286.54
469.679	13456.52
469.885	12973.2
470.09	13274.25
470.295	13313.16
470.5	12778.64
470.705	12946.58
470.91	12840.08
471.115	12487.83
471.32	12506.26
471.525	12416.15
471.73	12127.39
471.935	12311.71
472.139	11820.19
472.344	11846.82
472.549	12022.94
472.754	11711.65
472.959	11527.33
473.164	10986.67
473.369	11160.75
473.574	11539.62
473.778	11529.38
473.983	11213.99
474.188	11490.47
474.393	10767.54
474.598	10654.9
474.802	10437.81
475.007	10691.76
475.212	10603.7
475.417	10441.91
475.621	10239.16
475.826	10271.93
476.031	10097.85
476.235	9866.43
476.44	10009.79
476.645	9768.13
476.849	9874.62
477.054	9784.51
477.259	9751.74
477.463	9581.76
477.668	9272.52
477.872	9632.96
478.077	9247.94
478.282	9028.81
478.486	8959.18
478.691	9006.28
478.895	8846.54
479.1	8842.45
479.304	8971.47
479.509	8756.43
479.713	8727.76
479.918	8752.34
480.122	8379.61
480.326	8522.96
480.531	8496.34
480.735	8488.15
480.94	8553.68
481.144	8764.62
481.348	8346.84
481.553	8539.35
481.757	8301.78
481.961	8453.33
482.166	8451.28
482.37	8375.51
482.574	8223.96
482.778	8256.73
482.983	8400.09
483.187	8293.59
483.391	8312.02
483.595	8498.39
483.8	8162.52
484.004	8244.44
484.208	8412.37
484.412	8168.66
484.616	8334.55
484.821	8285.4
485.025	8301.78
485.229	8248.54
485.433	8160.47
485.637	8144.09
485.841	8139.99
486.045	8074.46
486.249	8189.14
486.453	8027.35
486.657	8027.35
486.861	8373.46
487.065	8160.47
487.269	8183
487.473	7984.35
487.677	8166.62
487.881	8254.68
488.085	8316.12
488.289	8117.47
488.493	8217.82
488.697	8412.37
488.901	8154.33
489.105	8226.01
489.309	8215.77
489.512	8387.8
489.716	8236.25
489.92	8381.65
490.124	8201.43
490.328	8428.76
490.531	8371.41
490.735	8408.28
490.939	8643.79
491.143	8473.81
491.346	8459.48
491.55	8660.18
491.754	8498.39
491.958	8660.18
492.161	8666.32
492.365	8768.72
492.569	8879.31
492.772	8572.11
492.976	8903.89
493.18	8867.02
493.383	8920.27
493.587	9057.48
493.79	9161.93
493.994	8987.85
494.197	8987.85
494.401	9217.22
494.605	9303.24
494.808	9397.45
495.012	9342.15
495.215	9372.87
495.419	9383.11
495.622	9376.97
495.825	9551.04
496.029	9563.33
496.232	9731.26
496.436	9657.54
496.639	10005.69
496.843	10075.32
497.046	10206.39
497.249	10310.84
497.453	10355.9
497.656	10468.53
497.859	10630.32
498.063	10622.13
498.266	10736.82
498.469	10687.67
498.673	10849.46
498.876	10939.57
499.079	11121.84
499.282	10958
499.485	11232.43
499.689	11318.44
499.892	11345.06
500.095	11615.4
500.298	11910.3
500.501	11902.11
500.705	12184.73
500.908	12133.53
501.111	12102.81
501.314	12360.86
501.517	12485.78
501.72	12563.61
501.923	12766.35
502.126	13311.11
502.329	13059.21
502.532	13319.31
502.735	13298.83
502.938	13714.56
503.141	13587.59
503.344	13972.61
503.547	13997.18
503.75	13929.6
503.953	14404.73
504.156	14523.51
504.359	14660.73
504.562	14558.33
504.765	14984.3
504.968	14867.57
505.17	15172.72
505.373	15344.75
505.576	15578.22
505.779	15664.23
505.982	15856.74
506.185	16000.1
506.387	16301.15
506.59	16282.72
506.793	16684.12
506.996	16514.14
507.198	17015.89
507.401	16981.07
507.604	16917.59
507.807	17556.55
508.009	17468.49
508.212	17542.22
508.415	17767.49
508.617	18189.38
508.82	18089.03
509.022	18320.45
509.225	18668.6
509.428	18730.04
509.63	18967.6
509.833	18940.98
510.035	19637.29
510.238	18963.51
510.44	19817.51
510.643	19885.09
510.845	20050.98
511.048	19848.23
511.25	20349.98
511.453	20145.19
511.655	21232.66
511.858	20964.37
512.06	21173.27
512.262	21337.1
512.465	21476.37
512.667	21474.32
512.87	21926.92
513.072	22168.58
513.274	22569.98
513.477	22758.39
513.679	22858.74
513.881	22998.01
514.084	23307.25
514.286	23264.24
514.488	23364.59
514.69	23989.22
514.893	24275.94
515.095	24288.23
515.297	24374.24
515.499	24689.63
515.701	25224.15
515.904	25261.01
516.106	25469.9
516.308	25899.98
516.51	26010.57
516.712	26094.54
516.914	26235.84
517.116	26837.95
517.318	26899.39
517.52	26747.84
517.722	27141.05
517.925	27483.06
518.127	27329.46
518.329	27837.36
518.531	28197.8
518.733	28453.8
518.935	28777.37
519.136	28814.24
519.338	29074.33
519.54	29039.51
519.742	29408.15
519.944	29227.93
520.146	30454.66
520.348	30313.35
520.55	30454.66
520.752	30747.52
520.954	30976.89
521.155	30946.17
521.357	31443.83
521.559	31472.5
521.761	31902.57
521.963	32060.27
522.164	31933.29
522.366	32412.52
522.568	32392.04
522.77	32840.54
522.971	33518.42
523.173	33065.82
523.375	33207.13
523.576	33252.19
523.778	33375.06
523.98	34071.37
524.181	33975.12
524.383	33874.77
524.584	34540.36
524.786	34685.76
524.988	34736.96
525.189	34982.72
525.391	35062.59
525.592	35289.91
525.794	35203.9
525.995	35371.83
526.197	35949.36
526.398	35627.83
526.6	36307.76
526.801	36201.26
527.003	36496.17
527.204	36209.45
527.406	37008.16
527.607	36762.4
527.808	37268.25
528.01	36535.08
528.211	36918.05
528.412	37397.27
528.614	37063.46
528.815	37204.77
529.016	37956.37
529.218	37188.38
529.419	37595.93
529.62	38077.2
529.822	37454.62
530.023	38122.26
530.224	38163.21
530.425	37810.96
530.626	37364.51
530.828	37055.26
531.029	38544.14
531.23	38308.62
531.431	38222.61
531.632	37929.75
531.833	38562.57
532.035	38148.88
532.236	38331.15
532.437	38765.32
532.638	38404.88
532.839	38624.01
533.04	38781.7
533.241	38159.12
533.442	39346.94
533.643	38908.68
533.844	38806.28
534.045	38669.06
534.246	38736.65
534.447	38949.63
534.648	38873.86
534.849	38937.35
535.05	38445.83
535.251	38976.26
535.451	38712.07
535.652	39232.25
535.853	39265.02
536.054	38806.28
536.255	39078.66
536.456	38802.18
536.657	39252.73
536.857	38951.68
537.058	38880
537.259	39162.62
537.46	39312.13
537.66	39248.64
537.861	38923.01
538.062	38986.5
538.263	38810.37
538.463	38716.17
538.664	39209.73
538.865	38820.61
539.065	39191.3
539.266	38740.74
539.466	39082.75
539.667	39066.37
539.868	39299.84
540.068	38996.74
540.269	38861.57
540.469	39133.95
540.67	38572.81
540.87	38734.6
541.071	39027.46
541.271	39117.57
541.472	38867.72
541.672	38523.66
541.873	38669.06
542.073	38189.84
542.274	39199.49
542.474	38650.63
542.675	38671.11
542.875	39049.99
543.075	38693.64
543.276	38142.74
543.476	39250.69
543.676	39062.27
543.877	38847.24
544.077	38673.16
544.277	38634.25
544.478	38357.77
544.678	38826.76
544.878	38740.74
545.078	39039.75
545.279	38552.33
545.479	38730.5
545.679	38773.51
545.879	38609.67
546.079	38556.42
546.28	38460.17
546.48	38118.16
546.68	38947.59
546.88	38886.15
547.08	38773.51
547.28	38200.08
547.48	38458.12
547.68	38458.12
547.88	38408.97
548.081	38552.33
548.281	38955.78
548.481	38466.31
548.681	38617.86
548.881	38679.3
549.081	38277.9
549.28	38355.72
549.48	38314.76
549.68	38454.03
549.88	38892.29
550.08	38204.17
550.28	38298.38
550.48	37878.55
550.68	38593.29
550.88	38363.92
551.08	38216.46
551.279	38175.5
551.479	38017.81
551.679	38243.09
551.879	38370.06
552.079	38677.26
552.278	38245.13
552.478	37874.45
552.678	38183.69
552.878	38400.78
553.077	37874.45
553.277	37612.31
553.477	38124.3
553.676	38091.54
553.876	38144.78
554.076	38032.14
554.275	38099.73
554.475	37417.75
554.674	38116.11
554.874	38155.02
555.074	37675.8
555.273	37604.12
555.473	37888.79
555.672	37970.71
555.872	37876.5
556.071	37745.43
556.271	37937.94
556.47	37630.74
556.67	37188.38
556.869	37227.29
557.068	37432.09
557.268	37507.86
557.467	37303.07
557.667	37464.86
557.866	37487.39
558.065	37495.58
558.265	37258.01
558.464	37055.26
558.663	37321.5
558.863	36977.44
559.062	37362.46
559.261	36895.52
559.461	37427.99
559.66	36823.84
559.859	37014.3
560.058	36551.46
560.258	36455.21
560.457	36463.4
560.656	36557.61
560.855	36510.5
561.054	36746.02
561.253	36182.83
561.453	36315.95
561.652	36377.39
561.851	36514.6
562.05	36193.07
562.249	35877.68
562.448	36139.82
562.647	36324.14
562.846	35967.79
563.045	35681.08
563.244	35691.32
563.443	35959.6
563.642	34997.06
563.841	35300.15
564.04	35308.35
564.239	35750.71
564.438	35363.64
564.637	35529.53
564.836	35246.91
565.035	34702.15
565.234	35214.14
565.432	35111.74
565.631	34906.94
565.83	34915.14
566.029	34579.27
566.228	34847.55
566.427	34782.02
566.625	34284.36
566.824	34368.33
567.023	35003.2
567.222	33637.2
567.42	34407.24
567.619	34323.27
567.818	34110.28
568.016	33925.97
568.215	34507.59
568.414	33893.2
568.612	34343.75
568.811	33411.93
569.01	33893.2
569.208	33250.14
569.407	33741.65
569.605	33463.13
569.804	33780.56
570.002	33188.7
570.201	33317.72
570.4	33000.29
570.598	32858.98
570.797	32904.03
570.995	32957.28
571.193	32562.02
571.392	33313.62
571.59	32463.72
571.789	32502.63
571.987	32465.77
572.186	32484.2
572.384	32205.67
572.582	32674.66
572.781	32734.05
572.979	32086.89
573.177	32328.55
573.376	32033.64
573.574	31892.33
573.772	32408.42
573.971	31515.51
574.169	31851.38
574.367	31556.47
574.565	31781.74
574.763	31654.77
574.962	31449.97
575.16	30712.7
575.358	31435.64
575.556	30671.75
575.754	31177.59
575.952	30710.66
576.151	31456.12
576.349	30491.52
576.547	30530.44
576.745	30864.25
576.943	30583.68
577.141	30538.63
577.339	30759.81
577.537	30032.78
577.735	30047.11
577.933	29911.95
578.131	30339.97
578.329	29940.62
578.527	29692.82
578.725	30184.33
578.923	29959.05
579.121	29707.15
579.319	29563.79
579.516	29746.06
579.714	29418.39
579.912	29385.62
580.11	29483.92
580.308	29176.73
580.506	29076.38
580.704	28664.74
580.901	29008.79
581.099	29301.65
581.297	28752.8
581.495	28697.5
581.692	28851.1
581.89	28613.54
582.088	28875.68
582.285	28298.15
582.483	28767.13
582.681	28515.23
582.878	28181.42
583.076	28066.73
583.274	28249
583.471	27849.64
583.669	27937.71
583.866	27710.38
584.064	28093.35
584.262	27538.35
584.459	27923.37
584.657	27593.65
584.854	27696.05
585.052	27077.56
585.249	27521.97
585.447	27579.31
585.644	27173.81
585.841	27128.76
586.039	27249.59
586.236	26780.6
586.434	26944.44
586.631	27139
586.828	26741.69
587.026	27163.57
587.223	26313.67
587.42	26690.49
587.618	26573.76
587.815	26282.95
588.012	26373.06
588.21	26125.25
588.407	26440.64
588.604	26112.97
588.801	25934.79
588.999	26303.43
589.196	25836.49
589.393	25654.22
589.59	25940.94
589.787	25732.04
589.984	25543.63
590.182	25398.23
590.379	25570.26
590.576	25506.77
590.773	25205.72
590.97	25043.93
591.167	25420.75
591.364	25005.02
591.561	25170.9
591.758	24923.1
591.955	24953.82
592.152	24898.52
592.349	24675.29
592.546	24806.36
592.743	24978.39
592.94	24214.5
593.137	24562.65
593.334	24753.12
593.531	24386.53
593.727	24228.84
593.924	24351.71
594.121	23743.47
594.318	24294.37
594.515	23960.55
594.712	24359.91
594.908	23495.66
595.105	23675.88
595.302	23923.69
595.499	23722.99
595.696	23772.14
595.892	23485.42
596.089	23544.81
596.286	23479.28
596.482	23448.56
596.679	23145.46
596.876	23512.05
597.072	23456.75
597.269	23141.36
597.466	23081.97
597.662	22873.08
597.859	23092.21
598.055	22660.09
598.252	22664.19
598.448	22619.13
598.645	22019.08
598.841	22428.67
599.038	22404.1
599.234	22723.58
599.431	22184.96
599.627	22389.76
599.824	22340.61
600.02	22244.35
600.217	22096.9
600.413	21974.02
600.609	22045.7
600.806	21611.53
601.002	21908.49
601.198	21619.72
601.395	21740.55
601.591	21724.17
601.787	21629.96
601.984	21484.56
602.18	21353.49
602.376	21306.38
602.572	21089.3
602.769	21126.16
602.965	21050.39
603.161	21148.69
603.357	21048.34
603.553	21003.28
603.75	21072.92
603.946	20718.62
604.142	20837.4
604.338	20472.86
604.534	20718.62
604.73	20333.6
604.926	20579.36
605.122	20356.13
605.318	20343.84
605.514	20198.43
605.71	20569.12
605.906	19803.18
606.102	20237.34
606.298	20177.95
606.494	20180
606.69	20151.33
606.886	20005.92
607.082	19770.41
607.278	19999.78
607.474	19751.98
607.67	19997.73
607.866	19549.23
608.062	19786.79
608.257	19672.11
608.453	19586.09
608.649	19944.49
608.845	19223.6
609.041	19309.61
609.236	19328.05
609.432	19520.56
609.628	19026.99
609.824	19106.87
610.019	19235.89
610.215	19221.55
610.411	19407.92
610.606	18977.84
610.802	19239.98
610.998	19102.77
611.193	19078.19
611.389	19031.09
611.584	18957.36
611.78	18947.12
611.976	18807.86
612.171	18904.12
612.367	18598.97
612.562	18656.31
612.758	18400.32
612.953	18482.24
613.149	18854.97
613.344	18365.5
613.539	18707.51
613.735	18523.19
613.93	18603.07
614.126	18371.65
614.321	18648.12
614.517	18601.02
614.712	18316.35
614.907	18244.67
615.103	18392.12
615.298	18459.71
615.493	18410.56
615.688	17888.32
615.884	18203.71
616.079	17726.53
616.274	17925.19
616.47	18031.68
616.665	18168.9
616.86	17790.02
617.055	17775.69
617.25	17820.74
617.445	18039.87
617.641	17513.55
617.836	17579.08
618.031	17392.72
618.226	17716.29
618.421	17568.84
618.616	17652.81
618.811	17726.53
619.006	17597.51
619.201	16956.5
619.396	17341.52
619.591	17003.6
619.786	17249.36
619.981	16837.72
620.176	17173.58
620.371	16813.14
620.566	17106
620.761	16825.43
620.956	16942.16
621.151	16655.45
621.346	16571.48
621.541	16227.42
621.735	16534.62
621.93	16307.29
622.125	16368.73
622.32	16127.07
622.515	16014.43
622.709	15967.33
622.904	16155.74
623.099	15740.01
623.294	15725.67
623.488	15780.96
623.683	15629.41
623.878	15565.93
624.072	15684.71
624.267	15338.6
624.462	15287.4
624.656	15168.62
624.851	15275.12
625.046	15084.66
625.24	14996.59
625.435	14976.11
625.629	15033.46
625.824	14918.77
626.018	14838.9
626.213	14410.87
626.407	14439.55
626.602	14175.36
626.796	14623.86
626.991	14277.76
627.185	14066.81
627.38	14308.48
627.574	14015.62
627.768	13902.98
627.963	13857.92
628.157	13552.77
628.352	13833.35
628.546	13491.34
628.74	13900.93
628.935	13345.93
629.129	13513.86
629.323	13173.9
629.517	13440.14
629.712	13257.87
629.906	13071.5
630.1	12985.49
630.294	13010.06
630.489	12885.14
630.683	13085.84
630.877	12635.28
631.071	12655.76
631.265	12788.88
631.459	12530.84
631.653	12410.01
631.848	12381.34
632.042	12477.59
632.236	12442.78
632.43	12274.84
632.624	12500.12
632.818	12242.07
633.012	12174.49
633.206	11951.26
633.4	11975.84
633.594	11898.02
633.788	11869.34
633.982	11836.58
634.176	11850.91
634.369	11574.44
634.563	11635.88
634.757	11717.79
634.951	11689.12
635.145	11322.54
635.339	11320.49
635.533	11310.25
635.726	11392.17
635.92	11119.79
636.114	11295.91
636.308	11056.3
636.501	10972.33
636.695	10988.72
636.889	10775.73
637.083	10953.9
637.276	10871.98
637.47	10839.22
637.664	10714.29
637.857	10714.29
638.051	10869.94
638.244	10517.68
638.438	10609.84
638.632	10314.94
638.825	10411.19
639.019	10388.66
639.212	10144.95
639.406	10290.36
639.599	10095.8
639.793	10056.89
639.986	9977.02
640.18	10005.69
640.373	9872.57
640.567	9710.79
640.76	9970.88
640.954	9764.03
641.147	9710.79
641.34	9714.88
641.534	9667.78
641.727	9549
641.92	9397.45
642.114	9530.56
642.307	9532.61
642.5	9415.88
642.694	9317.58
642.887	9303.24
643.08	9385.16
643.273	9241.8
643.467	9290.95
643.66	9002.19
643.853	9100.49
644.046	8985.8
644.239	9053.39
644.432	8994
644.626	8721.62
644.819	9049.29
645.012	8781.01
645.205	8723.66
645.398	8586.45
645.591	8434.9
645.784	8733.9
645.977	8555.73
646.17	8643.79
646.363	8318.17
646.556	8309.97
646.749	8430.8
646.942	8516.82
647.135	8307.93
647.328	8342.74
647.521	8103.13
647.714	8127.71
647.907	8033.5
648.099	8094.94
648.292	8064.22
648.485	8027.35
648.678	7927
648.871	7832.8
649.064	7779.55
649.256	7929.05
649.449	7771.36
649.642	7890.14
649.835	7652.58
650.027	7595.23
650.22	7587.04
650.413	7445.73
650.605	7709.92
650.798	7560.42
650.991	7314.66
651.183	7191.78
651.376	7404.77
651.568	7288.04
651.761	7324.9
651.954	7302.37
652.146	7378.15
652.339	7232.74
652.531	7222.5
652.724	7146.73
652.916	6917.36
653.109	7095.53
653.301	6911.21
653.494	7009.51
653.686	6814.96
653.879	6946.03
654.071	6878.44
654.263	6964.46
654.456	6874.35
654.648	6829.29
654.84	6767.85
655.033	6708.46
655.225	6692.08
655.417	6470.9
655.61	6565.11
655.802	6599.92
655.994	6501.62
656.186	6558.96
656.379	6397.17
656.571	6370.55
656.763	6380.79
656.955	6440.18
657.148	6329.59
657.34	6331.64
657.532	6268.15
657.724	6366.45
657.916	6237.43
658.108	6264.05
658.3	6118.65
658.492	6065.4
658.684	5979.39
658.876	5856.51
659.068	5958.91
659.26	6028.54
659.452	5913.85
659.644	5823.74
659.836	5803.26
660.028	5944.57
660.22	5786.88
660.412	5711.1
660.604	5698.81
660.796	5541.12
660.988	5801.21
661.18	5627.14
661.372	5530.88
661.563	5643.52
661.755	5571.84
661.947	5573.89
662.139	5598.46
662.331	5551.36
662.522	5463.3
662.714	5426.43
662.906	5373.19
663.097	5233.93
663.289	5457.15
663.481	5295.36
663.673	5266.69
663.864	5213.45
664.056	5127.43
664.247	5274.88
664.439	5233.93
664.631	5252.36
664.822	5229.83
665.014	5082.38
665.205	5156.1
665.397	4994.31
665.588	4965.64
665.78	4965.64
665.971	5029.13
666.163	4967.69
666.354	4910.35
666.546	4885.77
666.737	4859.15
666.929	4928.78
667.12	4840.72
667.311	4807.95
667.503	4881.67
667.694	4707.6
667.885	4750.6
668.077	4664.59
668.268	4826.38
668.459	4775.18
668.651	4629.77
668.842	4676.88
669.033	4554
669.224	4615.44
669.416	4717.84
669.607	4668.69
669.798	4498.7
669.989	4492.56
670.18	4517.14
670.371	4635.92
670.563	4451.6
670.754	4465.94
670.945	4474.13
671.136	4353.3
671.327	4300.05
671.518	4277.52
671.709	4359.44
671.9	4427.03
672.091	4287.76
672.282	4168.98
672.473	4328.72
672.664	4261.14
672.855	4379.92
673.046	4386.07
673.237	4255
673.428	4281.62
673.619	4107.54
673.809	4142.36
674	4134.17
674.191	4154.65
674.382	4074.78
674.573	4023.58
674.764	3982.62
674.954	4101.4
675.145	4121.88
675.336	4017.43
675.527	4085.02
675.717	4046.1
675.908	4123.93
676.099	3933.47
676.289	4144.41
676.48	3994.9
676.671	3906.84
676.861	3902.75
677.052	3939.61
677.243	3878.17
677.433	3904.79
677.624	3726.62
677.814	3857.69
678.005	3730.72
678.195	3931.42
678.386	3790.11
678.576	3732.76
678.767	3728.67
678.957	3628.32
679.148	3683.61
679.338	3869.98
679.529	3747.1
679.719	3675.42
679.909	3794.2
680.1	3669.28
680.29	3704.09
680.481	3656.99
680.671	3636.51
680.861	3802.4
681.052	3759.39
681.242	3616.03
681.432	3783.96
681.622	3564.83
681.813	3581.21
682.003	3554.59
682.193	3624.22
682.383	3560.73
682.573	3568.93
682.764	3456.29
682.954	3548.45
683.144	3562.78
683.334	3654.94
683.524	3407.14
683.714	3616.03
683.904	3419.43
684.094	3652.89
684.284	3538.21
684.474	3441.95
684.664	3507.49
684.854	3444
685.044	3480.86
685.234	3292.45
685.424	3304.74
685.614	3427.62
685.804	3482.91
685.994	3300.64
686.184	3384.61
686.374	3382.56
686.564	3284.26
686.753	3284.26
686.943	3175.72
687.133	3304.74
687.323	3253.54
687.513	3185.96
687.702	3235.11
687.892	3327.27
688.082	3370.27
688.272	3253.54
688.461	3333.41
688.651	3235.11
688.841	3177.76
689.03	3233.06
689.22	3132.71
689.41	3140.9
689.599	3136.81
689.789	3237.16
689.979	3083.56
690.168	3136.81
690.358	3015.98
690.547	3011.88
690.737	3167.52
690.926	3108.13
691.116	2895.15
691.305	3091.75
691.495	2874.67
691.684	3030.31
691.874	2962.73
692.063	2932.01
692.252	2991.4
692.442	2964.78
692.631	2845.99
692.82	2831.66
693.01	2946.34
693.199	2934.06
693.388	2911.53
693.578	2903.34
693.767	2843.95
693.956	2757.93
694.146	2897.19
694.335	2833.71
694.524	2762.03
694.713	2819.37
694.902	2628.91
695.092	2858.28
695.281	2649.39
695.47	2850.09
695.659	2721.07
695.848	2786.6
696.037	2684.2
696.226	2776.36
696.415	2759.98
696.604	2727.21
696.793	2766.12
696.982	2770.22
697.171	2723.12
697.36	2714.92
697.549	2716.97
697.738	2655.53
697.927	2659.63
698.116	2776.36
698.305	2727.21
698.494	2653.48
698.683	2743.6
698.872	2686.25
699.061	2665.77
699.25	2751.79
699.438	2682.16
699.627	2612.53
699.816	2616.62
700.005	2692.4
700.193	2653.48
700.382	2633.01
700.571	2579.76
700.76	2596.14
700.948	2676.01
701.137	2622.77
701.326	2618.67
701.514	2624.81
701.703	2628.91
701.892	2555.18
702.08	2745.64
702.269	2585.9
702.457	2747.69
702.646	2669.87
702.834	2575.66
703.023	2522.41
703.212	2524.46
703.4	2594.09
703.589	2612.53
703.777	2608.43
703.965	2544.94
704.154	2614.57
704.342	2542.89
704.531	2583.85
704.719	2575.66
704.907	2596.14
705.096	2499.89
705.284	2561.33
705.472	2633.01
705.661	2551.09
705.849	2590
706.037	2438.45
706.226	2508.08
706.414	2592.05
706.602	2567.47
706.79	2661.68
706.979	2512.18
707.167	2481.46
707.355	2540.85
707.543	2540.85
707.731	2534.7
707.919	2612.53
708.107	2546.99
708.296	2430.26
708.484	2536.75
708.672	2602.29
708.86	2506.03
709.048	2510.13
709.236	2479.41
709.424	2592.05
709.612	2516.27
709.8	2624.81
709.988	2671.92
710.176	2503.98
710.364	2520.37
710.551	2469.17
710.739	2489.65
710.927	2440.5
711.115	2506.03
711.303	2583.85
711.491	2497.84
711.679	2491.7
711.866	2493.74
712.054	2497.84
712.242	2540.85
712.43	2497.84
712.617	2368.82
712.805	2518.32
712.993	2567.47
713.181	2426.16
713.368	2395.44
713.556	2522.41
713.744	2542.89
713.931	2561.33
714.119	2469.17
714.306	2553.13
714.494	2342.19
714.682	2493.74
714.869	2456.88
715.057	2426.16
715.244	2450.74
715.432	2633.01
715.619	2538.8
715.807	2440.5
715.994	2499.89
716.182	2614.57
716.369	2460.98
716.556	2458.93
716.744	2448.69
716.931	2417.97
717.119	2542.89
717.306	2366.77
717.493	2575.66
717.681	2456.88
717.868	2481.46
718.055	2383.15
718.242	2415.92
718.43	2411.82
718.617	2489.65
718.804	2424.11
718.991	2438.45
719.179	2456.88
719.366	2465.07
719.553	2354.48
719.74	2463.02
719.927	2508.08
720.114	2520.37
720.301	2415.92
720.488	2477.36
720.676	2311.47
720.863	2436.4
721.05	2428.21
721.237	2397.49
721.424	2499.89
721.611	2415.92
721.798	2338.1
721.985	2342.19
722.172	2487.6
722.358	2374.96
722.545	2499.89
722.732	2497.84
722.919	2571.57
723.106	2417.97
723.293	2391.34
723.48	2379.06
723.667	2420.02
723.853	2342.19
724.04	2368.82
724.227	2452.78
724.414	2319.67
724.6	2403.63
724.787	2317.62
724.974	2354.48
725.161	2401.58
725.347	2301.23
725.534	2397.49
725.72	2356.53
725.907	2475.31
726.094	2420.02
726.28	2305.33
726.467	2350.39
726.653	2358.58
726.84	2325.81
727.027	2311.47
727.213	2348.34
727.4	2254.13
727.586	2411.82
727.773	2397.49
727.959	2293.04
728.145	2379.06
728.332	2409.78
728.518	2467.12
728.705	2383.15
728.891	2436.4
729.077	2407.73
729.264	2413.87
729.45	2463.02
729.636	2489.65
729.823	2368.82
730.009	2348.34
730.195	2424.11
730.382	2420.02
730.568	2434.35
730.754	2510.13
730.94	2334
731.126	2385.2
731.313	2389.3
731.499	2360.63
731.685	2321.71
731.871	2387.25
732.057	2383.15
732.243	2272.56
732.429	2340.15
732.615	2362.67
732.801	2403.63
732.987	2422.06
733.173	2305.33
733.359	2305.33
733.545	2303.28
733.731	2256.18
733.917	2379.06
734.103	2338.1
734.289	2350.39
734.475	2360.63
734.661	2426.16
734.847	2358.58
735.033	2360.63
735.219	2399.54
735.404	2471.22
735.59	2290.99
735.776	2237.75
735.962	2399.54
736.148	2354.48
736.333	2377.01
736.519	2225.46
736.705	2299.19
736.89	2389.3
737.076	2364.72
737.262	2348.34
737.447	2297.14
737.633	2235.7
737.819	2272.56
738.004	2223.41
738.19	2336.05
738.375	2211.12
738.561	2274.61
738.747	2209.08
738.932	2182.45
739.118	2387.25
739.303	2211.12
739.489	2286.9
739.674	2413.87
739.859	2252.08
740.045	2161.97
740.23	2250.03
740.416	2260.27
740.601	2303.28
740.786	2225.46
740.972	2184.5
741.157	2221.36
741.342	2268.47
741.528	2299.19
741.713	2176.31
741.898	2252.08
742.084	2067.77
742.269	2153.78
742.454	2024.76
742.639	2215.22
742.824	2172.21
743.01	2194.74
743.195	2104.63
743.38	2073.91
743.565	2094.39
743.75	2135.35
743.935	2084.15
744.12	2108.73
744.305	2067.77
744.49	2168.12
744.675	2022.71
744.86	2000.18
745.045	2090.29
745.23	2065.72
745.415	2059.57
745.6	2028.85
745.785	1912.12
745.97	1912.12
746.155	1973.56
746.34	1985.85
746.525	1967.42
746.71	1969.46
746.895	1916.22
747.079	1854.78
747.264	1971.51
747.449	2032.95
747.634	1979.7
747.819	1854.78
748.003	1852.73
748.188	1846.59
748.373	1836.35
748.557	1936.7
748.742	1867.06
748.927	1817.91
749.111	1817.91
749.296	1809.72
749.481	1817.91
749.665	1832.25
749.85	1731.9
750.034	1805.63
750.219	1752.38
750.404	1738.04
750.588	1705.28
750.773	1635.64
750.957	1703.23
751.141	1686.84
751.326	1758.52
751.51	1576.25
751.695	1723.71
751.879	1588.54
752.064	1703.23
752.248	1676.6
752.432	1649.98
752.617	1588.54
752.801	1643.84
752.985	1488.19
753.17	1580.35
753.354	1553.73
753.538	1590.59
753.722	1527.1
753.907	1441.09
754.091	1506.62
754.275	1475.9
754.459	1498.43
754.643	1502.53
754.828	1527.1
755.012	1568.06
755.196	1471.81
755.38	1375.55
755.564	1404.22
755.748	1461.57
755.932	1475.9
756.116	1449.28
756.3	1477.95
756.484	1332.54
756.668	1449.28
756.852	1367.36
757.036	1408.32
757.22	1400.13
757.404	1377.6
757.588	1400.13
757.772	1346.88
757.956	1361.22
758.14	1404.22
758.323	1299.78
758.507	1295.68
758.691	1330.5
758.875	1320.26
759.059	1170.76
759.242	1219.91
759.426	1230.15
759.61	1228.1
759.794	1201.48
759.977	1285.44
760.161	1291.59
760.345	1277.25
760.528	1232.19
760.712	1283.39
760.895	1297.73
761.079	1178.95
761.263	1160.52
761.446	1090.88
761.63	1193.28
761.813	1301.83
761.997	1217.86
762.18	1226.05
762.364	1183.04
762.547	1207.62
762.731	1162.56
762.914	1097.03
763.098	1205.57
763.281	1115.46
763.464	1004.87
763.648	1068.36
763.831	1125.7
764.015	1105.22
764.198	1176.9
764.381	1070.4
764.564	1070.4
764.748	1027.4
764.931	1129.8
765.114	1113.41
765.297	1086.79
765.481	1133.89
765.664	1043.78
765.847	1111.36
766.03	974.15
766.213	1064.26
766.397	1078.6
766.58	1131.84
766.763	968.01
766.946	904.52
767.129	1074.5
767.312	980.29
767.495	1113.41
767.678	1027.4
767.861	972.1
768.044	1023.3
768.227	1019.21
768.41	1002.82
768.593	1033.54
768.776	982.34
768.959	980.29
769.142	1109.32
769.324	859.46
769.507	1021.25
769.69	1015.11
769.873	951.62
770.056	996.68
770.239	902.47
770.421	1019.21
770.604	888.14
770.787	990.53
770.97	929.1
771.152	933.19
771.335	957.77
771.518	879.94
771.7	937.29
771.883	814.41
772.066	974.15
772.248	951.62
772.431	865.61
772.613	890.18
772.796	937.29
772.978	849.22
773.161	871.75
773.343	873.8
773.526	740.68
773.708	886.09
773.891	810.31
774.073	804.17
774.256	816.46
774.438	814.41
774.621	845.13
774.803	937.29
774.985	857.42
775.168	888.14
775.35	818.5
775.532	843.08
775.715	838.98
775.897	746.83
776.079	726.35
776.261	765.26
776.444	789.83
776.626	793.93
776.808	703.82
776.99	732.49
777.173	728.39
777.355	783.69
777.537	777.55
777.719	744.78
777.901	744.78
778.083	662.86
778.265	621.9
778.447	742.73
778.629	728.39
778.811	781.64
778.993	785.74
779.175	695.63
779.357	630.09
779.539	648.52
779.721	595.28
779.903	712.01
780.085	638.28
780.267	673.1
780.449	673.1
780.631	724.3
780.812	691.53
780.994	552.27
781.176	628.04
781.358	638.28
781.54	669
781.721	587.08
781.903	617.8
782.085	570.7
782.267	527.69
782.448	605.52
782.63	634.19
782.812	568.65
782.993	611.66
783.175	597.32
783.357	474.45
783.538	556.36
783.72	564.56
783.901	593.23
784.083	550.22
784.264	585.04
784.446	513.36
784.627	474.45
784.809	533.84
784.99	550.22
785.172	546.12
785.353	539.98
785.535	521.55
785.716	523.6
785.897	470.35
786.079	470.35
786.26	511.31
786.441	437.58
786.623	550.22
786.804	505.17
786.985	494.93
787.167	458.06
787.348	398.67
787.529	472.4
787.71	513.36
787.891	499.02
788.073	419.15
788.254	415.06
788.435	496.97
788.616	470.35
788.797	423.25
788.978	460.11
789.159	447.82
789.34	441.68
789.522	451.92
789.703	380.24
789.884	460.11
790.065	494.93
790.246	404.82
790.427	431.44
790.607	445.77
790.788	496.97
790.969	427.34
791.15	425.29
791.331	398.67
791.512	400.72
791.693	380.24
791.874	370
792.054	441.68
792.235	288.08
792.416	427.34
792.597	326.99
792.778	376.14
792.958	345.42
793.139	408.91
793.32	331.09
793.5	329.04
793.681	312.66
793.862	398.67
794.042	370
794.223	283.98
794.404	394.58
794.584	337.23
794.765	324.94
794.945	294.22
795.126	367.95
795.306	365.9
795.487	423.25
795.667	400.72
795.848	326.99
796.028	378.19
796.209	286.03
796.389	349.52
796.57	245.07
796.75	292.18
796.93	351.57
797.111	288.08
797.291	312.66
797.471	322.9
797.652	333.14
797.832	292.18
798.012	279.89
798.192	292.18
798.373	288.08
798.553	308.56
798.733	324.94
798.913	281.94
799.093	294.22
799.274	290.13
799.454	398.67
799.634	326.99
799.814	318.8
799.994	240.98
800.174	359.76
800.354	224.59
800.534	304.46
800.714	279.89
800.894	265.55
801.074	236.88
801.254	306.51
801.434	310.61
801.614	296.27
801.794	345.42
801.974	585.04
802.154	234.83
802.334	267.6
802.514	251.22
802.693	222.55
802.873	118.1
803.053	243.03
803.233	218.45
803.413	163.15
803.592	265.55
803.772	275.79
803.952	265.55
804.131	267.6
804.311	197.97
804.491	281.94
804.67	195.92
804.85	202.07
805.03	290.13
805.209	314.7
805.389	238.93
805.568	195.92
805.748	238.93
805.928	240.98
806.107	253.27
806.287	200.02
806.466	255.31
806.646	216.4
806.825	290.13
807.004	220.5
807.184	236.88
807.363	253.27
807.543	269.65
807.722	240.98
807.901	228.69
808.081	277.84
808.26	154.96
808.439	245.07
808.619	204.11
808.798	222.55
808.977	195.92
809.156	148.82
809.336	171.35
809.515	234.83
809.694	159.06
809.873	197.97
810.052	150.87
810.231	181.59
810.411	202.07
810.59	187.73
810.769	187.73
810.948	232.79
811.127	167.25
811.306	230.74
811.485	222.55
811.664	255.31
811.843	216.4
812.022	144.72
812.201	210.26
812.38	126.29
812.559	197.97
812.737	183.63
812.916	132.44
813.095	142.68
813.274	116.05
813.453	206.16
813.632	152.91
813.811	187.73
813.989	132.44
814.168	212.31
814.347	181.59
814.526	150.87
814.704	183.63
814.883	111.96
815.062	247.12
815.24	183.63
815.419	189.78
815.598	195.92
815.776	134.48
815.955	202.07
816.133	107.86
816.312	169.3
816.49	195.92
816.669	212.31
816.847	146.77
817.026	118.1
817.204	154.96
817.383	122.2
817.561	195.92
817.74	179.54
817.918	191.83
818.097	161.11
818.275	105.81
818.453	130.39
818.632	154.96
818.81	146.77
818.988	93.52
819.167	136.53
819.345	138.58
819.523	138.58
819.701	142.68
819.879	175.44
820.058	111.96
820.236	195.92
820.414	132.44
820.592	150.87
820.77	73.04
820.948	236.88
821.127	83.28
821.305	124.24
821.483	142.68
821.661	159.06
821.839	177.49
822.017	81.24
822.195	212.31
822.373	116.05
822.551	109.91
822.729	197.97
822.907	195.92
823.085	165.2
823.262	124.24
823.44	169.3
823.618	85.33
823.796	148.82
823.974	87.38
824.152	79.19
824.329	91.48
824.507	99.67
824.685	142.68
824.863	81.24
825.04	224.59
825.218	89.43
825.396	111.96
825.574	142.68
825.751	105.81
825.929	79.19
826.107	103.76
826.284	122.2
826.462	120.15
826.639	32.08
826.817	114
826.994	138.58
827.172	103.76
827.349	159.06
827.527	89.43
827.704	181.59
827.882	89.43
828.059	179.54
828.237	142.68
828.414	159.06
828.591	44.37
828.769	136.53
828.946	138.58
829.124	83.28
829.301	95.57
829.478	146.77
829.655	77.14
829.833	75.09
830.01	7.51
830.187	68.95
830.364	66.9
830.542	128.34
830.719	95.57
830.896	89.43
831.073	30.04
831.25	114
831.427	68.95
831.604	130.39
831.782	93.52
831.959	157.01
832.136	81.24
832.313	114
832.49	163.15
832.667	99.67
832.844	107.86
833.021	105.81
833.198	77.14
833.374	25.94
833.551	97.62
833.728	64.85
833.905	109.91
834.082	128.34
834.259	52.56
834.436	87.38
834.612	93.52
834.789	52.56
834.966	73.04
835.143	97.62
835.319	107.86
835.496	81.24
835.673	152.91
835.85	34.13
836.026	154.96
836.203	52.56
836.38	77.14
836.556	103.76
836.733	5.46
836.909	101.72
837.086	56.66
837.262	83.28
837.439	11.61
837.616	38.23
837.792	42.32
837.968	97.62
838.145	77.14
838.321	66.9
838.498	101.72
838.674	40.28
838.851	118.1
839.027	114
839.203	111.96
839.38	118.1
839.556	83.28
839.732	85.33
839.909	89.43
840.085	95.57
840.261	87.38
840.437	62.8
840.614	64.85
840.79	124.24
840.966	81.24
841.142	60.76
841.318	13.65
841.494	71
841.671	81.24
841.847	99.67
842.023	103.76
842.199	77.14
842.375	93.52
842.551	46.42
842.727	52.56
842.903	105.81
843.079	34.13
843.255	120.15
843.431	60.76
843.607	46.42
843.783	13.65
843.959	79.19
844.134	56.66
844.31	157.01
844.486	30.04
844.662	73.04
844.838	140.63
845.013	52.56
845.189	81.24
845.365	60.76
845.541	91.48
845.716	21.85
845.892	93.52
846.068	44.37
846.244	52.56
846.419	75.09
846.595	36.18
846.77	46.42
846.946	48.47
847.122	111.96
847.297	36.18
847.473	81.24
847.648	-4.78
847.824	89.43
847.999	-10.92
848.175	116.05
848.35	34.13
848.526	126.29
848.701	34.13
848.876	46.42
849.052	3.41
849.227	60.76
849.403	15.7
849.578	38.23
849.753	11.61
849.929	36.18
850.104	32.08
850.279	66.9
850.454	81.24
850.63	68.95
850.805	11.61
850.98	36.18
851.155	36.18
851.33	101.72
851.505	56.66
851.681	103.76
851.856	9.56
852.031	56.66
852.206	48.47
852.381	46.42
852.556	44.37
852.731	95.57
852.906	109.91
853.081	48.47
853.256	21.85
853.431	75.09
853.606	25.94
853.781	21.85
853.956	23.89
854.131	-43.69
854.305	114
854.48	32.08
854.655	-0.68
854.83	46.42
855.005	50.52
855.18	42.32
855.354	19.8
855.529	58.71
855.704	11.61
855.879	54.61
856.053	21.85
856.228	66.9
856.403	111.96
856.577	105.81
856.752	56.66
856.926	62.8
857.101	50.52
857.276	85.33
857.45	140.63
857.625	107.86
857.799	71
857.974	103.76
858.148	3.41
858.323	95.57
858.497	11.61
858.672	60.76
858.846	7.51
859.02	58.71
859.195	52.56
859.369	54.61
859.543	-0.68
859.718	126.29
859.892	19.8
860.066	27.99
860.241	48.47
860.415	103.76
860.589	-12.97
860.763	44.37
860.938	48.47
861.112	54.61
861.286	40.28
861.46	62.8
861.634	-17.07
861.808	50.52
861.982	85.33
862.157	11.61
862.331	62.8
862.505	-25.26
862.679	7.51
862.853	77.14
863.027	40.28
863.201	62.8
863.375	-31.4
863.549	66.9
863.722	73.04
863.896	75.09
864.07	5.46
864.244	73.04
864.418	-10.92
864.592	34.13
864.766	25.94
864.939	48.47
865.113	-0.68
865.287	52.56
865.461	52.56
865.634	25.94
865.808	-27.31
865.982	44.37
866.156	5.46
866.329	-51.88
866.503	122.2
866.676	89.43
866.85	-15.02
867.024	-12.97
867.197	-10.92
867.371	150.87
867.544	58.71
867.718	73.04
867.891	1.37
868.065	75.09
868.238	36.18
868.412	52.56
868.585	23.89
868.759	25.94
868.932	64.85
869.105	-10.92
869.279	27.99
869.452	-0.68
869.625	30.04
869.799	-12.97
869.972	15.7
870.145	48.47
870.319	3.41
870.492	36.18
870.665	44.37
870.838	1.37
871.011	66.9
871.185	34.13
871.358	48.47
871.531	21.85
871.704	71
871.877	97.62
872.05	62.8
872.223	62.8
872.396	-8.87
872.569	56.66
872.742	34.13
872.915	38.23
873.088	38.23
873.261	52.56
873.434	73.04
873.607	-53.93
873.78	9.56
873.953	-6.83
874.126	79.19
874.299	66.9
874.471	15.7
874.644	27.99
874.817	81.24
874.99	36.18
875.163	38.23
875.335	27.99
875.508	-0.68
875.681	21.85
875.853	-45.74
876.026	146.77
876.199	34.13
876.371	-76.46
876.544	62.8
876.717	19.8
876.889	27.99
877.062	-17.07
877.234	83.28
877.407	32.08
877.579	36.18
877.752	91.48
877.924	40.28
878.097	-4.78
878.269	-0.68
878.442	68.95
878.614	42.32
878.786	134.48
878.959	85.33
879.131	66.9
879.303	15.7
879.476	50.52
879.648	64.85
879.82	89.43
879.993	-41.64
880.165	89.43
880.337	56.66
880.509	81.24
880.681	23.89
880.854	-2.73
881.026	62.8
881.198	46.42
881.37	38.23
881.542	36.18
881.714	-25.26
881.886	-23.21
882.058	32.08
882.23	5.46
882.402	-4.78
882.574	89.43
882.746	1.37
882.918	40.28
883.09	48.47
883.262	34.13
883.434	32.08
883.606	40.28
883.778	-12.97
883.95	58.71
884.122	-47.79
884.293	7.51
884.465	77.14
884.637	71
884.809	-2.73
884.98	87.38
885.152	48.47
885.324	15.7
885.496	9.56
885.667	-19.11
885.839	13.65
886.011	60.76
886.182	1.37
886.354	48.47
886.525	50.52
886.697	19.8
886.869	-15.02
887.04	38.23
887.212	81.24
887.383	68.95
887.555	66.9
887.726	25.94
887.897	99.67
888.069	50.52
888.24	85.33
888.412	34.13
888.583	-29.35
888.754	66.9
888.926	-58.03
889.097	30.04
889.268	-45.74
889.44	44.37
889.611	79.19
889.782	-27.31
889.953	-29.35
890.125	36.18
890.296	-17.07
890.467	-60.07
890.638	54.61
890.809	13.65
890.98	-43.69
891.151	89.43
891.323	62.8
891.494	3.41
891.665	64.85
891.836	13.65
892.007	-68.27
892.178	-47.79
892.349	75.09
892.52	-39.59
892.691	54.61
892.862	7.51
893.032	40.28
893.203	36.18
893.374	44.37
893.545	9.56
893.716	-21.16
893.887	19.8
894.057	25.94
894.228	62.8
894.399	36.18
894.57	5.46
894.74	-41.64
894.911	-55.98
895.082	-0.68
895.253	-10.92
895.423	101.72
895.594	73.04
895.764	114
895.935	32.08
896.106	75.09
896.276	42.32
896.447	46.42
896.617	-33.45
896.788	40.28
896.958	48.47
897.129	-17.07
897.299	-8.87
897.47	19.8
897.64	73.04
897.81	56.66
897.981	85.33
898.151	-53.93
898.322	15.7
898.492	-2.73
898.662	19.8
898.832	1.37
899.003	-37.55
899.173	-25.26
899.343	7.51
899.513	17.75
