Data from USB4F104151__23__11-05-04-333.txt Node

Date: Wed Mar 12 11:05:04 EDT 2025
User: louis
Spectrometer: USB4F10415
Trigger mode: 4
Integration Time (sec): 2.000000E-2
Scans to average: 1
Electric dark correction enabled: true
Nonlinearity correction enabled: false
Boxcar width: 0
XAxis mode: Wavelengths
Number of Pixels in Spectrum: 3648
>>>>>Begin Spectral Data<<<<<
178.204	-41.81
178.424	-41.81
178.644	-41.81
178.864	-76.63
179.084	-195.41
179.304	-43.86
179.524	-4.95
179.744	-35.67
179.964	74.92
180.184	50.35
180.404	25.77
180.624	-35.67
180.844	7.34
181.064	-25.43
181.283	-17.24
181.503	-17.24
181.723	21.67
181.943	-70.48
182.163	58.54
182.383	-27.48
182.602	38.06
182.822	85.16
183.042	5.29
183.262	50.35
183.482	-74.58
183.701	1.19
183.921	-2.9
184.141	17.58
184.361	5.29
184.58	25.77
184.8	9.39
185.02	-25.43
185.239	62.63
185.459	29.87
185.679	85.16
185.898	-19.29
186.118	93.35
186.338	17.58
186.557	-7
186.777	-84.82
186.997	-21.33
187.216	-29.52
187.436	72.87
187.655	44.2
187.875	-29.52
188.095	-0.85
188.314	25.77
188.534	54.44
188.753	-27.48
188.973	99.5
189.192	56.49
189.412	62.63
189.631	46.25
189.851	-33.62
190.07	17.58
190.29	36.01
190.509	-4.95
190.729	13.48
190.948	1.19
191.168	76.97
191.387	91.31
191.607	-4.95
191.826	54.44
192.045	46.25
192.265	3.24
192.484	42.15
192.704	50.35
192.923	44.2
193.142	103.59
193.362	-33.62
193.581	9.39
193.8	42.15
194.02	58.54
194.239	-27.48
194.458	44.2
194.678	1.19
194.897	7.34
195.116	21.67
195.335	46.25
195.555	-2.9
195.774	-2.9
195.993	-2.9
196.212	-21.33
196.432	-41.81
196.651	-2.9
196.87	-45.91
197.089	56.49
197.308	-29.52
197.528	60.59
197.747	-23.38
197.966	44.2
198.185	58.54
198.404	9.39
198.623	-80.72
198.842	13.48
199.062	70.83
199.281	-31.57
199.5	25.77
199.719	66.73
199.938	48.3
200.157	-35.67
200.376	50.35
200.595	-11.09
200.814	68.78
201.033	19.63
201.252	-4.95
201.471	17.58
201.69	-13.14
201.909	117.93
202.128	-11.09
202.347	-47.96
202.566	54.44
202.785	3.24
203.004	-68.44
203.223	21.67
203.442	-62.29
203.661	-17.24
203.879	31.91
204.098	40.11
204.317	11.43
204.536	44.2
204.755	9.39
204.974	56.49
205.193	64.68
205.411	58.54
205.63	103.59
205.849	25.77
206.068	44.2
206.287	54.44
206.505	-29.52
206.724	44.2
206.943	29.87
207.162	40.11
207.381	-4.95
207.599	17.58
207.818	9.39
208.037	-43.86
208.255	13.48
208.474	38.06
208.693	40.11
208.911	64.68
209.13	-37.72
209.349	-2.9
209.567	46.25
209.786	117.93
210.005	19.63
210.223	27.82
210.442	13.48
210.661	68.78
210.879	-13.14
211.098	70.83
211.316	-21.33
211.535	-37.72
211.753	1.19
211.972	-27.48
212.191	-27.48
212.409	11.43
212.628	76.97
212.846	60.59
213.065	-13.14
213.283	13.48
213.502	21.67
213.72	44.2
213.938	42.15
214.157	-21.33
214.375	25.77
214.594	9.39
214.812	68.78
215.031	79.02
215.249	54.44
215.467	54.44
215.686	38.06
215.904	-37.72
216.122	-35.67
216.341	21.67
216.559	46.25
216.778	107.69
216.996	-21.33
217.214	83.11
217.432	33.96
217.651	64.68
217.869	29.87
218.087	29.87
218.306	-2.9
218.524	85.16
218.742	-13.14
218.96	-11.09
219.179	-4.95
219.397	15.53
219.615	122.02
219.833	17.58
220.051	44.2
220.27	58.54
220.488	83.11
220.706	-19.29
220.924	58.54
221.142	5.29
221.36	70.83
221.578	1.19
221.796	-2.9
222.015	31.91
222.233	111.78
222.451	-2.9
222.669	-25.43
222.887	46.25
223.105	38.06
223.323	15.53
223.541	-2.9
223.759	-23.38
223.977	-41.81
224.195	60.59
224.413	25.77
224.631	68.78
224.849	44.2
225.067	95.4
225.285	60.59
225.503	74.92
225.721	-60.24
225.939	25.77
226.157	-13.14
226.375	115.88
226.592	-31.57
226.81	54.44
227.028	1.19
227.246	64.68
227.464	50.35
227.682	62.63
227.9	68.78
228.117	-78.68
228.335	38.06
228.553	-64.34
228.771	36.01
228.989	103.59
229.206	-37.72
229.424	-17.24
229.642	1.19
229.86	76.97
230.077	46.25
230.295	-11.09
230.513	50.35
230.731	60.59
230.948	5.29
231.166	115.88
231.384	70.83
231.601	68.78
231.819	79.02
232.037	33.96
232.254	-25.43
232.472	19.63
232.689	50.35
232.907	50.35
233.125	81.07
233.342	-19.29
233.56	-13.14
233.777	60.59
233.995	-11.09
234.213	33.96
234.43	-9.05
234.648	25.77
234.865	-0.85
235.083	31.91
235.3	-29.52
235.518	-0.85
235.735	-7
235.953	48.3
236.17	9.39
236.388	33.96
236.605	-7
236.822	9.39
237.04	25.77
237.257	-2.9
237.475	-9.05
237.692	74.92
237.909	56.49
238.127	-4.95
238.344	7.34
238.562	23.72
238.779	-52.05
238.996	21.67
239.214	9.39
239.431	-4.95
239.648	-9.05
239.865	70.83
240.083	21.67
240.3	58.54
240.517	62.63
240.735	11.43
240.952	-29.52
241.169	48.3
241.386	9.39
241.603	-2.9
241.821	31.91
242.038	56.49
242.255	25.77
242.472	76.97
242.689	72.87
242.907	48.3
243.124	-17.24
243.341	-13.14
243.558	38.06
243.775	-27.48
243.992	-43.86
244.209	-25.43
244.426	36.01
244.643	76.97
244.86	93.35
245.078	17.58
245.295	31.91
245.512	-2.9
245.729	21.67
245.946	-37.72
246.163	29.87
246.38	62.63
246.597	27.82
246.814	13.48
247.031	17.58
247.248	21.67
247.464	44.2
247.681	13.48
247.898	50.35
248.115	79.02
248.332	-2.9
248.549	44.2
248.766	99.5
248.983	27.82
249.2	76.97
249.417	1.19
249.633	29.87
249.85	23.72
250.067	-11.09
250.284	-2.9
250.501	-13.14
250.717	40.11
250.934	-80.72
251.151	72.87
251.368	-41.81
251.585	105.64
251.801	66.73
252.018	-4.95
252.235	83.11
252.451	25.77
252.668	25.77
252.885	64.68
253.102	11.43
253.318	87.21
253.535	50.35
253.752	13.48
253.968	38.06
254.185	31.91
254.401	85.16
254.618	42.15
254.835	9.39
255.051	83.11
255.268	38.06
255.484	66.73
255.701	-2.9
255.917	72.87
256.134	-7
256.351	83.11
256.567	25.77
256.784	7.34
257	-7
257.217	29.87
257.433	-84.82
257.65	42.15
257.866	48.3
258.082	-47.96
258.299	40.11
258.515	42.15
258.732	-19.29
258.948	66.73
259.165	58.54
259.381	9.39
259.597	27.82
259.814	60.59
260.03	44.2
260.246	17.58
260.463	9.39
260.679	50.35
260.895	-9.05
261.112	66.73
261.328	-19.29
261.544	-4.95
261.761	42.15
261.977	3.24
262.193	-4.95
262.409	38.06
262.626	40.11
262.842	-105.3
263.058	33.96
263.274	48.3
263.49	9.39
263.707	-2.9
263.923	36.01
264.139	-13.14
264.355	1.19
264.571	25.77
264.787	-35.67
265.004	21.67
265.22	-21.33
265.436	33.96
265.652	-0.85
265.868	-2.9
266.084	29.87
266.3	27.82
266.516	-7
266.732	105.64
266.948	19.63
267.164	-15.19
267.38	-33.62
267.596	3.24
267.812	40.11
268.028	15.53
268.244	13.48
268.46	48.3
268.676	40.11
268.892	19.63
269.108	-21.33
269.324	11.43
269.54	1.19
269.756	111.78
269.972	21.67
270.188	-15.19
270.403	48.3
270.619	19.63
270.835	-17.24
271.051	3.24
271.267	38.06
271.483	25.77
271.698	-4.95
271.914	11.43
272.13	-11.09
272.346	-4.95
272.562	23.72
272.777	21.67
272.993	76.97
273.209	83.11
273.425	85.16
273.64	60.59
273.856	87.21
274.072	42.15
274.287	48.3
274.503	58.54
274.719	31.91
274.934	-9.05
275.15	13.48
275.366	70.83
275.581	38.06
275.797	-13.14
276.012	-11.09
276.228	-21.33
276.444	21.67
276.659	111.78
276.875	-7
277.09	-13.14
277.306	21.67
277.521	91.31
277.737	-13.14
277.952	21.67
278.168	74.92
278.383	19.63
278.599	-19.29
278.814	27.82
279.03	5.29
279.245	72.87
279.461	40.11
279.676	87.21
279.892	-21.33
280.107	83.11
280.322	54.44
280.538	9.39
280.753	-2.9
280.969	38.06
281.184	31.91
281.399	3.24
281.615	21.67
281.83	50.35
282.045	-27.48
282.26	-45.91
282.476	13.48
282.691	23.72
282.906	-13.14
283.122	33.96
283.337	27.82
283.552	13.48
283.767	44.2
283.983	-19.29
284.198	-17.24
284.413	89.26
284.628	-13.14
284.843	-25.43
285.058	54.44
285.274	27.82
285.489	13.48
285.704	79.02
285.919	3.24
286.134	29.87
286.349	31.91
286.564	85.16
286.779	66.73
286.995	9.39
287.21	-13.14
287.425	48.3
287.64	15.53
287.855	29.87
288.07	-27.48
288.285	68.78
288.5	5.29
288.715	62.63
288.93	-2.9
289.145	48.3
289.36	40.11
289.575	46.25
289.79	17.58
290.004	52.39
290.219	13.48
290.434	115.88
290.649	-47.96
290.864	-27.48
291.079	56.49
291.294	1.19
291.509	23.72
291.724	21.67
291.938	-29.52
292.153	107.69
292.368	58.54
292.583	15.53
292.798	109.74
293.012	50.35
293.227	27.82
293.442	21.67
293.657	5.29
293.871	3.24
294.086	27.82
294.301	74.92
294.516	42.15
294.73	87.21
294.945	-39.76
295.16	19.63
295.374	87.21
295.589	42.15
295.804	-2.9
296.018	50.35
296.233	11.43
296.447	7.34
296.662	23.72
296.877	29.87
297.091	-29.52
297.306	48.3
297.52	-21.33
297.735	-35.67
297.949	60.59
298.164	33.96
298.378	25.77
298.593	27.82
298.807	-29.52
299.022	17.58
299.236	23.72
299.451	38.06
299.665	64.68
299.88	17.58
300.094	-41.81
300.309	1.19
300.523	-33.62
300.737	72.87
300.952	17.58
301.166	29.87
301.381	40.11
301.595	44.2
301.809	50.35
302.024	29.87
302.238	62.63
302.452	9.39
302.667	48.3
302.881	11.43
303.095	48.3
303.309	-31.57
303.524	25.77
303.738	46.25
303.952	48.3
304.166	7.34
304.381	15.53
304.595	44.2
304.809	-33.62
305.023	-0.85
305.237	-13.14
305.452	58.54
305.666	-0.85
305.88	60.59
306.094	-2.9
306.308	-21.33
306.522	-23.38
306.736	-17.24
306.95	40.11
307.164	27.82
307.379	3.24
307.593	33.96
307.807	5.29
308.021	42.15
308.235	-7
308.449	-13.14
308.663	7.34
308.877	38.06
309.091	42.15
309.305	25.77
309.519	33.96
309.733	60.59
309.947	-13.14
310.161	36.01
310.374	42.15
310.588	25.77
310.802	109.74
311.016	87.21
311.23	50.35
311.444	62.63
311.658	-19.29
311.872	-13.14
312.085	9.39
312.299	60.59
312.513	97.45
312.727	50.35
312.941	23.72
313.154	17.58
313.368	99.5
313.582	48.3
313.796	13.48
314.009	15.53
314.223	66.73
314.437	-2.9
314.651	11.43
314.864	33.96
315.078	11.43
315.292	13.48
315.505	17.58
315.719	-15.19
315.933	29.87
316.146	50.35
316.36	23.72
316.573	79.02
316.787	54.44
317.001	33.96
317.214	50.35
317.428	56.49
317.641	25.77
317.855	21.67
318.068	70.83
318.282	-25.43
318.495	-11.09
318.709	54.44
318.922	-9.05
319.136	40.11
319.349	13.48
319.563	21.67
319.776	25.77
319.99	56.49
320.203	74.92
320.417	38.06
320.63	93.35
320.843	15.53
321.057	-2.9
321.27	21.67
321.483	56.49
321.697	50.35
321.91	42.15
322.124	38.06
322.337	31.91
322.55	38.06
322.763	29.87
322.977	15.53
323.19	1.19
323.403	33.96
323.617	21.67
323.83	76.97
324.043	-11.09
324.256	21.67
324.469	21.67
324.683	38.06
324.896	-25.43
325.109	1.19
325.322	23.72
325.535	42.15
325.748	40.11
325.962	62.63
326.175	33.96
326.388	-11.09
326.601	25.77
326.814	70.83
327.027	17.58
327.24	62.63
327.453	36.01
327.666	50.35
327.879	56.49
328.092	85.16
328.305	91.31
328.518	-25.43
328.731	74.92
328.944	19.63
329.157	31.91
329.37	54.44
329.583	15.53
329.796	60.59
330.009	-47.96
330.222	17.58
330.435	44.2
330.648	58.54
330.861	19.63
331.073	31.91
331.286	-19.29
331.499	-21.33
331.712	38.06
331.925	-9.05
332.138	1.19
332.35	62.63
332.563	36.01
332.776	138.41
332.989	11.43
333.202	58.54
333.414	42.15
333.627	58.54
333.84	21.67
334.053	21.67
334.265	72.87
334.478	-13.14
334.691	62.63
334.903	9.39
335.116	-35.67
335.329	13.48
335.541	50.35
335.754	85.16
335.966	70.83
336.179	56.49
336.392	136.36
336.604	54.44
336.817	52.39
337.029	29.87
337.242	27.82
337.454	19.63
337.667	9.39
337.88	33.96
338.092	-21.33
338.305	46.25
338.517	-47.96
338.729	44.2
338.942	42.15
339.154	-9.05
339.367	9.39
339.579	74.92
339.792	62.63
340.004	7.34
340.217	38.06
340.429	33.96
340.641	64.68
340.854	21.67
341.066	-41.81
341.278	23.72
341.491	5.29
341.703	33.96
341.915	33.96
342.128	13.48
342.34	38.06
342.552	-15.19
342.764	5.29
342.977	36.01
343.189	85.16
343.401	17.58
343.613	-39.76
343.826	3.24
344.038	29.87
344.25	46.25
344.462	79.02
344.674	74.92
344.886	19.63
345.099	31.91
345.311	111.78
345.523	54.44
345.735	-31.57
345.947	-19.29
346.159	33.96
346.371	33.96
346.583	7.34
346.795	76.97
347.007	50.35
347.219	58.54
347.431	40.11
347.643	64.68
347.855	11.43
348.067	83.11
348.279	7.34
348.491	9.39
348.703	46.25
348.915	13.48
349.127	52.39
349.339	19.63
349.551	5.29
349.763	93.35
349.975	29.87
350.187	15.53
350.399	62.63
350.61	107.69
350.822	-9.05
351.034	42.15
351.246	29.87
351.458	89.26
351.669	29.87
351.881	44.2
352.093	119.98
352.305	44.2
352.517	33.96
352.728	128.17
352.94	-27.48
353.152	52.39
353.363	-7
353.575	48.3
353.787	70.83
353.999	72.87
354.21	144.55
354.422	3.24
354.633	-31.57
354.845	52.39
355.057	23.72
355.268	-4.95
355.48	21.67
355.692	122.02
355.903	-35.67
356.115	25.77
356.326	-52.05
356.538	66.73
356.749	109.74
356.961	85.16
357.172	19.63
357.384	91.31
357.595	-2.9
357.807	-0.85
358.018	89.26
358.23	70.83
358.441	23.72
358.653	144.55
358.864	76.97
359.075	-4.95
359.287	-7
359.498	117.93
359.709	31.91
359.921	17.58
360.132	97.45
360.344	-35.67
360.555	-2.9
360.766	25.77
360.977	19.63
361.189	19.63
361.4	-7
361.611	19.63
361.823	-2.9
362.034	-2.9
362.245	5.29
362.456	29.87
362.667	76.97
362.879	-0.85
363.09	42.15
363.301	52.39
363.512	42.15
363.723	-7
363.935	-35.67
364.146	70.83
364.357	21.67
364.568	46.25
364.779	-15.19
364.99	62.63
365.201	17.58
365.412	31.91
365.623	-4.95
365.834	36.01
366.045	-47.96
366.256	21.67
366.467	74.92
366.678	36.01
366.889	70.83
367.1	-19.29
367.311	95.4
367.522	36.01
367.733	68.78
367.944	119.98
368.155	25.77
368.366	11.43
368.577	91.31
368.788	72.87
368.999	83.11
369.209	46.25
369.42	83.11
369.631	130.22
369.842	-0.85
370.053	46.25
370.264	50.35
370.474	17.58
370.685	38.06
370.896	25.77
371.107	74.92
371.317	42.15
371.528	91.31
371.739	103.59
371.95	13.48
372.16	58.54
372.371	-4.95
372.582	50.35
372.792	76.97
373.003	31.91
373.214	1.19
373.424	117.93
373.635	11.43
373.846	33.96
374.056	62.63
374.267	29.87
374.477	36.01
374.688	64.68
374.898	68.78
375.109	46.25
375.319	68.78
375.53	74.92
375.74	42.15
375.951	60.59
376.161	97.45
376.372	58.54
376.582	50.35
376.793	70.83
377.003	64.68
377.214	33.96
377.424	52.39
377.635	60.59
377.845	31.91
378.055	27.82
378.266	25.77
378.476	-4.95
378.686	-9.05
378.897	58.54
379.107	33.96
379.317	5.29
379.528	-19.29
379.738	76.97
379.948	60.59
380.158	93.35
380.369	29.87
380.579	81.07
380.789	27.82
380.999	101.55
381.21	-4.95
381.42	79.02
381.63	13.48
381.84	89.26
382.05	56.49
382.261	72.87
382.471	44.2
382.681	9.39
382.891	21.67
383.101	38.06
383.311	68.78
383.521	21.67
383.731	48.3
383.941	89.26
384.151	-21.33
384.361	5.29
384.571	27.82
384.781	83.11
384.991	21.67
385.201	62.63
385.411	103.59
385.621	62.63
385.831	95.4
386.041	33.96
386.251	52.39
386.461	117.93
386.671	3.24
386.881	103.59
387.091	85.16
387.301	54.44
387.511	27.82
387.72	95.4
387.93	93.35
388.14	-7
388.35	74.92
388.56	66.73
388.769	68.78
388.979	17.58
389.189	31.91
389.399	-0.85
389.609	68.78
389.818	99.5
390.028	48.3
390.238	50.35
390.447	142.5
390.657	111.78
390.867	68.78
391.076	7.34
391.286	1.19
391.496	138.41
391.705	42.15
391.915	56.49
392.125	83.11
392.334	27.82
392.544	83.11
392.753	97.45
392.963	48.3
393.172	5.29
393.382	64.68
393.591	107.69
393.801	62.63
394.01	40.11
394.22	115.88
394.429	83.11
394.639	56.49
394.848	101.55
395.058	95.4
395.267	119.98
395.477	95.4
395.686	60.59
395.895	87.21
396.105	52.39
396.314	64.68
396.524	50.35
396.733	72.87
396.942	60.59
397.152	58.54
397.361	150.7
397.57	-19.29
397.78	109.74
397.989	119.98
398.198	193.7
398.407	50.35
398.617	58.54
398.826	68.78
399.035	140.46
399.244	95.4
399.453	79.02
399.663	128.17
399.872	42.15
400.081	54.44
400.29	85.16
400.499	74.92
400.708	107.69
400.917	85.16
401.127	70.83
401.336	171.18
401.545	154.79
401.754	175.27
401.963	81.07
402.172	177.32
402.381	97.45
402.59	119.98
402.799	146.6
403.008	72.87
403.217	109.74
403.426	115.88
403.635	60.59
403.844	101.55
404.053	115.88
404.262	148.65
404.471	183.46
404.68	74.92
404.888	130.22
405.097	152.74
405.306	91.31
405.515	185.51
405.724	138.41
405.933	95.4
406.142	148.65
406.35	152.74
406.559	183.46
406.768	203.94
406.977	195.75
407.185	197.8
407.394	171.18
407.603	130.22
407.812	242.85
408.02	193.7
408.229	134.31
408.438	222.38
408.646	218.28
408.855	277.67
409.064	246.95
409.272	228.52
409.481	232.62
409.69	265.38
409.898	162.98
410.107	259.24
410.315	330.92
410.524	167.08
410.733	357.54
410.941	253.09
411.15	253.09
411.358	287.91
411.567	335.01
411.775	326.82
411.984	359.59
412.192	320.68
412.401	396.45
412.609	414.88
412.818	369.83
413.026	527.52
413.234	441.51
413.443	451.75
413.651	500.9
413.86	461.99
414.068	531.62
414.276	578.72
414.485	527.52
414.693	519.33
414.901	597.15
415.11	613.54
415.318	576.67
415.526	619.68
415.734	642.21
415.943	584.87
416.151	795.81
416.359	713.89
416.567	660.64
416.776	732.32
416.984	750.75
417.192	896.16
417.4	877.73
417.608	840.86
417.817	890.01
418.025	879.77
418.233	926.88
418.441	973.98
418.649	992.41
418.857	1088.67
419.065	1160.34
419.273	1107.1
419.481	1184.92
419.689	1207.45
419.897	1180.82
420.105	1420.44
420.313	1361.05
420.521	1305.75
420.729	1289.37
420.937	1475.73
421.145	1510.55
421.353	1627.28
421.561	1660.05
421.769	1668.24
421.977	1744.02
422.185	1678.48
422.393	1934.48
422.601	1840.27
422.809	1866.89
423.017	2034.83
423.224	2073.74
423.432	2153.61
423.64	2221.19
423.848	2417.8
424.056	2352.26
424.263	2393.22
424.471	2415.75
424.679	2618.5
424.887	2669.7
425.094	2722.95
425.302	2788.48
425.51	2892.93
425.718	2925.69
425.925	2987.13
426.133	2892.93
426.341	3316.86
426.548	3329.14
426.756	3433.59
426.964	3525.75
427.171	3603.57
427.379	3781.74
427.586	3882.1
427.794	3789.94
428.001	4090.99
428.209	4277.35
428.417	4181.1
428.624	4535.4
428.832	4441.19
429.039	4447.33
429.247	4609.12
429.454	4858.98
429.662	5252.19
429.869	4901.98
430.076	5344.35
430.284	5112.92
430.491	5336.15
430.699	5758.03
430.906	5608.53
431.114	5719.12
431.321	6091.85
431.528	6038.61
431.736	6460.49
431.943	6802.5
432.15	6468.68
432.358	6536.26
432.565	6945.86
432.772	7029.82
432.979	7238.72
433.187	7273.53
433.394	7531.58
433.601	7842.87
433.808	7928.88
434.016	7867.44
434.223	8375.34
434.43	8784.93
434.637	8485.93
434.844	9188.38
435.052	9241.63
435.259	9303.07
435.466	9423.9
435.673	9405.47
435.88	9679.89
436.087	10482.7
436.294	10316.81
436.501	10159.12
436.708	10404.88
436.915	10697.74
437.122	11133.95
437.329	11252.73
437.537	11469.82
437.743	11684.86
437.95	11283.45
438.157	12159.99
438.364	12903.4
438.571	12545
438.778	12661.74
438.985	13728.73
439.192	13218.78
439.399	13648.86
439.606	13503.45
439.813	13919.19
440.02	15096.77
440.227	14799.82
440.433	14670.79
440.64	15244.23
440.847	15268.8
441.054	15465.41
441.261	16280.5
441.467	16229.3
441.674	16518.06
441.881	16997.29
442.088	16939.94
442.294	16974.76
442.501	17378.21
442.708	17804.19
442.914	18525.07
443.121	19172.23
443.328	18850.7
443.534	20095.86
443.741	19444.61
443.948	19331.97
444.154	20908.91
444.361	20542.32
444.568	20896.62
444.774	20730.73
444.981	20810.61
445.187	21416.8
445.394	22573.91
445.6	22139.74
445.807	24183.61
446.013	23147.34
446.22	23876.41
446.426	24861.49
446.633	24754.99
446.839	25525.03
447.046	24564.53
447.252	25985.82
447.459	25846.56
447.665	25662.24
447.871	26508.05
448.078	27937.54
448.284	26673.94
448.491	27288.33
448.697	28195.58
448.903	28699.38
449.11	28926.71
449.316	28269.31
449.522	29188.85
449.728	29692.65
449.935	29874.91
450.141	29948.64
450.347	30395.1
450.553	29358.83
450.76	30214.88
450.966	30644.95
451.172	30362.33
451.378	31505.1
451.584	30573.27
451.791	31441.61
451.997	31126.22
452.203	31783.62
452.409	31632.07
452.615	31099.6
452.821	30462.68
453.027	29793
453.233	31202
453.44	29979.36
453.646	30421.72
453.852	30304.99
454.058	30991.06
454.264	29719.27
454.47	30223.07
454.676	29780.71
454.882	30882.52
455.088	27734.79
455.294	28320.51
455.5	28480.25
455.705	28947.18
455.911	27689.73
456.117	27235.08
456.323	26927.89
456.529	25457.45
456.735	26405.66
456.941	25565.99
457.147	25301.8
457.352	24599.35
457.558	24179.51
457.764	24222.52
457.97	23964.48
458.176	23223.11
458.381	23237.45
458.587	22104.92
458.793	21844.83
458.999	20910.96
459.204	22395.73
459.41	21865.31
459.616	20405.11
459.821	20218.74
460.027	20587.38
460.233	19559.3
460.438	18619.28
460.644	19143.56
460.85	18289.56
461.055	17812.38
461.261	17712.03
461.466	16622.51
461.672	16036.79
461.878	17189.8
462.083	16128.95
462.289	15840.18
462.494	15600.57
462.7	14883.78
462.905	14359.5
463.111	14934.98
463.316	15102.92
463.522	14652.36
463.727	14830.54
463.932	14865.35
464.138	14601.16
464.343	14724.04
464.549	13994.97
464.754	14779.34
464.959	14545.87
465.165	14408.65
465.37	13904.85
465.575	13525.98
465.781	13976.53
465.986	14418.89
466.191	13816.79
466.397	13368.29
466.602	12962.79
466.807	13210.59
467.012	13239.26
467.218	13241.31
467.423	13220.83
467.628	13116.39
467.833	13749.21
468.038	13038.56
468.244	12827.62
468.449	13437.92
468.654	12737.51
468.859	12870.63
469.064	12557.29
469.269	12135.41
469.474	12313.58
469.679	12448.75
469.885	12149.75
470.09	12332.01
470.295	12227.57
470.5	11977.72
470.705	12194.8
470.91	11566.07
471.115	11736.06
471.32	11725.82
471.525	11559.93
471.73	11396.09
471.935	11310.08
472.139	10966.02
472.344	11064.32
472.549	10994.69
472.754	10929.16
472.959	10572.81
473.164	10413.07
473.369	10507.27
473.574	10791.94
473.778	10474.51
473.983	10619.91
474.188	10601.48
474.393	10046.48
474.598	10173.46
474.802	9741.33
475.007	10062.87
475.212	9954.32
475.417	9604.12
475.621	9456.67
475.826	9561.11
476.031	9448.47
476.235	9288.73
476.44	9237.53
476.645	9102.37
476.849	9036.83
477.054	9124.9
477.259	8875.04
477.463	8815.65
477.668	8819.75
477.872	8680.49
478.077	8793.12
478.282	8373.29
478.486	8365.1
478.691	8309.8
478.895	8459.31
479.1	8320.04
479.304	8369.19
479.509	8008.75
479.713	8318
479.918	7918.64
480.122	7846.96
480.326	8098.86
480.531	7996.46
480.735	7838.77
480.94	7965.75
481.144	8152.11
481.348	7906.35
481.553	7832.63
481.757	7590.97
481.961	7945.27
482.166	7763
482.37	7871.54
482.574	7722.04
482.778	7523.38
482.983	7746.61
483.187	7873.59
483.391	7801.91
483.595	7642.17
483.8	7523.38
484.004	7689.27
484.208	7728.18
484.412	7838.77
484.616	7568.44
484.821	7631.93
485.025	7611.45
485.229	7787.57
485.433	7685.17
485.637	7654.45
485.841	7580.73
486.045	7715.89
486.249	7625.78
486.453	7674.93
486.657	7652.41
486.861	7699.51
487.065	7447.61
487.269	7736.37
487.473	7543.86
487.677	7685.17
487.881	7861.3
488.085	7658.55
488.289	7687.22
488.493	7611.45
488.697	7740.47
488.901	7783.48
489.105	7638.07
489.309	7824.44
489.512	7930.93
489.716	7822.39
489.92	7775.28
490.124	7816.24
490.328	8125.49
490.531	7945.27
490.735	7894.07
490.939	7828.53
491.143	7820.34
491.346	7994.42
491.55	8041.52
491.754	8111.15
491.958	8068.14
492.161	7832.63
492.365	8264.75
492.569	8119.34
492.772	8156.21
492.976	8309.8
493.18	8293.42
493.383	8500.26
493.587	8508.46
493.79	8631.33
493.994	8303.66
494.197	8725.54
494.401	8741.93
494.605	8619.05
494.808	8746.02
495.012	8887.33
495.215	8920.1
495.419	8877.09
495.622	8965.15
495.825	8938.53
496.029	9024.54
496.232	9159.71
496.436	8918.05
496.639	9364.51
496.843	9303.07
497.046	9634.84
497.249	9645.08
497.453	9772.05
497.656	9856.02
497.859	9837.59
498.063	9829.4
498.266	10103.82
498.469	9784.34
498.673	10195.98
498.876	10224.65
499.079	10417.16
499.282	10494.99
499.485	10693.64
499.689	10687.5
499.892	11004.93
500.095	10763.27
500.298	11226.11
500.501	11195.39
500.705	11367.42
500.908	11559.93
501.111	11666.42
501.314	11670.52
501.517	11742.2
501.72	11869.17
501.923	11883.51
502.126	12372.97
502.329	12489.71
502.532	12469.23
502.735	12422.13
502.938	12606.44
503.141	12897.25
503.344	12981.22
503.547	13218.78
503.75	13140.96
503.953	13509.6
504.156	13546.46
504.359	14037.97
504.562	13800.41
504.765	14103.51
504.968	14183.38
505.17	14330.83
505.373	14328.78
505.576	14709.71
505.779	14693.32
505.982	14769.1
506.185	15133.64
506.387	15229.89
506.59	15492.03
506.793	15758.27
506.996	15444.93
507.198	16399.28
507.401	15991.73
507.604	16362.42
507.807	16393.14
508.009	16667.56
508.212	16499.63
508.415	17044.39
508.617	17109.93
508.82	17038.25
509.022	17200.04
509.225	17677.21
509.428	17654.69
509.63	17597.34
509.833	18361.23
510.035	18590.61
510.238	18520.98
510.44	18437.01
510.643	18809.74
510.845	19133.32
511.048	18905.99
511.25	19381.12
511.453	19350.4
511.655	20063.1
511.858	19749.76
512.06	20155.26
512.262	20294.52
512.465	20136.82
512.667	20540.27
512.87	20513.65
513.072	20859.76
513.274	21330.79
513.477	21367.65
513.679	21924.7
513.881	22006.62
514.084	22076.25
514.286	22358.87
514.488	22307.67
514.69	23092.04
514.893	23059.27
515.095	22973.26
515.297	23397.19
515.499	23554.88
515.701	23696.19
515.904	24234.81
516.106	24513.33
516.308	24410.93
516.51	24775.47
516.712	24881.97
516.914	25064.24
517.116	25357.1
517.318	25484.07
517.52	25514.79
517.722	25727.78
517.925	26092.32
518.127	26264.35
518.329	26518.29
518.531	26571.54
518.733	26919.7
518.935	27245.32
519.136	27370.25
519.338	27775.75
519.54	27794.18
519.742	28054.27
519.944	28347.13
520.146	28158.72
520.348	29154.03
520.55	28979.95
520.752	28834.55
520.954	29248.24
521.155	29629.16
521.357	30083.81
521.559	30079.71
521.761	30450.39
521.963	30558.94
522.164	30866.13
522.366	30909.14
522.568	31300.3
522.77	31257.29
522.971	31877.83
523.173	31544.01
523.375	31840.96
523.576	31578.82
523.778	32189.12
523.98	32819.89
524.181	32516.79
524.383	32498.36
524.584	33086.13
524.786	33104.56
524.988	32807.61
525.189	33555.11
525.391	33753.77
525.592	34052.77
525.794	34290.34
525.995	34015.91
526.197	34421.41
526.398	34390.69
526.6	34558.62
526.801	34894.49
527.003	34677.4
527.204	34908.82
527.406	35211.92
527.607	35117.71
527.808	35646.09
528.01	34763.42
528.211	35545.74
528.412	35938.95
528.614	36119.17
528.815	35840.65
529.016	36280.96
529.218	35963.53
529.419	36000.39
529.62	36125.32
529.822	36258.43
530.023	36422.27
530.224	36434.56
530.425	36399.74
530.626	35887.75
530.828	36240
531.029	37108.34
531.23	36508.29
531.431	36924.02
531.632	36940.41
531.833	37012.09
532.035	36754.04
532.236	36868.73
532.437	36942.45
532.638	36764.28
532.839	37257.84
533.04	37210.74
533.241	36997.75
533.442	37395.06
533.643	37167.73
533.844	37106.29
534.045	37542.51
534.246	37272.18
534.447	37350
534.648	37210.74
534.849	37292.66
535.05	37266.03
535.251	37444.21
535.451	37284.47
535.652	37218.93
535.853	37374.58
536.054	37177.97
536.255	37616.24
536.456	37163.64
536.657	37800.55
536.857	37323.38
537.058	37106.29
537.259	37806.7
537.46	37333.62
537.66	37501.55
537.861	37436.02
538.062	37388.91
538.263	37866.09
538.463	37272.18
538.664	37296.75
538.865	37571.18
539.065	37612.14
539.266	37177.97
539.466	37542.51
539.667	37323.38
539.868	37792.36
540.068	37341.81
540.269	37483.12
540.469	37739.11
540.67	37218.93
540.87	37341.81
541.071	37427.82
541.271	37333.62
541.472	37665.39
541.672	36936.31
541.873	37061.24
542.073	36936.31
542.274	37460.59
542.474	37616.24
542.675	37137.01
542.875	37511.79
543.075	37403.25
543.276	36528.77
543.476	37728.87
543.676	36797.05
543.877	37196.4
544.077	36934.26
544.277	37016.18
544.478	37386.86
544.678	37304.95
544.878	37239.41
545.078	37157.49
545.279	37071.48
545.479	36997.75
545.679	36690.55
545.879	37366.38
546.079	37452.4
546.28	37042.81
546.48	36500.09
546.68	36829.82
546.88	37280.37
547.08	37053.05
547.28	36891.26
547.48	37040.76
547.68	37051
547.88	36608.64
548.081	36778.62
548.281	37044.85
548.481	37036.66
548.681	36969.08
548.881	37198.45
549.081	37063.29
549.28	36584.06
549.48	37104.24
549.68	36948.6
549.88	36962.93
550.08	36762.23
550.28	36606.59
550.48	36946.55
550.68	36954.74
550.88	36887.16
551.08	36522.62
551.279	36815.48
551.479	36592.25
551.679	36956.79
551.879	36313.73
552.079	37032.57
552.278	36526.72
552.478	36747.9
552.678	36616.83
552.878	36823.67
553.077	36559.48
553.277	36395.65
553.477	36928.12
553.676	36379.26
553.876	36647.55
554.076	36240
554.275	36199.04
554.475	36225.67
554.674	36280.96
554.874	36645.5
555.074	36000.39
555.273	36579.96
555.473	36625.02
555.672	36084.36
555.872	36057.73
556.071	36295.3
556.271	36301.44
556.47	36117.12
556.67	35846.79
556.869	35785.35
557.068	36219.52
557.268	35783.3
557.467	35828.36
557.667	35846.79
557.866	35955.33
558.065	35580.56
558.265	35361.42
558.464	35793.54
558.663	36010.63
558.863	35078.8
559.062	35787.4
559.261	35326.61
559.461	35818.12
559.66	34978.45
559.859	35177.11
560.058	34816.66
560.258	35390.09
560.457	34708.12
560.656	35326.61
560.855	34888.34
561.054	35144.34
561.253	34759.32
561.453	34642.59
561.652	34996.88
561.851	34738.84
562.05	34491.04
562.249	34245.28
562.448	34751.13
562.647	34491.04
562.846	34136.74
563.045	34425.5
563.244	34075.3
563.443	34613.91
563.642	33544.87
563.841	34030.24
564.04	33847.97
564.239	34331.29
564.438	33864.36
564.637	33526.44
564.836	33823.4
565.035	33493.68
565.234	33702.57
565.432	33411.76
565.631	33059.51
565.83	33634.99
566.029	33419.95
566.228	33153.71
566.427	32946.87
566.625	33022.64
566.824	32473.79
567.023	33278.64
567.222	32541.37
567.42	32862.9
567.619	32783.03
567.818	32553.66
568.016	32381.63
568.215	32453.31
568.414	32352.96
568.612	32570.04
568.811	31969.99
569.01	32389.82
569.208	31826.63
569.407	31804.1
569.605	31312.59
569.804	31959.75
570.002	31505.1
570.201	31623.88
570.4	31333.07
570.598	31355.6
570.797	31046.35
570.995	31550.15
571.193	30896.85
571.392	31128.27
571.59	30608.09
571.789	31009.49
571.987	31163.09
572.186	30765.78
572.384	30667.48
572.582	30739.16
572.781	30569.18
572.979	30116.58
573.177	30300.89
573.376	30499.55
573.574	30364.38
573.772	30159.58
573.971	30073.57
574.169	29764.32
574.367	29815.52
574.565	30161.63
574.763	29768.42
574.962	29514.47
575.16	29186.8
575.358	29661.93
575.556	28986.1
575.754	29856.48
575.952	29184.75
576.151	29483.75
576.349	28934.9
576.547	29094.64
576.745	29004.53
576.943	28904.18
577.141	28969.71
577.339	29041.39
577.537	28623.61
577.735	28517.11
577.933	28336.89
578.131	28674.81
578.329	28162.81
578.527	28056.32
578.725	27947.78
578.923	28361.47
579.121	28089.09
579.319	27900.67
579.516	28148.48
579.714	28009.22
579.912	27835.14
580.11	27366.15
580.308	27822.85
580.506	27726.6
580.704	27136.78
580.901	27495.18
581.099	27632.39
581.297	27353.87
581.495	26999.57
581.692	27214.6
581.89	27089.68
582.088	27005.71
582.285	26749.71
582.483	27097.87
582.681	26522.39
582.878	26829.59
583.076	26575.64
583.274	26463
583.471	26397.46
583.669	26256.15
583.866	25981.73
584.064	26512.15
584.262	25799.46
584.459	26297.11
584.657	26088.22
584.854	26112.8
585.052	25647.91
585.249	25738.02
585.447	25840.42
585.644	25717.54
585.841	25525.03
586.039	25645.86
586.236	25258.79
586.434	25340.71
586.631	24871.73
586.828	25424.68
587.026	24998.7
587.223	25111.34
587.42	24945.45
587.618	25166.63
587.815	24920.88
588.012	24687.41
588.21	24677.17
588.407	24949.55
588.604	24341.3
588.801	24449.85
588.999	24136.51
589.196	24345.4
589.393	24347.45
589.59	23944
589.787	23870.27
589.984	23900.99
590.182	23731.01
590.379	24144.7
590.576	23857.98
590.773	23800.64
590.97	23583.55
591.167	23612.23
591.364	23341.89
591.561	23647.04
591.758	23075.66
591.955	23341.89
592.152	23483.2
592.349	23022.41
592.546	23247.69
592.743	23401.29
592.94	22829.9
593.137	22747.98
593.334	23042.89
593.531	22516.56
593.727	22713.17
593.924	22590.29
594.121	22469.46
594.318	22756.18
594.515	22098.78
594.712	22369.11
594.908	22143.83
595.105	22158.17
595.302	21977.95
595.499	22141.78
595.696	21820.25
595.892	21678.94
596.089	21846.88
596.286	22084.44
596.482	21738.33
596.679	21791.58
596.876	21767.01
597.072	21416.8
597.269	21468
597.466	21013.35
597.662	21298.02
597.859	21373.8
598.055	21396.32
598.252	20931.44
598.448	21275.49
598.645	21289.83
598.841	21013.35
599.038	21107.56
599.234	20769.65
599.431	20558.7
599.627	20614
599.824	20921.2
600.02	20364.15
600.217	20687.73
600.413	20493.17
600.609	20554.61
600.806	20106.1
601.002	20476.79
601.198	19934.07
601.395	20181.88
601.591	20075.38
601.787	20196.21
601.984	20003.71
602.18	20237.17
602.376	19504
602.572	19856.25
602.769	19841.92
602.965	19581.82
603.161	19630.98
603.357	19471.23
603.553	19594.11
603.75	19393.41
603.946	19368.84
604.142	19497.86
604.338	18934.67
604.534	19073.93
604.73	19012.49
604.926	18832.27
605.122	19078.02
605.318	19047.3
605.514	18936.71
605.71	18854.79
605.906	18570.13
606.102	19039.11
606.298	19018.63
606.494	18652.05
606.69	18635.66
606.886	18707.34
607.082	18416.53
607.278	18457.49
607.474	18074.52
607.67	18334.61
607.866	18232.21
608.062	18348.95
608.257	17957.78
608.453	18324.37
608.649	18115.48
608.845	18033.56
609.041	17882.01
609.236	18117.53
609.432	17646.49
609.628	17961.88
609.824	17955.74
610.019	17857.43
610.215	17525.66
610.411	17611.68
610.606	17683.36
610.802	17503.14
610.998	17583.01
611.193	17763.23
611.389	17628.06
611.584	17269.67
611.78	17513.38
611.976	17398.69
612.171	17531.81
612.367	17290.15
612.562	17034.15
612.758	17097.64
612.953	17036.2
613.149	17124.26
613.344	16976.81
613.539	17292.19
613.735	17146.79
613.93	17134.5
614.126	16968.62
614.321	17083.3
614.517	17054.63
614.712	16792.49
614.907	16782.25
615.103	17298.34
615.298	16692.14
615.493	16894.89
615.688	16655.28
615.884	16933.8
616.079	16642.99
616.274	16614.32
616.47	16540.59
616.665	16446.38
616.86	16477.1
617.055	16470.96
617.25	16257.97
617.445	16462.77
617.641	16016.31
617.836	16157.62
618.031	16151.48
618.226	16470.96
618.421	16202.68
618.616	16255.92
618.811	15774.65
619.006	16159.67
619.201	15823.8
619.396	15954.87
619.591	15543.23
619.786	15729.59
619.981	15320
620.176	15872.95
620.371	15543.23
620.566	15424.45
620.761	15221.7
620.956	15272.9
621.151	15262.66
621.346	15326.14
621.541	14668.75
621.735	15031.24
621.93	14789.58
622.125	14808.01
622.32	14642.12
622.515	14703.56
622.709	14517.2
622.904	14568.4
623.099	14537.68
623.294	14623.69
623.488	14246.87
623.683	14410.7
623.878	14224.34
624.072	14222.29
624.267	14216.15
624.462	13982.68
624.656	13870.04
624.851	14054.36
625.046	13927.38
625.24	13827.03
625.435	13593.56
625.629	13601.76
625.824	13632.47
626.018	13650.91
626.213	13155.3
626.407	13218.78
626.602	13112.29
626.796	13104.1
626.991	12995.56
627.185	13118.43
627.38	12940.26
627.574	12825.57
627.768	12973.03
627.963	12964.84
628.157	12569.58
628.352	12653.55
628.546	12545
628.74	12530.67
628.935	12379.12
629.129	12514.28
629.323	12170.22
629.517	11987.96
629.712	12112.88
629.906	11979.76
630.1	11740.15
630.294	11953.14
630.489	11809.78
630.683	11959.28
630.877	11570.17
631.071	11613.18
631.265	11664.38
631.459	11518.97
631.653	11332.61
631.848	11492.35
632.042	11443.2
632.236	11463.68
632.43	11199.49
632.624	11211.78
632.818	11303.93
633.012	11136
633.206	11060.23
633.4	10974.21
633.594	10910.72
633.788	10988.55
633.982	10837
634.176	10890.24
634.369	10826.76
634.563	10681.35
634.757	10570.76
634.951	10701.83
635.145	10312.72
635.339	10454.03
635.533	10273.81
635.726	10318.86
635.92	10337.29
636.114	10333.2
636.308	10114.06
636.501	10357.77
636.695	10157.07
636.889	9909.27
637.083	9892.88
637.276	9954.32
637.47	10007.57
637.664	9757.72
637.857	9911.32
638.051	9798.68
638.244	9432.09
638.438	9632.79
638.632	9550.87
638.825	9387.04
639.019	9471
639.212	9104.42
639.406	9409.56
639.599	9141.28
639.793	9368.6
639.986	9124.9
640.18	9141.28
640.373	8975.39
640.567	8967.2
640.76	9094.18
640.954	9002.02
641.147	8959.01
641.34	8946.72
641.534	8723.49
641.727	8817.7
641.92	8643.62
642.114	8426.54
642.307	8592.42
642.5	8414.25
642.694	8430.63
642.887	8442.92
643.08	8567.85
643.273	8377.39
643.467	8248.36
643.66	8246.32
643.853	8334.38
644.046	8193.07
644.239	8203.31
644.432	8180.78
644.626	8008.75
644.819	7973.94
645.012	7947.31
645.205	8166.45
645.398	8029.23
645.591	7779.38
645.784	7785.52
645.977	7793.72
646.17	7832.63
646.363	7615.54
646.556	7660.6
646.749	7558.2
646.942	7679.03
647.135	7509.05
647.328	7547.96
647.521	7408.7
647.714	7369.79
647.907	7416.89
648.099	7382.07
648.292	7320.63
648.485	7058.49
648.678	7164.99
648.871	7306.3
649.064	7035.97
649.256	7234.62
649.449	7142.46
649.642	6898.75
649.835	6911.04
650.027	6837.31
650.22	6769.73
650.413	6872.13
650.605	6777.92
650.798	6839.36
650.991	6775.88
651.183	6597.7
651.376	6644.81
651.568	6704.2
651.761	6716.48
651.954	6423.62
652.146	6603.85
652.339	6515.78
652.531	6399.05
652.724	6491.21
652.916	6321.23
653.109	6337.61
653.301	6306.89
653.494	6251.6
653.686	6227.02
653.879	6227.02
654.071	6235.21
654.263	6069.33
654.456	6288.46
654.648	6196.3
654.84	6098
655.033	6110.29
655.225	6106.19
655.417	5825.62
655.61	5882.96
655.802	6061.13
655.994	6054.99
656.186	5893.2
656.379	5821.52
656.571	5866.58
656.763	5751.89
656.955	5674.07
657.148	5745.75
657.34	5741.65
657.532	5547.09
657.724	5575.77
657.916	5631.06
658.108	5583.96
658.3	5489.75
658.492	5698.64
658.684	5606.49
658.876	5512.28
659.068	5391.45
659.26	5207.13
659.452	5344.35
659.644	5579.86
659.836	5280.86
660.028	5411.93
660.22	5135.45
660.412	5268.57
660.604	5205.08
660.796	5137.5
660.988	5100.64
661.18	5162.08
661.372	5121.12
661.563	5026.91
661.755	4949.09
661.947	5168.22
662.139	5100.64
662.331	4729.95
662.522	4955.23
662.714	4844.64
662.906	4940.9
663.097	4904.03
663.289	4957.28
663.481	4615.27
663.673	4781.15
663.864	4789.35
664.056	4711.52
664.247	4820.07
664.439	4666.47
664.631	4770.91
664.822	4715.62
665.014	4768.87
665.205	4564.07
665.397	4701.28
665.588	4564.07
665.78	4551.78
665.971	4512.87
666.163	4539.49
666.354	4537.45
666.546	4459.62
666.737	4369.51
666.929	4500.58
667.12	4453.48
667.311	4334.7
667.503	4375.66
667.694	4371.56
667.885	4392.04
668.077	4326.5
668.268	4230.25
668.459	4183.15
668.651	4238.44
668.842	4258.92
669.033	4181.1
669.224	4121.71
669.416	4256.87
669.607	4140.14
669.798	3984.49
669.989	4254.83
670.18	4281.45
670.371	4131.95
670.563	4011.12
670.754	4033.65
670.945	3904.62
671.136	3904.62
671.327	3808.37
671.518	4050.03
671.709	3906.67
671.9	3906.67
672.091	3923.05
672.282	3910.77
672.473	3925.1
672.664	3945.58
672.855	3751.03
673.046	3910.77
673.237	3884.14
673.428	3763.31
673.619	3732.59
673.809	3630.2
674	3785.84
674.191	3724.4
674.382	3660.91
674.573	3724.4
674.764	3714.16
674.954	3642.48
675.145	3570.8
675.336	3599.48
675.527	3581.04
675.717	3527.8
675.908	3632.24
676.099	3644.53
676.289	3673.2
676.48	3556.47
676.671	3564.66
676.861	3613.81
677.052	3441.78
677.243	3538.04
677.433	3601.52
677.624	3499.13
677.814	3470.45
678.005	3513.46
678.195	3564.66
678.386	3501.17
678.576	3482.74
678.767	3366.01
678.957	3492.98
679.148	3499.13
679.338	3447.93
679.529	3501.17
679.719	3437.69
679.909	3454.07
680.1	3370.1
680.29	3406.97
680.481	3392.63
680.671	3355.77
680.861	3349.62
681.052	3339.38
681.242	3390.58
681.432	3368.06
681.622	3275.9
681.813	3347.58
682.003	3204.22
682.193	3282.04
682.383	3323
682.573	3386.49
682.764	3306.62
682.954	3359.86
683.144	3255.42
683.334	3267.7
683.524	3191.93
683.714	3247.23
683.904	3173.5
684.094	3204.22
684.284	3265.66
684.474	3179.64
684.664	3036.28
684.854	3220.6
685.044	3030.14
685.234	3140.73
685.424	3118.2
685.614	3122.3
685.804	3040.38
685.994	2962.56
686.184	3144.83
686.374	3167.35
686.564	3044.48
686.753	2937.98
686.943	2854.02
687.133	3040.38
687.323	3091.58
687.513	2903.17
687.702	3019.9
687.892	2905.21
688.082	2964.61
688.272	2923.65
688.461	2966.65
688.651	2864.25
688.841	3026.04
689.03	2882.69
689.22	2843.78
689.41	2854.02
689.599	2825.34
689.789	2962.56
689.979	2925.69
690.168	2837.63
690.358	2950.27
690.547	2892.93
690.737	2937.98
690.926	2712.71
691.116	2743.42
691.305	2811.01
691.495	2851.97
691.684	2747.52
691.874	2565.25
692.063	2718.85
692.252	2860.16
692.442	2667.65
692.631	2737.28
692.82	2710.66
693.01	2780.29
693.199	2692.23
693.388	2776.19
693.578	2770.05
693.767	2673.79
693.956	2569.35
694.146	2565.25
694.335	2552.96
694.524	2659.46
694.713	2747.52
694.902	2499.72
695.092	2530.44
695.281	2618.5
695.47	2550.92
695.659	2538.63
695.848	2540.68
696.037	2733.18
696.226	2579.59
696.415	2536.58
696.604	2487.43
696.793	2479.24
696.982	2495.62
697.171	2464.9
697.36	2641.03
697.549	2544.77
697.738	2475.14
697.927	2401.41
698.116	2565.25
698.305	2428.04
698.494	2440.33
698.683	2450.57
698.872	2425.99
699.061	2421.89
699.25	2524.29
699.438	2567.3
699.627	2581.64
699.816	2516.1
700.005	2430.09
700.193	2487.43
700.382	2610.31
700.571	2475.14
700.76	2397.32
700.948	2520.2
701.137	2421.89
701.326	2477.19
701.514	2339.97
701.703	2499.72
701.892	2487.43
702.08	2600.07
702.269	2479.24
702.457	2337.93
702.646	2507.91
702.834	2514.05
703.023	2561.16
703.212	2487.43
703.4	2337.93
703.589	2473.09
703.777	2499.72
703.965	2331.78
704.154	2499.72
704.342	2536.58
704.531	2473.09
704.719	2407.56
704.907	2434.18
705.096	2354.31
705.284	2475.14
705.472	2442.37
705.661	2389.13
705.849	2444.42
706.037	2397.32
706.226	2380.93
706.414	2460.81
706.602	2452.61
706.79	2399.37
706.979	2380.93
707.167	2507.91
707.355	2544.77
707.543	2403.46
707.731	2393.22
707.919	2294.92
708.107	2350.21
708.296	2409.61
708.484	2290.82
708.672	2391.17
708.86	2395.27
709.048	2329.74
709.236	2454.66
709.424	2358.41
709.612	2479.24
709.8	2448.52
709.988	2270.34
710.176	2393.22
710.364	2407.56
710.551	2311.3
710.739	2444.42
710.927	2344.07
711.115	2280.58
711.303	2391.17
711.491	2385.03
711.679	2266.25
711.866	2456.71
712.054	2528.39
712.242	2354.31
712.43	2311.3
712.617	2323.59
712.805	2342.02
712.993	2360.45
713.181	2186.38
713.368	2421.89
713.556	2401.41
713.744	2284.68
713.931	2290.82
714.119	2366.6
714.306	2409.61
714.494	2342.02
714.682	2346.12
714.869	2428.04
715.057	2274.44
715.244	2337.93
715.432	2370.69
715.619	2356.36
715.807	2323.59
715.994	2376.84
716.182	2286.73
716.369	2299.02
716.556	2344.07
716.744	2299.02
716.931	2268.3
717.119	2321.54
717.306	2385.03
717.493	2217.1
717.681	2188.43
717.868	2301.06
718.055	2395.27
718.242	2200.71
718.43	2317.45
718.617	2274.44
718.804	2366.6
718.991	2233.48
719.179	2389.13
719.366	2172.04
719.553	2323.59
719.74	2192.52
719.927	2225.29
720.114	2270.34
720.301	2229.38
720.488	2286.73
720.676	2307.21
720.863	2331.78
721.05	2278.54
721.237	2344.07
721.424	2276.49
721.611	2387.08
721.798	2327.69
721.985	2174.09
722.172	2294.92
722.358	2253.96
722.545	2321.54
722.732	2198.67
722.919	2299.02
723.106	2288.78
723.293	2194.57
723.48	2200.71
723.667	2288.78
723.853	2135.18
724.04	2200.71
724.227	2194.57
724.414	2229.38
724.6	2237.58
724.787	2215.05
724.974	2239.62
725.161	2303.11
725.347	2204.81
725.534	2223.24
725.72	2249.86
725.907	2213
726.094	2315.4
726.28	2096.27
726.467	2245.77
726.653	2385.03
726.84	2290.82
727.027	2315.4
727.213	2151.56
727.4	2301.06
727.586	2202.76
727.773	2307.21
727.959	2264.2
728.145	2116.75
728.332	2268.3
728.518	2100.36
728.705	2225.29
728.891	2219.14
729.077	2182.28
729.264	2163.85
729.45	2198.67
729.636	2223.24
729.823	2088.07
730.009	2141.32
730.195	2145.42
730.382	2253.96
730.568	2239.62
730.754	2198.67
730.94	2188.43
731.126	2192.52
731.313	2151.56
731.499	2151.56
731.685	2120.84
731.871	2180.23
732.057	2172.04
732.243	2213
732.429	2227.34
732.615	2081.93
732.801	2217.1
732.987	2215.05
733.173	2202.76
733.359	2081.93
733.545	2086.03
733.731	2094.22
733.917	2118.79
734.103	2135.18
734.289	2073.74
734.475	2092.17
734.661	2262.15
734.847	2043.02
735.033	2210.95
735.219	2221.19
735.404	2186.38
735.59	2131.08
735.776	2069.64
735.962	2163.85
736.148	2102.41
736.333	2120.84
736.519	2186.38
736.705	2169.99
736.89	2053.26
737.076	2047.12
737.262	2059.4
737.447	2067.6
737.633	2176.14
737.819	2118.79
738.004	2032.78
738.19	2036.88
738.375	2092.17
738.561	2088.07
738.747	2024.59
738.932	1952.91
739.118	2055.31
739.303	2038.92
739.489	1997.96
739.674	2006.16
739.859	1983.63
740.045	2000.01
740.23	2126.99
740.416	1877.13
740.601	2065.55
740.786	1954.96
740.972	1916.05
741.157	1909.9
741.342	2000.01
741.528	1901.71
741.713	1940.62
741.898	2002.06
742.084	1934.48
742.269	1916.05
742.454	2016.4
742.639	2030.73
742.824	1916.05
743.01	1901.71
743.195	1991.82
743.38	1854.61
743.565	1827.98
743.75	1942.67
743.935	1987.72
744.12	1860.75
744.305	1811.6
744.49	1739.92
744.675	1883.28
744.86	1791.12
745.045	1893.52
745.23	1731.73
745.415	1873.04
745.6	1787.02
745.785	1815.69
745.97	1703.06
746.155	1805.46
746.34	1807.5
746.525	1735.82
746.71	1848.46
746.895	1709.2
747.079	1682.58
747.264	1637.52
747.449	1846.41
747.634	1582.23
747.819	1658
748.003	1680.53
748.188	1653.91
748.373	1672.34
748.557	1711.25
748.742	1680.53
748.927	1649.81
749.111	1682.58
749.296	1565.84
749.481	1563.79
749.665	1563.79
749.85	1537.17
750.034	1531.03
750.219	1543.32
750.404	1576.08
750.588	1612.95
750.773	1477.78
750.957	1567.89
751.141	1561.75
751.326	1426.58
751.51	1379.48
751.695	1629.33
751.879	1500.31
752.064	1514.64
752.248	1453.2
752.432	1438.87
752.617	1418.39
752.801	1416.34
752.985	1408.15
753.17	1408.15
753.354	1352.85
753.538	1440.92
753.722	1354.9
753.907	1324.18
754.091	1297.56
754.275	1418.39
754.459	1299.61
754.643	1340.57
754.828	1365.14
755.012	1334.42
755.196	1246.36
755.38	1268.89
755.564	1193.11
755.748	1295.51
755.932	1219.74
756.116	1238.17
756.3	1365.14
756.484	1266.84
756.668	1242.26
756.852	1242.26
757.036	1215.64
757.22	1234.07
757.404	1135.77
757.588	1201.3
757.772	1125.53
757.956	1221.78
758.14	1035.42
758.323	1100.95
758.507	1184.92
758.691	1121.43
758.875	1162.39
759.059	1096.86
759.242	1160.34
759.426	1012.89
759.61	1150.11
759.794	1094.81
759.977	1150.11
760.161	1072.28
760.345	1068.19
760.528	1076.38
760.712	1066.14
760.895	1025.18
761.079	1125.53
761.263	1057.95
761.446	994.46
761.63	1078.43
761.813	1103
761.997	973.98
762.18	1014.94
762.364	1031.32
762.547	1002.65
762.731	1014.94
762.914	992.41
763.098	955.55
763.281	1031.32
763.464	1041.56
763.648	976.03
763.831	1057.95
764.015	1008.8
764.198	982.17
764.381	914.59
764.564	1043.61
764.748	920.73
764.931	924.83
765.114	980.12
765.297	978.08
765.481	910.49
765.664	926.88
765.847	939.16
766.03	945.31
766.213	955.55
766.397	892.06
766.58	863.39
766.763	961.69
766.946	877.73
767.129	933.02
767.312	808.09
767.495	935.07
767.678	822.43
767.861	910.49
768.044	877.73
768.227	881.82
768.41	842.91
768.593	836.77
768.776	976.03
768.959	840.86
769.142	834.72
769.324	830.62
769.507	760.99
769.69	834.72
769.873	822.43
770.056	933.02
770.239	840.86
770.421	877.73
770.604	812.19
770.787	773.28
770.97	869.53
771.152	806.05
771.335	754.85
771.518	812.19
771.7	828.57
771.883	793.76
772.066	779.42
772.248	853.15
772.431	773.28
772.613	771.23
772.796	699.55
772.978	724.13
773.161	771.23
773.343	785.57
773.526	693.41
773.708	728.22
773.891	691.36
774.073	744.61
774.256	720.03
774.438	746.66
774.621	687.26
774.803	726.18
774.985	699.55
775.168	760.99
775.35	730.27
775.532	701.6
775.715	703.65
775.897	668.83
776.079	681.12
776.261	697.5
776.444	703.65
776.626	625.83
776.808	621.73
776.99	640.16
777.173	709.79
777.355	699.55
777.537	658.59
777.719	601.25
777.901	631.97
778.083	668.83
778.265	537.76
778.447	607.39
778.629	601.25
778.811	556.19
778.993	668.83
779.175	685.22
779.357	572.58
779.539	660.64
779.721	650.4
779.903	529.57
780.085	511.14
780.267	607.39
780.449	529.57
780.631	582.82
780.812	545.95
780.994	511.14
781.176	591.01
781.358	509.09
781.54	498.85
781.721	478.37
781.903	439.46
782.085	537.76
782.267	525.47
782.448	525.47
782.63	449.7
782.812	509.09
782.993	529.57
783.175	611.49
783.357	488.61
783.538	519.33
783.72	527.52
783.901	498.85
784.083	515.23
784.264	435.36
784.446	496.8
784.627	400.55
784.809	459.94
784.99	453.8
785.172	386.21
785.353	406.69
785.535	498.85
785.716	468.13
785.897	375.97
786.079	406.69
786.26	400.55
786.441	472.23
786.623	363.69
786.804	363.69
786.985	378.02
787.167	441.51
787.348	464.04
787.529	480.42
787.71	427.17
787.891	369.83
788.073	347.3
788.254	431.27
788.435	457.89
788.616	396.45
788.797	414.88
788.978	380.07
789.159	390.31
789.34	373.92
789.522	394.4
789.703	414.88
789.884	281.77
790.065	345.25
790.246	408.74
790.427	388.26
790.607	337.06
790.788	394.4
790.969	294.05
791.15	328.87
791.331	392.36
791.512	353.45
791.693	322.73
791.874	375.97
792.054	337.06
792.235	345.25
792.416	273.57
792.597	296.1
792.778	341.16
792.958	265.38
793.139	373.92
793.32	322.73
793.5	283.81
793.681	332.97
793.862	324.77
794.042	339.11
794.223	214.18
794.404	353.45
794.584	283.81
794.765	302.25
794.945	228.52
795.126	320.68
795.306	279.72
795.487	279.72
795.667	285.86
795.848	257.19
796.028	197.8
796.209	273.57
796.389	302.25
796.57	265.38
796.75	240.81
796.93	277.67
797.111	263.33
797.291	230.57
797.471	171.18
797.652	267.43
797.832	255.14
798.012	261.29
798.192	228.52
798.373	267.43
798.553	208.04
798.733	261.29
798.913	308.39
799.093	304.29
799.274	183.46
799.454	222.38
799.634	275.62
799.814	298.15
799.994	246.95
800.174	226.47
800.354	304.29
800.534	234.66
800.714	269.48
800.894	224.42
801.074	236.71
801.254	177.32
801.434	197.8
801.614	132.26
801.794	146.6
801.974	631.97
802.154	304.29
802.334	210.09
802.514	171.18
802.693	160.94
802.873	193.7
803.053	232.62
803.233	173.22
803.413	236.71
803.592	226.47
803.772	183.46
803.952	234.66
804.131	275.62
804.311	236.71
804.491	238.76
804.67	144.55
804.85	218.28
805.03	205.99
805.209	191.66
805.389	167.08
805.568	185.51
805.748	208.04
805.928	140.46
806.107	195.75
806.287	144.55
806.466	232.62
806.646	228.52
806.825	208.04
807.004	156.84
807.184	246.95
807.363	146.6
807.543	205.99
807.722	111.78
807.901	169.13
808.081	222.38
808.26	210.09
808.439	148.65
808.619	103.59
808.798	251.05
808.977	197.8
809.156	126.12
809.336	179.37
809.515	160.94
809.694	185.51
809.873	185.51
810.052	210.09
810.231	189.61
810.411	144.55
810.59	181.42
810.769	181.42
810.948	144.55
811.127	81.07
811.306	107.69
811.485	210.09
811.664	214.18
811.843	169.13
812.022	187.56
812.201	201.9
812.38	130.22
812.559	107.69
812.737	255.14
812.916	144.55
813.095	183.46
813.274	197.8
813.453	167.08
813.632	124.07
813.811	183.46
813.989	66.73
814.168	107.69
814.347	130.22
814.526	185.51
814.704	218.28
814.883	152.74
815.062	160.94
815.24	115.88
815.419	119.98
815.598	175.27
815.776	136.36
815.955	179.37
816.133	138.41
816.312	154.79
816.49	79.02
816.669	105.64
816.847	150.7
817.026	95.4
817.204	124.07
817.383	115.88
817.561	154.79
817.74	50.35
817.918	117.93
818.097	171.18
818.275	68.78
818.453	144.55
818.632	175.27
818.81	173.22
818.988	81.07
819.167	113.83
819.345	83.11
819.523	87.21
819.701	152.74
819.879	126.12
820.058	70.83
820.236	93.35
820.414	97.45
820.592	97.45
820.77	93.35
820.948	134.31
821.127	33.96
821.305	132.26
821.483	117.93
821.661	144.55
821.839	5.29
822.017	117.93
822.195	140.46
822.373	83.11
822.551	89.26
822.729	191.66
822.907	101.55
823.085	89.26
823.262	95.4
823.44	144.55
823.618	87.21
823.796	117.93
823.974	117.93
824.152	109.74
824.329	74.92
824.507	93.35
824.685	66.73
824.863	134.31
825.04	81.07
825.218	107.69
825.396	87.21
825.574	156.84
825.751	74.92
825.929	115.88
826.107	103.59
826.284	156.84
826.462	33.96
826.639	64.68
826.817	68.78
826.994	79.02
827.172	58.54
827.349	99.5
827.527	46.25
827.704	111.78
827.882	113.83
828.059	70.83
828.237	113.83
828.414	111.78
828.591	13.48
828.769	60.59
828.946	56.49
829.124	134.31
829.301	74.92
829.478	111.78
829.655	144.55
829.833	79.02
830.01	25.77
830.187	79.02
830.364	17.58
830.542	115.88
830.719	101.55
830.896	122.02
831.073	134.31
831.25	101.55
831.427	101.55
831.604	109.74
831.782	29.87
831.959	52.39
832.136	38.06
832.313	76.97
832.49	36.01
832.667	146.6
832.844	42.15
833.021	111.78
833.198	54.44
833.374	60.59
833.551	27.82
833.728	81.07
833.905	38.06
834.082	70.83
834.259	87.21
834.436	74.92
834.612	83.11
834.789	74.92
834.966	83.11
835.143	89.26
835.319	54.44
835.496	101.55
835.673	-21.33
835.85	66.73
836.026	40.11
836.203	103.59
836.38	74.92
836.556	29.87
836.733	81.07
836.909	89.26
837.086	54.44
837.262	44.2
837.439	13.48
837.616	103.59
837.792	13.48
837.968	46.25
838.145	76.97
838.321	79.02
838.498	124.07
838.674	72.87
838.851	-11.09
839.027	79.02
839.203	44.2
839.38	36.01
839.556	87.21
839.732	64.68
839.909	54.44
840.085	74.92
840.261	44.2
840.437	42.15
840.614	54.44
840.79	79.02
840.966	117.93
841.142	89.26
841.318	-43.86
841.494	33.96
841.671	81.07
841.847	5.29
842.023	17.58
842.199	31.91
842.375	72.87
842.551	76.97
842.727	124.07
842.903	33.96
843.079	103.59
843.255	70.83
843.431	117.93
843.607	62.63
843.783	38.06
843.959	85.16
844.134	29.87
844.31	60.59
844.486	93.35
844.662	132.26
844.838	25.77
845.013	38.06
845.189	9.39
845.365	21.67
845.541	58.54
845.716	13.48
845.892	62.63
846.068	36.01
846.244	70.83
846.419	-7
846.595	-29.52
846.77	11.43
846.946	70.83
847.122	33.96
847.297	-33.62
847.473	107.69
847.648	42.15
847.824	21.67
847.999	11.43
848.175	44.2
848.35	44.2
848.526	29.87
848.701	128.17
848.876	42.15
849.052	91.31
849.227	52.39
849.403	52.39
849.578	29.87
849.753	44.2
849.929	21.67
850.104	79.02
850.279	25.77
850.454	83.11
850.63	66.73
850.805	17.58
850.98	70.83
851.155	58.54
851.33	27.82
851.505	38.06
851.681	33.96
851.856	-29.52
852.031	87.21
852.206	107.69
852.381	23.72
852.556	103.59
852.731	56.49
852.906	-0.85
853.081	48.3
853.256	83.11
853.431	-27.48
853.606	-0.85
853.781	21.67
853.956	95.4
854.131	68.78
854.305	38.06
854.48	40.11
854.655	-35.67
854.83	13.48
855.005	25.77
855.18	40.11
855.354	33.96
855.529	29.87
855.704	-23.38
855.879	93.35
856.053	13.48
856.228	60.59
856.403	40.11
856.577	113.83
856.752	-9.05
856.926	-45.91
857.101	46.25
857.276	48.3
857.45	115.88
857.625	40.11
857.799	-39.76
857.974	1.19
858.148	11.43
858.323	-15.19
858.497	38.06
858.672	72.87
858.846	5.29
859.02	66.73
859.195	-35.67
859.369	17.58
859.543	79.02
859.718	66.73
859.892	-7
860.066	31.91
860.241	7.34
860.415	70.83
860.589	1.19
860.763	58.54
860.938	7.34
861.112	21.67
861.286	56.49
861.46	-7
861.634	52.39
861.808	36.01
861.982	17.58
862.157	113.83
862.331	25.77
862.505	-27.48
862.679	-76.63
862.853	103.59
863.027	-64.34
863.201	89.26
863.375	-9.05
863.549	38.06
863.722	21.67
863.896	38.06
864.07	66.73
864.244	7.34
864.418	19.63
864.592	25.77
864.766	25.77
864.939	-17.24
865.113	-2.9
865.287	-29.52
865.461	44.2
865.634	44.2
865.808	21.67
865.982	27.82
866.156	33.96
866.329	38.06
866.503	11.43
866.676	11.43
866.85	87.21
867.024	5.29
867.197	31.91
867.371	64.68
867.544	64.68
867.718	66.73
867.891	91.31
868.065	-31.57
868.238	-23.38
868.412	107.69
868.585	-2.9
868.759	25.77
868.932	-39.76
869.105	29.87
869.279	50.35
869.452	33.96
869.625	1.19
869.799	-4.95
869.972	-19.29
870.145	3.24
870.319	42.15
870.492	-2.9
870.665	25.77
870.838	13.48
871.011	19.63
871.185	-37.72
871.358	13.48
871.531	38.06
871.704	9.39
871.877	1.19
872.05	25.77
872.223	64.68
872.396	11.43
872.569	54.44
872.742	-15.19
872.915	-7
873.088	13.48
873.261	52.39
873.434	-0.85
873.607	5.29
873.78	42.15
873.953	38.06
874.126	13.48
874.299	-58.2
874.471	36.01
874.644	27.82
874.817	105.64
874.99	-21.33
875.163	33.96
875.335	-50
875.508	50.35
875.681	103.59
875.853	-4.95
876.026	42.15
876.199	15.53
876.371	70.83
876.544	33.96
876.717	-27.48
876.889	40.11
877.062	70.83
877.234	25.77
877.407	50.35
877.579	31.91
877.752	25.77
877.924	72.87
878.097	52.39
878.269	-54.1
878.442	36.01
878.614	9.39
878.786	7.34
878.959	-37.72
879.131	11.43
879.303	-21.33
879.476	7.34
879.648	13.48
879.82	3.24
879.993	76.97
880.165	-19.29
880.337	36.01
880.509	-17.24
880.681	-29.52
880.854	-54.1
881.026	31.91
881.198	52.39
881.37	3.24
881.542	23.72
881.714	-15.19
881.886	-25.43
882.058	21.67
882.23	42.15
882.402	29.87
882.574	-15.19
882.746	38.06
882.918	-33.62
883.09	25.77
883.262	40.11
883.434	33.96
883.606	87.21
883.778	38.06
883.95	-31.57
884.122	25.77
884.293	25.77
884.465	-56.15
884.637	-29.52
884.809	19.63
884.98	50.35
885.152	-13.14
885.324	44.2
885.496	3.24
885.667	99.5
885.839	-50
886.011	15.53
886.182	29.87
886.354	-4.95
886.525	-2.9
886.697	-31.57
886.869	13.48
887.04	7.34
887.212	11.43
887.383	79.02
887.555	44.2
887.726	25.77
887.897	-15.19
888.069	-56.15
888.24	13.48
888.412	23.72
888.583	17.58
888.754	117.93
888.926	-21.33
889.097	-25.43
889.268	-19.29
889.44	7.34
889.611	-21.33
889.782	13.48
889.953	-7
890.125	9.39
890.296	-33.62
890.467	17.58
890.638	1.19
890.809	-2.9
890.98	19.63
891.151	9.39
891.323	58.54
891.494	40.11
891.665	-21.33
891.836	66.73
892.007	-13.14
892.178	40.11
892.349	19.63
892.52	-9.05
892.691	-37.72
892.862	72.87
893.032	-15.19
893.203	31.91
893.374	54.44
893.545	-31.57
893.716	-29.52
893.887	-17.24
894.057	-9.05
894.228	9.39
894.399	58.54
894.57	19.63
894.74	-31.57
894.911	68.78
895.082	-82.77
895.253	48.3
895.423	48.3
895.594	70.83
895.764	-19.29
895.935	5.29
896.106	-11.09
896.276	-76.63
896.447	-43.86
896.617	-15.19
896.788	-25.43
896.958	152.74
897.129	97.45
897.299	21.67
897.47	38.06
897.64	36.01
897.81	9.39
897.981	36.01
898.151	-54.1
898.322	5.29
898.492	-25.43
898.662	33.96
898.832	1.19
899.003	15.53
899.173	128.17
899.343	31.91
899.513	1.19
