Data from USB4F104151__86__11-06-37-042.txt Node

Date: Wed Mar 12 11:06:37 EDT 2025
User: louis
Spectrometer: USB4F10415
Trigger mode: 4
Integration Time (sec): 2.000000E-2
Scans to average: 1
Electric dark correction enabled: true
Nonlinearity correction enabled: false
Boxcar width: 0
XAxis mode: Wavelengths
Number of Pixels in Spectrum: 3648
>>>>>Begin Spectral Data<<<<<
178.204	-103.42
178.424	-103.42
178.644	-103.42
178.864	-58.37
179.084	-60.42
179.304	9.22
179.524	-25.6
179.744	-17.41
179.964	-44.03
180.184	62.46
180.404	84.99
180.624	-46.08
180.844	35.84
181.064	-56.32
181.283	-29.7
181.503	-1.02
181.723	27.65
181.943	-3.07
182.163	1.02
182.383	-3.07
182.602	1.02
182.822	5.12
183.042	35.84
183.262	-13.31
183.482	25.6
183.701	41.98
183.921	31.74
184.141	21.5
184.361	54.27
184.58	11.26
184.8	13.31
185.02	13.31
185.239	39.94
185.459	5.12
185.679	60.42
185.898	9.22
186.118	9.22
186.338	-27.65
186.557	74.75
186.777	-58.37
186.997	-27.65
187.216	-27.65
187.436	50.18
187.655	7.17
187.875	-5.12
188.095	29.7
188.314	-5.12
188.534	-9.22
188.753	41.98
188.973	-17.41
189.192	52.22
189.412	35.84
189.631	-19.46
189.851	31.74
190.07	41.98
190.29	15.36
190.509	-1.02
190.729	21.5
190.948	46.08
191.168	181.25
191.387	5.12
191.607	15.36
191.826	-11.26
192.045	-17.41
192.265	-23.55
192.484	-5.12
192.704	33.79
192.923	29.7
193.142	84.99
193.362	107.52
193.581	111.61
193.8	-23.55
194.02	15.36
194.239	7.17
194.458	9.22
194.678	76.8
194.897	62.46
195.116	35.84
195.335	35.84
195.555	68.61
195.774	82.94
195.993	52.22
196.212	9.22
196.432	-50.18
196.651	-3.07
196.87	27.65
197.089	128
197.308	50.18
197.528	-3.07
197.747	17.41
197.966	95.23
198.185	29.7
198.404	-41.98
198.623	56.32
198.842	-5.12
199.062	33.79
199.281	76.8
199.5	13.31
199.719	25.6
199.938	50.18
200.157	97.28
200.376	54.27
200.595	9.22
200.814	68.61
201.033	-13.31
201.252	-19.46
201.471	31.74
201.69	-7.17
201.909	13.31
202.128	13.31
202.347	11.26
202.566	84.99
202.785	3.07
203.004	21.5
203.223	66.56
203.442	25.6
203.661	-23.55
203.879	80.89
204.098	-66.56
204.317	39.94
204.536	21.5
204.755	37.89
204.974	5.12
205.193	25.6
205.411	39.94
205.63	52.22
205.849	23.55
206.068	68.61
206.287	7.17
206.505	21.5
206.724	-35.84
206.943	17.41
207.162	15.36
207.381	62.46
207.599	-3.07
207.818	25.6
208.037	41.98
208.255	-80.89
208.474	41.98
208.693	11.26
208.911	5.12
209.13	-46.08
209.349	121.85
209.567	33.79
209.786	21.5
210.005	33.79
210.223	5.12
210.442	-11.26
210.661	27.65
210.879	-11.26
211.098	41.98
211.316	-27.65
211.535	23.55
211.753	-19.46
211.972	35.84
212.191	56.32
212.409	109.57
212.628	23.55
212.846	113.66
213.065	-19.46
213.283	95.23
213.502	1.02
213.72	39.94
213.938	58.37
214.157	27.65
214.375	17.41
214.594	35.84
214.812	50.18
215.031	60.42
215.249	33.79
215.467	70.65
215.686	31.74
215.904	31.74
216.122	58.37
216.341	68.61
216.559	50.18
216.778	-13.31
216.996	29.7
217.214	-19.46
217.432	-15.36
217.651	82.94
217.869	-44.03
218.087	-41.98
218.306	48.13
218.524	17.41
218.742	21.5
218.96	23.55
219.179	-80.89
219.397	17.41
219.615	13.31
219.833	64.51
220.051	-11.26
220.27	11.26
220.488	15.36
220.706	84.99
220.924	33.79
221.142	13.31
221.36	-1.02
221.578	-21.5
221.796	-9.22
222.015	54.27
222.233	11.26
222.451	25.6
222.669	17.41
222.887	17.41
223.105	25.6
223.323	62.46
223.541	35.84
223.759	15.36
223.977	-27.65
224.195	41.98
224.413	72.7
224.631	41.98
224.849	-21.5
225.067	64.51
225.285	37.89
225.503	62.46
225.721	58.37
225.939	-7.17
226.157	19.46
226.375	82.94
226.592	62.46
226.81	44.03
227.028	17.41
227.246	52.22
227.464	-3.07
227.682	23.55
227.9	62.46
228.117	-1.02
228.335	-60.42
228.553	13.31
228.771	13.31
228.989	93.18
229.206	-35.84
229.424	27.65
229.642	17.41
229.86	1.02
230.077	58.37
230.295	-1.02
230.513	-31.74
230.731	68.61
230.948	31.74
231.166	44.03
231.384	-64.51
231.601	48.13
231.819	54.27
232.037	-21.5
232.254	-35.84
232.472	54.27
232.689	44.03
232.907	23.55
233.125	9.22
233.342	84.99
233.56	-27.65
233.777	64.51
233.995	-9.22
234.213	74.75
234.43	37.89
234.648	-1.02
234.865	3.07
235.083	39.94
235.3	33.79
235.518	21.5
235.735	46.08
235.953	78.85
236.17	-44.03
236.388	-11.26
236.605	111.61
236.822	50.18
237.04	5.12
237.257	44.03
237.475	-1.02
237.692	-23.55
237.909	54.27
238.127	15.36
238.344	-19.46
238.562	58.37
238.779	52.22
238.996	9.22
239.214	44.03
239.431	9.22
239.648	5.12
239.865	37.89
240.083	-23.55
240.3	-17.41
240.517	-11.26
240.735	60.42
240.952	33.79
241.169	17.41
241.386	21.5
241.603	9.22
241.821	41.98
242.038	46.08
242.255	-52.22
242.472	35.84
242.689	93.18
242.907	41.98
243.124	74.75
243.341	29.7
243.558	-48.13
243.775	-33.79
243.992	54.27
244.209	74.75
244.426	33.79
244.643	-7.17
244.86	21.5
245.078	-15.36
245.295	87.04
245.512	23.55
245.729	-31.74
245.946	66.56
246.163	33.79
246.38	29.7
246.597	3.07
246.814	62.46
247.031	29.7
247.248	-17.41
247.464	41.98
247.681	5.12
247.898	-3.07
248.115	-15.36
248.332	37.89
248.549	7.17
248.766	50.18
248.983	13.31
249.2	50.18
249.417	70.65
249.633	-50.18
249.85	21.5
250.067	5.12
250.284	33.79
250.501	52.22
250.717	-15.36
250.934	9.22
251.151	-27.65
251.368	62.46
251.585	44.03
251.801	-5.12
252.018	17.41
252.235	-15.36
252.451	-27.65
252.668	62.46
252.885	130.05
253.102	64.51
253.318	-52.22
253.535	5.12
253.752	-19.46
253.968	21.5
254.185	72.7
254.401	29.7
254.618	17.41
254.835	-37.89
255.051	5.12
255.268	-33.79
255.484	56.32
255.701	5.12
255.917	56.32
256.134	19.46
256.351	-27.65
256.567	21.5
256.784	13.31
257	-19.46
257.217	3.07
257.433	62.46
257.65	17.41
257.866	13.31
258.082	1.02
258.299	-23.55
258.515	54.27
258.732	3.07
258.948	74.75
259.165	44.03
259.381	-39.94
259.597	56.32
259.814	50.18
260.03	-31.74
260.246	13.31
260.463	-19.46
260.679	-39.94
260.895	-7.17
261.112	15.36
261.328	46.08
261.544	29.7
261.761	46.08
261.977	44.03
262.193	7.17
262.409	35.84
262.626	13.31
262.842	82.94
263.058	-50.18
263.274	37.89
263.49	19.46
263.707	82.94
263.923	-1.02
264.139	99.33
264.355	11.26
264.571	19.46
264.787	-31.74
265.004	64.51
265.22	11.26
265.436	27.65
265.652	-9.22
265.868	33.79
266.084	-66.56
266.3	89.09
266.516	-3.07
266.732	72.7
266.948	103.42
267.164	31.74
267.38	62.46
267.596	29.7
267.812	5.12
268.028	66.56
268.244	-19.46
268.46	15.36
268.676	54.27
268.892	35.84
269.108	13.31
269.324	9.22
269.54	-25.6
269.756	50.18
269.972	-1.02
270.188	-52.22
270.403	-15.36
270.619	-19.46
270.835	-27.65
271.051	82.94
271.267	-19.46
271.483	-3.07
271.698	11.26
271.914	-7.17
272.13	17.41
272.346	84.99
272.562	62.46
272.777	-64.51
272.993	19.46
273.209	64.51
273.425	-1.02
273.64	13.31
273.856	23.55
274.072	7.17
274.287	-31.74
274.503	58.37
274.719	140.29
274.934	25.6
275.15	74.75
275.366	105.47
275.581	103.42
275.797	37.89
276.012	56.32
276.228	39.94
276.444	52.22
276.659	19.46
276.875	62.46
277.09	31.74
277.306	29.7
277.521	9.22
277.737	13.31
277.952	68.61
278.168	37.89
278.383	50.18
278.599	41.98
278.814	27.65
279.03	7.17
279.245	87.04
279.461	54.27
279.676	-1.02
279.892	11.26
280.107	-5.12
280.322	-68.61
280.538	23.55
280.753	103.42
280.969	17.41
281.184	3.07
281.399	44.03
281.615	60.42
281.83	78.85
282.045	-9.22
282.26	44.03
282.476	31.74
282.691	138.24
282.906	-27.65
283.122	58.37
283.337	-19.46
283.552	31.74
283.767	-29.7
283.983	76.8
284.198	50.18
284.413	7.17
284.628	29.7
284.843	44.03
285.058	21.5
285.274	-5.12
285.489	5.12
285.704	21.5
285.919	-21.5
286.134	58.37
286.349	25.6
286.564	41.98
286.779	15.36
286.995	33.79
287.21	101.37
287.425	19.46
287.64	80.89
287.855	39.94
288.07	-11.26
288.285	11.26
288.5	76.8
288.715	78.85
288.93	-5.12
289.145	48.13
289.36	21.5
289.575	52.22
289.79	97.28
290.004	13.31
290.219	-15.36
290.434	7.17
290.649	39.94
290.864	-37.89
291.079	48.13
291.294	68.61
291.509	-25.6
291.724	-62.46
291.938	-64.51
292.153	-21.5
292.368	-11.26
292.583	33.79
292.798	37.89
293.012	56.32
293.227	33.79
293.442	37.89
293.657	33.79
293.871	72.7
294.086	1.02
294.301	37.89
294.516	58.37
294.73	48.13
294.945	-23.55
295.16	78.85
295.374	87.04
295.589	123.9
295.804	21.5
296.018	25.6
296.233	46.08
296.447	13.31
296.662	74.75
296.877	27.65
297.091	84.99
297.306	23.55
297.52	3.07
297.735	41.98
297.949	-3.07
298.164	33.79
298.378	46.08
298.593	29.7
298.807	80.89
299.022	-68.61
299.236	82.94
299.451	37.89
299.665	3.07
299.88	25.6
300.094	140.29
300.309	46.08
300.523	5.12
300.737	52.22
300.952	29.7
301.166	27.65
301.381	17.41
301.595	31.74
301.809	87.04
302.024	9.22
302.238	29.7
302.452	37.89
302.667	27.65
302.881	52.22
303.095	-25.6
303.309	-11.26
303.524	37.89
303.738	23.55
303.952	50.18
304.166	35.84
304.381	31.74
304.595	70.65
304.809	62.46
305.023	29.7
305.237	50.18
305.452	-35.84
305.666	19.46
305.88	121.85
306.094	41.98
306.308	33.79
306.522	64.51
306.736	15.36
306.95	29.7
307.164	11.26
307.379	39.94
307.593	66.56
307.807	52.22
308.021	17.41
308.235	35.84
308.449	54.27
308.663	78.85
308.877	60.42
309.091	21.5
309.305	76.8
309.519	7.17
309.733	109.57
309.947	62.46
310.161	62.46
310.374	76.8
310.588	39.94
310.802	-5.12
311.016	64.51
311.23	103.42
311.444	84.99
311.658	91.13
311.872	105.47
312.085	-21.5
312.299	23.55
312.513	17.41
312.727	50.18
312.941	87.04
313.154	95.23
313.368	-27.65
313.582	91.13
313.796	25.6
314.009	21.5
314.223	29.7
314.437	21.5
314.651	54.27
314.864	39.94
315.078	21.5
315.292	78.85
315.505	3.07
315.719	37.89
315.933	39.94
316.146	-41.98
316.36	-35.84
316.573	25.6
316.787	74.75
317.001	7.17
317.214	44.03
317.428	17.41
317.641	23.55
317.855	31.74
318.068	21.5
318.282	105.47
318.495	60.42
318.709	31.74
318.922	76.8
319.136	15.36
319.349	13.31
319.563	97.28
319.776	29.7
319.99	-11.26
320.203	39.94
320.417	-7.17
320.63	35.84
320.843	128
321.057	41.98
321.27	-29.7
321.483	97.28
321.697	62.46
321.91	101.37
322.124	64.51
322.337	74.75
322.55	-21.5
322.763	35.84
322.977	-29.7
323.19	-41.98
323.403	-17.41
323.617	91.13
323.83	89.09
324.043	66.56
324.256	-44.03
324.469	13.31
324.683	64.51
324.896	25.6
325.109	-11.26
325.322	-21.5
325.535	121.85
325.748	41.98
325.962	56.32
326.175	117.76
326.388	37.89
326.601	5.12
326.814	89.09
327.027	52.22
327.24	93.18
327.453	9.22
327.666	11.26
327.879	33.79
328.092	35.84
328.305	11.26
328.518	50.18
328.731	-48.13
328.944	-3.07
329.157	29.7
329.37	54.27
329.583	76.8
329.796	101.37
330.009	5.12
330.222	52.22
330.435	50.18
330.648	60.42
330.861	23.55
331.073	-11.26
331.286	119.81
331.499	19.46
331.712	87.04
331.925	78.85
332.138	103.42
332.35	39.94
332.563	74.75
332.776	78.85
332.989	70.65
333.202	60.42
333.414	13.31
333.627	99.33
333.84	76.8
334.053	54.27
334.265	-50.18
334.478	11.26
334.691	17.41
334.903	107.52
335.116	13.31
335.329	70.65
335.541	5.12
335.754	33.79
335.966	39.94
336.179	21.5
336.392	48.13
336.604	13.31
336.817	-1.02
337.029	87.04
337.242	35.84
337.454	25.6
337.667	-17.41
337.88	103.42
338.092	23.55
338.305	29.7
338.517	39.94
338.729	54.27
338.942	-11.26
339.154	17.41
339.367	-37.89
339.579	54.27
339.792	80.89
340.004	66.56
340.217	-46.08
340.429	64.51
340.641	21.5
340.854	41.98
341.066	54.27
341.278	91.13
341.491	64.51
341.703	9.22
341.915	44.03
342.128	17.41
342.34	97.28
342.552	3.07
342.764	68.61
342.977	11.26
343.189	58.37
343.401	25.6
343.613	-15.36
343.826	58.37
344.038	-25.6
344.25	56.32
344.462	-3.07
344.674	39.94
344.886	5.12
345.099	41.98
345.311	7.17
345.523	25.6
345.735	21.5
345.947	39.94
346.159	29.7
346.371	60.42
346.583	78.85
346.795	54.27
347.007	-44.03
347.219	13.31
347.431	29.7
347.643	62.46
347.855	-35.84
348.067	-17.41
348.279	29.7
348.491	-5.12
348.703	80.89
348.915	7.17
349.127	33.79
349.339	46.08
349.551	84.99
349.763	-29.7
349.975	66.56
350.187	99.33
350.399	5.12
350.61	31.74
350.822	17.41
351.034	58.37
351.246	19.46
351.458	87.04
351.669	39.94
351.881	140.29
352.093	54.27
352.305	31.74
352.517	72.7
352.728	23.55
352.94	29.7
353.152	66.56
353.363	-27.65
353.575	68.61
353.787	109.57
353.999	66.56
354.21	56.32
354.422	44.03
354.633	37.89
354.845	89.09
355.057	72.7
355.268	70.65
355.48	82.94
355.692	119.81
355.903	64.51
356.115	-3.07
356.326	11.26
356.538	99.33
356.749	82.94
356.961	58.37
357.172	-25.6
357.384	52.22
357.595	21.5
357.807	37.89
358.018	103.42
358.23	41.98
358.441	103.42
358.653	66.56
358.864	87.04
359.075	3.07
359.287	19.46
359.498	119.81
359.709	35.84
359.921	66.56
360.132	48.13
360.344	66.56
360.555	41.98
360.766	50.18
360.977	15.36
361.189	78.85
361.4	54.27
361.611	33.79
361.823	82.94
362.034	76.8
362.245	39.94
362.456	-33.79
362.667	-1.02
362.879	23.55
363.09	78.85
363.301	56.32
363.512	136.19
363.723	27.65
363.935	-19.46
364.146	91.13
364.357	-3.07
364.568	91.13
364.779	-19.46
364.99	17.41
365.201	-44.03
365.412	64.51
365.623	-19.46
365.834	97.28
366.045	54.27
366.256	23.55
366.467	-9.22
366.678	-25.6
366.889	-29.7
367.1	87.04
367.311	109.57
367.522	62.46
367.733	87.04
367.944	84.99
368.155	21.5
368.366	121.85
368.577	99.33
368.788	76.8
368.999	17.41
369.209	-3.07
369.42	117.76
369.631	119.81
369.842	-25.6
370.053	109.57
370.264	80.89
370.474	41.98
370.685	-3.07
370.896	-13.31
371.107	121.85
371.317	99.33
371.528	68.61
371.739	78.85
371.95	56.32
372.16	44.03
372.371	37.89
372.582	84.99
372.792	54.27
373.003	17.41
373.214	31.74
373.424	54.27
373.635	-25.6
373.846	125.95
374.056	56.32
374.267	1.02
374.477	109.57
374.688	46.08
374.898	48.13
375.109	72.7
375.319	72.7
375.53	35.84
375.74	46.08
375.951	64.51
376.161	-23.55
376.372	-3.07
376.582	74.75
376.793	64.51
377.003	82.94
377.214	72.7
377.424	70.65
377.635	-17.41
377.845	9.22
378.055	160.77
378.266	-33.79
378.476	66.56
378.686	70.65
378.897	68.61
379.107	-13.31
379.317	95.23
379.528	5.12
379.738	60.42
379.948	78.85
380.158	52.22
380.369	23.55
380.579	37.89
380.789	-7.17
380.999	84.99
381.21	128
381.42	109.57
381.63	97.28
381.84	44.03
382.05	25.6
382.261	89.09
382.471	56.32
382.681	64.51
382.891	74.75
383.101	68.61
383.311	17.41
383.521	44.03
383.731	91.13
383.941	33.79
384.151	-15.36
384.361	62.46
384.571	60.42
384.781	31.74
384.991	29.7
385.201	111.61
385.411	15.36
385.621	60.42
385.831	9.22
386.041	60.42
386.251	44.03
386.461	87.04
386.671	64.51
386.881	50.18
387.091	46.08
387.301	78.85
387.511	35.84
387.72	13.31
387.93	91.13
388.14	148.48
388.35	3.07
388.56	56.32
388.769	119.81
388.979	35.84
389.189	91.13
389.399	48.13
389.609	74.75
389.818	97.28
390.028	74.75
390.238	3.07
390.447	44.03
390.657	21.5
390.867	87.04
391.076	39.94
391.286	111.61
391.496	76.8
391.705	25.6
391.915	152.57
392.125	64.51
392.334	89.09
392.544	72.7
392.753	105.47
392.963	78.85
393.172	101.37
393.382	64.51
393.591	52.22
393.801	111.61
394.01	82.94
394.22	76.8
394.429	9.22
394.639	23.55
394.848	113.66
395.058	109.57
395.267	70.65
395.477	41.98
395.686	19.46
395.895	154.62
396.105	58.37
396.314	19.46
396.524	78.85
396.733	115.71
396.942	111.61
397.152	113.66
397.361	74.75
397.57	166.91
397.78	82.94
397.989	128
398.198	189.44
398.407	80.89
398.617	89.09
398.826	78.85
399.035	95.23
399.244	113.66
399.453	166.91
399.663	25.6
399.872	105.47
400.081	76.8
400.29	107.52
400.499	62.46
400.708	46.08
400.917	54.27
401.127	72.7
401.336	84.99
401.545	134.14
401.754	95.23
401.963	89.09
402.172	54.27
402.381	130.05
402.59	66.56
402.799	181.25
403.008	140.29
403.217	119.81
403.426	160.77
403.635	44.03
403.844	119.81
404.053	91.13
404.262	136.19
404.471	162.81
404.68	13.31
404.888	103.42
405.097	103.42
405.306	189.44
405.515	121.85
405.724	209.92
405.933	148.48
406.142	199.68
406.35	117.76
406.559	142.33
406.768	89.09
406.977	119.81
407.185	132.09
407.394	236.54
407.603	109.57
407.812	199.68
408.02	201.72
408.229	209.92
408.438	273.4
408.646	218.11
408.855	183.29
409.064	201.72
409.272	175.1
409.481	279.55
409.69	287.74
409.898	216.06
410.107	254.97
410.315	300.03
410.524	238.59
410.733	248.83
410.941	242.68
411.15	297.98
411.358	295.93
411.567	377.85
411.775	312.32
411.984	318.46
412.192	349.18
412.401	373.75
412.609	295.93
412.818	420.86
413.026	418.81
413.234	375.8
413.443	474.1
413.651	398.33
413.86	467.96
414.068	463.86
414.276	431.1
414.485	451.58
414.693	578.55
414.901	551.93
415.11	566.26
415.318	517.11
415.526	566.26
415.734	564.22
415.943	650.23
416.151	662.52
416.359	635.89
416.567	662.52
416.776	648.18
416.984	752.63
417.192	787.44
417.4	764.92
417.608	711.67
417.817	773.11
418.025	836.6
418.233	867.31
418.441	910.32
418.649	916.47
418.857	1094.64
419.065	1039.34
419.273	1072.11
419.481	1057.78
419.689	1180.65
419.897	1121.26
420.105	1242.09
420.313	1190.89
420.521	1266.67
420.729	1211.37
420.937	1311.72
421.145	1391.59
421.353	1493.99
421.561	1534.95
421.769	1471.47
421.977	1620.97
422.185	1641.45
422.393	1760.23
422.601	1850.34
422.809	1698.79
423.017	1821.67
423.224	1932.26
423.432	1876.96
423.64	1928.16
423.848	2110.43
424.056	2087.9
424.263	2280.41
424.471	2251.74
424.679	2241.5
424.887	2495.45
425.094	2479.07
425.302	2423.77
425.51	2540.51
425.718	2649.05
425.925	2700.25
426.133	2720.73
426.341	2917.33
426.548	2892.76
426.756	3111.89
426.964	3185.62
427.171	3267.53
427.379	3410.89
427.586	3490.76
427.794	3503.05
428.001	3521.48
428.209	3779.53
428.417	3734.47
428.624	4094.91
428.832	4043.71
429.039	4090.82
429.247	3961.8
429.454	4418.49
429.662	4770.74
429.869	4414.4
430.076	4723.64
430.284	4611
430.491	4832.18
430.699	5065.65
430.906	5206.96
431.114	5141.43
431.321	5333.93
431.528	5368.75
431.736	5718.95
431.943	6110.11
432.15	5878.69
432.358	6149.03
432.565	6159.27
432.772	6374.3
432.979	6466.46
433.187	6675.35
433.394	6638.49
433.601	7328.66
433.808	7146.39
434.016	7056.28
434.223	7517.07
434.43	8004.49
434.637	7744.39
434.844	8276.87
435.052	8366.98
435.259	8104.84
435.466	8436.61
435.673	8569.73
435.88	8975.22
436.087	9261.94
436.294	9417.58
436.501	9188.21
436.708	9495.41
436.915	9778.03
437.122	10171.24
437.329	9964.39
437.537	10400.61
437.743	10488.67
437.95	10408.8
438.157	11182.93
438.364	11279.19
438.571	11295.57
438.778	11389.78
438.985	12684.09
439.192	11948.87
439.399	12452.67
439.606	11832.14
439.813	12675.9
440.02	13701.93
440.227	13415.22
440.433	13024.06
440.64	13560.63
440.847	13396.79
441.054	13855.53
441.261	14799.65
441.467	14557.99
441.674	15090.46
441.881	15395.61
442.088	15393.56
442.294	15221.53
442.501	15602.45
442.708	16020.24
442.914	16904.96
443.121	17312.5
443.328	16601.86
443.534	18031.34
443.741	17631.99
443.948	17206.01
444.154	18510.57
444.361	18520.81
444.568	18854.62
444.774	18500.33
444.981	18985.69
445.187	19225.31
445.394	20202.19
445.6	19966.67
445.807	21705.4
446.013	20830.91
446.22	21240.51
446.426	21824.18
446.633	22162.09
446.839	23130.78
447.046	22063.79
447.252	23538.33
447.459	23247.52
447.665	23329.44
447.871	24210.06
448.078	24969.86
448.284	24044.18
448.491	24709.77
448.697	25696.89
448.903	25967.22
449.11	26284.65
449.316	25791.09
449.522	26186.35
449.728	26544.75
449.935	27034.21
450.141	27122.27
450.347	27560.54
450.553	26518.12
450.76	27304.54
450.966	28027.48
451.172	27949.65
451.378	28099.16
451.584	27699.8
451.791	28351.06
451.997	28688.97
452.203	28781.13
452.409	28510.8
452.615	28424.78
452.821	27462.24
453.027	27116.13
453.233	28387.92
453.44	27445.85
453.646	27685.47
453.852	28150.35
454.058	28148.31
454.264	27077.22
454.47	28002.9
454.676	27245.15
454.882	28306
455.088	25846.39
455.294	26276.46
455.5	26450.54
455.705	26907.24
455.911	25457.28
456.117	24953.48
456.323	24490.63
456.529	23368.35
456.735	24488.59
456.941	23882.39
457.147	23505.56
457.352	22745.76
457.558	22373.03
457.764	22344.36
457.97	21705.4
458.176	21603
458.381	21623.48
458.587	20638.41
458.793	20660.93
458.999	19626.71
459.204	20988.61
459.41	20253.39
459.616	18838.24
459.821	18784.99
460.027	18791.14
460.233	18350.82
460.438	17332.98
460.644	17527.54
460.85	16919.29
461.055	16698.11
461.261	16595.71
461.466	15616.79
461.672	14781.21
461.878	15674.13
462.083	15143.7
462.289	14723.87
462.494	14736.16
462.7	13712.17
462.905	13728.56
463.111	14007.08
463.316	13978.41
463.522	13919.02
463.727	13669.17
463.932	13562.67
464.138	13538.1
464.343	13685.55
464.549	13470.51
464.754	13951.79
464.959	13749.04
465.165	13689.65
465.37	13011.77
465.575	12858.17
465.781	13105.98
465.986	13290.29
466.191	12858.17
466.397	12462.91
466.602	11844.43
466.807	12432.19
467.012	12241.73
467.218	12215.11
467.423	12096.33
467.628	12307.27
467.833	12747.58
468.038	12038.98
468.244	12049.22
468.449	12180.29
468.654	11807.56
468.859	12116.81
469.064	11838.28
469.269	11365.2
469.474	11674.45
469.679	11608.91
469.885	11240.28
470.09	11705.17
470.295	11447.12
470.5	11244.37
470.705	11146.07
470.91	10900.31
471.115	10971.99
471.32	11219.8
471.525	10840.92
471.73	10595.17
471.935	10703.71
472.139	10388.32
472.344	10474.34
472.549	10562.4
472.754	10165.09
472.959	10079.08
473.164	9780.07
473.369	9833.32
473.574	10204
473.778	9980.78
473.983	9821.03
474.188	9786.22
474.393	9257.84
474.598	9350
474.802	9386.86
475.007	9276.27
475.212	9159.54
475.417	9044.85
475.621	8993.65
475.826	9016.18
476.031	8842.11
476.235	8872.82
476.44	8829.82
476.645	8522.62
476.849	8665.98
477.054	8680.32
477.259	8455.04
477.463	8459.13
477.668	8452.99
477.872	8319.87
478.077	8219.52
478.282	8053.64
478.486	7949.19
478.691	7881.61
478.895	7885.7
479.1	7820.17
479.304	7863.18
479.509	7631.76
479.713	7889.8
479.918	7594.89
480.122	7467.92
480.326	7625.61
480.531	7607.18
480.735	7535.5
480.94	7467.92
481.144	7816.07
481.348	7248.79
481.553	7377.81
481.757	7179.15
481.961	7390.1
482.166	7705.48
482.37	7349.14
482.574	7318.42
482.778	7398.29
482.983	7508.88
483.187	7244.69
483.391	7396.24
483.595	7328.66
483.8	7209.87
484.004	7316.37
484.208	7422.86
484.412	7324.56
484.616	7252.88
484.821	7369.62
485.025	7211.92
485.229	7402.38
485.433	7246.74
485.637	7320.46
485.841	7254.93
486.045	7347.09
486.249	7189.39
486.453	7330.7
486.657	7183.25
486.861	7449.49
487.065	7207.83
487.269	7261.07
487.473	7338.9
487.677	7248.79
487.881	7373.71
488.085	7222.16
488.289	7289.74
488.493	7369.62
488.697	7318.42
488.901	7414.67
489.105	7431.05
489.309	7338.9
489.512	7379.86
489.716	7488.4
489.92	7386
490.124	7302.03
490.328	7379.86
490.531	7367.57
490.735	7451.53
490.939	7549.84
491.143	7449.49
491.346	7441.29
491.55	7535.5
491.754	7693.19
491.958	7549.84
492.161	7617.42
492.365	7879.56
492.569	7637.9
492.772	7607.18
492.976	7963.53
493.18	7941
493.383	7979.91
493.587	7986.05
493.79	8139.65
493.994	8094.6
494.197	8125.32
494.401	8326.02
494.605	8129.41
494.808	8313.73
495.012	8467.33
495.215	8258.43
495.419	8426.37
495.622	8369.02
495.825	8477.57
496.029	8524.67
496.232	8737.66
496.436	8586.11
496.639	9051
496.843	8913.78
497.046	9167.73
497.249	9296.75
497.453	9169.78
497.656	9362.29
497.859	9257.84
498.063	9534.32
498.266	9704.3
498.469	9759.6
498.673	9792.36
498.876	10005.35
499.079	9976.68
499.282	9837.42
499.485	10210.15
499.689	10226.53
499.892	10259.3
500.095	10380.13
500.298	10976.09
500.501	10539.87
500.705	10971.99
500.908	11039.58
501.111	11074.39
501.314	11254.61
501.517	11203.41
501.72	11438.93
501.923	11426.64
502.126	11772.75
502.329	11782.99
502.532	11727.69
502.735	12079.94
502.938	12180.29
503.141	12387.14
503.344	12421.95
503.547	12497.73
503.75	12995.39
503.953	12811.07
504.156	13116.22
504.359	12946.23
504.562	13359.92
504.765	13587.25
504.968	13617.97
505.17	13605.68
505.373	13945.64
505.576	14035.75
505.779	14271.27
505.982	14166.82
506.185	14596.9
506.387	14684.96
506.59	14854.94
506.793	14856.99
506.996	14859.04
507.198	15682.32
507.401	15364.89
507.604	15627.03
507.807	15876.88
508.009	16044.81
508.212	16063.24
508.415	16179.98
508.617	16292.62
508.82	16585.47
509.022	16616.19
509.225	16837.38
509.428	17173.24
509.63	17040.12
509.833	17511.16
510.035	17836.78
510.238	17670.9
510.44	17840.88
510.643	18283.24
510.845	18502.37
511.048	18402.02
511.25	18725.6
511.453	18799.33
511.655	19432.15
511.858	19170.01
512.06	19518.17
512.262	19639
512.465	19749.59
512.667	20179.66
512.87	20472.52
513.072	19935.95
513.274	20505.29
513.477	20781.76
513.679	21217.98
513.881	21119.68
514.084	21416.63
514.286	21285.56
514.488	21713.59
514.69	22319.79
514.893	22201.01
515.095	22475.43
515.297	22741.67
515.499	22829.73
515.701	23335.58
515.904	23390.88
516.106	23571.1
516.308	23958.16
516.51	24124.05
516.712	24312.46
516.914	24429.2
517.116	24869.51
517.318	24808.07
517.52	25023.11
517.722	25219.71
517.925	25526.91
518.127	25791.09
518.329	26053.23
518.531	25903.73
518.733	26321.52
518.935	26561.13
519.136	27015.78
519.338	27306.59
519.54	27331.17
519.742	27241.06
519.944	27707.99
520.146	27972.18
520.348	28144.21
520.55	28502.61
520.752	28666.44
520.954	29084.23
521.155	28957.25
521.357	29397.57
521.559	29669.95
521.761	30321.2
521.963	30030.39
522.164	30433.84
522.366	30609.96
522.568	30708.27
522.77	30726.7
522.971	31480.35
523.173	31494.69
523.375	31472.16
523.576	31556.13
523.778	31568.41
523.98	32150.04
524.181	32549.39
524.383	32422.42
524.584	33085.96
524.786	32995.85
524.988	32891.4
525.189	33282.56
525.391	33462.79
525.592	33604.1
525.794	33477.12
525.995	33487.36
526.197	33575.42
526.398	33765.88
526.6	34271.73
526.801	34357.75
527.003	34710
527.204	34462.19
527.406	34736.62
527.607	35000.81
527.808	35455.46
528.01	34566.64
528.211	35232.23
528.412	35793.37
528.614	35705.31
528.815	35353.06
529.016	36403.67
529.218	35500.51
529.419	35926.49
529.62	35883.48
529.822	36196.82
530.023	35899.87
530.224	36014.55
530.425	36223.45
530.626	36411.86
530.828	35848.67
531.029	36532.69
531.23	36266.45
531.431	36542.93
531.632	36837.84
531.833	36745.68
532.035	36735.44
532.236	36829.65
532.437	37016.01
532.638	36481.49
532.839	37013.96
533.04	37372.36
533.241	36944.33
533.442	37654.98
533.643	37468.61
533.844	37239.24
534.045	36798.93
534.246	37239.24
534.447	37882.3
534.648	37308.87
534.849	37343.69
535.05	37151.18
535.251	37773.76
535.451	37409.22
535.652	36970.96
535.853	37495.24
536.054	37231.05
536.255	37714.37
536.456	37018.06
536.657	38085.05
536.857	37493.19
537.058	37804.48
537.259	37886.4
537.46	37734.85
537.66	37255.62
537.861	37915.07
538.062	37681.6
538.263	37870.01
538.463	37315.01
538.664	37728.7
538.865	38003.13
539.065	38355.38
539.266	37491.14
539.466	37882.3
539.667	36975.05
539.868	38492.6
540.068	37609.92
540.269	37546.44
540.469	37364.17
540.67	37599.68
540.87	37986.75
541.071	37566.91
541.271	37902.78
541.472	37224.9
541.672	37251.53
541.873	37792.19
542.073	37163.46
542.274	37843.39
542.474	37517.76
542.675	37681.6
542.875	38148.54
543.075	37669.31
543.276	37130.7
543.476	37833.15
543.676	37368.26
543.877	37831.1
544.077	37747.14
544.277	37605.83
544.478	37706.18
544.678	37390.79
544.878	37427.65
545.078	37689.79
545.279	37661.12
545.479	37095.88
545.679	37665.22
545.879	37370.31
546.079	37329.35
546.28	37679.55
546.48	37001.68
546.68	37790.14
546.88	37890.49
547.08	38005.18
547.28	37593.54
547.48	36960.72
547.68	37542.34
547.88	37601.73
548.081	37505.48
548.281	37456.32
548.481	37681.6
548.681	37798.34
548.881	37251.53
549.081	37444.04
549.28	37458.37
549.48	37769.66
549.68	37777.86
549.88	38271.42
550.08	37276.1
550.28	37460.42
550.48	37214.66
550.68	37616.07
550.88	37503.43
551.08	37493.19
551.279	37896.64
551.479	37380.55
551.679	37579.2
551.879	37280.2
552.079	37208.52
552.278	37255.62
552.478	37411.27
552.678	37286.34
552.878	37476.8
553.077	37511.62
553.277	37112.27
553.477	37464.52
553.676	37323.21
553.876	37401.03
554.076	36866.51
554.275	37063.11
554.475	36919.76
554.674	37280.2
554.874	36923.85
555.074	36899.28
555.273	37239.24
555.473	37229
555.672	36911.56
555.872	36645.33
556.071	37089.74
556.271	37071.31
556.47	36764.11
556.67	36426.2
556.869	36663.76
557.068	36938.19
557.268	36862.41
557.467	36663.76
557.667	36653.52
557.866	36432.34
558.065	36649.42
558.265	36063.71
558.464	36157.91
558.663	36723.15
558.863	36196.82
559.062	36442.58
559.261	36231.64
559.461	36499.92
559.66	35756.51
559.859	36217.3
560.058	35895.77
560.258	36170.2
560.457	35828.19
560.656	36121.05
560.855	35895.77
561.054	35953.12
561.253	35443.17
561.453	35877.34
561.652	35840.48
561.851	36096.47
562.05	35453.41
562.249	35256.81
562.448	35672.54
562.647	35201.51
562.846	35226.09
563.045	35043.82
563.244	34750.96
563.443	35672.54
563.642	34816.49
563.841	34937.32
564.04	35133.93
564.239	34931.18
564.438	34535.92
564.637	34630.13
564.836	34537.97
565.035	34324.98
565.234	34626.03
565.432	34429.43
565.631	34351.6
565.83	34302.45
566.029	33968.63
566.228	33851.9
566.427	33849.85
566.625	33812.99
566.824	33751.55
567.023	33989.11
567.222	33462.79
567.42	33858.04
567.619	33827.32
567.818	33432.07
568.016	33456.64
568.215	33481.22
568.414	33077.77
568.612	33516.03
568.811	33106.44
569.01	33178.12
569.208	32535.06
569.407	33014.28
569.605	32598.54
569.804	32875.02
570.002	32707.08
570.201	32590.35
570.4	32320.02
570.598	32352.79
570.797	32379.41
570.995	32346.64
571.193	32045.59
571.392	32059.93
571.59	32006.68
571.789	31709.72
571.987	31793.69
572.186	31705.63
572.384	31357.47
572.582	31955.48
572.781	31781.4
572.979	31345.19
573.177	31529.5
573.376	31572.51
573.574	31314.47
573.772	31177.25
573.971	30951.98
574.169	30652.97
574.367	30749.23
574.565	30865.96
574.763	30675.5
574.962	30421.55
575.16	30192.18
575.358	30472.75
575.556	29987.38
575.754	30630.44
575.952	29909.56
576.151	30526
576.349	29825.59
576.547	30276.15
576.745	29958.71
576.943	30165.56
577.141	29999.67
577.339	29569.6
577.537	29758.01
577.735	29416
577.933	29514.3
578.131	29641.28
578.329	29401.66
578.527	29164.1
578.725	29307.46
578.923	29463.1
579.121	29055.56
579.319	28969.54
579.516	29086.28
579.714	28908.1
579.912	28920.39
580.11	28664.39
580.308	28777.03
580.506	28731.98
580.704	28287.57
580.901	28650.06
581.099	28549.71
581.297	27957.85
581.495	27834.97
581.692	28453.45
581.89	27882.07
582.088	28222.03
582.285	27988.56
582.483	28310.1
582.681	27650.65
582.878	27974.23
583.076	27871.83
583.274	27740.76
583.471	27304.54
583.669	27294.3
583.866	27361.89
584.064	27765.34
584.262	26704.49
584.459	27320.93
584.657	27040.36
584.854	27163.23
585.052	26600.04
585.249	26866.28
585.447	27015.78
585.644	26815.08
585.841	26788.46
586.039	26485.36
586.236	26423.92
586.434	26524.27
586.631	26524.27
586.828	26602.09
587.026	26552.94
587.223	26284.65
587.42	26188.4
587.618	26047.09
587.815	25889.4
588.012	25799.29
588.21	26059.38
588.407	26079.86
588.604	25645.69
588.801	25494.14
588.999	25371.26
589.196	25436.8
589.393	25512.57
589.59	25389.69
589.787	25133.7
589.984	25232
590.182	24924.8
590.379	25270.91
590.576	25223.81
590.773	25070.21
590.97	24703.62
591.167	25094.79
591.364	24566.41
591.561	24724.1
591.758	24324.75
591.955	24820.36
592.152	24535.69
592.349	24519.31
592.546	24554.12
592.743	23954.07
592.94	23890.58
593.137	24294.03
593.334	24525.45
593.531	23745.17
593.727	23880.34
593.924	24040.08
594.121	23626.39
594.318	24089.23
594.515	23519.9
594.712	23702.17
594.908	23640.73
595.105	23650.97
595.302	23270.04
595.499	23493.27
595.696	23055.01
595.892	23026.34
596.089	23327.39
596.286	23245.47
596.482	23147.17
596.679	23200.41
596.876	22770.34
597.072	22889.12
597.269	22792.87
597.466	22524.58
597.662	22508.2
597.859	22575.78
598.055	22506.15
598.252	22231.72
598.448	22108.85
598.645	22553.26
598.841	22143.66
599.038	22573.74
599.234	22282.92
599.431	21906.1
599.627	22069.94
599.824	22299.31
600.02	21676.73
600.217	21936.82
600.413	21781.17
600.609	21727.92
600.806	21852.85
601.002	21822.13
601.198	21437.11
601.395	21332.67
601.591	21400.25
601.787	21418.68
601.984	21009.09
602.18	21238.46
602.376	21084.86
602.572	20992.7
602.769	20939.46
602.965	20812.48
603.161	21086.91
603.357	21125.82
603.553	20572.87
603.75	20804.29
603.946	20718.28
604.142	20751.04
604.338	20402.89
604.534	20611.78
604.73	20613.83
604.926	20493
605.122	20482.76
605.318	20366.03
605.514	20155.08
605.71	20300.49
605.906	20163.28
606.102	20026.06
606.298	20329.16
606.494	20253.39
606.69	19841.75
606.886	20058.83
607.082	19913.42
607.278	19794.64
607.474	19458.78
607.67	19815.12
607.866	19272.41
608.062	19954.38
608.257	19671.76
608.453	19776.21
608.649	19669.72
608.845	19520.21
609.041	19288.79
609.236	19163.87
609.432	19260.12
609.628	19327.71
609.824	19348.18
610.019	18954.97
610.215	19229.4
610.411	19245.79
610.606	18969.31
610.802	19112.67
610.998	18873.06
611.193	19231.45
611.389	18817.76
611.584	18909.92
611.78	18748.13
611.976	18559.72
612.171	18875.1
612.367	18746.08
612.562	18410.22
612.758	18229.99
612.953	18690.79
613.149	18766.56
613.344	18758.37
613.539	18770.66
613.735	18500.33
613.93	18655.97
614.126	18408.17
614.321	18612.96
614.517	18320.1
614.712	18682.59
614.907	18055.92
615.103	18418.41
615.298	18205.42
615.493	18719.46
615.688	18152.17
615.884	18885.34
616.079	18135.79
616.274	18369.26
616.47	18168.55
616.665	18232.04
616.86	18070.25
617.055	17928.94
617.25	17980.14
617.445	18152.17
617.641	17660.66
617.836	18090.73
618.031	17922.8
618.226	17697.52
618.421	17619.7
618.616	17795.82
618.811	17605.36
619.006	17468.15
619.201	17228.54
619.396	17464.05
619.591	17183.48
619.786	17167.1
619.981	17160.95
620.176	17306.36
620.371	17033.98
620.566	17107.71
620.761	16769.79
620.956	16775.94
621.151	16702.21
621.346	16814.85
621.541	16601.86
621.735	16734.98
621.93	16431.88
622.125	16493.32
622.32	16421.64
622.515	16417.54
622.709	16229.13
622.904	16309
623.099	16128.78
623.294	16053
623.488	16038.67
623.683	15833.87
623.878	15708.94
624.072	15760.14
624.267	15649.55
624.462	15422.23
624.656	15411.99
624.851	15594.26
625.046	15313.69
625.24	15323.93
625.435	14785.31
625.629	15092.51
625.824	15024.92
626.018	14945.05
626.213	14615.33
626.407	14834.46
626.602	14521.12
626.796	14637.86
626.991	14648.1
627.185	14283.56
627.38	14562.08
627.574	14230.31
627.768	14248.74
627.963	14445.35
628.157	13931.31
628.352	14054.19
628.546	14109.48
628.74	14078.76
628.935	13501.23
629.129	13521.71
629.323	13665.07
629.517	13495.09
629.712	13468.47
629.906	13323.06
630.1	13527.86
630.294	13585.2
630.489	13382.45
630.683	13308.72
630.877	13058.87
631.071	13024.06
631.265	12874.56
631.459	13024.06
631.653	12935.99
631.848	12641.09
632.042	12735.29
632.236	12866.36
632.43	12563.26
632.624	12677.95
632.818	12473.15
633.012	12585.79
633.206	12370.76
633.4	12491.59
633.594	12274.5
633.788	12260.16
633.982	12374.85
634.176	12069.7
634.369	12127.05
634.563	12014.41
634.757	11944.78
634.951	11848.52
635.145	11729.74
635.339	11613.01
635.533	11739.98
635.726	11701.07
635.92	11668.3
636.114	11701.07
636.308	11352.91
636.501	11455.31
636.695	11381.59
636.889	11268.95
637.083	11043.67
637.276	11363.15
637.47	11238.23
637.664	11246.42
637.857	11146.07
638.051	11076.44
638.244	10957.66
638.438	10949.46
638.632	10695.52
638.825	10552.16
639.019	10773.34
639.212	10656.61
639.406	10722.14
639.599	10326.88
639.793	10324.83
639.986	10296.16
640.18	10533.73
640.373	10462.05
640.567	10267.49
640.76	10343.27
640.954	10247.01
641.147	10009.45
641.34	9913.19
641.534	10099.56
641.727	9997.16
641.92	9880.43
642.114	9790.31
642.307	9823.08
642.5	9728.88
642.694	9710.44
642.887	9470.83
643.08	9626.48
643.273	9595.76
643.467	9634.67
643.66	9347.95
643.853	9255.79
644.046	9298.8
644.239	9229.17
644.432	9182.07
644.626	9141.11
644.819	8983.41
645.012	9065.33
645.205	9051
645.398	9128.82
645.591	8993.65
645.784	8833.91
645.977	8831.87
646.17	9007.99
646.363	8827.77
646.556	8678.27
646.749	8688.51
646.942	8627.07
647.135	8524.67
647.328	8795
647.521	8674.17
647.714	8268.67
647.907	8526.72
648.099	8317.83
648.292	8586.11
648.485	8655.74
648.678	8309.63
648.871	8143.75
649.064	8166.28
649.256	8301.44
649.449	8125.32
649.642	8106.88
649.835	7961.48
650.027	8131.46
650.22	7865.22
650.413	7807.88
650.605	7832.46
650.798	7922.57
650.991	7644.04
651.183	7680.91
651.376	7693.19
651.568	7904.14
651.761	7777.16
651.954	7717.77
652.146	7568.27
652.339	7500.69
652.531	7531.41
652.724	7463.82
652.916	7226.26
653.109	7377.81
653.301	7506.83
653.494	7490.45
653.686	7271.31
653.879	7048.08
654.071	7424.91
654.263	7041.94
654.456	7132.05
654.648	7115.67
654.84	7066.52
655.033	6994.84
655.225	6978.45
655.417	6978.45
655.61	6925.21
655.802	6921.11
655.994	6671.26
656.186	6763.42
656.379	6681.5
656.571	6892.44
656.763	6855.58
656.955	6636.44
657.148	6693.79
657.34	6673.31
657.532	6466.46
657.724	6532
657.916	6495.13
658.108	6448.03
658.3	6458.27
658.492	6380.45
658.684	6419.36
658.876	6261.66
659.068	6443.93
659.26	6247.33
659.452	6298.53
659.644	6237.09
659.836	6177.7
660.028	6161.31
660.22	6185.89
660.412	6054.82
660.604	5972.9
660.796	6128.55
660.988	6005.67
661.18	5968.8
661.372	5882.79
661.563	5866.41
661.755	6036.39
661.947	5764.01
662.139	5700.52
662.331	5811.11
662.522	5807.02
662.714	5942.18
662.906	5696.43
663.097	5610.41
663.289	5626.79
663.481	5669.8
663.673	5637.03
663.864	5432.24
664.056	5567.4
664.247	5522.35
664.439	5387.18
664.631	5491.63
664.822	5567.4
665.014	5376.94
665.205	5356.46
665.397	5327.79
665.588	5344.17
665.78	5176.24
665.971	5209.01
666.163	5235.63
666.354	5231.54
666.546	5454.76
666.737	5315.5
666.929	5372.85
667.12	5213.1
667.311	5178.29
667.503	4996.02
667.694	5159.86
667.885	5086.13
668.077	5090.23
668.268	4948.92
668.459	4815.8
668.651	5022.64
668.842	4993.97
669.033	4985.78
669.224	4875.19
669.416	5002.16
669.607	4967.35
669.798	4854.71
669.989	4805.56
670.18	4838.33
670.371	4826.04
670.563	4752.31
670.754	4879.29
670.945	4516.8
671.136	4828.09
671.327	4639.67
671.518	4676.54
671.709	4694.97
671.9	4719.54
672.091	4703.16
672.282	4649.91
672.473	4690.87
672.664	4606.91
672.855	4385.73
673.046	4529.08
673.237	4617.15
673.428	4475.84
673.619	4613.05
673.809	4457.4
674	4514.75
674.191	4459.45
674.382	4391.87
674.573	4445.12
674.764	4395.96
674.954	4436.92
675.145	4230.08
675.336	4293.57
675.527	4258.75
675.717	4379.58
675.908	4219.84
676.099	4195.26
676.289	4359.1
676.48	4117.44
676.671	4266.94
676.861	4318.14
677.052	4187.07
677.243	4193.22
677.433	4160.45
677.624	4123.59
677.814	4213.7
678.005	4105.15
678.195	4039.62
678.386	4049.86
678.576	4080.58
678.767	4342.72
678.957	4131.78
679.148	4135.87
679.338	3922.88
679.529	3959.75
679.719	3931.08
679.909	4082.63
680.1	4045.76
680.29	4019.14
680.481	4027.33
680.671	4015.04
680.861	4000.71
681.052	4078.53
681.242	3883.97
681.432	3974.08
681.622	3949.51
681.813	3998.66
682.003	3900.36
682.193	3789.77
682.383	4035.52
682.573	3902.4
682.764	3834.82
682.954	3816.39
683.144	3924.93
683.334	3926.98
683.524	3859.4
683.714	3795.91
683.904	3720.14
684.094	3777.48
684.284	3728.33
684.474	3761.09
684.664	3855.3
684.854	3824.58
685.044	3879.88
685.234	3877.83
685.424	3752.9
685.614	3689.42
685.804	3748.81
685.994	3746.76
686.184	3742.66
686.374	3597.26
686.564	3654.6
686.753	3757
686.943	3644.36
687.133	3584.97
687.323	3552.2
687.513	3562.44
687.702	3699.66
687.892	3627.98
688.082	3564.49
688.272	3636.17
688.461	3482.57
688.651	3462.09
688.841	3298.25
689.03	3537.87
689.22	3462.09
689.41	3371.98
689.599	3521.48
689.789	3480.52
689.979	3326.93
690.168	3488.71
690.358	3472.33
690.547	3396.56
690.737	3402.7
690.926	3447.76
691.116	3236.81
691.305	3376.08
691.495	3345.36
691.684	3124.18
691.874	3279.82
692.063	3148.75
692.252	3296.21
692.442	3355.6
692.631	3226.57
692.82	3222.48
693.01	3279.82
693.199	3101.65
693.388	3097.55
693.578	3232.72
693.767	3242.96
693.956	3056.59
694.146	3077.07
694.335	3152.85
694.524	3113.94
694.713	3091.41
694.902	3158.99
695.092	2986.96
695.281	3046.35
695.47	3150.8
695.659	3134.42
695.848	3052.5
696.037	3163.09
696.226	3015.63
696.415	3195.86
696.604	3052.5
696.793	3144.66
696.982	3040.21
697.171	3060.69
697.36	2984.91
697.549	2956.24
697.738	2976.72
697.927	3099.6
698.116	3005.39
698.305	3146.7
698.494	3068.88
698.683	3029.97
698.872	2997.2
699.061	2927.57
699.25	2946
699.438	3060.69
699.627	3015.63
699.816	3042.26
700.005	2876.37
700.193	2970.58
700.382	2958.29
700.571	2978.77
700.76	2958.29
700.948	3089.36
701.137	2968.53
701.326	3029.97
701.514	2984.91
701.703	2966.48
701.892	2964.43
702.08	2829.27
702.269	3056.59
702.457	2870.23
702.646	2939.86
702.834	2943.96
703.023	2974.67
703.212	2958.29
703.4	2915.28
703.589	2915.28
703.777	2929.62
703.965	2995.15
704.154	2812.89
704.342	2886.61
704.531	2886.61
704.719	2823.12
704.907	2995.15
705.096	2827.22
705.284	2849.75
705.472	2788.31
705.661	2982.87
705.849	2911.19
706.037	2814.93
706.226	2935.76
706.414	2896.85
706.602	2847.7
706.79	2843.6
706.979	2841.56
707.167	2999.25
707.355	2798.55
707.543	2864.08
707.731	2960.34
707.919	2991.06
708.107	2870.23
708.296	2771.93
708.484	2917.33
708.672	2806.74
708.86	2800.6
709.048	2769.88
709.236	2825.17
709.424	2857.94
709.612	2821.08
709.8	2765.78
709.988	2751.45
710.176	2788.31
710.364	2864.08
710.551	2907.09
710.739	2784.21
710.927	2825.17
711.115	2900.95
711.303	2839.51
711.491	2749.4
711.679	2845.65
711.866	2790.36
712.054	2814.93
712.242	2823.12
712.43	2804.69
712.617	2788.31
712.805	2952.15
712.993	2702.29
713.181	2739.16
713.368	2749.4
713.556	2765.78
713.744	2700.25
713.931	2853.84
714.119	2720.73
714.306	2640.86
714.494	2810.84
714.682	2812.89
714.869	2864.08
715.057	2757.59
715.244	2812.89
715.432	2802.65
715.619	2692.05
715.807	2647
715.994	2804.69
716.182	2767.83
716.369	2665.43
716.556	2722.77
716.744	2722.77
716.931	2728.92
717.119	2778.07
717.306	2716.63
717.493	2679.77
717.681	2673.62
717.868	2690.01
718.055	2733.01
718.242	2728.92
718.43	2657.24
718.617	2614.23
718.804	2649.05
718.991	2649.05
719.179	2630.62
719.366	2628.57
719.553	2653.14
719.74	2690.01
719.927	2733.01
720.114	2606.04
720.301	2640.86
720.488	2644.95
720.676	2591.7
720.863	2755.54
721.05	2534.36
721.237	2700.25
721.424	2593.75
721.611	2585.56
721.798	2487.26
721.985	2821.08
722.172	2587.61
722.358	2571.22
722.545	2540.51
722.732	2653.14
722.919	2593.75
723.106	2472.92
723.293	2550.75
723.48	2538.46
723.667	2513.88
723.853	2677.72
724.04	2632.66
724.227	2548.7
724.414	2556.89
724.6	2657.24
724.787	2567.13
724.974	2579.42
725.161	2532.31
725.347	2567.13
725.534	2581.46
725.72	2528.22
725.907	2524.12
726.094	2464.73
726.28	2601.94
726.467	2450.39
726.653	2651.1
726.84	2546.65
727.027	2649.05
727.213	2448.35
727.4	2546.65
727.586	2507.74
727.773	2440.15
727.959	2499.55
728.145	2540.51
728.332	2442.2
728.518	2405.34
728.705	2477.02
728.891	2517.98
729.077	2509.79
729.264	2434.01
729.45	2458.59
729.636	2468.83
729.823	2440.15
730.009	2567.13
730.195	2456.54
730.382	2419.68
730.568	2593.75
730.754	2399.2
730.94	2470.87
731.126	2466.78
731.313	2470.87
731.499	2456.54
731.685	2538.46
731.871	2327.52
732.057	2581.46
732.243	2511.83
732.429	2505.69
732.615	2495.45
732.801	2614.23
732.987	2409.44
733.173	2513.88
733.359	2524.12
733.545	2485.21
733.731	2462.68
733.917	2522.07
734.103	2302.94
734.289	2386.91
734.475	2384.86
734.661	2403.29
734.847	2464.73
735.033	2442.2
735.219	2257.89
735.404	2315.23
735.59	2411.48
735.776	2425.82
735.962	2370.52
736.148	2378.72
736.333	2333.66
736.519	2393.05
736.705	2454.49
736.89	2315.23
737.076	2411.48
737.262	2440.15
737.447	2307.04
737.633	2335.71
737.819	2337.76
738.004	2399.2
738.19	2323.42
738.375	2251.74
738.561	2364.38
738.747	2253.79
738.932	2391
739.118	2372.57
739.303	2403.29
739.489	2323.42
739.674	2421.72
739.859	2255.84
740.045	2331.61
740.23	2276.32
740.416	2214.88
740.601	2292.7
740.786	2274.27
740.972	2130.91
741.157	2194.4
741.342	2251.74
741.528	2229.21
741.713	2255.84
741.898	2212.83
742.084	2323.42
742.269	2175.97
742.454	2130.91
742.639	2223.07
742.824	2151.39
743.01	2198.49
743.195	2243.55
743.38	2106.34
743.565	2102.24
743.75	2159.58
743.935	2108.38
744.12	2081.76
744.305	2200.54
744.49	2151.39
744.675	2059.23
744.86	1987.55
745.045	2147.3
745.23	2053.09
745.415	2067.42
745.6	1952.74
745.785	1922.02
745.97	2034.66
746.155	2032.61
746.34	2034.66
746.525	2008.03
746.71	1893.35
746.895	1936.35
747.079	2016.23
747.264	2003.94
747.449	1922.02
747.634	1919.97
747.819	1881.06
748.003	1809.38
748.188	1846.24
748.373	1848.29
748.557	1924.07
748.742	1901.54
748.927	1846.24
749.111	1858.53
749.296	1770.47
749.481	1780.71
749.665	1778.66
749.85	1713.13
750.034	1774.56
750.219	1706.98
750.404	1809.38
750.588	1731.56
750.773	1641.45
750.957	1747.94
751.141	1491.95
751.326	1676.26
751.51	1715.17
751.695	1551.34
751.879	1715.17
752.064	1657.83
752.248	1555.43
752.432	1678.31
752.617	1657.83
752.801	1569.77
752.985	1596.39
753.17	1602.54
753.354	1491.95
753.538	1684.45
753.722	1383.4
753.907	1541.1
754.091	1530.86
754.275	1473.51
754.459	1586.15
754.643	1498.09
754.828	1549.29
755.012	1473.51
755.196	1543.14
755.38	1502.19
755.564	1465.32
755.748	1455.08
755.932	1307.63
756.116	1465.32
756.3	1410.03
756.484	1412.07
756.668	1397.74
756.852	1364.97
757.036	1342.44
757.22	1375.21
757.404	1299.44
757.588	1301.48
757.772	1414.12
757.956	1354.73
758.14	1254.38
758.323	1276.91
758.507	1209.33
758.691	1311.72
758.875	1207.28
759.059	1305.58
759.242	1248.24
759.426	1297.39
759.61	1240.05
759.794	1240.05
759.977	1283.05
760.161	1199.09
760.345	1213.42
760.528	1238
760.712	1164.27
760.895	1188.85
761.079	1238
761.263	1217.52
761.446	1197.04
761.63	1176.56
761.813	1190.89
761.997	1121.26
762.18	1102.83
762.364	1160.17
762.547	1102.83
762.731	1053.68
762.914	1131.5
763.098	1172.46
763.281	1154.03
763.464	1102.83
763.648	1068.02
763.831	1080.3
764.015	1084.4
764.198	994.29
764.381	1166.32
764.564	1008.62
764.748	1072.11
764.931	1049.58
765.114	1059.82
765.297	1002.48
765.481	1068.02
765.664	1049.58
765.847	1045.49
766.03	1135.6
766.213	1029.1
766.397	1108.98
766.58	1102.83
766.763	1072.11
766.946	973.81
767.129	969.71
767.312	1059.82
767.495	1059.82
767.678	1033.2
767.861	1065.97
768.044	1004.53
768.227	1025.01
768.41	1045.49
768.593	1016.82
768.776	1002.48
768.959	986.1
769.142	863.22
769.324	918.51
769.507	961.52
769.69	959.47
769.873	971.76
770.056	916.47
770.239	961.52
770.421	910.32
770.604	930.8
770.787	982
770.97	943.09
771.152	883.7
771.335	885.75
771.518	955.38
771.7	852.98
771.883	916.47
772.066	873.46
772.248	906.23
772.431	824.31
772.613	852.98
772.796	898.03
772.978	891.89
773.161	861.17
773.343	852.98
773.526	855.03
773.708	869.36
773.891	728.05
774.073	865.27
774.256	875.51
774.438	912.37
774.621	785.4
774.803	826.36
774.985	699.38
775.168	764.92
775.35	766.96
775.532	809.97
775.715	783.35
775.897	775.16
776.079	779.25
776.261	809.97
776.444	687.09
776.626	760.82
776.808	709.62
776.99	793.59
777.173	769.01
777.355	726
777.537	713.72
777.719	576.5
777.901	748.53
778.083	781.3
778.265	730.1
778.447	719.86
778.629	660.47
778.811	685.05
778.993	615.41
779.175	705.53
779.357	695.29
779.539	658.42
779.721	799.73
779.903	703.48
780.085	603.13
780.267	676.85
780.449	617.46
780.631	697.33
780.812	566.26
780.994	584.7
781.176	619.51
781.358	672.76
781.54	582.65
781.721	685.05
781.903	586.74
782.085	613.37
782.267	576.5
782.448	558.07
782.63	562.17
782.812	601.08
782.993	537.59
783.175	576.5
783.357	453.63
783.538	535.54
783.72	584.7
783.901	451.58
784.083	529.4
784.264	547.83
784.446	572.41
784.627	515.06
784.809	570.36
784.99	472.06
785.172	457.72
785.353	418.81
785.535	472.06
785.716	474.1
785.897	463.86
786.079	498.68
786.26	486.39
786.441	527.35
786.623	375.8
786.804	488.44
786.985	492.54
787.167	470.01
787.348	398.33
787.529	486.39
787.71	449.53
787.891	367.61
788.073	408.57
788.254	437.24
788.435	431.1
788.616	480.25
788.797	412.67
788.978	400.38
789.159	459.77
789.34	427
789.522	394.23
789.703	453.63
789.884	396.28
790.065	414.71
790.246	357.37
790.427	402.43
790.607	463.86
790.788	361.47
790.969	361.47
791.15	351.23
791.331	381.95
791.512	392.19
791.693	400.38
791.874	351.23
792.054	357.37
792.235	343.03
792.416	291.84
792.597	310.27
792.778	437.24
792.958	326.65
793.139	394.23
793.32	308.22
793.5	259.07
793.681	340.99
793.862	365.56
794.042	345.08
794.223	297.98
794.404	359.42
794.584	314.36
794.765	297.98
794.945	338.94
795.126	285.69
795.306	351.23
795.487	324.6
795.667	340.99
795.848	357.37
796.028	347.13
796.209	330.75
796.389	394.23
796.57	326.65
796.75	361.47
796.93	320.51
797.111	304.12
797.291	308.22
797.471	328.7
797.652	279.55
797.832	224.25
798.012	291.84
798.192	250.88
798.373	322.56
798.553	259.07
798.733	324.6
798.913	322.56
799.093	343.03
799.274	318.46
799.454	261.12
799.634	271.36
799.814	295.93
799.994	281.6
800.174	242.68
800.354	242.68
800.534	271.36
800.714	289.79
800.894	228.35
801.074	259.07
801.254	211.96
801.434	285.69
801.614	361.47
801.794	214.01
801.974	535.54
802.154	261.12
802.334	261.12
802.514	164.86
802.693	207.87
802.873	173.05
803.053	291.84
803.233	265.21
803.413	246.78
803.592	236.54
803.772	234.49
803.952	261.12
804.131	209.92
804.311	226.3
804.491	193.53
804.67	187.39
804.85	250.88
805.03	226.3
805.209	226.3
805.389	177.15
805.568	187.39
805.748	183.29
805.928	232.44
806.107	220.16
806.287	300.03
806.466	162.81
806.646	252.92
806.825	205.82
807.004	228.35
807.184	248.83
807.363	203.77
807.543	263.16
807.722	265.21
807.901	224.25
808.081	246.78
808.26	154.62
808.439	201.72
808.619	220.16
808.798	162.81
808.977	228.35
809.156	226.3
809.336	181.25
809.515	234.49
809.694	234.49
809.873	177.15
810.052	193.53
810.231	230.4
810.411	250.88
810.59	207.87
810.769	138.24
810.948	146.43
811.127	183.29
811.306	205.82
811.485	177.15
811.664	242.68
811.843	156.67
812.022	189.44
812.201	136.19
812.38	111.61
812.559	144.38
812.737	218.11
812.916	175.1
813.095	154.62
813.274	154.62
813.453	218.11
813.632	191.49
813.811	179.2
813.989	193.53
814.168	146.43
814.347	160.77
814.526	150.53
814.704	234.49
814.883	214.01
815.062	173.05
815.24	123.9
815.419	150.53
815.598	111.61
815.776	123.9
815.955	168.96
816.133	164.86
816.312	175.1
816.49	175.1
816.669	224.25
816.847	132.09
817.026	41.98
817.204	222.2
817.383	117.76
817.561	101.37
817.74	160.77
817.918	146.43
818.097	185.34
818.275	111.61
818.453	175.1
818.632	205.82
818.81	197.63
818.988	130.05
819.167	123.9
819.345	132.09
819.523	152.57
819.701	101.37
819.879	197.63
820.058	60.42
820.236	107.52
820.414	66.56
820.592	72.7
820.77	121.85
820.948	164.86
821.127	173.05
821.305	136.19
821.483	140.29
821.661	158.72
821.839	136.19
822.017	177.15
822.195	152.57
822.373	185.34
822.551	97.28
822.729	119.81
822.907	44.03
823.085	154.62
823.262	101.37
823.44	111.61
823.618	140.29
823.796	154.62
823.974	27.65
824.152	76.8
824.329	64.51
824.507	173.05
824.685	152.57
824.863	140.29
825.04	58.37
825.218	78.85
825.396	101.37
825.574	160.77
825.751	50.18
825.929	216.06
826.107	103.42
826.284	113.66
826.462	74.75
826.639	80.89
826.817	78.85
826.994	91.13
827.172	117.76
827.349	144.38
827.527	68.61
827.704	156.67
827.882	144.38
828.059	70.65
828.237	21.5
828.414	105.47
828.591	117.76
828.769	72.7
828.946	107.52
829.124	39.94
829.301	125.95
829.478	91.13
829.655	156.67
829.833	175.1
830.01	113.66
830.187	164.86
830.364	84.99
830.542	150.53
830.719	101.37
830.896	191.49
831.073	78.85
831.25	58.37
831.427	54.27
831.604	142.33
831.782	60.42
831.959	123.9
832.136	56.32
832.313	148.48
832.49	74.75
832.667	115.71
832.844	46.08
833.021	119.81
833.198	62.46
833.374	84.99
833.551	37.89
833.728	103.42
833.905	74.75
834.082	117.76
834.259	76.8
834.436	82.94
834.612	44.03
834.789	125.95
834.966	113.66
835.143	91.13
835.319	44.03
835.496	107.52
835.673	70.65
835.85	52.22
836.026	113.66
836.203	82.94
836.38	89.09
836.556	128
836.733	136.19
836.909	160.77
837.086	117.76
837.262	11.26
837.439	54.27
837.616	13.31
837.792	44.03
837.968	33.79
838.145	101.37
838.321	52.22
838.498	44.03
838.674	101.37
838.851	95.23
839.027	80.89
839.203	31.74
839.38	95.23
839.556	5.12
839.732	50.18
839.909	74.75
840.085	5.12
840.261	35.84
840.437	111.61
840.614	5.12
840.79	62.46
840.966	97.28
841.142	35.84
841.318	97.28
841.494	31.74
841.671	44.03
841.847	66.56
842.023	19.46
842.199	62.46
842.375	80.89
842.551	-1.02
842.727	76.8
842.903	37.89
843.079	11.26
843.255	27.65
843.431	3.07
843.607	95.23
843.783	48.13
843.959	72.7
844.134	64.51
844.31	41.98
844.486	76.8
844.662	54.27
844.838	33.79
845.013	17.41
845.189	64.51
845.365	13.31
845.541	97.28
845.716	125.95
845.892	78.85
846.068	19.46
846.244	33.79
846.419	78.85
846.595	37.89
846.77	37.89
846.946	46.08
847.122	15.36
847.297	68.61
847.473	97.28
847.648	60.42
847.824	99.33
847.999	-35.84
848.175	1.02
848.35	-3.07
848.526	105.47
848.701	19.46
848.876	142.33
849.052	70.65
849.227	-13.31
849.403	52.22
849.578	37.89
849.753	64.51
849.929	56.32
850.104	82.94
850.279	23.55
850.454	9.22
850.63	17.41
850.805	33.79
850.98	-5.12
851.155	-13.31
851.33	56.32
851.505	46.08
851.681	82.94
851.856	5.12
852.031	35.84
852.206	21.5
852.381	64.51
852.556	17.41
852.731	74.75
852.906	44.03
853.081	74.75
853.256	84.99
853.431	17.41
853.606	9.22
853.781	27.65
853.956	23.55
854.131	66.56
854.305	17.41
854.48	15.36
854.655	-35.84
854.83	39.94
855.005	76.8
855.18	39.94
855.354	62.46
855.529	99.33
855.704	-35.84
855.879	97.28
856.053	33.79
856.228	25.6
856.403	35.84
856.577	58.37
856.752	103.42
856.926	33.79
857.101	33.79
857.276	-33.79
857.45	58.37
857.625	31.74
857.799	52.22
857.974	72.7
858.148	27.65
858.323	66.56
858.497	97.28
858.672	64.51
858.846	76.8
859.02	121.85
859.195	-19.46
859.369	13.31
859.543	-11.26
859.718	101.37
859.892	15.36
860.066	56.32
860.241	3.07
860.415	-27.65
860.589	25.6
860.763	50.18
860.938	29.7
861.112	13.31
861.286	64.51
861.46	33.79
861.634	44.03
861.808	80.89
861.982	54.27
862.157	-7.17
862.331	78.85
862.505	-17.41
862.679	-3.07
862.853	21.5
863.027	-3.07
863.201	84.99
863.375	15.36
863.549	70.65
863.722	-1.02
863.896	70.65
864.07	115.71
864.244	11.26
864.418	7.17
864.592	87.04
864.766	-7.17
864.939	-11.26
865.113	70.65
865.287	31.74
865.461	3.07
865.634	-5.12
865.808	3.07
865.982	21.5
866.156	19.46
866.329	-3.07
866.503	89.09
866.676	66.56
866.85	50.18
867.024	11.26
867.197	78.85
867.371	23.55
867.544	13.31
867.718	52.22
867.891	-39.94
868.065	44.03
868.238	44.03
868.412	21.5
868.585	-19.46
868.759	-11.26
868.932	-3.07
869.105	35.84
869.279	-31.74
869.452	56.32
869.625	-5.12
869.799	41.98
869.972	13.31
870.145	17.41
870.319	72.7
870.492	46.08
870.665	19.46
870.838	48.13
871.011	-37.89
871.185	-1.02
871.358	68.61
871.531	33.79
871.704	1.02
871.877	25.6
872.05	3.07
872.223	-5.12
872.396	25.6
872.569	84.99
872.742	-1.02
872.915	31.74
873.088	-9.22
873.261	68.61
873.434	19.46
873.607	19.46
873.78	-35.84
873.953	-54.27
874.126	13.31
874.299	23.55
874.471	-17.41
874.644	46.08
874.817	13.31
874.99	93.18
875.163	-13.31
875.335	19.46
875.508	5.12
875.681	82.94
875.853	33.79
876.026	72.7
876.199	54.27
876.371	74.75
876.544	-66.56
876.717	31.74
876.889	-11.26
877.062	99.33
877.234	3.07
877.407	17.41
877.579	-1.02
877.752	-23.55
877.924	54.27
878.097	19.46
878.269	-3.07
878.442	-62.46
878.614	-15.36
878.786	70.65
878.959	48.13
879.131	74.75
879.303	5.12
879.476	52.22
879.648	-3.07
879.82	54.27
879.993	44.03
880.165	50.18
880.337	7.17
880.509	95.23
880.681	-7.17
880.854	23.55
881.026	11.26
881.198	48.13
881.37	41.98
881.542	23.55
881.714	-5.12
881.886	41.98
882.058	23.55
882.23	-23.55
882.402	15.36
882.574	54.27
882.746	60.42
882.918	9.22
883.09	27.65
883.262	17.41
883.434	-37.89
883.606	-19.46
883.778	-15.36
883.95	54.27
884.122	-39.94
884.293	33.79
884.465	46.08
884.637	5.12
884.809	19.46
884.98	3.07
885.152	-11.26
885.324	41.98
885.496	48.13
885.667	17.41
885.839	-15.36
886.011	5.12
886.182	70.65
886.354	11.26
886.525	58.37
886.697	19.46
886.869	-5.12
887.04	44.03
887.212	15.36
887.383	68.61
887.555	33.79
887.726	-39.94
887.897	39.94
888.069	-31.74
888.24	21.5
888.412	41.98
888.583	-25.6
888.754	-29.7
888.926	-41.98
889.097	5.12
889.268	-70.65
889.44	50.18
889.611	-39.94
889.782	17.41
889.953	13.31
890.125	-23.55
890.296	13.31
890.467	-68.61
890.638	-13.31
890.809	13.31
890.98	-37.89
891.151	68.61
891.323	74.75
891.494	-23.55
891.665	-7.17
891.836	58.37
892.007	-29.7
892.178	-31.74
892.349	-31.74
892.52	11.26
892.691	44.03
892.862	13.31
893.032	21.5
893.203	17.41
893.374	-3.07
893.545	31.74
893.716	29.7
893.887	25.6
894.057	-15.36
894.228	5.12
894.399	-39.94
894.57	80.89
894.74	70.65
894.911	9.22
895.082	35.84
895.253	-11.26
895.423	48.13
895.594	62.46
895.764	3.07
895.935	-1.02
896.106	-23.55
896.276	84.99
896.447	-19.46
896.617	9.22
896.788	60.42
896.958	-15.36
897.129	29.7
897.299	-27.65
897.47	58.37
897.64	76.8
897.81	27.65
897.981	9.22
898.151	-21.5
898.322	105.47
898.492	39.94
898.662	-5.12
898.832	48.13
899.003	41.98
899.173	-25.6
899.343	-37.89
899.513	13.31
