Data from USB4F104151__170__11-08-56-878.txt Node

Date: Wed Mar 12 11:08:56 EDT 2025
User: louis
Spectrometer: USB4F10415
Trigger mode: 4
Integration Time (sec): 2.000000E-2
Scans to average: 1
Electric dark correction enabled: true
Nonlinearity correction enabled: false
Boxcar width: 0
XAxis mode: Wavelengths
Number of Pixels in Spectrum: 3648
>>>>>Begin Spectral Data<<<<<
178.204	-129.7
178.424	-129.7
178.644	-129.7
178.864	-76.46
179.084	-90.79
179.304	-23.21
179.524	-60.07
179.744	23.89
179.964	54.61
180.184	1.37
180.404	46.42
180.624	7.51
180.844	11.61
181.064	-41.64
181.283	-49.83
181.503	-27.31
181.723	56.66
181.943	-60.07
182.163	-27.31
182.383	11.61
182.602	-4.78
182.822	83.28
183.042	66.9
183.262	-25.26
183.482	11.61
183.701	-10.92
183.921	66.9
184.141	15.7
184.361	-21.16
184.58	19.8
184.8	83.28
185.02	7.51
185.239	27.99
185.459	-4.78
185.679	62.8
185.898	11.61
186.118	95.57
186.338	85.33
186.557	48.47
186.777	13.65
186.997	-21.16
187.216	-15.02
187.436	83.28
187.655	-25.26
187.875	87.38
188.095	34.13
188.314	81.24
188.534	58.71
188.753	46.42
188.973	-35.5
189.192	48.47
189.412	21.85
189.631	40.28
189.851	-8.87
190.07	27.99
190.29	-2.73
190.509	-29.35
190.729	27.99
190.948	1.37
191.168	128.34
191.387	77.14
191.607	-0.68
191.826	1.37
192.045	71
192.265	-55.98
192.484	17.75
192.704	11.61
192.923	38.23
193.142	13.65
193.362	-43.69
193.581	42.32
193.8	40.28
194.02	71
194.239	9.56
194.458	27.99
194.678	56.66
194.897	36.18
195.116	23.89
195.335	38.23
195.555	17.75
195.774	68.95
195.993	-21.16
196.212	44.37
196.432	-29.35
196.651	48.47
196.87	11.61
197.089	54.61
197.308	30.04
197.528	9.56
197.747	-35.5
197.966	11.61
198.185	50.52
198.404	48.47
198.623	25.94
198.842	-19.11
199.062	50.52
199.281	23.89
199.5	46.42
199.719	-0.68
199.938	-12.97
200.157	44.37
200.376	48.47
200.595	36.18
200.814	46.42
201.033	11.61
201.252	32.08
201.471	23.89
201.69	30.04
201.909	25.94
202.128	-27.31
202.347	-17.07
202.566	-33.45
202.785	-2.73
203.004	1.37
203.223	73.04
203.442	62.8
203.661	-60.07
203.879	36.18
204.098	87.38
204.317	56.66
204.536	19.8
204.755	-37.55
204.974	30.04
205.193	5.46
205.411	15.7
205.63	34.13
205.849	-0.68
206.068	-6.83
206.287	9.56
206.505	27.99
206.724	9.56
206.943	-17.07
207.162	97.62
207.381	-10.92
207.599	54.61
207.818	-4.78
208.037	58.71
208.255	-0.68
208.474	-0.68
208.693	15.7
208.911	-6.83
209.13	27.99
209.349	21.85
209.567	7.51
209.786	99.67
210.005	50.52
210.223	79.19
210.442	-2.73
210.661	11.61
210.879	54.61
211.098	15.7
211.316	36.18
211.535	38.23
211.753	-68.27
211.972	-15.02
212.191	21.85
212.409	-15.02
212.628	11.61
212.846	3.41
213.065	60.76
213.283	38.23
213.502	-0.68
213.72	-27.31
213.938	9.56
214.157	11.61
214.375	40.28
214.594	1.37
214.812	-29.35
215.031	66.9
215.249	46.42
215.467	-23.21
215.686	-53.93
215.904	42.32
216.122	46.42
216.341	87.38
216.559	-6.83
216.778	36.18
216.996	52.56
217.214	77.14
217.432	73.04
217.651	-2.73
217.869	7.51
218.087	-62.12
218.306	36.18
218.524	44.37
218.742	17.75
218.96	-4.78
219.179	42.32
219.397	85.33
219.615	40.28
219.833	21.85
220.051	64.85
220.27	-19.11
220.488	5.46
220.706	-68.27
220.924	11.61
221.142	3.41
221.36	-12.97
221.578	1.37
221.796	-12.97
222.015	27.99
222.233	-49.83
222.451	44.37
222.669	-12.97
222.887	54.61
223.105	-43.69
223.323	-37.55
223.541	3.41
223.759	27.99
223.977	-64.17
224.195	34.13
224.413	38.23
224.631	11.61
224.849	79.19
225.067	44.37
225.285	-43.69
225.503	60.76
225.721	11.61
225.939	3.41
226.157	13.65
226.375	34.13
226.592	-6.83
226.81	9.56
227.028	46.42
227.246	68.95
227.464	62.8
227.682	42.32
227.9	7.51
228.117	27.99
228.335	36.18
228.553	9.56
228.771	-17.07
228.989	-53.93
229.206	13.65
229.424	68.95
229.642	52.56
229.86	21.85
230.077	-0.68
230.295	-33.45
230.513	7.51
230.731	23.89
230.948	-12.97
231.166	34.13
231.384	21.85
231.601	1.37
231.819	40.28
232.037	3.41
232.254	17.75
232.472	-29.35
232.689	-76.46
232.907	34.13
233.125	-35.5
233.342	101.72
233.56	5.46
233.777	19.8
233.995	-2.73
234.213	87.38
234.43	19.8
234.648	-31.4
234.865	-10.92
235.083	-12.97
235.3	5.46
235.518	64.85
235.735	111.96
235.953	46.42
236.17	46.42
236.388	32.08
236.605	1.37
236.822	42.32
237.04	42.32
237.257	48.47
237.475	-45.74
237.692	30.04
237.909	11.61
238.127	68.95
238.344	50.52
238.562	38.23
238.779	-29.35
238.996	-15.02
239.214	60.76
239.431	60.76
239.648	-58.03
239.865	32.08
240.083	5.46
240.3	23.89
240.517	56.66
240.735	66.9
240.952	3.41
241.169	77.14
241.386	9.56
241.603	15.7
241.821	-41.64
242.038	83.28
242.255	27.99
242.472	-6.83
242.689	71
242.907	1.37
243.124	17.75
243.341	-2.73
243.558	27.99
243.775	44.37
243.992	-4.78
244.209	46.42
244.426	-55.98
244.643	32.08
244.86	-29.35
245.078	79.19
245.295	-35.5
245.512	46.42
245.729	-47.79
245.946	101.72
246.163	36.18
246.38	27.99
246.597	-10.92
246.814	5.46
247.031	91.48
247.248	40.28
247.464	-0.68
247.681	13.65
247.898	9.56
248.115	7.51
248.332	-21.16
248.549	3.41
248.766	27.99
248.983	91.48
249.2	32.08
249.417	58.71
249.633	-0.68
249.85	-27.31
250.067	-6.83
250.284	73.04
250.501	21.85
250.717	17.75
250.934	-25.26
251.151	9.56
251.368	54.61
251.585	71
251.801	7.51
252.018	-43.69
252.235	52.56
252.451	30.04
252.668	32.08
252.885	40.28
253.102	32.08
253.318	54.61
253.535	-6.83
253.752	15.7
253.968	-70.31
254.185	42.32
254.401	-4.78
254.618	27.99
254.835	1.37
255.051	13.65
255.268	-2.73
255.484	5.46
255.701	-2.73
255.917	91.48
256.134	-49.83
256.351	-15.02
256.567	60.76
256.784	11.61
257	-15.02
257.217	34.13
257.433	40.28
257.65	-39.59
257.866	77.14
258.082	15.7
258.299	60.76
258.515	-8.87
258.732	17.75
258.948	52.56
259.165	-43.69
259.381	-15.02
259.597	48.47
259.814	60.76
260.03	48.47
260.246	116.05
260.463	44.37
260.679	36.18
260.895	30.04
261.112	34.13
261.328	-19.11
261.544	40.28
261.761	23.89
261.977	50.52
262.193	-29.35
262.409	13.65
262.626	58.71
262.842	44.37
263.058	-6.83
263.274	73.04
263.49	66.9
263.707	101.72
263.923	85.33
264.139	-8.87
264.355	-10.92
264.571	27.99
264.787	13.65
265.004	-4.78
265.22	56.66
265.436	5.46
265.652	66.9
265.868	-35.5
266.084	-78.51
266.3	25.94
266.516	-39.59
266.732	5.46
266.948	46.42
267.164	42.32
267.38	48.47
267.596	3.41
267.812	50.52
268.028	40.28
268.244	32.08
268.46	-2.73
268.676	-19.11
268.892	85.33
269.108	-12.97
269.324	68.95
269.54	-10.92
269.756	-58.03
269.972	-29.35
270.188	17.75
270.403	9.56
270.619	1.37
270.835	30.04
271.051	85.33
271.267	-8.87
271.483	-17.07
271.698	77.14
271.914	40.28
272.13	42.32
272.346	50.52
272.562	-17.07
272.777	23.89
272.993	-33.45
273.209	25.94
273.425	71
273.64	40.28
273.856	23.89
274.072	44.37
274.287	-41.64
274.503	30.04
274.719	58.71
274.934	11.61
275.15	-68.27
275.366	50.52
275.581	-8.87
275.797	130.39
276.012	7.51
276.228	36.18
276.444	7.51
276.659	23.89
276.875	-25.26
277.09	-68.27
277.306	1.37
277.521	68.95
277.737	-8.87
277.952	7.51
278.168	7.51
278.383	60.76
278.599	38.23
278.814	56.66
279.03	13.65
279.245	60.76
279.461	-4.78
279.676	68.95
279.892	-8.87
280.107	54.61
280.322	25.94
280.538	58.71
280.753	56.66
280.969	62.8
281.184	1.37
281.399	95.57
281.615	44.37
281.83	42.32
282.045	-96.94
282.26	73.04
282.476	146.77
282.691	-0.68
282.906	-19.11
283.122	-21.16
283.337	7.51
283.552	107.86
283.767	-12.97
283.983	19.8
284.198	-51.88
284.413	5.46
284.628	-12.97
284.843	40.28
285.058	64.85
285.274	11.61
285.489	1.37
285.704	-29.35
285.919	32.08
286.134	15.7
286.349	42.32
286.564	-10.92
286.779	-19.11
286.995	-35.5
287.21	-51.88
287.425	-39.59
287.64	-4.78
287.855	11.61
288.07	15.7
288.285	34.13
288.5	30.04
288.715	71
288.93	79.19
289.145	23.89
289.36	34.13
289.575	27.99
289.79	50.52
290.004	13.65
290.219	-2.73
290.434	87.38
290.649	11.61
290.864	3.41
291.079	23.89
291.294	32.08
291.509	99.67
291.724	54.61
291.938	50.52
292.153	25.94
292.368	-49.83
292.583	38.23
292.798	-25.26
293.012	3.41
293.227	38.23
293.442	-25.26
293.657	71
293.871	19.8
294.086	91.48
294.301	23.89
294.516	17.75
294.73	30.04
294.945	7.51
295.16	48.47
295.374	3.41
295.589	91.48
295.804	60.76
296.018	-10.92
296.233	-31.4
296.447	-4.78
296.662	-31.4
296.877	21.85
297.091	105.81
297.306	58.71
297.52	-19.11
297.735	-37.55
297.949	7.51
298.164	48.47
298.378	54.61
298.593	27.99
298.807	30.04
299.022	-15.02
299.236	17.75
299.451	36.18
299.665	77.14
299.88	-4.78
300.094	21.85
300.309	79.19
300.523	-0.68
300.737	13.65
300.952	32.08
301.166	68.95
301.381	-23.21
301.595	-2.73
301.809	-19.11
302.024	15.7
302.238	34.13
302.452	68.95
302.667	23.89
302.881	85.33
303.095	83.28
303.309	44.37
303.524	-21.16
303.738	17.75
303.952	9.56
304.166	40.28
304.381	-41.64
304.595	54.61
304.809	58.71
305.023	89.43
305.237	17.75
305.452	19.8
305.666	-2.73
305.88	91.48
306.094	-21.16
306.308	52.56
306.522	58.71
306.736	23.89
306.95	56.66
307.164	60.76
307.379	15.7
307.593	75.09
307.807	97.62
308.021	99.67
308.235	38.23
308.449	-55.98
308.663	36.18
308.877	138.58
309.091	34.13
309.305	73.04
309.519	-70.31
309.733	13.65
309.947	58.71
310.161	75.09
310.374	-12.97
310.588	89.43
310.802	42.32
311.016	56.66
311.23	-8.87
311.444	-25.26
311.658	32.08
311.872	50.52
312.085	62.8
312.299	93.52
312.513	44.37
312.727	11.61
312.941	-23.21
313.154	27.99
313.368	77.14
313.582	44.37
313.796	11.61
314.009	83.28
314.223	101.72
314.437	-78.51
314.651	48.47
314.864	15.7
315.078	62.8
315.292	11.61
315.505	-4.78
315.719	27.99
315.933	42.32
316.146	34.13
316.36	3.41
316.573	50.52
316.787	60.76
317.001	48.47
317.214	36.18
317.428	7.51
317.641	5.46
317.855	-15.02
318.068	64.85
318.282	11.61
318.495	66.9
318.709	11.61
318.922	64.85
319.136	62.8
319.349	103.76
319.563	44.37
319.776	25.94
319.99	-23.21
320.203	54.61
320.417	46.42
320.63	62.8
320.843	-23.21
321.057	-39.59
321.27	25.94
321.483	15.7
321.697	21.85
321.91	42.32
322.124	13.65
322.337	32.08
322.55	5.46
322.763	-12.97
322.977	11.61
323.19	7.51
323.403	68.95
323.617	25.94
323.83	9.56
324.043	-0.68
324.256	-17.07
324.469	44.37
324.683	97.62
324.896	-12.97
325.109	34.13
325.322	1.37
325.535	7.51
325.748	1.37
325.962	81.24
326.175	15.7
326.388	40.28
326.601	58.71
326.814	19.8
327.027	25.94
327.24	87.38
327.453	15.7
327.666	7.51
327.879	19.8
328.092	30.04
328.305	62.8
328.518	-41.64
328.731	-23.21
328.944	56.66
329.157	-41.64
329.37	5.46
329.583	126.29
329.796	81.24
330.009	-0.68
330.222	73.04
330.435	27.99
330.648	36.18
330.861	-17.07
331.073	23.89
331.286	-0.68
331.499	64.85
331.712	11.61
331.925	21.85
332.138	3.41
332.35	62.8
332.563	3.41
332.776	83.28
332.989	46.42
333.202	44.37
333.414	60.76
333.627	71
333.84	9.56
334.053	34.13
334.265	19.8
334.478	40.28
334.691	44.37
334.903	21.85
335.116	19.8
335.329	-25.26
335.541	25.94
335.754	38.23
335.966	-53.93
336.179	25.94
336.392	46.42
336.604	34.13
336.817	19.8
337.029	17.75
337.242	79.19
337.454	50.52
337.667	5.46
337.88	126.29
338.092	13.65
338.305	34.13
338.517	-27.31
338.729	46.42
338.942	19.8
339.154	58.71
339.367	5.46
339.579	-39.59
339.792	85.33
340.004	81.24
340.217	-0.68
340.429	87.38
340.641	-19.11
340.854	3.41
341.066	38.23
341.278	38.23
341.491	38.23
341.703	19.8
341.915	46.42
342.128	25.94
342.34	-17.07
342.552	-23.21
342.764	40.28
342.977	-12.97
343.189	81.24
343.401	56.66
343.613	-15.02
343.826	-8.87
344.038	-0.68
344.25	30.04
344.462	42.32
344.674	91.48
344.886	3.41
345.099	-23.21
345.311	-35.5
345.523	54.61
345.735	13.65
345.947	48.47
346.159	17.75
346.371	64.85
346.583	85.33
346.795	44.37
347.007	-2.73
347.219	50.52
347.431	-6.83
347.643	46.42
347.855	21.85
348.067	11.61
348.279	7.51
348.491	-0.68
348.703	-10.92
348.915	-41.64
349.127	-0.68
349.339	11.61
349.551	30.04
349.763	52.56
349.975	52.56
350.187	11.61
350.399	-47.79
350.61	85.33
350.822	11.61
351.034	77.14
351.246	-12.97
351.458	75.09
351.669	60.76
351.881	101.72
352.093	107.86
352.305	27.99
352.517	44.37
352.728	44.37
352.94	64.85
353.152	73.04
353.363	-25.26
353.575	23.89
353.787	52.56
353.999	93.52
354.21	48.47
354.422	-72.36
354.633	44.37
354.845	13.65
355.057	62.8
355.268	5.46
355.48	-21.16
355.692	48.47
355.903	32.08
356.115	60.76
356.326	-33.45
356.538	40.28
356.749	30.04
356.961	77.14
357.172	34.13
357.384	25.94
357.595	89.43
357.807	52.56
358.018	-29.35
358.23	52.56
358.441	64.85
358.653	66.9
358.864	-25.26
359.075	-19.11
359.287	-12.97
359.498	-35.5
359.709	30.04
359.921	-41.64
360.132	89.43
360.344	25.94
360.555	15.7
360.766	48.47
360.977	56.66
361.189	42.32
361.4	-12.97
361.611	19.8
361.823	36.18
362.034	-0.68
362.245	-2.73
362.456	-12.97
362.667	48.47
362.879	1.37
363.09	11.61
363.301	56.66
363.512	-21.16
363.723	40.28
363.935	27.99
364.146	48.47
364.357	-49.83
364.568	95.57
364.779	23.89
364.99	52.56
365.201	73.04
365.412	52.56
365.623	-4.78
365.834	124.24
366.045	-25.26
366.256	56.66
366.467	77.14
366.678	-55.98
366.889	30.04
367.1	15.7
367.311	64.85
367.522	56.66
367.733	44.37
367.944	36.18
368.155	-2.73
368.366	77.14
368.577	62.8
368.788	-43.69
368.999	3.41
369.209	60.76
369.42	44.37
369.631	64.85
369.842	89.43
370.053	25.94
370.264	66.9
370.474	71
370.685	-15.02
370.896	-37.55
371.107	73.04
371.317	19.8
371.528	60.76
371.739	83.28
371.95	19.8
372.16	71
372.371	-27.31
372.582	7.51
372.792	48.47
373.003	62.8
373.214	40.28
373.424	44.37
373.635	-12.97
373.846	73.04
374.056	62.8
374.267	38.23
374.477	48.47
374.688	23.89
374.898	75.09
375.109	27.99
375.319	17.75
375.53	58.71
375.74	83.28
375.951	81.24
376.161	56.66
376.372	77.14
376.582	64.85
376.793	42.32
377.003	13.65
377.214	25.94
377.424	73.04
377.635	1.37
377.845	-33.45
378.055	75.09
378.266	36.18
378.476	13.65
378.686	17.75
378.897	85.33
379.107	68.95
379.317	40.28
379.528	-4.78
379.738	95.57
379.948	118.1
380.158	62.8
380.369	46.42
380.579	36.18
380.789	62.8
380.999	44.37
381.21	52.56
381.42	114
381.63	17.75
381.84	77.14
382.05	5.46
382.261	93.52
382.471	44.37
382.681	36.18
382.891	23.89
383.101	-15.02
383.311	23.89
383.521	-39.59
383.731	3.41
383.941	54.61
384.151	11.61
384.361	56.66
384.571	27.99
384.781	-4.78
384.991	81.24
385.201	81.24
385.411	21.85
385.621	103.76
385.831	32.08
386.041	99.67
386.251	95.57
386.461	58.71
386.671	99.67
386.881	32.08
387.091	15.7
387.301	42.32
387.511	25.94
387.72	34.13
387.93	44.37
388.14	42.32
388.35	38.23
388.56	11.61
388.769	-6.83
388.979	48.47
389.189	-4.78
389.399	11.61
389.609	54.61
389.818	54.61
390.028	-0.68
390.238	107.86
390.447	44.37
390.657	99.67
390.867	89.43
391.076	15.7
391.286	56.66
391.496	19.8
391.705	103.76
391.915	48.47
392.125	64.85
392.334	44.37
392.544	19.8
392.753	-21.16
392.963	56.66
393.172	-21.16
393.382	-15.02
393.591	101.72
393.801	50.52
394.01	36.18
394.22	9.56
394.429	99.67
394.639	42.32
394.848	79.19
395.058	66.9
395.267	83.28
395.477	-62.12
395.686	44.37
395.895	56.66
396.105	107.86
396.314	83.28
396.524	83.28
396.733	118.1
396.942	64.85
397.152	118.1
397.361	54.61
397.57	132.44
397.78	36.18
397.989	93.52
398.198	93.52
398.407	91.48
398.617	50.52
398.826	15.7
399.035	58.71
399.244	64.85
399.453	103.76
399.663	101.72
399.872	101.72
400.081	130.39
400.29	116.05
400.499	97.62
400.708	34.13
400.917	105.81
401.127	118.1
401.336	91.48
401.545	109.91
401.754	152.91
401.963	87.38
402.172	134.48
402.381	54.61
402.59	46.42
402.799	91.48
403.008	144.72
403.217	68.95
403.426	124.24
403.635	50.52
403.844	130.39
404.053	136.53
404.262	120.15
404.471	183.63
404.68	132.44
404.888	34.13
405.097	60.76
405.306	208.21
405.515	95.57
405.724	130.39
405.933	93.52
406.142	79.19
406.35	150.87
406.559	111.96
406.768	56.66
406.977	122.2
407.185	177.49
407.394	187.73
407.603	159.06
407.812	193.87
408.02	228.69
408.229	224.59
408.438	103.76
408.646	228.69
408.855	195.92
409.064	224.59
409.272	183.63
409.481	152.91
409.69	204.11
409.898	249.17
410.107	259.41
410.315	296.27
410.524	261.46
410.733	236.88
410.941	218.45
411.15	183.63
411.358	308.56
411.567	372.05
411.775	269.65
411.984	353.62
412.192	378.19
412.401	437.58
412.609	333.14
412.818	449.87
413.026	367.95
413.234	392.53
413.443	431.44
413.651	499.02
413.86	431.44
414.068	466.25
414.276	458.06
414.485	531.79
414.693	535.89
414.901	537.93
415.11	499.02
415.318	486.73
415.526	570.7
415.734	654.67
415.943	609.61
416.151	662.86
416.359	646.48
416.567	707.91
416.776	693.58
416.984	652.62
417.192	779.59
417.4	820.55
417.608	808.27
417.817	732.49
418.025	875.85
418.233	857.42
418.441	929.1
418.649	947.53
418.857	1058.12
419.065	1092.93
419.273	1021.25
419.481	1062.21
419.689	1207.62
419.897	1287.49
420.105	1205.57
420.313	1221.95
420.521	1170.76
420.729	1371.46
420.937	1330.5
421.145	1357.12
421.353	1500.48
421.561	1545.53
421.769	1561.92
421.977	1705.28
422.185	1506.62
422.393	1654.08
422.601	1811.77
422.809	1805.63
423.017	1826.11
423.224	1918.26
423.432	1963.32
423.64	2024.76
423.848	2149.68
424.056	2147.64
424.263	2233.65
424.471	2254.13
424.679	2342.19
424.887	2444.59
425.094	2596.14
425.302	2530.61
425.51	2669.87
425.718	2712.88
425.925	2686.25
426.133	2780.46
426.341	2934.06
426.548	3142.95
426.756	3028.26
426.964	3134.76
427.171	3214.63
427.379	3347.75
427.586	3394.85
427.794	3505.44
428.001	3788.06
428.209	3874.07
428.417	3857.69
428.624	4179.22
428.832	4039.96
429.039	4168.98
429.247	4257.04
429.454	4427.03
429.662	4760.84
429.869	4463.89
430.076	4783.37
430.284	4615.44
430.491	5041.42
430.699	5090.57
430.906	5166.34
431.114	5268.74
431.321	5401.86
431.528	5635.33
431.736	5793.02
431.943	6085.88
432.15	5956.86
432.358	6016.25
432.565	6262.01
432.772	6229.24
432.979	6659.31
433.187	6653.17
433.394	6827.25
433.601	7212.26
433.808	7306.47
434.016	7138.54
434.223	7568.61
434.43	7974.11
434.637	7855.33
434.844	8279.25
435.052	8273.11
435.259	8275.16
435.466	8295.64
435.673	8142.04
435.88	9032.91
436.087	9448.65
436.294	9368.77
436.501	9112.78
436.708	9288.9
436.915	9712.83
437.122	10077.37
437.329	10230.97
437.537	10206.39
437.743	10400.95
437.95	10439.86
438.157	11078.83
438.364	11568.29
438.571	11273.39
438.778	11517.09
438.985	12518.55
439.192	12008.61
439.399	12450.97
439.606	11986.08
439.813	12813.46
440.02	13614.21
440.227	13376.65
440.433	13188.24
440.64	13677.7
440.847	13468.81
441.054	13900.93
441.261	14972.02
441.467	14523.51
441.674	14673.01
441.881	15320.17
442.088	15346.8
442.294	15178.86
442.501	15557.74
442.708	15795.3
442.914	16776.28
443.121	17106
443.328	16749.65
443.534	17849.41
443.741	17429.58
443.948	17155.15
444.154	18428.99
444.361	18381.88
444.568	18512.95
444.774	18293.82
444.981	18664.5
445.187	19332.14
445.394	20190.24
445.6	19835.94
445.807	21535.76
446.013	20558.88
446.22	20995.09
446.426	21799.94
446.633	22144
446.839	23049.21
447.046	22113.28
447.252	23260.15
447.459	23079.93
447.665	22914.04
447.871	23940.07
448.078	25074.65
448.284	23624.68
448.491	24382.43
448.697	25416.66
448.903	25887.69
449.11	25623.5
449.316	25340.88
449.522	25850.83
449.728	26686.4
449.935	26799.04
450.141	26809.28
450.347	27384.76
450.553	26405.83
450.76	26532.8
450.966	27788.21
451.172	27360.18
451.378	27904.94
451.584	27820.97
451.791	27775.92
451.997	27976.62
452.203	28324.77
452.409	28373.92
452.615	27995.05
452.821	27077.56
453.027	27028.41
453.233	28011.43
453.44	26805.18
453.646	27495.35
453.852	27526.07
454.058	27646.9
454.264	26831.8
454.47	27720.62
454.676	26495.94
454.882	27880.36
455.088	25377.75
455.294	25498.58
455.5	25838.54
455.705	26385.35
455.911	25215.96
456.117	24726.49
456.323	24282.08
456.529	23172.08
456.735	23899.11
456.941	23204.85
457.147	22989.81
457.352	22447.1
457.558	22158.34
457.764	21799.94
457.97	21459.98
458.176	20921.37
458.381	20962.33
458.587	20001.83
458.793	19881
458.999	19106.87
459.204	20374.56
459.41	19899.43
459.616	18463.8
459.821	18742.33
460.027	18207.81
460.233	17972.29
460.438	17325.13
460.644	17513.55
460.85	16569.43
461.055	16381.02
461.261	16309.34
461.466	14982.26
461.672	14699.64
461.878	15621.22
462.083	14566.52
462.289	14552.18
462.494	14201.98
462.7	13663.36
462.905	13153.42
463.111	13712.52
463.316	13683.84
463.522	13569.16
463.727	13620.36
463.932	13386.89
464.138	13417.61
464.343	13368.46
464.549	12811.41
464.754	13534.34
464.959	13237.39
465.165	13122.7
465.37	12596.37
465.575	12536.98
465.781	12784.79
465.986	12967.06
466.191	12536.98
466.397	12156.06
466.602	11685.03
466.807	11967.65
467.012	12106.91
467.218	12199.07
467.423	12168.35
467.628	11938.98
467.833	12475.54
468.038	12033.18
468.244	11682.98
468.449	12201.12
468.654	11695.27
468.859	11453.61
469.064	11461.8
469.269	10919.09
469.474	11422.89
469.679	11328.68
469.885	11087.02
470.09	11218.09
470.295	10945.71
470.5	10914.99
470.705	10837.17
470.91	10622.13
471.115	10575.03
471.32	10751.15
471.525	10691.76
471.73	10353.85
471.935	10271.93
472.139	9913.53
472.344	10112.19
472.549	10044.6
472.754	9872.57
472.959	9729.22
473.164	9530.56
473.369	9356.49
473.574	9792.7
473.778	9616.58
473.983	9508.04
474.188	9495.75
474.393	9129.16
474.598	9045.2
474.802	8994
475.007	9008.33
475.212	8903.89
475.417	8461.52
475.621	8678.61
475.826	8791.25
476.031	8428.76
476.235	8252.63
476.44	8406.23
476.645	8275.16
476.849	8457.43
477.054	8266.97
477.259	7992.54
477.463	8088.79
477.668	7740.64
477.872	8117.47
478.077	7705.82
478.282	7474.4
478.486	7650.53
478.691	7533.79
478.895	7615.71
479.1	7312.61
479.304	7478.5
479.509	7314.66
479.713	7492.84
479.918	7453.92
480.122	6958.32
480.326	7255.27
480.531	7204.07
480.735	7226.6
480.94	6937.84
481.144	7271.65
481.348	6923.5
481.553	7167.21
481.757	6960.36
481.961	7015.66
482.166	7038.19
482.37	7066.86
482.574	6886.64
482.778	7019.75
482.983	7222.5
483.187	6970.6
483.391	7044.33
483.595	7068.91
483.8	6855.92
484.004	7075.05
484.208	7185.64
484.412	6847.72
484.616	6821.1
484.821	6878.44
485.025	6831.34
485.229	6943.98
485.433	6888.68
485.637	6786.29
485.841	6915.31
486.045	6726.89
486.249	6841.58
486.453	6798.57
486.657	6755.57
486.861	6923.5
487.065	6601.97
487.269	6857.96
487.473	6604.02
487.677	7015.66
487.881	6829.29
488.085	6913.26
488.289	6814.96
488.493	6874.35
488.697	7083.24
488.901	6843.63
489.105	6857.96
489.309	6933.74
489.512	7083.24
489.716	6993.13
489.92	6814.96
490.124	7027.95
490.328	6989.03
490.531	6946.03
490.735	7013.61
490.939	7085.29
491.143	6956.27
491.346	7126.25
491.55	7148.78
491.754	7197.93
491.958	7220.46
492.161	7226.6
492.365	7331.05
492.569	7146.73
492.772	7185.64
492.976	7347.43
493.18	7408.87
493.383	7378.15
493.587	7455.97
493.79	7615.71
493.994	7496.93
494.197	7505.12
494.401	7714.02
494.605	7705.82
494.808	7859.42
495.012	7832.8
495.215	7814.37
495.419	8013.02
495.622	8080.6
495.825	7927
496.029	7910.62
496.232	8309.97
496.436	8117.47
496.639	8449.24
496.843	8312.02
497.046	8525.01
497.249	8463.57
497.453	8649.94
497.656	8654.03
497.859	8539.35
498.063	8881.36
498.266	8953.04
498.469	8967.37
498.673	9221.32
498.876	9174.22
499.079	9299.14
499.282	9321.67
499.485	9704.64
499.689	9706.69
499.892	9661.63
500.095	9747.65
500.298	10140.86
500.501	9749.7
500.705	9958.59
500.908	10226.87
501.111	10194.11
501.314	10409.14
501.517	10503.35
501.72	10697.91
501.923	10730.67
502.126	11048.11
502.329	11015.34
502.532	11252.91
502.735	11199.66
502.938	11422.89
503.141	11388.07
503.344	11617.44
503.547	11740.32
503.75	11762.85
503.953	11875.49
504.156	12070.05
504.359	12311.71
504.562	12237.98
504.765	12315.8
504.968	12676.24
505.17	12801.17
505.373	12829.84
505.576	12907.66
505.779	12977.3
505.982	12965.01
506.185	13470.86
506.387	13214.86
506.59	13356.17
506.793	13671.56
506.996	13741.19
507.198	14216.32
507.401	14025.86
507.604	14191.74
507.807	14595.19
508.009	14570.61
508.212	14799.99
508.415	14873.71
508.617	15244.4
508.82	15354.99
509.022	15053.94
509.225	15746.15
509.428	15582.31
509.63	15842.4
509.833	15885.41
510.035	16323.68
510.238	15928.42
510.44	16415.83
510.643	16491.61
510.845	16669.78
511.048	16667.73
511.25	17122.38
511.453	17196.11
511.655	17687.62
511.858	17351.76
512.06	17886.28
512.262	17917
512.465	17775.69
512.667	18324.54
512.87	18285.63
513.072	18265.15
513.274	18809.91
513.477	18910.26
513.679	19223.6
513.881	19315.76
514.084	19393.58
514.286	19665.96
514.488	19674.15
514.69	20241.44
514.893	20251.68
515.095	20157.47
515.297	20446.24
515.499	20827.16
515.701	20816.92
515.904	21031.96
516.106	21431.31
516.308	21441.55
516.51	21570.57
516.712	21439.5
516.914	21933.06
517.116	22082.56
517.318	22316.03
517.52	22416.38
517.722	22481.92
517.925	23143.41
518.127	23280.63
518.329	23200.76
518.531	23323.63
518.733	23686.12
518.935	23804.91
519.136	23733.23
519.338	24189.92
519.54	24437.73
519.742	24716.25
519.944	25134.04
520.146	25383.89
520.348	25408.47
520.55	25633.74
520.752	25344.98
520.954	25908.17
521.155	25756.62
521.357	26330.05
521.559	26702.78
521.761	26825.66
521.963	26479.55
522.164	26962.87
522.366	27274.17
522.568	27210.68
522.77	27626.42
522.971	27829.16
523.173	27743.15
523.375	28066.73
523.576	27941.8
523.778	28267.43
523.98	28609.44
524.181	28318.63
524.383	28687.26
524.584	28971.93
524.786	29344.66
524.988	28945.31
525.189	29135.77
525.391	29545.36
525.592	29729.68
525.794	29858.7
525.995	29840.27
526.197	30008.2
526.398	30118.79
526.6	30280.58
526.801	30555.01
527.003	30552.96
527.204	30675.84
527.406	31050.62
527.607	30694.27
527.808	31273.85
528.01	30407.56
528.211	31177.59
528.412	31728.5
528.614	31226.74
528.815	31531.89
529.016	31757.17
529.218	31425.4
529.419	31724.4
529.62	31652.72
529.822	31771.5
530.023	31775.6
530.224	32129.9
530.425	31785.84
530.626	32113.52
530.828	31873.9
531.029	32576.36
531.23	31642.48
531.431	32103.28
531.632	32588.64
531.833	32465.77
532.035	32195.43
532.236	32588.64
532.437	32627.56
532.638	32195.43
532.839	32576.36
533.04	32781.15
533.241	32187.24
533.442	33043.29
533.643	32525.16
533.844	32768.87
534.045	32764.77
534.246	32400.23
534.447	32734.05
534.648	33061.72
534.849	32863.07
535.05	32508.77
535.251	32701.28
535.451	32420.71
535.652	32822.11
535.853	32850.78
536.054	32813.92
536.255	33031.01
536.456	32482.15
536.657	33258.33
536.857	32617.32
537.058	32473.96
537.259	33121.12
537.46	32994.14
537.66	32842.59
537.861	33229.66
538.062	32691.04
538.263	33045.34
538.463	32795.49
538.664	32719.71
538.865	32867.17
539.065	33237.85
539.266	32553.83
539.466	32969.57
539.667	32666.47
539.868	33114.97
540.068	32793.44
540.269	32912.22
540.469	33039.2
540.67	32367.46
540.87	32711.52
541.071	32342.89
541.271	32889.7
541.472	32899.94
541.672	32607.08
541.873	32736.1
542.073	32310.12
542.274	32854.88
542.474	32416.61
542.675	32529.25
542.875	32879.46
543.075	32768.87
543.276	32392.04
543.476	33137.5
543.676	32373.61
543.877	32748.39
544.077	32670.56
544.277	32510.82
544.478	32777.06
544.678	32531.3
544.878	32519.01
545.078	32490.34
545.279	32385.9
545.479	32371.56
545.679	32643.94
545.879	32625.51
546.079	32453.48
546.28	32621.41
546.48	32275.3
546.68	32652.13
546.88	32858.98
547.08	32410.47
547.28	32496.49
547.48	32191.34
547.68	32684.9
547.88	32117.61
548.081	32453.48
548.281	32576.36
548.481	32301.93
548.681	32555.88
548.881	32635.75
549.081	32389.99
549.28	32031.6
549.48	32353.13
549.68	32392.04
549.88	33051.49
550.08	32138.09
550.28	32191.34
550.48	32146.28
550.68	32361.32
550.88	32228.2
551.08	32078.7
551.279	32627.56
551.479	31968.11
551.679	31859.57
551.879	32430.95
552.079	32287.59
552.278	32252.78
552.478	32041.84
552.678	32115.56
552.878	32693.09
553.077	31994.73
553.277	32306.02
553.477	32244.59
553.676	31937.39
553.876	31892.33
554.076	31703.92
554.275	32189.29
554.475	31337.34
554.674	32043.88
554.874	31761.26
555.074	31894.38
555.273	31712.11
555.473	31994.73
555.672	31681.39
555.872	31581.04
556.071	31648.63
556.271	31654.77
556.47	31763.31
556.67	31241.08
556.869	31492.98
557.068	31464.31
557.268	31437.69
557.467	31413.11
557.667	31417.21
557.866	31400.82
558.065	31310.71
558.265	30944.13
558.464	31110.01
558.663	31703.92
558.863	30796.67
559.062	31660.91
559.261	30905.21
559.461	31460.21
559.66	30628.74
559.859	30864.25
560.058	30710.66
560.258	30776.19
560.457	30870.4
560.656	30573.44
560.855	30653.31
561.054	30952.32
561.253	30622.59
561.453	30333.83
561.652	30493.57
561.851	30628.74
562.05	30401.41
562.249	30352.26
562.448	30217.1
562.647	30239.62
562.846	30368.65
563.045	30124.94
563.244	29811.6
563.443	30401.41
563.642	29614.99
563.841	29926.28
564.04	29850.51
564.239	30147.47
564.438	29328.28
564.637	29989.77
564.836	29465.49
565.035	29399.96
565.234	29549.46
565.432	29260.69
565.631	29264.79
565.83	29381.52
566.029	29246.36
566.228	28877.72
566.427	28904.35
566.625	28812.19
566.824	28691.36
567.023	28883.87
567.222	28365.73
567.42	28869.53
567.619	28679.07
567.818	28400.55
568.016	28617.63
568.215	28670.88
568.414	28296.1
568.612	28683.17
568.811	28257.19
569.01	28162.98
569.208	27802.54
569.407	28150.7
569.605	27788.21
569.804	28222.37
570.002	27593.65
570.201	27972.52
570.4	27720.62
570.598	27294.64
570.797	27280.31
570.995	27706.29
571.193	27192.25
571.392	27419.57
571.59	27245.49
571.789	27116.47
571.987	27157.43
572.186	27020.22
572.384	26930.11
572.582	26876.86
572.781	26733.5
572.979	26438.59
573.177	26813.37
573.376	26538.94
573.574	26090.44
573.772	26602.43
573.971	26504.13
574.169	26033.1
574.367	25994.18
574.565	26069.96
574.763	26235.84
574.962	25983.94
575.16	25693.13
575.358	26039.24
575.556	25375.7
575.754	25572.3
575.952	25535.44
576.151	25768.91
576.349	25236.44
576.547	25615.31
576.745	25617.36
576.943	25363.41
577.141	25052.12
577.339	25254.87
577.537	25062.36
577.735	25066.45
577.933	24814.55
578.131	24646.62
578.329	24636.38
578.527	24437.73
578.725	24562.65
578.923	24724.44
579.121	24243.17
579.319	24259.56
579.516	24693.72
579.714	24306.66
579.912	24380.39
580.11	24298.47
580.308	24288.23
580.506	24044.52
580.704	23757.8
580.901	23946.22
581.099	23958.5
581.297	23956.46
581.495	23917.54
581.692	23727.08
581.89	23489.52
582.088	23854.06
582.285	23565.29
582.483	23602.16
582.681	23464.94
582.878	23264.24
583.076	23200.76
583.274	23466.99
583.471	22971.38
583.669	23043.06
583.866	22909.94
584.064	23241.71
584.262	22807.55
584.459	22801.4
584.657	22596.6
584.854	22893.56
585.052	22203.39
585.249	22537.21
585.447	22512.64
585.644	22240.26
585.841	22518.78
586.039	22377.47
586.236	21955.59
586.434	21957.64
586.631	21963.78
586.828	22098.95
587.026	21865.48
587.223	22041.6
587.42	21666.83
587.618	21916.68
587.815	21562.38
588.012	21775.37
588.21	21736.46
588.407	21672.97
588.604	21398.54
588.801	21347.34
588.999	21437.45
589.196	21500.94
589.393	21355.54
589.59	21169.17
589.787	21240.85
589.984	21128.21
590.182	20915.22
590.379	20952.09
590.576	20960.28
590.773	20743.19
590.97	20651.03
591.167	20644.89
591.364	20470.81
591.561	20646.94
591.758	20274.21
591.955	20726.81
592.152	20456.48
592.349	20421.66
592.546	20161.57
592.743	20362.27
592.94	20132.9
593.137	20302.88
593.334	19991.59
593.531	19745.83
593.727	19899.43
593.924	19878.95
594.121	19622.95
594.318	19751.98
594.515	19483.69
594.712	19616.81
594.908	19672.11
595.105	19520.56
595.302	19485.74
595.499	19393.58
595.696	19303.47
595.892	19063.86
596.089	19215.41
596.286	18897.97
596.482	19029.04
596.679	19006.52
596.876	19043.38
597.072	18814.01
597.269	19033.14
597.466	18676.79
597.662	18664.5
597.859	18826.29
598.055	18758.71
598.252	18601.02
598.448	18648.12
598.645	18369.6
598.841	18486.33
599.038	18488.38
599.234	18410.56
599.431	18254.91
599.627	17941.57
599.824	18259.01
600.02	18281.53
600.217	17998.91
600.413	18144.32
600.609	18003.01
600.806	17906.76
601.002	18078.79
601.198	17661
601.395	17642.57
601.591	17402.96
601.787	17742.92
601.984	17433.68
602.18	17656.9
602.376	17450.06
602.572	17464.39
602.769	17611.85
602.965	17353.8
603.161	17247.31
603.357	17409.1
603.553	17048.66
603.75	17149.01
603.946	16995.41
604.142	16999.51
604.338	16737.37
604.534	16944.21
604.73	16845.91
604.926	16782.42
605.122	16673.88
605.318	16673.88
605.514	16438.36
605.71	16647.26
605.906	16534.62
606.102	16323.68
606.298	16548.95
606.494	16723.03
606.69	16333.92
606.886	16452.7
607.082	16262.24
607.278	16518.23
607.474	16006.24
607.67	16065.63
607.866	16016.48
608.062	16407.64
608.257	16094.3
608.453	16127.07
608.649	15989.86
608.845	15713.38
609.041	15979.62
609.236	15740.01
609.432	15709.29
609.628	15725.67
609.824	15733.86
610.019	15471.72
610.215	15615.08
610.411	15510.63
610.606	15524.97
610.802	15639.65
610.998	15608.94
611.193	15529.06
611.389	15340.65
611.584	15549.54
611.78	15246.44
611.976	15387.75
612.171	15350.89
612.367	15465.58
612.562	15268.97
612.758	14834.8
612.953	14795.89
613.149	15512.68
613.344	14871.67
613.539	15264.88
613.735	15006.83
613.93	14888.05
614.126	14920.82
614.321	15027.31
614.517	15142
614.712	14847.09
614.907	14775.41
615.103	14924.91
615.298	14517.37
615.493	14935.15
615.688	14814.32
615.884	15072.37
616.079	14574.71
616.274	14664.82
616.47	14756.98
616.665	14457.98
616.86	14517.37
617.055	14527.61
617.25	14376.06
617.445	14683.25
617.641	14271.61
617.836	14564.47
618.031	14281.85
618.226	14615.67
618.421	14355.58
618.616	14402.68
618.811	13886.59
619.006	14335.1
619.201	14085.25
619.396	14093.44
619.591	13900.93
619.786	13933.7
619.981	13763.72
620.176	13925.5
620.371	13847.68
620.566	13692.04
620.761	13603.97
620.956	13710.47
621.151	13427.85
621.346	13456.52
621.541	13444.23
621.735	13429.9
621.93	13294.73
622.125	13118.61
622.32	13190.28
622.515	12993.68
622.709	13069.45
622.904	13102.22
623.099	12909.71
623.294	12852.37
623.488	12606.61
623.683	12770.45
623.878	12457.11
624.072	12590.23
624.267	12381.34
624.462	12514.45
624.656	12407.96
624.851	12262.55
625.046	12606.61
625.24	12205.21
625.435	11963.55
625.629	12082.33
625.824	12293.27
626.018	11877.54
626.213	11723.94
626.407	11889.82
626.602	11650.21
626.796	11564.2
626.991	11463.85
627.185	11439.27
627.38	11560.1
627.574	11525.29
627.768	11336.87
627.963	11297.96
628.157	11138.22
628.352	11009.2
628.546	11029.68
628.74	11119.79
628.935	11023.53
629.129	10929.33
629.323	10644.66
629.517	10650.8
629.712	10702
629.906	10599.6
630.1	10820.78
630.294	10765.49
630.489	10544.31
630.683	10796.21
630.877	10200.25
631.071	10392.76
631.265	10370.23
631.459	10417.33
631.653	10249.4
631.848	10058.94
632.042	9946.3
632.236	10032.32
632.43	10044.6
632.624	9737.41
632.818	9948.35
633.012	9741.5
633.206	9848
633.4	9678.02
633.594	9567.43
633.788	9577.67
633.982	9407.69
634.176	9434.31
634.369	9469.12
634.563	9329.86
634.757	9348.29
634.951	9534.66
635.145	9354.44
635.339	9331.91
635.533	9192.65
635.726	9178.31
635.92	8920.27
636.114	9055.44
636.308	9020.62
636.501	8916.17
636.695	8996.04
636.889	8692.94
637.083	8887.5
637.276	8828.11
637.47	8842.45
637.664	8697.04
637.857	8686.8
638.051	8506.58
638.244	8479.96
638.438	8295.64
638.632	8563.92
638.825	8320.21
639.019	8486.1
639.212	8412.37
639.406	8217.82
639.599	8211.67
639.793	8080.6
639.986	8117.47
640.18	8271.06
640.373	8064.22
640.567	7955.68
640.76	7941.34
640.954	7904.48
641.147	8010.97
641.34	7894.24
641.534	7927
641.727	7757.02
641.92	7658.72
642.114	7527.65
642.307	7711.97
642.5	7636.19
642.694	7496.93
642.887	7259.37
643.08	7660.77
643.273	7404.77
643.467	7482.6
643.66	7120.1
643.853	7306.47
644.046	7261.41
644.239	7318.76
644.432	7216.36
644.626	7040.23
644.819	6997.23
645.012	7118.06
645.205	7036.14
645.398	7144.68
645.591	7011.56
645.784	6923.5
645.977	7064.81
646.17	6900.97
646.363	6687.98
646.556	6788.33
646.749	6831.34
646.942	6714.61
647.135	6728.94
647.328	6599.92
647.521	6702.32
647.714	6444.27
647.907	6515.95
648.099	6558.96
648.292	6343.92
648.485	6358.26
648.678	6343.92
648.871	6431.99
649.064	6253.81
649.256	6212.85
649.449	6360.31
649.642	6280.44
649.835	6247.67
650.027	6290.68
650.22	6153.46
650.413	6059.26
650.605	5960.95
650.798	5969.15
650.991	5963
651.183	6126.84
651.376	5903.61
651.568	5889.28
651.761	5909.76
651.954	5772.54
652.146	5889.28
652.339	6028.54
652.531	5850.36
652.724	5780.73
652.916	5606.66
653.109	5758.21
653.301	5674.24
653.494	5690.62
653.686	5543.17
653.879	5623.04
654.071	5500.16
654.263	5438.72
654.456	5477.63
654.648	5393.67
654.84	5436.67
655.033	5227.78
655.225	5199.11
655.417	5289.22
655.61	5354.76
655.802	5455.11
655.994	5328.13
656.186	5270.79
656.379	5240.07
656.571	5192.97
656.763	5008.65
656.955	4939.02
657.148	5076.23
657.34	5092.62
657.532	5008.65
657.724	4891.91
657.916	5100.81
658.108	5012.74
658.3	4785.42
658.492	4865.29
658.684	4834.57
658.876	4838.67
659.068	4756.75
659.26	4660.49
659.452	4881.67
659.644	4703.5
659.836	4664.59
660.028	4830.48
660.22	4549.9
660.412	4648.21
660.604	4705.55
660.796	4701.45
660.988	4562.19
661.18	4558.1
661.372	4445.46
661.563	4498.7
661.755	4494.61
661.947	4576.53
662.139	4412.69
662.331	4455.7
662.522	4371.73
662.714	4345.11
662.906	4345.11
663.097	4293.91
663.289	4351.25
663.481	4140.31
663.673	4326.68
663.864	4087.06
664.056	4234.52
664.247	4232.47
664.439	4183.32
664.631	4177.17
664.822	4232.47
665.014	4066.58
665.205	4171.03
665.397	3980.57
665.588	4140.31
665.78	4027.67
665.971	3921.18
666.163	4087.06
666.354	4103.45
666.546	3896.6
666.737	3935.51
666.929	3896.6
667.12	3900.7
667.311	3847.45
667.503	3788.06
667.694	3790.11
667.885	3749.15
668.077	3812.64
668.268	3859.74
668.459	3861.79
668.651	3845.4
668.842	3845.4
669.033	3829.02
669.224	3636.51
669.416	3874.07
669.607	3605.79
669.798	3630.37
669.989	3673.37
670.18	3554.59
670.371	3669.28
670.563	3697.95
670.754	3646.75
670.945	3464.48
671.136	3583.26
671.327	3564.83
671.518	3390.75
671.709	3575.07
671.9	3468.58
672.091	3427.62
672.282	3556.64
672.473	3597.6
672.664	3487.01
672.855	3413.28
673.046	3454.24
673.237	3530.02
673.428	3499.3
673.619	3476.77
673.809	3382.56
674	3384.61
674.191	3372.32
674.382	3425.57
674.573	3355.94
674.764	3343.65
674.954	3294.5
675.145	3310.88
675.336	3306.79
675.527	3247.4
675.717	3347.75
675.908	3282.21
676.099	3337.51
676.289	3198.24
676.48	3188
676.671	3251.49
676.861	3292.45
677.052	3298.6
677.243	3118.37
677.433	3276.07
677.624	3220.77
677.814	3169.57
678.005	3194.15
678.195	3241.25
678.386	3149.09
678.576	3132.71
678.767	3165.48
678.957	3149.09
679.148	3220.77
679.338	3155.24
679.529	3126.57
679.719	3085.61
679.909	3239.2
680.1	3126.57
680.29	3110.18
680.481	3145
680.671	3173.67
680.861	3120.42
681.052	3056.93
681.242	3044.65
681.432	3192.1
681.622	2878.76
681.813	3106.09
682.003	2938.15
682.193	3083.56
682.383	3020.07
682.573	3034.41
682.764	2993.45
682.954	2991.4
683.144	3034.41
683.334	3093.8
683.524	2913.58
683.714	2968.87
683.904	2915.62
684.094	3018.02
684.284	2845.99
684.474	2876.71
684.664	2995.5
684.854	2934.06
685.044	2985.26
685.234	2952.49
685.424	2845.99
685.614	2925.86
685.804	2831.66
685.994	2813.23
686.184	2862.38
686.374	2821.42
686.564	2770.22
686.753	2946.34
686.943	2868.52
687.133	2807.08
687.323	2823.47
687.513	2833.71
687.702	2874.67
687.892	2745.64
688.082	2759.98
688.272	2727.21
688.461	2727.21
688.651	2714.92
688.841	2710.83
689.03	2684.2
689.22	2815.27
689.41	2743.6
689.599	2678.06
689.789	2778.41
689.979	2743.6
690.168	2659.63
690.358	2561.33
690.547	2573.61
690.737	2532.65
690.926	2592.05
691.116	2583.85
691.305	2604.33
691.495	2575.66
691.684	2579.76
691.874	2479.41
692.063	2729.26
692.252	2592.05
692.442	2561.33
692.631	2614.57
692.82	2424.11
693.01	2479.41
693.199	2442.54
693.388	2475.31
693.578	2430.26
693.767	2596.14
693.956	2358.58
694.146	2534.7
694.335	2403.63
694.524	2448.69
694.713	2315.57
694.902	2454.83
695.092	2422.06
695.281	2336.05
695.47	2391.34
695.659	2321.71
695.848	2321.71
696.037	2194.74
696.226	2399.54
696.415	2370.87
696.604	2305.33
696.793	2395.44
696.982	2303.28
697.171	2264.37
697.36	2305.33
697.549	2278.71
697.738	2278.71
697.927	2264.37
698.116	2252.08
698.305	2295.09
698.494	2258.23
698.683	2196.79
698.872	2264.37
699.061	2245.94
699.25	2268.47
699.438	2260.27
699.627	2235.7
699.816	2344.24
700.005	2299.19
700.193	2350.39
700.382	2354.48
700.571	2233.65
700.76	2307.38
700.948	2377.01
701.137	2342.19
701.326	2301.23
701.514	2204.98
701.703	2166.07
701.892	2182.45
702.08	2356.53
702.269	2262.32
702.457	2286.9
702.646	2235.7
702.834	2256.18
703.023	2286.9
703.212	2319.67
703.4	2233.65
703.589	2297.14
703.777	2207.03
703.965	2143.54
704.154	2188.6
704.342	2207.03
704.531	2270.51
704.719	2172.21
704.907	2293.04
705.096	2170.16
705.284	2305.33
705.472	2174.26
705.661	2299.19
705.849	2161.97
706.037	2172.21
706.226	2213.17
706.414	2280.75
706.602	2241.84
706.79	2145.59
706.979	2338.1
707.167	2200.88
707.355	2217.27
707.543	2262.32
707.731	2190.64
707.919	2215.22
708.107	2286.9
708.296	2338.1
708.484	2247.99
708.672	2178.36
708.86	2278.71
709.048	2280.75
709.236	2198.84
709.424	2317.62
709.612	2311.47
709.8	2168.12
709.988	2241.84
710.176	2272.56
710.364	2239.8
710.551	2303.28
710.739	2225.46
710.927	2252.08
711.115	2184.5
711.303	2139.44
711.491	2288.95
711.679	2174.26
711.866	2334
712.054	2325.81
712.242	2233.65
712.43	2329.91
712.617	2178.36
712.805	2215.22
712.993	2286.9
713.181	2223.41
713.368	2223.41
713.556	2321.71
713.744	2211.12
713.931	2202.93
714.119	2184.5
714.306	2303.28
714.494	2204.98
714.682	2229.56
714.869	2168.12
715.057	2262.32
715.244	2186.55
715.432	2188.6
715.619	2143.54
715.807	2237.75
715.994	2258.23
716.182	2268.47
716.369	2284.85
716.556	2250.03
716.744	2186.55
716.931	2182.45
717.119	2262.32
717.306	2217.27
717.493	2274.61
717.681	2211.12
717.868	2139.44
718.055	2243.89
718.242	2190.64
718.43	2139.44
718.617	2276.66
718.804	2161.97
718.991	2211.12
719.179	2284.85
719.366	2227.51
719.553	2268.47
719.74	2305.33
719.927	2252.08
720.114	2243.89
720.301	2211.12
720.488	2204.98
720.676	2241.84
720.863	2311.47
721.05	2221.36
721.237	2387.25
721.424	2317.62
721.611	2250.03
721.798	2264.37
721.985	2174.26
722.172	2274.61
722.358	2262.32
722.545	2217.27
722.732	2245.94
722.919	2254.13
723.106	2184.5
723.293	2133.3
723.48	2260.27
723.667	2288.95
723.853	2200.88
724.04	2319.67
724.227	2241.84
724.414	2209.08
724.6	2229.56
724.787	2211.12
724.974	2358.58
725.161	2186.55
725.347	2209.08
725.534	2082.1
725.72	2213.17
725.907	2247.99
726.094	2192.69
726.28	2225.46
726.467	2374.96
726.653	2172.21
726.84	2295.09
727.027	2264.37
727.213	2235.7
727.4	2299.19
727.586	2237.75
727.773	2260.27
727.959	2247.99
728.145	2157.88
728.332	2219.32
728.518	2245.94
728.705	2245.94
728.891	2358.58
729.077	2313.52
729.264	2303.28
729.45	2168.12
729.636	2252.08
729.823	2247.99
730.009	2311.47
730.195	2186.55
730.382	2264.37
730.568	2192.69
730.754	2118.97
730.94	2245.94
731.126	2272.56
731.313	2284.85
731.499	2319.67
731.685	2274.61
731.871	2301.23
732.057	2262.32
732.243	2194.74
732.429	2184.5
732.615	2272.56
732.801	2221.36
732.987	2256.18
733.173	2225.46
733.359	2340.15
733.545	2317.62
733.731	2202.93
733.917	2348.34
734.103	2342.19
734.289	2233.65
734.475	2346.29
734.661	2284.85
734.847	2299.19
735.033	2196.79
735.219	2227.51
735.404	2293.04
735.59	2247.99
735.776	2336.05
735.962	2256.18
736.148	2276.66
736.333	2274.61
736.519	2219.32
736.705	2266.42
736.89	2260.27
737.076	2123.06
737.262	2166.07
737.447	2166.07
737.633	2202.93
737.819	2184.5
738.004	2078.01
738.19	2182.45
738.375	2153.78
738.561	2274.61
738.747	2112.82
738.932	2129.2
739.118	2217.27
739.303	2108.73
739.489	2239.8
739.674	2088.25
739.859	2133.3
740.045	2131.25
740.23	2186.55
740.416	2161.97
740.601	2131.25
740.786	2080.05
740.972	2055.48
741.157	2092.34
741.342	2047.29
741.528	2041.14
741.713	2194.74
741.898	2155.83
742.084	2096.44
742.269	2112.82
742.454	2096.44
742.639	2043.19
742.824	2069.81
743.01	2114.87
743.195	2035
743.38	2057.53
743.565	2112.82
743.75	2137.4
743.935	1946.94
744.12	2006.33
744.305	2080.05
744.49	1989.94
744.675	2016.57
744.86	1953.08
745.045	2008.37
745.23	2090.29
745.415	2088.25
745.6	2047.29
745.785	2059.57
745.97	1877.3
746.155	1879.35
746.34	1969.46
746.525	1942.84
746.71	1930.55
746.895	1901.88
747.079	1883.45
747.264	1811.77
747.449	1918.26
747.634	1824.06
747.819	1854.78
748.003	1678.65
748.188	1848.63
748.373	1813.82
748.557	1748.28
748.742	1713.47
748.927	1664.32
749.111	1721.66
749.296	1746.23
749.481	1752.38
749.665	1662.27
749.85	1680.7
750.034	1692.99
750.219	1695.04
750.404	1686.84
750.588	1701.18
750.773	1707.32
750.957	1746.23
751.141	1705.28
751.326	1678.65
751.51	1512.77
751.695	1627.45
751.879	1643.84
752.064	1625.4
752.248	1492.29
752.432	1645.88
752.617	1584.45
752.801	1559.87
752.985	1543.49
753.17	1514.81
753.354	1551.68
753.538	1566.01
753.722	1367.36
753.907	1432.9
754.091	1391.94
754.275	1467.71
754.459	1500.48
754.643	1385.79
754.828	1357.12
755.012	1484.09
755.196	1379.65
755.38	1363.26
755.564	1408.32
755.748	1408.32
755.932	1363.26
756.116	1412.42
756.3	1350.98
756.484	1295.68
756.668	1393.98
756.852	1305.92
757.036	1316.16
757.22	1400.13
757.404	1230.15
757.588	1228.1
757.772	1283.39
757.956	1389.89
758.14	1242.43
758.323	1246.53
758.507	1258.82
758.691	1201.48
758.875	1224
759.059	1281.35
759.242	1269.06
759.426	1213.76
759.61	1285.44
759.794	1152.32
759.977	1158.47
760.161	1170.76
760.345	1185.09
760.528	1236.29
760.712	1189.19
760.895	1088.84
761.079	1146.18
761.263	1135.94
761.446	1166.66
761.63	1185.09
761.813	1099.08
761.997	1066.31
762.18	1076.55
762.364	996.68
762.547	1156.42
762.731	1127.75
762.914	1076.55
763.098	1103.17
763.281	1125.7
763.464	1027.4
763.648	1084.74
763.831	1070.4
764.015	1015.11
764.198	943.43
764.381	1004.87
764.564	1129.8
764.748	980.29
764.931	1088.84
765.114	1047.88
765.297	1084.74
765.481	1019.21
765.664	1049.93
765.847	1031.49
766.03	1068.36
766.213	1002.82
766.397	1027.4
766.58	1082.69
766.763	988.49
766.946	1004.87
767.129	1047.88
767.312	986.44
767.495	955.72
767.678	988.49
767.861	972.1
768.044	972.1
768.227	978.25
768.41	994.63
768.593	931.14
768.776	890.18
768.959	959.81
769.142	949.57
769.324	947.53
769.507	879.94
769.69	832.84
769.873	908.62
770.056	869.7
770.239	892.23
770.421	1031.49
770.604	955.72
770.787	927.05
770.97	849.22
771.152	925
771.335	884.04
771.518	867.66
771.7	884.04
771.883	845.13
772.066	820.55
772.248	859.46
772.431	869.7
772.613	789.83
772.796	769.35
772.978	838.98
773.161	810.31
773.343	802.12
773.526	832.84
773.708	761.16
773.891	834.89
774.073	806.22
774.256	697.67
774.438	738.63
774.621	859.46
774.803	740.68
774.985	726.35
775.168	777.55
775.35	736.59
775.532	750.92
775.715	769.35
775.897	765.26
776.079	738.63
776.261	730.44
776.444	781.64
776.626	726.35
776.808	802.12
776.99	648.52
777.173	677.19
777.355	699.72
777.537	746.83
777.719	677.19
777.901	752.97
778.083	640.33
778.265	687.43
778.447	617.8
778.629	673.1
778.811	646.48
778.993	642.38
779.175	601.42
779.357	638.28
779.539	568.65
779.721	568.65
779.903	666.96
780.085	609.61
780.267	548.17
780.449	574.8
780.631	658.76
780.812	613.71
780.994	572.75
781.176	595.28
781.358	666.96
781.54	513.36
781.721	556.36
781.903	615.76
782.085	646.48
782.267	523.6
782.448	494.93
782.63	562.51
782.812	533.84
782.993	490.83
783.175	519.5
783.357	595.28
783.538	570.7
783.72	525.65
783.901	484.69
784.083	466.25
784.264	564.56
784.446	486.73
784.627	505.17
784.809	537.93
784.99	509.26
785.172	542.03
785.353	507.21
785.535	402.77
785.716	439.63
785.897	478.54
786.079	533.84
786.26	466.25
786.441	437.58
786.623	441.68
786.804	445.77
786.985	462.16
787.167	392.53
787.348	445.77
787.529	425.29
787.71	402.77
787.891	386.38
788.073	421.2
788.254	439.63
788.435	476.49
788.616	449.87
788.797	335.18
788.978	474.45
789.159	398.67
789.34	460.11
789.522	357.71
789.703	372.05
789.884	400.72
790.065	359.76
790.246	329.04
790.427	429.39
790.607	384.34
790.788	404.82
790.969	353.62
791.15	365.9
791.331	386.38
791.512	288.08
791.693	363.86
791.874	316.75
792.054	324.94
792.235	367.95
792.416	339.28
792.597	370
792.778	269.65
792.958	378.19
793.139	380.24
793.32	353.62
793.5	322.9
793.681	279.89
793.862	263.51
794.042	326.99
794.223	300.37
794.404	302.42
794.584	318.8
794.765	318.8
794.945	240.98
795.126	349.52
795.306	271.7
795.487	281.94
795.667	298.32
795.848	326.99
796.028	240.98
796.209	316.75
796.389	331.09
796.57	296.27
796.75	236.88
796.93	238.93
797.111	294.22
797.291	281.94
797.471	318.8
797.652	261.46
797.832	189.78
798.012	357.71
798.192	210.26
798.373	226.64
798.553	216.4
798.733	310.61
798.913	339.28
799.093	265.55
799.274	281.94
799.454	288.08
799.634	255.31
799.814	259.41
799.994	351.57
800.174	265.55
800.354	238.93
800.534	228.69
800.714	294.22
800.894	263.51
801.074	193.87
801.254	253.27
801.434	259.41
801.614	197.97
801.794	103.76
801.974	607.56
802.154	249.17
802.334	253.27
802.514	216.4
802.693	214.35
802.873	220.5
803.053	265.55
803.233	251.22
803.413	152.91
803.592	232.79
803.772	238.93
803.952	177.49
804.131	261.46
804.311	193.87
804.491	265.55
804.67	232.79
804.85	154.96
805.03	267.6
805.209	247.12
805.389	245.07
805.568	214.35
805.748	177.49
805.928	261.46
806.107	214.35
806.287	173.39
806.466	193.87
806.646	193.87
806.825	204.11
807.004	240.98
807.184	197.97
807.363	230.74
807.543	214.35
807.722	185.68
807.901	208.21
808.081	189.78
808.26	281.94
808.439	169.3
808.619	171.35
808.798	243.03
808.977	212.31
809.156	257.36
809.336	161.11
809.515	204.11
809.694	171.35
809.873	230.74
810.052	163.15
810.231	247.12
810.411	128.34
810.59	142.68
810.769	173.39
810.948	253.27
811.127	109.91
811.306	224.59
811.485	157.01
811.664	230.74
811.843	159.06
812.022	159.06
812.201	118.1
812.38	148.82
812.559	183.63
812.737	114
812.916	154.96
813.095	183.63
813.274	150.87
813.453	120.15
813.632	77.14
813.811	167.25
813.989	150.87
814.168	122.2
814.347	122.2
814.526	220.5
814.704	206.16
814.883	187.73
815.062	165.2
815.24	163.15
815.419	109.91
815.598	157.01
815.776	116.05
815.955	165.2
816.133	50.52
816.312	132.44
816.49	124.24
816.669	230.74
816.847	58.71
817.026	109.91
817.204	111.96
817.383	214.35
817.561	165.2
817.74	134.48
817.918	85.33
818.097	167.25
818.275	146.77
818.453	148.82
818.632	144.72
818.81	126.29
818.988	138.58
819.167	87.38
819.345	150.87
819.523	148.82
819.701	93.52
819.879	159.06
820.058	89.43
820.236	101.72
820.414	114
820.592	163.15
820.77	73.04
820.948	167.25
821.127	118.1
821.305	122.2
821.483	30.04
821.661	138.58
821.839	181.59
822.017	103.76
822.195	107.86
822.373	109.91
822.551	60.76
822.729	124.24
822.907	152.91
823.085	105.81
823.262	56.66
823.44	144.72
823.618	75.09
823.796	89.43
823.974	101.72
824.152	99.67
824.329	146.77
824.507	101.72
824.685	116.05
824.863	126.29
825.04	118.1
825.218	140.63
825.396	120.15
825.574	120.15
825.751	159.06
825.929	111.96
826.107	50.52
826.284	9.56
826.462	138.58
826.639	71
826.817	148.82
826.994	32.08
827.172	60.76
827.349	56.66
827.527	-2.73
827.704	122.2
827.882	54.61
828.059	89.43
828.237	46.42
828.414	161.11
828.591	103.76
828.769	27.99
828.946	42.32
829.124	40.28
829.301	157.01
829.478	81.24
829.655	89.43
829.833	38.23
830.01	73.04
830.187	146.77
830.364	173.39
830.542	101.72
830.719	116.05
830.896	23.89
831.073	50.52
831.25	54.61
831.427	103.76
831.604	68.95
831.782	87.38
831.959	95.57
832.136	-0.68
832.313	89.43
832.49	40.28
832.667	52.56
832.844	68.95
833.021	103.76
833.198	38.23
833.374	89.43
833.551	54.61
833.728	66.9
833.905	77.14
834.082	83.28
834.259	58.71
834.436	138.58
834.612	83.28
834.789	50.52
834.966	77.14
835.143	48.47
835.319	159.06
835.496	140.63
835.673	95.57
835.85	148.82
836.026	89.43
836.203	46.42
836.38	89.43
836.556	89.43
836.733	54.61
836.909	116.05
837.086	58.71
837.262	30.04
837.439	42.32
837.616	93.52
837.792	48.47
837.968	126.29
838.145	-25.26
838.321	34.13
838.498	114
838.674	122.2
838.851	27.99
839.027	111.96
839.203	81.24
839.38	17.75
839.556	93.52
839.732	83.28
839.909	27.99
840.085	48.47
840.261	32.08
840.437	107.86
840.614	9.56
840.79	73.04
840.966	58.71
841.142	118.1
841.318	177.49
841.494	109.91
841.671	122.2
841.847	54.61
842.023	-2.73
842.199	23.89
842.375	99.67
842.551	60.76
842.727	52.56
842.903	111.96
843.079	60.76
843.255	75.09
843.431	25.94
843.607	87.38
843.783	7.51
843.959	-0.68
844.134	-47.79
844.31	107.86
844.486	-49.83
844.662	83.28
844.838	30.04
845.013	-0.68
845.189	60.76
845.365	140.63
845.541	23.89
845.716	130.39
845.892	44.37
846.068	46.42
846.244	19.8
846.419	46.42
846.595	56.66
846.77	34.13
846.946	36.18
847.122	-6.83
847.297	50.52
847.473	19.8
847.648	54.61
847.824	46.42
847.999	34.13
848.175	-10.92
848.35	85.33
848.526	19.8
848.701	-0.68
848.876	19.8
849.052	5.46
849.227	11.61
849.403	9.56
849.578	89.43
849.753	40.28
849.929	58.71
850.104	81.24
850.279	32.08
850.454	73.04
850.63	85.33
850.805	85.33
850.98	99.67
851.155	48.47
851.33	27.99
851.505	21.85
851.681	114
851.856	-60.07
852.031	42.32
852.206	-0.68
852.381	93.52
852.556	83.28
852.731	64.85
852.906	-12.97
853.081	75.09
853.256	91.48
853.431	11.61
853.606	13.65
853.781	-17.07
853.956	-58.03
854.131	9.56
854.305	-17.07
854.48	103.76
854.655	27.99
854.83	34.13
855.005	-17.07
855.18	64.85
855.354	-21.16
855.529	36.18
855.704	73.04
855.879	60.76
856.053	13.65
856.228	83.28
856.403	5.46
856.577	68.95
856.752	15.7
856.926	11.61
857.101	21.85
857.276	13.65
857.45	-17.07
857.625	-21.16
857.799	15.7
857.974	105.81
858.148	42.32
858.323	-2.73
858.497	79.19
858.672	36.18
858.846	13.65
859.02	48.47
859.195	19.8
859.369	30.04
859.543	62.8
859.718	13.65
859.892	-6.83
860.066	56.66
860.241	-0.68
860.415	-8.87
860.589	27.99
860.763	17.75
860.938	64.85
861.112	-70.31
861.286	7.51
861.46	-41.64
861.634	19.8
861.808	111.96
861.982	40.28
862.157	60.76
862.331	56.66
862.505	-19.11
862.679	36.18
862.853	23.89
863.027	11.61
863.201	34.13
863.375	21.85
863.549	68.95
863.722	-4.78
863.896	71
864.07	79.19
864.244	7.51
864.418	103.76
864.592	17.75
864.766	-8.87
864.939	32.08
865.113	-29.35
865.287	62.8
865.461	-23.21
865.634	32.08
865.808	9.56
865.982	23.89
866.156	11.61
866.329	68.95
866.503	-4.78
866.676	-10.92
866.85	36.18
867.024	19.8
867.197	9.56
867.371	62.8
867.544	1.37
867.718	32.08
867.891	-0.68
868.065	-62.12
868.238	-78.51
868.412	25.94
868.585	-8.87
868.759	1.37
868.932	-15.02
869.105	-31.4
869.279	42.32
869.452	38.23
869.625	11.61
869.799	-4.78
869.972	58.71
870.145	3.41
870.319	-70.31
870.492	15.7
870.665	17.75
870.838	-29.35
871.011	-43.69
871.185	19.8
871.358	-68.27
871.531	109.91
871.704	15.7
871.877	36.18
872.05	-27.31
872.223	23.89
872.396	75.09
872.569	-72.36
872.742	-33.45
872.915	25.94
873.088	15.7
873.261	9.56
873.434	54.61
873.607	-17.07
873.78	-29.35
873.953	32.08
874.126	-33.45
874.299	-8.87
874.471	27.99
874.644	17.75
874.817	15.7
874.99	42.32
875.163	19.8
875.335	42.32
875.508	19.8
875.681	56.66
875.853	1.37
876.026	7.51
876.199	-2.73
876.371	25.94
876.544	32.08
876.717	-23.21
876.889	-41.64
877.062	27.99
877.234	-41.64
877.407	27.99
877.579	11.61
877.752	64.85
877.924	-21.16
878.097	-2.73
878.269	-60.07
878.442	-8.87
878.614	-17.07
878.786	21.85
878.959	46.42
879.131	38.23
879.303	5.46
879.476	36.18
879.648	7.51
879.82	44.37
879.993	-23.21
880.165	-2.73
880.337	-33.45
880.509	77.14
880.681	-92.84
880.854	-8.87
881.026	-15.02
881.198	40.28
881.37	-43.69
881.542	-53.93
881.714	-29.35
881.886	32.08
882.058	62.8
882.23	75.09
882.402	3.41
882.574	27.99
882.746	3.41
882.918	50.52
883.09	44.37
883.262	11.61
883.434	7.51
883.606	23.89
883.778	-72.36
883.95	124.24
884.122	-8.87
884.293	-53.93
884.465	11.61
884.637	81.24
884.809	-19.11
884.98	40.28
885.152	23.89
885.324	68.95
885.496	1.37
885.667	46.42
885.839	30.04
886.011	-0.68
886.182	-47.79
886.354	58.71
886.525	38.23
886.697	7.51
886.869	36.18
887.04	64.85
887.212	40.28
887.383	34.13
887.555	-0.68
887.726	17.75
887.897	32.08
888.069	-41.64
888.24	87.38
888.412	38.23
888.583	38.23
888.754	58.71
888.926	-66.22
889.097	25.94
889.268	-21.16
889.44	11.61
889.611	9.56
889.782	-2.73
889.953	40.28
890.125	-6.83
890.296	-17.07
890.467	21.85
890.638	-74.41
890.809	7.51
890.98	-96.94
891.151	40.28
891.323	-10.92
891.494	40.28
891.665	40.28
891.836	-17.07
892.007	-70.31
892.178	75.09
892.349	5.46
892.52	15.7
892.691	5.46
892.862	40.28
893.032	-66.22
893.203	5.46
893.374	-27.31
893.545	42.32
893.716	34.13
893.887	-23.21
894.057	-64.17
894.228	46.42
894.399	-19.11
894.57	-21.16
894.74	19.8
894.911	15.7
895.082	7.51
895.253	64.85
895.423	9.56
895.594	105.81
895.764	-8.87
895.935	58.71
896.106	-49.83
896.276	-21.16
896.447	30.04
896.617	17.75
896.788	-47.79
896.958	42.32
897.129	15.7
897.299	1.37
897.47	-35.5
897.64	5.46
897.81	-10.92
897.981	64.85
898.151	-31.4
898.322	40.28
898.492	-35.5
898.662	48.47
898.832	-17.07
899.003	75.09
899.173	5.46
899.343	-109.22
899.513	-21.16
