Data from USB4F104151__211__11-10-23-817.txt Node

Date: Wed Mar 12 11:10:23 EDT 2025
User: louis
Spectrometer: USB4F10415
Trigger mode: 4
Integration Time (sec): 2.000000E-2
Scans to average: 1
Electric dark correction enabled: true
Nonlinearity correction enabled: false
Boxcar width: 0
XAxis mode: Wavelengths
Number of Pixels in Spectrum: 3648
>>>>>Begin Spectral Data<<<<<
178.204	-104.79
178.424	-104.79
178.644	-104.79
178.864	-10.58
179.084	-41.3
179.304	-22.87
179.524	-10.58
179.744	65.19
179.964	9.9
180.184	30.38
180.404	-43.35
180.624	-29.01
180.844	5.8
181.064	-20.82
181.283	30.38
181.503	1.71
181.723	-16.73
181.943	3.75
182.163	9.9
182.383	11.95
182.602	79.53
182.822	59.05
183.042	34.47
183.262	28.33
183.482	75.43
183.701	9.9
183.921	-26.96
184.141	-4.44
184.361	50.86
184.58	44.71
184.8	79.53
185.02	42.67
185.239	24.23
185.459	9.9
185.679	30.38
185.898	-39.25
186.118	100.01
186.338	71.34
186.557	34.47
186.777	16.04
186.997	36.52
187.216	-0.34
187.436	34.47
187.655	42.67
187.875	87.72
188.095	22.19
188.314	110.25
188.534	-29.01
188.753	30.38
188.973	48.81
189.192	-6.49
189.412	48.81
189.631	54.95
189.851	-10.58
190.07	16.04
190.29	-78.16
190.509	85.67
190.729	-20.82
190.948	52.91
191.168	108.2
191.387	28.33
191.607	-12.63
191.826	65.19
192.045	87.72
192.265	9.9
192.484	-2.39
192.704	-53.59
192.923	-12.63
193.142	42.67
193.362	11.95
193.581	83.63
193.8	-24.92
194.02	65.19
194.239	26.28
194.458	67.24
194.678	-12.63
194.897	48.81
195.116	85.67
195.335	38.57
195.555	83.63
195.774	36.52
195.993	22.19
196.212	91.82
196.432	-37.2
196.651	40.62
196.87	-6.49
197.089	34.47
197.308	9.9
197.528	42.67
197.747	-16.73
197.966	5.8
198.185	75.43
198.404	42.67
198.623	-31.06
198.842	102.06
199.062	32.43
199.281	36.52
199.5	79.53
199.719	-0.34
199.938	-16.73
200.157	26.28
200.376	67.24
200.595	20.14
200.814	-8.53
201.033	18.09
201.252	7.85
201.471	24.23
201.69	153.26
201.909	-96.6
202.128	46.76
202.347	36.52
202.566	5.8
202.785	40.62
203.004	1.71
203.223	87.72
203.442	1.71
203.661	52.91
203.879	28.33
204.098	-16.73
204.317	-33.11
204.536	5.8
204.755	5.8
204.974	-6.49
205.193	20.14
205.411	143.02
205.63	46.76
205.849	42.67
206.068	16.04
206.287	75.43
206.505	-33.11
206.724	5.8
206.943	-22.87
207.162	46.76
207.381	93.87
207.599	-37.2
207.818	67.24
208.037	9.9
208.255	-2.39
208.474	69.29
208.693	38.57
208.911	-20.82
209.13	34.47
209.349	-53.59
209.567	30.38
209.786	52.91
210.005	77.48
210.223	34.47
210.442	24.23
210.661	48.81
210.879	50.86
211.098	38.57
211.316	-6.49
211.535	67.24
211.753	-6.49
211.972	13.99
212.191	5.8
212.409	54.95
212.628	7.85
212.846	108.2
213.065	-0.34
213.283	89.77
213.502	24.23
213.72	-24.92
213.938	-22.87
214.157	85.67
214.375	57
214.594	-31.06
214.812	38.57
215.031	112.3
215.249	26.28
215.467	-41.3
215.686	16.04
215.904	42.67
216.122	57
216.341	38.57
216.559	48.81
216.778	-10.58
216.996	46.76
217.214	85.67
217.432	36.52
217.651	-45.4
217.869	73.39
218.087	67.24
218.306	48.81
218.524	106.15
218.742	-35.16
218.96	3.75
219.179	46.76
219.397	24.23
219.615	81.58
219.833	40.62
220.051	3.75
220.27	44.71
220.488	18.09
220.706	40.62
220.924	46.76
221.142	48.81
221.36	26.28
221.578	63.15
221.796	-29.01
222.015	93.87
222.233	7.85
222.451	52.91
222.669	9.9
222.887	36.52
223.105	7.85
223.323	91.82
223.541	1.71
223.759	38.57
223.977	52.91
224.195	75.43
224.413	52.91
224.631	54.95
224.849	75.43
225.067	32.43
225.285	69.29
225.503	102.06
225.721	-35.16
225.939	16.04
226.157	26.28
226.375	11.95
226.592	52.91
226.81	11.95
227.028	104.11
227.246	28.33
227.464	-31.06
227.682	26.28
227.9	83.63
228.117	22.19
228.335	50.86
228.553	-6.49
228.771	-43.35
228.989	110.25
229.206	65.19
229.424	40.62
229.642	-33.11
229.86	65.19
230.077	81.58
230.295	18.09
230.513	40.62
230.731	26.28
230.948	40.62
231.166	3.75
231.384	-16.73
231.601	22.19
231.819	26.28
232.037	-10.58
232.254	59.05
232.472	77.48
232.689	30.38
232.907	9.9
233.125	40.62
233.342	26.28
233.56	9.9
233.777	81.58
233.995	-4.44
234.213	50.86
234.43	77.48
234.648	54.95
234.865	-20.82
235.083	73.39
235.3	59.05
235.518	85.67
235.735	7.85
235.953	50.86
236.17	46.76
236.388	75.43
236.605	42.67
236.822	77.48
237.04	42.67
237.257	-0.34
237.475	50.86
237.692	34.47
237.909	93.87
238.127	65.19
238.344	22.19
238.562	7.85
238.779	32.43
238.996	9.9
239.214	83.63
239.431	40.62
239.648	32.43
239.865	63.15
240.083	65.19
240.3	57
240.517	-43.35
240.735	22.19
240.952	34.47
241.169	59.05
241.386	-63.83
241.603	-0.34
241.821	61.1
242.038	100.01
242.255	91.82
242.472	24.23
242.689	11.95
242.907	106.15
243.124	46.76
243.341	3.75
243.558	-18.77
243.775	61.1
243.992	-35.16
244.209	11.95
244.426	75.43
244.643	89.77
244.86	59.05
245.078	48.81
245.295	1.71
245.512	95.91
245.729	3.75
245.946	89.77
246.163	46.76
246.38	32.43
246.597	83.63
246.814	32.43
247.031	16.04
247.248	65.19
247.464	50.86
247.681	20.14
247.898	57
248.115	87.72
248.332	34.47
248.549	34.47
248.766	54.95
248.983	26.28
249.2	13.99
249.417	118.44
249.633	67.24
249.85	32.43
250.067	48.81
250.284	9.9
250.501	11.95
250.717	-4.44
250.934	-22.87
251.151	16.04
251.368	44.71
251.585	91.82
251.801	50.86
252.018	48.81
252.235	44.71
252.451	16.04
252.668	42.67
252.885	32.43
253.102	-10.58
253.318	-6.49
253.535	67.24
253.752	26.28
253.968	67.24
254.185	40.62
254.401	22.19
254.618	13.99
254.835	-22.87
255.051	87.72
255.268	61.1
255.484	112.3
255.701	52.91
255.917	89.77
256.134	-22.87
256.351	24.23
256.567	9.9
256.784	-6.49
257	112.3
257.217	57
257.433	132.78
257.65	-14.68
257.866	40.62
258.082	18.09
258.299	44.71
258.515	91.82
258.732	-8.53
258.948	95.91
259.165	30.38
259.381	9.9
259.597	40.62
259.814	-16.73
260.03	28.33
260.246	69.29
260.463	57
260.679	32.43
260.895	36.52
261.112	73.39
261.328	-33.11
261.544	75.43
261.761	34.47
261.977	-6.49
262.193	46.76
262.409	44.71
262.626	77.48
262.842	46.76
263.058	-20.82
263.274	67.24
263.49	102.06
263.707	42.67
263.923	-6.49
264.139	24.23
264.355	71.34
264.571	85.67
264.787	24.23
265.004	83.63
265.22	20.14
265.436	59.05
265.652	22.19
265.868	71.34
266.084	44.71
266.3	42.67
266.516	26.28
266.732	13.99
266.948	16.04
267.164	16.04
267.38	40.62
267.596	63.15
267.812	73.39
268.028	44.71
268.244	11.95
268.46	-43.35
268.676	18.09
268.892	112.3
269.108	-35.16
269.324	30.38
269.54	-14.68
269.756	26.28
269.972	1.71
270.188	-0.34
270.403	7.85
270.619	79.53
270.835	-22.87
271.051	100.01
271.267	16.04
271.483	91.82
271.698	46.76
271.914	136.87
272.13	46.76
272.346	42.67
272.562	54.95
272.777	-16.73
272.993	13.99
273.209	79.53
273.425	11.95
273.64	-35.16
273.856	116.39
274.072	59.05
274.287	16.04
274.503	16.04
274.719	22.19
274.934	-6.49
275.15	-10.58
275.366	26.28
275.581	7.85
275.797	40.62
276.012	36.52
276.228	-33.11
276.444	26.28
276.659	175.78
276.875	-2.39
277.09	81.58
277.306	63.15
277.521	57
277.737	9.9
277.952	36.52
278.168	-55.64
278.383	18.09
278.599	40.62
278.814	120.49
279.03	50.86
279.245	54.95
279.461	-0.34
279.676	75.43
279.892	-8.53
280.107	3.75
280.322	32.43
280.538	50.86
280.753	-55.64
280.969	22.19
281.184	54.95
281.399	54.95
281.615	32.43
281.83	22.19
282.045	20.14
282.26	-8.53
282.476	24.23
282.691	1.71
282.906	22.19
283.122	91.82
283.337	-47.44
283.552	93.87
283.767	34.47
283.983	22.19
284.198	36.52
284.413	85.67
284.628	63.15
284.843	61.1
285.058	42.67
285.274	-24.92
285.489	9.9
285.704	79.53
285.919	11.95
286.134	57
286.349	-45.4
286.564	16.04
286.779	34.47
286.995	-0.34
287.21	-8.53
287.425	42.67
287.64	30.38
287.855	75.43
288.07	28.33
288.285	13.99
288.5	89.77
288.715	65.19
288.93	30.38
289.145	11.95
289.36	67.24
289.575	63.15
289.79	48.81
290.004	73.39
290.219	36.52
290.434	36.52
290.649	24.23
290.864	-10.58
291.079	16.04
291.294	91.82
291.509	63.15
291.724	67.24
291.938	-59.73
292.153	50.86
292.368	-2.39
292.583	44.71
292.798	42.67
293.012	5.8
293.227	-0.34
293.442	30.38
293.657	-31.06
293.871	75.43
294.086	26.28
294.301	16.04
294.516	75.43
294.73	110.25
294.945	24.23
295.16	20.14
295.374	16.04
295.589	54.95
295.804	-2.39
296.018	16.04
296.233	59.05
296.447	75.43
296.662	30.38
296.877	112.3
297.091	59.05
297.306	38.57
297.52	22.19
297.735	13.99
297.949	-24.92
298.164	-0.34
298.378	7.85
298.593	61.1
298.807	18.09
299.022	36.52
299.236	13.99
299.451	18.09
299.665	59.05
299.88	61.1
300.094	69.29
300.309	16.04
300.523	30.38
300.737	42.67
300.952	-6.49
301.166	-0.34
301.381	-8.53
301.595	102.06
301.809	110.25
302.024	44.71
302.238	63.15
302.452	114.34
302.667	44.71
302.881	102.06
303.095	95.91
303.309	57
303.524	38.57
303.738	40.62
303.952	75.43
304.166	46.76
304.381	57
304.595	97.96
304.809	18.09
305.023	24.23
305.237	-49.49
305.452	36.52
305.666	13.99
305.88	48.81
306.094	3.75
306.308	13.99
306.522	77.48
306.736	67.24
306.95	61.1
307.164	13.99
307.379	36.52
307.593	52.91
307.807	42.67
308.021	59.05
308.235	89.77
308.449	65.19
308.663	30.38
308.877	57
309.091	1.71
309.305	11.95
309.519	48.81
309.733	3.75
309.947	30.38
310.161	18.09
310.374	63.15
310.588	124.58
310.802	65.19
311.016	42.67
311.23	54.95
311.444	44.71
311.658	59.05
311.872	18.09
312.085	9.9
312.299	93.87
312.513	11.95
312.727	48.81
312.941	40.62
313.154	75.43
313.368	128.68
313.582	79.53
313.796	9.9
314.009	-10.58
314.223	69.29
314.437	100.01
314.651	30.38
314.864	46.76
315.078	61.1
315.292	93.87
315.505	34.47
315.719	73.39
315.933	28.33
316.146	28.33
316.36	22.19
316.573	59.05
316.787	48.81
317.001	18.09
317.214	-12.63
317.428	18.09
317.641	54.95
317.855	30.38
318.068	-6.49
318.282	38.57
318.495	136.87
318.709	50.86
318.922	52.91
319.136	32.43
319.349	-0.34
319.563	61.1
319.776	32.43
319.99	9.9
320.203	50.86
320.417	40.62
320.63	-2.39
320.843	5.8
321.057	59.05
321.27	63.15
321.483	34.47
321.697	67.24
321.91	46.76
322.124	87.72
322.337	11.95
322.55	-16.73
322.763	36.52
322.977	61.1
323.19	-22.87
323.403	75.43
323.617	95.91
323.83	16.04
324.043	71.34
324.256	42.67
324.469	24.23
324.683	69.29
324.896	-2.39
325.109	65.19
325.322	5.8
325.535	97.96
325.748	-45.4
325.962	132.78
326.175	48.81
326.388	30.38
326.601	-33.11
326.814	65.19
327.027	26.28
327.24	75.43
327.453	24.23
327.666	38.57
327.879	-4.44
328.092	75.43
328.305	22.19
328.518	11.95
328.731	71.34
328.944	79.53
329.157	32.43
329.37	-24.92
329.583	40.62
329.796	118.44
330.009	26.28
330.222	63.15
330.435	48.81
330.648	1.71
330.861	-10.58
331.073	24.23
331.286	18.09
331.499	16.04
331.712	36.52
331.925	22.19
332.138	57
332.35	104.11
332.563	32.43
332.776	71.34
332.989	9.9
333.202	44.71
333.414	67.24
333.627	-4.44
333.84	79.53
334.053	71.34
334.265	-45.4
334.478	89.77
334.691	102.06
334.903	79.53
335.116	48.81
335.329	-47.44
335.541	104.11
335.754	54.95
335.966	-55.64
336.179	28.33
336.392	-10.58
336.604	-18.77
336.817	11.95
337.029	77.48
337.242	46.76
337.454	110.25
337.667	40.62
337.88	42.67
338.092	48.81
338.305	42.67
338.517	50.86
338.729	34.47
338.942	63.15
339.154	52.91
339.367	48.81
339.579	102.06
339.792	38.57
340.004	91.82
340.217	63.15
340.429	151.21
340.641	9.9
340.854	77.48
341.066	26.28
341.278	52.91
341.491	75.43
341.703	116.39
341.915	102.06
342.128	50.86
342.34	-18.77
342.552	50.86
342.764	50.86
342.977	30.38
343.189	36.52
343.401	65.19
343.613	87.72
343.826	87.72
344.038	9.9
344.25	-33.11
344.462	-22.87
344.674	95.91
344.886	36.52
345.099	59.05
345.311	128.68
345.523	46.76
345.735	-22.87
345.947	63.15
346.159	42.67
346.371	159.4
346.583	20.14
346.795	114.34
347.007	87.72
347.219	50.86
347.431	73.39
347.643	71.34
347.855	18.09
348.067	85.67
348.279	40.62
348.491	77.48
348.703	61.1
348.915	108.2
349.127	-6.49
349.339	138.92
349.551	-20.82
349.763	46.76
349.975	65.19
350.187	75.43
350.399	83.63
350.61	110.25
350.822	104.11
351.034	143.02
351.246	13.99
351.458	-8.53
351.669	50.86
351.881	40.62
352.093	59.05
352.305	67.24
352.517	63.15
352.728	132.78
352.94	130.73
353.152	52.91
353.363	102.06
353.575	59.05
353.787	-26.96
353.999	71.34
354.21	85.67
354.422	59.05
354.633	59.05
354.845	24.23
355.057	69.29
355.268	18.09
355.48	-6.49
355.692	46.76
355.903	40.62
356.115	38.57
356.326	-2.39
356.538	91.82
356.749	83.63
356.961	128.68
357.172	63.15
357.384	69.29
357.595	48.81
357.807	28.33
358.018	7.85
358.23	77.48
358.441	87.72
358.653	97.96
358.864	32.43
359.075	57
359.287	40.62
359.498	130.73
359.709	1.71
359.921	30.38
360.132	36.52
360.344	77.48
360.555	24.23
360.766	13.99
360.977	59.05
361.189	67.24
361.4	-12.63
361.611	59.05
361.823	36.52
362.034	54.95
362.245	24.23
362.456	79.53
362.667	-18.77
362.879	-8.53
363.09	13.99
363.301	11.95
363.512	48.81
363.723	-2.39
363.935	34.47
364.146	77.48
364.357	57
364.568	69.29
364.779	54.95
364.99	65.19
365.201	93.87
365.412	104.11
365.623	22.19
365.834	57
366.045	11.95
366.256	57
366.467	16.04
366.678	61.1
366.889	63.15
367.1	11.95
367.311	42.67
367.522	-78.16
367.733	136.87
367.944	100.01
368.155	54.95
368.366	114.34
368.577	50.86
368.788	69.29
368.999	-6.49
369.209	102.06
369.42	61.1
369.631	7.85
369.842	81.58
370.053	145.06
370.264	54.95
370.474	52.91
370.685	91.82
370.896	93.87
371.107	104.11
371.317	-6.49
371.528	22.19
371.739	136.87
371.95	54.95
372.16	85.67
372.371	3.75
372.582	48.81
372.792	24.23
373.003	61.1
373.214	34.47
373.424	112.3
373.635	54.95
373.846	100.01
374.056	63.15
374.267	54.95
374.477	50.86
374.688	-16.73
374.898	50.86
375.109	85.67
375.319	71.34
375.53	67.24
375.74	63.15
375.951	118.44
376.161	34.47
376.372	138.92
376.582	24.23
376.793	9.9
377.003	13.99
377.214	91.82
377.424	91.82
377.635	34.47
377.845	52.91
378.055	75.43
378.266	-63.83
378.476	-14.68
378.686	54.95
378.897	42.67
379.107	61.1
379.317	130.73
379.528	67.24
379.738	46.76
379.948	26.28
380.158	73.39
380.369	75.43
380.579	40.62
380.789	48.81
380.999	30.38
381.21	13.99
381.42	130.73
381.63	57
381.84	9.9
382.05	81.58
382.261	67.24
382.471	59.05
382.681	32.43
382.891	91.82
383.101	138.92
383.311	-43.35
383.521	24.23
383.731	61.1
383.941	81.58
384.151	42.67
384.361	95.91
384.571	22.19
384.781	36.52
384.991	81.58
385.201	67.24
385.411	32.43
385.621	79.53
385.831	67.24
386.041	102.06
386.251	83.63
386.461	36.52
386.671	69.29
386.881	50.86
387.091	32.43
387.301	97.96
387.511	104.11
387.72	18.09
387.93	52.91
388.14	48.81
388.35	18.09
388.56	104.11
388.769	120.49
388.979	34.47
389.189	87.72
389.399	71.34
389.609	116.39
389.818	79.53
390.028	32.43
390.238	104.11
390.447	81.58
390.657	44.71
390.867	54.95
391.076	57
391.286	91.82
391.496	67.24
391.705	89.77
391.915	50.86
392.125	46.76
392.334	100.01
392.544	50.86
392.753	71.34
392.963	34.47
393.172	110.25
393.382	75.43
393.591	128.68
393.801	38.57
394.01	85.67
394.22	75.43
394.429	18.09
394.639	13.99
394.848	130.73
395.058	102.06
395.267	110.25
395.477	126.63
395.686	136.87
395.895	110.25
396.105	177.83
396.314	106.15
396.524	18.09
396.733	81.58
396.942	100.01
397.152	126.63
397.361	153.26
397.57	134.82
397.78	120.49
397.989	151.21
398.198	140.97
398.407	116.39
398.617	112.3
398.826	89.77
399.035	124.58
399.244	157.35
399.453	143.02
399.663	128.68
399.872	81.58
400.081	79.53
400.29	108.2
400.499	114.34
400.708	100.01
400.917	120.49
401.127	110.25
401.336	108.2
401.545	138.92
401.754	155.3
401.963	181.93
402.172	186.02
402.381	97.96
402.59	153.26
402.799	91.82
403.008	136.87
403.217	138.92
403.426	212.65
403.635	143.02
403.844	140.97
404.053	177.83
404.262	132.78
404.471	198.31
404.68	77.48
404.888	149.16
405.097	157.35
405.306	165.54
405.515	134.82
405.724	186.02
405.933	210.6
406.142	171.69
406.35	253.61
406.559	134.82
406.768	155.3
406.977	149.16
407.185	274.09
407.394	157.35
407.603	224.94
407.812	269.99
408.02	216.74
408.229	198.31
408.438	224.94
408.646	259.75
408.855	304.81
409.064	229.03
409.272	253.61
409.481	321.19
409.69	235.18
409.898	306.85
410.107	288.42
410.315	276.13
410.524	306.85
410.733	339.62
410.941	360.1
411.15	366.25
411.358	384.68
411.567	454.31
411.775	482.98
411.984	407.2
412.192	372.39
412.401	382.63
412.609	409.25
412.818	480.93
413.026	558.75
413.234	482.98
413.443	540.32
413.651	460.45
413.86	489.12
414.068	640.67
414.276	628.39
414.485	669.34
414.693	618.15
414.901	702.11
415.11	702.11
415.318	673.44
415.526	728.74
415.734	786.08
415.943	749.22
416.151	843.42
416.359	845.47
416.567	751.26
416.776	908.96
416.984	960.16
417.192	984.73
417.4	1029.79
417.608	997.02
417.817	1060.51
418.025	1035.93
418.233	1123.99
418.441	1066.65
418.649	1175.19
418.857	1205.91
419.065	1347.22
419.273	1308.31
419.481	1336.98
419.689	1314.45
419.897	1441.43
420.105	1490.58
420.313	1484.44
420.521	1611.41
420.729	1535.64
420.937	1578.64
421.145	1765.01
421.353	1816.21
421.561	1953.42
421.769	1941.13
421.977	2121.35
422.185	2025.1
422.393	2164.36
422.601	2195.08
422.809	2240.14
423.017	2270.86
423.224	2395.78
423.432	2485.89
423.64	2426.5
423.848	2750.08
424.056	2610.82
424.263	2795.14
424.471	2768.51
424.679	2858.62
424.887	3131
425.094	3059.32
425.302	3020.41
425.51	3178.11
425.718	3294.84
425.925	3534.45
426.133	3575.41
426.341	3597.94
426.548	3825.26
426.756	3884.66
426.964	3933.81
427.171	4175.47
427.379	4218.47
427.586	4204.14
427.794	4372.07
428.001	4619.88
428.209	4759.14
428.417	4722.27
428.624	5015.13
428.832	5058.14
429.039	5117.53
429.247	5174.88
429.454	5428.82
429.662	5842.51
429.869	5492.31
430.076	6078.03
430.284	5582.42
430.491	5856.85
430.699	6303.31
430.906	6391.37
431.114	6311.5
431.321	6774.34
431.528	6880.83
431.736	7028.29
431.943	7462.46
432.15	7241.28
432.358	7427.64
432.565	7870
432.772	7675.45
432.979	8295.98
433.187	8234.54
433.394	8400.43
433.601	8883.75
433.808	8934.95
434.016	9080.35
434.223	9254.43
434.43	9745.94
434.637	9569.82
434.844	10231.31
435.052	10421.77
435.259	10251.79
435.466	10323.47
435.673	10380.81
435.88	11124.22
436.087	11568.63
436.294	11505.15
436.501	11341.31
436.708	11693.56
436.915	11898.36
437.122	12307.95
437.329	12447.21
437.537	12998.12
437.743	13041.12
437.95	13080.04
438.157	13649.37
438.364	13995.48
438.571	14112.21
438.778	14061.01
438.985	15207.87
439.192	14951.88
439.399	15164.87
439.606	15015.37
439.813	15611.32
440.02	16674.22
440.227	16358.83
440.433	16418.22
440.64	16973.22
440.847	16672.17
441.054	17393.06
441.261	18210.2
441.467	17956.25
441.674	18218.39
441.881	19041.67
442.088	19025.29
442.294	19056.01
442.501	19281.28
442.708	19697.02
442.914	20338.04
443.121	21124.46
443.328	20983.15
443.534	22465.88
443.741	21435.75
443.948	21253.48
444.154	22850.89
444.361	22541.65
444.568	23080.27
444.774	22852.94
444.981	23346.5
445.187	23569.73
445.394	24616.24
445.6	24409.4
445.807	26754.32
446.013	25574.69
446.22	26377.5
446.426	27399.43
446.633	27540.74
446.839	28366.07
447.046	27172.11
447.252	28523.77
447.459	28747
447.665	28411.13
447.871	29496.55
448.078	30901.46
448.284	29492.46
448.491	30108.9
448.697	31788.23
448.903	32048.32
449.11	32316.61
449.316	31618.25
449.522	32058.56
449.728	32697.53
449.935	33252.53
450.141	32918.71
450.347	34024.61
450.553	32773.3
450.76	33191.09
450.966	34477.21
451.172	33811.62
451.378	34872.47
451.584	33965.22
451.791	34757.78
451.997	34966.68
452.203	35310.74
452.409	35069.08
452.615	35366.03
452.821	33561.77
453.027	33496.24
453.233	34978.96
453.44	33825.96
453.646	33975.46
453.852	34516.12
454.058	34774.17
454.264	34059.43
454.47	34061.47
454.676	33232.05
454.882	34575.52
455.088	31325.39
455.294	32222.4
455.5	32660.66
455.705	33139.89
455.911	31585.48
456.117	30901.46
456.323	30350.56
456.529	28976.37
456.735	30375.13
456.941	29482.22
457.147	28943.6
457.352	27981.06
457.558	27774.21
457.764	27972.86
457.97	26979.6
458.176	26756.37
458.381	26782.99
458.587	25523.49
458.793	25474.34
458.999	24005.95
459.204	25847.07
459.41	24866.1
459.616	23364.93
459.821	23287.11
460.027	23344.45
460.233	22996.3
460.438	21755.23
460.644	21968.22
460.85	20843.88
461.055	20579.7
461.261	20647.28
461.466	19121.54
461.672	18503.06
461.878	20075.9
462.083	18541.97
462.289	18288.02
462.494	18050.46
462.7	17491.36
462.905	16821.67
463.111	17427.87
463.316	17421.73
463.522	17118.63
463.727	16960.94
463.932	16795.05
464.138	16778.67
464.343	16805.29
464.549	16438.7
464.754	16993.7
464.959	16825.77
465.165	16790.95
465.37	16143.8
465.575	15580.6
465.781	16283.06
465.986	16166.32
466.191	15730.11
466.397	15486.4
466.602	14769.61
466.807	15136.2
467.012	15267.27
467.218	15214.02
467.423	15029.7
467.628	15070.66
467.833	15513.02
468.038	15164.87
468.244	14804.42
468.449	15379.9
468.654	14665.16
468.859	14738.89
469.064	14601.68
469.269	14024.15
469.474	14079.44
469.679	14343.63
469.885	13993.43
470.09	13868.5
470.295	14036.44
470.5	13526.49
470.705	13805.02
470.91	13290.98
471.115	13358.56
471.32	13538.78
471.525	13313.5
471.73	13004.26
471.935	13057.51
472.139	12598.76
472.344	12789.22
472.549	12617.19
472.754	12457.45
472.959	12189.17
473.164	12203.5
473.369	12000.76
473.574	12236.27
473.778	12117.49
473.983	11896.31
474.188	12090.87
474.393	11517.43
474.598	11580.92
474.802	11443.71
475.007	11415.04
475.212	11216.38
475.417	10759.69
475.621	11009.54
475.826	10911.24
476.031	10706.44
476.235	10626.57
476.44	10823.17
476.645	10610.18
476.849	10511.88
477.054	10558.99
477.259	10317.33
477.463	10225.17
477.668	9903.64
477.872	10194.45
478.077	9897.49
478.282	9504.28
478.486	9866.77
478.691	9578.01
478.895	9741.85
479.1	9254.43
479.304	9610.78
479.509	9254.43
479.713	9387.55
479.918	9260.57
480.122	9190.94
480.326	9225.76
480.531	9014.82
480.735	9049.63
480.94	8726.05
481.144	9285.15
481.348	8865.32
481.553	9076.26
481.757	8668.71
481.961	8861.22
482.166	9102.88
482.37	8885.8
482.574	8834.6
482.778	8781.35
482.983	9131.55
483.187	8773.16
483.391	8850.98
483.595	8773.16
483.8	8650.28
484.004	8904.23
484.208	9002.53
484.412	8744.49
484.616	8992.29
484.821	8832.55
485.025	8828.45
485.229	9020.96
485.433	8648.23
485.637	8834.6
485.841	8693.29
486.045	8699.43
486.249	8750.63
486.453	8676.9
486.657	8775.2
486.861	8812.07
487.065	8853.03
487.269	8764.96
487.473	8687.14
487.677	9033.25
487.881	8908.32
488.085	8775.2
488.289	8822.31
488.493	9002.53
488.697	8967.71
488.901	9012.77
489.105	8945.19
489.309	8971.81
489.512	8881.7
489.716	8982.05
489.92	9104.93
490.124	8873.51
490.328	9203.23
490.531	8943.14
490.735	9092.64
490.939	9170.46
491.143	9023.01
491.346	8904.23
491.55	9211.42
491.754	8936.99
491.958	9262.62
492.161	9252.38
492.365	9274.91
492.569	9082.4
492.772	9236
492.976	9324.06
493.18	9344.54
493.383	9483.8
493.587	9805.33
493.79	9565.72
493.994	9661.98
494.197	9768.47
494.401	9864.72
494.605	9840.15
494.808	9813.52
495.012	9889.3
495.215	10192.4
495.419	10030.61
495.622	10073.62
495.825	10382.86
496.029	10350.09
496.232	10429.96
496.436	10376.72
496.639	10591.75
496.843	10493.45
497.046	10839.56
497.249	10999.3
497.453	11130.37
497.656	11064.83
497.859	11105.79
498.063	11226.62
498.266	11562.49
498.469	11484.67
498.673	11650.55
498.876	11744.76
499.079	11978.23
499.282	11795.96
499.485	12307.95
499.689	12150.26
499.892	12416.49
500.095	12537.32
500.298	12682.73
500.501	12510.7
500.705	12967.4
500.908	12897.77
501.111	13354.46
501.314	13411.81
501.517	13149.67
501.72	13526.49
501.923	13493.72
502.126	14147.03
502.329	13968.85
502.532	14214.61
502.735	14179.79
502.938	14329.3
503.141	14915.02
503.344	14968.26
503.547	14941.64
503.75	15044.04
503.953	15553.98
504.156	15470.01
504.359	15613.37
504.562	15582.65
504.765	15902.14
504.968	16328.11
505.17	16500.14
505.373	16358.83
505.576	16756.14
505.779	16913.83
505.982	16881.07
506.185	17401.25
506.387	17315.23
506.59	17632.67
506.793	17890.71
506.996	17771.93
507.198	18345.36
507.401	18236.82
507.604	18318.74
507.807	18716.05
508.009	18873.74
508.212	18851.21
508.415	19250.56
508.617	19524.99
508.82	19662.21
509.022	19518.85
509.225	20086.14
509.428	20340.08
509.63	20497.78
509.833	20571.5
510.035	21103.98
510.238	20905.32
510.44	21263.72
510.643	21761.37
510.845	21880.16
511.048	21919.07
511.25	22158.68
511.453	22089.05
511.655	22986.06
511.858	22656.34
512.06	22644.05
512.262	23207.24
512.465	22971.72
512.667	23483.72
512.87	23661.89
513.072	24089.92
513.274	24358.2
513.477	24630.58
513.679	24587.57
513.881	25255.21
514.084	24988.97
514.286	25134.38
514.488	25650.47
514.69	26098.97
514.893	26389.78
515.095	26350.87
515.297	26983.69
515.499	26864.91
515.701	27030.8
515.904	27467.02
516.106	27686.15
516.308	27923.71
516.51	28312.83
516.712	28136.7
516.914	28550.39
517.116	29046
517.318	28886.26
517.52	29310.19
517.722	29601
517.925	29697.25
518.127	30289.12
518.329	30635.22
518.531	30280.92
518.733	31130.83
518.935	31274.19
519.136	31478.99
519.338	31976.64
519.54	31786.18
519.742	32001.22
519.944	32273.6
520.146	32912.56
520.348	33055.92
520.55	33311.92
520.752	33236.14
520.954	34081.95
521.155	34065.57
521.357	34362.53
521.559	35142.8
521.761	34765.98
521.963	35024.02
522.164	35507.34
522.366	35447.95
522.568	35832.97
522.77	35730.57
522.971	36195.46
523.173	35982.47
523.375	36713.59
523.576	36576.38
523.778	36777.08
523.98	37481.58
524.181	37743.72
524.383	37543.02
524.584	37893.22
524.786	37981.29
524.988	38341.73
525.189	38587.49
525.391	38669.4
525.592	38857.82
525.794	39222.36
525.995	39373.91
526.197	39205.97
526.398	39464.02
526.6	39926.86
526.801	39779.4
527.003	40172.61
527.204	40422.47
527.406	40563.78
527.607	40307.78
527.808	40807.48
528.01	40131.65
528.211	40631.36
528.412	41327.67
528.614	41632.82
528.815	41323.57
529.016	41774.13
529.218	41733.17
529.419	41399.35
529.62	41491.51
529.822	41880.62
530.023	41858.09
530.224	42081.32
530.425	41950.25
530.626	41901.1
530.828	41802.8
531.029	42476.58
531.23	42415.14
531.431	42312.74
531.632	42624.03
531.833	42802.21
532.035	42748.96
532.236	42556.45
532.437	43205.66
532.638	42884.12
532.839	43285.53
533.04	43490.32
533.241	42527.78
533.442	43754.51
533.643	42863.64
533.844	43060.25
534.045	43152.41
534.246	43004.95
534.447	43471.89
534.648	43281.43
534.849	43420.69
535.05	43125.78
535.251	43211.8
535.451	43228.18
535.652	43289.62
535.853	43119.64
536.054	43764.75
536.255	43643.92
536.456	43332.63
536.657	44026.89
536.857	43529.23
537.058	43189.27
537.259	43584.53
537.46	43617.3
537.66	43432.98
537.861	43291.67
538.062	43670.54
538.263	43219.99
538.463	43211.8
538.664	43478.04
538.865	44112.91
539.065	44450.82
539.266	43570.19
539.466	43955.21
539.667	43156.5
539.868	43858.96
540.068	43473.94
540.269	43899.92
540.469	43830.29
540.67	43371.54
540.87	43830.29
541.071	43600.91
541.271	43725.84
541.472	43760.65
541.672	43363.35
541.873	43252.76
542.073	42994.71
542.274	43559.95
542.474	43346.97
542.675	43127.83
542.875	43772.94
543.075	43838.48
543.276	43537.43
543.476	43867.15
543.676	43514.9
543.877	43533.33
544.077	43455.51
544.277	43412.5
544.478	43369.49
544.678	43400.21
544.878	43746.32
545.078	43619.35
545.279	42937.37
545.479	43195.42
545.679	43639.82
545.879	43486.23
546.079	43211.8
546.28	43045.91
546.48	43437.08
546.68	43099.16
546.88	43631.63
547.08	43510.8
547.28	43420.69
547.48	43312.15
547.68	43351.06
547.88	43146.26
548.081	43209.75
548.281	42904.6
548.481	43215.9
548.681	43652.11
548.881	43498.51
549.081	43054.11
549.28	42781.73
549.48	43217.94
549.68	42822.69
549.88	43406.36
550.08	43148.31
550.28	43078.68
550.48	43052.06
550.68	43537.43
550.88	42865.69
551.08	43168.79
551.279	43076.63
551.479	42529.83
551.679	42914.84
551.879	43408.4
552.079	43179.03
552.278	43115.54
552.478	43338.77
552.678	43265.05
552.878	43383.83
553.077	42673.18
553.277	42724.38
553.477	43234.33
553.676	42783.77
553.876	42718.24
554.076	42851.36
554.275	42630.18
554.475	42288.17
554.674	42851.36
554.874	42421.28
555.074	42523.68
555.273	42361.89
555.473	42564.64
555.672	42638.37
555.872	42458.15
556.071	42388.52
556.271	42658.85
556.47	42734.62
556.67	42093.61
556.869	41993.26
557.068	42114.09
557.268	41925.67
557.467	42363.94
557.667	41847.85
557.866	41997.35
558.065	42243.11
558.265	41501.75
558.464	41854
558.663	41847.85
558.863	41385.01
559.062	41942.06
559.261	41532.46
559.461	42103.85
559.66	41231.41
559.859	41503.79
560.058	41530.42
560.258	41241.65
560.457	40940.6
560.656	41438.26
560.855	41174.07
561.054	41219.13
561.253	40930.36
561.453	41321.52
561.652	41030.71
561.851	40815.68
562.05	40881.21
562.249	40631.36
562.448	40838.2
562.647	40692.8
562.846	40199.24
563.045	40680.51
563.244	40184.9
563.443	40438.85
563.642	40195.14
563.841	39889.99
564.04	39599.18
564.239	40178.76
564.438	39683.15
564.637	39679.05
564.836	39758.92
565.035	39218.26
565.234	39648.33
565.432	39332.95
565.631	39369.81
565.83	39386.19
566.029	39156.82
566.228	38894.68
566.427	38986.84
566.625	38956.12
566.824	38274.15
567.023	38982.74
567.222	38233.19
567.42	38730.84
567.619	38577.25
567.818	38192.23
568.016	38044.77
568.215	38503.52
568.414	38108.26
568.612	38022.25
568.811	37792.87
569.01	37868.65
569.208	37454.96
569.407	38245.48
569.605	37190.77
569.804	38128.74
570.002	37327.99
570.201	37782.63
570.4	36990.07
570.598	36932.73
570.797	36744.31
570.995	36748.41
571.193	36619.39
571.392	37049.46
571.59	36164.74
571.789	36480.13
571.987	36420.73
572.186	36572.28
572.384	36256.9
572.582	36125.83
572.781	36265.09
572.979	35531.92
573.177	35781.77
573.376	36187.27
573.574	35566.73
573.772	35454.09
573.971	35275.92
574.169	35302.54
574.367	35087.51
574.565	35347.6
574.763	34876.57
574.962	34774.17
575.16	34718.87
575.358	34684.06
575.556	34225.31
575.754	34860.18
575.952	34419.87
576.151	34843.8
576.349	34012.32
576.547	34307.23
576.745	34088.1
576.943	33848.49
577.141	33891.49
577.339	33940.64
577.537	33641.64
577.735	33254.58
577.933	33240.24
578.131	33549.48
578.329	33352.88
578.527	32758.97
578.725	33043.63
578.923	33201.33
579.121	32701.62
579.319	32771.25
579.516	32959.67
579.714	32691.38
579.912	32709.82
580.11	32683.19
580.308	32586.94
580.506	32509.11
580.704	31857.86
580.901	32066.75
581.099	32253.12
581.297	32101.57
581.495	31640.78
581.692	32175.3
581.89	31497.42
582.088	31601.86
582.285	31452.36
582.483	31663.3
582.681	31597.77
582.878	30999.76
583.076	31186.13
583.274	31378.64
583.471	30788.82
583.669	30940.37
583.866	30997.71
584.064	31188.17
584.262	30600.41
584.459	30852.31
584.657	30401.75
584.854	30655.7
585.052	29983.97
585.249	30115.04
585.447	30293.21
585.644	29875.43
585.841	30151.9
586.039	30100.7
586.236	29744.36
586.434	29736.16
586.631	29785.32
586.828	29611.24
587.026	29846.76
587.223	29601
587.42	29564.14
587.618	29449.45
587.815	29060.34
588.012	28943.6
588.21	29324.52
588.407	29416.68
588.604	28675.32
588.801	28581.11
588.999	28577.01
589.196	28718.32
589.393	28656.89
589.59	28622.07
589.787	28429.56
589.984	28300.54
590.182	28042.49
590.379	28204.28
590.576	27933.95
590.773	28179.71
590.97	27856.13
591.167	27899.14
591.364	27428.1
591.561	27600.13
591.758	27557.13
591.955	27329.8
592.152	27241.74
592.349	27387.14
592.546	27337.99
592.743	27729.16
592.94	26776.85
593.137	27045.13
593.334	27139.34
593.531	26531.09
593.727	26799.38
593.924	27079.95
594.121	26469.65
594.318	26778.9
594.515	26283.29
594.712	26440.98
594.908	26219.8
595.105	26414.36
595.302	26023.2
595.499	25990.43
595.696	25863.46
595.892	25945.37
596.089	26326.3
596.286	25617.7
596.482	25726.24
596.679	25787.68
596.876	25836.83
597.072	25627.94
597.269	25670.95
597.466	25156.91
597.662	25627.94
597.859	25154.86
598.055	25179.43
598.252	25173.29
598.448	25171.24
598.645	24878.38
598.841	24558.9
599.038	24421.69
599.234	24679.73
599.431	24372.53
599.627	24655.15
599.824	24845.62
600.02	24239.42
600.217	24257.85
600.413	24169.79
600.609	23825.73
600.806	24218.94
601.002	24153.4
601.198	23752
601.395	23811.39
601.591	23776.58
601.787	23825.73
601.984	23453
602.18	23649.6
602.376	23369.03
602.572	23473.48
602.769	23387.46
602.965	23190.86
603.161	23278.92
603.357	22938.96
603.553	22811.98
603.75	23086.41
603.946	22740.3
604.142	22996.3
604.338	22754.64
604.534	22609.23
604.73	22490.45
604.926	22469.97
605.122	22398.29
605.318	22416.72
605.514	22091.1
605.71	22353.24
605.906	22050.14
606.102	21925.21
606.298	22189.4
606.494	22056.28
606.69	22162.78
606.886	21794.14
607.082	21572.96
607.278	21851.49
607.474	21521.76
607.67	21900.64
607.866	21325.16
608.062	21476.71
608.257	21697.89
608.453	21357.92
608.649	21630.3
608.845	21230.95
609.041	21316.97
609.236	21392.74
609.432	21167.46
609.628	20956.52
609.824	20952.43
610.019	21067.11
610.215	21052.78
610.411	21046.63
610.606	21028.2
610.802	20819.31
610.998	20749.68
611.193	20876.65
611.389	20540.79
611.584	20403.57
611.78	20270.45
611.976	20792.69
612.171	20723.05
612.367	20446.58
612.562	20256.12
612.758	20200.82
612.953	20249.97
613.149	20450.67
613.344	19905.91
613.539	20383.09
613.735	20333.94
613.93	20266.36
614.126	19959.16
614.321	20067.7
614.517	19993.98
614.712	20129.14
614.907	19785.08
615.103	19850.62
615.298	19686.78
615.493	19848.57
615.688	19266.95
615.884	19729.79
616.079	19447.17
616.274	19594.62
616.47	19828.09
616.665	19484.03
616.86	19457.41
617.055	19463.55
617.25	19490.18
617.445	19297.67
617.641	18916.75
617.836	19129.73
618.031	19133.83
618.226	19404.16
618.421	19039.62
618.616	19258.76
618.811	18740.62
619.006	18994.57
619.201	18718.09
619.396	18908.55
619.591	18345.36
619.786	18531.73
619.981	18283.92
620.176	18582.93
620.371	18228.63
620.566	18378.13
620.761	18337.17
620.956	18369.94
621.151	17862.04
621.346	18087.32
621.541	17931.67
621.735	17917.34
621.93	17544.61
622.125	17577.37
622.32	17425.82
622.515	17448.35
622.709	17278.37
622.904	17096.1
623.099	17055.14
623.294	17434.02
623.488	17116.58
623.683	16930.22
623.878	16608.69
624.072	16868.78
624.267	16737.71
624.462	16582.06
624.656	16348.59
624.851	16434.61
625.046	16199.09
625.24	16084.41
625.435	15941.05
625.629	16106.93
625.824	16111.03
626.018	15656.38
626.213	15533.5
626.407	15803.83
626.602	15556.03
626.796	15787.45
626.991	15736.25
627.185	15461.82
627.38	15330.75
627.574	15146.44
627.768	15136.2
627.963	15062.47
628.157	15035.85
628.352	14822.86
628.546	14779.85
628.74	14945.73
628.935	14550.48
629.129	14527.95
629.323	14329.3
629.517	14480.85
629.712	14446.03
629.906	14372.3
630.1	14165.46
630.294	14218.71
630.489	14134.74
630.683	14015.96
630.877	13751.77
631.071	13778.39
631.265	13866.46
631.459	13653.47
631.653	13678.04
631.848	13704.67
632.042	13520.35
632.236	13420
632.43	13356.51
632.624	13368.8
632.818	13250.02
633.012	13092.32
633.206	12955.11
633.4	13094.37
633.594	12848.61
633.788	12895.72
633.982	12733.93
634.176	12598.76
634.369	12574.19
634.563	12570.09
634.757	12516.84
634.951	12461.55
635.145	12576.23
635.339	12375.53
635.533	12328.43
635.726	12123.63
635.92	12107.25
636.114	12033.52
636.308	12121.59
636.501	12088.82
636.695	12029.43
636.889	11867.64
637.083	11763.19
637.276	11943.41
637.47	11535.87
637.664	11476.48
637.857	11593.21
638.051	11499
638.244	11406.84
638.438	11378.17
638.632	11200
638.825	11169.28
639.019	11058.69
639.212	10948.1
639.406	10864.13
639.599	10984.96
639.793	11316.73
639.986	10716.68
640.18	10907.14
640.373	10763.78
640.567	10667.53
640.76	10581.51
640.954	10558.99
641.147	10405.39
641.34	10417.68
641.534	10257.93
641.727	10532.36
641.92	10298.89
642.114	10167.82
642.307	10176.02
642.5	10147.34
642.694	10065.43
642.887	9993.75
643.08	9969.17
643.273	9729.56
643.467	9846.29
643.66	9747.99
643.853	9737.75
644.046	9475.61
644.239	9809.43
644.432	9489.95
644.626	9465.37
644.819	9367.07
645.012	9575.96
645.205	9291.29
645.398	9322.01
645.591	9373.21
645.784	9160.22
645.977	9000.48
646.17	9188.89
646.363	9020.96
646.556	8967.71
646.749	8893.99
646.942	8832.55
647.135	8879.65
647.328	8695.33
647.521	8850.98
647.714	8541.74
647.907	8601.13
648.099	8666.66
648.292	8791.59
648.485	8429.1
648.678	8177.2
648.871	8453.67
649.064	8416.81
649.256	8283.69
649.449	8353.32
649.642	8193.58
649.835	8113.71
650.027	8054.32
650.22	8195.63
650.413	8074.8
650.605	8035.89
650.798	7908.91
650.991	8082.99
651.183	8132.14
651.376	7956.02
651.568	7843.38
651.761	7689.78
651.954	7634.49
652.146	7757.36
652.339	7624.25
652.531	7614.01
652.724	7558.71
652.916	7532.09
653.109	7497.27
653.301	7392.83
653.494	7542.33
653.686	7401.02
653.879	7390.78
654.071	7255.61
654.263	7218.75
654.456	7315
654.648	7294.52
654.84	7149.12
655.033	7130.69
655.225	7052.86
655.417	7034.43
655.61	7005.76
655.802	7087.68
655.994	6786.63
656.186	6870.59
656.379	6911.55
656.571	6835.78
656.763	6659.65
656.955	6686.28
657.148	6784.58
657.34	6678.08
657.532	6602.31
657.724	6571.59
657.916	6653.51
658.108	6612.55
658.3	6391.37
658.492	6555.21
658.684	6465.1
658.876	6331.98
659.068	6348.36
659.26	6252.11
659.452	6307.4
659.644	6284.87
659.836	6217.29
660.028	6438.47
660.22	6098.51
660.412	6178.38
660.604	6100.56
660.796	6024.78
660.988	5910.1
661.18	5881.42
661.372	5922.38
661.563	5858.9
661.755	5951.06
661.947	5963.34
662.139	5779.03
662.331	5758.55
662.522	5609.05
662.714	5733.97
662.906	5678.68
663.097	5469.78
663.289	5533.27
663.481	5600.85
663.673	5615.19
663.864	5613.14
664.056	5559.89
664.247	5596.76
664.439	5520.98
664.631	5437.02
664.822	5428.82
665.014	5199.45
665.205	5385.82
665.397	5262.94
665.588	5207.64
665.78	5297.75
665.971	5199.45
666.163	5351
666.354	5256.79
666.546	5160.54
666.737	5133.92
666.929	5162.59
667.12	4996.7
667.311	4992.61
667.503	5023.33
667.694	4963.93
667.885	4918.88
668.077	4836.96
668.268	4804.19
668.459	4865.63
668.651	4955.74
668.842	4748.9
669.033	4808.29
669.224	4785.76
669.416	4839.01
669.607	4644.45
669.798	4707.94
669.989	4818.53
670.18	4839.01
670.371	4556.39
670.563	4593.25
670.754	4560.49
670.945	4638.31
671.136	4587.11
671.327	4679.27
671.518	4548.2
671.709	4654.69
671.9	4722.27
672.091	4548.2
672.282	4593.25
672.473	4466.28
672.664	4374.12
672.855	4433.51
673.046	4482.66
673.237	4464.23
673.428	4259.43
673.619	4390.5
673.809	4142.7
674	4396.65
674.191	4294.25
674.382	4216.43
674.573	4281.96
674.764	4333.16
674.954	4259.43
675.145	4249.19
675.336	4138.6
675.527	4398.7
675.717	4015.73
675.908	3997.29
676.099	4081.26
676.289	4003.44
676.48	4032.11
676.671	4093.55
676.861	4114.03
677.052	4044.4
677.243	3972.72
677.433	4032.11
677.624	3966.57
677.814	3980.91
678.005	4001.39
678.195	4097.64
678.386	4036.21
678.576	3958.38
678.767	3956.33
678.957	3880.56
679.148	3819.12
679.338	3825.26
679.529	3878.51
679.719	4001.39
679.909	3839.6
680.1	3696.24
680.29	3890.8
680.481	3835.5
680.671	3706.48
680.861	3772.02
681.052	3720.82
681.242	3864.18
681.432	3696.24
681.622	3710.58
681.813	3729.01
682.003	3628.66
682.193	3659.38
682.383	3694.19
682.573	3634.8
682.764	3671.67
682.954	3591.8
683.144	3630.71
683.334	3683.95
683.524	3606.13
683.714	3661.43
683.904	3495.54
684.094	3542.64
684.284	3565.17
684.474	3606.13
684.664	3501.69
684.854	3577.46
685.044	3518.07
685.234	3339.9
685.424	3507.83
685.614	3401.33
685.804	3399.29
685.994	3391.09
686.184	3548.79
686.374	3327.61
686.564	3526.26
686.753	3374.71
686.943	3343.99
687.133	3395.19
687.323	3364.47
687.513	3346.04
687.702	3268.22
687.892	3264.12
688.082	3257.98
688.272	3198.59
688.461	3255.93
688.651	3305.08
688.841	3280.5
689.03	3245.69
689.22	3227.26
689.41	3280.5
689.599	3171.96
689.789	3327.61
689.979	3163.77
690.168	3303.03
690.358	3139.19
690.547	3131
690.737	3243.64
690.926	3051.13
691.116	3214.97
691.305	3139.19
691.495	3165.82
691.684	2989.69
691.874	3135.1
692.063	3088
692.252	3022.46
692.442	3051.13
692.631	3065.47
692.82	2938.49
693.01	3014.27
693.199	3044.99
693.388	2786.94
693.578	3071.61
693.767	2961.02
693.956	2909.82
694.146	2885.25
694.335	3024.51
694.524	2840.19
694.713	2875.01
694.902	2967.17
695.092	2965.12
695.281	2924.16
695.47	2850.43
695.659	2866.81
695.848	2915.97
696.037	2891.39
696.226	2819.71
696.415	2967.17
696.604	2952.83
696.793	2905.73
696.982	2813.57
697.171	2866.81
697.36	2905.73
697.549	2756.22
697.738	2858.62
697.927	2782.85
698.116	2768.51
698.305	2823.81
698.494	2840.19
698.683	2895.49
698.872	2832
699.061	2795.14
699.25	2778.75
699.438	2864.77
699.627	2797.18
699.816	2928.25
700.005	2821.76
700.193	2752.13
700.382	2850.43
700.571	2887.29
700.76	2875.01
700.948	2827.9
701.137	2858.62
701.326	2817.66
701.514	2911.87
701.703	2877.05
701.892	2797.18
702.08	2838.14
702.269	2768.51
702.457	2813.57
702.646	2842.24
702.834	2852.48
703.023	2760.32
703.212	2877.05
703.4	2858.62
703.589	2815.62
703.777	2721.41
703.965	2610.82
704.154	2776.7
704.342	2836.1
704.531	2602.63
704.719	2725.51
704.907	2825.86
705.096	2764.42
705.284	2702.98
705.472	2821.76
705.661	2803.33
705.849	2786.94
706.037	2750.08
706.226	2985.6
706.414	2770.56
706.602	2664.07
706.79	2901.63
706.979	2813.57
707.167	2735.74
707.355	2821.76
707.543	2729.6
707.731	2731.65
707.919	2815.62
708.107	2684.55
708.296	2770.56
708.484	2778.75
708.672	2696.83
708.86	2891.39
709.048	2612.87
709.236	2684.55
709.424	2754.18
709.612	2643.59
709.8	2782.85
709.988	2612.87
710.176	2756.22
710.364	2786.94
710.551	2670.21
710.739	2743.94
710.927	2651.78
711.115	2655.87
711.303	2594.44
711.491	2571.91
711.679	2717.31
711.866	2737.79
712.054	2662.02
712.242	2576
712.43	2674.31
712.617	2582.15
712.805	2743.94
712.993	2668.16
713.181	2582.15
713.368	2627.2
713.556	2653.83
713.744	2549.38
713.931	2745.98
714.119	2610.82
714.306	2702.98
714.494	2565.76
714.682	2637.44
714.869	2639.49
715.057	2616.96
715.244	2702.98
715.432	2610.82
715.619	2598.53
715.807	2768.51
715.994	2604.67
716.182	2569.86
716.369	2633.35
716.556	2690.69
716.744	2629.25
716.931	2487.94
717.119	2686.59
717.306	2596.48
717.493	2571.91
717.681	2586.24
717.868	2602.63
718.055	2528.9
718.242	2588.29
718.43	2670.21
718.617	2569.86
718.804	2533
718.991	2653.83
719.179	2649.73
719.366	2651.78
719.553	2528.9
719.74	2592.39
719.927	2633.35
720.114	2670.21
720.301	2578.05
720.488	2557.57
720.676	2463.37
720.863	2481.8
721.05	2459.27
721.237	2500.23
721.424	2563.72
721.611	2459.27
721.798	2553.48
721.985	2436.74
722.172	2508.42
722.358	2545.28
722.545	2424.45
722.732	2543.24
722.919	2512.52
723.106	2463.37
723.293	2496.13
723.48	2410.12
723.667	2520.71
723.853	2385.54
724.04	2469.51
724.227	2373.25
724.414	2414.21
724.6	2389.64
724.787	2401.93
724.974	2524.8
725.161	2477.7
725.347	2643.59
725.534	2475.65
725.72	2420.36
725.907	2453.13
726.094	2403.97
726.28	2430.6
726.467	2455.17
726.653	2317.96
726.84	2428.55
727.027	2492.04
727.213	2348.68
727.4	2320.01
727.586	2356.87
727.773	2471.56
727.959	2418.31
728.145	2432.65
728.332	2444.93
728.518	2408.07
728.705	2428.55
728.891	2356.87
729.077	2397.83
729.264	2344.58
729.45	2365.06
729.636	2383.49
729.823	2305.67
730.009	2449.03
730.195	2320.01
730.382	2483.84
730.568	2371.21
730.754	2295.43
730.94	2395.78
731.126	2473.6
731.313	2383.49
731.499	2246.28
731.685	2348.68
731.871	2334.34
732.057	2410.12
732.243	2352.77
732.429	2317.96
732.615	2221.7
732.801	2391.69
732.987	2354.82
733.173	2217.61
733.359	2326.15
733.545	2356.87
733.731	2295.43
733.917	2295.43
734.103	2377.35
734.289	2313.86
734.475	2354.82
734.661	2332.3
734.847	2221.7
735.033	2279.05
735.219	2324.1
735.404	2236.04
735.59	2270.86
735.776	2184.84
735.962	2373.25
736.148	2223.75
736.333	2152.07
736.519	2262.66
736.705	2213.51
736.89	2233.99
737.076	2279.05
737.262	2229.9
737.447	2231.94
737.633	2258.57
737.819	2229.9
738.004	2301.58
738.19	2162.31
738.375	2115.21
738.561	2156.17
738.747	2014.86
738.932	2186.89
739.118	2139.79
739.303	2164.36
739.489	2145.93
739.674	2250.38
739.859	2172.55
740.045	2045.58
740.23	2047.63
740.416	2156.17
740.601	2147.98
740.786	2121.35
740.972	2084.49
741.157	2043.53
741.342	2090.63
741.528	2039.44
741.713	2041.48
741.898	2139.79
742.084	2098.83
742.269	2096.78
742.454	2004.62
742.639	2074.25
742.824	2041.48
743.01	2002.57
743.195	2008.72
743.38	1957.52
743.565	1982.09
743.75	2002.57
743.935	1978
744.12	1932.94
744.305	2059.92
744.49	1894.03
744.675	1975.95
744.86	1980.04
745.045	1771.15
745.23	1934.99
745.415	1896.08
745.6	1869.45
745.785	1851.02
745.97	1805.97
746.155	1959.56
746.34	1973.9
746.525	1855.12
746.71	1941.13
746.895	1914.51
747.079	1713.81
747.264	1851.02
747.449	1832.59
747.634	1738.38
747.819	1754.77
748.003	1691.28
748.188	1738.38
748.373	1742.48
748.557	1752.72
748.742	1767.06
748.927	1734.29
749.111	1732.24
749.296	1834.64
749.481	1670.8
749.665	1726.1
749.85	1554.07
750.034	1744.53
750.219	1642.13
750.404	1570.45
750.588	1613.46
750.773	1582.74
750.957	1619.6
751.141	1627.79
751.326	1625.75
751.51	1560.21
751.695	1599.12
751.879	1664.66
752.064	1513.11
752.248	1519.25
752.432	1545.88
752.617	1521.3
752.801	1398.42
752.985	1423
753.17	1543.83
753.354	1459.86
753.538	1468.05
753.722	1384.09
753.907	1466
754.091	1437.33
754.275	1437.33
754.459	1289.88
754.643	1375.89
754.828	1287.83
755.012	1402.52
755.196	1326.74
755.38	1369.75
755.564	1345.17
755.748	1312.41
755.932	1400.47
756.116	1296.02
756.3	1304.21
756.484	1322.65
756.668	1275.54
756.852	1285.78
757.036	1246.87
757.22	1185.43
757.404	1287.83
757.588	1277.59
757.772	1193.62
757.956	1296.02
758.14	1277.59
758.323	1259.16
758.507	1205.91
758.691	1201.82
758.875	1222.3
759.059	1187.48
759.242	1132.19
759.426	1177.24
759.61	1103.51
759.794	1148.57
759.977	1173.14
760.161	1115.8
760.345	1171.1
760.528	1148.57
760.712	1224.34
760.895	1142.43
761.079	1154.71
761.263	1107.61
761.446	1132.19
761.63	1193.62
761.813	1083.03
761.997	1152.67
762.18	1060.51
762.364	1080.99
762.547	999.07
762.731	1181.34
762.914	1054.36
763.098	1011.36
763.281	1007.26
763.464	1027.74
763.648	1072.79
763.831	1011.36
764.015	1003.16
764.198	1066.65
764.381	982.68
764.564	1062.55
764.748	1058.46
764.931	1011.36
765.114	984.73
765.297	1019.55
765.481	876.19
765.664	970.4
765.847	956.06
766.03	1091.23
766.213	1058.46
766.397	997.02
766.58	949.92
766.763	1060.51
766.946	919.2
767.129	929.44
767.312	949.92
767.495	861.85
767.678	984.73
767.861	990.88
768.044	994.97
768.227	935.58
768.41	984.73
768.593	927.39
768.776	851.61
768.959	892.57
769.142	947.87
769.324	968.35
769.507	958.11
769.69	931.48
769.873	943.77
770.056	902.81
770.239	837.28
770.421	841.37
770.604	865.95
770.787	841.37
770.97	925.34
771.152	880.29
771.335	855.71
771.518	808.61
771.7	900.76
771.883	894.62
772.066	900.76
772.248	847.52
772.431	876.19
772.613	898.72
772.796	908.96
772.978	775.84
773.161	835.23
773.343	841.37
773.526	839.33
773.708	892.57
773.891	855.71
774.073	808.61
774.256	724.64
774.438	865.95
774.621	827.04
774.803	771.74
774.985	833.18
775.168	804.51
775.35	792.22
775.532	730.78
775.715	794.27
775.897	833.18
776.079	716.45
776.261	808.61
776.444	749.22
776.626	741.02
776.808	675.49
776.99	579.23
777.173	769.69
777.355	663.2
777.537	730.78
777.719	706.21
777.901	718.5
778.083	683.68
778.265	599.71
778.447	702.11
778.629	704.16
778.811	661.15
778.993	632.48
779.175	644.77
779.357	738.98
779.539	599.71
779.721	593.57
779.903	644.77
780.085	638.62
780.267	677.54
780.449	648.86
780.631	628.39
780.812	730.78
780.994	577.19
781.176	605.86
781.358	564.9
781.54	581.28
781.721	702.11
781.903	564.9
782.085	571.04
782.267	540.32
782.448	544.42
782.63	560.8
782.812	601.76
782.993	538.27
783.175	607.91
783.357	546.47
783.538	581.28
783.72	528.03
783.901	505.51
784.083	548.51
784.264	517.79
784.446	442.02
784.627	466.6
784.809	423.59
784.99	431.78
785.172	513.7
785.353	452.26
785.535	550.56
785.716	544.42
785.897	542.37
786.079	452.26
786.26	548.51
786.441	435.88
786.623	362.15
786.804	450.21
786.985	476.84
787.167	437.92
787.348	487.08
787.529	525.99
787.71	458.4
787.891	444.07
788.073	392.87
788.254	382.63
788.435	394.92
788.616	525.99
788.797	396.96
788.978	452.26
789.159	401.06
789.34	462.5
789.522	458.4
789.703	368.29
789.884	386.72
790.065	358.05
790.246	394.92
790.427	370.34
790.607	487.08
790.788	366.25
790.969	364.2
791.15	339.62
791.331	390.82
791.512	386.72
791.693	362.15
791.874	401.06
792.054	454.31
792.235	370.34
792.416	360.1
792.597	335.53
792.778	374.44
792.958	310.95
793.139	413.35
793.32	337.57
793.5	304.81
793.681	382.63
793.862	343.72
794.042	327.33
794.223	343.72
794.404	358.05
794.584	202.41
794.765	388.77
794.945	313
795.126	407.2
795.306	353.96
795.487	290.47
795.667	325.29
795.848	306.85
796.028	284.33
796.209	327.33
796.389	276.13
796.57	286.37
796.75	263.85
796.93	333.48
797.111	267.94
797.291	296.61
797.471	274.09
797.652	315.05
797.832	272.04
798.012	325.29
798.192	327.33
798.373	313
798.553	300.71
798.733	239.27
798.913	274.09
799.093	263.85
799.274	267.94
799.454	300.71
799.634	274.09
799.814	284.33
799.994	249.51
800.174	265.89
800.354	286.37
800.534	206.5
800.714	259.75
800.894	308.9
801.074	265.89
801.254	282.28
801.434	292.52
801.614	245.41
801.794	284.33
801.974	632.48
802.154	212.65
802.334	321.19
802.514	304.81
802.693	257.7
802.873	210.6
803.053	267.94
803.233	188.07
803.413	251.56
803.592	294.57
803.772	276.13
803.952	261.8
804.131	249.51
804.311	194.22
804.491	280.23
804.67	233.13
804.85	212.65
805.03	284.33
805.209	292.52
805.389	173.74
805.568	241.32
805.748	231.08
805.928	192.17
806.107	249.51
806.287	231.08
806.466	183.98
806.646	179.88
806.825	229.03
807.004	169.64
807.184	220.84
807.363	222.89
807.543	179.88
807.722	200.36
807.901	263.85
808.081	237.22
808.26	165.54
808.439	177.83
808.619	196.26
808.798	188.07
808.977	216.74
809.156	198.31
809.336	179.88
809.515	171.69
809.694	140.97
809.873	249.51
810.052	173.74
810.231	231.08
810.411	251.56
810.59	200.36
810.769	188.07
810.948	224.94
811.127	163.5
811.306	179.88
811.485	200.36
811.664	255.65
811.843	157.35
812.022	171.69
812.201	104.11
812.38	140.97
812.559	177.83
812.737	116.39
812.916	91.82
813.095	204.46
813.274	165.54
813.453	208.55
813.632	151.21
813.811	106.15
813.989	204.46
814.168	247.46
814.347	186.02
814.526	251.56
814.704	196.26
814.883	140.97
815.062	145.06
815.24	190.12
815.419	128.68
815.598	151.21
815.776	136.87
815.955	143.02
816.133	108.2
816.312	136.87
816.49	194.22
816.669	167.59
816.847	196.26
817.026	186.02
817.204	155.3
817.383	153.26
817.561	192.17
817.74	181.93
817.918	161.45
818.097	124.58
818.275	157.35
818.453	138.92
818.632	59.05
818.81	214.7
818.988	165.54
819.167	149.16
819.345	87.72
819.523	181.93
819.701	140.97
819.879	108.2
820.058	155.3
820.236	161.45
820.414	222.89
820.592	206.5
820.77	149.16
820.948	159.4
821.127	145.06
821.305	143.02
821.483	151.21
821.661	97.96
821.839	112.3
822.017	73.39
822.195	136.87
822.373	169.64
822.551	97.96
822.729	100.01
822.907	120.49
823.085	173.74
823.262	143.02
823.44	87.72
823.618	140.97
823.796	54.95
823.974	122.54
824.152	102.06
824.329	100.01
824.507	163.5
824.685	124.58
824.863	188.07
825.04	147.11
825.218	89.77
825.396	110.25
825.574	114.34
825.751	145.06
825.929	128.68
826.107	1.71
826.284	112.3
826.462	132.78
826.639	79.53
826.817	52.91
826.994	143.02
827.172	100.01
827.349	147.11
827.527	190.12
827.704	95.91
827.882	206.5
828.059	81.58
828.237	153.26
828.414	91.82
828.591	22.19
828.769	93.87
828.946	108.2
829.124	194.22
829.301	-10.58
829.478	30.38
829.655	104.11
829.833	116.39
830.01	87.72
830.187	102.06
830.364	124.58
830.542	138.92
830.719	222.89
830.896	147.11
831.073	114.34
831.25	91.82
831.427	130.73
831.604	118.44
831.782	104.11
831.959	42.67
832.136	100.01
832.313	30.38
832.49	77.48
832.667	87.72
832.844	93.87
833.021	177.83
833.198	50.86
833.374	79.53
833.551	57
833.728	85.67
833.905	85.67
834.082	-8.53
834.259	112.3
834.436	79.53
834.612	73.39
834.789	138.92
834.966	116.39
835.143	112.3
835.319	59.05
835.496	106.15
835.673	85.67
835.85	100.01
836.026	116.39
836.203	87.72
836.38	65.19
836.556	93.87
836.733	83.63
836.909	140.97
837.086	69.29
837.262	67.24
837.439	143.02
837.616	140.97
837.792	36.52
837.968	77.48
838.145	13.99
838.321	108.2
838.498	36.52
838.674	97.96
838.851	95.91
839.027	52.91
839.203	40.62
839.38	126.63
839.556	30.38
839.732	116.39
839.909	73.39
840.085	132.78
840.261	75.43
840.437	81.58
840.614	59.05
840.79	57
840.966	30.38
841.142	177.83
841.318	28.33
841.494	69.29
841.671	124.58
841.847	138.92
842.023	1.71
842.199	44.71
842.375	157.35
842.551	106.15
842.727	61.1
842.903	104.11
843.079	-84.31
843.255	63.15
843.431	26.28
843.607	24.23
843.783	65.19
843.959	95.91
844.134	44.71
844.31	95.91
844.486	104.11
844.662	54.95
844.838	-2.39
845.013	26.28
845.189	59.05
845.365	120.49
845.541	9.9
845.716	116.39
845.892	97.96
846.068	28.33
846.244	-26.96
846.419	112.3
846.595	54.95
846.77	91.82
846.946	73.39
847.122	28.33
847.297	104.11
847.473	104.11
847.648	136.87
847.824	97.96
847.999	-4.44
848.175	9.9
848.35	120.49
848.526	77.48
848.701	50.86
848.876	57
849.052	102.06
849.227	83.63
849.403	61.1
849.578	87.72
849.753	26.28
849.929	69.29
850.104	-29.01
850.279	24.23
850.454	40.62
850.63	97.96
850.805	59.05
850.98	-26.96
851.155	50.86
851.33	63.15
851.505	22.19
851.681	57
851.856	44.71
852.031	67.24
852.206	3.75
852.381	7.85
852.556	38.57
852.731	73.39
852.906	71.34
853.081	81.58
853.256	42.67
853.431	22.19
853.606	28.33
853.781	91.82
853.956	67.24
854.131	102.06
854.305	5.8
854.48	48.81
854.655	5.8
854.83	13.99
855.005	71.34
855.18	67.24
855.354	79.53
855.529	61.1
855.704	18.09
855.879	89.77
856.053	102.06
856.228	108.2
856.403	126.63
856.577	7.85
856.752	38.57
856.926	79.53
857.101	3.75
857.276	18.09
857.45	79.53
857.625	40.62
857.799	13.99
857.974	7.85
858.148	-4.44
858.323	97.96
858.497	50.86
858.672	54.95
858.846	54.95
859.02	38.57
859.195	1.71
859.369	81.58
859.543	26.28
859.718	67.24
859.892	-2.39
860.066	13.99
860.241	61.1
860.415	24.23
860.589	20.14
860.763	97.96
860.938	28.33
861.112	46.76
861.286	75.43
861.46	67.24
861.634	26.28
861.808	100.01
861.982	-63.83
862.157	54.95
862.331	-35.16
862.505	42.67
862.679	57
862.853	89.77
863.027	13.99
863.201	77.48
863.375	50.86
863.549	73.39
863.722	46.76
863.896	85.67
864.07	-18.77
864.244	83.63
864.418	100.01
864.592	-10.58
864.766	26.28
864.939	97.96
865.113	40.62
865.287	77.48
865.461	54.95
865.634	1.71
865.808	61.1
865.982	24.23
866.156	-6.49
866.329	1.71
866.503	40.62
866.676	67.24
866.85	36.52
867.024	16.04
867.197	42.67
867.371	52.91
867.544	63.15
867.718	38.57
867.891	48.81
868.065	-26.96
868.238	50.86
868.412	-51.54
868.585	59.05
868.759	11.95
868.932	9.9
869.105	18.09
869.279	28.33
869.452	-24.92
869.625	65.19
869.799	5.8
869.972	61.1
870.145	67.24
870.319	34.47
870.492	18.09
870.665	26.28
870.838	1.71
871.011	16.04
871.185	42.67
871.358	18.09
871.531	-24.92
871.704	81.58
871.877	28.33
872.05	-14.68
872.223	54.95
872.396	-14.68
872.569	73.39
872.742	-35.16
872.915	42.67
873.088	-20.82
873.261	-47.44
873.434	100.01
873.607	-35.16
873.78	-49.49
873.953	-4.44
874.126	9.9
874.299	71.34
874.471	71.34
874.644	26.28
874.817	38.57
874.99	-8.53
875.163	9.9
875.335	22.19
875.508	38.57
875.681	18.09
875.853	-2.39
876.026	-18.77
876.199	67.24
876.371	116.39
876.544	3.75
876.717	11.95
876.889	-4.44
877.062	20.14
877.234	24.23
877.407	67.24
877.579	112.3
877.752	-14.68
877.924	100.01
878.097	20.14
878.269	81.58
878.442	-20.82
878.614	26.28
878.786	16.04
878.959	22.19
879.131	91.82
879.303	-6.49
879.476	63.15
879.648	38.57
879.82	54.95
879.993	104.11
880.165	-0.34
880.337	3.75
880.509	-2.39
880.681	22.19
880.854	59.05
881.026	-10.58
881.198	-14.68
881.37	44.71
881.542	48.81
881.714	-0.34
881.886	63.15
882.058	26.28
882.23	30.38
882.402	54.95
882.574	46.76
882.746	63.15
882.918	1.71
883.09	-12.63
883.262	61.1
883.434	59.05
883.606	-61.78
883.778	-18.77
883.95	42.67
884.122	22.19
884.293	32.43
884.465	48.81
884.637	44.71
884.809	-65.88
884.98	46.76
885.152	11.95
885.324	30.38
885.496	3.75
885.667	-4.44
885.839	67.24
886.011	83.63
886.182	11.95
886.354	13.99
886.525	5.8
886.697	-12.63
886.869	-72.02
887.04	-2.39
887.212	46.76
887.383	87.72
887.555	-18.77
887.726	-20.82
887.897	38.57
888.069	-6.49
888.24	69.29
888.412	83.63
888.583	-24.92
888.754	-6.49
888.926	-98.64
889.097	1.71
889.268	67.24
889.44	-18.77
889.611	-37.2
889.782	-49.49
889.953	-20.82
890.125	26.28
890.296	-8.53
890.467	18.09
890.638	16.04
890.809	5.8
890.98	-8.53
891.151	42.67
891.323	67.24
891.494	-2.39
891.665	3.75
891.836	22.19
892.007	-35.16
892.178	22.19
892.349	3.75
892.52	-14.68
892.691	24.23
892.862	44.71
893.032	-2.39
893.203	42.67
893.374	3.75
893.545	61.1
893.716	16.04
893.887	-26.96
894.057	-8.53
894.228	11.95
894.399	-39.25
894.57	16.04
894.74	26.28
894.911	7.85
895.082	5.8
895.253	-14.68
895.423	22.19
895.594	65.19
895.764	63.15
895.935	-37.2
896.106	-24.92
896.276	81.58
896.447	57
896.617	-37.2
896.788	36.52
896.958	13.99
897.129	-20.82
897.299	65.19
897.47	34.47
897.64	-6.49
897.81	-0.34
897.981	40.62
898.151	34.47
898.322	20.14
898.492	44.71
898.662	9.9
898.832	20.14
899.003	-10.58
899.173	1.71
899.343	-22.87
899.513	-20.82
