Data from USB4F104151__48__11-05-37-269.txt Node

Date: Wed Mar 12 11:05:37 EDT 2025
User: louis
Spectrometer: USB4F10415
Trigger mode: 4
Integration Time (sec): 2.000000E-2
Scans to average: 1
Electric dark correction enabled: true
Nonlinearity correction enabled: false
Boxcar width: 0
XAxis mode: Wavelengths
Number of Pixels in Spectrum: 3648
>>>>>Begin Spectral Data<<<<<
178.204	-0
178.424	-0
178.644	-0
178.864	-104.45
179.084	-47.1
179.304	-14.34
179.524	-67.58
179.744	-43.01
179.964	8.19
180.184	18.43
180.404	2.05
180.624	10.24
180.844	36.86
181.064	-32.77
181.283	55.3
181.503	-6.14
181.723	32.77
181.943	-14.34
182.163	79.87
182.383	-10.24
182.602	34.82
182.822	-16.38
183.042	47.1
183.262	24.58
183.482	71.68
183.701	-8.19
183.921	38.91
184.141	69.63
184.361	26.62
184.58	98.3
184.8	16.38
185.02	24.58
185.239	55.3
185.459	71.68
185.679	79.87
185.898	20.48
186.118	104.45
186.338	-6.14
186.557	34.82
186.777	10.24
186.997	36.86
187.216	43.01
187.436	94.21
187.655	71.68
187.875	-8.19
188.095	32.77
188.314	8.19
188.534	36.86
188.753	51.2
188.973	30.72
189.192	77.82
189.412	-45.06
189.631	32.77
189.851	16.38
190.07	86.01
190.29	-53.25
190.509	12.29
190.729	32.77
190.948	-6.14
191.168	53.25
191.387	20.48
191.607	20.48
191.826	16.38
192.045	24.58
192.265	49.15
192.484	67.58
192.704	-22.53
192.923	-49.15
193.142	-2.05
193.362	51.2
193.581	-45.06
193.8	90.11
194.02	-0
194.239	28.67
194.458	-34.82
194.678	22.53
194.897	43.01
195.116	34.82
195.335	-83.97
195.555	26.62
195.774	59.39
195.993	49.15
196.212	22.53
196.432	-38.91
196.651	-34.82
196.87	4.1
197.089	61.44
197.308	75.77
197.528	45.06
197.747	4.1
197.966	47.1
198.185	26.62
198.404	-47.1
198.623	4.1
198.842	16.38
199.062	24.58
199.281	-2.05
199.5	-10.24
199.719	81.92
199.938	-0
200.157	71.68
200.376	22.53
200.595	55.3
200.814	-20.48
201.033	71.68
201.252	16.38
201.471	16.38
201.69	53.25
201.909	47.1
202.128	102.4
202.347	-20.48
202.566	63.49
202.785	2.05
203.004	12.29
203.223	55.3
203.442	131.07
203.661	-26.62
203.879	20.48
204.098	-8.19
204.317	-4.1
204.536	96.25
204.755	-83.97
204.974	83.97
205.193	2.05
205.411	102.4
205.63	30.72
205.849	36.86
206.068	79.87
206.287	22.53
206.505	30.72
206.724	55.3
206.943	18.43
207.162	83.97
207.381	16.38
207.599	32.77
207.818	14.34
208.037	65.53
208.255	-16.38
208.474	71.68
208.693	18.43
208.911	-28.67
209.13	-24.58
209.349	-4.1
209.567	8.19
209.786	36.86
210.005	73.73
210.223	10.24
210.442	-63.49
210.661	45.06
210.879	-61.44
211.098	71.68
211.316	12.29
211.535	-36.86
211.753	14.34
211.972	131.07
212.191	-30.72
212.409	28.67
212.628	24.58
212.846	47.1
213.065	14.34
213.283	55.3
213.502	-18.43
213.72	36.86
213.938	30.72
214.157	-73.73
214.375	45.06
214.594	55.3
214.812	4.1
215.031	12.29
215.249	-16.38
215.467	-45.06
215.686	57.34
215.904	38.91
216.122	-20.48
216.341	94.21
216.559	-22.53
216.778	67.58
216.996	-0
217.214	-0
217.432	-32.77
217.651	-45.06
217.869	65.53
218.087	8.19
218.306	-34.82
218.524	73.73
218.742	-67.58
218.96	83.97
219.179	-45.06
219.397	20.48
219.615	14.34
219.833	51.2
220.051	4.1
220.27	79.87
220.488	12.29
220.706	67.58
220.924	83.97
221.142	-30.72
221.36	-20.48
221.578	16.38
221.796	8.19
222.015	4.1
222.233	12.29
222.451	83.97
222.669	14.34
222.887	83.97
223.105	92.16
223.323	-47.1
223.541	-55.3
223.759	112.64
223.977	12.29
224.195	63.49
224.413	88.06
224.631	10.24
224.849	-12.29
225.067	100.35
225.285	38.91
225.503	-18.43
225.721	-14.34
225.939	63.49
226.157	22.53
226.375	98.3
226.592	-32.77
226.81	24.58
227.028	-12.29
227.246	-65.54
227.464	4.1
227.682	40.96
227.9	24.58
228.117	-16.38
228.335	34.82
228.553	14.34
228.771	12.29
228.989	-32.77
229.206	-32.77
229.424	22.53
229.642	34.82
229.86	6.14
230.077	69.63
230.295	43.01
230.513	69.63
230.731	96.25
230.948	-8.19
231.166	26.62
231.384	53.25
231.601	-2.05
231.819	-36.86
232.037	61.44
232.254	45.06
232.472	-18.43
232.689	40.96
232.907	57.34
233.125	14.34
233.342	8.19
233.56	2.05
233.777	-2.05
233.995	28.67
234.213	69.63
234.43	69.63
234.648	40.96
234.865	-12.29
235.083	-40.96
235.3	-16.38
235.518	40.96
235.735	34.82
235.953	96.25
236.17	88.06
236.388	-18.43
236.605	22.53
236.822	-26.62
237.04	22.53
237.257	59.39
237.475	28.67
237.692	49.15
237.909	-4.1
238.127	51.2
238.344	75.77
238.562	73.73
238.779	-10.24
238.996	22.53
239.214	6.14
239.431	81.92
239.648	26.62
239.865	77.82
240.083	14.34
240.3	65.53
240.517	-8.19
240.735	81.92
240.952	81.92
241.169	55.3
241.386	2.05
241.603	59.39
241.821	49.15
242.038	24.58
242.255	65.53
242.472	-0
242.689	55.3
242.907	43.01
243.124	53.25
243.341	-10.24
243.558	18.43
243.775	26.62
243.992	24.58
244.209	-69.63
244.426	-16.38
244.643	75.77
244.86	26.62
245.078	57.34
245.295	-36.86
245.512	-34.82
245.729	10.24
245.946	12.29
246.163	-4.1
246.38	14.34
246.597	24.58
246.814	-10.24
247.031	-4.1
247.248	-32.77
247.464	36.86
247.681	30.72
247.898	73.73
248.115	51.2
248.332	-4.1
248.549	4.1
248.766	10.24
248.983	18.43
249.2	28.67
249.417	30.72
249.633	28.67
249.85	18.43
250.067	-6.14
250.284	55.3
250.501	-2.05
250.717	92.16
250.934	57.34
251.151	2.05
251.368	86.01
251.585	61.44
251.801	67.58
252.018	-12.29
252.235	32.77
252.451	34.82
252.668	30.72
252.885	2.05
253.102	-10.24
253.318	38.91
253.535	10.24
253.752	-12.29
253.968	-22.53
254.185	57.34
254.401	-14.34
254.618	20.48
254.835	8.19
255.051	77.82
255.268	69.63
255.484	104.45
255.701	51.2
255.917	45.06
256.134	-2.05
256.351	94.21
256.567	45.06
256.784	-24.58
257	71.68
257.217	73.73
257.433	-8.19
257.65	43.01
257.866	-26.62
258.082	16.38
258.299	-24.58
258.515	81.92
258.732	34.82
258.948	16.38
259.165	6.14
259.381	8.19
259.597	22.53
259.814	12.29
260.03	16.38
260.246	18.43
260.463	-6.14
260.679	-6.14
260.895	2.05
261.112	18.43
261.328	45.06
261.544	36.86
261.761	45.06
261.977	40.96
262.193	-28.67
262.409	-30.72
262.626	36.86
262.842	28.67
263.058	43.01
263.274	81.92
263.49	57.34
263.707	6.14
263.923	65.53
264.139	-34.82
264.355	57.34
264.571	83.97
264.787	30.72
265.004	16.38
265.22	32.77
265.436	18.43
265.652	79.87
265.868	65.53
266.084	12.29
266.3	61.44
266.516	-69.63
266.732	-8.19
266.948	-6.14
267.164	102.4
267.38	61.44
267.596	4.1
267.812	106.49
268.028	75.77
268.244	14.34
268.46	24.58
268.676	-20.48
268.892	30.72
269.108	-0
269.324	4.1
269.54	22.53
269.756	-16.38
269.972	-2.05
270.188	26.62
270.403	16.38
270.619	36.86
270.835	49.15
271.051	8.19
271.267	88.06
271.483	86.01
271.698	6.14
271.914	-10.24
272.13	86.01
272.346	-8.19
272.562	-45.06
272.777	16.38
272.993	-8.19
273.209	43.01
273.425	38.91
273.64	-22.53
273.856	94.21
274.072	45.06
274.287	4.1
274.503	18.43
274.719	34.82
274.934	26.62
275.15	-38.91
275.366	-45.06
275.581	-6.14
275.797	40.96
276.012	10.24
276.228	92.16
276.444	-0
276.659	49.15
276.875	32.77
277.09	65.53
277.306	65.53
277.521	-0
277.737	-0
277.952	-0
278.168	10.24
278.383	-26.62
278.599	55.3
278.814	-16.38
279.03	38.91
279.245	75.77
279.461	75.77
279.676	49.15
279.892	-8.19
280.107	28.67
280.322	-26.62
280.538	-4.1
280.753	16.38
280.969	34.82
281.184	24.58
281.399	8.19
281.615	83.97
281.83	28.67
282.045	-16.38
282.26	4.1
282.476	32.77
282.691	81.92
282.906	22.53
283.122	49.15
283.337	75.77
283.552	8.19
283.767	8.19
283.983	34.82
284.198	14.34
284.413	24.58
284.628	-34.82
284.843	43.01
285.058	36.86
285.274	47.1
285.489	28.67
285.704	2.05
285.919	-36.86
286.134	-34.82
286.349	12.29
286.564	59.39
286.779	-12.29
286.995	28.67
287.21	6.14
287.425	53.25
287.64	-2.05
287.855	-26.62
288.07	-49.15
288.285	22.53
288.5	57.34
288.715	83.97
288.93	59.39
289.145	22.53
289.36	24.58
289.575	14.34
289.79	-16.38
290.004	43.01
290.219	45.06
290.434	24.58
290.649	-4.1
290.864	32.77
291.079	12.29
291.294	18.43
291.509	-16.38
291.724	-49.15
291.938	14.34
292.153	55.3
292.368	-4.1
292.583	10.24
292.798	75.77
293.012	36.86
293.227	38.91
293.442	-47.1
293.657	49.15
293.871	24.58
294.086	-4.1
294.301	55.3
294.516	61.44
294.73	30.72
294.945	20.48
295.16	-12.29
295.374	79.87
295.589	14.34
295.804	8.19
296.018	14.34
296.233	71.68
296.447	40.96
296.662	26.62
296.877	-12.29
297.091	20.48
297.306	32.77
297.52	-2.05
297.735	-2.05
297.949	-18.43
298.164	55.3
298.378	69.63
298.593	4.1
298.807	77.82
299.022	81.92
299.236	86.01
299.451	-18.43
299.665	-18.43
299.88	10.24
300.094	102.4
300.309	-16.38
300.523	32.77
300.737	28.67
300.952	-24.58
301.166	32.77
301.381	36.86
301.595	14.34
301.809	16.38
302.024	-18.43
302.238	18.43
302.452	14.34
302.667	6.14
302.881	57.34
303.095	69.63
303.309	20.48
303.524	-0
303.738	-10.24
303.952	26.62
304.166	16.38
304.381	-22.53
304.595	53.25
304.809	-6.14
305.023	59.39
305.237	36.86
305.452	8.19
305.666	73.73
305.88	10.24
306.094	20.48
306.308	81.92
306.522	61.44
306.736	43.01
306.95	-6.14
307.164	59.39
307.379	32.77
307.593	77.82
307.807	51.2
308.021	59.39
308.235	-36.86
308.449	8.19
308.663	24.58
308.877	163.84
309.091	12.29
309.305	69.63
309.519	-4.1
309.733	75.77
309.947	10.24
310.161	65.53
310.374	30.72
310.588	14.34
310.802	14.34
311.016	-45.06
311.23	118.78
311.444	-8.19
311.658	65.53
311.872	38.91
312.085	36.86
312.299	77.82
312.513	36.86
312.727	10.24
312.941	-4.1
313.154	30.72
313.368	32.77
313.582	55.3
313.796	57.34
314.009	65.53
314.223	53.25
314.437	26.62
314.651	108.54
314.864	-16.38
315.078	-28.67
315.292	86.01
315.505	77.82
315.719	45.06
315.933	8.19
316.146	-32.77
316.36	65.53
316.573	36.86
316.787	14.34
317.001	18.43
317.214	-28.67
317.428	67.58
317.641	-88.06
317.855	26.62
318.068	30.72
318.282	8.19
318.495	83.97
318.709	-16.38
318.922	38.91
319.136	165.89
319.349	20.48
319.563	92.16
319.776	67.58
319.99	-22.53
320.203	-30.72
320.417	-18.43
320.63	-16.38
320.843	26.62
321.057	-18.43
321.27	-4.1
321.483	45.06
321.697	57.34
321.91	26.62
322.124	-16.38
322.337	-36.86
322.55	22.53
322.763	71.68
322.977	57.34
323.19	36.86
323.403	-12.29
323.617	83.97
323.83	86.01
324.043	-28.67
324.256	-2.05
324.469	-14.34
324.683	122.88
324.896	73.73
325.109	12.29
325.322	24.58
325.535	-0
325.748	-20.48
325.962	67.58
326.175	26.62
326.388	49.15
326.601	32.77
326.814	-32.77
327.027	-32.77
327.24	114.69
327.453	-36.86
327.666	22.53
327.879	24.58
328.092	43.01
328.305	10.24
328.518	-79.87
328.731	-40.96
328.944	90.11
329.157	6.14
329.37	6.14
329.583	55.3
329.796	12.29
330.009	-10.24
330.222	83.97
330.435	32.77
330.648	51.2
330.861	88.06
331.073	53.25
331.286	16.38
331.499	71.68
331.712	-22.53
331.925	67.58
332.138	20.48
332.35	65.53
332.563	65.53
332.776	71.68
332.989	10.24
333.202	65.53
333.414	2.05
333.627	-6.14
333.84	49.15
334.053	-8.19
334.265	-36.86
334.478	-12.29
334.691	6.14
334.903	40.96
335.116	-4.1
335.329	-34.82
335.541	26.62
335.754	57.34
335.966	43.01
336.179	104.45
336.392	34.82
336.604	94.21
336.817	-14.34
337.029	18.43
337.242	77.82
337.454	71.68
337.667	28.67
337.88	36.86
338.092	8.19
338.305	28.67
338.517	59.39
338.729	32.77
338.942	86.01
339.154	40.96
339.367	-26.62
339.579	55.3
339.792	77.82
340.004	51.2
340.217	32.77
340.429	4.1
340.641	-0
340.854	-8.19
341.066	4.1
341.278	34.82
341.491	90.11
341.703	51.2
341.915	61.44
342.128	4.1
342.34	32.77
342.552	16.38
342.764	40.96
342.977	8.19
343.189	110.59
343.401	108.54
343.613	-18.43
343.826	79.87
344.038	4.1
344.25	120.83
344.462	-40.96
344.674	20.48
344.886	67.58
345.099	55.3
345.311	14.34
345.523	4.1
345.735	-26.62
345.947	-2.05
346.159	102.4
346.371	10.24
346.583	65.53
346.795	90.11
347.007	65.53
347.219	67.58
347.431	43.01
347.643	8.19
347.855	100.35
348.067	14.34
348.279	2.05
348.491	6.14
348.703	57.34
348.915	12.29
349.127	12.29
349.339	-12.29
349.551	-38.91
349.763	79.87
349.975	28.67
350.187	47.1
350.399	43.01
350.61	69.63
350.822	22.53
351.034	71.68
351.246	34.82
351.458	38.91
351.669	73.73
351.881	-4.1
352.093	77.82
352.305	26.62
352.517	8.19
352.728	104.45
352.94	14.34
353.152	-2.05
353.363	57.34
353.575	94.21
353.787	59.39
353.999	36.86
354.21	-2.05
354.422	32.77
354.633	18.43
354.845	-30.72
355.057	-24.58
355.268	92.16
355.48	26.62
355.692	86.01
355.903	10.24
356.115	-28.67
356.326	73.73
356.538	40.96
356.749	36.86
356.961	73.73
357.172	30.72
357.384	65.53
357.595	40.96
357.807	49.15
358.018	51.2
358.23	12.29
358.441	47.1
358.653	24.58
358.864	24.58
359.075	30.72
359.287	45.06
359.498	40.96
359.709	32.77
359.921	92.16
360.132	26.62
360.344	69.63
360.555	12.29
360.766	12.29
360.977	12.29
361.189	79.87
361.4	-57.34
361.611	32.77
361.823	20.48
362.034	28.67
362.245	77.82
362.456	102.4
362.667	34.82
362.879	-0
363.09	75.77
363.301	16.38
363.512	-36.86
363.723	55.3
363.935	45.06
364.146	38.91
364.357	12.29
364.568	98.3
364.779	106.49
364.99	40.96
365.201	47.1
365.412	51.2
365.623	-8.19
365.834	24.58
366.045	88.06
366.256	36.86
366.467	2.05
366.678	20.48
366.889	20.48
367.1	49.15
367.311	53.25
367.522	55.3
367.733	51.2
367.944	6.14
368.155	28.67
368.366	38.91
368.577	36.86
368.788	-8.19
368.999	65.53
369.209	26.62
369.42	102.4
369.631	38.91
369.842	32.77
370.053	126.97
370.264	36.86
370.474	43.01
370.685	26.62
370.896	51.2
371.107	49.15
371.317	69.63
371.528	-30.72
371.739	24.58
371.95	90.11
372.16	69.63
372.371	43.01
372.582	40.96
372.792	16.38
373.003	-4.1
373.214	10.24
373.424	61.44
373.635	38.91
373.846	-8.19
374.056	100.35
374.267	116.73
374.477	49.15
374.688	20.48
374.898	59.39
375.109	20.48
375.319	34.82
375.53	10.24
375.74	63.49
375.951	36.86
376.161	-47.1
376.372	47.1
376.582	-0
376.793	28.67
377.003	-26.62
377.214	98.3
377.424	61.44
377.635	-0
377.845	57.34
378.055	147.45
378.266	57.34
378.476	14.34
378.686	22.53
378.897	49.15
379.107	24.58
379.317	34.82
379.528	-16.38
379.738	49.15
379.948	-26.62
380.158	71.68
380.369	86.01
380.579	34.82
380.789	40.96
380.999	112.64
381.21	112.64
381.42	94.21
381.63	12.29
381.84	32.77
382.05	2.05
382.261	45.06
382.471	71.68
382.681	-10.24
382.891	63.49
383.101	112.64
383.311	-22.53
383.521	-24.58
383.731	63.49
383.941	-12.29
384.151	81.92
384.361	16.38
384.571	51.2
384.781	36.86
384.991	94.21
385.201	51.2
385.411	59.39
385.621	-0
385.831	-67.58
386.041	43.01
386.251	-36.86
386.461	26.62
386.671	65.53
386.881	47.1
387.091	94.21
387.301	32.77
387.511	94.21
387.72	47.1
387.93	83.97
388.14	24.58
388.35	45.06
388.56	61.44
388.769	79.87
388.979	65.53
389.189	-4.1
389.399	83.97
389.609	36.86
389.818	96.25
390.028	47.1
390.238	10.24
390.447	2.05
390.657	61.44
390.867	28.67
391.076	18.43
391.286	104.45
391.496	61.44
391.705	28.67
391.915	71.68
392.125	51.2
392.334	98.3
392.544	75.77
392.753	59.39
392.963	53.25
393.172	135.17
393.382	8.19
393.591	28.67
393.801	63.49
394.01	126.97
394.22	65.53
394.429	36.86
394.639	10.24
394.848	57.34
395.058	-8.19
395.267	73.73
395.477	4.1
395.686	65.53
395.895	112.64
396.105	133.12
396.314	104.45
396.524	40.96
396.733	12.29
396.942	2.05
397.152	129.02
397.361	108.54
397.57	34.82
397.78	83.97
397.989	69.63
398.198	22.53
398.407	57.34
398.617	88.06
398.826	-20.48
399.035	108.54
399.244	57.34
399.453	143.36
399.663	49.15
399.872	63.49
400.081	88.06
400.29	69.63
400.499	40.96
400.708	202.75
400.917	98.3
401.127	47.1
401.336	67.58
401.545	92.16
401.754	122.88
401.963	86.01
402.172	147.45
402.381	94.21
402.59	102.4
402.799	188.41
403.008	100.35
403.217	65.53
403.426	98.3
403.635	26.62
403.844	124.93
404.053	149.5
404.262	81.92
404.471	135.17
404.68	131.07
404.888	98.3
405.097	88.06
405.306	114.69
405.515	108.54
405.724	124.93
405.933	135.17
406.142	120.83
406.35	196.6
406.559	100.35
406.768	98.3
406.977	180.22
407.185	192.51
407.394	126.97
407.603	163.84
407.812	145.41
408.02	178.17
408.229	143.36
408.438	180.22
408.646	174.08
408.855	118.78
409.064	206.84
409.272	235.52
409.481	280.57
409.69	247.8
409.898	221.18
410.107	258.04
410.315	247.8
410.524	294.91
410.733	278.52
410.941	264.19
411.15	274.43
411.358	286.72
411.567	362.49
411.775	331.77
411.984	251.9
412.192	407.55
412.401	315.39
412.609	350.2
412.818	301.05
413.026	483.32
413.234	391.16
413.443	432.12
413.651	452.6
413.86	403.45
414.068	511.99
414.276	477.18
414.485	450.55
414.693	561.14
414.901	561.14
415.11	628.73
415.318	552.95
415.526	632.82
415.734	667.64
415.943	595.96
416.151	620.53
416.359	665.59
416.567	712.69
416.776	645.11
416.984	772.08
417.192	811
417.4	802.8
417.608	675.83
417.817	774.13
418.025	876.53
418.233	942.07
418.441	798.71
418.649	1007.6
418.857	882.67
419.065	1011.7
419.273	1028.08
419.481	995.31
419.689	1114.09
419.897	1239.02
420.105	1140.72
420.313	1277.93
420.521	1255.4
420.729	1273.84
420.937	1228.78
421.145	1378.28
421.353	1415.15
421.561	1583.08
421.769	1452.01
421.977	1531.88
422.185	1591.27
422.393	1632.23
422.601	1771.49
422.809	1671.14
423.017	1697.77
423.224	1843.17
423.432	1933.28
423.64	1937.38
423.848	2176.99
424.056	2117.6
424.263	2238.43
424.471	2248.67
424.679	2306.01
424.887	2416.6
425.094	2557.91
425.302	2504.67
425.51	2553.82
425.718	2656.22
425.925	2625.5
426.133	2731.99
426.341	2932.69
426.548	3071.95
426.756	3035.09
426.964	3133.39
427.171	3342.28
427.379	3463.12
427.586	3356.62
427.794	3483.59
428.001	3710.92
428.209	3885
428.417	3755.97
428.624	3954.63
428.832	4046.79
429.039	4007.87
429.247	3989.44
429.454	4399.04
429.662	4734.9
429.869	4409.28
430.076	4804.53
430.284	4603.83
430.491	4751.29
430.699	4958.13
430.906	4995
431.114	5013.43
431.321	5302.19
431.528	5332.91
431.736	5846.95
431.943	6066.08
432.15	5742.5
432.358	6045.6
432.565	6170.53
432.772	6375.33
432.979	6655.9
433.187	6629.27
433.394	6539.16
433.601	7016.34
433.808	7186.32
434.016	7118.74
434.223	7589.77
434.43	7950.21
434.637	7622.54
434.844	8200.07
435.052	8277.89
435.259	8296.32
435.466	8533.89
435.673	8382.34
435.88	8976.25
436.087	9408.37
436.294	9271.15
436.501	9219.96
436.708	9324.4
436.915	9590.64
437.122	10104.68
437.329	9957.22
437.537	10272.61
437.743	10518.37
437.95	10475.36
438.157	10968.92
438.364	11118.42
438.571	11212.63
438.778	11274.07
438.985	12375.88
439.192	11824.97
439.399	12429.12
439.606	11986.76
439.813	12693.31
440.02	13569.84
440.227	13143.86
440.433	13094.71
440.64	13770.54
440.847	13553.46
441.054	13750.06
441.261	14862.11
441.467	14327.59
441.674	14952.22
441.881	15462.16
442.088	15226.65
442.294	15240.98
442.501	15642.39
442.708	15927.05
442.914	16613.12
443.121	16940.8
443.328	16895.74
443.534	18061.04
443.741	17327.86
443.948	17032.96
444.154	18613.99
444.361	18263.79
444.568	18458.34
444.774	18556.64
444.981	18773.73
445.187	19322.59
445.394	20029.13
445.6	19603.16
445.807	21726.9
446.013	20764.36
446.22	21053.12
446.426	21718.71
446.633	22081.2
446.839	22593.19
447.046	21823.15
447.252	23094.94
447.459	23082.66
447.665	22857.38
447.871	24073.87
448.078	24751.75
448.284	24069.78
448.491	24491.66
448.697	25661.05
448.903	25687.67
449.11	25804.41
449.316	25388.67
449.522	25915
449.728	26488.43
449.935	26660.46
450.141	26689.13
450.347	27471.45
450.553	26517.1
450.76	26877.54
450.966	27418.21
451.172	27143.78
451.378	27541.08
451.584	27158.11
451.791	27674.2
451.997	27745.88
452.203	28075.6
452.409	28073.56
452.615	28036.69
452.821	26945.12
453.027	26334.83
453.233	27936.34
453.44	26793.58
453.646	27221.6
453.852	27328.09
454.058	27670.11
454.264	26723.94
454.47	27219.55
454.676	26685.03
454.882	27506.27
455.088	25114.24
455.294	25712.25
455.5	25906.8
455.705	25882.23
455.911	24690.31
456.117	24604.3
456.323	24163.98
456.529	22933.15
456.735	23649.94
456.941	23025.31
457.147	22664.87
457.352	21991.09
457.558	22007.47
457.764	21968.56
457.97	21513.91
458.176	21030.59
458.381	20963.01
458.587	19828.43
458.793	19861.2
458.999	18636.52
459.204	20014.8
459.41	19517.14
459.616	18271.98
459.821	18224.87
460.027	18130.67
460.233	17796.85
460.438	16830.21
460.644	17108.73
460.85	16283.4
461.055	15951.63
461.261	15787.79
461.466	15175.45
461.672	14497.57
461.878	15382.29
462.083	14442.28
462.289	14118.7
462.494	14067.5
462.7	13358.9
462.905	13049.66
463.111	13348.66
463.316	13528.88
463.522	13219.64
463.727	13375.28
463.932	13123.38
464.138	13428.53
464.343	13031.23
464.549	12691.26
464.754	13158.2
464.959	13262.65
465.165	13023.03
465.37	12322.63
465.575	12269.38
465.781	12535.62
465.986	12685.12
466.191	12091.21
466.397	12019.53
466.602	11392.85
466.807	11761.48
467.012	11814.73
467.218	11654.99
467.423	11517.78
467.628	11775.82
467.833	12144.45
468.038	11724.62
468.244	11577.17
468.449	11743.05
468.654	11401.04
468.859	11349.84
469.064	11495.25
469.269	10897.24
469.474	10770.27
469.679	11069.27
469.885	10977.11
470.09	10987.35
470.295	10846.04
470.5	10721.12
470.705	10579.81
470.91	10309.47
471.115	10420.07
471.32	10790.75
471.525	10483.55
471.73	10323.81
471.935	10039.14
472.139	9713.52
472.344	9875.31
472.549	9959.27
472.754	9641.84
472.959	9357.17
473.164	9166.71
473.369	9238.39
473.574	9420.66
473.778	9400.18
473.983	9191.28
474.188	9158.52
474.393	8873.85
474.598	8947.58
474.802	8669.05
475.007	8736.63
475.212	8656.76
475.417	8519.55
475.621	8470.4
475.826	8578.94
476.031	8187.78
476.235	8066.95
476.44	8400.77
476.645	8198.02
476.849	8099.72
477.054	8077.19
477.259	7804.81
477.463	7935.88
477.668	7751.56
477.872	7899.02
478.077	7702.41
478.282	7337.87
478.486	7489.42
478.691	7391.12
478.895	7374.74
479.1	7337.87
479.304	7372.69
479.509	7063.44
479.713	7229.33
479.918	7145.36
480.122	7055.25
480.326	7251.86
480.531	7122.84
480.735	7147.41
480.94	6922.13
481.144	7278.48
481.348	6797.21
481.553	6973.33
481.757	6746.01
481.961	6877.08
482.166	6969.24
482.37	6746.01
482.574	6799.26
482.778	6815.64
482.983	6983.57
483.187	6979.48
483.391	6870.94
483.595	6879.13
483.8	6875.03
484.004	6811.54
484.208	6922.13
484.412	6791.06
484.616	6913.94
484.821	6750.1
485.025	6696.86
485.229	6983.57
485.433	6743.96
485.637	6877.08
485.841	6598.56
486.045	6858.65
486.249	6961.05
486.453	6807.45
486.657	6834.07
486.861	7012.24
487.065	6760.34
487.269	6729.63
487.473	6627.23
487.677	6832.02
487.881	6778.78
488.085	6864.79
488.289	7016.34
488.493	6913.94
488.697	6832.02
488.901	6961.05
489.105	6758.3
489.309	6844.31
489.512	6817.69
489.716	6883.22
489.92	6954.9
490.124	6799.26
490.328	7135.12
490.531	6926.23
490.735	6959
490.939	6932.37
491.143	7040.92
491.346	7014.29
491.55	7114.64
491.754	7237.52
491.958	7249.81
492.161	7020.44
492.365	7167.89
492.569	7171.99
492.772	7151.51
492.976	7083.92
493.18	7221.14
493.383	7434.13
493.587	7450.51
493.79	7530.38
493.994	7427.98
494.197	7454.61
494.401	7544.72
494.605	7772.04
494.808	7677.83
495.012	7587.72
495.215	7810.95
495.419	7722.89
495.622	7612.3
495.825	7999.37
496.029	8097.67
496.232	8007.56
496.436	8079.24
496.639	8327.04
496.843	8142.72
497.046	8484.73
497.249	8456.06
497.453	8445.82
497.656	8454.01
497.859	8554.37
498.063	8744.83
498.266	8943.48
498.469	8904.57
498.673	9054.07
498.876	9238.39
499.079	9181.04
499.282	8990.58
499.485	9265.01
499.689	9574.25
499.892	9467.76
500.095	9809.77
500.298	9908.07
500.501	9715.56
500.705	10022.76
500.908	10192.74
501.111	10186.6
501.314	10360.67
501.517	10375.01
501.72	10657.63
501.923	10473.31
502.126	10805.08
502.329	11272.02
502.532	11005.78
502.735	10993.5
502.938	11255.64
503.141	11300.69
503.344	11519.82
503.547	11423.57
503.75	11677.52
503.953	12093.26
504.156	12146.5
504.359	12058.44
504.562	12281.67
504.765	12517.18
504.968	12574.53
505.17	12789.56
505.373	12750.65
505.576	13160.25
505.779	13100.86
505.982	13209.4
506.185	13231.93
506.387	13729.58
506.59	13535.03
506.793	13739.82
506.996	13819.69
507.198	14157.61
507.401	13913.9
507.604	14307.11
507.807	14774.05
508.009	14491.43
508.212	14876.44
508.415	14903.07
508.617	15265.56
508.82	15439.64
509.022	15578.9
509.225	15865.61
509.428	15945.48
509.63	16041.74
509.833	15888.14
510.035	16602.88
510.238	16140.04
510.44	16494.34
510.643	16787.2
510.845	17096.44
511.048	16973.56
511.25	17276.66
511.453	17264.38
511.655	17874.67
511.858	17415.93
512.06	17768.18
512.262	18202.35
512.465	18319.08
512.667	18530.02
512.87	18349.8
513.072	18595.56
513.274	19066.59
513.477	19283.67
513.679	19236.57
513.881	19488.47
514.084	19789.52
514.286	19574.49
514.488	19906.26
514.69	20491.98
514.893	20621
515.095	20610.76
515.297	20629.19
515.499	20926.14
515.701	21679.8
515.904	21540.54
516.106	21937.84
516.308	22066.86
516.51	22410.92
516.712	22210.22
516.914	22412.97
517.116	22863.52
517.318	22746.79
517.52	23455.39
517.722	23252.64
517.925	23361.18
518.127	23819.92
518.329	23991.95
518.531	24274.57
518.733	24065.68
518.935	24307.34
519.136	24811.14
519.338	25130.62
519.54	25392.76
519.742	25515.64
519.944	25482.88
520.146	26166.9
520.348	26347.12
520.55	26285.68
520.752	26263.15
520.954	26758.76
521.155	26748.52
521.357	26934.88
521.559	27166.31
521.761	28003.92
521.963	27633.24
522.164	28202.58
522.366	28313.17
522.568	28321.36
522.77	28712.52
522.971	29279.81
523.173	28915.27
523.375	29228.61
523.576	29228.61
523.778	29566.52
523.98	29789.75
524.181	29507.13
524.383	29914.68
524.584	30291.51
524.786	30615.08
524.988	30219.83
525.189	30813.74
525.391	31143.46
525.592	31172.13
525.794	31424.03
525.995	31389.22
526.197	31606.3
526.398	31723.04
526.6	32003.61
526.801	31682.08
527.003	32175.64
527.204	31997.46
527.406	32488.98
527.607	32454.16
527.808	32609.81
528.01	32495.12
528.211	32521.74
528.412	33314.31
528.614	33144.33
528.815	33279.49
529.016	33207.81
529.218	33203.72
529.419	33428.99
529.62	33340.93
529.822	33523.2
530.023	33504.77
530.224	34045.43
530.425	33701.37
530.626	33629.69
530.828	33797.63
531.029	34475.51
531.23	33988.09
531.431	33781.24
531.632	34219.51
531.833	34438.64
532.035	34143.74
532.236	34678.25
532.437	34319.86
532.638	34397.68
532.839	34682.35
533.04	34512.37
533.241	34416.11
533.442	35214.82
533.643	34586.1
533.844	34725.36
534.045	34991.59
534.246	34764.27
534.447	34774.51
534.648	34915.82
534.849	34749.93
535.05	34696.69
535.251	34831.85
535.451	34993.64
535.652	35218.92
535.853	34905.58
536.054	34751.98
536.255	35032.55
536.456	34543.09
536.657	35372.52
536.857	34954.73
537.058	34715.12
537.259	35223.01
537.46	35220.97
537.66	34975.21
537.861	35042.79
538.062	35012.07
538.263	35110.38
538.463	34913.77
538.664	35257.83
538.865	35120.62
539.065	35292.65
539.266	34766.32
539.466	35503.59
539.667	34721.26
539.868	35091.94
540.068	35149.29
540.269	35141.1
540.469	35194.34
540.67	34956.78
540.87	34584.05
541.071	35167.72
541.271	35397.09
541.472	35405.28
541.672	34704.88
541.873	34838
542.073	34504.18
542.274	34938.35
542.474	34899.44
542.675	34809.32
542.875	34993.64
543.075	35182.06
543.276	34477.55
543.476	35186.15
543.676	34708.97
543.877	35247.59
544.077	34788.85
544.277	34854.38
544.478	34719.21
544.678	35057.13
544.878	34784.75
545.078	34768.37
545.279	34954.73
545.479	34772.46
545.679	35134.95
545.879	34876.91
546.079	35030.51
546.28	34903.53
546.48	34760.17
546.68	34743.79
546.88	35026.41
547.08	34829.8
547.28	34760.17
547.48	34485.75
547.68	34782.7
547.88	34727.41
548.081	35067.37
548.281	34784.75
548.481	34606.58
548.681	35141.1
548.881	34674.16
549.081	34481.65
549.28	34622.96
549.48	35005.93
549.68	34670.06
549.88	34946.54
550.08	34053.62
550.28	34969.07
550.48	34559.47
550.68	35059.18
550.88	34657.78
551.08	34526.71
551.279	34790.89
551.479	34309.62
551.679	34577.9
551.879	34326
552.079	34360.82
552.278	34225.65
552.478	34518.51
552.678	34602.48
552.878	34754.03
553.077	34356.72
553.277	33986.04
553.477	34840.04
553.676	34385.4
553.876	34303.48
554.076	34633.2
554.275	34096.63
554.475	34031.1
554.674	34231.8
554.874	34178.55
555.074	33945.08
555.273	34190.84
555.473	34254.33
555.672	33652.22
555.872	34158.07
556.071	33871.36
556.271	33916.41
556.47	33568.26
556.67	33705.47
556.869	33869.31
557.068	33869.31
557.268	33545.73
557.467	33533.44
557.667	33785.34
557.866	33715.71
558.065	33547.78
558.265	33244.68
558.464	33355.27
558.663	33707.52
558.863	32990.73
559.062	33781.24
559.261	32865.8
559.461	33551.87
559.66	32378.39
559.859	33160.71
560.058	32847.37
560.258	33248.77
560.457	32654.86
560.656	33195.53
560.855	32683.53
561.054	32794.12
561.253	32521.74
561.453	32595.47
561.652	32570.89
561.851	32353.81
562.05	32325.14
562.249	32163.35
562.448	32683.53
562.647	32454.16
562.846	32454.16
563.045	32187.92
563.244	31596.06
563.443	32286.23
563.642	31659.55
563.841	31942.17
564.04	31487.52
564.239	31938.07
564.438	31288.87
564.637	31702.56
564.836	31411.74
565.035	31196.71
565.234	31397.41
565.432	31174.18
565.631	31344.16
565.83	30989.86
566.029	30711.34
566.228	30924.33
566.427	30903.85
566.625	30740.01
566.824	30275.12
567.023	30858.79
567.222	30092.85
567.42	30778.92
567.619	30330.42
567.818	30434.86
568.016	30152.24
568.215	30035.51
568.414	30258.74
568.612	30006.84
568.811	29943.35
569.01	29974.07
569.208	29515.33
569.407	29869.62
569.605	29337.15
569.804	29666.88
570.002	29460.03
570.201	29431.36
570.4	29111.88
570.598	29005.38
570.797	29013.57
570.995	28925.51
571.193	28696.14
571.392	28874.31
571.59	28546.64
571.789	28628.56
571.987	28790.34
572.186	28311.12
572.384	28360.27
572.582	28497.49
572.781	28341.84
572.979	28010.07
573.177	28059.22
573.376	28110.42
573.574	27803.22
573.772	27940.44
573.971	27864.66
574.169	27459.17
574.367	27240.03
574.565	27457.12
574.763	27319.9
574.962	27434.59
575.16	26822.25
575.358	27141.73
575.556	26891.88
575.754	27086.43
575.952	26357.36
576.151	27432.54
576.349	26852.97
576.547	26535.53
576.745	26633.83
576.943	26730.09
577.141	26652.27
577.339	26627.69
577.537	26187.38
577.735	26011.25
577.933	25828.98
578.131	26191.47
578.329	25611.9
578.527	25646.71
578.725	25403
578.923	25761.4
579.121	25542.27
579.319	25392.76
579.516	25409.15
579.714	25556.6
579.912	25237.12
580.11	25259.65
580.308	25005.7
580.506	25067.14
580.704	24991.36
580.901	25085.57
581.099	25058.95
581.297	24680.07
581.495	25026.18
581.692	24706.69
581.89	24311.44
582.088	24897.16
582.285	24219.28
582.483	24553.1
582.681	24487.56
582.878	24227.47
583.076	23889.56
583.274	24260.24
583.471	23838.36
583.669	24096.4
583.866	23824.02
584.064	23768.73
584.262	23613.08
584.459	23852.69
584.657	23338.65
584.854	23778.97
585.052	23189.15
585.249	23289.5
585.447	23176.86
585.644	23010.98
585.841	23223.97
586.039	23369.37
586.236	22853.28
586.434	23053.98
586.631	22757.03
586.828	22597.29
587.026	23086.75
587.223	22722.21
587.42	22697.64
587.618	22480.55
587.815	22175.41
588.012	22281.9
588.21	22140.59
588.407	22484.65
588.604	22238.89
588.801	22173.36
588.999	21943.99
589.196	21962.42
589.393	22326.96
589.59	21886.64
589.787	21999.28
589.984	21886.64
590.182	21614.26
590.379	21413.56
590.576	21243.58
590.773	21558.97
590.97	21257.92
591.167	21507.77
591.364	21208.76
591.561	21427.9
591.758	21124.8
591.955	21245.63
592.152	21120.7
592.349	20858.56
592.546	21069.5
592.743	21204.67
592.94	20487.88
593.137	20860.61
593.334	20596.42
593.531	20278.99
593.727	20659.91
593.924	20481.74
594.121	20299.47
594.318	20385.48
594.515	20137.68
594.712	20473.54
594.908	20201.16
595.105	20297.42
595.302	19844.82
595.499	20113.1
595.696	20074.19
595.892	19668.69
596.089	20063.95
596.286	19820.24
596.482	19762.9
596.679	19369.69
596.876	19812.05
597.072	19697.36
597.269	19429.08
597.466	19226.33
597.662	18999.01
597.859	19261.15
598.055	19199.71
598.252	18898.66
598.448	19312.35
598.645	18984.67
598.841	19009.25
599.038	19099.36
599.234	18962.14
599.431	18689.76
599.627	18603.75
599.824	18849.5
600.02	18409.19
600.217	18669.28
600.413	18579.17
600.609	18243.31
600.806	18153.19
601.002	18382.57
601.198	18269.93
601.395	18194.15
601.591	18136.81
601.787	18536.17
601.984	18069.23
602.18	18233.07
602.376	17737.46
602.572	17805.04
602.769	17807.09
602.965	17571.57
603.161	17587.96
603.357	17565.43
603.553	17585.91
603.75	17696.5
603.946	17487.61
604.142	17551.09
604.338	17110.78
604.534	17387.25
604.73	17239.8
604.926	17108.73
605.122	17250.04
605.318	17086.2
605.514	17039.1
605.71	16930.56
605.906	17059.58
606.102	16787.2
606.298	16514.82
606.494	16981.76
606.69	16783.1
606.886	16768.77
607.082	16580.35
607.278	16647.94
607.474	16453.38
607.67	16459.52
607.866	16021.26
608.062	16549.64
608.257	16463.62
608.453	16316.17
608.649	16334.6
608.845	16183.05
609.041	16049.93
609.236	16254.73
609.432	16070.41
609.628	16021.26
609.824	16076.55
610.019	15789.84
610.215	16000.78
610.411	16037.64
610.606	15691.54
610.802	15724.3
610.998	15767.31
611.193	16051.98
611.389	15730.45
611.584	15535.89
611.78	15677.2
611.976	15773.46
612.171	15841.04
612.367	15744.78
612.562	15576.85
612.758	15435.54
612.953	15339.29
613.149	15316.76
613.344	15595.28
613.539	15531.79
613.735	15216.41
613.93	15060.76
614.126	15529.75
614.321	15394.58
614.517	15308.57
614.712	15308.57
614.907	15159.06
615.103	15044.38
615.298	15292.18
615.493	15167.26
615.688	14905.12
615.884	15146.78
616.079	14712.61
616.274	15118.11
616.47	14991.13
616.665	15023.9
616.86	14747.42
617.055	14845.73
617.25	14540.58
617.445	14651.17
617.641	14464.8
617.836	14593.83
618.031	14454.56
618.226	14569.25
618.421	14376.74
618.616	14720.8
618.811	14362.4
619.006	14546.72
619.201	14077.74
619.396	14223.14
619.591	13981.48
619.786	14194.47
619.981	14065.45
620.176	14061.35
620.371	13795.12
620.566	13795.12
620.761	13688.62
620.956	13856.56
621.151	13526.83
621.346	13612.85
621.541	13567.79
621.735	13594.42
621.93	13299.51
622.125	13432.63
622.32	13156.15
622.515	13358.9
622.709	13147.96
622.904	13051.7
623.099	12990.27
623.294	13104.95
623.488	12730.17
623.683	12846.91
623.878	12744.51
624.072	12635.97
624.267	12580.67
624.462	12623.68
624.656	12476.23
624.851	12425.03
625.046	12457.79
625.24	12347.2
625.435	12283.72
625.629	12273.48
625.824	11804.49
626.018	12091.21
626.213	11607.89
626.407	11910.99
626.602	11566.93
626.796	11784.01
626.991	11820.88
627.185	11710.29
627.38	11603.79
627.574	11757.39
627.768	11411.28
627.963	11464.53
628.157	11224.92
628.352	11360.08
628.546	11081.56
628.74	11282.26
628.935	11153.24
629.129	11050.84
629.323	10858.33
629.517	10907.48
629.712	10989.4
629.906	10979.16
630.1	10594.14
630.294	10768.22
630.489	10407.78
630.683	10788.7
630.877	10346.34
631.071	10446.69
631.265	10338.15
631.459	10256.23
631.653	10076.01
631.848	10313.57
632.042	10014.57
632.236	10284.9
632.43	10043.24
632.624	10110.82
632.818	10047.33
633.012	9983.85
633.206	9914.22
633.4	9770.86
633.594	9711.47
633.788	9633.65
633.982	9809.77
634.176	9834.35
634.369	9447.28
634.563	9326.45
634.757	9486.19
634.951	9725.8
635.145	9359.22
635.339	9500.53
635.533	9381.74
635.726	9312.11
635.92	9146.23
636.114	9107.32
636.308	9062.26
636.501	9029.49
636.695	9033.59
636.889	8884.09
637.083	8882.04
637.276	8908.66
637.47	8902.52
637.664	8757.11
637.857	8734.59
638.051	8736.63
638.244	8785.79
638.438	8578.94
638.632	8542.08
638.825	8564.61
639.019	8636.28
639.212	8089.48
639.406	8476.54
639.599	8445.82
639.793	8126.34
639.986	8114.05
640.18	8351.62
640.373	8054.66
640.567	8060.8
640.76	8038.28
640.954	8009.61
641.147	7964.55
641.34	8101.76
641.534	7815.05
641.727	7681.93
641.92	7823.24
642.114	7683.98
642.307	7595.92
642.5	7565.2
642.694	7522.19
642.887	7776.14
643.08	7499.66
643.273	7663.5
643.467	7540.62
643.66	7282.58
643.853	7278.48
644.046	7430.03
644.239	7272.34
644.432	7262.1
644.626	7210.9
644.819	7198.61
645.012	7092.12
645.205	7239.57
645.398	6893.46
645.591	6901.65
645.784	7059.35
645.977	6811.54
646.17	6799.26
646.363	6852.5
646.556	6733.72
646.749	6686.62
646.942	6868.89
647.135	6713.24
647.328	6557.6
647.521	6467.49
647.714	6516.64
647.907	6676.38
648.099	6492.06
648.292	6600.6
648.485	6289.31
648.678	6469.53
648.871	6434.72
649.064	6242.21
649.256	6348.7
649.449	6309.79
649.642	6320.03
649.835	6162.34
650.027	6227.87
650.22	6109.09
650.413	6037.41
650.605	6393.76
650.798	5975.97
650.991	5973.92
651.183	5898.15
651.376	6002.6
651.568	5935.01
651.761	5824.42
651.954	5898.15
652.146	5713.83
652.339	5664.68
652.531	5814.18
652.724	5746.6
652.916	5539.76
653.109	5564.33
653.301	5599.15
653.494	5750.7
653.686	5539.76
653.879	5660.59
654.071	5513.13
654.263	5523.37
654.456	5433.26
654.648	5502.89
654.84	5492.65
655.033	5453.74
655.225	5386.16
655.417	5300.14
655.61	5384.11
655.802	5283.76
655.994	5124.02
656.186	5326.77
656.379	5214.13
656.571	5265.33
656.763	4878.26
656.955	5107.63
657.148	5150.64
657.34	5181.36
657.532	5027.76
657.724	4947.89
657.916	5070.77
658.108	5081.01
658.3	4851.64
658.492	5005.24
658.684	4913.08
658.876	4951.99
659.068	4935.6
659.26	4849.59
659.452	4714.42
659.644	4794.29
659.836	4841.4
660.028	4792.25
660.22	4618.17
660.412	4669.37
660.604	4603.83
660.796	4554.68
660.988	4644.79
661.18	4597.69
661.372	4425.66
661.563	4548.54
661.755	4433.85
661.947	4650.94
662.139	4401.08
662.331	4440
662.522	4321.21
662.714	4573.11
662.906	4450.24
663.097	4257.73
663.289	4345.79
663.481	4341.69
663.673	4345.79
663.864	4198.34
664.056	4169.66
664.247	4210.62
664.439	4224.96
664.631	4132.8
664.822	4163.52
665.014	4202.43
665.205	4083.65
665.397	4057.03
665.588	4147.14
665.78	3997.63
665.971	3964.87
666.163	3964.87
666.354	4116.42
666.546	4052.93
666.737	3868.61
666.929	3934.15
667.12	3983.3
667.311	3919.81
667.503	3856.33
667.694	3938.24
667.885	3821.51
668.077	3809.22
668.268	3749.83
668.459	3835.85
668.651	3770.31
668.842	3690.44
669.033	3688.39
669.224	3624.9
669.416	3766.21
669.607	3735.49
669.798	3715.02
669.989	3651.53
670.18	3590.09
670.371	3678.15
670.563	3678.15
670.754	3524.55
670.945	3594.19
671.136	3653.58
671.327	3629
671.518	3700.68
671.709	3649.48
671.9	3534.79
672.091	3536.84
672.282	3532.75
672.473	3510.22
672.664	3504.07
672.855	3563.47
673.046	3436.49
673.237	3491.79
673.428	3493.83
673.619	3401.68
673.809	3532.75
674	3485.64
674.191	3413.96
674.382	3321.81
674.573	3360.72
674.764	3420.11
674.954	3342.28
675.145	3346.38
675.336	3334.09
675.527	3319.76
675.717	3342.28
675.908	3366.86
676.099	3325.9
676.289	3284.94
676.48	3196.88
676.671	3221.45
676.861	3297.23
677.052	3207.12
677.243	3299.28
677.433	3360.72
677.624	3166.16
677.814	3043.28
678.005	3350.48
678.195	3217.36
678.386	3264.46
678.576	3112.91
678.767	3239.89
678.957	3293.13
679.148	3237.84
679.338	3227.6
679.529	3188.69
679.719	3043.28
679.909	3110.86
680.1	3010.51
680.29	3215.31
680.481	3104.72
680.671	3137.49
680.861	3092.43
681.052	3065.81
681.242	3119.06
681.432	3221.45
681.622	3035.09
681.813	3026.9
682.003	3106.77
682.193	2998.23
682.383	3133.39
682.573	3100.62
682.764	2990.03
682.954	3080.14
683.144	2975.7
683.334	2992.08
683.524	3084.24
683.714	3002.32
683.904	3026.9
684.094	3000.27
684.284	3057.62
684.474	3049.43
684.664	3055.57
684.854	3114.96
685.044	2983.89
685.234	2998.23
685.424	3020.75
685.614	2998.23
685.804	3080.14
685.994	2912.21
686.184	2928.6
686.374	2985.94
686.564	2908.12
686.753	2949.07
686.943	2772.95
687.133	2955.22
687.323	2854.87
687.513	2947.03
687.702	2869.2
687.892	2863.06
688.082	2779.09
688.272	2912.21
688.461	2791.38
688.651	2969.55
688.841	2635.74
689.03	2715.61
689.22	2746.33
689.41	2801.62
689.599	2746.33
689.789	2760.66
689.979	2641.88
690.168	2795.48
690.358	2760.66
690.547	2682.84
690.737	2756.57
690.926	2764.76
691.116	2801.62
691.305	2686.93
691.495	2652.12
691.684	2711.51
691.874	2648.02
692.063	2684.89
692.252	2596.82
692.442	2637.78
692.631	2588.63
692.82	2566.1
693.01	2609.11
693.199	2496.47
693.388	2557.91
693.578	2473.95
693.767	2676.7
693.956	2549.72
694.146	2629.59
694.335	2662.36
694.524	2469.85
694.713	2537.43
694.902	2598.87
695.092	2637.78
695.281	2584.54
695.47	2492.38
695.659	2502.62
695.848	2549.72
696.037	2549.72
696.226	2482.14
696.415	2492.38
696.604	2574.3
696.793	2461.66
696.982	2605.02
697.171	2564.06
697.36	2465.75
697.549	2385.88
697.738	2588.63
697.927	2605.02
698.116	2541.53
698.305	2508.76
698.494	2537.43
698.683	2502.62
698.872	2459.61
699.061	2426.84
699.25	2375.64
699.438	2562.01
699.627	2543.58
699.816	2375.64
700.005	2435.03
700.193	2504.67
700.382	2392.03
700.571	2410.46
700.76	2502.62
700.948	2453.47
701.137	2541.53
701.326	2383.84
701.514	2414.56
701.703	2449.37
701.892	2508.76
702.08	2506.71
702.269	2590.68
702.457	2428.89
702.646	2539.48
702.834	2519
703.023	2523.1
703.212	2607.06
703.4	2426.84
703.589	2478.04
703.777	2564.06
703.965	2510.81
704.154	2484.19
704.342	2516.95
704.531	2559.96
704.719	2508.76
704.907	2494.43
705.096	2355.16
705.284	2420.7
705.472	2670.55
705.661	2531.29
705.849	2625.5
706.037	2539.48
706.226	2576.34
706.414	2480.09
706.602	2475.99
706.79	2672.6
706.979	2475.99
707.167	2453.47
707.355	2457.56
707.543	2488.28
707.731	2484.19
707.919	2453.47
708.107	2437.08
708.296	2424.8
708.484	2564.06
708.672	2525.15
708.86	2457.56
709.048	2514.91
709.236	2586.58
709.424	2508.76
709.612	2465.75
709.8	2510.81
709.988	2441.18
710.176	2437.08
710.364	2547.67
710.551	2422.75
710.739	2469.85
710.927	2418.65
711.115	2584.54
711.303	2492.38
711.491	2506.71
711.679	2402.27
711.866	2455.51
712.054	2549.72
712.242	2443.23
712.43	2631.64
712.617	2559.96
712.805	2529.24
712.993	2443.23
713.181	2441.18
713.368	2441.18
713.556	2502.62
713.744	2410.46
713.931	2566.1
714.119	2475.99
714.306	2488.28
714.494	2506.71
714.682	2467.8
714.869	2502.62
715.057	2531.29
715.244	2471.9
715.432	2523.1
715.619	2596.82
715.807	2451.42
715.994	2488.28
716.182	2555.86
716.369	2502.62
716.556	2543.58
716.744	2496.47
716.931	2355.16
717.119	2641.88
717.306	2494.43
717.493	2508.76
717.681	2428.89
717.868	2545.63
718.055	2549.72
718.242	2529.24
718.43	2555.86
718.617	2478.04
718.804	2523.1
718.991	2432.99
719.179	2537.43
719.366	2514.91
719.553	2445.27
719.74	2545.63
719.927	2537.43
720.114	2432.99
720.301	2484.19
720.488	2449.37
720.676	2525.15
720.863	2424.8
721.05	2564.06
721.237	2478.04
721.424	2457.56
721.611	2451.42
721.798	2410.46
721.985	2502.62
722.172	2385.88
722.358	2549.72
722.545	2435.03
722.732	2480.09
722.919	2617.3
723.106	2437.08
723.293	2422.75
723.48	2375.64
723.667	2328.54
723.853	2521.05
724.04	2453.47
724.227	2482.14
724.414	2459.61
724.6	2410.46
724.787	2473.95
724.974	2492.38
725.161	2402.27
725.347	2297.82
725.534	2414.56
725.72	2459.61
725.907	2553.82
726.094	2500.57
726.28	2340.83
726.467	2424.8
726.653	2373.6
726.84	2529.24
727.027	2549.72
727.213	2410.46
727.4	2404.32
727.586	2328.54
727.773	2541.53
727.959	2514.91
728.145	2414.56
728.332	2457.56
728.518	2406.36
728.705	2484.19
728.891	2473.95
729.077	2379.74
729.264	2396.12
729.45	2424.8
729.636	2555.86
729.823	2508.76
730.009	2486.23
730.195	2396.12
730.382	2445.27
730.568	2400.22
730.754	2412.51
730.94	2396.12
731.126	2553.82
731.313	2422.75
731.499	2406.36
731.685	2424.8
731.871	2490.33
732.057	2400.22
732.243	2471.9
732.429	2484.19
732.615	2568.15
732.801	2555.86
732.987	2451.42
733.173	2443.23
733.359	2451.42
733.545	2549.72
733.731	2326.49
733.917	2439.13
734.103	2387.93
734.289	2488.28
734.475	2478.04
734.661	2494.43
734.847	2408.41
735.033	2504.67
735.219	2351.07
735.404	2475.99
735.59	2400.22
735.776	2338.78
735.962	2435.03
736.148	2340.83
736.333	2338.78
736.519	2404.32
736.705	2400.22
736.89	2418.65
737.076	2365.4
737.262	2324.44
737.447	2346.97
737.633	2355.16
737.819	2326.49
738.004	2367.45
738.19	2396.12
738.375	2332.64
738.561	2389.98
738.747	2375.64
738.932	2234.33
739.118	2406.36
739.303	2332.64
739.489	2398.17
739.674	2215.9
739.859	2312.16
740.045	2322.4
740.23	2293.72
740.416	2346.97
740.601	2308.06
740.786	2234.33
740.972	2334.68
741.157	2252.77
741.342	2277.34
741.528	2346.97
741.713	2220
741.898	2168.8
742.084	2172.89
742.269	2191.33
742.454	2306.01
742.639	2238.43
742.824	2199.52
743.01	2136.03
743.195	2260.96
743.38	2240.48
743.565	2174.94
743.75	2086.88
743.935	2095.07
744.12	2156.51
744.305	2105.31
744.49	2213.85
744.675	1996.77
744.86	2179.04
745.045	2027.49
745.23	2152.42
745.415	2000.87
745.6	2017.25
745.785	2113.5
745.97	2109.41
746.155	2066.4
746.34	2101.22
746.525	2009.06
746.71	1990.63
746.895	2013.15
747.079	2054.11
747.264	1902.56
747.449	2009.06
747.634	1912.8
747.819	1890.28
748.003	2009.06
748.188	1927.14
748.373	2031.58
748.557	1877.99
748.742	1818.6
748.927	1904.61
749.111	1920.99
749.296	1824.74
749.481	1744.87
749.665	1781.73
749.85	1865.7
750.034	1794.02
750.219	1791.97
750.404	1740.77
750.588	1767.4
750.773	1767.4
750.957	1689.57
751.141	1753.06
751.326	1677.29
751.51	1662.95
751.695	1697.77
751.879	1662.95
752.064	1710.05
752.248	1720.29
752.432	1589.22
752.617	1609.7
752.801	1675.24
752.985	1638.37
753.17	1681.38
753.354	1535.98
753.538	1492.97
753.722	1542.12
753.907	1533.93
754.091	1591.27
754.275	1529.83
754.459	1482.73
754.643	1372.14
754.828	1437.67
755.012	1484.78
755.196	1464.3
755.38	1515.5
755.564	1413.1
755.748	1517.54
755.932	1503.21
756.116	1454.06
756.3	1341.42
756.484	1409
756.668	1400.81
756.852	1372.14
757.036	1495.02
757.22	1329.13
757.404	1392.62
757.588	1316.84
757.772	1296.36
757.956	1423.34
758.14	1282.03
758.323	1368.04
758.507	1347.56
758.691	1349.61
758.875	1294.32
759.059	1370.09
759.242	1249.26
759.426	1224.69
759.61	1208.3
759.794	1294.32
759.977	1224.69
760.161	1271.79
760.345	1134.57
760.528	1282.03
760.712	1212.4
760.895	1148.91
761.079	1277.93
761.263	1255.4
761.446	1089.52
761.63	1095.66
761.813	1214.45
761.997	1202.16
762.18	1101.81
762.364	1165.29
762.547	1091.57
762.731	1103.86
762.914	1198.06
763.098	1153.01
763.281	1130.48
763.464	1126.38
763.648	1073.14
763.831	1128.43
764.015	1126.38
764.198	1044.46
764.381	1126.38
764.564	1148.91
764.748	1214.45
764.931	1075.18
765.114	1077.23
765.297	1116.14
765.481	1019.89
765.664	1118.19
765.847	962.55
766.03	1081.33
766.213	1050.61
766.397	1056.75
766.58	1050.61
766.763	1128.43
766.946	1048.56
767.129	1085.42
767.312	954.35
767.495	1056.75
767.678	1077.23
767.861	978.93
768.044	1062.9
768.227	1081.33
768.41	954.35
768.593	1015.79
768.776	892.91
768.959	1069.04
769.142	1044.46
769.324	962.55
769.507	940.02
769.69	950.26
769.873	962.55
770.056	1060.85
770.239	972.79
770.421	925.68
770.604	882.67
770.787	954.35
770.97	946.16
771.152	940.02
771.335	948.21
771.518	845.81
771.7	978.93
771.883	1007.6
772.066	894.96
772.248	915.44
772.431	970.74
772.613	909.3
772.796	851.95
772.978	897.01
773.161	886.77
773.343	802.8
773.526	821.24
773.708	854
773.891	835.57
774.073	774.13
774.256	894.96
774.438	841.72
774.621	776.18
774.803	905.2
774.985	796.66
775.168	763.89
775.35	774.13
775.532	784.37
775.715	745.46
775.897	860.15
776.079	727.03
776.261	767.99
776.444	712.69
776.626	716.79
776.808	747.51
776.99	712.69
777.173	772.08
777.355	716.79
777.537	724.98
777.719	702.45
777.901	704.5
778.083	647.16
778.265	729.08
778.447	700.41
778.629	645.11
778.811	684.02
778.993	757.75
779.175	714.74
779.357	655.35
779.539	593.91
779.721	708.6
779.903	647.16
780.085	638.97
780.267	651.25
780.449	608.25
780.631	577.53
780.812	675.83
780.994	655.35
781.176	561.14
781.358	606.2
781.54	563.19
781.721	593.91
781.903	585.72
782.085	511.99
782.267	608.25
782.448	462.84
782.63	673.78
782.812	520.18
782.993	448.51
783.175	507.9
783.357	528.38
783.538	507.9
783.72	538.62
783.901	544.76
784.083	530.42
784.264	458.74
784.446	483.32
784.627	481.27
784.809	473.08
784.99	468.98
785.172	503.8
785.353	477.18
785.535	530.42
785.716	446.46
785.897	421.88
786.079	399.35
786.26	468.98
786.441	471.03
786.623	487.42
786.804	425.98
786.985	434.17
787.167	530.42
787.348	425.98
787.529	468.98
787.71	440.31
787.891	487.42
788.073	401.4
788.254	391.16
788.435	454.65
788.616	421.88
788.797	356.35
788.978	444.41
789.159	438.27
789.34	450.55
789.522	413.69
789.703	456.7
789.884	421.88
790.065	458.74
790.246	430.07
790.427	360.44
790.607	391.16
790.788	423.93
790.969	393.21
791.15	423.93
791.331	329.72
791.512	411.64
791.693	303.1
791.874	442.36
792.054	430.07
792.235	374.78
792.416	391.16
792.597	391.16
792.778	364.54
792.958	446.46
793.139	362.49
793.32	405.5
793.5	323.58
793.681	333.82
793.862	307.2
794.042	401.4
794.223	282.62
794.404	335.87
794.584	354.3
794.765	399.35
794.945	339.96
795.126	329.72
795.306	282.62
795.487	382.97
795.667	331.77
795.848	393.21
796.028	368.63
796.209	368.63
796.389	335.87
796.57	378.87
796.75	280.57
796.93	305.15
797.111	268.28
797.291	299
797.471	335.87
797.652	266.24
797.832	266.24
798.012	354.3
798.192	274.43
798.373	307.2
798.553	356.35
798.733	288.76
798.913	272.38
799.093	245.76
799.274	270.33
799.454	272.38
799.634	299
799.814	296.96
799.994	225.28
800.174	292.86
800.354	317.44
800.534	251.9
800.714	344.06
800.894	331.77
801.074	217.08
801.254	239.61
801.434	272.38
801.614	299
801.794	225.28
801.974	608.25
802.154	299
802.334	196.6
802.514	206.84
802.693	190.46
802.873	241.66
803.053	249.85
803.233	217.08
803.413	118.78
803.592	247.8
803.772	266.24
803.952	192.51
804.131	219.13
804.311	200.7
804.491	235.52
804.67	206.84
804.85	180.22
805.03	204.8
805.209	260.09
805.389	182.27
805.568	212.99
805.748	233.47
805.928	143.36
806.107	198.65
806.287	198.65
806.466	217.08
806.646	219.13
806.825	190.46
807.004	258.04
807.184	145.41
807.363	241.66
807.543	120.83
807.722	247.8
807.901	215.04
808.081	243.71
808.26	157.69
808.439	192.51
808.619	151.55
808.798	184.32
808.977	161.79
809.156	251.9
809.336	188.41
809.515	188.41
809.694	124.93
809.873	129.02
810.052	182.27
810.231	190.46
810.411	139.26
810.59	258.04
810.769	245.76
810.948	194.56
811.127	153.6
811.306	239.61
811.485	147.45
811.664	145.41
811.843	200.7
812.022	38.91
812.201	120.83
812.38	118.78
812.559	75.77
812.737	100.35
812.916	135.17
813.095	198.65
813.274	208.89
813.453	106.49
813.632	116.73
813.811	172.03
813.989	196.6
814.168	106.49
814.347	98.3
814.526	147.45
814.704	200.7
814.883	182.27
815.062	141.31
815.24	190.46
815.419	141.31
815.598	161.79
815.776	126.97
815.955	100.35
816.133	176.13
816.312	206.84
816.49	143.36
816.669	122.88
816.847	122.88
817.026	219.13
817.204	163.84
817.383	133.12
817.561	122.88
817.74	163.84
817.918	147.45
818.097	102.4
818.275	79.87
818.453	139.26
818.632	104.45
818.81	131.07
818.988	124.93
819.167	102.4
819.345	114.69
819.523	96.25
819.701	102.4
819.879	172.03
820.058	83.97
820.236	133.12
820.414	98.3
820.592	108.54
820.77	110.59
820.948	88.06
821.127	75.77
821.305	141.31
821.483	98.3
821.661	102.4
821.839	126.97
822.017	188.41
822.195	108.54
822.373	206.84
822.551	83.97
822.729	131.07
822.907	86.01
823.085	145.41
823.262	155.65
823.44	126.97
823.618	114.69
823.796	143.36
823.974	159.74
824.152	122.88
824.329	143.36
824.507	108.54
824.685	135.17
824.863	108.54
825.04	69.63
825.218	141.31
825.396	102.4
825.574	34.82
825.751	131.07
825.929	167.93
826.107	100.35
826.284	126.97
826.462	94.21
826.639	114.69
826.817	108.54
826.994	141.31
827.172	137.21
827.349	79.87
827.527	65.53
827.704	73.73
827.882	143.36
828.059	112.64
828.237	145.41
828.414	67.58
828.591	114.69
828.769	26.62
828.946	122.88
829.124	100.35
829.301	163.84
829.478	94.21
829.655	118.78
829.833	77.82
830.01	59.39
830.187	110.59
830.364	86.01
830.542	81.92
830.719	129.02
830.896	151.55
831.073	51.2
831.25	126.97
831.427	124.93
831.604	63.49
831.782	124.93
831.959	118.78
832.136	88.06
832.313	114.69
832.49	36.86
832.667	112.64
832.844	77.82
833.021	53.25
833.198	45.06
833.374	122.88
833.551	67.58
833.728	45.06
833.905	47.1
834.082	73.73
834.259	51.2
834.436	96.25
834.612	77.82
834.789	102.4
834.966	94.21
835.143	61.44
835.319	61.44
835.496	81.92
835.673	118.78
835.85	73.73
836.026	28.67
836.203	49.15
836.38	16.38
836.556	141.31
836.733	34.82
836.909	135.17
837.086	124.93
837.262	16.38
837.439	28.67
837.616	34.82
837.792	-32.77
837.968	61.44
838.145	47.1
838.321	131.07
838.498	77.82
838.674	22.53
838.851	55.3
839.027	18.43
839.203	86.01
839.38	102.4
839.556	83.97
839.732	104.45
839.909	69.63
840.085	90.11
840.261	16.38
840.437	88.06
840.614	10.24
840.79	59.39
840.966	73.73
841.142	102.4
841.318	75.77
841.494	79.87
841.671	108.54
841.847	71.68
842.023	77.82
842.199	126.97
842.375	141.31
842.551	59.39
842.727	98.3
842.903	32.77
843.079	24.58
843.255	73.73
843.431	45.06
843.607	69.63
843.783	-20.48
843.959	118.78
844.134	102.4
844.31	32.77
844.486	26.62
844.662	20.48
844.838	67.58
845.013	96.25
845.189	69.63
845.365	45.06
845.541	-8.19
845.716	90.11
845.892	18.43
846.068	6.14
846.244	4.1
846.419	59.39
846.595	24.58
846.77	-8.19
846.946	88.06
847.122	34.82
847.297	61.44
847.473	129.02
847.648	83.97
847.824	22.53
847.999	-36.86
848.175	34.82
848.35	94.21
848.526	30.72
848.701	38.91
848.876	108.54
849.052	65.53
849.227	69.63
849.403	-10.24
849.578	151.55
849.753	2.05
849.929	79.87
850.104	43.01
850.279	88.06
850.454	10.24
850.63	16.38
850.805	57.34
850.98	-28.67
851.155	45.06
851.33	51.2
851.505	10.24
851.681	32.77
851.856	20.48
852.031	-6.14
852.206	38.91
852.381	32.77
852.556	4.1
852.731	43.01
852.906	55.3
853.081	47.1
853.256	126.97
853.431	108.54
853.606	-12.29
853.781	38.91
853.956	43.01
854.131	43.01
854.305	-51.2
854.48	69.63
854.655	2.05
854.83	55.3
855.005	-67.58
855.18	45.06
855.354	26.62
855.529	53.25
855.704	2.05
855.879	83.97
856.053	-0
856.228	40.96
856.403	53.25
856.577	-6.14
856.752	20.48
856.926	20.48
857.101	55.3
857.276	69.63
857.45	18.43
857.625	90.11
857.799	24.58
857.974	53.25
858.148	67.58
858.323	6.14
858.497	49.15
858.672	45.06
858.846	77.82
859.02	14.34
859.195	20.48
859.369	-16.38
859.543	40.96
859.718	43.01
859.892	10.24
860.066	24.58
860.241	40.96
860.415	45.06
860.589	28.67
860.763	-10.24
860.938	43.01
861.112	-4.1
861.286	49.15
861.46	90.11
861.634	63.49
861.808	55.3
861.982	-6.14
862.157	26.62
862.331	10.24
862.505	22.53
862.679	-16.38
862.853	45.06
863.027	-34.82
863.201	22.53
863.375	8.19
863.549	73.73
863.722	30.72
863.896	-16.38
864.07	-49.15
864.244	53.25
864.418	49.15
864.592	-18.43
864.766	32.77
864.939	28.67
865.113	4.1
865.287	49.15
865.461	-8.19
865.634	81.92
865.808	40.96
865.982	96.25
866.156	20.48
866.329	49.15
866.503	57.34
866.676	22.53
866.85	10.24
867.024	32.77
867.197	8.19
867.371	49.15
867.544	51.2
867.718	-14.34
867.891	6.14
868.065	12.29
868.238	34.82
868.412	131.07
868.585	-28.67
868.759	22.53
868.932	10.24
869.105	14.34
869.279	12.29
869.452	2.05
869.625	59.39
869.799	20.48
869.972	-38.91
870.145	63.49
870.319	2.05
870.492	-0
870.665	16.38
870.838	57.34
871.011	-79.87
871.185	63.49
871.358	-49.15
871.531	-12.29
871.704	-51.2
871.877	77.82
872.05	14.34
872.223	106.49
872.396	10.24
872.569	108.54
872.742	-32.77
872.915	63.49
873.088	32.77
873.261	51.2
873.434	22.53
873.607	10.24
873.78	18.43
873.953	38.91
874.126	45.06
874.299	-14.34
874.471	10.24
874.644	2.05
874.817	22.53
874.99	2.05
875.163	8.19
875.335	-22.53
875.508	43.01
875.681	75.77
875.853	-2.05
876.026	-0
876.199	61.44
876.371	12.29
876.544	-38.91
876.717	16.38
876.889	-0
877.062	8.19
877.234	-16.38
877.407	20.48
877.579	36.86
877.752	100.35
877.924	-34.82
878.097	14.34
878.269	28.67
878.442	-36.86
878.614	-6.14
878.786	45.06
878.959	36.86
879.131	61.44
879.303	6.14
879.476	126.97
879.648	-12.29
879.82	30.72
879.993	71.68
880.165	120.83
880.337	-0
880.509	45.06
880.681	4.1
880.854	-55.3
881.026	-32.77
881.198	-18.43
881.37	-40.96
881.542	-2.05
881.714	8.19
881.886	20.48
882.058	-38.91
882.23	-2.05
882.402	12.29
882.574	-24.58
882.746	12.29
882.918	49.15
883.09	16.38
883.262	92.16
883.434	10.24
883.606	-49.15
883.778	18.43
883.95	4.1
884.122	-12.29
884.293	-8.19
884.465	34.82
884.637	4.1
884.809	59.39
884.98	-6.14
885.152	53.25
885.324	8.19
885.496	-61.44
885.667	4.1
885.839	53.25
886.011	59.39
886.182	106.49
886.354	81.92
886.525	-51.2
886.697	32.77
886.869	-49.15
887.04	38.91
887.212	20.48
887.383	30.72
887.555	-4.1
887.726	4.1
887.897	28.67
888.069	14.34
888.24	28.67
888.412	36.86
888.583	2.05
888.754	18.43
888.926	-24.58
889.097	-2.05
889.268	-75.77
889.44	55.3
889.611	45.06
889.782	-14.34
889.953	-36.86
890.125	16.38
890.296	-18.43
890.467	-16.38
890.638	43.01
890.809	18.43
890.98	-28.67
891.151	55.3
891.323	30.72
891.494	22.53
891.665	65.53
891.836	-34.82
892.007	49.15
892.178	77.82
892.349	-2.05
892.52	-32.77
892.691	-4.1
892.862	16.38
893.032	-24.58
893.203	45.06
893.374	-4.1
893.545	-28.67
893.716	-34.82
893.887	28.67
894.057	10.24
894.228	4.1
894.399	14.34
894.57	18.43
894.74	49.15
894.911	47.1
895.082	53.25
895.253	-22.53
895.423	-45.06
895.594	14.34
895.764	-34.82
895.935	-14.34
896.106	38.91
896.276	-40.96
896.447	43.01
896.617	-18.43
896.788	22.53
896.958	38.91
897.129	-24.58
897.299	53.25
897.47	24.58
897.64	-30.72
897.81	92.16
897.981	49.15
898.151	-30.72
898.322	-22.53
898.492	-12.29
898.662	49.15
898.832	-28.67
899.003	32.77
899.173	-43.01
899.343	2.05
899.513	-4.1
