Data from USB4F104151__234__11-11-15-272.txt Node

Date: Wed Mar 12 11:11:15 EDT 2025
User: louis
Spectrometer: USB4F10415
Trigger mode: 4
Integration Time (sec): 2.000000E-2
Scans to average: 1
Electric dark correction enabled: true
Nonlinearity correction enabled: false
Boxcar width: 0
XAxis mode: Wavelengths
Number of Pixels in Spectrum: 3648
>>>>>Begin Spectral Data<<<<<
178.204	-90.28
178.424	-90.28
178.644	-90.28
178.864	-47.27
179.084	-37.03
179.304	-8.36
179.524	10.07
179.744	-12.46
179.964	28.5
180.184	8.02
180.404	108.37
180.624	-26.79
180.844	18.26
181.064	-47.27
181.283	-0.17
181.503	-47.27
181.723	-30.89
181.943	26.45
182.163	55.12
182.383	-12.46
182.602	3.93
182.822	57.17
183.042	94.04
183.262	5.97
183.482	38.74
183.701	67.41
183.921	67.41
184.141	-26.79
184.361	22.36
184.58	18.26
184.8	-4.27
185.02	32.6
185.239	34.64
185.459	44.88
185.679	114.52
185.898	63.32
186.118	12.12
186.338	12.12
186.557	91.99
186.777	-18.6
186.997	-18.6
187.216	-8.36
187.436	28.5
187.655	-8.36
187.875	16.21
188.095	-2.22
188.314	63.32
188.534	73.56
188.753	-10.41
188.973	-75.95
189.192	-10.41
189.412	69.46
189.631	-63.66
189.851	-10.41
190.07	32.6
190.29	-71.85
190.509	-10.41
190.729	42.84
190.948	48.98
191.168	126.8
191.387	20.31
191.607	44.88
191.826	34.64
192.045	-16.55
192.265	-43.18
192.484	20.31
192.704	3.93
192.923	-51.37
193.142	89.94
193.362	26.45
193.581	32.6
193.8	-4.27
194.02	-34.99
194.239	38.74
194.458	22.36
194.678	137.04
194.897	-20.65
195.116	3.93
195.335	3.93
195.555	53.08
195.774	5.97
195.993	32.6
196.212	22.36
196.432	53.08
196.651	44.88
196.87	16.21
197.089	57.17
197.308	1.88
197.528	16.21
197.747	94.04
197.966	22.36
198.185	32.6
198.404	12.12
198.623	38.74
198.842	53.08
199.062	46.93
199.281	51.03
199.5	-18.6
199.719	12.12
199.938	20.31
200.157	-0.17
200.376	51.03
200.595	42.84
200.814	3.93
201.033	-22.7
201.252	51.03
201.471	89.94
201.69	61.27
201.909	38.74
202.128	38.74
202.347	53.08
202.566	24.4
202.785	28.5
203.004	36.69
203.223	-0.17
203.442	12.12
203.661	10.07
203.879	77.65
204.098	38.74
204.317	38.74
204.536	124.76
204.755	-10.41
204.974	67.41
205.193	61.27
205.411	44.88
205.63	53.08
205.849	42.84
206.068	59.22
206.287	30.55
206.505	51.03
206.724	-32.94
206.943	24.4
207.162	14.17
207.381	-6.31
207.599	63.32
207.818	14.17
208.037	-24.75
208.255	38.74
208.474	67.41
208.693	-61.61
208.911	-10.41
209.13	51.03
209.349	48.98
209.567	-24.75
209.786	-2.22
210.005	118.61
210.223	40.79
210.442	20.31
210.661	106.32
210.879	5.97
211.098	48.98
211.316	40.79
211.535	34.64
211.753	16.21
211.972	124.76
212.191	-26.79
212.409	71.51
212.628	30.55
212.846	8.02
213.065	-67.75
213.283	71.51
213.502	-20.65
213.72	32.6
213.938	132.95
214.157	48.98
214.375	12.12
214.594	18.26
214.812	28.5
215.031	-12.46
215.249	-32.94
215.467	-30.89
215.686	32.6
215.904	20.31
216.122	94.04
216.341	40.79
216.559	20.31
216.778	40.79
216.996	24.4
217.214	83.8
217.432	-77.99
217.651	63.32
217.869	28.5
218.087	46.93
218.306	-32.94
218.524	65.36
218.742	-51.37
218.96	14.17
219.179	-0.17
219.397	81.75
219.615	51.03
219.833	57.17
220.051	30.55
220.27	14.17
220.488	5.97
220.706	42.84
220.924	36.69
221.142	40.79
221.36	40.79
221.578	20.31
221.796	-24.75
222.015	-47.27
222.233	-6.31
222.451	22.36
222.669	-4.27
222.887	-37.03
223.105	-18.6
223.323	18.26
223.541	-63.66
223.759	10.07
223.977	71.51
224.195	63.32
224.413	-6.31
224.631	16.21
224.849	-0.17
225.067	12.12
225.285	5.97
225.503	73.56
225.721	-0.17
225.939	-2.22
226.157	53.08
226.375	71.51
226.592	5.97
226.81	-4.27
227.028	12.12
227.246	91.99
227.464	10.07
227.682	85.84
227.9	57.17
228.117	40.79
228.335	-2.22
228.553	38.74
228.771	87.89
228.989	26.45
229.206	26.45
229.424	26.45
229.642	-16.55
229.86	67.41
230.077	22.36
230.295	-0.17
230.513	-26.79
230.731	51.03
230.948	85.84
231.166	10.07
231.384	-12.46
231.601	10.07
231.819	-14.51
232.037	12.12
232.254	48.98
232.472	87.89
232.689	-45.23
232.907	46.93
233.125	141.14
233.342	-24.75
233.56	-34.99
233.777	8.02
233.995	26.45
234.213	53.08
234.43	53.08
234.648	48.98
234.865	32.6
235.083	30.55
235.3	-16.55
235.518	40.79
235.735	40.79
235.953	51.03
236.17	40.79
236.388	-4.27
236.605	40.79
236.822	20.31
237.04	63.32
237.257	3.93
237.475	42.84
237.692	67.41
237.909	71.51
238.127	-10.41
238.344	61.27
238.562	30.55
238.779	77.65
238.996	38.74
239.214	14.17
239.431	-12.46
239.648	24.4
239.865	114.52
240.083	5.97
240.3	34.64
240.517	40.79
240.735	67.41
240.952	42.84
241.169	63.32
241.386	149.33
241.603	24.4
241.821	-14.51
242.038	106.32
242.255	24.4
242.472	20.31
242.689	46.93
242.907	26.45
243.124	-18.6
243.341	59.22
243.558	32.6
243.775	8.02
243.992	3.93
244.209	36.69
244.426	55.12
244.643	14.17
244.86	79.7
245.078	44.88
245.295	46.93
245.512	18.26
245.729	-28.84
245.946	14.17
246.163	10.07
246.38	51.03
246.597	102.23
246.814	18.26
247.031	20.31
247.248	83.8
247.464	110.42
247.681	8.02
247.898	20.31
248.115	59.22
248.332	1.88
248.549	51.03
248.766	3.93
248.983	135
249.2	73.56
249.417	69.46
249.633	8.02
249.85	51.03
250.067	87.89
250.284	5.97
250.501	-45.23
250.717	-65.71
250.934	57.17
251.151	63.32
251.368	10.07
251.585	100.18
251.801	-0.17
252.018	28.5
252.235	-14.51
252.451	-14.51
252.668	94.04
252.885	-18.6
253.102	135
253.318	-26.79
253.535	46.93
253.752	-63.66
253.968	3.93
254.185	-28.84
254.401	26.45
254.618	24.4
254.835	38.74
255.051	57.17
255.268	12.12
255.484	96.08
255.701	44.88
255.917	32.6
256.134	53.08
256.351	-16.55
256.567	8.02
256.784	38.74
257	28.5
257.217	30.55
257.433	67.41
257.65	32.6
257.866	44.88
258.082	42.84
258.299	-32.94
258.515	32.6
258.732	3.93
258.948	46.93
259.165	71.51
259.381	-26.79
259.597	65.36
259.814	-4.27
260.03	65.36
260.246	24.4
260.463	20.31
260.679	67.41
260.895	75.6
261.112	14.17
261.328	77.65
261.544	-12.46
261.761	112.47
261.977	69.46
262.193	44.88
262.409	14.17
262.626	28.5
262.842	-16.55
263.058	-4.27
263.274	24.4
263.49	98.13
263.707	81.75
263.923	28.5
264.139	5.97
264.355	32.6
264.571	57.17
264.787	32.6
265.004	28.5
265.22	59.22
265.436	24.4
265.652	-43.18
265.868	55.12
266.084	26.45
266.3	53.08
266.516	32.6
266.732	26.45
266.948	-18.6
267.164	48.98
267.38	-0.17
267.596	24.4
267.812	42.84
268.028	46.93
268.244	32.6
268.46	28.5
268.676	-6.31
268.892	53.08
269.108	-10.41
269.324	81.75
269.54	-49.32
269.756	20.31
269.972	38.74
270.188	36.69
270.403	-28.84
270.619	26.45
270.835	151.38
271.051	20.31
271.267	8.02
271.483	30.55
271.698	65.36
271.914	-22.7
272.13	73.56
272.346	-18.6
272.562	14.17
272.777	65.36
272.993	-2.22
273.209	46.93
273.425	38.74
273.64	18.26
273.856	26.45
274.072	-8.36
274.287	-20.65
274.503	18.26
274.719	5.97
274.934	83.8
275.15	-20.65
275.366	10.07
275.581	28.5
275.797	77.65
276.012	-16.55
276.228	26.45
276.444	57.17
276.659	44.88
276.875	-24.75
277.09	69.46
277.306	16.21
277.521	-32.94
277.737	28.5
277.952	24.4
278.168	22.36
278.383	14.17
278.599	-0.17
278.814	124.76
279.03	10.07
279.245	77.65
279.461	38.74
279.676	-67.75
279.892	-30.89
280.107	-30.89
280.322	51.03
280.538	1.88
280.753	-22.7
280.969	40.79
281.184	22.36
281.399	46.93
281.615	-0.17
281.83	-0.17
282.045	12.12
282.26	-6.31
282.476	-4.27
282.691	65.36
282.906	102.23
283.122	34.64
283.337	-80.04
283.552	24.4
283.767	-41.13
283.983	26.45
284.198	48.98
284.413	87.89
284.628	1.88
284.843	71.51
285.058	28.5
285.274	102.23
285.489	-41.13
285.704	3.93
285.919	44.88
286.134	124.76
286.349	79.7
286.564	65.36
286.779	5.97
286.995	89.94
287.21	3.93
287.425	53.08
287.64	-6.31
287.855	126.8
288.07	71.51
288.285	81.75
288.5	89.94
288.715	20.31
288.93	12.12
289.145	36.69
289.36	30.55
289.575	3.93
289.79	81.75
290.004	42.84
290.219	83.8
290.434	48.98
290.649	-24.75
290.864	42.84
291.079	32.6
291.294	20.31
291.509	46.93
291.724	36.69
291.938	-0.17
292.153	63.32
292.368	32.6
292.583	91.99
292.798	3.93
293.012	38.74
293.227	67.41
293.442	1.88
293.657	145.24
293.871	108.37
294.086	73.56
294.301	69.46
294.516	8.02
294.73	26.45
294.945	18.26
295.16	-43.18
295.374	8.02
295.589	28.5
295.804	24.4
296.018	-16.55
296.233	87.89
296.447	67.41
296.662	8.02
296.877	94.04
297.091	8.02
297.306	51.03
297.52	77.65
297.735	42.84
297.949	32.6
298.164	32.6
298.378	8.02
298.593	44.88
298.807	132.95
299.022	28.5
299.236	73.56
299.451	63.32
299.665	81.75
299.88	-16.55
300.094	55.12
300.309	-32.94
300.523	89.94
300.737	61.27
300.952	-20.65
301.166	94.04
301.381	-14.51
301.595	18.26
301.809	20.31
302.024	32.6
302.238	18.26
302.452	42.84
302.667	5.97
302.881	77.65
303.095	157.52
303.309	77.65
303.524	34.64
303.738	42.84
303.952	40.79
304.166	44.88
304.381	8.02
304.595	40.79
304.809	-34.99
305.023	-6.31
305.237	22.36
305.452	-0.17
305.666	65.36
305.88	34.64
306.094	139.09
306.308	48.98
306.522	14.17
306.736	63.32
306.95	100.18
307.164	77.65
307.379	30.55
307.593	-14.51
307.807	42.84
308.021	16.21
308.235	24.4
308.449	48.98
308.663	-14.51
308.877	85.84
309.091	18.26
309.305	24.4
309.519	12.12
309.733	-2.22
309.947	100.18
310.161	-16.55
310.374	77.65
310.588	10.07
310.802	24.4
311.016	-26.79
311.23	18.26
311.444	61.27
311.658	87.89
311.872	89.94
312.085	57.17
312.299	-10.41
312.513	94.04
312.727	22.36
312.941	81.75
313.154	20.31
313.368	-4.27
313.582	-12.46
313.796	51.03
314.009	46.93
314.223	110.42
314.437	-8.36
314.651	89.94
314.864	12.12
315.078	42.84
315.292	-26.79
315.505	57.17
315.719	36.69
315.933	71.51
316.146	40.79
316.36	10.07
316.573	20.31
316.787	38.74
317.001	116.56
317.214	-39.08
317.428	71.51
317.641	59.22
317.855	36.69
318.068	28.5
318.282	30.55
318.495	26.45
318.709	10.07
318.922	-12.46
319.136	44.88
319.349	-51.37
319.563	71.51
319.776	18.26
319.99	22.36
320.203	36.69
320.417	46.93
320.63	38.74
320.843	94.04
321.057	85.84
321.27	30.55
321.483	24.4
321.697	118.61
321.91	22.36
322.124	77.65
322.337	110.42
322.55	51.03
322.763	32.6
322.977	40.79
323.19	-12.46
323.403	26.45
323.617	40.79
323.83	61.27
324.043	-18.6
324.256	36.69
324.469	16.21
324.683	22.36
324.896	83.8
325.109	51.03
325.322	-0.17
325.535	44.88
325.748	26.45
325.962	38.74
326.175	106.32
326.388	112.47
326.601	36.69
326.814	38.74
327.027	38.74
327.24	102.23
327.453	1.88
327.666	81.75
327.879	87.89
328.092	22.36
328.305	-0.17
328.518	24.4
328.731	34.64
328.944	40.79
329.157	-16.55
329.37	32.6
329.583	69.46
329.796	73.56
330.009	-28.84
330.222	28.5
330.435	24.4
330.648	36.69
330.861	44.88
331.073	18.26
331.286	12.12
331.499	44.88
331.712	5.97
331.925	55.12
332.138	14.17
332.35	-28.84
332.563	42.84
332.776	36.69
332.989	87.89
333.202	-18.6
333.414	-10.41
333.627	32.6
333.84	5.97
334.053	61.27
334.265	96.08
334.478	-2.22
334.691	-4.27
334.903	77.65
335.116	69.46
335.329	67.41
335.541	22.36
335.754	83.8
335.966	73.56
336.179	14.17
336.392	18.26
336.604	-41.13
336.817	28.5
337.029	61.27
337.242	34.64
337.454	-55.47
337.667	-14.51
337.88	14.17
338.092	48.98
338.305	48.98
338.517	89.94
338.729	38.74
338.942	-16.55
339.154	20.31
339.367	24.4
339.579	63.32
339.792	8.02
340.004	63.32
340.217	-34.99
340.429	-43.18
340.641	18.26
340.854	34.64
341.066	48.98
341.278	85.84
341.491	48.98
341.703	-12.46
341.915	79.7
342.128	112.47
342.34	-12.46
342.552	40.79
342.764	73.56
342.977	46.93
343.189	18.26
343.401	-28.84
343.613	40.79
343.826	5.97
344.038	53.08
344.25	55.12
344.462	24.4
344.674	96.08
344.886	57.17
345.099	57.17
345.311	65.36
345.523	69.46
345.735	51.03
345.947	-6.31
346.159	100.18
346.371	46.93
346.583	-4.27
346.795	42.84
347.007	-16.55
347.219	59.22
347.431	26.45
347.643	12.12
347.855	-0.17
348.067	85.84
348.279	30.55
348.491	-2.22
348.703	20.31
348.915	65.36
349.127	5.97
349.339	38.74
349.551	36.69
349.763	12.12
349.975	18.26
350.187	69.46
350.399	65.36
350.61	57.17
350.822	36.69
351.034	44.88
351.246	-0.17
351.458	91.99
351.669	79.7
351.881	55.12
352.093	32.6
352.305	69.46
352.517	116.56
352.728	81.75
352.94	106.32
353.152	-14.51
353.363	12.12
353.575	75.6
353.787	16.21
353.999	-4.27
354.21	94.04
354.422	-30.89
354.633	55.12
354.845	14.17
355.057	-2.22
355.268	59.22
355.48	-2.22
355.692	14.17
355.903	38.74
356.115	71.51
356.326	42.84
356.538	57.17
356.749	36.69
356.961	57.17
357.172	55.12
357.384	-10.41
357.595	85.84
357.807	5.97
358.018	26.45
358.23	34.64
358.441	59.22
358.653	67.41
358.864	-8.36
359.075	61.27
359.287	12.12
359.498	42.84
359.709	106.32
359.921	44.88
360.132	-10.41
360.344	51.03
360.555	44.88
360.766	28.5
360.977	-37.03
361.189	-28.84
361.4	65.36
361.611	102.23
361.823	67.41
362.034	3.93
362.245	-37.03
362.456	-6.31
362.667	36.69
362.879	-16.55
363.09	34.64
363.301	81.75
363.512	65.36
363.723	20.31
363.935	-0.17
364.146	71.51
364.357	-6.31
364.568	18.26
364.779	38.74
364.99	77.65
365.201	44.88
365.412	42.84
365.623	5.97
365.834	163.67
366.045	28.5
366.256	102.23
366.467	32.6
366.678	24.4
366.889	42.84
367.1	67.41
367.311	22.36
367.522	122.71
367.733	57.17
367.944	28.5
368.155	75.6
368.366	100.18
368.577	24.4
368.788	79.7
368.999	-26.79
369.209	12.12
369.42	108.37
369.631	61.27
369.842	98.13
370.053	28.5
370.264	-16.55
370.474	16.21
370.685	40.79
370.896	36.69
371.107	22.36
371.317	24.4
371.528	79.7
371.739	75.6
371.95	12.12
372.16	-16.55
372.371	36.69
372.582	102.23
372.792	36.69
373.003	79.7
373.214	-6.31
373.424	63.32
373.635	61.27
373.846	36.69
374.056	163.67
374.267	44.88
374.477	32.6
374.688	79.7
374.898	53.08
375.109	46.93
375.319	104.28
375.53	14.17
375.74	69.46
375.951	40.79
376.161	-12.46
376.372	18.26
376.582	-2.22
376.793	3.93
377.003	10.07
377.214	24.4
377.424	32.6
377.635	100.18
377.845	26.45
378.055	40.79
378.266	73.56
378.476	48.98
378.686	85.84
378.897	81.75
379.107	-6.31
379.317	63.32
379.528	-28.84
379.738	77.65
379.948	114.52
380.158	65.36
380.369	67.41
380.579	59.22
380.789	36.69
380.999	102.23
381.21	75.6
381.42	53.08
381.63	48.98
381.84	110.42
382.05	89.94
382.261	28.5
382.471	73.56
382.681	81.75
382.891	53.08
383.101	122.71
383.311	77.65
383.521	18.26
383.731	83.8
383.941	102.23
384.151	40.79
384.361	57.17
384.571	110.42
384.781	51.03
384.991	61.27
385.201	85.84
385.411	28.5
385.621	77.65
385.831	38.74
386.041	3.93
386.251	16.21
386.461	67.41
386.671	40.79
386.881	98.13
387.091	69.46
387.301	118.61
387.511	38.74
387.72	87.89
387.93	51.03
388.14	-32.94
388.35	3.93
388.56	34.64
388.769	40.79
388.979	30.55
389.189	40.79
389.399	51.03
389.609	51.03
389.818	85.84
390.028	55.12
390.238	55.12
390.447	24.4
390.657	106.32
390.867	20.31
391.076	-4.27
391.286	65.36
391.496	81.75
391.705	96.08
391.915	83.8
392.125	106.32
392.334	24.4
392.544	42.84
392.753	18.26
392.963	61.27
393.172	71.51
393.382	18.26
393.591	118.61
393.801	16.21
394.01	63.32
394.22	145.24
394.429	91.99
394.639	55.12
394.848	67.41
395.058	112.47
395.267	16.21
395.477	81.75
395.686	40.79
395.895	5.97
396.105	153.43
396.314	98.13
396.524	94.04
396.733	30.55
396.942	110.42
397.152	57.17
397.361	94.04
397.57	67.41
397.78	55.12
397.989	91.99
398.198	132.95
398.407	71.51
398.617	126.8
398.826	63.32
399.035	42.84
399.244	16.21
399.453	159.57
399.663	114.52
399.872	110.42
400.081	22.36
400.29	139.09
400.499	57.17
400.708	137.04
400.917	132.95
401.127	20.31
401.336	85.84
401.545	63.32
401.754	112.47
401.963	167.76
402.172	128.85
402.381	118.61
402.59	104.28
402.799	145.24
403.008	169.81
403.217	141.14
403.426	118.61
403.635	118.61
403.844	145.24
404.053	128.85
404.262	120.66
404.471	175.95
404.68	89.94
404.888	143.19
405.097	46.93
405.306	98.13
405.515	190.29
405.724	118.61
405.933	145.24
406.142	118.61
406.35	159.57
406.559	55.12
406.768	108.37
406.977	139.09
407.185	175.95
407.394	141.14
407.603	167.76
407.812	104.28
408.02	245.59
408.229	165.71
408.438	163.67
408.646	206.67
408.855	188.24
409.064	171.86
409.272	204.63
409.481	218.96
409.69	122.71
409.898	245.59
410.107	239.44
410.315	253.78
410.524	202.58
410.733	270.16
410.941	323.41
411.15	304.98
411.358	317.26
411.567	296.78
411.775	272.21
411.984	288.59
412.192	311.12
412.401	423.76
412.609	380.75
412.818	401.23
413.026	393.04
413.234	442.19
413.443	409.42
413.651	466.77
413.86	413.52
414.068	472.91
414.276	466.77
414.485	530.25
414.693	513.87
414.901	563.02
415.11	511.82
415.318	530.25
415.526	532.3
415.734	546.64
415.943	675.66
416.151	712.52
416.359	579.4
416.567	692.04
416.776	669.52
416.984	798.54
417.192	819.02
417.4	724.81
417.608	722.76
417.817	778.06
418.025	827.21
418.233	866.12
418.441	911.18
418.649	886.6
418.857	980.81
419.065	1068.87
419.273	980.81
419.481	1025.86
419.689	1181.51
419.897	1152.84
420.105	1158.98
420.313	1298.24
420.521	1183.56
420.729	1294.15
420.937	1371.97
421.145	1437.5
421.353	1449.79
421.561	1408.83
421.769	1535.81
421.977	1505.09
422.185	1644.35
422.393	1728.31
422.601	1732.41
422.809	1853.24
423.017	1791.8
423.224	1879.86
423.432	2010.93
423.64	1869.62
423.848	2086.71
424.056	2121.52
424.263	2187.06
424.471	2234.16
424.679	2342.71
424.887	2406.19
425.094	2371.38
425.302	2410.29
425.51	2445.1
425.718	2670.38
425.925	2656.04
426.133	2832.17
426.341	3065.64
426.548	3067.69
426.756	3147.56
426.964	3112.74
427.171	3262.24
427.379	3374.88
427.586	3520.29
427.794	3514.14
428.001	3600.16
428.209	3890.97
428.417	3718.94
428.624	4060.95
428.832	3993.37
429.039	4036.38
429.247	3897.11
429.454	4431.63
429.662	4716.3
429.869	4302.61
430.076	4671.25
430.284	4476.69
430.491	4800.27
430.699	4974.35
430.906	5050.12
431.114	5068.55
431.321	5453.57
431.528	5285.64
431.736	5738.24
431.943	6045.43
432.15	5740.29
432.358	5983.99
432.565	6125.3
432.772	6158.07
432.979	6653.68
433.187	6766.32
433.394	6704.88
433.601	7180.01
433.808	7161.58
434.016	7075.56
434.223	7425.76
434.43	7763.68
434.637	7638.75
434.844	8285.91
435.052	8376.02
435.259	8378.07
435.466	8337.11
435.673	8259.29
435.88	8875.73
436.087	9332.42
436.294	9273.03
436.501	9098.95
436.708	8982.22
436.915	9598.66
437.122	10092.22
437.329	9782.98
437.537	10143.42
437.743	10335.93
437.95	10106.56
438.157	10788.53
438.364	11210.41
438.571	10989.23
438.778	11220.65
438.985	12408.47
439.192	11620
439.399	12037.79
439.606	11951.77
439.813	12584.6
440.02	13233.8
440.227	13201.04
440.433	13207.18
440.64	13489.8
440.847	13383.31
441.054	13674.12
441.261	14683.77
441.467	14577.27
441.674	14556.79
441.881	15136.37
442.088	15087.22
442.294	14913.14
442.501	15566.44
442.708	15761
442.914	16215.65
443.121	16930.39
443.328	16565.85
443.534	17823.3
443.741	17172.05
443.948	17223.25
444.154	18300.48
444.361	18087.49
444.568	18060.87
444.774	18431.55
444.981	18345.53
445.187	18949.68
445.394	19854.89
445.6	19435.05
445.807	21440.01
446.013	20319.78
446.22	20667.93
446.426	21587.47
446.633	21763.59
446.839	22623.74
447.046	21632.52
447.252	22920.7
447.459	22806.01
447.665	22797.82
447.871	23829.99
448.078	24370.66
448.284	23324.15
448.491	24137.19
448.697	25048.54
448.903	25701.84
449.11	25544.14
449.316	24964.57
449.522	25146.84
449.728	26258.88
449.935	26203.59
450.141	26316.23
450.347	26738.11
450.553	25914.83
450.76	26361.28
450.966	26691.01
451.172	26705.34
451.378	27561.39
451.584	26820.03
451.791	27438.51
451.997	27669.94
452.203	27862.44
452.409	27915.69
452.615	27588.02
452.821	26770.88
453.027	26314.18
453.233	27831.72
453.44	26527.17
453.646	27076.02
453.852	27176.37
454.058	27225.53
454.264	26631.61
454.47	26789.31
454.676	26793.4
454.882	27209.14
455.088	24962.52
455.294	25146.84
455.5	25263.57
455.705	25912.78
455.911	24948.18
456.117	24311.27
456.323	24174.05
456.529	22828.54
456.735	23408.11
456.941	23109.11
457.147	22578.68
457.352	22103.56
457.558	21841.42
457.764	21521.93
457.97	21536.27
458.176	20909.59
458.381	20813.34
458.587	20080.16
458.793	20074.02
458.999	19090.99
459.204	19961.38
459.41	19598.89
459.616	18280
459.821	18316.86
460.027	18181.7
460.233	17798.73
460.438	17038.93
460.644	17157.71
460.85	16524.89
461.055	16293.47
461.261	15957.6
461.466	14843.51
461.672	14409.34
461.878	15421.03
462.083	14446.2
462.289	14079.61
462.494	14276.22
462.7	13407.88
462.905	13010.57
463.111	13643.4
463.316	13694.6
463.522	13377.16
463.727	13278.86
463.932	13495.94
464.138	13301.39
464.343	13368.97
464.549	12945.04
464.754	13207.18
464.959	13293.19
465.165	13051.53
465.37	12572.31
465.575	12101.28
465.781	12613.27
465.986	12807.83
466.191	12191.39
466.397	12060.32
466.602	11460.26
466.807	11998.88
467.012	11718.31
467.218	11935.39
467.423	11724.45
467.628	11884.19
467.833	12056.22
468.038	11974.3
468.244	11642.53
468.449	11904.67
468.654	11437.73
468.859	11501.22
469.064	11552.42
469.269	11081.39
469.474	11060.91
469.679	11280.04
469.885	10884.78
470.09	11224.75
470.295	11099.82
470.5	10792.62
470.705	10811.06
470.91	10489.53
471.115	10462.9
471.32	10608.31
471.525	10411.7
471.73	10098.36
471.935	10436.28
472.139	9819.84
472.344	10141.37
472.549	9922.24
472.754	9936.57
472.959	9662.15
473.164	9400.01
473.369	9207.5
473.574	9649.86
473.778	9711.3
473.983	9348.81
474.188	9629.38
474.393	8920.78
474.598	8894.16
474.802	8773.33
475.007	8928.97
475.212	8998.6
475.417	8648.4
475.621	8619.73
475.826	8701.65
476.031	8556.24
476.235	8206.04
476.44	8408.79
476.645	8144.6
476.849	8228.57
477.054	8134.36
477.259	8064.73
477.463	7988.96
477.668	7904.99
477.872	7890.65
478.077	7919.32
478.282	7608.03
478.486	7571.17
478.691	7624.42
478.895	7417.57
479.1	7364.32
479.304	7335.65
479.509	7202.54
479.713	7436
479.918	7401.19
480.122	7026.41
480.326	7364.32
480.531	7196.39
480.735	7001.83
480.94	6924.01
481.144	7296.74
481.348	7108.33
481.553	7024.36
481.757	7020.27
481.961	7102.18
482.166	7118.57
482.37	7098.09
482.574	6944.49
482.778	6946.54
482.983	6936.3
483.187	6794.99
483.391	7016.17
483.595	6811.37
483.8	6911.72
484.004	6784.75
484.208	6848.24
484.412	7036.65
484.616	7005.93
484.821	6999.79
485.025	6678.26
485.229	7069.42
485.433	6725.36
485.637	6821.61
485.841	6799.09
486.045	6883.05
486.249	6833.9
486.453	6819.57
486.657	6944.49
486.861	6911.72
487.065	6823.66
487.269	6786.8
487.473	6749.93
487.677	7010.03
487.881	6878.96
488.085	6813.42
488.289	6891.24
488.493	6917.87
488.697	7020.27
488.901	7007.98
489.105	7141.1
489.309	7042.79
489.512	7024.36
489.716	7077.61
489.92	7124.71
490.124	7104.23
490.328	7202.54
490.531	7063.27
490.735	7024.36
490.939	7063.27
491.143	7245.54
491.346	7214.82
491.55	7032.55
491.754	7089.9
491.958	7169.77
492.161	7204.58
492.365	7403.24
492.569	7393
492.772	7212.78
492.976	7278.31
493.18	7438.05
493.383	7427.81
493.587	7306.98
493.79	7665.38
493.994	7524.07
494.197	7507.68
494.401	7573.22
494.605	7372.52
494.808	7833.31
495.012	7659.23
495.215	7651.04
495.419	7816.93
495.622	7704.29
495.825	7972.57
496.029	7941.85
496.232	8175.32
496.436	7943.9
496.639	8490.71
496.843	8330.97
497.046	8402.65
497.249	8666.83
497.453	8548.05
497.656	8789.71
497.859	8715.98
498.063	8691.41
498.266	8830.67
498.469	8926.93
498.673	8871.63
498.876	9236.17
499.079	9350.85
499.282	9238.22
499.485	9262.79
499.689	9367.24
499.892	9877.18
500.095	9592.51
500.298	9780.93
500.501	9840.32
500.705	10188.47
500.908	10108.6
501.111	10211
501.314	10585.78
501.517	10432.18
501.72	10548.92
501.923	10704.56
502.126	10626.74
502.329	11028.14
502.532	11282.09
502.735	11185.83
502.938	11282.09
503.141	11275.95
503.344	11892.38
503.547	11656.87
503.75	11669.16
503.953	12076.7
504.156	11947.68
504.359	12035.74
504.562	12242.59
504.765	12646.04
504.968	12557.97
505.17	12719.76
505.373	12678.8
505.576	13024.91
505.779	13086.35
505.982	13272.71
506.185	13536.9
506.387	13416.07
506.59	13522.57
506.793	13895.3
506.996	13852.29
507.198	14263.93
507.401	13997.7
507.604	14274.17
507.807	14704.24
508.009	14528.12
508.212	14683.77
508.415	14925.43
508.617	15019.63
508.82	15193.71
509.022	14950
509.225	15593.06
509.428	15720.04
509.63	15763.04
509.833	15933.03
510.035	16125.54
510.238	16133.73
510.44	16283.23
510.643	16449.11
510.845	16817.75
511.048	16655.96
511.25	16741.97
511.453	17100.37
511.655	17608.26
511.858	17540.68
512.06	17546.83
512.262	17819.21
512.465	17733.19
512.667	17946.18
512.87	18392.64
513.072	18067.01
513.274	18826.81
513.477	18812.47
513.679	19035.7
513.881	19107.38
514.084	19615.27
514.286	19547.69
514.488	19316.27
514.69	19942.95
514.893	19965.48
515.095	20071.97
515.297	20647.45
515.499	20287.01
515.701	20655.64
515.904	20807.19
516.106	21130.77
516.308	21169.68
516.51	21448.21
516.712	21665.29
516.914	21691.91
517.116	22183.43
517.318	22058.5
517.52	22081.03
517.722	22466.05
517.925	22627.84
518.127	22955.51
518.329	23102.96
518.531	23000.57
518.733	23586.29
518.935	23543.28
519.136	23672.3
519.338	23875.05
519.54	24092.13
519.742	24245.73
519.944	24647.13
520.146	24856.03
520.348	25069.01
520.55	24956.38
520.752	24968.66
520.954	25800.14
521.155	25640.4
521.357	25982.41
521.559	25961.93
521.761	26293.7
521.963	26420.67
522.164	26424.77
522.366	26756.54
522.568	27049.4
522.77	27237.81
522.971	27162.04
523.173	27338.16
523.375	27821.48
523.576	27571.63
523.778	27981.23
523.98	28050.86
524.181	28552.61
524.383	28220.84
524.584	28634.53
524.786	28417.44
524.988	28482.98
525.189	28999.07
525.391	29152.66
525.592	29123.99
525.794	29363.61
525.995	29285.78
526.197	29185.43
526.398	29615.51
526.6	29814.16
526.801	30104.97
527.003	30080.39
527.204	29732.24
527.406	30219.66
527.607	30481.8
527.808	30303.62
528.01	30170.5
528.211	30485.89
528.412	31253.88
528.614	31028.6
528.815	30905.73
529.016	31145.34
529.218	31346.04
529.419	31233.4
529.62	30952.83
529.822	31198.59
530.023	31034.75
530.224	31237.5
530.425	31575.41
530.626	31163.77
530.828	30905.73
531.029	31681.91
531.23	31616.37
531.431	31321.46
531.632	31378.81
531.833	31884.65
532.035	31688.05
532.236	32003.44
532.437	31782.26
532.638	31956.33
532.839	31982.96
533.04	32103.79
533.241	31966.57
533.442	32083.31
533.643	32189.8
533.844	32357.74
534.045	31966.57
534.246	31835.5
534.447	32296.3
534.648	32089.45
534.849	32265.58
535.05	31960.43
535.251	32036.2
535.451	31933.81
535.652	32421.22
535.853	32529.76
536.054	32165.23
536.255	32400.74
536.456	32036.2
536.657	32544.1
536.857	32574.82
537.058	32195.95
537.259	32503.14
537.46	32228.71
537.66	32073.07
537.861	32269.67
538.062	32351.59
538.263	32394.6
538.463	32433.51
538.664	32150.89
538.865	31991.15
539.065	32595.3
539.266	31995.25
539.466	32370.02
539.667	32122.22
539.868	32460.13
540.068	31968.62
540.269	32476.52
540.469	32480.61
540.67	31944.05
540.87	32353.64
541.071	32236.91
541.271	32183.66
541.472	32044.4
541.672	32300.39
541.873	32384.36
542.073	31731.06
542.274	32374.12
542.474	32304.49
542.675	32073.07
542.875	32687.46
543.075	32810.34
543.276	31909.23
543.476	32437.61
543.676	31911.28
543.877	32154.99
544.077	32472.42
544.277	32130.41
544.478	31950.19
544.678	32152.94
544.878	31884.65
545.078	31853.94
545.279	31651.19
545.479	31927.66
545.679	32191.85
545.879	32236.91
546.079	32359.78
546.28	31960.43
546.48	31788.4
546.68	32118.12
546.88	32044.4
547.08	32386.41
547.28	31933.81
547.48	31901.04
547.68	32095.6
547.88	31866.22
548.081	32105.84
548.281	31812.98
548.481	31966.57
548.681	32361.83
548.881	31997.29
549.081	32204.14
549.28	31688.05
549.48	31978.86
549.68	31757.68
549.88	32339.3
550.08	31491.44
550.28	31964.53
550.48	31944.05
550.68	32048.49
550.88	31898.99
551.08	31765.87
551.279	31681.91
551.479	31495.54
551.679	31833.46
551.879	31831.41
552.079	32056.68
552.278	31360.37
552.478	31958.38
552.678	31919.47
552.878	31675.76
553.077	31880.56
553.277	31772.02
553.477	32204.14
553.676	31884.65
553.876	31788.4
554.076	31548.79
554.275	31356.28
554.475	31006.08
554.674	31374.71
554.874	31501.68
555.074	31602.04
555.273	31421.81
555.473	31544.69
555.672	31376.76
555.872	31380.85
556.071	31188.35
556.271	31434.1
556.47	31077.76
556.67	31143.29
556.869	30930.3
557.068	31352.18
557.268	31112.57
557.467	31157.63
557.667	31309.18
557.866	31061.37
558.065	31042.94
558.265	30766.46
558.464	30627.2
558.663	31202.68
558.863	30514.56
559.062	31135.1
559.261	30565.76
559.461	31200.63
559.66	30313.86
559.859	30868.86
560.058	30537.09
560.258	30440.84
560.457	30555.52
560.656	30446.98
560.855	30533
561.054	30717.31
561.253	30186.89
561.453	30344.58
561.652	30619.01
561.851	30158.22
562.05	29883.79
562.249	30053.77
562.448	30240.14
562.647	30008.72
562.846	29818.25
563.045	30029.2
563.244	29691.28
563.443	29851.02
563.642	29531.54
563.841	29572.5
564.04	29324.69
564.239	29810.06
564.438	29312.41
564.637	29543.83
564.836	29558.16
565.035	29111.71
565.234	29242.78
565.432	29541.78
565.631	29117.85
565.83	29134.23
566.029	29582.74
566.228	28874.14
566.427	28673.44
566.625	28900.76
566.824	28384.68
567.023	29132.18
567.222	28110.25
567.42	28884.38
567.619	28419.49
567.818	28442.02
568.016	28462.5
568.215	28655.01
568.414	28229.03
568.612	28425.64
568.811	28323.24
569.01	28325.29
569.208	27839.92
569.407	28194.22
569.605	27825.58
569.804	27708.85
570.002	27637.17
570.201	27774.38
570.4	27651.5
570.598	27758
570.797	27461.04
570.995	27516.34
571.193	27241.91
571.392	27577.78
571.59	27340.21
571.789	27045.3
571.987	27039.16
572.186	26969.53
572.384	26940.86
572.582	26834.36
572.781	26940.86
572.979	26748.35
573.177	26936.76
573.376	26764.73
573.574	26443.2
573.772	26813.88
573.971	26334.66
574.169	26314.18
574.367	25908.68
574.565	26203.59
574.763	26144.2
574.962	25925.07
575.16	25742.8
575.358	26168.77
575.556	25935.31
575.754	26230.21
575.952	25669.07
576.151	26041.8
576.349	25703.89
576.547	25621.97
576.745	25544.14
576.943	25621.97
577.141	25466.32
577.339	25443.79
577.537	25296.34
577.735	25245.14
577.933	25230.8
578.131	25363.92
578.329	24985.05
578.527	24593.89
578.725	24888.79
578.923	25091.54
579.121	24589.79
579.319	24720.86
579.516	24919.51
579.714	24657.37
579.912	24557.02
580.11	24434.14
580.308	24616.41
580.506	24317.41
580.704	24151.52
580.901	24616.41
581.099	24352.23
581.297	24114.66
581.495	23981.54
581.692	24139.24
581.89	23774.7
582.088	24059.37
582.285	23676.4
582.483	23934.44
582.681	23528.94
582.878	23926.25
583.076	23537.13
583.274	23485.93
583.471	23301.62
583.669	23301.62
583.866	23184.88
584.064	23547.37
584.262	22889.98
584.459	23242.23
584.657	23277.04
584.854	23186.93
585.052	22568.44
585.249	22943.22
585.447	22828.54
585.644	22605.31
585.841	22685.18
586.039	22922.74
586.236	22552.06
586.434	22492.67
586.631	22085.12
586.828	22552.06
587.026	22222.34
587.223	22177.28
587.42	22101.51
587.618	22423.04
587.815	21923.33
588.012	21984.77
588.21	21972.49
588.407	21870.09
588.604	21708.3
588.801	21464.59
588.999	21478.93
589.196	21755.4
589.393	21919.24
589.59	21612.04
589.787	21585.42
589.984	21407.25
590.182	21208.59
590.379	21495.31
590.576	21046.8
590.773	21075.48
590.97	21175.83
591.167	21065.24
591.364	20770.33
591.561	20932.12
591.758	20831.77
591.955	20659.74
592.152	20815.38
592.349	20581.92
592.546	20669.98
592.743	20698.65
592.94	20284.96
593.137	20516.38
593.334	20600.35
593.531	20082.21
593.727	20160.03
593.924	20237.86
594.121	19996.2
594.318	20153.89
594.515	20022.82
594.712	20270.62
594.908	19795.5
595.105	19926.57
595.302	19654.19
595.499	19990.05
595.696	19801.64
595.892	19492.4
596.089	19586.6
596.286	19504.68
596.482	19369.52
596.679	19365.42
596.876	19191.34
597.072	19297.84
597.269	19410.48
597.466	19207.73
597.662	18927.16
597.859	19039.79
598.055	19103.28
598.252	18873.91
598.448	19025.46
598.645	19084.85
598.841	18695.74
599.038	18828.85
599.234	18798.13
599.431	18409.02
599.627	18646.58
599.824	18589.24
600.02	18570.81
600.217	18619.96
600.413	18239.04
600.609	18288.19
600.806	18128.45
601.002	18234.94
601.198	18189.89
601.395	18028.1
601.591	17933.89
601.787	18210.37
601.984	17829.45
602.18	18316.86
602.376	17901.12
602.572	17759.81
602.769	17798.73
602.965	17362.51
603.161	17718.85
603.357	17382.99
603.553	17645.13
603.75	17604.17
603.946	17401.42
604.142	17460.81
604.338	17153.62
604.534	17444.43
604.73	17096.27
604.926	16873.04
605.122	17215.05
605.318	17055.31
605.514	16741.97
605.71	17002.07
605.906	16819.8
606.102	16922.2
606.298	16770.65
606.494	16774.74
606.69	16776.79
606.886	16690.77
607.082	16524.89
607.278	16545.37
607.474	16242.27
607.67	16475.74
607.866	16305.76
608.062	16397.92
608.257	16178.78
608.453	16402.01
608.649	16203.36
608.845	16227.93
609.041	16332.38
609.236	16219.74
609.432	16025.18
609.628	16238.17
609.824	16023.14
610.019	16422.49
610.215	16092.77
610.411	16025.18
610.606	15890.02
610.802	15713.89
610.998	15777.38
611.193	15859.3
611.389	15785.57
611.584	15724.13
611.78	15484.52
611.976	15736.42
612.171	15586.92
612.367	15597.16
612.562	15369.83
612.758	15363.69
612.953	15564.39
613.149	15390.31
613.344	15308.4
613.539	15697.51
613.735	15326.83
613.93	15535.72
614.126	14995.06
614.321	15629.93
614.517	15265.39
614.712	15380.07
614.907	15109.74
615.103	15294.06
615.298	15148.65
615.493	15255.15
615.688	15144.56
615.884	15107.69
616.079	14894.71
616.274	15076.98
616.47	15021.68
616.665	15144.56
616.86	14904.95
617.055	14759.54
617.25	14849.65
617.445	14755.44
617.641	14640.76
617.836	14876.27
618.031	14802.55
618.226	14739.06
618.421	14534.26
618.616	14780.02
618.811	14399.1
619.006	14689.91
619.201	14278.27
619.396	14212.73
619.591	14347.9
619.786	14442.1
619.981	14098.05
620.176	14280.32
620.371	14096
620.566	14022.27
620.761	14030.46
620.956	14175.87
621.151	13891.2
621.346	13807.23
621.541	13454.98
621.735	13827.71
621.93	13448.84
622.125	13674.12
622.32	13211.28
622.515	13209.23
622.709	13448.84
622.904	13307.53
623.099	13254.28
623.294	13280.91
623.488	12981.9
623.683	13160.08
623.878	12899.98
624.072	12719.76
624.267	12922.51
624.462	12594.84
624.656	12760.72
624.851	12803.73
625.046	12557.97
625.24	12605.08
625.435	12273.31
625.629	12463.77
625.824	12404.38
626.018	12220.06
626.213	12013.21
626.407	12043.93
626.602	12064.41
626.796	12027.55
626.991	12099.23
627.185	11892.38
627.38	11820.7
627.574	11626.15
627.768	11480.74
627.963	11597.48
628.157	11341.48
628.352	11392.68
628.546	11286.19
628.74	11300.52
628.935	11271.85
629.129	11181.74
629.323	11161.26
629.517	11194.03
629.712	10978.99
629.906	10993.33
630.1	10798.77
630.294	10940.08
630.489	10682.03
630.683	10952.37
630.877	10712.75
631.071	10464.95
631.265	10716.85
631.459	10460.85
631.653	10315.45
631.848	10524.34
632.042	10249.91
632.236	10213.05
632.43	10346.17
632.624	10376.89
632.818	10235.58
633.012	10180.28
633.206	10049.21
633.4	10241.72
633.594	9940.67
633.788	9877.18
633.982	9887.42
634.176	9639.62
634.369	9760.45
634.563	9739.97
634.757	9627.33
634.951	9604.8
635.145	9647.81
635.339	9524.93
635.533	9301.7
635.726	9459.4
635.92	9178.83
636.114	9232.07
636.308	9275.08
636.501	9113.29
636.695	9154.25
636.889	9096.91
637.083	8988.36
637.276	9012.94
637.47	8926.93
637.664	8955.6
637.857	8892.11
638.051	8785.62
638.244	8660.69
638.438	8761.04
638.632	8595.15
638.825	8683.22
639.019	8558.29
639.212	8558.29
639.406	8531.67
639.599	8468.18
639.793	8341.21
639.986	8290.01
640.18	8320.73
640.373	8242.9
640.567	8142.55
640.76	8316.63
640.954	8156.89
641.147	8085.21
641.34	8081.11
641.534	8068.83
641.727	8177.37
641.92	8111.83
642.114	7839.45
642.307	7782.11
642.5	7667.42
642.694	7487.2
642.887	7698.14
643.08	7847.65
643.273	7589.6
643.467	7718.62
643.66	7384.8
643.853	7562.98
644.046	7331.56
644.239	7476.96
644.432	7370.47
644.626	7343.85
644.819	7380.71
645.012	7337.7
645.205	7229.16
645.398	7239.4
645.591	7016.17
645.784	7218.92
645.977	7130.86
646.17	7069.42
646.363	6997.74
646.556	7143.14
646.749	6997.74
646.942	7028.46
647.135	6797.04
647.328	6741.74
647.521	6823.66
647.714	6754.03
647.907	6749.93
648.099	6715.12
648.292	6711.02
648.485	6600.43
648.678	6514.42
648.871	6584.05
649.064	6653.68
649.256	6567.67
649.449	6471.41
649.642	6510.32
649.835	6448.88
650.027	6313.72
650.22	6387.44
650.413	6323.96
650.605	6291.19
650.798	6276.85
650.991	6051.58
651.183	6420.21
651.376	6172.41
651.568	6153.98
651.761	6014.71
651.954	6014.71
652.146	5959.42
652.339	5965.56
652.531	5965.56
652.724	5961.47
652.916	5713.66
653.109	5959.42
653.301	5738.24
653.494	5904.12
653.686	5699.33
653.879	5811.96
654.071	5834.49
654.263	5666.56
654.456	5668.61
654.648	5676.8
654.84	5541.63
655.033	5492.48
655.225	5515.01
655.417	5336.84
655.61	5531.39
655.802	5347.08
655.994	5263.11
656.186	5435.14
656.379	5316.36
656.571	5295.88
656.763	5449.47
656.955	5170.95
657.148	5170.95
657.34	5259.01
657.532	5148.42
657.724	5136.13
657.916	5054.22
658.108	5254.92
658.3	5060.36
658.492	5099.27
658.684	5056.26
658.876	4972.3
659.068	5048.07
659.26	4949.77
659.452	5132.04
659.644	4902.67
659.836	4828.94
660.028	4933.39
660.22	4878.09
660.412	4867.85
660.604	4802.32
660.796	4777.74
660.988	4724.49
661.18	4644.62
661.372	4558.61
661.563	4628.24
661.755	4468.5
661.947	4550.42
662.139	4572.94
662.331	4564.75
662.522	4601.62
662.714	4501.26
662.906	4357.91
663.097	4431.63
663.289	4376.34
663.481	4488.98
663.673	4562.7
663.864	4343.57
664.056	4310.8
664.247	4275.99
664.439	4161.3
664.631	4392.72
664.822	4292.37
665.014	4138.77
665.205	4073.24
665.397	4286.23
665.588	4216.6
665.78	4103.96
665.971	4149.01
666.163	4161.3
666.354	3960.6
666.546	4173.59
666.737	4052.76
666.929	3833.63
667.12	3942.17
667.311	3936.03
667.503	3983.13
667.694	4126.49
667.885	3792.67
668.077	3981.08
668.268	3878.68
668.459	4013.85
668.651	3897.11
668.842	3854.11
669.033	3847.96
669.224	3714.84
669.416	3897.11
669.607	3774.24
669.798	3759.9
669.989	3741.47
670.18	3708.7
670.371	3755.8
670.563	3692.32
670.754	3634.97
670.945	3682.08
671.136	3637.02
671.327	3618.59
671.518	3651.36
671.709	3639.07
671.9	3522.34
672.091	3528.48
672.282	3626.78
672.473	3616.54
672.664	3536.67
672.855	3587.87
673.046	3520.29
673.237	3561.25
673.428	3403.55
673.619	3548.96
673.809	3366.69
674	3460.9
674.191	3307.3
674.382	3436.32
674.573	3376.93
674.764	3514.14
674.954	3485.47
675.145	3348.26
675.336	3290.92
675.527	3409.7
675.717	3325.73
675.908	3262.24
676.099	3245.86
676.289	3366.69
676.48	3286.82
676.671	3188.52
676.861	3235.62
677.052	3307.3
677.243	3194.66
677.433	3264.29
677.624	3243.81
677.814	3233.57
678.005	3219.24
678.195	3309.35
678.386	3282.72
678.576	3223.33
678.767	3176.23
678.957	3163.94
679.148	3280.68
679.338	3022.63
679.529	3041.06
679.719	3163.94
679.909	3174.18
680.1	3114.79
680.29	3030.82
680.481	3100.45
680.671	3106.6
680.861	3026.73
681.052	3219.24
681.242	3157.8
681.432	3184.42
681.622	3190.56
681.813	3088.17
682.003	3129.13
682.193	3086.12
682.383	2998.06
682.573	2981.67
682.764	2955.05
682.954	3030.82
683.144	3043.11
683.334	3055.4
683.524	2967.34
683.714	3094.31
683.904	3049.25
684.094	2953
684.284	2977.58
684.474	2977.58
684.664	2936.62
684.854	2832.17
685.044	2811.69
685.234	2869.03
685.424	3012.39
685.614	2914.09
685.804	2957.1
685.994	2858.79
686.184	2811.69
686.374	2873.13
686.564	2877.23
686.753	2989.86
686.943	2846.51
687.133	2840.36
687.323	2746.16
687.513	2770.73
687.702	2803.5
687.892	2703.15
688.082	2793.26
688.272	2752.3
688.461	2780.97
688.651	2729.77
688.841	2721.58
689.03	2654
689.22	2709.29
689.41	2801.45
689.599	2641.71
689.789	2610.99
689.979	2690.86
690.168	2639.66
690.358	2555.69
690.547	2488.11
690.737	2438.96
690.926	2484.02
691.116	2529.07
691.305	2606.89
691.495	2518.83
691.684	2545.45
691.874	2576.17
692.063	2504.5
692.252	2563.89
692.442	2524.97
692.631	2543.41
692.82	2496.3
693.01	2428.72
693.199	2463.54
693.388	2479.92
693.578	2420.53
693.767	2412.34
693.956	2441.01
694.146	2400.05
694.335	2379.57
694.524	2479.92
694.713	2424.62
694.902	2271.03
695.092	2398
695.281	2242.36
695.47	2246.45
695.659	2400.05
695.848	2357.04
696.037	2297.65
696.226	2400.05
696.415	2352.95
696.604	2342.71
696.793	2400.05
696.982	2340.66
697.171	2305.84
697.36	2273.07
697.549	2268.98
697.738	2283.31
697.927	2275.12
698.116	2287.41
698.305	2246.45
698.494	2289.46
698.683	2258.74
698.872	2252.59
699.061	2291.51
699.25	2256.69
699.438	2187.06
699.627	2350.9
699.816	2219.83
700.005	2221.88
700.193	2246.45
700.382	2201.4
700.571	2180.92
700.76	2170.68
700.948	2221.88
701.137	2266.93
701.326	2336.56
701.514	2094.9
701.703	2217.78
701.892	2166.58
702.08	2293.55
702.269	2101.05
702.457	2119.48
702.646	2262.83
702.834	2309.94
703.023	2058.04
703.212	2086.71
703.4	2090.81
703.589	2223.92
703.777	2262.83
703.965	2101.05
704.154	2148.15
704.342	2232.12
704.531	2195.25
704.719	2219.83
704.907	2162.48
705.096	2131.76
705.284	2201.4
705.472	2146.1
705.661	2240.31
705.849	2168.63
706.037	2113.33
706.226	2182.96
706.414	2170.68
706.602	2182.96
706.79	2162.48
706.979	2250.55
707.167	2031.41
707.355	2058.04
707.543	2217.78
707.731	2244.4
707.919	2225.97
708.107	2088.76
708.296	2117.43
708.484	2131.76
708.672	2199.35
708.86	2187.06
709.048	2080.57
709.236	2160.44
709.424	2156.34
709.612	2062.13
709.8	2178.87
709.988	2107.19
710.176	2170.68
710.364	2129.72
710.551	2088.76
710.739	2195.25
710.927	2103.09
711.115	2154.29
711.303	2068.28
711.491	2172.72
711.679	2080.57
711.866	2076.47
712.054	2178.87
712.242	2144.05
712.43	2172.72
712.617	2129.72
712.805	2004.79
712.993	2219.83
713.181	2240.31
713.368	2051.89
713.556	2180.92
713.744	2072.37
713.931	2047.8
714.119	2119.48
714.306	2045.75
714.494	2127.67
714.682	2072.37
714.869	2137.91
715.057	2152.24
715.244	1935.16
715.432	2060.09
715.619	2101.05
715.807	2033.46
715.994	2092.85
716.182	2017.08
716.369	2055.99
716.556	2221.88
716.744	2000.69
716.931	2015.03
717.119	2027.32
717.306	2053.94
717.493	2123.57
717.681	2146.1
717.868	2031.41
718.055	2123.57
718.242	2092.85
718.43	2049.85
718.617	2043.7
718.804	2109.24
718.991	2142
719.179	2027.32
719.366	1972.02
719.553	2015.03
719.74	2072.37
719.927	2051.89
720.114	1947.45
720.301	2025.27
720.488	2142
720.676	2017.08
720.863	2129.72
721.05	2033.46
721.237	2051.89
721.424	2047.8
721.611	2015.03
721.798	1980.22
721.985	2070.33
722.172	2064.18
722.358	2062.13
722.545	2019.13
722.732	2088.76
722.919	2047.8
723.106	1939.26
723.293	2025.27
723.48	2039.61
723.667	1929.02
723.853	1861.43
724.04	2000.69
724.227	2101.05
724.414	1978.17
724.6	2002.74
724.787	1992.5
724.974	2068.28
725.161	2035.51
725.347	2023.22
725.534	2053.94
725.72	2012.98
725.907	2099
726.094	2033.46
726.28	1933.11
726.467	2006.84
726.653	2062.13
726.84	2031.41
727.027	2064.18
727.213	2043.7
727.4	2121.52
727.586	2049.85
727.773	2017.08
727.959	2119.48
728.145	2002.74
728.332	2029.37
728.518	1951.54
728.705	1996.6
728.891	2002.74
729.077	1937.21
729.264	2021.17
729.45	1924.92
729.636	2055.99
729.823	2049.85
730.009	2004.79
730.195	1953.59
730.382	2008.89
730.568	2055.99
730.754	2035.51
730.94	1998.65
731.126	2023.22
731.313	2025.27
731.499	2008.89
731.685	1990.45
731.871	1978.17
732.057	1974.07
732.243	1978.17
732.429	2023.22
732.615	2010.93
732.801	1939.26
732.987	1972.02
733.173	1926.97
733.359	2160.44
733.545	2055.99
733.731	2023.22
733.917	2127.67
734.103	1924.92
734.289	1945.4
734.475	1967.93
734.661	2002.74
734.847	1976.12
735.033	1939.26
735.219	1924.92
735.404	2023.22
735.59	2053.94
735.776	1972.02
735.962	1900.34
736.148	1959.74
736.333	1953.59
736.519	1926.97
736.705	1926.97
736.89	1935.16
737.076	1920.82
737.262	2000.69
737.447	1920.82
737.633	1896.25
737.819	1982.26
738.004	1929.02
738.19	1832.76
738.375	1802.04
738.561	1924.92
738.747	2023.22
738.932	1834.81
739.118	1894.2
739.303	1912.63
739.489	1730.36
739.674	1853.24
739.859	1871.67
740.045	1955.64
740.23	1910.58
740.416	1814.33
740.601	1900.34
740.786	1869.62
740.972	1799.99
741.157	1896.25
741.342	1853.24
741.528	1822.52
741.713	1865.53
741.898	1847.1
742.084	1863.48
742.269	1767.23
742.454	1828.67
742.639	1781.56
742.824	1716.03
743.01	1799.99
743.195	1740.6
743.38	1855.29
743.565	1851.19
743.75	1853.24
743.935	1722.17
744.12	1802.04
744.305	1742.65
744.49	1744.7
744.675	1763.13
744.86	1787.71
745.045	1783.61
745.23	1724.22
745.415	1601.34
745.6	1730.36
745.785	1695.55
745.97	1713.98
746.155	1756.99
746.34	1705.79
746.525	1703.74
746.71	1730.36
746.895	1589.05
747.079	1703.74
747.264	1589.05
747.449	1621.82
747.634	1609.53
747.819	1638.2
748.003	1568.57
748.188	1582.91
748.373	1517.37
748.557	1533.76
748.742	1554.24
748.927	1529.66
749.111	1552.19
749.296	1554.24
749.481	1521.47
749.665	1507.13
749.85	1517.37
750.034	1515.33
750.219	1433.41
750.404	1419.07
750.588	1541.95
750.773	1466.17
750.957	1488.7
751.141	1408.83
751.326	1371.97
751.51	1437.5
751.695	1445.7
751.879	1398.59
752.064	1394.5
752.248	1445.7
752.432	1404.74
752.617	1421.12
752.801	1310.53
752.985	1337.15
753.17	1414.98
753.354	1369.92
753.538	1335.1
753.722	1322.82
753.907	1271.62
754.091	1259.33
754.275	1339.2
754.459	1355.58
754.643	1208.13
754.828	1222.47
755.012	1279.81
755.196	1146.69
755.38	1267.52
755.564	1171.27
755.748	1228.61
755.932	1290.05
756.116	1150.79
756.3	1142.6
756.484	1275.71
756.668	1118.02
756.852	1046.34
757.036	1171.27
757.22	1138.5
757.404	1128.26
757.588	1171.27
757.772	1064.77
757.956	1158.98
758.14	1218.37
758.323	1070.92
758.507	1089.35
758.691	991.05
758.875	1027.91
759.059	1089.35
759.242	1027.91
759.426	1040.2
759.61	982.85
759.794	1054.53
759.977	1066.82
760.161	999.24
760.345	999.24
760.528	929.61
760.712	1040.2
760.895	1036.1
761.079	1005.38
761.263	958.28
761.446	1081.16
761.63	970.57
761.813	989
761.997	966.47
762.18	937.8
762.364	1007.43
762.547	937.8
762.731	976.71
762.914	943.94
763.098	835.4
763.281	986.95
763.464	913.22
763.648	1005.38
763.831	1029.96
764.015	931.66
764.198	937.8
764.381	966.47
764.564	945.99
764.748	864.07
764.931	905.03
765.114	945.99
765.297	907.08
765.481	921.42
765.664	927.56
765.847	898.89
766.03	874.31
766.213	800.59
766.397	896.84
766.58	900.94
766.763	886.6
766.946	859.98
767.129	798.54
767.312	864.07
767.495	888.65
767.678	845.64
767.861	921.42
768.044	847.69
768.227	829.26
768.41	823.11
768.593	833.35
768.776	843.59
768.959	802.63
769.142	780.11
769.324	786.25
769.507	833.35
769.69	784.2
769.873	810.82
770.056	833.35
770.239	806.73
770.421	773.96
770.604	816.97
770.787	855.88
770.97	747.34
771.152	741.19
771.335	808.78
771.518	718.67
771.7	603.98
771.883	737.1
772.066	839.5
772.248	798.54
772.431	821.06
772.613	776.01
772.796	798.54
772.978	724.81
773.161	704.33
773.343	696.14
773.526	708.43
773.708	630.6
773.891	657.23
774.073	726.86
774.256	665.42
774.438	800.59
774.621	706.38
774.803	757.58
774.985	667.47
775.168	753.48
775.35	606.03
775.532	698.19
775.715	698.19
775.897	640.84
776.079	624.46
776.261	630.6
776.444	687.95
776.626	632.65
776.808	569.16
776.99	583.5
777.173	563.02
777.355	681.8
777.537	679.75
777.719	599.88
777.901	526.16
778.083	651.08
778.265	628.56
778.447	630.6
778.629	556.88
778.811	522.06
778.993	546.64
779.175	606.03
779.357	544.59
779.539	589.64
779.721	638.8
779.903	550.73
780.085	452.43
780.267	567.12
780.449	593.74
780.631	569.16
780.812	593.74
780.994	563.02
781.176	626.51
781.358	499.53
781.54	472.91
781.721	530.25
781.903	464.72
782.085	524.11
782.267	479.05
782.448	522.06
782.63	462.67
782.812	472.91
782.993	446.29
783.175	425.81
783.357	415.57
783.538	462.67
783.72	431.95
783.901	503.63
784.083	485.2
784.264	483.15
784.446	411.47
784.627	397.14
784.809	517.97
784.99	434
785.172	409.42
785.353	425.81
785.535	388.94
785.716	405.33
785.897	440.14
786.079	446.29
786.26	450.38
786.441	429.9
786.623	354.13
786.804	384.85
786.985	378.7
787.167	403.28
787.348	350.03
787.529	401.23
787.71	411.47
787.891	438.09
788.073	431.95
788.254	368.46
788.435	409.42
788.616	364.37
788.797	327.5
788.978	403.28
789.159	337.74
789.34	360.27
789.522	370.51
789.703	331.6
789.884	390.99
790.065	249.68
790.246	440.14
790.427	294.74
790.607	347.98
790.788	425.81
790.969	347.98
791.15	401.23
791.331	364.37
791.512	286.54
791.693	368.46
791.874	352.08
792.054	364.37
792.235	354.13
792.416	300.88
792.597	352.08
792.778	339.79
792.958	352.08
793.139	366.42
793.32	309.07
793.5	290.64
793.681	339.79
793.862	237.39
794.042	372.56
794.223	302.93
794.404	276.31
794.584	319.31
794.765	259.92
794.945	221.01
795.126	288.59
795.306	321.36
795.487	264.02
795.667	229.2
795.848	292.69
796.028	229.2
796.209	259.92
796.389	304.98
796.57	300.88
796.75	259.92
796.93	298.83
797.111	184.15
797.291	311.12
797.471	302.93
797.652	266.07
797.832	204.63
798.012	298.83
798.192	233.3
798.373	188.24
798.553	194.39
798.733	282.45
798.913	194.39
799.093	255.83
799.274	202.58
799.454	278.35
799.634	253.78
799.814	180.05
799.994	245.59
800.174	294.74
800.354	298.83
800.534	239.44
800.714	278.35
800.894	241.49
801.074	157.52
801.254	231.25
801.434	276.31
801.614	247.63
801.794	167.76
801.974	546.64
802.154	184.15
802.334	216.91
802.514	261.97
802.693	157.52
802.873	196.43
803.053	206.67
803.233	204.63
803.413	216.91
803.592	208.72
803.772	184.15
803.952	208.72
804.131	173.91
804.311	233.3
804.491	196.43
804.67	69.46
804.85	194.39
805.03	182.1
805.209	255.83
805.389	151.38
805.568	161.62
805.748	198.48
805.928	169.81
806.107	143.19
806.287	163.67
806.466	149.33
806.646	212.82
806.825	147.28
807.004	180.05
807.184	278.35
807.363	202.58
807.543	194.39
807.722	190.29
807.901	233.3
808.081	188.24
808.26	202.58
808.439	171.86
808.619	210.77
808.798	196.43
808.977	175.95
809.156	264.02
809.336	200.53
809.515	163.67
809.694	116.56
809.873	188.24
810.052	157.52
810.231	216.91
810.411	149.33
810.59	178
810.769	163.67
810.948	118.61
811.127	122.71
811.306	206.67
811.485	130.9
811.664	122.71
811.843	145.24
812.022	198.48
812.201	114.52
812.38	206.67
812.559	120.66
812.737	135
812.916	118.61
813.095	188.24
813.274	77.65
813.453	165.71
813.632	159.57
813.811	225.11
813.989	94.04
814.168	190.29
814.347	143.19
814.526	143.19
814.704	157.52
814.883	147.28
815.062	104.28
815.24	141.14
815.419	104.28
815.598	98.13
815.776	61.27
815.955	184.15
816.133	102.23
816.312	81.75
816.49	106.32
816.669	120.66
816.847	79.7
817.026	155.47
817.204	130.9
817.383	124.76
817.561	139.09
817.74	122.71
817.918	106.32
818.097	75.6
818.275	57.17
818.453	147.28
818.632	135
818.81	182.1
818.988	91.99
819.167	124.76
819.345	147.28
819.523	147.28
819.701	147.28
819.879	137.04
820.058	130.9
820.236	126.8
820.414	30.55
820.592	141.14
820.77	120.66
820.948	83.8
821.127	106.32
821.305	87.89
821.483	116.56
821.661	96.08
821.839	114.52
822.017	89.94
822.195	108.37
822.373	120.66
822.551	73.56
822.729	91.99
822.907	48.98
823.085	135
823.262	112.47
823.44	40.79
823.618	124.76
823.796	118.61
823.974	24.4
824.152	79.7
824.329	122.71
824.507	137.04
824.685	96.08
824.863	42.84
825.04	114.52
825.218	163.67
825.396	126.8
825.574	141.14
825.751	147.28
825.929	171.86
826.107	149.33
826.284	81.75
826.462	135
826.639	104.28
826.817	48.98
826.994	96.08
827.172	53.08
827.349	116.56
827.527	38.74
827.704	-10.41
827.882	126.8
828.059	114.52
828.237	34.64
828.414	116.56
828.591	-12.46
828.769	20.31
828.946	53.08
829.124	42.84
829.301	40.79
829.478	96.08
829.655	20.31
829.833	81.75
830.01	91.99
830.187	55.12
830.364	108.37
830.542	124.76
830.719	110.42
830.896	128.85
831.073	55.12
831.25	112.47
831.427	112.47
831.604	-0.17
831.782	22.36
831.959	34.64
832.136	108.37
832.313	79.7
832.49	77.65
832.667	124.76
832.844	98.13
833.021	61.27
833.198	61.27
833.374	81.75
833.551	106.32
833.728	91.99
833.905	126.8
834.082	130.9
834.259	122.71
834.436	126.8
834.612	18.26
834.789	124.76
834.966	104.28
835.143	79.7
835.319	124.76
835.496	18.26
835.673	12.12
835.85	83.8
836.026	38.74
836.203	71.51
836.38	147.28
836.556	91.99
836.733	59.22
836.909	75.6
837.086	110.42
837.262	85.84
837.439	69.46
837.616	55.12
837.792	130.9
837.968	48.98
838.145	30.55
838.321	91.99
838.498	89.94
838.674	130.9
838.851	46.93
839.027	67.41
839.203	-6.31
839.38	139.09
839.556	38.74
839.732	46.93
839.909	145.24
840.085	20.31
840.261	75.6
840.437	102.23
840.614	57.17
840.79	110.42
840.966	28.5
841.142	53.08
841.318	36.69
841.494	141.14
841.671	69.46
841.847	71.51
842.023	10.07
842.199	91.99
842.375	89.94
842.551	28.5
842.727	30.55
842.903	85.84
843.079	38.74
843.255	81.75
843.431	-0.17
843.607	18.26
843.783	-39.08
843.959	73.56
844.134	18.26
844.31	91.99
844.486	87.89
844.662	46.93
844.838	32.6
845.013	24.4
845.189	75.6
845.365	14.17
845.541	53.08
845.716	16.21
845.892	106.32
846.068	32.6
846.244	28.5
846.419	26.45
846.595	26.45
846.77	28.5
846.946	91.99
847.122	128.85
847.297	-49.32
847.473	112.47
847.648	-20.65
847.824	38.74
847.999	1.88
848.175	20.31
848.35	87.89
848.526	110.42
848.701	69.46
848.876	59.22
849.052	98.13
849.227	87.89
849.403	20.31
849.578	28.5
849.753	46.93
849.929	18.26
850.104	8.02
850.279	81.75
850.454	20.31
850.63	34.64
850.805	46.93
850.98	28.5
851.155	-6.31
851.33	36.69
851.505	22.36
851.681	89.94
851.856	-12.46
852.031	12.12
852.206	-6.31
852.381	-2.22
852.556	12.12
852.731	48.98
852.906	1.88
853.081	96.08
853.256	46.93
853.431	143.19
853.606	-26.79
853.781	32.6
853.956	-20.65
854.131	61.27
854.305	8.02
854.48	3.93
854.655	-4.27
854.83	14.17
855.005	44.88
855.18	51.03
855.354	10.07
855.529	51.03
855.704	-2.22
855.879	120.66
856.053	-10.41
856.228	36.69
856.403	53.08
856.577	91.99
856.752	-16.55
856.926	-41.13
857.101	79.7
857.276	14.17
857.45	48.98
857.625	85.84
857.799	-24.75
857.974	32.6
858.148	24.4
858.323	36.69
858.497	-16.55
858.672	-14.51
858.846	32.6
859.02	38.74
859.195	-18.6
859.369	32.6
859.543	14.17
859.718	3.93
859.892	71.51
860.066	16.21
860.241	12.12
860.415	-4.27
860.589	73.56
860.763	53.08
860.938	57.17
861.112	38.74
861.286	-28.84
861.46	75.6
861.634	16.21
861.808	89.94
861.982	55.12
862.157	28.5
862.331	-22.7
862.505	-24.75
862.679	-12.46
862.853	34.64
863.027	-16.55
863.201	67.41
863.375	20.31
863.549	46.93
863.722	36.69
863.896	14.17
864.07	20.31
864.244	-26.79
864.418	40.79
864.592	46.93
864.766	40.79
864.939	-24.75
865.113	40.79
865.287	63.32
865.461	-47.27
865.634	24.4
865.808	8.02
865.982	18.26
866.156	30.55
866.329	-22.7
866.503	-24.75
866.676	96.08
866.85	106.32
867.024	46.93
867.197	14.17
867.371	106.32
867.544	79.7
867.718	-8.36
867.891	-12.46
868.065	-6.31
868.238	-0.17
868.412	14.17
868.585	40.79
868.759	-16.55
868.932	12.12
869.105	-61.61
869.279	114.52
869.452	48.98
869.625	3.93
869.799	42.84
869.972	-16.55
870.145	69.46
870.319	26.45
870.492	3.93
870.665	40.79
870.838	20.31
871.011	1.88
871.185	18.26
871.358	24.4
871.531	73.56
871.704	-4.27
871.877	22.36
872.05	32.6
872.223	-8.36
872.396	48.98
872.569	98.13
872.742	-39.08
872.915	69.46
873.088	30.55
873.261	-26.79
873.434	71.51
873.607	16.21
873.78	3.93
873.953	57.17
874.126	12.12
874.299	10.07
874.471	-8.36
874.644	18.26
874.817	-8.36
874.99	83.8
875.163	-14.51
875.335	40.79
875.508	36.69
875.681	63.32
875.853	-16.55
876.026	3.93
876.199	67.41
876.371	26.45
876.544	8.02
876.717	61.27
876.889	51.03
877.062	-10.41
877.234	28.5
877.407	53.08
877.579	-12.46
877.752	-4.27
877.924	-0.17
878.097	24.4
878.269	-30.89
878.442	12.12
878.614	44.88
878.786	20.31
878.959	85.84
879.131	26.45
879.303	40.79
879.476	40.79
879.648	40.79
879.82	-26.79
879.993	14.17
880.165	48.98
880.337	8.02
880.509	61.27
880.681	-47.27
880.854	55.12
881.026	-14.51
881.198	46.93
881.37	30.55
881.542	-32.94
881.714	12.12
881.886	-0.17
882.058	71.51
882.23	42.84
882.402	48.98
882.574	1.88
882.746	65.36
882.918	-24.75
883.09	-12.46
883.262	1.88
883.434	44.88
883.606	-12.46
883.778	1.88
883.95	5.97
884.122	38.74
884.293	-18.6
884.465	18.26
884.637	32.6
884.809	38.74
884.98	98.13
885.152	-26.79
885.324	65.36
885.496	12.12
885.667	40.79
885.839	12.12
886.011	141.14
886.182	8.02
886.354	16.21
886.525	51.03
886.697	1.88
886.869	20.31
887.04	12.12
887.212	46.93
887.383	20.31
887.555	12.12
887.726	10.07
887.897	46.93
888.069	-6.31
888.24	16.21
888.412	30.55
888.583	-20.65
888.754	44.88
888.926	-82.09
889.097	22.36
889.268	3.93
889.44	-8.36
889.611	-20.65
889.782	-41.13
889.953	1.88
890.125	24.4
890.296	-92.33
890.467	-0.17
890.638	-30.89
890.809	89.94
890.98	-8.36
891.151	12.12
891.323	20.31
891.494	55.12
891.665	-18.6
891.836	30.55
892.007	14.17
892.178	-0.17
892.349	20.31
892.52	3.93
892.691	46.93
892.862	-2.22
893.032	-4.27
893.203	-49.32
893.374	-32.94
893.545	57.17
893.716	-4.27
893.887	89.94
894.057	-22.7
894.228	16.21
894.399	59.22
894.57	-6.31
894.74	51.03
894.911	-51.37
895.082	-28.84
895.253	61.27
895.423	-12.46
895.594	28.5
895.764	46.93
895.935	53.08
896.106	55.12
896.276	110.42
896.447	53.08
896.617	61.27
896.788	-12.46
896.958	42.84
897.129	53.08
897.299	-6.31
897.47	59.22
897.64	38.74
897.81	24.4
897.981	1.88
898.151	-12.46
898.322	16.21
898.492	63.32
898.662	10.07
898.832	1.88
899.003	32.6
899.173	-14.51
899.343	44.88
899.513	-24.75
