Data from USB4F104151__272__11-12-13-485.txt Node

Date: Wed Mar 12 11:12:13 EDT 2025
User: louis
Spectrometer: USB4F10415
Trigger mode: 4
Integration Time (sec): 2.000000E-2
Scans to average: 1
Electric dark correction enabled: true
Nonlinearity correction enabled: false
Boxcar width: 0
XAxis mode: Wavelengths
Number of Pixels in Spectrum: 3648
>>>>>Begin Spectral Data<<<<<
178.204	-87.89
178.424	-87.89
178.644	-87.89
178.864	-69.46
179.084	-83.8
179.304	28.84
179.524	-46.93
179.744	18.6
179.964	80.04
180.184	-40.79
180.404	24.75
180.624	-18.26
180.844	-8.02
181.064	-55.12
181.283	-55.12
181.503	24.75
181.723	47.27
181.943	-16.21
182.163	24.75
182.383	71.85
182.602	-42.84
182.822	90.28
183.042	34.99
183.262	86.19
183.482	57.51
183.701	-48.98
183.921	32.94
184.141	39.08
184.361	104.62
184.58	10.41
184.8	37.03
185.02	6.31
185.239	14.51
185.459	-12.12
185.679	55.47
185.898	-14.17
186.118	12.46
186.338	37.03
186.557	-3.93
186.777	39.08
186.997	26.79
187.216	4.27
187.436	161.96
187.655	12.46
187.875	8.36
188.095	-10.07
188.314	22.7
188.534	8.36
188.753	41.13
188.973	82.09
189.192	59.56
189.412	2.22
189.631	30.89
189.851	96.43
190.07	-12.12
190.29	37.03
190.509	-1.88
190.729	-26.45
190.948	14.51
191.168	84.14
191.387	71.85
191.607	16.55
191.826	2.22
192.045	10.41
192.265	75.95
192.484	-12.12
192.704	14.51
192.923	-14.17
193.142	43.18
193.362	30.89
193.581	32.94
193.8	47.27
194.02	2.22
194.239	34.99
194.458	4.27
194.678	39.08
194.897	88.23
195.116	90.28
195.335	63.66
195.555	12.46
195.774	34.99
195.993	37.03
196.212	69.8
196.432	16.55
196.651	26.79
196.87	-24.4
197.089	65.71
197.308	45.23
197.528	14.51
197.747	-38.74
197.966	37.03
198.185	61.61
198.404	55.47
198.623	37.03
198.842	61.61
199.062	61.61
199.281	28.84
199.5	39.08
199.719	16.55
199.938	37.03
200.157	98.47
200.376	-3.93
200.595	41.13
200.814	61.61
201.033	-16.21
201.252	0.17
201.471	51.37
201.69	30.89
201.909	28.84
202.128	12.46
202.347	26.79
202.566	32.94
202.785	-18.26
203.004	28.84
203.223	75.95
203.442	55.47
203.661	-5.97
203.879	28.84
204.098	24.75
204.317	-14.17
204.536	41.13
204.755	32.94
204.974	20.65
205.193	30.89
205.411	61.61
205.63	59.56
205.849	12.46
206.068	-32.6
206.287	45.23
206.505	71.85
206.724	-10.07
206.943	51.37
207.162	39.08
207.381	10.41
207.599	86.19
207.818	0.17
208.037	84.14
208.255	-10.07
208.474	6.31
208.693	34.99
208.911	-44.88
209.13	-46.93
209.349	16.55
209.567	22.7
209.786	45.23
210.005	24.75
210.223	67.75
210.442	24.75
210.661	-28.5
210.879	6.31
211.098	16.55
211.316	2.22
211.535	82.09
211.753	32.94
211.972	-20.31
212.191	55.47
212.409	30.89
212.628	-18.26
212.846	-30.55
213.065	77.99
213.283	55.47
213.502	22.7
213.72	30.89
213.938	-8.02
214.157	71.85
214.375	47.27
214.594	55.47
214.812	63.66
215.031	37.03
215.249	-42.84
215.467	43.18
215.686	-5.97
215.904	30.89
216.122	14.51
216.341	59.56
216.559	-44.88
216.778	104.62
216.996	86.19
217.214	0.17
217.432	12.46
217.651	10.41
217.869	49.32
218.087	57.51
218.306	14.51
218.524	-32.6
218.742	-12.12
218.96	110.76
219.179	71.85
219.397	0.17
219.615	102.57
219.833	16.55
220.051	-1.88
220.27	49.32
220.488	86.19
220.706	43.18
220.924	39.08
221.142	22.7
221.36	6.31
221.578	-1.88
221.796	37.03
222.015	18.6
222.233	73.9
222.451	43.18
222.669	-8.02
222.887	0.17
223.105	-1.88
223.323	2.22
223.541	32.94
223.759	114.86
223.977	-8.02
224.195	80.04
224.413	30.89
224.631	61.61
224.849	77.99
225.067	43.18
225.285	16.55
225.503	49.32
225.721	20.65
225.939	57.51
226.157	8.36
226.375	12.46
226.592	-3.93
226.81	-14.17
227.028	102.57
227.246	98.47
227.464	28.84
227.682	12.46
227.9	51.37
228.117	26.79
228.335	6.31
228.553	-14.17
228.771	-3.93
228.989	2.22
229.206	55.47
229.424	-38.74
229.642	-24.4
229.86	-34.64
230.077	18.6
230.295	14.51
230.513	18.6
230.731	-40.79
230.948	28.84
231.166	55.47
231.384	65.71
231.601	82.09
231.819	0.17
232.037	57.51
232.254	34.99
232.472	45.23
232.689	-5.97
232.907	2.22
233.125	-36.69
233.342	63.66
233.56	-3.93
233.777	71.85
233.995	71.85
234.213	43.18
234.43	69.8
234.648	18.6
234.865	-65.36
235.083	90.28
235.3	0.17
235.518	18.6
235.735	100.52
235.953	-67.41
236.17	28.84
236.388	110.76
236.605	14.51
236.822	26.79
237.04	51.37
237.257	-22.36
237.475	6.31
237.692	14.51
237.909	63.66
238.127	51.37
238.344	-22.36
238.562	14.51
238.779	4.27
238.996	-5.97
239.214	30.89
239.431	24.75
239.648	-26.45
239.865	86.19
240.083	22.7
240.3	0.17
240.517	-32.6
240.735	82.09
240.952	67.75
241.169	43.18
241.386	-36.69
241.603	53.42
241.821	12.46
242.038	20.65
242.255	30.89
242.472	-53.08
242.689	43.18
242.907	57.51
243.124	53.42
243.341	2.22
243.558	71.85
243.775	82.09
243.992	-46.93
244.209	39.08
244.426	80.04
244.643	20.65
244.86	51.37
245.078	71.85
245.295	161.96
245.512	67.75
245.729	45.23
245.946	145.58
246.163	18.6
246.38	106.67
246.597	14.51
246.814	51.37
247.031	18.6
247.248	30.89
247.464	73.9
247.681	18.6
247.898	157.86
248.115	129.19
248.332	61.61
248.549	-3.93
248.766	26.79
248.983	90.28
249.2	67.75
249.417	14.51
249.633	-73.56
249.85	10.41
250.067	-1.88
250.284	-12.12
250.501	55.47
250.717	-30.55
250.934	-1.88
251.151	98.47
251.368	-48.98
251.585	114.86
251.801	30.89
252.018	-24.4
252.235	82.09
252.451	55.47
252.668	-16.21
252.885	-30.55
253.102	-16.21
253.318	77.99
253.535	6.31
253.752	-22.36
253.968	-44.88
254.185	8.36
254.401	39.08
254.618	94.38
254.835	4.27
255.051	32.94
255.268	-44.88
255.484	73.9
255.701	-28.5
255.917	86.19
256.134	41.13
256.351	110.76
256.567	22.7
256.784	63.66
257	16.55
257.217	-28.5
257.433	14.51
257.65	49.32
257.866	77.99
258.082	-8.02
258.299	-16.21
258.515	-16.21
258.732	45.23
258.948	-18.26
259.165	-8.02
259.381	-87.89
259.597	8.36
259.814	10.41
260.03	18.6
260.246	67.75
260.463	34.99
260.679	39.08
260.895	39.08
261.112	71.85
261.328	16.55
261.544	10.41
261.761	90.28
261.977	10.41
262.193	24.75
262.409	28.84
262.626	49.32
262.842	-5.97
263.058	24.75
263.274	53.42
263.49	10.41
263.707	129.19
263.923	-38.74
264.139	39.08
264.355	24.75
264.571	-18.26
264.787	-38.74
265.004	47.27
265.22	59.56
265.436	30.89
265.652	-5.97
265.868	69.8
266.084	-22.36
266.3	16.55
266.516	8.36
266.732	14.51
266.948	90.28
267.164	10.41
267.38	118.95
267.596	37.03
267.812	75.95
268.028	22.7
268.244	-34.64
268.46	8.36
268.676	53.42
268.892	67.75
269.108	-18.26
269.324	18.6
269.54	51.37
269.756	73.9
269.972	-22.36
270.188	55.47
270.403	63.66
270.619	96.43
270.835	43.18
271.051	-5.97
271.267	37.03
271.483	34.99
271.698	30.89
271.914	67.75
272.13	-44.88
272.346	32.94
272.562	-12.12
272.777	-22.36
272.993	32.94
273.209	-3.93
273.425	2.22
273.64	55.47
273.856	14.51
274.072	4.27
274.287	4.27
274.503	37.03
274.719	-38.74
274.934	30.89
275.15	-48.98
275.366	-12.12
275.581	47.27
275.797	-1.88
276.012	14.51
276.228	47.27
276.444	-79.7
276.659	41.13
276.875	-18.26
277.09	65.71
277.306	16.55
277.521	61.61
277.737	51.37
277.952	10.41
278.168	-14.17
278.383	51.37
278.599	69.8
278.814	102.57
279.03	80.04
279.245	53.42
279.461	18.6
279.676	139.43
279.892	34.99
280.107	-18.26
280.322	90.28
280.538	53.42
280.753	51.37
280.969	55.47
281.184	57.51
281.399	84.14
281.615	34.99
281.83	39.08
282.045	-5.97
282.26	22.7
282.476	59.56
282.691	26.79
282.906	51.37
283.122	-22.36
283.337	-12.12
283.552	88.23
283.767	84.14
283.983	51.37
284.198	75.95
284.413	10.41
284.628	18.6
284.843	65.71
285.058	-5.97
285.274	14.51
285.489	88.23
285.704	34.99
285.919	-55.12
286.134	-61.27
286.349	-89.94
286.564	30.89
286.779	80.04
286.995	22.7
287.21	39.08
287.425	106.67
287.64	-36.69
287.855	4.27
288.07	-16.21
288.285	2.22
288.5	12.46
288.715	108.71
288.93	-8.02
289.145	6.31
289.36	18.6
289.575	16.55
289.79	47.27
290.004	73.9
290.219	-3.93
290.434	-12.12
290.649	41.13
290.864	30.89
291.079	90.28
291.294	61.61
291.509	34.99
291.724	104.62
291.938	45.23
292.153	-28.5
292.368	-51.03
292.583	57.51
292.798	6.31
293.012	-8.02
293.227	8.36
293.442	49.32
293.657	18.6
293.871	67.75
294.086	57.51
294.301	39.08
294.516	-5.97
294.73	-1.88
294.945	0.17
295.16	4.27
295.374	26.79
295.589	41.13
295.804	28.84
296.018	51.37
296.233	110.76
296.447	90.28
296.662	-10.07
296.877	94.38
297.091	102.57
297.306	69.8
297.52	37.03
297.735	77.99
297.949	-12.12
298.164	30.89
298.378	18.6
298.593	53.42
298.807	98.47
299.022	24.75
299.236	20.65
299.451	92.33
299.665	37.03
299.88	-26.45
300.094	26.79
300.309	-5.97
300.523	8.36
300.737	92.33
300.952	-48.98
301.166	-36.69
301.381	-24.4
301.595	2.22
301.809	30.89
302.024	-8.02
302.238	-14.17
302.452	84.14
302.667	108.71
302.881	8.36
303.095	22.7
303.309	61.61
303.524	30.89
303.738	49.32
303.952	-18.26
304.166	0.17
304.381	-22.36
304.595	84.14
304.809	-46.93
305.023	-14.17
305.237	-16.21
305.452	82.09
305.666	14.51
305.88	34.99
306.094	-30.55
306.308	24.75
306.522	88.23
306.736	127.14
306.95	43.18
307.164	-24.4
307.379	8.36
307.593	8.36
307.807	80.04
308.021	45.23
308.235	10.41
308.449	24.75
308.663	82.09
308.877	110.76
309.091	104.62
309.305	-28.5
309.519	57.51
309.733	88.23
309.947	55.47
310.161	53.42
310.374	55.47
310.588	47.27
310.802	67.75
311.016	39.08
311.23	73.9
311.444	-55.12
311.658	28.84
311.872	112.81
312.085	4.27
312.299	28.84
312.513	71.85
312.727	104.62
312.941	8.36
313.154	127.14
313.368	32.94
313.582	-8.02
313.796	6.31
314.009	6.31
314.223	51.37
314.437	34.99
314.651	65.71
314.864	34.99
315.078	80.04
315.292	-14.17
315.505	61.61
315.719	71.85
315.933	30.89
316.146	32.94
316.36	-24.4
316.573	71.85
316.787	51.37
317.001	32.94
317.214	-30.55
317.428	32.94
317.641	2.22
317.855	-1.88
318.068	10.41
318.282	82.09
318.495	63.66
318.709	4.27
318.922	73.9
319.136	112.81
319.349	51.37
319.563	47.27
319.776	39.08
319.99	2.22
320.203	82.09
320.417	59.56
320.63	51.37
320.843	10.41
321.057	118.95
321.27	6.31
321.483	49.32
321.697	2.22
321.91	20.65
322.124	28.84
322.337	61.61
322.55	49.32
322.763	75.95
322.977	51.37
323.19	80.04
323.403	49.32
323.617	22.7
323.83	-8.02
324.043	-24.4
324.256	63.66
324.469	2.22
324.683	47.27
324.896	26.79
325.109	-8.02
325.322	2.22
325.535	34.99
325.748	18.6
325.962	-16.21
326.175	28.84
326.388	51.37
326.601	63.66
326.814	28.84
327.027	-28.5
327.24	51.37
327.453	-24.4
327.666	41.13
327.879	24.75
328.092	34.99
328.305	-28.5
328.518	80.04
328.731	30.89
328.944	26.79
329.157	-87.89
329.37	114.86
329.583	20.65
329.796	84.14
330.009	53.42
330.222	45.23
330.435	57.51
330.648	63.66
330.861	73.9
331.073	8.36
331.286	49.32
331.499	16.55
331.712	43.18
331.925	98.47
332.138	69.8
332.35	92.33
332.563	75.95
332.776	51.37
332.989	-51.03
333.202	59.56
333.414	30.89
333.627	16.55
333.84	-20.31
334.053	127.14
334.265	-46.93
334.478	0.17
334.691	53.42
334.903	67.75
335.116	2.22
335.329	32.94
335.541	-10.07
335.754	86.19
335.966	49.32
336.179	63.66
336.392	0.17
336.604	57.51
336.817	32.94
337.029	65.71
337.242	-16.21
337.454	59.56
337.667	30.89
337.88	96.43
338.092	30.89
338.305	18.6
338.517	30.89
338.729	61.61
338.942	51.37
339.154	49.32
339.367	37.03
339.579	96.43
339.792	53.42
340.004	57.51
340.217	-18.26
340.429	43.18
340.641	2.22
340.854	59.56
341.066	8.36
341.278	39.08
341.491	65.71
341.703	20.65
341.915	106.67
342.128	51.37
342.34	65.71
342.552	10.41
342.764	10.41
342.977	77.99
343.189	-30.55
343.401	32.94
343.613	88.23
343.826	73.9
344.038	73.9
344.25	-12.12
344.462	80.04
344.674	51.37
344.886	30.89
345.099	121
345.311	92.33
345.523	47.27
345.735	34.99
345.947	28.84
346.159	100.52
346.371	-8.02
346.583	4.27
346.795	47.27
347.007	59.56
347.219	22.7
347.431	65.71
347.643	-38.74
347.855	-12.12
348.067	30.89
348.279	61.61
348.491	43.18
348.703	22.7
348.915	-18.26
349.127	26.79
349.339	69.8
349.551	16.55
349.763	28.84
349.975	8.36
350.187	55.47
350.399	30.89
350.61	-18.26
350.822	41.13
351.034	-1.88
351.246	6.31
351.458	4.27
351.669	20.65
351.881	90.28
352.093	71.85
352.305	75.95
352.517	45.23
352.728	47.27
352.94	-5.97
353.152	37.03
353.363	8.36
353.575	34.99
353.787	28.84
353.999	30.89
354.21	20.65
354.422	84.14
354.633	71.85
354.845	77.99
355.057	96.43
355.268	77.99
355.48	108.71
355.692	-14.17
355.903	-26.45
356.115	24.75
356.326	77.99
356.538	108.71
356.749	55.47
356.961	14.51
357.172	-26.45
357.384	-24.4
357.595	71.85
357.807	55.47
358.018	18.6
358.23	178.34
358.441	71.85
358.653	84.14
358.864	63.66
359.075	-14.17
359.287	63.66
359.498	57.51
359.709	10.41
359.921	88.23
360.132	75.95
360.344	18.6
360.555	55.47
360.766	84.14
360.977	57.51
361.189	143.53
361.4	63.66
361.611	41.13
361.823	0.17
362.034	73.9
362.245	-5.97
362.456	14.51
362.667	51.37
362.879	12.46
363.09	10.41
363.301	104.62
363.512	14.51
363.723	65.71
363.935	88.23
364.146	10.41
364.357	-12.12
364.568	22.7
364.779	-24.4
364.99	6.31
365.201	0.17
365.412	104.62
365.623	-20.31
365.834	55.47
366.045	151.72
366.256	73.9
366.467	63.66
366.678	8.36
366.889	30.89
367.1	0.17
367.311	49.32
367.522	71.85
367.733	63.66
367.944	121
368.155	16.55
368.366	-22.36
368.577	43.18
368.788	-14.17
368.999	26.79
369.209	8.36
369.42	104.62
369.631	116.9
369.842	32.94
370.053	39.08
370.264	32.94
370.474	51.37
370.685	37.03
370.896	37.03
371.107	121
371.317	22.7
371.528	20.65
371.739	26.79
371.95	51.37
372.16	92.33
372.371	16.55
372.582	-3.93
372.792	82.09
373.003	106.67
373.214	20.65
373.424	26.79
373.635	28.84
373.846	45.23
374.056	6.31
374.267	96.43
374.477	53.42
374.688	75.95
374.898	39.08
375.109	73.9
375.319	30.89
375.53	12.46
375.74	34.99
375.951	-10.07
376.161	43.18
376.372	49.32
376.582	61.61
376.793	69.8
377.003	8.36
377.214	84.14
377.424	39.08
377.635	63.66
377.845	59.56
378.055	30.89
378.266	80.04
378.476	-5.97
378.686	57.51
378.897	22.7
379.107	61.61
379.317	96.43
379.528	41.13
379.738	102.57
379.948	45.23
380.158	61.61
380.369	69.8
380.579	61.61
380.789	2.22
380.999	37.03
381.21	37.03
381.42	8.36
381.63	65.71
381.84	12.46
382.05	45.23
382.261	125.1
382.471	59.56
382.681	90.28
382.891	69.8
383.101	92.33
383.311	16.55
383.521	-1.88
383.731	63.66
383.941	129.19
384.151	43.18
384.361	30.89
384.571	16.55
384.781	75.95
384.991	84.14
385.201	61.61
385.411	73.9
385.621	6.31
385.831	26.79
386.041	121
386.251	65.71
386.461	67.75
386.671	-8.02
386.881	47.27
387.091	67.75
387.301	6.31
387.511	47.27
387.72	112.81
387.93	-46.93
388.14	-24.4
388.35	43.18
388.56	63.66
388.769	116.9
388.979	88.23
389.189	75.95
389.399	61.61
389.609	37.03
389.818	39.08
390.028	55.47
390.238	45.23
390.447	92.33
390.657	88.23
390.867	32.94
391.076	14.51
391.286	71.85
391.496	86.19
391.705	32.94
391.915	57.51
392.125	67.75
392.334	10.41
392.544	75.95
392.753	71.85
392.963	6.31
393.172	8.36
393.382	37.03
393.591	121
393.801	47.27
394.01	67.75
394.22	98.47
394.429	133.29
394.639	135.34
394.848	96.43
395.058	4.27
395.267	14.51
395.477	86.19
395.686	121
395.895	49.32
396.105	184.49
396.314	16.55
396.524	57.51
396.733	80.04
396.942	65.71
397.152	57.51
397.361	65.71
397.57	127.14
397.78	82.09
397.989	63.66
398.198	92.33
398.407	49.32
398.617	51.37
398.826	84.14
399.035	73.9
399.244	116.9
399.453	92.33
399.663	100.52
399.872	129.19
400.081	198.82
400.29	135.34
400.499	75.95
400.708	82.09
400.917	80.04
401.127	151.72
401.336	0.17
401.545	127.14
401.754	116.9
401.963	118.95
402.172	104.62
402.381	57.51
402.59	133.29
402.799	98.47
403.008	135.34
403.217	43.18
403.426	98.47
403.635	86.19
403.844	123.05
404.053	104.62
404.262	159.91
404.471	182.44
404.68	121
404.888	178.34
405.097	114.86
405.306	75.95
405.515	157.86
405.724	73.9
405.933	112.81
406.142	149.67
406.35	192.68
406.559	121
406.768	96.43
406.977	174.25
407.185	219.3
407.394	241.83
407.603	114.86
407.812	207.02
408.02	264.36
408.229	157.86
408.438	215.21
408.646	207.02
408.855	219.3
409.064	235.69
409.272	207.02
409.481	311.46
409.69	211.11
409.898	239.78
410.107	336.04
410.315	270.5
410.524	233.64
410.733	299.17
410.941	286.89
411.15	299.17
411.358	321.7
411.567	311.46
411.775	452.77
411.984	422.05
412.192	469.16
412.401	381.09
412.609	413.86
412.818	508.07
413.026	377
413.234	407.72
413.443	483.49
413.651	532.64
413.86	426.15
414.068	551.07
414.276	460.96
414.485	551.07
414.693	606.37
414.901	620.71
415.11	581.79
415.318	651.42
415.526	702.62
415.734	733.34
415.943	712.86
416.151	811.17
416.359	800.93
416.567	780.45
416.776	766.11
416.984	843.93
417.192	780.45
417.4	915.61
417.608	852.13
417.817	942.24
418.025	1005.72
418.233	1054.87
418.441	1018.01
418.649	993.44
418.857	1122.46
419.065	1132.7
419.273	1083.55
419.481	1243.29
419.689	1214.62
419.897	1292.44
420.105	1353.88
420.313	1376.41
420.521	1458.32
420.729	1521.81
420.937	1534.1
421.145	1534.1
421.353	1618.07
421.561	1677.46
421.769	1771.66
421.977	1747.09
422.185	1949.84
422.393	1810.58
422.601	2054.28
422.809	2013.32
423.017	2050.19
423.224	2095.24
423.432	2224.26
423.64	2140.3
423.848	2351.24
424.056	2318.47
424.263	2492.55
424.471	2476.16
424.679	2547.84
424.887	2752.64
425.094	2812.03
425.302	2719.87
425.51	2816.13
425.718	2971.77
425.925	3002.49
426.133	3053.69
426.341	3303.54
426.548	3451
426.756	3377.27
426.964	3432.57
427.171	3674.23
427.379	3825.78
427.586	3938.41
427.794	3960.94
428.001	4292.71
428.209	4323.43
428.417	4190.31
428.624	4773.99
428.832	4724.83
429.039	4669.54
429.247	4511.85
429.454	4925.54
429.662	5247.07
429.869	4872.29
430.076	5265.5
430.284	5150.81
430.491	5513.3
430.699	5722.2
430.906	5650.52
431.114	5861.46
431.321	5935.18
431.528	6223.95
431.736	6551.62
431.943	6772.8
432.15	6666.31
432.358	6666.31
432.565	6918.21
432.772	7000.13
432.979	7395.39
433.187	7538.74
433.394	7440.44
433.601	7952.43
433.808	7999.54
434.016	8144.94
434.223	8366.12
434.43	8943.65
434.637	8613.93
434.844	9181.21
435.052	9533.47
435.259	9289.76
435.466	9492.51
435.673	9275.42
435.88	9945.11
436.087	10520.59
436.294	10379.28
436.501	10158.1
436.708	10260.49
436.915	10897.41
437.122	11255.81
437.329	11200.51
437.537	11499.52
437.743	11864.05
437.95	11591.67
438.157	12269.55
438.364	12695.53
438.571	12658.67
438.778	12959.72
438.985	13950.93
439.192	13264.86
439.399	13600.73
439.606	13533.15
439.813	14338
440.02	15056.84
440.227	14761.93
440.433	14550.99
440.64	14993.35
440.847	15144.9
441.054	15396.8
441.261	16234.42
441.467	16545.71
441.674	16687.02
441.881	17276.84
442.088	17082.28
442.294	17082.28
442.501	17526.69
442.708	17903.51
442.914	18409.36
443.121	19160.97
443.328	18878.35
443.534	19763.07
443.741	19629.95
443.948	19027.85
444.154	20787.05
444.361	20334.45
444.568	20557.68
444.774	20307.83
444.981	21010.28
445.187	21383.01
445.394	22097.75
445.6	22191.96
445.807	24026.94
446.013	23293.77
446.22	23734.08
446.426	24387.38
446.633	24475.45
446.839	25278.25
447.046	24430.39
447.252	26111.77
447.459	25556.77
447.665	25413.41
447.871	26607.38
448.078	27692.8
448.284	26380.06
448.491	27422.47
448.697	27956.99
448.903	28958.45
449.11	29046.51
449.316	28198.65
449.522	28917.49
449.728	29617.89
449.935	29957.86
450.141	29884.13
450.347	30312.16
450.553	29613.8
450.76	30000.86
450.966	30633.69
451.172	30443.23
451.378	31219.41
451.584	30648.02
451.791	31323.85
451.997	31389.39
452.203	31807.17
452.409	31721.16
452.615	31782.6
452.821	30701.27
453.027	29988.58
453.233	31661.77
453.44	30168.8
453.646	30549.72
453.852	30760.66
454.058	31258.32
454.264	29890.27
454.47	30758.61
454.676	30109.41
454.882	30760.66
455.088	28526.33
455.294	28888.82
455.5	29253.36
455.705	29544.17
455.911	28489.46
456.117	27809.54
456.323	27268.87
456.529	26228.51
456.735	26994.45
456.941	26423.06
457.147	26068.76
457.352	24909.61
457.558	24829.74
457.764	24805.17
457.97	24280.89
458.176	24012.6
458.381	23748.42
458.587	22511.44
458.793	22456.15
458.999	21665.63
459.204	22835.02
459.41	22447.96
459.616	20893.55
459.821	20713.33
460.027	20856.68
460.233	20404.08
460.438	19167.11
460.644	19648.38
460.85	18620.3
461.055	18440.08
461.261	18376.59
461.466	16863.15
461.672	16236.47
461.878	18024.34
462.083	16582.57
462.289	16281.52
462.494	16052.15
462.7	15519.68
462.905	15153.09
463.111	15509.44
463.316	15339.46
463.522	15046.6
463.727	15351.74
463.932	15239.11
464.138	15269.83
464.343	15175.62
464.549	14776.27
464.754	14960.58
464.959	14901.19
465.165	15069.12
465.37	14374.86
465.575	13957.08
465.781	14381.01
465.986	14503.89
466.191	14077.91
466.397	13789.14
466.602	13047.78
466.807	13584.35
467.012	13744.09
467.218	13527
467.423	13514.72
467.628	13428.7
467.833	14077.91
468.038	13506.52
468.244	13031.4
468.449	13432.8
468.654	13176.8
468.859	13049.83
469.064	13058.02
469.269	12451.82
469.474	12646.38
469.679	12789.74
469.885	12222.45
470.09	12756.97
470.295	12742.63
470.5	12085.23
470.705	12457.96
470.91	11988.98
471.115	12029.94
471.32	12275.7
471.525	11939.83
471.73	12056.56
471.935	11767.8
472.139	11180.03
472.344	11501.56
472.549	11188.22
472.754	11218.94
472.959	11141.12
473.164	10715.14
473.369	10733.57
473.574	11096.07
473.778	10770.44
473.983	10741.77
474.188	10709
474.393	10094.61
474.598	10444.81
474.802	10074.13
475.007	10194.96
475.212	9930.77
475.417	9666.58
475.621	9799.7
475.826	9623.58
476.031	9555.99
476.235	9547.8
476.44	9568.28
476.645	9283.61
476.849	9369.63
477.054	9408.54
477.259	9183.26
477.463	9228.32
477.668	8796.2
477.872	8943.65
478.077	8775.72
478.282	8697.89
478.486	8644.65
478.691	8550.44
478.895	8579.11
479.1	8452.14
479.304	8443.95
479.509	8173.61
479.713	8470.57
479.918	8212.53
480.122	8114.22
480.326	8181.81
480.531	8257.58
480.735	8190
480.94	8116.27
481.144	8349.74
481.348	7856.18
481.553	8054.83
481.757	7847.99
481.961	7927.86
482.166	8063.02
482.37	7979.06
482.574	7854.13
482.778	7925.81
482.983	7839.8
483.187	7835.7
483.391	7917.62
483.595	7991.34
483.8	7761.97
484.004	7776.31
484.208	7911.47
484.412	7835.7
484.616	7755.83
484.821	7991.34
485.025	7739.44
485.229	7841.84
485.433	7815.22
485.637	7809.08
485.841	7723.06
486.045	7866.42
486.249	7979.06
486.453	7702.58
486.657	7743.54
486.861	7913.52
487.065	7778.36
487.269	7753.78
487.473	7786.55
487.677	7854.13
487.881	7952.43
488.085	7843.89
488.289	7811.12
488.493	7862.32
488.697	7974.96
488.901	7903.28
489.105	7903.28
489.309	7725.11
489.512	7909.43
489.716	8005.68
489.92	7682.1
490.124	7958.58
490.328	7995.44
490.531	7919.67
490.735	8097.84
490.939	8265.77
491.143	7858.23
491.346	8218.67
491.55	8347.69
491.754	8161.33
491.958	8163.37
492.161	8142.89
492.365	8173.61
492.569	8257.58
492.772	8280.11
492.976	8548.39
493.18	8388.65
493.383	8519.72
493.587	8489
493.79	8489
493.994	8521.77
494.197	8538.15
494.401	8491.05
494.605	8763.43
494.808	8837.16
495.012	8822.82
495.215	8699.94
495.419	9130.02
495.622	9234.46
495.825	9052.19
496.029	8984.61
496.232	9199.65
496.436	9078.82
496.639	9603.1
496.843	9510.94
497.046	9619.48
497.249	9773.08
497.453	9723.93
497.656	9873.43
497.859	9898
498.063	9904.15
498.266	10242.06
498.469	10141.71
498.673	10199.06
498.876	10512.39
499.079	10311.69
499.282	10514.44
499.485	10704.9
499.689	10702.86
499.892	10907.65
500.095	10827.78
500.298	11446.27
500.501	11120.64
500.705	11446.27
500.908	11427.84
501.111	11511.8
501.314	11712.5
501.517	12007.41
501.72	11935.73
501.923	11866.1
502.126	12161.01
502.329	12410.86
502.532	12390.38
502.735	12537.84
502.938	12711.91
503.141	12851.17
503.344	13166.56
503.547	13182.95
503.75	13447.13
503.953	13684.7
504.156	13275.1
504.359	13678.55
504.562	13778.9
504.765	14139.35
504.968	14178.26
505.17	14483.41
505.373	14362.58
505.576	14759.88
505.779	14749.64
505.982	14682.06
506.185	15329.22
506.387	15161.28
506.59	15273.92
506.793	15593.4
506.996	15638.46
507.198	15906.74
507.401	16013.24
507.604	16070.58
507.807	16535.47
508.009	16580.53
508.212	16525.23
508.415	16867.24
508.617	16910.25
508.82	17420.19
509.022	16875.43
509.225	17835.93
509.428	17436.58
509.63	17774.49
509.833	17862.55
510.035	18325.4
510.238	18390.93
510.44	18481.04
510.643	18673.55
510.845	18913.16
511.048	18786.19
511.25	19156.87
511.453	19304.32
511.655	19941.24
511.858	19720.06
512.06	19857.28
512.262	20178.81
512.465	20109.18
512.667	20434.8
512.87	20793.2
513.072	20825.96
513.274	21178.22
513.477	21149.54
513.679	21329.77
513.881	21682.02
514.084	21987.16
514.286	21827.42
514.488	21888.86
514.69	22564.69
514.893	22746.96
515.095	22806.35
515.297	22939.47
515.499	23279.43
515.701	23418.69
515.904	23629.63
516.106	23652.16
516.308	24100.67
516.51	24420.15
516.712	24327.99
516.914	24827.7
517.116	25014.06
517.318	24823.6
517.52	25198.38
517.722	25360.17
517.925	25657.12
518.127	26091.29
518.329	26509.08
518.531	25868.06
518.733	26521.37
518.935	27027.21
519.136	27019.02
519.338	27424.52
519.54	27524.87
519.742	27582.21
519.944	28045.05
520.146	28364.54
520.348	28366.59
520.55	28231.42
520.752	28741.36
520.954	29261.55
521.155	29204.21
521.357	29380.33
521.559	29523.69
521.761	30045.92
521.963	30158.56
522.164	29980.39
522.366	30199.52
522.568	30619.35
522.77	30664.41
522.971	31401.68
523.173	31014.61
523.375	31338.19
523.576	31334.09
523.778	31450.83
523.98	32196.29
524.181	32319.17
524.383	32108.22
524.584	32669.37
524.786	32603.83
524.988	32702.14
525.189	32960.18
525.391	33142.45
525.592	33357.49
525.794	33480.36
525.995	33482.41
526.197	33447.6
526.398	33525.42
526.6	34098.85
526.801	33717.93
527.003	34447.01
527.204	34268.83
527.406	34866.84
527.607	34883.22
527.808	35028.63
528.01	34512.54
528.211	34766.49
528.412	35415.69
528.614	35376.78
528.815	35210.9
529.016	35765.9
529.218	34743.96
529.419	35440.27
529.62	35577.48
529.822	35384.97
530.023	35899.01
530.224	35440.27
530.425	35612.3
530.626	35597.96
530.828	36134.53
531.029	36189.83
531.23	35937.93
531.431	35798.66
531.632	35550.86
531.833	36404.86
532.035	36048.52
532.236	36470.4
532.437	36249.22
532.638	36245.12
532.839	36535.93
533.04	36789.88
533.241	36408.96
533.442	37013.11
533.643	36611.71
533.844	36707.96
534.045	36859.51
534.246	36355.71
534.447	36695.67
534.648	36480.64
534.849	36994.68
535.05	36179.59
535.251	37045.88
535.451	37013.11
535.652	37146.23
535.853	37115.51
536.054	36742.78
536.255	37090.93
536.456	36464.25
536.657	37508.72
536.857	36839.03
537.058	36464.25
537.259	37045.88
537.46	37021.3
537.66	36388.48
537.861	37113.46
538.062	36882.04
538.263	37056.12
538.463	36316.8
538.664	36861.56
538.865	37064.31
539.065	37244.53
539.266	36601.47
539.466	37283.44
539.667	36624
539.868	37123.7
540.068	36931.19
540.269	36933.24
540.469	37465.71
540.67	36222.59
540.87	36884.09
541.071	36607.61
541.271	37293.68
541.472	36818.55
541.672	36976.25
541.873	36875.9
542.073	36667
542.274	36957.81
542.474	36734.59
542.675	36595.32
542.875	37105.27
543.075	36904.57
543.276	36419.2
543.476	36988.53
543.676	36478.59
543.877	36900.47
544.077	36499.07
544.277	36959.86
544.478	36505.21
544.678	37129.84
544.878	36335.23
545.078	36578.94
545.279	36310.66
545.479	36466.3
545.679	36523.65
545.879	36761.21
546.079	36660.86
546.28	36574.84
546.48	36433.53
546.68	36845.18
546.88	36814.46
547.08	36732.54
547.28	36585.08
547.48	36408.96
547.68	36523.65
547.88	36402.82
548.081	36531.84
548.281	36386.43
548.481	36038.28
548.681	36628.09
548.881	36802.17
549.081	36814.46
549.28	36386.43
549.48	36630.14
549.68	36400.77
549.88	36771.45
550.08	36134.53
550.28	36294.27
550.48	36390.53
550.68	36839.03
550.88	36279.94
551.08	36380.29
551.279	36415.1
551.479	36439.68
551.679	36429.44
551.879	36501.12
552.079	36761.21
552.278	36105.86
552.478	36105.86
552.678	36484.73
552.878	36660.86
553.077	36150.92
553.277	35677.83
553.477	36198.02
553.676	35679.88
553.876	35913.35
554.076	35829.38
554.275	35530.38
554.475	35798.66
554.674	35999.37
554.874	36009.61
555.074	35618.44
555.273	35892.87
555.473	35993.22
555.672	35319.44
555.872	35649.16
556.071	35733.13
556.271	36062.85
556.47	35737.23
556.67	35733.13
556.869	35442.32
557.068	35479.18
557.268	35227.28
557.467	35344.02
557.667	35554.96
557.866	35309.2
558.065	35196.56
558.265	35270.29
558.464	34981.52
558.663	35618.44
558.863	34946.71
559.062	35133.07
559.261	34911.89
559.461	35344.02
559.66	34571.93
559.859	35071.64
560.058	34619.03
560.258	34481.82
560.457	34395.81
560.656	34789.02
560.855	34762.39
561.054	34703
561.253	34297.5
561.453	34487.96
561.652	34608.79
561.851	34606.75
562.05	34311.84
562.249	34395.81
562.448	34324.13
562.647	34188.96
562.846	33873.57
563.045	33937.06
563.244	33631.91
563.443	34197.15
563.642	33685.16
563.841	33662.63
564.04	33349.29
564.239	33961.64
564.438	33457.84
564.637	33615.53
564.836	33189.55
565.035	33091.25
565.234	33279.66
565.432	33078.96
565.631	32870.07
565.83	33294
566.029	32890.55
566.228	32575.16
566.427	32548.54
566.625	32700.09
566.824	32446.14
567.023	32609.98
567.222	32026.31
567.42	32425.66
567.619	32272.06
567.818	32161.47
568.016	31995.59
568.215	32089.79
568.414	32073.41
568.612	32306.88
568.811	31772.36
569.01	32048.83
569.208	31416.01
569.407	31909.57
569.605	31305.42
569.804	31698.63
570.002	31186.64
570.201	31549.13
570.4	31305.42
570.598	30940.88
570.797	30920.4
570.995	30936.79
571.193	30578.39
571.392	31143.63
571.59	30875.35
571.789	30846.68
571.987	30453.47
572.186	30488.28
572.384	30201.57
572.582	30519
572.781	30713.56
572.979	29675.24
573.177	30078.69
573.376	30029.54
573.574	29589.22
573.772	30115.55
573.971	29808.36
574.169	29830.88
574.367	29519.59
574.565	29593.32
574.763	29458.15
574.962	29079.28
575.16	28940.02
575.358	29310.7
575.556	28665.59
575.754	29495.02
575.952	28686.07
576.151	29011.7
576.349	28534.52
576.547	28624.63
576.745	28712.69
576.943	28692.21
577.141	28864.24
577.339	28428.02
577.537	28555
577.735	28391.16
577.933	28131.07
578.131	27936.51
578.329	27981.57
578.527	27797.25
578.725	27866.88
578.923	28043.01
579.121	27707.14
579.319	27500.3
579.516	27619.08
579.714	27436.81
579.912	27430.66
580.11	27467.53
580.308	27457.29
580.506	27078.41
580.704	26713.88
580.901	27350.79
581.099	27109.13
581.297	26912.53
581.495	26769.17
581.692	26924.82
581.89	26511.13
582.088	26814.23
582.285	26400.54
582.483	26423.06
582.681	26748.69
582.878	26353.43
583.076	26263.32
583.274	26433.3
583.471	25978.65
583.669	26257.18
583.866	25751.33
584.064	26232.6
584.262	25911.07
584.459	25906.98
584.657	25835.3
584.854	26046.24
585.052	25358.12
585.249	25521.96
585.447	25638.69
585.644	25055.02
585.841	25595.68
586.039	25198.38
586.236	24799.02
586.434	25364.26
586.631	25181.99
586.828	24788.78
587.026	24952.62
587.223	24911.66
587.42	24581.94
587.618	24729.39
587.815	24604.47
588.012	24088.38
588.21	24444.73
588.407	24782.64
588.604	24436.53
588.801	24057.66
588.999	24100.67
589.196	24190.78
589.393	24327.99
589.59	24112.95
589.787	24160.06
589.984	23787.33
590.182	23744.32
590.379	23652.16
590.576	23797.57
590.773	23723.84
590.97	23267.14
591.167	23656.26
591.364	23158.6
591.561	23246.66
591.758	23025.48
591.955	23037.77
592.152	23539.52
592.349	23035.72
592.546	23217.99
592.743	22761.3
592.94	22753.1
593.137	22718.29
593.334	22789.97
593.531	22390.61
593.727	22564.69
593.924	22720.34
594.121	22298.45
594.318	22597.46
594.515	22007.64
594.712	22363.99
594.908	21817.18
595.105	22097.75
595.302	21811.04
595.499	21981.02
595.696	22046.55
595.892	21739.36
596.089	21972.83
596.286	21897.05
596.482	21735.26
596.679	21548.9
596.876	21991.26
597.072	21391.2
597.269	21552.99
597.466	21399.4
597.662	21096.3
597.859	21143.4
598.055	21161.83
598.252	20752.24
598.448	21084.01
598.645	20764.53
598.841	20672.37
599.038	20666.22
599.234	20907.88
599.431	20492.15
599.627	20483.95
599.824	20803.44
600.02	20637.55
600.217	20445.04
600.413	20387.7
600.609	20287.35
600.806	20100.98
601.002	20481.91
601.198	20008.83
601.395	19959.67
601.591	19990.39
601.787	20082.55
601.984	19912.57
602.18	19949.43
602.376	19777.4
602.572	19591.04
602.769	19709.82
602.965	19621.76
603.161	19683.2
603.357	19556.22
603.553	19406.72
603.75	19486.59
603.946	19068.81
604.142	19337.09
604.338	19079.05
604.534	19216.26
604.73	18958.22
604.926	18995.08
605.122	18872.2
605.318	18804.62
605.514	18810.76
605.71	18605.97
605.906	18591.63
606.102	18874.25
606.298	18511.76
606.494	18677.65
606.69	18734.99
606.886	18657.17
607.082	18069.4
607.278	18435.99
607.474	18130.84
607.67	18311.06
607.866	18184.09
608.062	18026.39
608.257	18153.37
608.453	17954.71
608.649	18077.59
608.845	18075.54
609.041	17964.95
609.236	18007.96
609.432	17610.65
609.628	18038.68
609.824	17923.99
610.019	17745.82
610.215	17741.72
610.411	17794.97
610.606	17618.85
610.802	17723.29
610.998	17588.13
611.193	17684.38
611.389	17530.78
611.584	17702.81
611.78	17344.42
611.976	17551.26
612.171	17438.62
612.367	17285.03
612.562	17344.42
612.758	17074.09
612.953	17186.72
613.149	17336.23
613.344	17065.89
613.539	17414.05
613.735	17162.15
613.93	17031.08
614.126	16805.8
614.321	17117.09
614.517	17147.81
614.712	17176.48
614.907	16746.41
615.103	17047.46
615.298	16744.36
615.493	17106.85
615.688	16822.19
615.884	17139.62
616.079	16689.07
616.274	16605.1
616.47	16588.72
616.665	16586.67
616.86	16523.18
617.055	16625.58
617.25	16549.81
617.445	16410.54
617.641	16424.88
617.836	16662.44
618.031	15941.56
618.226	16400.3
618.421	16218.04
618.616	16273.33
618.811	16291.76
619.006	16304.05
619.201	15736.76
619.396	16015.29
619.591	15574.97
619.786	15910.84
619.981	15605.69
620.176	15947.7
620.371	15660.99
620.566	15708.09
620.761	15552.45
620.956	15480.77
621.151	15249.35
621.346	15394.75
621.541	15214.53
621.735	15460.29
621.93	15124.42
622.125	15099.84
622.32	14798.79
622.515	14946.25
622.709	14690.25
622.904	14700.49
623.099	14645.2
623.294	14602.19
623.488	14370.77
623.683	14684.11
623.878	14340.05
624.072	14239.7
624.267	14174.16
624.462	14235.6
624.656	13985.75
624.851	14362.58
625.046	13766.62
625.24	13932.5
625.435	13629.4
625.629	13805.53
625.824	13744.09
626.018	13658.07
626.213	13340.64
626.407	13606.88
626.602	13459.42
626.796	13496.28
626.991	13238.24
627.185	12967.91
627.38	13199.33
627.574	12789.74
627.768	12996.58
627.963	12863.46
628.157	12605.42
628.352	12842.98
628.546	12484.59
628.74	12357.61
628.935	12482.54
629.129	12337.13
629.323	12201.97
629.517	12316.65
629.712	12060.66
629.906	12343.28
630.1	12056.56
630.294	12251.12
630.489	11982.84
630.683	12187.63
630.877	11839.48
631.071	11747.32
631.265	11816.95
631.459	11689.98
631.653	11577.34
631.848	11614.2
632.042	11311.1
632.236	11292.67
632.43	11145.22
632.624	11300.86
632.818	11208.7
633.012	10991.62
633.206	11012.1
633.4	11069.44
633.594	10815.49
633.788	10962.95
633.982	11175.94
634.176	11077.63
634.369	10694.66
634.563	10565.64
634.757	10645.51
634.951	10674.18
635.145	10684.42
635.339	10496.01
635.533	10498.06
635.726	10373.13
635.92	10233.87
636.114	10483.72
636.308	10217.49
636.501	10274.83
636.695	10223.63
636.889	10151.95
637.083	9715.73
637.276	9959.44
637.47	9877.52
637.664	9855
637.857	9748.5
638.051	9697.3
638.244	9744.41
638.438	9574.42
638.632	9611.29
638.825	9492.51
639.019	9478.17
639.212	9441.31
639.406	9467.93
639.599	9236.51
639.793	9345.05
639.986	9105.44
640.18	9289.76
640.373	9250.85
640.567	9089.06
640.76	9236.51
640.954	8960.03
641.147	8941.6
641.34	8788
641.534	8949.79
641.727	8955.94
641.92	8726.57
642.114	8638.5
642.307	8685.61
642.5	8628.26
642.694	8642.6
642.887	8357.93
643.08	8611.88
643.273	8491.05
643.467	8376.36
643.66	8407.08
643.853	8204.33
644.046	8110.13
644.239	8144.94
644.432	8226.86
644.626	8144.94
644.819	7958.58
645.012	8015.92
645.205	8034.35
645.398	8081.46
645.591	7882.8
645.784	7635
645.977	7833.65
646.17	7809.08
646.363	7802.93
646.556	7761.97
646.749	7604.28
646.942	7866.42
647.135	7518.26
647.328	7424.06
647.521	7647.29
647.714	7307.32
647.907	7493.69
648.099	7241.79
648.292	7422.01
648.485	7331.9
648.678	7321.66
648.871	7225.4
649.064	7157.82
649.256	7331.9
649.449	7043.14
649.642	7139.39
649.835	7125.05
650.027	7020.61
650.22	7016.51
650.413	6969.41
650.605	6776.9
650.798	6959.17
650.991	6903.87
651.183	6834.24
651.376	6803.52
651.568	6844.48
651.761	6678.6
651.954	6635.59
652.146	6676.55
652.339	6617.16
652.531	6672.45
652.724	6535.24
652.916	6461.51
653.109	6375.5
653.301	6529.1
653.494	6412.36
653.686	6305.87
653.879	6432.84
654.071	6248.52
654.263	6211.66
654.456	6285.39
654.648	6307.91
654.84	6172.75
655.033	6250.57
655.225	6144.08
655.417	6152.27
655.61	6117.45
655.802	5898.32
655.994	6033.49
656.186	5843.03
656.379	5894.22
656.571	5886.03
656.763	5759.06
656.955	5677.14
657.148	5724.24
657.34	5775.44
657.532	5738.58
657.724	5619.8
657.916	5865.55
658.108	5568.6
658.3	5470.3
658.492	5666.9
658.684	5574.74
658.876	5437.53
659.068	5443.67
659.26	5480.54
659.452	5437.53
659.644	5369.94
659.836	5222.49
660.028	5406.81
660.22	5146.72
660.412	5310.55
660.604	5132.38
660.796	5275.74
660.988	5228.63
661.18	5122.14
661.372	4995.17
661.563	5120.09
661.755	5148.76
661.947	4989.02
662.139	4993.12
662.331	5023.84
662.522	4903.01
662.714	5027.93
662.906	5054.56
663.097	4937.82
663.289	4892.77
663.481	4966.49
663.673	4903.01
663.864	5060.7
664.056	4616.29
664.247	4827.23
664.439	4632.68
664.631	4767.84
664.822	4708.45
665.014	4763.75
665.205	4728.93
665.397	4702.31
665.588	4647.01
665.78	4565.09
665.971	4573.28
666.163	4606.05
666.354	4513.89
666.546	4491.37
666.737	4575.33
666.929	4554.85
667.12	4415.59
667.311	4534.37
667.503	4350.06
667.694	4382.82
667.885	4348.01
668.077	4333.67
668.268	4180.07
668.459	4391.02
668.651	4268.14
668.842	4329.58
669.033	4173.93
669.224	4231.27
669.416	4212.84
669.607	4194.41
669.798	4100.2
669.989	4135.02
670.18	4167.79
670.371	3997.81
670.563	4137.07
670.754	4061.29
670.945	4100.2
671.136	4063.34
671.327	4059.24
671.518	3997.81
671.709	4188.27
671.9	3977.33
672.091	3893.36
672.282	3846.26
672.473	4020.33
672.664	4020.33
672.855	3922.03
673.046	3778.67
673.237	3948.65
673.428	3870.83
673.619	3700.85
673.809	3950.7
674	3924.08
674.191	3883.12
674.382	3760.24
674.573	3731.57
674.764	3862.64
674.954	3778.67
675.145	3715.19
675.336	3672.18
675.527	3752.05
675.717	3700.85
675.908	3666.03
676.099	3745.91
676.289	3616.88
676.48	3674.23
676.671	3602.55
676.861	3674.23
677.052	3616.88
677.243	3737.71
677.433	3510.39
677.624	3506.29
677.814	3577.97
678.005	3487.86
678.195	3602.55
678.386	3565.68
678.576	3438.71
678.767	3481.72
678.957	3422.33
679.148	3362.94
679.338	3451
679.529	3440.76
679.719	3491.96
679.909	3666.03
680.1	3332.22
680.29	3563.64
680.481	3496.05
680.671	3471.48
680.861	3453.05
681.052	3420.28
681.242	3401.85
681.432	3418.23
681.622	3332.22
681.813	3260.54
682.003	3283.06
682.193	3235.96
682.383	3379.32
682.573	3319.93
682.764	3344.5
682.954	3295.35
683.144	3285.11
683.334	3291.26
683.524	3268.73
683.714	3344.5
683.904	3176.57
684.094	3334.26
684.284	3358.84
684.474	3403.89
684.664	3338.36
684.854	3287.16
685.044	3281.02
685.234	3102.84
685.424	3278.97
685.614	3170.43
685.804	3207.29
685.994	3131.51
686.184	3250.3
686.374	3199.1
686.564	3195
686.753	3151.99
686.943	2965.63
687.133	3080.32
687.323	2963.58
687.513	2988.16
687.702	3078.27
687.892	3082.36
688.082	2902.14
688.272	2861.18
688.461	2963.58
688.651	3045.5
688.841	3045.5
689.03	3057.79
689.22	2982.01
689.41	3055.74
689.599	2959.49
689.789	2967.68
689.979	2828.42
690.168	2812.03
690.358	2844.8
690.547	2803.84
690.737	2939.01
690.926	2873.47
691.116	2848.9
691.305	2844.8
691.495	2779.26
691.684	2631.81
691.874	2756.74
692.063	2758.78
692.252	2814.08
692.442	2664.58
692.631	2693.25
692.82	2658.43
693.01	2719.87
693.199	2766.98
693.388	2689.15
693.578	2732.16
693.767	2662.53
693.956	2674.82
694.146	2664.58
694.335	2613.38
694.524	2603.14
694.713	2666.63
694.902	2578.56
695.092	2766.98
695.281	2656.39
695.47	2672.77
695.659	2666.63
695.848	2625.67
696.037	2586.76
696.226	2490.5
696.415	2488.45
696.604	2570.37
696.793	2578.56
696.982	2429.06
697.171	2642.05
697.36	2615.43
697.549	2545.8
697.738	2637.95
697.927	2422.92
698.116	2582.66
698.305	2607.23
698.494	2537.6
698.683	2472.07
698.872	2510.98
699.061	2508.93
699.25	2644.1
699.438	2443.4
699.627	2539.65
699.816	2633.86
700.005	2574.47
700.193	2476.16
700.382	2457.73
700.571	2437.25
700.76	2582.66
700.948	2345.09
701.137	2551.94
701.326	2529.41
701.514	2453.64
701.703	2529.41
701.892	2433.16
702.08	2465.93
702.269	2467.97
702.457	2433.16
702.646	2433.16
702.834	2427.01
703.023	2463.88
703.212	2439.3
703.4	2519.17
703.589	2453.64
703.777	2439.3
703.965	2289.8
704.154	2291.85
704.342	2384.01
704.531	2388.1
704.719	2476.16
704.907	2498.69
705.096	2476.16
705.284	2427.01
705.472	2461.83
705.661	2529.41
705.849	2459.78
706.037	2465.93
706.226	2508.93
706.414	2496.64
706.602	2508.93
706.79	2615.43
706.979	2338.95
707.167	2412.68
707.355	2373.77
707.543	2414.73
707.731	2394.25
707.919	2416.77
708.107	2330.76
708.296	2476.16
708.484	2463.88
708.672	2455.69
708.86	2463.88
709.048	2422.92
709.236	2465.93
709.424	2398.34
709.612	2402.44
709.8	2484.36
709.988	2570.37
710.176	2445.45
710.364	2492.55
710.551	2402.44
710.739	2529.41
710.927	2457.73
711.115	2447.49
711.303	2496.64
711.491	2553.99
711.679	2343.05
711.866	2566.28
712.054	2437.25
712.242	2545.8
712.43	2365.57
712.617	2353.29
712.805	2398.34
712.993	2504.84
713.181	2332.81
713.368	2404.49
713.556	2457.73
713.744	2283.66
713.931	2537.6
714.119	2381.96
714.306	2461.83
714.494	2498.69
714.682	2310.28
714.869	2357.38
715.057	2427.01
715.244	2300.04
715.432	2437.25
715.619	2478.21
715.807	2455.69
715.994	2351.24
716.182	2318.47
716.369	2355.33
716.556	2359.43
716.744	2418.82
716.931	2381.96
717.119	2429.06
717.306	2338.95
717.493	2433.16
717.681	2461.83
717.868	2402.44
718.055	2336.9
718.242	2433.16
718.43	2341
718.617	2478.21
718.804	2394.25
718.991	2429.06
719.179	2326.66
719.366	2455.69
719.553	2486.4
719.74	2320.52
719.927	2336.9
720.114	2379.91
720.301	2506.88
720.488	2398.34
720.676	2441.35
720.863	2459.78
721.05	2453.64
721.237	2361.48
721.424	2347.14
721.611	2390.15
721.798	2261.13
721.985	2359.43
722.172	2353.29
722.358	2373.77
722.545	2361.48
722.732	2402.44
722.919	2373.77
723.106	2410.63
723.293	2377.86
723.48	2330.76
723.667	2402.44
723.853	2384.01
724.04	2398.34
724.227	2302.09
724.414	2341
724.6	2242.7
724.787	2345.09
724.974	2310.28
725.161	2386.05
725.347	2408.58
725.534	2408.58
725.72	2367.62
725.907	2295.94
726.094	2349.19
726.28	2416.77
726.467	2355.33
726.653	2338.95
726.84	2451.59
727.027	2420.87
727.213	2148.49
727.4	2373.77
727.586	2308.23
727.773	2449.54
727.959	2326.66
728.145	2375.81
728.332	2334.86
728.518	2248.84
728.705	2373.77
728.891	2408.58
729.077	2300.04
729.264	2304.14
729.45	2343.05
729.636	2443.4
729.823	2400.39
730.009	2388.1
730.195	2365.57
730.382	2373.77
730.568	2377.86
730.754	2279.56
730.94	2400.39
731.126	2422.92
731.313	2424.97
731.499	2402.44
731.685	2416.77
731.871	2447.49
732.057	2451.59
732.243	2439.3
732.429	2398.34
732.615	2498.69
732.801	2275.46
732.987	2277.51
733.173	2375.81
733.359	2386.05
733.545	2347.14
733.731	2324.62
733.917	2420.87
734.103	2420.87
734.289	2381.96
734.475	2320.52
734.661	2351.24
734.847	2326.66
735.033	2326.66
735.219	2357.38
735.404	2429.06
735.59	2379.91
735.776	2289.8
735.962	2300.04
736.148	2375.81
736.333	2310.28
736.519	2297.99
736.705	2318.47
736.89	2269.32
737.076	2328.71
737.262	2248.84
737.447	2175.11
737.633	2234.5
737.819	2252.94
738.004	2308.23
738.19	2254.98
738.375	2267.27
738.561	2267.27
738.747	2224.26
738.932	2171.02
739.118	2199.69
739.303	2310.28
739.489	2289.8
739.674	2246.79
739.859	2265.22
740.045	2181.26
740.23	2273.42
740.416	2152.59
740.601	2138.25
740.786	2183.31
740.972	2207.88
741.157	2214.02
741.342	2111.63
741.528	2179.21
741.713	2162.83
741.898	2142.35
742.084	2209.93
742.269	2128.01
742.454	2232.46
742.639	2271.37
742.824	2214.02
743.01	2119.82
743.195	2119.82
743.38	2097.29
743.565	2076.81
743.75	2095.24
743.935	2078.86
744.12	2189.45
744.305	2068.62
744.49	1910.93
744.675	2070.67
744.86	2021.52
745.045	2078.86
745.23	2042
745.415	2044.04
745.6	1994.89
745.785	1996.94
745.97	1992.84
746.155	1943.69
746.34	1892.49
746.525	1945.74
746.71	1904.78
746.895	1962.12
747.079	1863.82
747.264	1945.74
747.449	1886.35
747.634	1853.58
747.819	1998.99
748.003	1874.06
748.188	1849.49
748.373	1882.25
748.557	1798.29
748.742	1876.11
748.927	1763.47
749.111	1788.05
749.296	1763.47
749.481	1880.21
749.665	1722.51
749.85	1681.55
750.034	1745.04
750.219	1796.24
750.404	1753.23
750.588	1677.46
750.773	1638.55
750.957	1646.74
751.141	1652.88
751.326	1667.22
751.51	1628.31
751.695	1659.03
751.879	1697.94
752.064	1632.4
752.248	1740.94
752.432	1589.39
752.617	1611.92
752.801	1644.69
752.985	1720.46
753.17	1597.59
753.354	1548.44
753.538	1519.76
753.722	1530
753.907	1517.72
754.091	1493.14
754.275	1546.39
754.459	1489.04
754.643	1501.33
754.828	1472.66
755.012	1476.76
755.196	1507.48
755.38	1415.32
755.564	1407.13
755.748	1441.94
755.932	1452.18
756.116	1396.89
756.3	1360.02
756.484	1351.83
756.668	1392.79
756.852	1353.88
757.036	1388.69
757.22	1314.97
757.404	1415.32
757.588	1386.65
757.772	1370.26
757.956	1370.26
758.14	1396.89
758.323	1370.26
758.507	1345.69
758.691	1249.43
758.875	1333.4
759.059	1312.92
759.242	1198.23
759.426	1310.87
759.61	1173.66
759.794	1144.99
759.977	1251.48
760.161	1255.58
760.345	1192.09
760.528	1239.19
760.712	1132.7
760.895	1171.61
761.079	1222.81
761.263	1110.17
761.446	1118.36
761.63	1206.42
761.813	1155.23
761.997	1147.03
762.18	1190.04
762.364	1112.22
762.547	989.34
762.731	1251.48
762.914	1097.88
763.098	1220.76
763.281	1282.2
763.464	1130.65
763.648	1155.23
763.831	1118.36
764.015	1042.59
764.198	1159.32
764.381	1056.92
764.564	1050.78
764.748	1120.41
764.931	991.39
765.114	919.71
765.297	1085.59
765.481	1003.68
765.664	987.29
765.847	1032.35
766.03	1034.39
766.213	1058.97
766.397	1036.44
766.58	964.76
766.763	1030.3
766.946	932
767.129	1028.25
767.312	1079.45
767.495	952.48
767.678	1003.68
767.861	1005.72
768.044	1022.11
768.227	999.58
768.41	1099.93
768.593	1110.17
768.776	975
768.959	911.52
769.142	995.48
769.324	1007.77
769.507	948.38
769.69	942.24
769.873	952.48
770.056	991.39
770.239	975
770.421	983.2
770.604	1024.16
770.787	923.8
770.97	981.15
771.152	884.89
771.335	999.58
771.518	950.43
771.7	948.38
771.883	950.43
772.066	1044.63
772.248	948.38
772.431	934.04
772.613	854.17
772.796	891.04
772.978	817.31
773.161	903.32
773.343	850.08
773.526	817.31
773.708	866.46
773.891	782.49
774.073	893.09
774.256	727.2
774.438	823.45
774.621	893.09
774.803	821.41
774.985	764.06
775.168	811.17
775.35	739.49
775.532	862.37
775.715	753.82
775.897	823.45
776.079	733.34
776.261	774.3
776.444	811.17
776.626	706.72
776.808	739.49
776.99	762.02
777.173	712.86
777.355	749.73
777.537	714.91
777.719	743.58
777.901	739.49
778.083	741.54
778.265	702.62
778.447	616.61
778.629	676
778.811	673.95
778.993	708.77
779.175	659.62
779.357	645.28
779.539	706.72
779.721	600.23
779.903	719.01
780.085	714.91
780.267	616.61
780.449	682.14
780.631	651.42
780.812	549.03
780.994	567.46
781.176	616.61
781.358	575.65
781.54	546.98
781.721	583.84
781.903	624.8
782.085	620.71
782.267	608.42
782.448	551.07
782.63	528.55
782.812	622.75
782.993	487.59
783.175	489.64
783.357	563.36
783.538	530.59
783.72	512.16
783.901	557.22
784.083	471.2
784.264	561.31
784.446	497.83
784.627	587.94
784.809	493.73
784.99	581.79
785.172	501.92
785.353	493.73
785.535	495.78
785.716	530.59
785.897	503.97
786.079	549.03
786.26	436.39
786.441	544.93
786.623	526.5
786.804	518.31
786.985	481.44
787.167	354.47
787.348	434.34
787.529	458.92
787.71	573.6
787.891	383.14
788.073	458.92
788.254	415.91
788.435	450.72
788.616	506.02
788.797	405.67
788.978	465.06
789.159	426.15
789.34	336.04
789.522	385.19
789.703	454.82
789.884	440.48
790.065	362.66
790.246	405.67
790.427	424.1
790.607	411.81
790.788	338.09
790.969	430.24
791.15	387.24
791.331	313.51
791.512	350.37
791.693	430.24
791.874	413.86
792.054	417.96
792.235	393.38
792.416	409.76
792.597	352.42
792.778	362.66
792.958	440.48
793.139	368.81
793.32	309.41
793.5	319.65
793.681	350.37
793.862	336.04
794.042	288.93
794.223	293.03
794.404	360.61
794.584	288.93
794.765	305.32
794.945	413.86
795.126	352.42
795.306	266.41
795.487	321.7
795.667	286.89
795.848	307.37
796.028	243.88
796.209	323.75
796.389	293.03
796.57	233.64
796.75	245.93
796.93	280.74
797.111	323.75
797.291	342.18
797.471	286.89
797.652	317.61
797.832	297.13
798.012	372.9
798.192	315.56
798.373	282.79
798.553	391.33
798.733	258.21
798.913	348.33
799.093	305.32
799.274	303.27
799.454	333.99
799.634	270.5
799.814	307.37
799.994	305.32
800.174	270.5
800.354	235.69
800.534	268.45
800.714	272.55
800.894	280.74
801.074	315.56
801.254	239.78
801.434	170.15
801.614	258.21
801.794	256.17
801.974	651.42
802.154	278.69
802.334	245.93
802.514	184.49
802.693	231.59
802.873	223.4
803.053	333.99
803.233	237.74
803.413	303.27
803.592	178.34
803.772	256.17
803.952	211.11
804.131	241.83
804.311	225.45
804.491	237.74
804.67	198.82
804.85	223.4
805.03	241.83
805.209	293.03
805.389	225.45
805.568	274.6
805.748	225.45
805.928	215.21
806.107	202.92
806.287	235.69
806.466	213.16
806.646	118.95
806.825	209.06
807.004	190.63
807.184	231.59
807.363	190.63
807.543	215.21
807.722	225.45
807.901	182.44
808.081	260.26
808.26	161.96
808.439	170.15
808.619	235.69
808.798	231.59
808.977	161.96
809.156	243.88
809.336	219.3
809.515	266.41
809.694	198.82
809.873	221.35
810.052	239.78
810.231	192.68
810.411	213.16
810.59	174.25
810.769	112.81
810.948	207.02
811.127	80.04
811.306	274.6
811.485	147.62
811.664	209.06
811.843	198.82
812.022	209.06
812.201	170.15
812.38	241.83
812.559	164.01
812.737	149.67
812.916	147.62
813.095	178.34
813.274	110.76
813.453	172.2
813.632	231.59
813.811	149.67
813.989	133.29
814.168	184.49
814.347	149.67
814.526	143.53
814.704	235.69
814.883	194.73
815.062	159.91
815.24	145.58
815.419	116.9
815.598	202.92
815.776	133.29
815.955	147.62
816.133	164.01
816.312	202.92
816.49	139.43
816.669	147.62
816.847	137.38
817.026	174.25
817.204	174.25
817.383	123.05
817.561	137.38
817.74	207.02
817.918	137.38
818.097	96.43
818.275	43.18
818.453	129.19
818.632	131.24
818.81	127.14
818.988	123.05
819.167	102.57
819.345	96.43
819.523	77.99
819.701	151.72
819.879	118.95
820.058	28.84
820.236	168.1
820.414	104.62
820.592	184.49
820.77	108.71
820.948	131.24
821.127	123.05
821.305	164.01
821.483	96.43
821.661	139.43
821.839	202.92
822.017	147.62
822.195	155.82
822.373	123.05
822.551	147.62
822.729	161.96
822.907	75.95
823.085	164.01
823.262	114.86
823.44	71.85
823.618	65.71
823.796	118.95
823.974	149.67
824.152	172.2
824.329	88.23
824.507	125.1
824.685	65.71
824.863	100.52
825.04	153.77
825.218	127.14
825.396	147.62
825.574	129.19
825.751	94.38
825.929	164.01
826.107	123.05
826.284	118.95
826.462	141.48
826.639	123.05
826.817	145.58
826.994	98.47
827.172	131.24
827.349	159.91
827.527	73.9
827.704	90.28
827.882	100.52
828.059	90.28
828.237	59.56
828.414	118.95
828.591	108.71
828.769	145.58
828.946	100.52
829.124	80.04
829.301	118.95
829.478	96.43
829.655	49.32
829.833	96.43
830.01	59.56
830.187	69.8
830.364	102.57
830.542	102.57
830.719	135.34
830.896	96.43
831.073	157.86
831.25	73.9
831.427	67.75
831.604	77.99
831.782	92.33
831.959	71.85
832.136	39.08
832.313	51.37
832.49	80.04
832.667	14.51
832.844	57.51
833.021	125.1
833.198	137.38
833.374	141.48
833.551	88.23
833.728	73.9
833.905	121
834.082	98.47
834.259	104.62
834.436	20.65
834.612	37.03
834.789	84.14
834.966	121
835.143	73.9
835.319	84.14
835.496	61.61
835.673	61.61
835.85	65.71
836.026	90.28
836.203	82.09
836.38	80.04
836.556	118.95
836.733	69.8
836.909	61.61
837.086	69.8
837.262	102.57
837.439	0.17
837.616	-3.93
837.792	135.34
837.968	71.85
838.145	-40.79
838.321	116.9
838.498	75.95
838.674	131.24
838.851	100.52
839.027	-3.93
839.203	55.47
839.38	63.66
839.556	63.66
839.732	30.89
839.909	37.03
840.085	18.6
840.261	67.75
840.437	125.1
840.614	90.28
840.79	125.1
840.966	100.52
841.142	43.18
841.318	24.75
841.494	14.51
841.671	131.24
841.847	39.08
842.023	49.32
842.199	65.71
842.375	59.56
842.551	39.08
842.727	71.85
842.903	84.14
843.079	65.71
843.255	59.56
843.431	-10.07
843.607	110.76
843.783	53.42
843.959	47.27
844.134	0.17
844.31	41.13
844.486	123.05
844.662	43.18
844.838	80.04
845.013	47.27
845.189	18.6
845.365	94.38
845.541	86.19
845.716	104.62
845.892	67.75
846.068	24.75
846.244	51.37
846.419	10.41
846.595	71.85
846.77	32.94
846.946	63.66
847.122	-14.17
847.297	57.51
847.473	84.14
847.648	2.22
847.824	75.95
847.999	51.37
848.175	90.28
848.35	155.82
848.526	71.85
848.701	71.85
848.876	53.42
849.052	30.89
849.227	88.23
849.403	116.9
849.578	37.03
849.753	6.31
849.929	18.6
850.104	8.36
850.279	114.86
850.454	65.71
850.63	53.42
850.805	57.51
850.98	102.57
851.155	-1.88
851.33	67.75
851.505	32.94
851.681	55.47
851.856	47.27
852.031	55.47
852.206	61.61
852.381	24.75
852.556	32.94
852.731	94.38
852.906	102.57
853.081	22.7
853.256	77.99
853.431	10.41
853.606	2.22
853.781	-5.97
853.956	57.51
854.131	45.23
854.305	47.27
854.48	41.13
854.655	90.28
854.83	-24.4
855.005	47.27
855.18	75.95
855.354	39.08
855.529	-5.97
855.704	22.7
855.879	-5.97
856.053	45.23
856.228	41.13
856.403	82.09
856.577	14.51
856.752	18.6
856.926	45.23
857.101	57.51
857.276	28.84
857.45	88.23
857.625	69.8
857.799	-10.07
857.974	104.62
858.148	-1.88
858.323	100.52
858.497	84.14
858.672	57.51
858.846	43.18
859.02	28.84
859.195	34.99
859.369	14.51
859.543	90.28
859.718	77.99
859.892	45.23
860.066	28.84
860.241	-22.36
860.415	61.61
860.589	26.79
860.763	6.31
860.938	-28.5
861.112	-28.5
861.286	-32.6
861.46	65.71
861.634	14.51
861.808	45.23
861.982	30.89
862.157	71.85
862.331	18.6
862.505	-40.79
862.679	-34.64
862.853	37.03
863.027	10.41
863.201	39.08
863.375	24.75
863.549	39.08
863.722	22.7
863.896	-5.97
864.07	-40.79
864.244	26.79
864.418	-34.64
864.592	12.46
864.766	-59.22
864.939	67.75
865.113	34.99
865.287	37.03
865.461	53.42
865.634	26.79
865.808	0.17
865.982	14.51
866.156	34.99
866.329	118.95
866.503	-14.17
866.676	77.99
866.85	-5.97
867.024	16.55
867.197	96.43
867.371	65.71
867.544	104.62
867.718	30.89
867.891	75.95
868.065	14.51
868.238	20.65
868.412	69.8
868.585	30.89
868.759	0.17
868.932	69.8
869.105	24.75
869.279	37.03
869.452	37.03
869.625	-1.88
869.799	26.79
869.972	43.18
870.145	55.47
870.319	59.56
870.492	-24.4
870.665	-10.07
870.838	14.51
871.011	-1.88
871.185	-26.45
871.358	-10.07
871.531	37.03
871.704	-3.93
871.877	-8.02
872.05	30.89
872.223	59.56
872.396	-42.84
872.569	88.23
872.742	-34.64
872.915	43.18
873.088	-20.31
873.261	-22.36
873.434	-1.88
873.607	59.56
873.78	45.23
873.953	-57.17
874.126	47.27
874.299	-16.21
874.471	-3.93
874.644	-38.74
874.817	-18.26
874.99	73.9
875.163	-36.69
875.335	49.32
875.508	26.79
875.681	123.05
875.853	10.41
876.026	6.31
876.199	30.89
876.371	67.75
876.544	-34.64
876.717	63.66
876.889	8.36
877.062	84.14
877.234	55.47
877.407	39.08
877.579	-5.97
877.752	-55.12
877.924	-10.07
878.097	-12.12
878.269	41.13
878.442	26.79
878.614	24.75
878.786	67.75
878.959	125.1
879.131	77.99
879.303	26.79
879.476	80.04
879.648	-32.6
879.82	-20.31
879.993	22.7
880.165	-18.26
880.337	-48.98
880.509	-16.21
880.681	100.52
880.854	34.99
881.026	4.27
881.198	123.05
881.37	-79.7
881.542	20.65
881.714	-24.4
881.886	-12.12
882.058	16.55
882.23	-28.5
882.402	-10.07
882.574	-36.69
882.746	41.13
882.918	32.94
883.09	-75.6
883.262	12.46
883.434	39.08
883.606	-20.31
883.778	-10.07
883.95	57.51
884.122	4.27
884.293	-5.97
884.465	18.6
884.637	51.37
884.809	24.75
884.98	-5.97
885.152	-48.98
885.324	2.22
885.496	26.79
885.667	-10.07
885.839	12.46
886.011	69.8
886.182	86.19
886.354	0.17
886.525	26.79
886.697	65.71
886.869	-94.04
887.04	43.18
887.212	77.99
887.383	-26.45
887.555	-14.17
887.726	8.36
887.897	-89.94
888.069	16.55
888.24	10.41
888.412	28.84
888.583	-38.74
888.754	26.79
888.926	-18.26
889.097	-16.21
889.268	12.46
889.44	6.31
889.611	-16.21
889.782	-5.97
889.953	2.22
890.125	-8.02
890.296	8.36
890.467	8.36
890.638	8.36
890.809	59.56
890.98	47.27
891.151	-22.36
891.323	28.84
891.494	-5.97
891.665	6.31
891.836	8.36
892.007	0.17
892.178	-3.93
892.349	-51.03
892.52	-18.26
892.691	65.71
892.862	8.36
893.032	16.55
893.203	53.42
893.374	0.17
893.545	6.31
893.716	-1.88
893.887	57.51
894.057	6.31
894.228	2.22
894.399	-22.36
894.57	59.56
894.74	-18.26
894.911	71.85
895.082	26.79
895.253	-1.88
895.423	47.27
895.594	32.94
895.764	34.99
895.935	51.37
896.106	86.19
896.276	-16.21
896.447	-5.97
896.617	32.94
896.788	59.56
896.958	43.18
897.129	-38.74
897.299	51.37
897.47	59.56
897.64	-30.55
897.81	32.94
897.981	51.37
898.151	10.41
898.322	16.55
898.492	-1.88
898.662	-14.17
898.832	-55.12
899.003	-16.21
899.173	2.22
899.343	24.75
899.513	-18.26
