Data from USB4F104151__248__11-11-37-569.txt Node

Date: Wed Mar 12 11:11:37 EDT 2025
User: louis
Spectrometer: USB4F10415
Trigger mode: 4
Integration Time (sec): 2.000000E-2
Scans to average: 1
Electric dark correction enabled: true
Nonlinearity correction enabled: false
Boxcar width: 0
XAxis mode: Wavelengths
Number of Pixels in Spectrum: 3648
>>>>>Begin Spectral Data<<<<<
178.204	-24.4
178.424	-24.4
178.644	-24.4
178.864	-73.56
179.084	-59.22
179.304	16.55
179.524	-81.75
179.744	-12.12
179.964	12.46
180.184	12.46
180.404	-20.31
180.624	49.32
180.844	43.18
181.064	-44.88
181.283	20.65
181.503	-59.22
181.723	63.66
181.943	-75.6
182.163	18.6
182.383	0.17
182.602	8.36
182.822	49.32
183.042	41.13
183.262	-14.17
183.482	-14.17
183.701	43.18
183.921	8.36
184.141	-69.46
184.361	34.99
184.58	2.22
184.8	65.71
185.02	47.27
185.239	16.55
185.459	30.89
185.679	77.99
185.898	43.18
186.118	-18.26
186.338	-1.88
186.557	116.9
186.777	-34.64
186.997	12.46
187.216	22.7
187.436	-1.88
187.655	6.31
187.875	6.31
188.095	-85.84
188.314	-1.88
188.534	59.56
188.753	0.17
188.973	30.89
189.192	-18.26
189.412	45.23
189.631	2.22
189.851	-16.21
190.07	14.51
190.29	32.94
190.509	24.75
190.729	16.55
190.948	73.9
191.168	94.38
191.387	-18.26
191.607	-22.36
191.826	51.37
192.045	28.84
192.265	34.99
192.484	45.23
192.704	2.22
192.923	-20.31
193.142	125.1
193.362	-18.26
193.581	65.71
193.8	26.79
194.02	61.61
194.239	-5.97
194.458	55.47
194.678	71.85
194.897	100.52
195.116	2.22
195.335	12.46
195.555	18.6
195.774	14.51
195.993	43.18
196.212	-10.07
196.432	-42.84
196.651	0.17
196.87	8.36
197.089	32.94
197.308	-16.21
197.528	-30.55
197.747	-38.74
197.966	-5.97
198.185	16.55
198.404	-38.74
198.623	-34.64
198.842	4.27
199.062	24.75
199.281	18.6
199.5	43.18
199.719	4.27
199.938	69.8
200.157	112.81
200.376	26.79
200.595	71.85
200.814	37.03
201.033	14.51
201.252	30.89
201.471	100.52
201.69	-10.07
201.909	34.99
202.128	39.08
202.347	8.36
202.566	20.65
202.785	-26.45
203.004	-28.5
203.223	80.04
203.442	10.41
203.661	4.27
203.879	-48.98
204.098	22.7
204.317	-12.12
204.536	-38.74
204.755	67.75
204.974	39.08
205.193	59.56
205.411	51.37
205.63	22.7
205.849	22.7
206.068	34.99
206.287	26.79
206.505	47.27
206.724	-87.89
206.943	10.41
207.162	10.41
207.381	-32.6
207.599	77.99
207.818	116.9
208.037	0.17
208.255	10.41
208.474	8.36
208.693	-36.69
208.911	-18.26
209.13	22.7
209.349	6.31
209.567	51.37
209.786	112.81
210.005	-24.4
210.223	12.46
210.442	34.99
210.661	0.17
210.879	2.22
211.098	77.99
211.316	-8.02
211.535	112.81
211.753	47.27
211.972	-71.51
212.191	16.55
212.409	-8.02
212.628	-57.17
212.846	20.65
213.065	-5.97
213.283	65.71
213.502	6.31
213.72	34.99
213.938	-5.97
214.157	-24.4
214.375	30.89
214.594	24.75
214.812	-28.5
215.031	2.22
215.249	0.17
215.467	-1.88
215.686	-20.31
215.904	18.6
216.122	-8.02
216.341	82.09
216.559	-5.97
216.778	116.9
216.996	16.55
217.214	26.79
217.432	43.18
217.651	16.55
217.869	28.84
218.087	6.31
218.306	-22.36
218.524	18.6
218.742	-3.93
218.96	-26.45
219.179	-30.55
219.397	47.27
219.615	8.36
219.833	43.18
220.051	47.27
220.27	82.09
220.488	12.46
220.706	100.52
220.924	30.89
221.142	118.95
221.36	8.36
221.578	14.51
221.796	8.36
222.015	22.7
222.233	67.75
222.451	47.27
222.669	10.41
222.887	39.08
223.105	63.66
223.323	-38.74
223.541	34.99
223.759	34.99
223.977	16.55
224.195	43.18
224.413	34.99
224.631	-3.93
224.849	0.17
225.067	80.04
225.285	-32.6
225.503	-10.07
225.721	61.61
225.939	6.31
226.157	-46.93
226.375	59.56
226.592	-10.07
226.81	49.32
227.028	30.89
227.246	-5.97
227.464	8.36
227.682	18.6
227.9	53.42
228.117	8.36
228.335	0.17
228.553	6.31
228.771	28.84
228.989	10.41
229.206	-5.97
229.424	-14.17
229.642	-22.36
229.86	18.6
230.077	-26.45
230.295	41.13
230.513	49.32
230.731	47.27
230.948	-14.17
231.166	-20.31
231.384	2.22
231.601	-26.45
231.819	82.09
232.037	-26.45
232.254	-44.88
232.472	30.89
232.689	30.89
232.907	49.32
233.125	-20.31
233.342	12.46
233.56	-14.17
233.777	-22.36
233.995	51.37
234.213	12.46
234.43	14.51
234.648	12.46
234.865	39.08
235.083	6.31
235.3	43.18
235.518	75.95
235.735	39.08
235.953	88.23
236.17	-3.93
236.388	32.94
236.605	47.27
236.822	24.75
237.04	22.7
237.257	-42.84
237.475	-26.45
237.692	59.56
237.909	-22.36
238.127	28.84
238.344	-12.12
238.562	41.13
238.779	53.42
238.996	34.99
239.214	34.99
239.431	34.99
239.648	43.18
239.865	61.61
240.083	-24.4
240.3	-22.36
240.517	-1.88
240.735	100.52
240.952	6.31
241.169	16.55
241.386	2.22
241.603	75.95
241.821	-14.17
242.038	45.23
242.255	41.13
242.472	12.46
242.689	18.6
242.907	-30.55
243.124	90.28
243.341	-40.79
243.558	22.7
243.775	-59.22
243.992	-14.17
244.209	8.36
244.426	108.71
244.643	22.7
244.86	51.37
245.078	24.75
245.295	45.23
245.512	-1.88
245.729	12.46
245.946	65.71
246.163	63.66
246.38	-18.26
246.597	14.51
246.814	39.08
247.031	12.46
247.248	-10.07
247.464	67.75
247.681	59.56
247.898	-14.17
248.115	55.47
248.332	-1.88
248.549	-18.26
248.766	14.51
248.983	-79.7
249.2	26.79
249.417	16.55
249.633	28.84
249.85	59.56
250.067	-5.97
250.284	30.89
250.501	26.79
250.717	24.75
250.934	-77.65
251.151	-10.07
251.368	43.18
251.585	67.75
251.801	-10.07
252.018	24.75
252.235	4.27
252.451	-34.64
252.668	12.46
252.885	80.04
253.102	2.22
253.318	6.31
253.535	-75.6
253.752	94.38
253.968	45.23
254.185	34.99
254.401	10.41
254.618	59.56
254.835	30.89
255.051	47.27
255.268	18.6
255.484	14.51
255.701	20.65
255.917	26.79
256.134	0.17
256.351	-14.17
256.567	-14.17
256.784	22.7
257	-14.17
257.217	-40.79
257.433	47.27
257.65	34.99
257.866	57.51
258.082	-14.17
258.299	-48.98
258.515	0.17
258.732	51.37
258.948	71.85
259.165	-38.74
259.381	-46.93
259.597	34.99
259.814	43.18
260.03	-38.74
260.246	-20.31
260.463	0.17
260.679	61.61
260.895	12.46
261.112	51.37
261.328	55.47
261.544	39.08
261.761	-36.69
261.977	-18.26
262.193	43.18
262.409	-40.79
262.626	-1.88
262.842	-14.17
263.058	18.6
263.274	43.18
263.49	67.75
263.707	8.36
263.923	39.08
264.139	32.94
264.355	30.89
264.571	49.32
264.787	24.75
265.004	-8.02
265.22	-36.69
265.436	37.03
265.652	-24.4
265.868	45.23
266.084	-40.79
266.3	-1.88
266.516	-26.45
266.732	22.7
266.948	39.08
267.164	41.13
267.38	20.65
267.596	45.23
267.812	39.08
268.028	4.27
268.244	-1.88
268.46	34.99
268.676	82.09
268.892	61.61
269.108	26.79
269.324	6.31
269.54	-14.17
269.756	110.76
269.972	30.89
270.188	37.03
270.403	-16.21
270.619	12.46
270.835	12.46
271.051	43.18
271.267	2.22
271.483	22.7
271.698	18.6
271.914	34.99
272.13	96.43
272.346	-28.5
272.562	24.75
272.777	18.6
272.993	53.42
273.209	-5.97
273.425	41.13
273.64	-26.45
273.856	104.62
274.072	24.75
274.287	-3.93
274.503	0.17
274.719	20.65
274.934	16.55
275.15	8.36
275.366	45.23
275.581	10.41
275.797	32.94
276.012	-12.12
276.228	4.27
276.444	32.94
276.659	41.13
276.875	-8.02
277.09	-14.17
277.306	37.03
277.521	8.36
277.737	37.03
277.952	30.89
278.168	28.84
278.383	-38.74
278.599	24.75
278.814	155.82
279.03	41.13
279.245	104.62
279.461	59.56
279.676	84.14
279.892	-22.36
280.107	47.27
280.322	-18.26
280.538	8.36
280.753	22.7
280.969	-38.74
281.184	39.08
281.399	69.8
281.615	-8.02
281.83	69.8
282.045	22.7
282.26	51.37
282.476	65.71
282.691	-18.26
282.906	14.51
283.122	59.56
283.337	26.79
283.552	37.03
283.767	-14.17
283.983	75.95
284.198	18.6
284.413	77.99
284.628	53.42
284.843	47.27
285.058	22.7
285.274	12.46
285.489	32.94
285.704	59.56
285.919	32.94
286.134	75.95
286.349	-5.97
286.564	6.31
286.779	65.71
286.995	10.41
287.21	24.75
287.425	16.55
287.64	-44.88
287.855	41.13
288.07	8.36
288.285	20.65
288.5	-12.12
288.715	12.46
288.93	-5.97
289.145	32.94
289.36	63.66
289.575	49.32
289.79	30.89
290.004	32.94
290.219	39.08
290.434	-12.12
290.649	-26.45
290.864	24.75
291.079	-10.07
291.294	26.79
291.509	24.75
291.724	-34.64
291.938	45.23
292.153	71.85
292.368	51.37
292.583	18.6
292.798	51.37
293.012	14.51
293.227	26.79
293.442	-5.97
293.657	24.75
293.871	28.84
294.086	80.04
294.301	47.27
294.516	41.13
294.73	71.85
294.945	-10.07
295.16	-3.93
295.374	69.8
295.589	10.41
295.804	-30.55
296.018	127.14
296.233	32.94
296.447	-3.93
296.662	2.22
296.877	8.36
297.091	55.47
297.306	-3.93
297.52	32.94
297.735	14.51
297.949	-1.88
298.164	32.94
298.378	51.37
298.593	10.41
298.807	22.7
299.022	90.28
299.236	34.99
299.451	-48.98
299.665	8.36
299.88	6.31
300.094	0.17
300.309	39.08
300.523	106.67
300.737	71.85
300.952	75.95
301.166	22.7
301.381	41.13
301.595	30.89
301.809	75.95
302.024	45.23
302.238	-3.93
302.452	49.32
302.667	24.75
302.881	55.47
303.095	2.22
303.309	20.65
303.524	-1.88
303.738	16.55
303.952	2.22
304.166	73.9
304.381	-12.12
304.595	80.04
304.809	-1.88
305.023	16.55
305.237	26.79
305.452	22.7
305.666	-18.26
305.88	80.04
306.094	16.55
306.308	65.71
306.522	59.56
306.736	-10.07
306.95	57.51
307.164	-8.02
307.379	-46.93
307.593	43.18
307.807	-16.21
308.021	73.9
308.235	51.37
308.449	-10.07
308.663	-22.36
308.877	51.37
309.091	8.36
309.305	-3.93
309.519	26.79
309.733	51.37
309.947	10.41
310.161	24.75
310.374	18.6
310.588	73.9
310.802	-22.36
311.016	-10.07
311.23	16.55
311.444	59.56
311.658	-12.12
311.872	39.08
312.085	18.6
312.299	43.18
312.513	110.76
312.727	26.79
312.941	-40.79
313.154	14.51
313.368	80.04
313.582	116.9
313.796	90.28
314.009	43.18
314.223	-3.93
314.437	47.27
314.651	-18.26
314.864	-36.69
315.078	34.99
315.292	28.84
315.505	-55.12
315.719	53.42
315.933	55.47
316.146	43.18
316.36	0.17
316.573	26.79
316.787	0.17
317.001	45.23
317.214	-46.93
317.428	6.31
317.641	4.27
317.855	51.37
318.068	32.94
318.282	69.8
318.495	71.85
318.709	92.33
318.922	24.75
319.136	8.36
319.349	67.75
319.563	0.17
319.776	92.33
319.99	-20.31
320.203	55.47
320.417	-5.97
320.63	18.6
320.843	77.99
321.057	24.75
321.27	45.23
321.483	84.14
321.697	18.6
321.91	-14.17
322.124	0.17
322.337	24.75
322.55	47.27
322.763	118.95
322.977	43.18
323.19	14.51
323.403	-8.02
323.617	30.89
323.83	12.46
324.043	0.17
324.256	34.99
324.469	55.47
324.683	32.94
324.896	-83.8
325.109	-55.12
325.322	-40.79
325.535	18.6
325.748	61.61
325.962	41.13
326.175	28.84
326.388	86.19
326.601	-8.02
326.814	26.79
327.027	18.6
327.24	77.99
327.453	-20.31
327.666	41.13
327.879	47.27
328.092	69.8
328.305	45.23
328.518	57.51
328.731	-42.84
328.944	80.04
329.157	-5.97
329.37	0.17
329.583	80.04
329.796	63.66
330.009	24.75
330.222	39.08
330.435	57.51
330.648	53.42
330.861	80.04
331.073	18.6
331.286	61.61
331.499	-12.12
331.712	-59.22
331.925	-10.07
332.138	73.9
332.35	67.75
332.563	94.38
332.776	77.99
332.989	22.7
333.202	32.94
333.414	34.99
333.627	43.18
333.84	-24.4
334.053	49.32
334.265	43.18
334.478	86.19
334.691	47.27
334.903	32.94
335.116	63.66
335.329	106.67
335.541	80.04
335.754	100.52
335.966	59.56
336.179	37.03
336.392	39.08
336.604	26.79
336.817	57.51
337.029	26.79
337.242	30.89
337.454	121
337.667	-14.17
337.88	55.47
338.092	6.31
338.305	22.7
338.517	0.17
338.729	30.89
338.942	-18.26
339.154	18.6
339.367	-28.5
339.579	-34.64
339.792	84.14
340.004	26.79
340.217	18.6
340.429	-40.79
340.641	6.31
340.854	28.84
341.066	20.65
341.278	55.47
341.491	94.38
341.703	137.38
341.915	45.23
342.128	18.6
342.34	39.08
342.552	-12.12
342.764	49.32
342.977	-3.93
343.189	88.23
343.401	47.27
343.613	12.46
343.826	43.18
344.038	-1.88
344.25	51.37
344.462	-48.98
344.674	-20.31
344.886	-5.97
345.099	12.46
345.311	39.08
345.523	28.84
345.735	0.17
345.947	65.71
346.159	55.47
346.371	24.75
346.583	0.17
346.795	69.8
347.007	8.36
347.219	71.85
347.431	10.41
347.643	6.31
347.855	6.31
348.067	90.28
348.279	34.99
348.491	20.65
348.703	4.27
348.915	75.95
349.127	24.75
349.339	-12.12
349.551	2.22
349.763	88.23
349.975	-26.45
350.187	86.19
350.399	57.51
350.61	39.08
350.822	24.75
351.034	63.66
351.246	67.75
351.458	67.75
351.669	67.75
351.881	37.03
352.093	39.08
352.305	34.99
352.517	16.55
352.728	39.08
352.94	34.99
353.152	47.27
353.363	-24.4
353.575	84.14
353.787	116.9
353.999	110.76
354.21	69.8
354.422	-24.4
354.633	47.27
354.845	41.13
355.057	14.51
355.268	43.18
355.48	28.84
355.692	20.65
355.903	-26.45
356.115	22.7
356.326	55.47
356.538	10.41
356.749	39.08
356.961	96.43
357.172	34.99
357.384	20.65
357.595	16.55
357.807	67.75
358.018	59.56
358.23	10.41
358.441	67.75
358.653	4.27
358.864	28.84
359.075	16.55
359.287	16.55
359.498	-8.02
359.709	84.14
359.921	67.75
360.132	77.99
360.344	18.6
360.555	55.47
360.766	108.71
360.977	18.6
361.189	94.38
361.4	0.17
361.611	39.08
361.823	106.67
362.034	-20.31
362.245	-8.02
362.456	55.47
362.667	67.75
362.879	14.51
363.09	22.7
363.301	80.04
363.512	22.7
363.723	32.94
363.935	90.28
364.146	75.95
364.357	12.46
364.568	100.52
364.779	-24.4
364.99	10.41
365.201	92.33
365.412	41.13
365.623	-36.69
365.834	75.95
366.045	47.27
366.256	-1.88
366.467	49.32
366.678	71.85
366.889	30.89
367.1	102.57
367.311	106.67
367.522	16.55
367.733	12.46
367.944	30.89
368.155	34.99
368.366	88.23
368.577	55.47
368.788	94.38
368.999	28.84
369.209	2.22
369.42	137.38
369.631	-38.74
369.842	65.71
370.053	-3.93
370.264	51.37
370.474	96.43
370.685	57.51
370.896	67.75
371.107	-42.84
371.317	18.6
371.528	18.6
371.739	32.94
371.95	65.71
372.16	59.56
372.371	-12.12
372.582	10.41
372.792	63.66
373.003	34.99
373.214	14.51
373.424	69.8
373.635	39.08
373.846	114.86
374.056	12.46
374.267	34.99
374.477	116.9
374.688	88.23
374.898	10.41
375.109	65.71
375.319	37.03
375.53	-16.21
375.74	16.55
375.951	59.56
376.161	6.31
376.372	47.27
376.582	26.79
376.793	6.31
377.003	80.04
377.214	37.03
377.424	71.85
377.635	55.47
377.845	10.41
378.055	67.75
378.266	-1.88
378.476	116.9
378.686	24.75
378.897	65.71
379.107	63.66
379.317	16.55
379.528	-75.6
379.738	34.99
379.948	84.14
380.158	41.13
380.369	14.51
380.579	55.47
380.789	34.99
380.999	47.27
381.21	51.37
381.42	84.14
381.63	20.65
381.84	96.43
382.05	45.23
382.261	84.14
382.471	14.51
382.681	16.55
382.891	-8.02
383.101	-5.97
383.311	98.47
383.521	16.55
383.731	-14.17
383.941	77.99
384.151	43.18
384.361	-16.21
384.571	34.99
384.781	59.56
384.991	108.71
385.201	116.9
385.411	63.66
385.621	16.55
385.831	63.66
386.041	57.51
386.251	-14.17
386.461	71.85
386.671	92.33
386.881	26.79
387.091	84.14
387.301	67.75
387.511	98.47
387.72	59.56
387.93	49.32
388.14	92.33
388.35	61.61
388.56	80.04
388.769	96.43
388.979	43.18
389.189	84.14
389.399	104.62
389.609	65.71
389.818	98.47
390.028	82.09
390.238	51.37
390.447	57.51
390.657	45.23
390.867	30.89
391.076	67.75
391.286	84.14
391.496	80.04
391.705	43.18
391.915	73.9
392.125	39.08
392.334	92.33
392.544	80.04
392.753	-14.17
392.963	63.66
393.172	92.33
393.382	57.51
393.591	96.43
393.801	37.03
394.01	82.09
394.22	22.7
394.429	102.57
394.639	80.04
394.848	49.32
395.058	65.71
395.267	86.19
395.477	49.32
395.686	168.1
395.895	108.71
396.105	82.09
396.314	92.33
396.524	123.05
396.733	20.65
396.942	34.99
397.152	59.56
397.361	118.95
397.57	110.76
397.78	41.13
397.989	104.62
398.198	104.62
398.407	139.43
398.617	125.1
398.826	96.43
399.035	116.9
399.244	61.61
399.453	118.95
399.663	61.61
399.872	123.05
400.081	114.86
400.29	108.71
400.499	131.24
400.708	145.58
400.917	57.51
401.127	88.23
401.336	139.43
401.545	135.34
401.754	100.52
401.963	129.19
402.172	145.58
402.381	61.61
402.59	86.19
402.799	125.1
403.008	186.54
403.217	69.8
403.426	84.14
403.635	137.38
403.844	125.1
404.053	139.43
404.262	188.58
404.471	243.88
404.68	180.39
404.888	170.15
405.097	137.38
405.306	145.58
405.515	174.25
405.724	118.95
405.933	280.74
406.142	157.86
406.35	225.45
406.559	192.68
406.768	243.88
406.977	198.82
407.185	198.82
407.394	268.45
407.603	141.48
407.812	241.83
408.02	272.55
408.229	170.15
408.438	264.36
408.646	196.78
408.855	333.99
409.064	245.93
409.272	278.69
409.481	235.69
409.69	309.41
409.898	297.13
410.107	309.41
410.315	370.85
410.524	348.33
410.733	391.33
410.941	413.86
411.15	352.42
411.358	417.96
411.567	381.09
411.775	407.72
411.984	503.97
412.192	458.92
412.401	475.3
412.609	452.77
412.818	635.04
413.026	596.13
413.234	526.5
413.443	579.75
413.651	594.08
413.86	594.08
414.068	659.62
414.276	712.86
414.485	696.48
414.693	706.72
414.901	757.92
415.11	737.44
415.318	739.49
415.526	811.17
415.734	835.74
415.943	864.41
416.151	913.56
416.359	891.04
416.567	1020.06
416.776	995.48
416.984	1040.54
417.192	1081.5
417.4	1106.07
417.608	1018.01
417.817	1106.07
418.025	1106.07
418.233	1247.38
418.441	1267.86
418.649	1206.42
418.857	1304.73
419.065	1415.32
419.273	1280.15
419.481	1378.45
419.689	1581.2
419.897	1544.34
420.105	1573.01
420.313	1595.54
420.521	1783.95
420.729	1802.38
420.937	1855.63
421.145	1818.77
421.353	1955.98
421.561	2144.39
421.769	2044.04
421.977	2269.32
422.185	2250.89
422.393	2295.94
422.601	2472.07
422.809	2490.5
423.017	2500.74
423.224	2586.76
423.432	2740.35
423.64	2664.58
423.848	2959.49
424.056	2930.81
424.263	3182.71
424.471	3096.7
424.679	3217.53
424.887	3334.26
425.094	3475.57
425.302	3545.2
425.51	3633.27
425.718	3682.42
425.925	3790.96
426.133	3919.98
426.341	3950.7
426.548	4348.01
426.756	4249.71
426.964	4356.2
427.171	4487.27
427.379	4616.29
427.586	4794.47
427.794	4911.2
428.001	5163.1
428.209	5511.25
428.417	5304.41
428.624	5539.93
428.832	5613.65
429.039	5728.34
429.247	5642.32
429.454	6162.51
429.662	6469.7
429.869	6215.76
430.076	6621.25
430.284	6377.55
430.491	6686.79
430.699	6895.68
430.906	7088.19
431.114	7008.32
431.321	7411.77
431.528	7520.31
431.736	7895.09
431.943	8273.96
432.15	8024.11
432.358	8267.82
432.565	8769.57
432.772	8828.96
432.979	9025.57
433.187	9052.19
433.394	9285.66
433.601	9824.28
433.808	9873.43
434.016	9832.47
434.223	10461.2
434.43	10854.41
434.637	10686.47
434.844	11313.15
435.052	11476.99
435.259	11821.05
435.466	11460.6
435.673	11468.8
435.88	12462.06
436.087	12699.62
436.294	12820.46
436.501	12519.4
436.708	12720.1
436.915	13334.5
437.122	13739.99
437.329	13737.95
437.537	14354.38
437.743	14577.61
437.95	14323.66
438.157	15165.38
438.364	15536.06
438.571	15790.01
438.778	15704
438.985	17125.29
439.192	16463.79
439.399	17272.74
439.606	16719.79
439.813	17670.05
440.02	18581.39
440.227	18108.31
440.433	18153.37
440.64	18753.42
440.847	18435.99
441.054	19017.61
441.261	20258.68
441.467	20125.56
441.674	20692.85
441.881	21235.56
442.088	21110.63
442.294	20930.41
442.501	21442.4
442.708	22097.75
442.914	22869.84
443.121	23705.41
443.328	23027.53
443.534	24792.88
443.741	24436.53
443.948	23807.81
444.154	25292.58
444.361	25315.11
444.568	25200.43
444.774	25458.47
444.981	25392.94
445.187	26509.08
445.394	27492.1
445.6	27297.55
445.807	29847.27
446.013	28536.57
446.22	28974.83
446.426	30121.7
446.633	29959.91
446.839	31160.02
447.046	29886.18
447.252	31923.91
447.459	31741.64
447.665	31616.71
447.871	33167.02
448.078	34549.4
448.284	32706.23
448.491	33769.13
448.697	34821.78
448.903	35454.61
449.11	35602.06
449.316	35196.56
449.522	35628.68
449.728	36583.04
449.935	36691.58
450.141	36562.56
450.347	37521.01
450.553	36607.61
450.76	36605.56
450.966	37617.26
451.172	37281.39
451.378	38637.15
451.584	38129.25
451.791	38352.48
451.997	38221.41
452.203	39112.28
452.409	39071.32
452.615	39034.46
452.821	37236.34
453.027	36828.79
453.233	39134.81
453.44	37934.7
453.646	37690.99
453.852	38098.53
454.058	38575.71
454.264	37285.49
454.47	38168.16
454.676	37123.7
454.882	38252.13
455.088	34999.96
455.294	35958.41
455.5	35778.18
455.705	36279.94
455.911	35020.44
456.117	34338.46
456.323	33777.32
456.529	32081.6
456.735	33337.01
456.941	32655.03
457.147	31964.87
457.352	31160.02
457.558	30621.4
457.764	30797.52
457.97	30191.33
458.176	29497.06
458.381	29519.59
458.587	28094.21
458.793	28049.15
458.999	26754.83
459.204	28233.47
459.41	27600.65
459.616	25667.36
459.821	25843.49
460.027	25745.19
460.233	25141.04
460.438	23899.97
460.644	24297.27
460.85	22869.84
461.055	22914.89
461.261	22839.12
461.466	20842.35
461.672	20606.83
461.878	21993.31
462.083	20287.35
462.289	20164.47
462.494	19935.1
462.7	18745.23
462.905	18491.28
463.111	19158.92
463.316	19208.07
463.522	18726.8
463.727	18806.67
463.932	18679.69
464.138	18667.41
464.343	18816.91
464.549	18083.73
464.754	18958.22
464.959	18632.59
465.165	18343.83
465.37	17762.2
465.575	17184.68
465.781	18063.26
465.986	17866.65
466.191	17534.88
466.397	17076.13
466.602	16248.75
466.807	17000.36
467.012	16996.26
467.218	16848.81
467.423	16441.26
467.628	16656.3
467.833	17647.52
468.038	16693.16
468.244	16226.23
468.449	16875.43
468.654	16265.14
468.859	16105.4
469.064	16027.57
469.269	15386.56
469.474	15505.34
469.679	15966.14
469.885	15435.71
470.09	15669.18
470.295	15480.77
470.5	15097.8
470.705	15200.19
470.91	14632.91
471.115	14653.39
471.32	14837.7
471.525	14860.23
471.73	14489.55
471.935	14622.67
472.139	14018.52
472.344	14280.66
472.549	14018.52
472.754	13811.67
472.959	13459.42
473.164	13287.39
473.369	13184.99
473.574	13445.09
473.778	13256.67
473.983	13076.45
474.188	13324.26
474.393	12709.86
474.598	12763.11
474.802	12451.82
475.007	12343.28
475.212	12490.73
475.417	11978.74
475.621	12050.42
475.826	12210.16
476.031	12005.36
476.235	11726.84
476.44	11630.59
476.645	11620.35
476.849	11552.76
477.054	11771.9
477.259	11331.58
477.463	11366.4
477.668	11167.74
477.872	11087.87
478.077	10995.71
478.282	10907.65
478.486	10604.55
478.691	10610.7
478.895	10868.74
479.1	10627.08
479.304	10491.91
479.509	10211.34
479.713	10461.2
479.918	10190.86
480.122	10072.08
480.326	10356.75
480.531	10088.46
480.735	9879.57
480.94	10100.75
481.144	10291.21
481.348	9877.52
481.553	9818.13
481.757	9740.31
481.961	9697.3
482.166	9793.56
482.37	9785.37
482.574	9414.68
482.778	9791.51
482.983	9936.92
483.187	9678.87
483.391	9664.54
483.595	9631.77
483.8	9517.08
484.004	9861.14
484.208	9682.97
484.412	9637.91
484.616	9732.12
484.821	9605.14
485.025	9642.01
485.229	9840.66
485.433	9687.06
485.637	9613.34
485.841	9760.79
486.045	9578.52
486.249	9795.61
486.453	9521.18
486.657	9685.01
486.861	9717.78
487.065	9519.13
487.269	9697.3
487.473	9586.71
487.677	9668.63
487.881	9676.82
488.085	9644.06
488.289	9918.48
488.493	9506.84
488.697	9830.42
488.901	9707.54
489.105	9766.93
489.309	9803.8
489.512	9627.67
489.716	9736.21
489.92	9867.28
490.124	9842.71
490.328	10119.18
490.531	9846.8
490.735	9842.71
490.939	10094.61
491.143	9947.15
491.346	9713.69
491.55	10080.27
491.754	10319.89
491.958	10260.49
492.161	10205.2
492.365	10297.36
492.569	10119.18
492.772	10301.45
492.976	10315.79
493.18	10225.68
493.383	10426.38
493.587	10493.96
493.79	10569.74
493.994	10514.44
494.197	10649.61
494.401	10829.83
494.605	10913.8
494.808	10782.73
495.012	10926.08
495.215	10854.41
495.419	11130.88
495.622	11069.44
495.825	11223.04
496.029	11204.61
496.232	11534.33
496.436	11458.56
496.639	11886.58
496.843	11597.82
497.046	11931.64
497.249	11941.88
497.453	11997.17
497.656	12109.81
497.859	12068.85
498.063	12240.88
498.266	12390.38
498.469	12773.35
498.673	12492.78
498.876	12799.98
499.079	12988.39
499.282	13082.6
499.485	13264.86
499.689	13318.11
499.892	13522.91
500.095	13565.92
500.298	13973.46
500.501	13866.97
500.705	14153.68
500.908	14221.27
501.111	14485.45
501.314	14688.2
501.517	14794.7
501.72	14729.16
501.923	14698.44
502.126	15073.22
502.329	15468.48
502.532	15437.76
502.735	15617.98
502.938	15796.15
503.141	16021.43
503.344	16019.38
503.547	16220.08
503.75	16461.74
503.953	16463.79
504.156	16764.84
504.359	16904.1
504.562	16910.25
504.765	17598.37
504.968	17405.86
505.17	18032.54
505.373	17913.75
505.576	17987.48
505.779	18165.65
505.982	18325.4
506.185	18610.06
506.387	18610.06
506.59	18812.81
506.793	19443.59
506.996	19201.93
507.198	19554.18
507.401	19562.37
507.604	19978.11
507.807	20164.47
508.009	20287.35
508.212	20453.23
508.415	20762.48
508.617	20985.71
508.82	21221.22
509.022	20950.89
509.225	21526.37
509.428	21620.58
509.63	22048.6
509.833	22024.03
510.035	22378.33
510.238	22220.63
510.44	22755.15
510.643	23136.07
510.845	23312.2
511.048	23119.69
511.25	23531.33
511.453	23570.24
511.655	24614.71
511.858	23977.79
512.06	24327.99
512.262	24618.8
512.465	24477.49
512.667	24995.63
512.87	25272.11
513.072	25374.5
513.274	25988.89
513.477	26205.98
513.679	26365.72
513.881	26634
514.084	26808.08
514.286	26799.89
514.488	26711.83
514.69	27703.04
514.893	27682.56
515.095	27709.19
515.297	28129.02
515.499	28368.63
515.701	28700.4
515.904	29173.49
516.106	29187.82
516.308	29357.8
516.51	29722.34
516.712	29820.64
516.914	30011.1
517.116	30772.95
517.318	30482.14
517.52	30584.54
517.722	30729.94
517.925	31600.33
518.127	31555.27
518.329	31950.53
518.531	31821.51
518.733	32339.65
518.935	32882.36
519.136	32605.88
519.338	33087.15
519.54	33506.99
519.742	33330.86
519.944	33554.09
520.146	33932.96
520.348	34262.69
520.55	34524.83
520.752	34584.22
520.954	34946.71
521.155	35042.96
521.357	35258
521.559	35716.75
521.761	36073.09
521.963	36167.3
522.164	36441.73
522.366	36423.29
522.568	36875.9
522.77	37256.82
522.971	37471.85
523.173	37400.18
523.375	37727.85
523.576	37703.28
523.778	37738.09
523.98	38446.69
524.181	38800.99
524.383	38237.8
524.584	38762.08
524.786	39075.41
524.988	38616.67
525.189	39521.87
525.391	39554.64
525.592	39845.45
525.794	40072.78
525.995	39982.66
526.197	39794.25
526.398	40001.1
526.6	40226.37
526.801	40398.4
527.003	41107
527.204	40808
527.406	41027.13
527.607	40967.74
527.808	41201.21
528.01	41176.63
528.211	41635.38
528.412	41813.55
528.614	41637.42
528.815	41379.38
529.016	41877.04
529.218	41807.4
529.419	41745.97
529.62	41541.17
529.822	42065.45
530.023	41625.14
530.224	42542.63
530.425	42352.16
530.626	41578.03
530.828	42059.3
531.029	42825.25
531.23	42167.85
531.431	42503.71
531.632	42982.94
531.833	42688.03
532.035	42516
532.236	42876.44
532.437	42915.36
532.638	42698.27
532.839	43054.62
533.04	42933.79
533.241	42346.02
533.442	43558.42
533.643	42909.21
533.844	42804.77
534.045	43224.6
534.246	42655.26
534.447	43269.65
534.648	42993.18
534.849	43316.76
535.05	42872.35
535.251	43097.63
535.451	42960.41
535.652	42974.75
535.853	43165.21
536.054	43550.23
536.255	43390.48
536.456	43193.88
536.657	43814.41
536.857	43058.71
537.058	42993.18
537.259	43458.07
537.46	43165.21
537.66	43046.43
537.861	43298.33
538.062	42884.64
538.263	43632.14
538.463	43283.99
538.664	43306.52
538.865	43458.07
539.065	43376.15
539.266	42876.44
539.466	43685.39
539.667	42620.45
539.868	43339.29
540.068	43116.06
540.269	43183.64
540.469	43515.41
540.67	42696.22
540.87	43230.74
541.071	43228.7
541.271	43243.03
541.472	42698.27
541.672	42755.61
541.873	43042.33
542.073	43044.38
542.274	43314.71
542.474	42659.36
542.675	42534.43
542.875	43310.61
543.075	42786.33
543.276	42423.84
543.476	43386.39
543.676	42774.05
543.877	43011.61
544.077	42718.75
544.277	42888.73
544.478	42839.58
544.678	43095.58
544.878	42937.88
545.078	43142.68
545.279	42948.12
545.479	42755.61
545.679	43085.34
545.879	42898.97
546.079	42888.73
546.28	42999.32
546.48	42728.99
546.68	42888.73
546.88	42776.09
547.08	43091.48
547.28	42421.8
547.48	42143.27
547.68	42679.84
547.88	42348.07
548.081	42769.95
548.281	42352.16
548.481	42864.16
548.681	42720.8
548.881	42511.91
549.081	42432.04
549.28	42520.1
549.48	43052.57
549.68	42626.59
549.88	42538.53
550.08	42266.15
550.28	42470.95
550.48	42075.69
550.68	43218.46
550.88	42307.11
551.08	42528.29
551.279	42511.91
551.479	42044.97
551.679	42645.02
551.879	42137.13
552.079	42544.67
552.278	42219.05
552.478	42432.04
552.678	42356.26
552.878	42253.86
553.077	42212.9
553.277	42022.44
553.477	42704.42
553.676	41991.72
553.876	42067.5
554.076	41938.47
554.275	41932.33
554.475	41815.6
554.674	42034.73
554.874	42075.69
555.074	41991.72
555.273	42130.98
555.473	41975.34
555.672	41424.43
555.872	41918
556.071	41905.71
556.271	41971.24
556.47	41653.81
556.67	41233.97
556.869	41164.34
557.068	41825.84
557.268	41453.11
557.467	41430.58
557.667	41377.33
557.866	41332.28
558.065	41104.95
558.265	41035.32
558.464	40828.48
558.663	41719.34
558.863	40820.28
559.062	41309.75
559.261	40898.11
559.461	41023.03
559.66	40742.46
559.859	40937.02
560.058	40660.54
560.258	40863.29
560.457	40138.31
560.656	40851
560.855	40439.36
561.054	40365.63
561.253	40263.24
561.453	40312.39
561.652	40398.4
561.851	40347.2
562.05	40113.73
562.249	39960.14
562.448	40138.31
562.647	40080.97
562.846	39927.37
563.045	39829.07
563.244	39513.68
563.443	40359.49
563.642	38997.59
563.841	39372.37
564.04	39503.44
564.239	39929.42
564.438	39296.6
564.637	39429.71
564.836	39284.31
565.035	39169.62
565.234	39292.5
565.432	39353.94
565.631	38977.11
565.83	39001.69
566.029	39071.32
566.228	38745.69
566.427	38530.65
566.625	38565.47
566.824	38170.21
567.023	38776.41
567.222	37844.59
567.42	38338.15
567.619	37989.99
567.818	38098.53
568.016	37471.85
568.215	38327.91
568.414	37645.93
568.612	38123.11
568.811	37650.03
569.01	37738.09
569.208	37830.25
569.407	37690.99
569.605	37025.4
569.804	37289.59
570.002	37215.86
570.201	37447.28
570.4	36882.04
570.598	37168.76
570.797	36796.03
570.995	37080.69
571.193	36560.51
571.392	37047.93
571.59	36394.62
571.789	36451.97
571.987	36198.02
572.186	36621.95
572.384	36550.27
572.582	36398.72
572.781	36503.17
572.979	35493.52
573.177	36267.65
573.376	36234.88
573.574	35235.47
573.772	36023.94
573.971	35317.39
574.169	35706.51
574.367	35376.78
574.565	35690.12
574.763	35239.57
574.962	35006.1
575.16	35108.5
575.358	35231.38
575.556	34872.98
575.754	35319.44
575.952	34543.26
576.151	34770.58
576.349	34522.78
576.547	34809.5
576.745	34578.08
576.943	34817.69
577.141	34397.85
577.339	34238.11
577.537	34223.78
577.735	34258.59
577.933	33629.87
578.131	34076.32
578.329	34006.69
578.527	33509.04
578.725	34021.03
578.923	33775.27
579.121	33762.98
579.319	33568.43
579.516	33500.84
579.714	33095.35
579.912	33283.76
580.11	33029.81
580.308	33224.37
580.506	33115.83
580.704	32423.61
580.901	33124.02
581.099	32949.94
581.297	32915.12
581.495	32272.06
581.692	32847.54
581.89	32370.36
582.088	32337.6
582.285	32218.82
582.483	32329.41
582.681	31960.77
582.878	32067.27
583.076	31788.74
583.274	32057.03
583.471	31633.1
583.669	31786.69
583.866	31465.16
584.064	31692.49
584.262	31315.66
584.459	31491.79
584.657	31086.29
584.854	31516.36
585.052	31096.53
585.249	31149.78
585.447	30918.35
585.644	30574.3
585.841	30723.8
586.039	30631.64
586.236	30549.72
586.434	30471.9
586.631	30471.9
586.828	30365.4
587.026	30451.42
587.223	30514.91
587.42	30154.46
587.618	30203.61
587.815	29824.74
588.012	29712.1
588.21	29548.26
588.407	30220
588.604	29425.39
588.801	29554.41
588.999	29753.06
589.196	29425.39
589.393	29263.6
589.59	29175.53
589.787	29036.27
589.984	29066.99
590.182	28544.76
590.379	29241.07
590.576	28786.42
590.773	28722.93
590.97	28534.52
591.167	28577.53
591.364	28335.87
591.561	28606.2
591.758	28043.01
591.955	28360.44
592.152	28362.49
592.349	27944.7
592.546	28086.01
592.743	28258.04
592.94	27739.91
593.137	27604.74
593.334	27989.76
593.531	27467.53
593.727	27629.32
593.924	27662.08
594.121	27649.8
594.318	27377.42
594.515	27016.97
594.712	27268.87
594.908	26685.2
595.105	27299.59
595.302	26883.86
595.499	27012.88
595.696	27209.48
595.892	26695.44
596.089	26691.35
596.286	26705.68
596.482	26648.34
596.679	26234.65
596.876	26263.32
597.072	26486.55
597.269	26283.8
597.466	26197.79
597.662	26062.62
597.859	26070.81
598.055	26308.38
598.252	25876.26
598.448	25749.28
598.645	25583.4
598.841	25517.86
599.038	25743.14
599.234	25620.26
599.431	25476.9
599.627	25214.76
599.824	25528.1
600.02	25012.01
600.217	25091.88
600.413	25007.92
600.609	24612.66
600.806	24684.34
601.002	25032.49
601.198	24405.81
601.395	24373.05
601.591	24295.22
601.787	24457.01
601.984	24354.62
602.18	24633.14
602.376	24330.04
602.572	24299.32
602.769	23973.69
602.965	24166.2
603.161	23807.81
603.357	23889.73
603.553	23861.05
603.75	23596.87
603.946	23531.33
604.142	23578.43
604.338	23232.33
604.534	23867.2
604.73	23160.65
604.926	23177.03
605.122	23129.93
605.318	23187.27
605.514	23185.22
605.71	22959.95
605.906	22814.54
606.102	22828.88
606.298	22615.89
606.494	22918.99
606.69	23072.59
606.886	22888.27
607.082	22587.22
607.278	22816.59
607.474	22536.02
607.67	22665.04
607.866	22546.26
608.062	22751.06
608.257	22284.12
608.453	22345.56
608.649	22353.75
608.845	22167.38
609.041	22169.43
609.236	22187.86
609.432	22183.77
609.628	21905.24
609.824	21739.36
610.019	21759.84
610.215	21827.42
610.411	22015.83
610.606	21555.04
610.802	21679.97
610.998	21669.73
611.193	21802.85
611.389	21770.08
611.584	21583.71
611.78	21368.68
611.976	21520.23
612.171	21624.67
612.367	21321.57
612.562	21241.7
612.758	21036.91
612.953	21276.52
613.149	21442.4
613.344	20899.69
613.539	21290.85
613.735	21225.32
613.93	21108.58
614.126	20539.25
614.321	21358.44
614.517	21274.47
614.712	20668.27
614.907	20692.85
615.103	20789.1
615.298	20733.81
615.493	21098.34
615.688	20574.06
615.884	21004.14
616.079	20664.18
616.274	20709.23
616.47	20311.92
616.665	20686.7
616.86	20516.72
617.055	20547.44
617.25	20250.49
617.445	20361.08
617.641	20025.21
617.836	20428.66
618.031	20105.08
618.226	20504.43
618.421	19904.38
618.616	20223.86
618.811	19693.44
619.006	20129.66
619.201	19468.16
619.396	19793.79
619.591	19597.18
619.786	19480.45
619.981	19173.25
620.176	19349.38
620.371	19289.99
620.566	19226.5
620.761	19124.1
620.956	19230.6
621.151	18943.88
621.346	18972.55
621.541	18665.36
621.735	18982.79
621.93	18679.69
622.125	18726.8
622.32	18194.33
622.515	18413.46
622.709	18003.86
622.904	18200.47
623.099	18040.73
623.294	18440.08
623.488	18114.45
623.683	18048.92
623.878	17831.83
624.072	17840.03
624.267	17676.19
624.462	17479.58
624.656	17338.27
624.851	17452.96
625.046	17162.15
625.24	17199.01
625.435	16791.47
625.629	16924.58
625.824	16727.98
626.018	16781.23
626.213	16502.7
626.407	16631.72
626.602	16193.46
626.796	16451.5
626.991	16463.79
627.185	16551.85
627.38	16062.39
627.574	16185.27
627.768	15804.35
627.963	16134.07
628.157	15509.44
628.352	15687.61
628.546	15513.53
628.74	15701.95
628.935	15398.85
629.129	15556.54
629.323	15245.25
629.517	15351.74
629.712	15069.12
629.906	15345.6
630.1	14929.86
630.294	15042.5
630.489	14725.07
630.683	14919.62
630.877	14716.87
631.071	14692.3
631.265	14735.31
631.459	14600.14
631.653	14397.39
631.848	14467.02
632.042	14145.49
632.236	14413.77
632.43	14006.23
632.624	14170.07
632.818	13858.78
633.012	13799.38
633.206	14039
633.4	13721.56
633.594	13545.44
633.788	13817.82
633.982	13598.68
634.176	13490.14
634.369	13344.74
634.563	13455.33
634.757	13242.34
634.951	13217.76
635.145	12840.93
635.339	13279.2
635.533	13047.78
635.726	13045.73
635.92	12689.39
636.114	12822.5
636.308	12713.96
636.501	12685.29
636.695	12466.16
636.889	12568.55
637.083	12462.06
637.276	12255.22
637.47	12363.76
637.664	12392.43
637.857	12036.08
638.051	12046.32
638.244	12191.73
638.438	12204.02
638.632	11859.96
638.825	11929.59
639.019	11915.25
639.212	11696.12
639.406	11499.52
639.599	11671.54
639.793	11710.46
639.986	11507.71
640.18	11712.5
640.373	11698.17
640.567	11499.52
640.76	11225.09
640.954	11216.9
641.147	11147.26
641.34	11014.15
641.534	11042.82
641.727	10989.57
641.92	10833.93
642.114	10770.44
642.307	11143.17
642.5	10958.85
642.694	10596.36
642.887	10477.58
643.08	10518.54
643.273	10403.85
643.467	10569.74
643.66	10457.1
643.853	10295.31
644.046	10301.45
644.239	10387.47
644.432	10192.91
644.626	10213.39
644.819	9961.49
645.012	10151.95
645.205	10133.52
645.398	9941.01
645.591	9902.1
645.784	9900.05
645.977	9666.58
646.17	9814.04
646.363	9701.4
646.556	9488.41
646.749	9629.72
646.942	9779.22
647.135	9383.96
647.328	9658.39
647.521	9447.45
647.714	9109.54
647.907	9322.52
648.099	9164.83
648.292	9121.82
648.485	9250.85
648.678	9199.65
648.871	9109.54
649.064	8788
649.256	8945.7
649.449	9044
649.642	8927.27
649.835	8687.65
650.027	8808.48
650.22	8804.39
650.413	8749.09
650.605	8718.37
650.798	8581.16
650.991	8519.72
651.183	8601.64
651.376	8345.64
651.568	8265.77
651.761	8357.93
651.954	8396.84
652.146	8362.03
652.339	8151.09
652.531	8171.57
652.724	8136.75
652.916	8038.45
653.109	8077.36
653.301	8220.72
653.494	7936.05
653.686	7821.36
653.879	7954.48
654.071	7905.33
654.263	7669.81
654.456	7899.19
654.648	7839.8
654.84	7635
655.033	7682.1
655.225	7528.5
655.417	7669.81
655.61	7546.94
655.802	7501.88
655.994	7561.27
656.186	7473.21
656.379	7262.27
656.571	7407.67
656.763	7194.68
656.955	7096.38
657.148	7350.33
657.34	7209.02
657.532	7168.06
657.724	7104.57
657.916	7120.96
658.108	7112.77
658.3	7139.39
658.492	6979.65
658.684	6944.83
658.876	6926.4
659.068	6793.28
659.26	6754.37
659.452	6944.83
659.644	6862.91
659.836	6785.09
660.028	6772.8
660.22	6651.97
660.412	6615.11
660.604	6594.63
660.796	6324.3
660.988	6314.06
661.18	6463.56
661.372	6393.93
661.563	6441.03
661.755	6332.49
661.947	6301.77
662.139	6424.65
662.331	6295.63
662.522	6219.85
662.714	6158.41
662.906	6101.07
663.097	6025.29
663.289	6244.43
663.481	6125.65
663.673	6029.39
663.864	6043.73
664.056	5828.69
664.247	5978.19
664.439	5828.69
664.631	5789.78
664.822	5890.13
665.014	5660.76
665.205	5763.15
665.397	5789.78
665.588	5953.62
665.78	5759.06
665.971	5797.97
666.163	5748.82
666.354	5615.7
666.546	5734.48
666.737	5578.84
666.929	5535.83
667.12	5570.65
667.311	5470.3
667.503	5523.54
667.694	5615.7
667.885	5417.05
668.077	5351.51
668.268	5357.66
668.459	5525.59
668.651	5253.21
668.842	5202.01
669.033	5341.27
669.224	5232.73
669.416	5304.41
669.607	5122.14
669.798	5324.89
669.989	5099.61
670.18	5009.5
670.371	5199.96
670.563	5042.27
670.754	5011.55
670.945	5025.89
671.136	5013.6
671.327	5042.27
671.518	4827.23
671.709	4911.2
671.9	5042.27
672.091	4868.19
672.282	4720.74
672.473	4730.98
672.664	4843.62
672.855	4720.74
673.046	4839.52
673.237	4933.73
673.428	4878.43
673.619	4792.42
673.809	4653.16
674	4747.36
674.191	4704.35
674.382	4604
674.573	4853.86
674.764	4550.76
674.954	4726.88
675.145	4612.2
675.336	4638.82
675.527	4581.48
675.717	4542.57
675.908	4550.76
676.099	4503.65
676.289	4423.78
676.48	4468.84
676.671	4339.82
676.861	4565.09
677.052	4415.59
677.243	4313.19
677.433	4286.57
677.624	4294.76
677.814	4268.14
678.005	4479.08
678.195	4255.85
678.386	4376.68
678.576	4210.79
678.767	4331.62
678.957	4360.3
679.148	4167.79
679.338	4259.95
679.529	4153.45
679.719	4094.06
679.909	4137.07
680.1	4251.75
680.29	4311.14
680.481	4014.19
680.671	4198.51
680.861	4231.27
681.052	3987.57
681.242	3991.66
681.432	4085.87
681.622	4006
681.813	3952.75
682.003	4044.91
682.193	4075.63
682.383	3960.94
682.573	3975.28
682.764	3971.18
682.954	3905.65
683.144	4022.38
683.334	3844.21
683.524	3919.98
683.714	4020.33
683.904	3883.12
684.094	3909.74
684.284	3899.5
684.474	4024.43
684.664	3856.5
684.854	3932.27
685.044	3747.95
685.234	3952.75
685.424	3612.79
685.614	3772.53
685.804	3702.9
685.994	3678.32
686.184	3723.38
686.374	3844.21
686.564	3788.91
686.753	3702.9
686.943	3590.26
687.133	3659.89
687.323	3668.08
687.513	3575.92
687.702	3670.13
687.892	3541.11
688.082	3713.14
688.272	3590.26
688.461	3635.32
688.651	3567.73
688.841	3594.36
689.03	3561.59
689.22	3451
689.41	3436.66
689.599	3469.43
689.789	3385.46
689.979	3393.65
690.168	3436.66
690.358	3336.31
690.547	3434.61
690.737	3389.56
690.926	3430.52
691.116	3166.33
691.305	3393.65
691.495	3176.57
691.684	3293.3
691.874	3399.8
692.063	3303.54
692.252	3260.54
692.442	3180.67
692.631	3160.19
692.82	3151.99
693.01	3082.36
693.199	2953.34
693.388	3074.17
693.578	3172.47
693.767	3012.73
693.956	3053.69
694.146	3100.8
694.335	2943.1
694.524	2945.15
694.713	2988.16
694.902	3068.03
695.092	3084.41
695.281	3041.4
695.47	2939.01
695.659	3051.64
695.848	3051.64
696.037	2982.01
696.226	3020.92
696.415	2852.99
696.604	2908.29
696.793	2883.71
696.982	2961.53
697.171	2996.35
697.36	2953.34
697.549	2875.52
697.738	2885.76
697.927	2746.5
698.116	2910.33
698.305	2891.9
698.494	2922.62
698.683	2891.9
698.872	2869.37
699.061	2740.35
699.25	2859.14
699.438	2836.61
699.627	2852.99
699.816	2848.9
700.005	2852.99
700.193	2881.66
700.382	2775.17
700.571	2852.99
700.76	2807.94
700.948	2893.95
701.137	2617.47
701.326	2738.3
701.514	2775.17
701.703	2826.37
701.892	2664.58
702.08	2797.7
702.269	2676.87
702.457	2693.25
702.646	2764.93
702.834	2721.92
703.023	2701.44
703.212	2658.43
703.4	2656.39
703.589	2685.06
703.777	2721.92
703.965	2691.2
704.154	2789.5
704.342	2611.33
704.531	2771.07
704.719	2738.3
704.907	2738.3
705.096	2742.4
705.284	2697.35
705.472	2644.1
705.661	2709.63
705.849	2783.36
706.037	2621.57
706.226	2619.52
706.414	2631.81
706.602	2644.1
706.79	2717.83
706.979	2584.71
707.167	2664.58
707.355	2734.21
707.543	2533.51
707.731	2662.53
707.919	2750.59
708.107	2549.89
708.296	2699.39
708.484	2623.62
708.672	2705.54
708.86	2582.66
709.048	2607.23
709.236	2597
709.424	2660.48
709.612	2599.04
709.8	2631.81
709.988	2660.48
710.176	2617.47
710.364	2627.71
710.551	2719.87
710.739	2625.67
710.927	2486.4
711.115	2652.29
711.303	2656.39
711.491	2613.38
711.679	2627.71
711.866	2611.33
712.054	2537.6
712.242	2568.32
712.43	2537.6
712.617	2621.57
712.805	2549.89
712.993	2582.66
713.181	2572.42
713.368	2457.73
713.556	2551.94
713.744	2615.43
713.931	2619.52
714.119	2607.23
714.306	2480.26
714.494	2572.42
714.682	2582.66
714.869	2527.36
715.057	2465.93
715.244	2447.49
715.432	2631.81
715.619	2519.17
715.807	2543.75
715.994	2506.88
716.182	2586.76
716.369	2558.08
716.556	2416.77
716.744	2510.98
716.931	2517.12
717.119	2498.69
717.306	2549.89
717.493	2506.88
717.681	2621.57
717.868	2504.84
718.055	2762.88
718.242	2480.26
718.43	2474.12
718.617	2562.18
718.804	2416.77
718.991	2463.88
719.179	2515.08
719.366	2429.06
719.553	2494.6
719.74	2496.64
719.927	2457.73
720.114	2422.92
720.301	2488.45
720.488	2418.82
720.676	2386.05
720.863	2439.3
721.05	2494.6
721.237	2461.83
721.424	2615.43
721.611	2531.46
721.798	2386.05
721.985	2392.2
722.172	2435.21
722.358	2371.72
722.545	2408.58
722.732	2457.73
722.919	2359.43
723.106	2420.87
723.293	2445.45
723.48	2470.02
723.667	2439.3
723.853	2347.14
724.04	2459.78
724.227	2558.08
724.414	2508.93
724.6	2361.48
724.787	2527.36
724.974	2453.64
725.161	2586.76
725.347	2408.58
725.534	2470.02
725.72	2494.6
725.907	2490.5
726.094	2611.33
726.28	2396.29
726.467	2449.54
726.653	2508.93
726.84	2402.44
727.027	2476.16
727.213	2381.96
727.4	2437.25
727.586	2431.11
727.773	2476.16
727.959	2365.57
728.145	2316.42
728.332	2408.58
728.518	2404.49
728.705	2424.97
728.891	2375.81
729.077	2445.45
729.264	2367.62
729.45	2525.32
729.636	2453.64
729.823	2345.09
730.009	2465.93
730.195	2396.29
730.382	2439.3
730.568	2363.53
730.754	2445.45
730.94	2369.67
731.126	2433.16
731.313	2482.31
731.499	2418.82
731.685	2324.62
731.871	2375.81
732.057	2455.69
732.243	2353.29
732.429	2439.3
732.615	2447.49
732.801	2361.48
732.987	2459.78
733.173	2341
733.359	2412.68
733.545	2345.09
733.731	2265.22
733.917	2418.82
734.103	2369.67
734.289	2445.45
734.475	2408.58
734.661	2306.18
734.847	2332.81
735.033	2502.79
735.219	2521.22
735.404	2472.07
735.59	2431.11
735.776	2330.76
735.962	2349.19
736.148	2496.64
736.333	2400.39
736.519	2314.38
736.705	2328.71
736.89	2390.15
737.076	2328.71
737.262	2285.7
737.447	2363.53
737.633	2300.04
737.819	2373.77
738.004	2394.25
738.19	2379.91
738.375	2209.93
738.561	2287.75
738.747	2238.6
738.932	2195.59
739.118	2347.14
739.303	2365.57
739.489	2328.71
739.674	2189.45
739.859	2164.87
740.045	2343.05
740.23	2234.5
740.416	2275.46
740.601	2261.13
740.786	2324.62
740.972	2285.7
741.157	2369.67
741.342	2173.07
741.528	2171.02
741.713	2140.3
741.898	2238.6
742.084	2289.8
742.269	2220.17
742.454	2128.01
742.639	2132.11
742.824	2160.78
743.01	2183.31
743.195	2226.31
743.38	2033.8
743.565	2095.24
743.75	2150.54
743.935	2166.92
744.12	2259.08
744.305	2117.77
744.49	2103.43
744.675	2140.3
744.86	2060.43
745.045	2033.8
745.23	2091.15
745.415	2066.57
745.6	2060.43
745.785	1990.8
745.97	1992.84
746.155	2076.81
746.34	2025.61
746.525	1953.93
746.71	2054.28
746.895	1996.94
747.079	2031.76
747.264	1908.88
747.449	2009.23
747.634	1925.26
747.819	1845.39
748.003	1886.35
748.188	1857.68
748.373	2009.23
748.557	1958.03
748.742	1820.81
748.927	1859.73
749.111	1912.97
749.296	1829.01
749.481	1955.98
749.665	1798.29
749.85	1769.62
750.034	1869.97
750.219	1806.48
750.404	1763.47
750.588	1740.94
750.773	1607.83
750.957	1777.81
751.141	1652.88
751.326	1734.8
751.51	1708.18
751.695	1724.56
751.879	1677.46
752.064	1708.18
752.248	1685.65
752.432	1779.86
752.617	1693.84
752.801	1671.31
752.985	1718.42
753.17	1673.36
753.354	1650.83
753.538	1577.11
753.722	1591.44
753.907	1575.06
754.091	1609.87
754.275	1573.01
754.459	1495.19
754.643	1413.27
754.828	1659.03
755.012	1403.03
755.196	1460.37
755.38	1355.93
755.564	1421.46
755.748	1474.71
755.932	1435.8
756.116	1331.35
756.3	1409.17
756.484	1423.51
756.668	1386.65
756.852	1310.87
757.036	1419.41
757.22	1321.11
757.404	1323.16
757.588	1398.93
757.772	1407.13
757.956	1312.92
758.14	1304.73
758.323	1284.25
758.507	1331.35
758.691	1284.25
758.875	1208.47
759.059	1296.53
759.242	1329.3
759.426	1341.59
759.61	1271.96
759.794	1259.67
759.977	1407.13
760.161	1286.3
760.345	1245.34
760.528	1171.61
760.712	1231
760.895	1226.9
761.079	1194.14
761.263	1124.51
761.446	1187.99
761.63	1157.27
761.813	1222.81
761.997	1208.47
762.18	1169.56
762.364	1216.66
762.547	1124.51
762.731	1235.1
762.914	1147.03
763.098	1079.45
763.281	1165.46
763.464	1216.66
763.648	1097.88
763.831	1097.88
764.015	1128.6
764.198	1063.07
764.381	1167.51
764.564	1130.65
764.748	1108.12
764.931	1122.46
765.114	1042.59
765.297	1087.64
765.481	1075.35
765.664	1167.51
765.847	934.04
766.03	1140.89
766.213	1099.93
766.397	1050.78
766.58	1015.96
766.763	1108.12
766.946	1083.55
767.129	975
767.312	1024.16
767.495	1026.2
767.678	1024.16
767.861	1089.69
768.044	952.48
768.227	1038.49
768.41	1073.31
768.593	1046.68
768.776	970.91
768.959	913.56
769.142	1022.11
769.324	956.57
769.507	956.57
769.69	960.67
769.873	993.44
770.056	1034.39
770.239	983.2
770.421	1024.16
770.604	921.76
770.787	950.43
770.97	923.8
771.152	886.94
771.335	975
771.518	936.09
771.7	932
771.883	997.53
772.066	983.2
772.248	895.13
772.431	1007.77
772.613	958.62
772.796	915.61
772.978	848.03
773.161	886.94
773.343	905.37
773.526	880.8
773.708	934.04
773.891	827.55
774.073	882.85
774.256	878.75
774.438	866.46
774.621	743.58
774.803	852.13
774.985	792.73
775.168	796.83
775.35	905.37
775.532	805.02
775.715	745.63
775.897	768.16
776.079	794.78
776.261	770.21
776.444	749.73
776.626	706.72
776.808	729.25
776.99	829.6
777.173	757.92
777.355	762.02
777.537	755.87
777.719	784.54
777.901	733.34
778.083	680.1
778.265	655.52
778.447	704.67
778.629	684.19
778.811	663.71
778.993	694.43
779.175	739.49
779.357	710.82
779.539	643.23
779.721	626.85
779.903	700.58
780.085	663.71
780.267	581.79
780.449	678.05
780.631	635.04
780.812	669.86
780.994	569.51
781.176	610.47
781.358	626.85
781.54	628.9
781.721	673.95
781.903	665.76
782.085	612.51
782.267	602.27
782.448	606.37
782.63	618.66
782.812	622.75
782.993	579.75
783.175	624.8
783.357	573.6
783.538	608.42
783.72	516.26
783.901	528.55
784.083	508.07
784.264	557.22
784.446	551.07
784.627	428.2
784.809	561.31
784.99	528.55
785.172	557.22
785.353	495.78
785.535	477.35
785.716	518.31
785.897	579.75
786.079	465.06
786.26	522.4
786.441	460.96
786.623	436.39
786.804	497.83
786.985	481.44
787.167	432.29
787.348	415.91
787.529	487.59
787.71	460.96
787.891	467.11
788.073	514.21
788.254	503.97
788.435	411.81
788.616	440.48
788.797	460.96
788.978	458.92
789.159	331.94
789.34	438.44
789.522	436.39
789.703	463.01
789.884	420
790.065	424.1
790.246	415.91
790.427	413.86
790.607	456.87
790.788	377
790.969	333.99
791.15	387.24
791.331	354.47
791.512	395.43
791.693	319.65
791.874	321.7
792.054	413.86
792.235	325.8
792.416	356.52
792.597	243.88
792.778	333.99
792.958	374.95
793.139	389.28
793.32	387.24
793.5	417.96
793.681	329.89
793.862	370.85
794.042	350.37
794.223	313.51
794.404	379.04
794.584	348.33
794.765	405.67
794.945	290.98
795.126	387.24
795.306	338.09
795.487	364.71
795.667	325.8
795.848	290.98
796.028	331.94
796.209	391.33
796.389	348.33
796.57	329.89
796.75	303.27
796.93	282.79
797.111	256.17
797.291	260.26
797.471	266.41
797.652	293.03
797.832	319.65
798.012	342.18
798.192	352.42
798.373	276.65
798.553	276.65
798.733	317.61
798.913	303.27
799.093	309.41
799.274	274.6
799.454	250.02
799.634	258.21
799.814	325.8
799.994	293.03
800.174	293.03
800.354	340.13
800.534	231.59
800.714	329.89
800.894	229.54
801.074	207.02
801.254	202.92
801.434	268.45
801.614	311.46
801.794	233.64
801.974	628.9
802.154	225.45
802.334	303.27
802.514	217.26
802.693	239.78
802.873	166.06
803.053	194.73
803.233	225.45
803.413	174.25
803.592	157.86
803.772	280.74
803.952	213.16
804.131	192.68
804.311	268.45
804.491	270.5
804.67	243.88
804.85	233.64
805.03	180.39
805.209	250.02
805.389	247.97
805.568	284.84
805.748	221.35
805.928	225.45
806.107	213.16
806.287	196.78
806.466	260.26
806.646	266.41
806.825	215.21
807.004	215.21
807.184	270.5
807.363	280.74
807.543	252.07
807.722	223.4
807.901	231.59
808.081	247.97
808.26	217.26
808.439	227.5
808.619	186.54
808.798	237.74
808.977	204.97
809.156	139.43
809.336	110.76
809.515	211.11
809.694	250.02
809.873	186.54
810.052	137.38
810.231	198.82
810.411	198.82
810.59	260.26
810.769	174.25
810.948	200.87
811.127	98.47
811.306	161.96
811.485	198.82
811.664	202.92
811.843	149.67
812.022	221.35
812.201	188.58
812.38	182.44
812.559	190.63
812.737	213.16
812.916	92.33
813.095	192.68
813.274	217.26
813.453	211.11
813.632	149.67
813.811	207.02
813.989	168.1
814.168	168.1
814.347	164.01
814.526	90.28
814.704	151.72
814.883	186.54
815.062	184.49
815.24	209.06
815.419	90.28
815.598	235.69
815.776	149.67
815.955	200.87
816.133	129.19
816.312	118.95
816.49	182.44
816.669	147.62
816.847	129.19
817.026	100.52
817.204	145.58
817.383	200.87
817.561	104.62
817.74	121
817.918	118.95
818.097	151.72
818.275	55.47
818.453	123.05
818.632	168.1
818.81	94.38
818.988	106.67
819.167	174.25
819.345	135.34
819.523	182.44
819.701	129.19
819.879	133.29
820.058	104.62
820.236	90.28
820.414	118.95
820.592	172.2
820.77	118.95
820.948	98.47
821.127	69.8
821.305	157.86
821.483	84.14
821.661	149.67
821.839	71.85
822.017	32.94
822.195	110.76
822.373	178.34
822.551	100.52
822.729	90.28
822.907	170.15
823.085	141.48
823.262	28.84
823.44	92.33
823.618	106.67
823.796	147.62
823.974	147.62
824.152	37.03
824.329	65.71
824.507	108.71
824.685	108.71
824.863	90.28
825.04	116.9
825.218	116.9
825.396	135.34
825.574	84.14
825.751	110.76
825.929	166.06
826.107	153.77
826.284	135.34
826.462	104.62
826.639	108.71
826.817	110.76
826.994	137.38
827.172	131.24
827.349	112.81
827.527	108.71
827.704	123.05
827.882	106.67
828.059	96.43
828.237	127.14
828.414	135.34
828.591	75.95
828.769	88.23
828.946	153.77
829.124	149.67
829.301	16.55
829.478	71.85
829.655	98.47
829.833	106.67
830.01	55.47
830.187	135.34
830.364	75.95
830.542	63.66
830.719	145.58
830.896	137.38
831.073	73.9
831.25	77.99
831.427	39.08
831.604	67.75
831.782	51.37
831.959	88.23
832.136	49.32
832.313	92.33
832.49	77.99
832.667	139.43
832.844	39.08
833.021	118.95
833.198	96.43
833.374	127.14
833.551	53.42
833.728	92.33
833.905	47.27
834.082	84.14
834.259	61.61
834.436	123.05
834.612	43.18
834.789	100.52
834.966	96.43
835.143	92.33
835.319	108.71
835.496	129.19
835.673	43.18
835.85	86.19
836.026	116.9
836.203	80.04
836.38	-16.21
836.556	-5.97
836.733	100.52
836.909	88.23
837.086	106.67
837.262	49.32
837.439	104.62
837.616	51.37
837.792	67.75
837.968	88.23
838.145	84.14
838.321	18.6
838.498	55.47
838.674	65.71
838.851	32.94
839.027	63.66
839.203	49.32
839.38	67.75
839.556	86.19
839.732	88.23
839.909	12.46
840.085	69.8
840.261	18.6
840.437	34.99
840.614	49.32
840.79	125.1
840.966	20.65
841.142	28.84
841.318	2.22
841.494	67.75
841.671	82.09
841.847	30.89
842.023	2.22
842.199	32.94
842.375	82.09
842.551	55.47
842.727	24.75
842.903	59.56
843.079	123.05
843.255	80.04
843.431	67.75
843.607	84.14
843.783	65.71
843.959	41.13
844.134	14.51
844.31	71.85
844.486	20.65
844.662	41.13
844.838	114.86
845.013	108.71
845.189	71.85
845.365	39.08
845.541	8.36
845.716	34.99
845.892	43.18
846.068	82.09
846.244	20.65
846.419	92.33
846.595	-3.93
846.77	51.37
846.946	34.99
847.122	71.85
847.297	34.99
847.473	75.95
847.648	26.79
847.824	12.46
847.999	69.8
848.175	28.84
848.35	94.38
848.526	59.56
848.701	65.71
848.876	49.32
849.052	-5.97
849.227	34.99
849.403	32.94
849.578	20.65
849.753	43.18
849.929	28.84
850.104	6.31
850.279	37.03
850.454	88.23
850.63	90.28
850.805	10.41
850.98	80.04
851.155	96.43
851.33	18.6
851.505	-1.88
851.681	57.51
851.856	77.99
852.031	96.43
852.206	4.27
852.381	30.89
852.556	-5.97
852.731	59.56
852.906	-55.12
853.081	14.51
853.256	-40.79
853.431	22.7
853.606	34.99
853.781	0.17
853.956	49.32
854.131	69.8
854.305	-59.22
854.48	59.56
854.655	84.14
854.83	104.62
855.005	39.08
855.18	69.8
855.354	43.18
855.529	10.41
855.704	37.03
855.879	61.61
856.053	92.33
856.228	37.03
856.403	0.17
856.577	32.94
856.752	94.38
856.926	32.94
857.101	86.19
857.276	16.55
857.45	-24.4
857.625	53.42
857.799	116.9
857.974	22.7
858.148	-1.88
858.323	98.47
858.497	-1.88
858.672	-81.75
858.846	116.9
859.02	75.95
859.195	41.13
859.369	69.8
859.543	2.22
859.718	-32.6
859.892	71.85
860.066	22.7
860.241	-46.93
860.415	-18.26
860.589	-10.07
860.763	22.7
860.938	22.7
861.112	77.99
861.286	10.41
861.46	22.7
861.634	-28.5
861.808	22.7
861.982	67.75
862.157	49.32
862.331	32.94
862.505	67.75
862.679	59.56
862.853	-18.26
863.027	30.89
863.201	61.61
863.375	51.37
863.549	129.19
863.722	96.43
863.896	67.75
864.07	-16.21
864.244	61.61
864.418	-30.55
864.592	0.17
864.766	39.08
864.939	-34.64
865.113	45.23
865.287	100.52
865.461	-55.12
865.634	75.95
865.808	-26.45
865.982	30.89
866.156	-12.12
866.329	37.03
866.503	59.56
866.676	65.71
866.85	0.17
867.024	45.23
867.197	98.47
867.371	-16.21
867.544	14.51
867.718	8.36
867.891	108.71
868.065	-8.02
868.238	32.94
868.412	55.47
868.585	-38.74
868.759	18.6
868.932	53.42
869.105	43.18
869.279	-12.12
869.452	-16.21
869.625	-14.17
869.799	73.9
869.972	-55.12
870.145	41.13
870.319	12.46
870.492	-3.93
870.665	-42.84
870.838	108.71
871.011	-26.45
871.185	39.08
871.358	39.08
871.531	34.99
871.704	-22.36
871.877	26.79
872.05	22.7
872.223	-65.36
872.396	32.94
872.569	22.7
872.742	-24.4
872.915	-8.02
873.088	30.89
873.261	-73.56
873.434	-55.12
873.607	-12.12
873.78	73.9
873.953	-26.45
874.126	26.79
874.299	-42.84
874.471	16.55
874.644	-8.02
874.817	65.71
874.99	20.65
875.163	-38.74
875.335	-28.5
875.508	-61.27
875.681	37.03
875.853	4.27
876.026	-5.97
876.199	12.46
876.371	-22.36
876.544	28.84
876.717	34.99
876.889	41.13
877.062	10.41
877.234	-40.79
877.407	8.36
877.579	-8.02
877.752	26.79
877.924	30.89
878.097	-3.93
878.269	-10.07
878.442	43.18
878.614	8.36
878.786	34.99
878.959	65.71
879.131	92.33
879.303	-57.17
879.476	55.47
879.648	0.17
879.82	55.47
879.993	-48.98
880.165	22.7
880.337	-16.21
880.509	82.09
880.681	-14.17
880.854	67.75
881.026	-32.6
881.198	57.51
881.37	84.14
881.542	34.99
881.714	8.36
881.886	43.18
882.058	-3.93
882.23	26.79
882.402	8.36
882.574	-30.55
882.746	57.51
882.918	8.36
883.09	67.75
883.262	-48.98
883.434	2.22
883.606	24.75
883.778	22.7
883.95	121
884.122	12.46
884.293	-22.36
884.465	22.7
884.637	-8.02
884.809	-12.12
884.98	26.79
885.152	-53.08
885.324	24.75
885.496	-42.84
885.667	49.32
885.839	-65.36
886.011	26.79
886.182	65.71
886.354	2.22
886.525	-102.23
886.697	51.37
886.869	-73.56
887.04	24.75
887.212	8.36
887.383	30.89
887.555	59.56
887.726	16.55
887.897	37.03
888.069	-69.46
888.24	-8.02
888.412	30.89
888.583	-5.97
888.754	-44.88
888.926	-44.88
889.097	53.42
889.268	-24.4
889.44	-10.07
889.611	-53.08
889.782	16.55
889.953	-30.55
890.125	32.94
890.296	-24.4
890.467	14.51
890.638	4.27
890.809	-16.21
890.98	-10.07
891.151	71.85
891.323	22.7
891.494	49.32
891.665	51.37
891.836	75.95
892.007	18.6
892.178	-10.07
892.349	8.36
892.52	-69.46
892.691	-91.99
892.862	-22.36
893.032	-67.41
893.203	6.31
893.374	16.55
893.545	-1.88
893.716	-14.17
893.887	-55.12
894.057	34.99
894.228	-3.93
894.399	-28.5
894.57	24.75
894.74	-38.74
894.911	-20.31
895.082	18.6
895.253	-1.88
895.423	-20.31
895.594	18.6
895.764	-71.51
895.935	-12.12
896.106	-1.88
896.276	22.7
896.447	-34.64
896.617	-3.93
896.788	-55.12
896.958	-53.08
897.129	-22.36
897.299	4.27
897.47	41.13
897.64	-77.65
897.81	39.08
897.981	24.75
898.151	-1.88
898.322	-34.64
898.492	-55.12
898.662	-26.45
898.832	26.79
899.003	-3.93
899.173	47.27
899.343	-26.45
899.513	-38.74
