Data from USB4F104151__298__11-13-09-559.txt Node

Date: Wed Mar 12 11:13:09 EDT 2025
User: louis
Spectrometer: USB4F10415
Trigger mode: 4
Integration Time (sec): 2.000000E-2
Scans to average: 1
Electric dark correction enabled: true
Nonlinearity correction enabled: false
Boxcar width: 0
XAxis mode: Wavelengths
Number of Pixels in Spectrum: 3648
>>>>>Begin Spectral Data<<<<<
178.204	-74.58
178.424	-74.58
178.644	-74.58
178.864	-45.91
179.084	-125.78
179.304	-13.14
179.524	-45.91
179.744	-88.92
179.964	-11.09
180.184	9.39
180.404	5.29
180.624	15.53
180.844	15.53
181.064	36.01
181.283	23.72
181.503	-56.15
181.723	109.74
181.943	-13.14
182.163	56.49
182.383	-9.05
182.602	95.4
182.822	85.16
183.042	-25.43
183.262	113.83
183.482	62.63
183.701	64.68
183.921	23.72
184.141	101.55
184.361	1.19
184.58	97.45
184.8	42.15
185.02	7.34
185.239	-4.95
185.459	50.35
185.679	46.25
185.898	5.29
186.118	13.48
186.338	1.19
186.557	54.44
186.777	-35.67
186.997	23.72
187.216	62.63
187.436	-7
187.655	31.91
187.875	-31.57
188.095	-37.72
188.314	23.72
188.534	40.11
188.753	-7
188.973	50.35
189.192	48.3
189.412	38.06
189.631	31.91
189.851	-0.85
190.07	52.39
190.29	9.39
190.509	-41.81
190.729	29.87
190.948	83.11
191.168	85.16
191.387	74.92
191.607	50.35
191.826	7.34
192.045	48.3
192.265	-7
192.484	44.2
192.704	70.83
192.923	11.43
193.142	91.31
193.362	-31.57
193.581	-21.33
193.8	76.97
194.02	54.44
194.239	-13.14
194.458	44.2
194.678	-21.33
194.897	-4.95
195.116	-39.76
195.335	23.72
195.555	42.15
195.774	64.68
195.993	19.63
196.212	-2.9
196.432	21.67
196.651	58.54
196.87	-15.19
197.089	68.78
197.308	48.3
197.528	29.87
197.747	62.63
197.966	29.87
198.185	64.68
198.404	13.48
198.623	66.73
198.842	5.29
199.062	25.77
199.281	52.39
199.5	27.82
199.719	72.87
199.938	72.87
200.157	3.24
200.376	48.3
200.595	70.83
200.814	1.19
201.033	15.53
201.252	87.21
201.471	-13.14
201.69	-15.19
201.909	62.63
202.128	122.02
202.347	64.68
202.566	25.77
202.785	3.24
203.004	-35.67
203.223	40.11
203.442	-19.29
203.661	29.87
203.879	-62.29
204.098	-2.9
204.317	42.15
204.536	115.88
204.755	42.15
204.974	-4.95
205.193	-0.85
205.411	128.17
205.63	85.16
205.849	74.92
206.068	-31.57
206.287	36.01
206.505	40.11
206.724	58.54
206.943	-33.62
207.162	-19.29
207.381	-21.33
207.599	15.53
207.818	40.11
208.037	46.25
208.255	44.2
208.474	11.43
208.693	-13.14
208.911	17.58
209.13	95.4
209.349	38.06
209.567	54.44
209.786	93.35
210.005	52.39
210.223	17.58
210.442	-17.24
210.661	-68.44
210.879	74.92
211.098	3.24
211.316	-25.43
211.535	107.69
211.753	42.15
211.972	29.87
212.191	27.82
212.409	93.35
212.628	-19.29
212.846	29.87
213.065	27.82
213.283	29.87
213.502	15.53
213.72	25.77
213.938	105.64
214.157	50.35
214.375	-37.72
214.594	13.48
214.812	81.07
215.031	72.87
215.249	42.15
215.467	33.96
215.686	29.87
215.904	60.59
216.122	101.55
216.341	-9.05
216.559	33.96
216.778	60.59
216.996	9.39
217.214	23.72
217.432	15.53
217.651	5.29
217.869	-11.09
218.087	3.24
218.306	52.39
218.524	70.83
218.742	-7
218.96	36.01
219.179	60.59
219.397	68.78
219.615	83.11
219.833	42.15
220.051	87.21
220.27	52.39
220.488	91.31
220.706	58.54
220.924	76.97
221.142	50.35
221.36	52.39
221.578	44.2
221.796	17.58
222.015	5.29
222.233	115.88
222.451	103.59
222.669	52.39
222.887	25.77
223.105	-33.62
223.323	-17.24
223.541	74.92
223.759	23.72
223.977	3.24
224.195	25.77
224.413	-15.19
224.631	31.91
224.849	-11.09
225.067	113.83
225.285	-19.29
225.503	-9.05
225.721	40.11
225.939	36.01
226.157	21.67
226.375	21.67
226.592	76.97
226.81	-13.14
227.028	138.41
227.246	25.77
227.464	-66.39
227.682	76.97
227.9	33.96
228.117	3.24
228.335	50.35
228.553	46.25
228.771	60.59
228.989	-25.43
229.206	23.72
229.424	44.2
229.642	1.19
229.86	-21.33
230.077	101.55
230.295	21.67
230.513	87.21
230.731	93.35
230.948	68.78
231.166	27.82
231.384	15.53
231.601	-0.85
231.819	-4.95
232.037	74.92
232.254	72.87
232.472	9.39
232.689	36.01
232.907	-4.95
233.125	27.82
233.342	-45.91
233.56	44.2
233.777	-13.14
233.995	19.63
234.213	-23.38
234.43	64.68
234.648	-9.05
234.865	42.15
235.083	52.39
235.3	-15.19
235.518	103.59
235.735	68.78
235.953	33.96
236.17	3.24
236.388	29.87
236.605	48.3
236.822	48.3
237.04	52.39
237.257	76.97
237.475	66.73
237.692	13.48
237.909	76.97
238.127	-45.91
238.344	74.92
238.562	117.93
238.779	60.59
238.996	58.54
239.214	38.06
239.431	44.2
239.648	36.01
239.865	52.39
240.083	5.29
240.3	42.15
240.517	81.07
240.735	68.78
240.952	-23.38
241.169	-60.24
241.386	36.01
241.603	-9.05
241.821	1.19
242.038	56.49
242.255	68.78
242.472	42.15
242.689	9.39
242.907	44.2
243.124	-33.62
243.341	-17.24
243.558	11.43
243.775	42.15
243.992	-52.05
244.209	48.3
244.426	38.06
244.643	54.44
244.86	64.68
245.078	85.16
245.295	5.29
245.512	11.43
245.729	19.63
245.946	-13.14
246.163	93.35
246.38	44.2
246.597	19.63
246.814	74.92
247.031	46.25
247.248	54.44
247.464	-15.19
247.681	23.72
247.898	-62.29
248.115	99.5
248.332	-56.15
248.549	89.26
248.766	44.2
248.983	56.49
249.2	-15.19
249.417	66.73
249.633	52.39
249.85	33.96
250.067	19.63
250.284	54.44
250.501	33.96
250.717	21.67
250.934	36.01
251.151	46.25
251.368	36.01
251.585	83.11
251.801	74.92
252.018	19.63
252.235	62.63
252.451	27.82
252.668	-4.95
252.885	5.29
253.102	-0.85
253.318	23.72
253.535	38.06
253.752	52.39
253.968	36.01
254.185	5.29
254.401	15.53
254.618	27.82
254.835	29.87
255.051	46.25
255.268	23.72
255.484	25.77
255.701	-31.57
255.917	46.25
256.134	-7
256.351	-4.95
256.567	54.44
256.784	-0.85
257	46.25
257.217	113.83
257.433	23.72
257.65	81.07
257.866	44.2
258.082	56.49
258.299	5.29
258.515	-58.2
258.732	3.24
258.948	11.43
259.165	-58.2
259.381	56.49
259.597	93.35
259.814	36.01
260.03	-62.29
260.246	17.58
260.463	31.91
260.679	70.83
260.895	79.02
261.112	60.59
261.328	-33.62
261.544	42.15
261.761	56.49
261.977	36.01
262.193	11.43
262.409	42.15
262.626	13.48
262.842	-45.91
263.058	64.68
263.274	107.69
263.49	36.01
263.707	64.68
263.923	48.3
264.139	-23.38
264.355	68.78
264.571	105.64
264.787	-7
265.004	40.11
265.22	9.39
265.436	-2.9
265.652	81.07
265.868	5.29
266.084	-58.2
266.3	38.06
266.516	-23.38
266.732	19.63
266.948	11.43
267.164	50.35
267.38	52.39
267.596	15.53
267.812	93.35
268.028	44.2
268.244	17.58
268.46	58.54
268.676	93.35
268.892	74.92
269.108	44.2
269.324	-23.38
269.54	1.19
269.756	70.83
269.972	13.48
270.188	15.53
270.403	13.48
270.619	117.93
270.835	44.2
271.051	15.53
271.267	52.39
271.483	54.44
271.698	19.63
271.914	-0.85
272.13	38.06
272.346	29.87
272.562	-25.43
272.777	109.74
272.993	27.82
273.209	101.55
273.425	-47.96
273.64	7.34
273.856	52.39
274.072	-15.19
274.287	76.97
274.503	72.87
274.719	-21.33
274.934	19.63
275.15	17.58
275.366	-4.95
275.581	29.87
275.797	17.58
276.012	52.39
276.228	85.16
276.444	-23.38
276.659	27.82
276.875	1.19
277.09	70.83
277.306	-31.57
277.521	-62.29
277.737	74.92
277.952	68.78
278.168	36.01
278.383	21.67
278.599	38.06
278.814	44.2
279.03	42.15
279.245	74.92
279.461	52.39
279.676	-4.95
279.892	25.77
280.107	36.01
280.322	-0.85
280.538	74.92
280.753	-7
280.969	60.59
281.184	-25.43
281.399	33.96
281.615	9.39
281.83	101.55
282.045	29.87
282.26	33.96
282.476	48.3
282.691	56.49
282.906	44.2
283.122	21.67
283.337	64.68
283.552	36.01
283.767	46.25
283.983	-0.85
284.198	85.16
284.413	58.54
284.628	25.77
284.843	31.91
285.058	7.34
285.274	-47.96
285.489	72.87
285.704	48.3
285.919	74.92
286.134	23.72
286.349	25.77
286.564	66.73
286.779	48.3
286.995	105.64
287.21	-21.33
287.425	23.72
287.64	3.24
287.855	97.45
288.07	3.24
288.285	23.72
288.5	122.02
288.715	44.2
288.93	48.3
289.145	11.43
289.36	85.16
289.575	11.43
289.79	70.83
290.004	-45.91
290.219	46.25
290.434	-19.29
290.649	54.44
290.864	40.11
291.079	-23.38
291.294	85.16
291.509	23.72
291.724	25.77
291.938	23.72
292.153	50.35
292.368	33.96
292.583	40.11
292.798	27.82
293.012	19.63
293.227	54.44
293.442	64.68
293.657	-21.33
293.871	31.91
294.086	56.49
294.301	68.78
294.516	91.31
294.73	36.01
294.945	64.68
295.16	38.06
295.374	31.91
295.589	128.17
295.804	40.11
296.018	5.29
296.233	60.59
296.447	23.72
296.662	-11.09
296.877	66.73
297.091	113.83
297.306	64.68
297.52	11.43
297.735	19.63
297.949	11.43
298.164	64.68
298.378	44.2
298.593	1.19
298.807	3.24
299.022	29.87
299.236	64.68
299.451	29.87
299.665	15.53
299.88	23.72
300.094	64.68
300.309	42.15
300.523	48.3
300.737	9.39
300.952	36.01
301.166	-9.05
301.381	-0.85
301.595	25.77
301.809	19.63
302.024	13.48
302.238	25.77
302.452	-23.38
302.667	60.59
302.881	44.2
303.095	81.07
303.309	19.63
303.524	62.63
303.738	44.2
303.952	27.82
304.166	25.77
304.381	1.19
304.595	15.53
304.809	60.59
305.023	38.06
305.237	-9.05
305.452	50.35
305.666	-2.9
305.88	105.64
306.094	91.31
306.308	48.3
306.522	54.44
306.736	76.97
306.95	-58.2
307.164	-0.85
307.379	74.92
307.593	46.25
307.807	42.15
308.021	36.01
308.235	11.43
308.449	3.24
308.663	56.49
308.877	76.97
309.091	42.15
309.305	-25.43
309.519	-29.52
309.733	130.22
309.947	11.43
310.161	95.4
310.374	40.11
310.588	-0.85
310.802	-7
311.016	-50
311.23	105.64
311.444	21.67
311.658	29.87
311.872	50.35
312.085	19.63
312.299	42.15
312.513	50.35
312.727	15.53
312.941	29.87
313.154	31.91
313.368	48.3
313.582	19.63
313.796	44.2
314.009	33.96
314.223	76.97
314.437	44.2
314.651	-7
314.864	27.82
315.078	50.35
315.292	-27.48
315.505	-19.29
315.719	76.97
315.933	25.77
316.146	11.43
316.36	-19.29
316.573	70.83
316.787	33.96
317.001	-27.48
317.214	23.72
317.428	132.26
317.641	19.63
317.855	62.63
318.068	-7
318.282	17.58
318.495	95.4
318.709	-23.38
318.922	-0.85
319.136	56.49
319.349	81.07
319.563	33.96
319.776	64.68
319.99	64.68
320.203	-27.48
320.417	52.39
320.63	25.77
320.843	93.35
321.057	9.39
321.27	1.19
321.483	56.49
321.697	50.35
321.91	66.73
322.124	17.58
322.337	29.87
322.55	70.83
322.763	50.35
322.977	38.06
323.19	38.06
323.403	74.92
323.617	66.73
323.83	31.91
324.043	66.73
324.256	48.3
324.469	36.01
324.683	-17.24
324.896	48.3
325.109	74.92
325.322	5.29
325.535	40.11
325.748	36.01
325.962	50.35
326.175	17.58
326.388	42.15
326.601	36.01
326.814	64.68
327.027	21.67
327.24	40.11
327.453	11.43
327.666	56.49
327.879	44.2
328.092	56.49
328.305	7.34
328.518	74.92
328.731	79.02
328.944	-39.76
329.157	68.78
329.37	66.73
329.583	85.16
329.796	31.91
330.009	-0.85
330.222	21.67
330.435	-9.05
330.648	56.49
330.861	-0.85
331.073	105.64
331.286	89.26
331.499	103.59
331.712	-68.44
331.925	56.49
332.138	52.39
332.35	-15.19
332.563	72.87
332.776	15.53
332.989	7.34
333.202	27.82
333.414	62.63
333.627	-11.09
333.84	54.44
334.053	81.07
334.265	31.91
334.478	54.44
334.691	38.06
334.903	31.91
335.116	-7
335.329	-27.48
335.541	15.53
335.754	33.96
335.966	48.3
336.179	-2.9
336.392	-7
336.604	29.87
336.817	19.63
337.029	107.69
337.242	15.53
337.454	93.35
337.667	-25.43
337.88	101.55
338.092	27.82
338.305	29.87
338.517	7.34
338.729	122.02
338.942	64.68
339.154	21.67
339.367	42.15
339.579	91.31
339.792	85.16
340.004	54.44
340.217	50.35
340.429	60.59
340.641	23.72
340.854	76.97
341.066	50.35
341.278	-2.9
341.491	81.07
341.703	68.78
341.915	17.58
342.128	9.39
342.34	50.35
342.552	50.35
342.764	42.15
342.977	36.01
343.189	76.97
343.401	-19.29
343.613	27.82
343.826	40.11
344.038	17.58
344.25	95.4
344.462	42.15
344.674	17.58
344.886	9.39
345.099	81.07
345.311	23.72
345.523	15.53
345.735	56.49
345.947	101.55
346.159	103.59
346.371	15.53
346.583	101.55
346.795	64.68
347.007	15.53
347.219	-21.33
347.431	44.2
347.643	66.73
347.855	-31.57
348.067	42.15
348.279	44.2
348.491	103.59
348.703	13.48
348.915	-4.95
349.127	21.67
349.339	27.82
349.551	-9.05
349.763	-2.9
349.975	33.96
350.187	132.26
350.399	105.64
350.61	44.2
350.822	13.48
351.034	66.73
351.246	36.01
351.458	91.31
351.669	126.12
351.881	42.15
352.093	21.67
352.305	66.73
352.517	-37.72
352.728	93.35
352.94	3.24
353.152	15.53
353.363	-33.62
353.575	44.2
353.787	68.78
353.999	76.97
354.21	107.69
354.422	25.77
354.633	13.48
354.845	-37.72
355.057	3.24
355.268	58.54
355.48	60.59
355.692	29.87
355.903	9.39
356.115	11.43
356.326	-23.38
356.538	60.59
356.749	5.29
356.961	19.63
357.172	91.31
357.384	40.11
357.595	76.97
357.807	146.6
358.018	46.25
358.23	148.65
358.441	25.77
358.653	23.72
358.864	68.78
359.075	81.07
359.287	54.44
359.498	66.73
359.709	107.69
359.921	21.67
360.132	15.53
360.344	44.2
360.555	23.72
360.766	87.21
360.977	42.15
361.189	13.48
361.4	48.3
361.611	85.16
361.823	99.5
362.034	48.3
362.245	38.06
362.456	83.11
362.667	27.82
362.879	23.72
363.09	56.49
363.301	17.58
363.512	66.73
363.723	-0.85
363.935	11.43
364.146	40.11
364.357	-13.14
364.568	126.12
364.779	29.87
364.99	199.85
365.201	42.15
365.412	87.21
365.623	81.07
365.834	31.91
366.045	46.25
366.256	44.2
366.467	31.91
366.678	83.11
366.889	36.01
367.1	52.39
367.311	33.96
367.522	50.35
367.733	87.21
367.944	29.87
368.155	50.35
368.366	62.63
368.577	27.82
368.788	79.02
368.999	-41.81
369.209	68.78
369.42	76.97
369.631	31.91
369.842	48.3
370.053	52.39
370.264	15.53
370.474	11.43
370.685	40.11
370.896	54.44
371.107	-13.14
371.317	56.49
371.528	29.87
371.739	140.46
371.95	-4.95
372.16	95.4
372.371	23.72
372.582	58.54
372.792	38.06
373.003	38.06
373.214	48.3
373.424	46.25
373.635	97.45
373.846	83.11
374.056	52.39
374.267	91.31
374.477	72.87
374.688	58.54
374.898	54.44
375.109	-13.14
375.319	81.07
375.53	42.15
375.74	19.63
375.951	79.02
376.161	23.72
376.372	81.07
376.582	74.92
376.793	81.07
377.003	54.44
377.214	113.83
377.424	50.35
377.635	72.87
377.845	29.87
378.055	68.78
378.266	97.45
378.476	105.64
378.686	13.48
378.897	54.44
379.107	105.64
379.317	93.35
379.528	-2.9
379.738	101.55
379.948	3.24
380.158	40.11
380.369	25.77
380.579	15.53
380.789	60.59
380.999	83.11
381.21	25.77
381.42	105.64
381.63	33.96
381.84	31.91
382.05	44.2
382.261	62.63
382.471	81.07
382.681	40.11
382.891	48.3
383.101	40.11
383.311	15.53
383.521	36.01
383.731	105.64
383.941	138.41
384.151	38.06
384.361	-0.85
384.571	68.78
384.781	38.06
384.991	40.11
385.201	99.5
385.411	23.72
385.621	27.82
385.831	31.91
386.041	21.67
386.251	74.92
386.461	56.49
386.671	40.11
386.881	48.3
387.091	81.07
387.301	23.72
387.511	40.11
387.72	93.35
387.93	36.01
388.14	38.06
388.35	83.11
388.56	70.83
388.769	93.35
388.979	40.11
389.189	68.78
389.399	111.78
389.609	25.77
389.818	54.44
390.028	15.53
390.238	103.59
390.447	17.58
390.657	111.78
390.867	56.49
391.076	21.67
391.286	9.39
391.496	40.11
391.705	64.68
391.915	-7
392.125	62.63
392.334	154.79
392.544	79.02
392.753	48.3
392.963	27.82
393.172	93.35
393.382	81.07
393.591	154.79
393.801	72.87
394.01	107.69
394.22	79.02
394.429	124.07
394.639	101.55
394.848	89.26
395.058	42.15
395.267	44.2
395.477	85.16
395.686	72.87
395.895	72.87
396.105	109.74
396.314	107.69
396.524	105.64
396.733	76.97
396.942	115.88
397.152	74.92
397.361	101.55
397.57	134.31
397.78	158.89
397.989	72.87
398.198	68.78
398.407	162.98
398.617	119.98
398.826	83.11
399.035	138.41
399.244	64.68
399.453	119.98
399.663	-31.57
399.872	158.89
400.081	72.87
400.29	130.22
400.499	25.77
400.708	115.88
400.917	93.35
401.127	171.18
401.336	162.98
401.545	93.35
401.754	158.89
401.963	107.69
402.172	162.98
402.381	93.35
402.59	81.07
402.799	113.83
403.008	105.64
403.217	111.78
403.426	152.74
403.635	140.46
403.844	109.74
404.053	109.74
404.262	101.55
404.471	130.22
404.68	146.6
404.888	150.7
405.097	175.27
405.306	132.26
405.515	52.39
405.724	122.02
405.933	130.22
406.142	138.41
406.35	173.22
406.559	142.5
406.768	136.36
406.977	212.14
407.185	242.85
407.394	148.65
407.603	246.95
407.812	246.95
408.02	177.32
408.229	177.32
408.438	246.95
408.646	177.32
408.855	203.94
409.064	228.52
409.272	244.9
409.481	244.9
409.69	220.33
409.898	261.29
410.107	267.43
410.315	347.3
410.524	222.38
410.733	302.25
410.941	369.83
411.15	312.49
411.358	292.01
411.567	418.98
411.775	392.36
411.984	373.92
412.192	351.4
412.401	398.5
412.609	451.75
412.818	449.7
413.026	521.38
413.234	412.84
413.443	507.04
413.651	425.12
413.86	494.76
414.068	636.06
414.276	582.82
414.485	488.61
414.693	560.29
414.901	605.35
415.11	586.91
415.318	578.72
415.526	740.51
415.734	703.65
415.943	658.59
416.151	732.32
416.359	681.12
416.567	781.47
416.776	758.94
416.984	947.36
417.192	900.25
417.4	935.07
417.608	969.88
417.817	904.35
418.025	986.27
418.233	1019.04
418.441	1019.04
418.649	1059.99
418.857	1139.87
419.065	1217.69
419.273	1211.54
419.481	1225.88
419.689	1248.41
419.897	1395.86
420.105	1352.85
420.313	1455.25
420.521	1451.16
420.729	1498.26
420.937	1445.01
421.145	1653.91
421.353	1664.15
421.561	1694.86
421.769	1817.74
421.977	1840.27
422.185	1752.21
422.393	1983.63
422.601	1991.82
422.809	2043.02
423.017	2079.88
423.224	2155.66
423.432	2217.1
423.64	2331.78
423.848	2477.19
424.056	2471.04
424.263	2499.72
424.471	2612.35
424.679	2720.9
424.887	2923.65
425.094	2790.53
425.302	2847.87
425.51	3042.43
425.718	3075.2
425.925	3165.31
426.133	3243.13
426.341	3466.36
426.548	3560.56
426.756	3503.22
426.964	3650.67
427.171	3845.23
427.379	3884.14
427.586	4004.97
427.794	4080.75
428.001	4383.85
428.209	4416.62
428.417	4478.05
428.624	4707.43
428.832	4586.6
429.039	4740.19
429.247	4559.97
429.454	5121.12
429.662	5510.23
429.869	5166.17
430.076	5477.46
430.284	5176.41
430.491	5528.66
430.699	5708.88
430.906	5930.06
431.114	5930.06
431.321	6149.2
431.528	6315.08
431.736	6706.24
431.943	7001.15
432.15	6763.59
432.358	7011.39
432.565	7052.35
432.772	7273.53
432.979	7494.71
433.187	7828.53
433.394	7773.24
433.601	8283.18
433.808	8274.99
434.016	8272.94
434.223	8520.74
434.43	8897.57
434.637	8975.39
434.844	9489.43
435.052	9845.78
435.259	9708.57
435.466	9649.18
435.673	9456.67
435.88	10368.01
436.087	10548.23
436.294	10966.02
436.501	10740.74
436.708	10683.4
436.915	11113.47
437.122	11813.88
437.329	11527.16
437.537	12153.84
437.743	12067.83
437.95	12073.97
438.157	12678.12
438.364	13073.38
438.571	13075.43
438.778	12927.97
438.985	14453.71
439.192	13708.25
439.399	14285.78
439.606	13857.75
439.813	14717.9
440.02	15647.68
440.227	15375.3
440.433	15252.42
440.64	15432.64
440.847	15473.6
441.054	16139.19
441.261	17134.5
441.467	16675.76
441.674	17200.04
441.881	17767.32
442.088	17752.99
442.294	17765.28
442.501	18164.63
442.708	18166.68
442.914	19301.25
443.121	20020.09
443.328	19411.84
443.534	20790.13
443.741	20097.91
443.948	19938.17
444.154	21486.43
444.361	21295.97
444.568	21355.36
444.774	21461.86
444.981	21717.86
445.187	22252.38
445.394	23092.04
445.6	22616.91
445.807	25133.87
446.013	24003.39
446.22	24691.51
446.426	25160.49
446.633	25735.97
446.839	26583.83
447.046	25602.85
447.252	26907.41
447.459	26893.07
447.665	26673.94
447.871	27835.14
448.078	29104.88
448.284	27757.32
448.491	28455.67
448.697	29459.18
448.903	29948.64
449.11	30116.58
449.316	29438.7
449.522	30448.35
449.728	30948.05
449.935	31236.81
450.141	31101.65
450.347	31849.16
450.553	30597.85
450.76	30980.82
450.966	32006.85
451.172	31722.18
451.378	32750.26
451.584	31914.69
451.791	32707.26
451.997	32465.6
452.203	33133.23
452.409	32993.97
452.615	32729.78
452.821	31548.11
453.027	31503.05
453.233	33094.32
453.44	31273.68
453.646	32058.05
453.852	32187.07
454.058	32455.36
454.264	31359.69
454.47	32178.88
454.676	31359.69
454.882	32557.75
455.088	29592.3
455.294	30333.66
455.5	30503.64
455.705	30804.69
455.911	29559.53
456.117	28754.68
456.323	28656.37
456.529	27513.61
456.735	28105.47
456.941	27773.7
457.147	27349.77
457.352	26417.94
457.558	25959.2
457.764	26112.8
457.97	25543.46
458.176	24822.58
458.381	25185.07
458.587	23870.27
458.793	23790.4
458.999	22184.79
459.204	24165.18
459.41	23479.11
459.616	21664.61
459.821	21748.57
460.027	21836.64
460.233	21551.97
460.438	20231.03
460.644	20579.18
460.85	19377.03
461.055	19327.88
461.261	19211.14
461.466	17894.3
461.672	17392.55
461.878	18783.12
462.083	17417.12
462.289	17109.93
462.494	16898.98
462.7	16188.34
462.905	15621.05
463.111	16415.66
463.316	16266.16
463.522	15768.51
463.727	16184.24
463.932	15875
464.138	15727.55
464.343	15713.21
464.549	15352.77
464.754	16112.56
464.959	15930.3
465.165	15627.2
465.37	14961.61
465.575	14721.99
465.781	15041.48
465.986	15586.24
466.191	15055.81
466.397	14404.56
466.602	13849.56
466.807	14306.26
467.012	14400.46
467.218	14134.23
467.423	14175.19
467.628	14134.23
467.833	14613.45
468.038	14240.72
468.244	13769.69
468.449	14246.87
468.654	13997.01
468.859	13704.15
469.064	13745.11
469.269	13335.52
469.474	13204.45
469.679	13491.16
469.885	13190.11
470.09	13364.19
470.295	13130.72
470.5	12815.34
470.705	13075.43
470.91	12794.86
471.115	12717.03
471.32	12714.98
471.525	12694.5
471.73	12307.44
471.935	12305.39
472.139	11752.44
472.344	12100.59
472.549	12045.3
472.754	11918.32
472.959	11611.13
473.164	11330.56
473.369	11199.49
473.574	11424.76
473.778	11461.63
473.983	11594.75
474.188	11328.51
474.393	10828.81
474.598	10562.57
474.802	10626.06
475.007	10775.56
475.212	10753.03
475.417	10298.38
475.621	10316.81
475.826	10333.2
476.031	10189.84
476.235	9962.51
476.44	10263.57
476.645	9978.9
476.849	9815.06
477.054	9733.14
477.259	9546.78
477.463	9704.47
477.668	9280.54
477.872	9331.74
478.077	9407.52
478.282	9215.01
478.486	9288.73
478.691	9088.03
478.895	9034.78
479.1	9014.31
479.304	9116.7
479.509	8836.13
479.713	9030.69
479.918	8619.05
480.122	8705.06
480.326	8676.39
480.531	8735.78
480.735	8645.67
480.94	8625.19
481.144	8803.36
481.348	8453.16
481.553	8461.35
481.757	8285.23
481.961	8483.88
482.166	8465.45
482.37	8629.29
482.574	8303.66
482.778	8184.88
482.983	8537.13
483.187	8461.35
483.391	8358.96
483.595	8131.63
483.8	8328.24
484.004	8348.72
484.208	8459.31
484.412	8481.83
484.616	8387.63
484.821	8307.76
485.025	8068.14
485.229	8154.16
485.433	8096.82
485.637	8293.42
485.841	8315.95
486.045	8270.89
486.249	8426.54
486.453	8152.11
486.657	8305.71
486.861	8391.72
487.065	8113.2
487.269	8301.61
487.473	8381.48
487.677	8305.71
487.881	8305.71
488.085	8248.36
488.289	8268.84
488.493	8354.86
488.697	8285.23
488.901	8416.3
489.105	8285.23
489.309	8289.32
489.512	8459.31
489.716	8313.9
489.92	8266.8
490.124	8342.57
490.328	8569.9
490.531	8514.6
490.735	8627.24
490.939	8684.58
491.143	8715.3
491.346	8678.44
491.55	8555.56
491.754	8715.3
491.958	8688.68
492.161	8709.16
492.365	8905.76
492.569	8700.97
492.772	8619.05
492.976	8858.66
493.18	8897.57
493.383	9042.98
493.587	9260.06
493.79	9106.46
493.994	8973.35
494.197	9133.09
494.401	9315.36
494.605	9309.21
494.808	9366.56
495.012	9229.34
495.215	9294.88
495.419	9442.33
495.622	9522.2
495.825	9509.91
496.029	9751.57
496.232	9821.2
496.436	9909.27
496.639	9970.71
496.843	9989.14
497.046	10148.88
497.249	10464.27
497.453	10259.47
497.656	10284.05
497.859	10482.7
498.063	10806.28
498.266	10681.35
498.469	10785.8
498.673	10908.68
498.876	10974.21
499.079	11039.75
499.282	11047.94
499.485	11482.11
499.689	11643.9
499.892	11529.21
500.095	11695.1
500.298	12098.55
500.501	11691
500.705	12276.72
500.908	12188.66
501.111	12309.49
501.314	12710.89
501.517	12291.06
501.72	12794.86
501.923	12749.8
502.126	13106.15
502.329	13321.18
502.532	13302.75
502.735	13349.85
502.938	13521.88
503.141	13824.98
503.344	13859.8
503.547	13935.57
503.75	14121.94
503.953	14236.63
504.156	14494.67
504.359	14502.86
504.562	14672.84
504.765	14803.91
504.968	15313.86
505.17	15162.31
505.373	15371.2
505.576	15791.03
505.779	15899.58
505.982	15678.4
506.185	16292.79
506.387	16042.93
506.59	16214.96
506.793	16638.89
506.996	16466.86
507.198	17120.17
507.401	16858.03
507.604	17218.47
507.807	17669.02
508.009	17699.74
508.212	17806.23
508.415	17982.36
508.617	18121.62
508.82	18144.15
509.022	18142.1
509.225	18842.51
509.428	18688.91
509.63	18897.8
509.833	18850.7
510.035	19803
510.238	19198.85
510.44	19649.41
510.643	20073.34
510.845	19848.06
511.048	19940.22
511.25	20108.15
511.453	20544.37
511.655	21123.94
511.858	21242.73
512.06	21183.34
512.262	21506.91
512.465	21363.56
512.667	21857.12
512.87	22031.19
513.072	22113.11
513.274	22496.08
513.477	22670.16
513.679	22739.79
513.881	22913.87
514.084	23421.77
514.286	23245.64
514.488	23264.07
514.69	24140.6
514.893	23900.99
515.095	24263.48
515.297	24650.55
515.499	24429.37
515.701	24851.25
515.904	25221.93
516.106	25250.6
516.308	25346.86
516.51	25864.99
516.712	25695.01
516.914	26155.8
517.116	26297.11
517.318	26678.04
517.52	26682.13
517.722	26419.99
517.925	27144.97
518.127	27472.65
518.329	27497.22
518.531	27790.08
518.733	28082.94
518.935	28529.4
519.136	28099.33
519.338	28605.17
519.54	29053.68
519.742	29121.26
519.944	29424.36
520.146	29541.1
520.348	29797.09
520.55	29962.98
520.752	30298.84
520.954	30806.74
521.155	30585.56
521.357	30593.75
521.559	31001.3
521.761	31603.4
521.963	31148.75
522.164	31707.85
522.366	32062.15
522.568	31859.4
522.77	32258.75
522.971	32377.53
523.173	32707.26
523.375	32635.58
523.576	33172.14
523.778	32959.16
523.98	33088.18
524.181	33344.17
524.383	33721
524.584	33729.19
524.786	33479.34
524.988	33661.61
525.189	34165.41
525.391	34353.82
525.592	34513.56
525.794	34742.94
525.995	34611.87
526.197	35168.91
526.398	34964.12
526.6	35076.76
526.801	35336.85
527.003	35318.42
527.204	35689.1
527.406	35576.46
527.607	35474.06
527.808	35818.12
528.01	35277.46
528.211	35807.88
528.412	36272.77
528.614	36266.63
528.815	35975.81
529.016	36778.62
529.218	36289.15
529.419	36352.64
529.62	36567.68
529.822	36192.9
530.023	36592.25
530.224	36637.31
530.425	36532.86
530.626	36608.64
530.828	36504.19
531.029	37255.79
531.23	36588.16
531.431	36723.32
531.632	36864.63
531.833	37051
532.035	36674.17
532.236	37532.27
532.437	37390.96
532.638	36764.28
532.839	37122.68
533.04	37366.38
533.241	37165.68
533.442	37567.09
533.643	37577.33
533.844	37536.37
534.045	37737.07
534.246	37350
534.447	37599.85
534.648	37198.45
534.849	37417.58
535.05	37118.58
535.251	37526.13
535.451	37638.76
535.652	37640.81
535.853	37622.38
536.054	37859.94
536.255	37618.28
536.456	37261.94
536.657	37667.44
536.857	37438.06
537.058	37468.78
537.259	37624.43
537.46	37669.48
537.66	37376.62
537.861	37716.59
538.062	37255.79
538.263	37636.72
538.463	37468.78
538.664	37237.36
538.865	37722.73
539.065	37696.11
539.266	37286.51
539.466	37726.83
539.667	37210.74
539.868	37558.89
540.068	37753.45
540.269	37603.95
540.469	37798.51
540.67	37290.61
540.87	37655.15
541.071	37339.76
541.271	37536.37
541.472	37724.78
541.672	37409.39
541.873	37436.02
542.073	37063.29
542.274	37687.92
542.474	37413.49
542.675	37251.7
542.875	37689.96
543.075	37223.03
543.276	37003.89
543.476	37599.85
543.676	37243.51
543.877	37311.09
544.077	37362.29
544.277	37182.07
544.478	37368.43
544.678	37466.73
544.878	37393.01
545.078	37237.36
545.279	37048.95
545.479	37528.17
545.679	37638.76
545.879	37225.07
546.079	37300.85
546.28	37458.54
546.48	37108.34
546.68	37476.97
546.88	37180.02
547.08	36962.93
547.28	37251.7
547.48	36719.23
547.68	36938.36
547.88	37128.82
548.081	37837.42
548.281	37143.16
548.481	37104.24
548.681	37362.29
548.881	37208.69
549.081	37094
549.28	37149.3
549.48	37450.35
549.68	36909.69
549.88	37333.62
550.08	36629.12
550.28	37286.51
550.48	37036.66
550.68	37544.56
550.88	36835.96
551.08	37225.07
551.279	36848.25
551.479	36909.69
551.679	37069.43
551.879	36815.48
552.079	37210.74
552.278	36889.21
552.478	37059.19
552.678	37094
552.878	37001.85
553.077	36870.78
553.277	36651.64
553.477	36962.93
553.676	36469.37
553.876	36942.45
554.076	36573.82
554.275	36567.68
554.475	36549.24
554.674	36825.72
554.874	36479.61
555.074	36455.04
555.273	36655.74
555.473	36737.66
555.672	36344.45
555.872	36532.86
556.071	36330.11
556.271	36690.55
556.47	36549.24
556.67	35879.56
556.869	36164.23
557.068	36706.94
557.268	36258.43
557.467	35992.2
557.667	36043.4
557.866	36455.04
558.065	36287.1
558.265	35984.01
558.464	35897.99
558.663	36244.1
558.863	35650.19
559.062	36074.12
559.261	35592.84
559.461	36084.36
559.66	35773.06
559.859	35861.13
560.058	35435.15
560.258	35826.31
560.457	35576.46
560.656	35680.91
560.855	35621.52
561.054	35426.96
561.253	35490.45
561.453	35351.18
561.652	35539.6
561.851	35429.01
562.05	35041.94
562.249	34980.5
562.448	35406.48
562.647	34984.6
562.846	35060.37
563.045	35103.38
563.244	35072.66
563.443	35314.32
563.642	34615.96
563.841	34740.89
564.04	34683.55
564.239	34769.56
564.438	34466.46
564.637	34609.82
564.836	34642.59
565.035	34308.77
565.234	34677.4
565.432	34392.73
565.631	33764.01
565.83	34536.09
566.029	34013.86
566.228	34087.59
566.427	34140.83
566.625	33796.77
566.824	33383.09
567.023	34198.18
567.222	33395.37
567.42	33864.36
567.619	33841.83
567.818	33655.47
568.016	33186.48
568.215	33708.71
568.414	33364.65
568.612	33475.24
568.811	33340.08
569.01	33469.1
569.208	32916.15
569.407	33444.52
569.605	32764.6
569.804	32920.24
570.002	32666.3
570.201	32953.01
570.4	32795.32
570.598	32670.39
570.797	32494.27
570.995	32828.09
571.193	32285.37
571.392	32709.3
571.59	32309.95
571.789	32807.61
571.987	32150.21
572.186	32037.57
572.384	31926.98
572.582	32426.68
572.781	32228.03
572.979	31466.19
573.177	31724.23
573.376	32207.55
573.574	31554.25
573.772	31830.72
573.971	31730.37
574.169	31224.53
574.367	31228.62
574.565	31257.29
574.763	31081.17
574.962	31138.51
575.16	30767.83
575.358	31150.8
575.556	30520.02
575.754	31187.66
575.952	30454.49
576.151	31097.55
576.349	30763.73
576.547	30378.72
576.745	30642.9
576.943	30196.45
577.141	30552.79
577.339	30202.59
577.537	29965.03
577.735	30421.72
577.933	30036.7
578.131	30096.1
578.329	29836
578.527	29565.67
578.725	30098.14
578.923	29502.18
579.121	29450.99
579.319	29430.51
579.516	29702.89
579.714	29774.56
579.912	29383.4
580.11	29299.44
580.308	29324.01
580.506	29580.01
580.704	29004.53
580.901	29420.27
581.099	29225.71
581.297	28752.63
581.495	28906.23
581.692	29031.15
581.89	28627.7
582.088	28758.77
582.285	28656.37
582.483	28691.19
582.681	28386.04
582.878	28318.46
583.076	28154.62
583.274	28556.02
583.471	28218.11
583.669	28158.72
583.866	27865.86
584.064	28168.96
584.262	28058.37
584.459	27970.3
584.657	27595.53
584.854	27845.38
585.052	27183.88
585.249	27319.05
585.447	27454.22
585.644	27239.18
585.841	27538.18
586.039	27845.38
586.236	27163.4
586.434	26645.27
586.631	27140.88
586.828	27230.99
587.026	26845.97
587.223	26772.24
587.42	26884.88
587.618	26807.06
587.815	26561.3
588.012	26579.73
588.21	26395.42
588.407	26579.73
588.604	26385.18
588.801	26358.55
588.999	26540.82
589.196	26192.67
589.393	26555.16
589.59	26424.09
589.787	26004.25
589.984	25813.79
590.182	25635.62
590.379	25901.86
590.576	25557.8
590.773	25695.01
590.97	25674.53
591.167	25463.59
591.364	25056.04
591.561	25594.66
591.758	25135.92
591.955	25211.69
592.152	25512.74
592.349	24974.13
592.546	24963.89
592.743	25119.53
592.94	24476.47
593.137	24771.38
593.334	24994.61
593.531	24597.3
593.727	24728.37
593.924	24771.38
594.121	24261.43
594.318	24673.07
594.515	24177.47
594.712	24427.32
594.908	24111.93
595.105	24251.19
595.302	24214.33
595.499	24083.26
595.696	24044.35
595.892	24060.73
596.089	23778.11
596.286	24048.44
596.482	23800.64
596.679	23434.05
596.876	23593.79
597.072	23606.08
597.269	23595.84
597.466	23051.08
597.662	22799.18
597.859	23319.37
598.055	23286.6
598.252	23186.25
598.448	22799.18
598.645	22995.79
598.841	22629.2
599.038	22702.93
599.234	22811.47
599.431	22750.03
599.627	22487.89
599.824	22760.27
600.02	22248.28
600.217	22682.45
600.413	22111.07
600.609	22279
600.806	22057.82
601.002	22174.55
601.198	22291.29
601.395	21949.28
601.591	22197.08
601.787	22043.48
601.984	21705.57
602.18	22211.42
602.376	21623.65
602.572	21898.08
602.769	21793.63
602.965	21539.68
603.161	21603.17
603.357	21261.16
603.553	21087.08
603.75	21429.09
603.946	21226.34
604.142	21232.49
604.338	20904.81
604.534	21429.09
604.73	20837.23
604.926	20575.09
605.122	20908.91
605.318	20751.21
605.514	20687.73
605.71	20906.86
605.906	20730.73
606.102	20708.21
606.298	20544.37
606.494	20505.46
606.69	20616.05
606.886	20732.78
607.082	20009.85
607.278	20544.37
607.474	20138.87
607.67	20063.1
607.866	20063.1
608.062	20433.78
608.257	20003.71
608.453	20122.49
608.649	19884.92
608.845	19909.5
609.041	19827.58
609.236	19919.74
609.432	19760
609.628	19782.52
609.824	19727.23
610.019	19678.08
610.215	19676.03
610.411	19762.05
610.606	19358.6
610.802	19592.06
610.998	19645.31
611.193	19612.54
611.389	19342.21
611.584	18928.52
611.78	19192.71
611.976	19325.83
612.171	19444.61
612.367	19438.47
612.562	19155.85
612.758	18885.51
612.953	19102.6
613.149	19454.85
613.344	18723.72
613.539	19196.81
613.735	18973.58
613.93	19137.41
614.126	18885.51
614.321	18869.13
614.517	18895.75
614.712	18959.24
614.907	18520.98
615.103	18684.81
615.298	18824.08
615.493	18860.94
615.688	18525.07
615.884	18834.32
616.079	18850.7
616.274	18623.37
616.47	18725.77
616.665	18971.53
616.86	18504.59
617.055	18432.91
617.25	18281.36
617.445	18504.59
617.641	18283.41
617.836	18635.66
618.031	17972.12
618.226	18258.84
618.421	17968.02
618.616	18363.28
618.811	17746.84
619.006	18273.17
619.201	17656.73
619.396	18031.51
619.591	17480.61
619.786	17742.75
619.981	17683.36
620.176	17707.93
620.371	17343.39
620.566	17271.72
620.761	17310.63
620.956	17560.48
621.151	17095.59
621.346	17351.59
621.541	16817.07
621.735	17144.74
621.93	16886.7
622.125	16800.68
622.32	16720.81
622.515	16718.76
622.709	16391.09
622.904	16386.99
623.099	16206.77
623.294	16294.83
623.488	16157.62
623.683	16423.86
623.878	15973.3
624.072	15772.6
624.267	15893.43
624.462	15786.94
624.656	15608.76
624.851	15893.43
625.046	15555.52
625.24	15621.05
625.435	15348.67
625.629	15160.26
625.824	14945.22
626.018	15203.27
626.213	14867.4
626.407	14887.88
626.602	14736.33
626.796	14973.89
626.991	14674.89
627.185	14994.37
627.38	14549.96
627.574	14533.58
627.768	14441.42
627.963	14392.27
628.157	14238.67
628.352	14171.09
628.546	14080.98
628.74	14152.66
628.935	13927.38
629.129	13792.22
629.323	14050.26
629.517	13738.97
629.712	13427.68
629.906	13685.72
630.1	13278.18
630.294	13655
630.489	13523.93
630.683	13482.97
630.877	13401.05
631.071	13329.38
631.265	13298.66
631.459	12940.26
631.653	12858.34
631.848	13022.18
632.042	12815.34
632.236	13054.95
632.43	12749.8
632.624	12841.96
632.818	12526.57
633.012	12676.07
633.206	12411.89
633.4	12426.22
633.594	12432.36
633.788	12428.27
633.982	12233.71
634.176	12198.9
634.369	12069.87
634.563	12024.82
634.757	11856.89
634.951	12297.2
635.145	12049.39
635.339	11928.56
635.533	11807.73
635.726	11889.65
635.92	11760.63
636.114	11637.75
636.308	11574.27
636.501	11512.83
636.695	11439.1
636.889	11426.81
637.083	11185.15
637.276	11410.43
637.47	11252.73
637.664	11086.85
637.857	11097.09
638.051	11033.6
638.244	10998.79
638.438	11148.29
638.632	10865.67
638.825	10800.13
639.019	10787.85
639.212	10587.15
639.406	10767.37
639.599	10634.25
639.793	10445.84
639.986	10468.36
640.18	10390.54
640.373	10400.78
640.567	10316.81
640.76	10318.86
640.954	10204.17
641.147	10112.02
641.34	10099.73
641.534	10322.96
641.727	10093.58
641.92	9905.17
642.114	10028.05
642.307	9903.12
642.5	9853.97
642.694	9667.61
642.887	9661.46
643.08	9626.65
643.273	9612.31
643.467	9634.84
643.66	9448.47
643.853	9352.22
644.046	9372.7
644.239	9579.54
644.432	9403.42
644.626	9239.58
644.819	9176.09
645.012	9137.18
645.205	9085.98
645.398	8997.92
645.591	8940.58
645.784	9122.85
645.977	8864.8
646.17	8807.46
646.363	8827.94
646.556	8621.1
646.749	8827.94
646.942	8752.17
647.135	8514.6
647.328	8698.92
647.521	8563.75
647.714	8557.61
647.907	8404.01
648.099	8399.91
648.292	8367.15
648.485	8260.65
648.678	8277.04
648.871	8246.32
649.064	8090.67
649.256	8289.32
649.449	8213.55
649.642	7957.55
649.835	8000.56
650.027	8127.53
650.22	8129.58
650.413	7859.25
650.605	7949.36
650.798	7791.67
650.991	7631.93
651.183	7756.85
651.376	7670.84
651.568	7806
651.761	7771.19
651.954	7724.08
652.146	7855.15
652.339	7654.45
652.531	7603.25
652.724	7484.47
652.916	7437.37
653.109	7478.33
653.301	7355.45
653.494	7281.72
653.686	6995.01
653.879	7132.22
654.071	7304.25
654.263	7115.84
654.456	7218.24
654.648	7056.45
654.84	7115.84
655.033	6939.71
655.225	7027.78
655.417	6980.67
655.61	6997.06
655.802	6913.09
655.994	7013.44
656.186	6931.52
656.379	6775.88
656.571	6765.64
656.763	6749.25
656.955	6677.57
657.148	6616.13
657.34	6564.93
657.532	6628.42
657.724	6597.7
657.916	6491.21
658.108	6487.11
658.3	6476.87
658.492	6331.47
658.684	6358.09
658.876	6325.32
659.068	6224.97
659.26	6304.84
659.452	6202.44
659.644	6267.98
659.836	6204.49
660.028	6282.31
660.22	6032.46
660.412	6138.96
660.604	5977.17
660.796	5948.5
660.988	6026.32
661.18	5909.58
661.372	5930.06
661.563	5880.91
661.755	5887.06
661.947	5956.69
662.139	5858.39
662.331	5842
662.522	5717.08
662.714	5837.91
662.906	5567.57
663.097	5786.71
663.289	5598.29
663.481	5569.62
663.673	5559.38
663.864	5510.23
664.056	5600.34
664.247	5399.64
664.439	5422.17
664.631	5454.94
664.822	5614.68
665.014	5418.07
665.205	5346.39
665.397	5379.16
665.588	5186.65
665.78	5256.28
665.971	5342.3
666.163	5160.03
666.354	5207.13
666.546	5307.48
666.737	4955.23
666.929	5092.44
667.12	5225.56
667.311	5172.32
667.503	4975.71
667.694	4969.57
667.885	5069.92
668.077	4951.14
668.268	5028.96
668.459	4947.04
668.651	4908.13
668.842	4918.37
669.033	4852.83
669.224	4795.49
669.416	4965.47
669.607	4775.01
669.798	4799.59
669.989	4865.12
670.18	4754.53
670.371	4799.59
670.563	4666.47
670.754	4944.99
670.945	4830.3
671.136	4738.15
671.327	4660.32
671.518	4699.23
671.709	4635.75
671.9	4787.3
672.091	4693.09
672.282	4627.56
672.473	4625.51
672.664	4512.87
672.855	4418.66
673.046	4496.49
673.237	4584.55
673.428	4533.35
673.619	4457.57
673.809	4369.51
674	4275.31
674.191	4377.7
674.382	4357.22
674.573	4418.66
674.764	4365.42
674.954	4457.57
675.145	4422.76
675.336	4312.17
675.527	4260.97
675.717	4183.15
675.908	4156.52
676.099	4234.35
676.289	4138.09
676.48	4275.31
676.671	4252.78
676.861	4195.43
677.052	4168.81
677.243	4160.62
677.433	4187.24
677.624	4129.9
677.814	4144.24
678.005	4265.07
678.195	4107.37
678.386	4076.65
678.576	3986.54
678.767	4090.99
678.957	3918.96
679.148	4035.69
679.338	4117.61
679.529	3994.73
679.719	4013.17
679.909	3945.58
680.1	3918.96
680.29	3998.83
680.481	3916.91
680.671	3941.49
680.861	4047.98
681.052	3861.62
681.242	3935.34
681.432	4039.79
681.622	3943.53
681.813	3742.83
682.003	3843.18
682.193	3769.46
682.383	3878
682.573	3828.85
682.764	3847.28
682.954	3814.51
683.144	3839.09
683.334	3753.07
683.524	3761.27
683.714	3671.15
683.904	3873.9
684.094	3894.38
684.284	3834.99
684.474	3832.94
684.664	3771.51
684.854	3759.22
685.044	3693.68
685.234	3660.91
685.424	3613.81
685.614	3634.29
685.804	3673.2
685.994	3722.35
686.184	3667.06
686.374	3660.91
686.564	3460.21
686.753	3660.91
686.943	3640.44
687.133	3497.08
687.323	3525.75
687.513	3566.71
687.702	3452.02
687.892	3509.37
688.082	3460.21
688.272	3495.03
688.461	3454.07
688.651	3464.31
688.841	3415.16
689.03	3429.49
689.22	3406.97
689.41	3390.58
689.599	3286.14
689.789	3363.96
689.979	3378.3
690.168	3349.62
690.358	3349.62
690.547	3261.56
690.737	3286.14
690.926	3144.83
691.116	3210.36
691.305	3245.18
691.495	3290.23
691.684	3187.83
691.874	3210.36
692.063	3138.68
692.252	3179.64
692.442	2993.28
692.631	3085.44
692.82	3064.96
693.01	3036.28
693.199	3067
693.388	2899.07
693.578	3032.19
693.767	3062.91
693.956	3093.63
694.146	3013.76
694.335	2974.85
694.524	2907.26
694.713	2991.23
694.902	2860.16
695.092	3032.19
695.281	3058.81
695.47	2880.64
695.659	2931.84
695.848	2849.92
696.037	2897.02
696.226	2890.88
696.415	2827.39
696.604	2847.87
696.793	2784.38
696.982	2890.88
697.171	2722.95
697.36	2806.91
697.549	2813.06
697.738	2784.38
697.927	2700.42
698.116	2784.38
698.305	2714.75
698.494	2772.1
698.683	2770.05
698.872	2792.58
699.061	2628.74
699.25	2669.7
699.438	2741.38
699.627	2681.99
699.816	2753.66
700.005	2743.42
700.193	2782.34
700.382	2747.52
700.571	2540.68
700.76	2620.55
700.948	2704.51
701.137	2614.4
701.326	2616.45
701.514	2559.11
701.703	2681.99
701.892	2677.89
702.08	2608.26
702.269	2538.63
702.457	2489.48
702.646	2602.11
702.834	2602.11
703.023	2673.79
703.212	2649.22
703.4	2661.51
703.589	2606.21
703.777	2516.1
703.965	2567.3
704.154	2589.83
704.342	2475.14
704.531	2555.01
704.719	2475.14
704.907	2524.29
705.096	2485.38
705.284	2456.71
705.472	2587.78
705.661	2536.58
705.849	2512
706.037	2395.27
706.226	2448.52
706.414	2575.49
706.602	2552.96
706.79	2509.96
706.979	2456.71
707.167	2380.93
707.355	2403.46
707.543	2473.09
707.731	2608.26
707.919	2559.11
708.107	2466.95
708.296	2372.74
708.484	2442.37
708.672	2288.78
708.86	2587.78
709.048	2466.95
709.236	2413.7
709.424	2403.46
709.612	2305.16
709.8	2489.48
709.988	2374.79
710.176	2301.06
710.364	2428.04
710.551	2446.47
710.739	2430.09
710.927	2364.55
711.115	2438.28
711.303	2407.56
711.491	2327.69
711.679	2471.04
711.866	2350.21
712.054	2294.92
712.242	2425.99
712.43	2417.8
712.617	2393.22
712.805	2362.5
712.993	2362.5
713.181	2362.5
713.368	2391.17
713.556	2352.26
713.744	2389.13
713.931	2487.43
714.119	2415.75
714.306	2409.61
714.494	2303.11
714.682	2354.31
714.869	2389.13
715.057	2450.57
715.244	2329.74
715.432	2299.02
715.619	2401.41
715.807	2317.45
715.994	2307.21
716.182	2466.95
716.369	2364.55
716.556	2387.08
716.744	2337.93
716.931	2380.93
717.119	2385.03
717.306	2346.12
717.493	2311.3
717.681	2401.41
717.868	2348.17
718.055	2434.18
718.242	2487.43
718.43	2374.79
718.617	2409.61
718.804	2264.2
718.991	2288.78
719.179	2333.83
719.366	2354.31
719.553	2272.39
719.74	2358.41
719.927	2344.07
720.114	2366.6
720.301	2333.83
720.488	2233.48
720.676	2337.93
720.863	2366.6
721.05	2317.45
721.237	2313.35
721.424	2229.38
721.611	2362.5
721.798	2352.26
721.985	2309.26
722.172	2337.93
722.358	2321.54
722.545	2389.13
722.732	2278.54
722.919	2274.44
723.106	2288.78
723.293	2342.02
723.48	2366.6
723.667	2268.3
723.853	2151.56
724.04	2305.16
724.227	2307.21
724.414	2462.85
724.6	2223.24
724.787	2376.84
724.974	2378.89
725.161	2290.82
725.347	2438.28
725.534	2364.55
725.72	2194.57
725.907	2264.2
726.094	2356.36
726.28	2319.5
726.467	2188.43
726.653	2311.3
726.84	2434.18
727.027	2397.32
727.213	2305.16
727.4	2251.91
727.586	2458.76
727.773	2344.07
727.959	2270.34
728.145	2321.54
728.332	2376.84
728.518	2303.11
728.705	2364.55
728.891	2374.79
729.077	2475.14
729.264	2354.31
729.45	2380.93
729.636	2415.75
729.823	2276.49
730.009	2321.54
730.195	2399.37
730.382	2337.93
730.568	2415.75
730.754	2319.5
730.94	2282.63
731.126	2372.74
731.313	2405.51
731.499	2327.69
731.685	2391.17
731.871	2487.43
732.057	2305.16
732.243	2372.74
732.429	2378.89
732.615	2415.75
732.801	2315.4
732.987	2249.86
733.173	2262.15
733.359	2335.88
733.545	2227.34
733.731	2239.62
733.917	2305.16
734.103	2215.05
734.289	2374.79
734.475	2378.89
734.661	2415.75
734.847	2157.71
735.033	2243.72
735.219	2296.97
735.404	2364.55
735.59	2342.02
735.776	2382.98
735.962	2323.59
736.148	2458.76
736.333	2290.82
736.519	2276.49
736.705	2382.98
736.89	2284.68
737.076	2243.72
737.262	2276.49
737.447	2243.72
737.633	2305.16
737.819	2387.08
738.004	2253.96
738.19	2296.97
738.375	2342.02
738.561	2284.68
738.747	2352.26
738.932	2237.58
739.118	2260.1
739.303	2174.09
739.489	2210.95
739.674	2196.62
739.859	2223.24
740.045	2192.52
740.23	2272.39
740.416	2233.48
740.601	2221.19
740.786	2260.1
740.972	2213
741.157	2280.58
741.342	2126.99
741.528	2233.48
741.713	2471.04
741.898	2235.53
742.084	2143.37
742.269	2126.99
742.454	2204.81
742.639	2217.1
742.824	2102.41
743.01	2169.99
743.195	2116.75
743.38	2124.94
743.565	2110.6
743.75	2063.5
743.935	2217.1
744.12	2157.71
744.305	2184.33
744.49	2167.95
744.675	2174.09
744.86	2122.89
745.045	2022.54
745.23	2186.38
745.415	2135.18
745.6	1989.77
745.785	2067.6
745.97	1995.92
746.155	2026.64
746.34	2073.74
746.525	1975.44
746.71	1961.1
746.895	1924.24
747.079	1934.48
747.264	1944.72
747.449	1938.57
747.634	1868.94
747.819	1987.72
748.003	1799.31
748.188	1852.56
748.373	1864.85
748.557	1959.05
748.742	1862.8
748.927	1897.61
749.111	1731.73
749.296	1932.43
749.481	1930.38
749.665	1932.43
749.85	1856.65
750.034	1741.97
750.219	1737.87
750.404	1825.93
750.588	1793.17
750.773	1678.48
750.957	1772.69
751.141	1858.7
751.326	1721.49
751.51	1725.58
751.695	1811.6
751.879	1705.1
752.064	1778.83
752.248	1664.15
752.432	1522.84
752.617	1668.24
752.801	1549.46
752.985	1633.43
753.17	1725.58
753.354	1610.9
753.538	1563.79
753.722	1629.33
753.907	1551.51
754.091	1696.91
754.275	1557.65
754.459	1535.12
754.643	1457.3
754.828	1547.41
755.012	1522.84
755.196	1602.71
755.38	1559.7
755.564	1508.5
755.748	1488.02
755.932	1524.88
756.116	1502.36
756.3	1424.53
756.484	1457.3
756.668	1485.97
756.852	1391.77
757.036	1395.86
757.22	1373.33
757.404	1326.23
757.588	1404.05
757.772	1344.66
757.956	1361.05
758.14	1336.47
758.323	1299.61
758.507	1285.27
758.691	1320.09
758.875	1342.61
759.059	1320.09
759.242	1320.09
759.426	1373.33
759.61	1322.13
759.794	1270.94
759.977	1275.03
760.161	1307.8
760.345	1277.08
760.528	1260.7
760.712	1262.74
760.895	1195.16
761.079	1256.6
761.263	1158.3
761.446	1227.93
761.63	1168.54
761.813	1254.55
761.997	1227.93
762.18	1223.83
762.364	1184.92
762.547	1221.78
762.731	1154.2
762.914	1248.41
763.098	1182.87
763.281	1107.1
763.464	1129.63
763.648	1148.06
763.831	1162.39
764.015	1043.61
764.198	1012.89
764.381	1129.63
764.564	1127.58
764.748	1033.37
764.931	1133.72
765.114	1146.01
765.297	1105.05
765.481	1047.71
765.664	1150.11
765.847	1146.01
766.03	1037.47
766.213	1016.99
766.397	1068.19
766.58	1115.29
766.763	1135.77
766.946	1074.33
767.129	973.98
767.312	1006.75
767.495	1074.33
767.678	1016.99
767.861	1025.18
768.044	994.46
768.227	1057.95
768.41	1070.23
768.593	976.03
768.776	1047.71
768.959	1086.62
769.142	1158.3
769.324	992.41
769.507	982.17
769.69	1070.23
769.873	953.5
770.056	1045.66
770.239	877.73
770.421	926.88
770.604	906.4
770.787	1014.94
770.97	1053.85
771.152	961.69
771.335	963.74
771.518	910.49
771.7	1025.18
771.883	988.32
772.066	943.26
772.248	930.97
772.431	965.79
772.613	892.06
772.796	933.02
772.978	875.68
773.161	957.6
773.343	937.12
773.526	836.77
773.708	822.43
773.891	892.06
774.073	953.5
774.256	875.68
774.438	904.35
774.621	844.96
774.803	863.39
774.985	822.43
775.168	793.76
775.35	795.81
775.532	849.05
775.715	859.29
775.897	769.18
776.079	760.99
776.261	775.33
776.444	767.13
776.626	705.7
776.808	814.24
776.99	767.13
777.173	822.43
777.355	756.9
777.537	705.7
777.719	767.13
777.901	750.75
778.083	705.7
778.265	724.13
778.447	779.42
778.629	593.06
778.811	679.07
778.993	681.12
779.175	777.37
779.357	730.27
779.539	707.74
779.721	515.23
779.903	642.21
780.085	707.74
780.267	601.25
780.449	599.2
780.631	654.5
780.812	666.78
780.994	623.78
781.176	545.95
781.358	683.17
781.54	603.3
781.721	662.69
781.903	658.59
782.085	627.87
782.267	664.74
782.448	550.05
782.63	591.01
782.812	535.71
782.993	533.67
783.175	603.3
783.357	500.9
783.538	570.53
783.72	597.15
783.901	593.06
784.083	576.67
784.264	562.34
784.446	529.57
784.627	535.71
784.809	545.95
784.99	562.34
785.172	511.14
785.353	494.76
785.535	572.58
785.716	464.04
785.897	474.28
786.079	533.67
786.26	464.04
786.441	484.52
786.623	474.28
786.804	498.85
786.985	533.67
787.167	527.52
787.348	558.24
787.529	492.71
787.71	541.86
787.891	535.71
788.073	445.6
788.254	437.41
788.435	482.47
788.616	457.89
788.797	425.12
788.978	410.79
789.159	425.12
789.34	357.54
789.522	404.64
789.703	425.12
789.884	439.46
790.065	449.7
790.246	425.12
790.427	441.51
790.607	386.21
790.788	449.7
790.969	394.4
791.15	326.82
791.331	365.73
791.512	396.45
791.693	380.07
791.874	343.21
792.054	449.7
792.235	371.88
792.416	392.36
792.597	353.45
792.778	427.17
792.958	343.21
793.139	312.49
793.32	412.84
793.5	347.3
793.681	421.03
793.862	402.6
794.042	361.64
794.223	326.82
794.404	285.86
794.584	306.34
794.765	292.01
794.945	261.29
795.126	351.4
795.306	404.64
795.487	220.33
795.667	314.53
795.848	367.78
796.028	388.26
796.209	349.35
796.389	339.11
796.57	322.73
796.75	281.77
796.93	357.54
797.111	343.21
797.291	310.44
797.471	347.3
797.652	326.82
797.832	322.73
798.012	394.4
798.192	218.28
798.373	310.44
798.553	257.19
798.733	302.25
798.913	253.09
799.093	296.1
799.274	318.63
799.454	306.34
799.634	320.68
799.814	240.81
799.994	269.48
800.174	281.77
800.354	341.16
800.534	300.2
800.714	279.72
800.894	267.43
801.074	240.81
801.254	234.66
801.434	298.15
801.614	308.39
801.794	296.1
801.974	601.25
802.154	253.09
802.334	224.42
802.514	203.94
802.693	224.42
802.873	249
803.053	298.15
803.233	246.95
803.413	246.95
803.592	175.27
803.772	304.29
803.952	306.34
804.131	271.53
804.311	271.53
804.491	292.01
804.67	339.11
804.85	230.57
805.03	242.85
805.209	234.66
805.389	156.84
805.568	281.77
805.748	228.52
805.928	249
806.107	216.23
806.287	275.62
806.466	203.94
806.646	210.09
806.825	220.33
807.004	226.47
807.184	287.91
807.363	275.62
807.543	259.24
807.722	142.5
807.901	232.62
808.081	165.03
808.26	240.81
808.439	228.52
808.619	205.99
808.798	195.75
808.977	220.33
809.156	216.23
809.336	216.23
809.515	222.38
809.694	160.94
809.873	222.38
810.052	177.32
810.231	287.91
810.411	156.84
810.59	228.52
810.769	128.17
810.948	122.02
811.127	222.38
811.306	203.94
811.485	265.38
811.664	238.76
811.843	218.28
812.022	165.03
812.201	183.46
812.38	234.66
812.559	183.46
812.737	171.18
812.916	183.46
813.095	228.52
813.274	212.14
813.453	128.17
813.632	130.22
813.811	210.09
813.989	99.5
814.168	208.04
814.347	97.45
814.526	132.26
814.704	175.27
814.883	109.74
815.062	171.18
815.24	179.37
815.419	87.21
815.598	132.26
815.776	126.12
815.955	193.7
816.133	128.17
816.312	142.5
816.49	185.51
816.669	191.66
816.847	115.88
817.026	144.55
817.204	130.22
817.383	177.32
817.561	152.74
817.74	181.42
817.918	185.51
818.097	126.12
818.275	126.12
818.453	179.37
818.632	249
818.81	169.13
818.988	62.63
819.167	126.12
819.345	171.18
819.523	169.13
819.701	160.94
819.879	154.79
820.058	175.27
820.236	138.41
820.414	134.31
820.592	97.45
820.77	156.84
820.948	140.46
821.127	162.98
821.305	66.73
821.483	101.55
821.661	99.5
821.839	83.11
822.017	142.5
822.195	107.69
822.373	148.65
822.551	187.56
822.729	144.55
822.907	142.5
823.085	128.17
823.262	119.98
823.44	109.74
823.618	154.79
823.796	130.22
823.974	103.59
824.152	130.22
824.329	136.36
824.507	212.14
824.685	150.7
824.863	97.45
825.04	101.55
825.218	179.37
825.396	105.64
825.574	103.59
825.751	142.5
825.929	83.11
826.107	87.21
826.284	179.37
826.462	136.36
826.639	56.49
826.817	113.83
826.994	158.89
827.172	136.36
827.349	150.7
827.527	148.65
827.704	154.79
827.882	130.22
828.059	175.27
828.237	105.64
828.414	109.74
828.591	142.5
828.769	109.74
828.946	103.59
829.124	46.25
829.301	105.64
829.478	140.46
829.655	83.11
829.833	140.46
830.01	93.35
830.187	117.93
830.364	95.4
830.542	79.02
830.719	111.78
830.896	97.45
831.073	132.26
831.25	136.36
831.427	101.55
831.604	144.55
831.782	42.15
831.959	158.89
832.136	33.96
832.313	95.4
832.49	50.35
832.667	167.08
832.844	-0.85
833.021	162.98
833.198	89.26
833.374	167.08
833.551	93.35
833.728	113.83
833.905	50.35
834.082	138.41
834.259	103.59
834.436	134.31
834.612	107.69
834.789	150.7
834.966	66.73
835.143	117.93
835.319	44.2
835.496	103.59
835.673	56.49
835.85	89.26
836.026	113.83
836.203	44.2
836.38	138.41
836.556	60.59
836.733	136.36
836.909	130.22
837.086	138.41
837.262	179.37
837.439	36.01
837.616	91.31
837.792	48.3
837.968	25.77
838.145	87.21
838.321	93.35
838.498	138.41
838.674	128.17
838.851	111.78
839.027	27.82
839.203	60.59
839.38	56.49
839.556	97.45
839.732	156.84
839.909	23.72
840.085	128.17
840.261	56.49
840.437	87.21
840.614	74.92
840.79	60.59
840.966	52.39
841.142	109.74
841.318	152.74
841.494	89.26
841.671	-0.85
841.847	66.73
842.023	27.82
842.199	113.83
842.375	85.16
842.551	60.59
842.727	5.29
842.903	117.93
843.079	58.54
843.255	150.7
843.431	54.44
843.607	58.54
843.783	52.39
843.959	56.49
844.134	15.53
844.31	36.01
844.486	-13.14
844.662	126.12
844.838	27.82
845.013	62.63
845.189	48.3
845.365	76.97
845.541	89.26
845.716	117.93
845.892	89.26
846.068	38.06
846.244	21.67
846.419	58.54
846.595	23.72
846.77	72.87
846.946	89.26
847.122	52.39
847.297	160.94
847.473	89.26
847.648	68.78
847.824	85.16
847.999	-47.96
848.175	117.93
848.35	117.93
848.526	99.5
848.701	46.25
848.876	42.15
849.052	132.26
849.227	15.53
849.403	54.44
849.578	93.35
849.753	27.82
849.929	89.26
850.104	-2.9
850.279	31.91
850.454	48.3
850.63	46.25
850.805	-4.95
850.98	36.01
851.155	-21.33
851.33	42.15
851.505	66.73
851.681	44.2
851.856	27.82
852.031	29.87
852.206	-15.19
852.381	29.87
852.556	7.34
852.731	-2.9
852.906	70.83
853.081	83.11
853.256	52.39
853.431	21.67
853.606	3.24
853.781	-2.9
853.956	31.91
854.131	42.15
854.305	-31.57
854.48	76.97
854.655	31.91
854.83	-54.1
855.005	-66.39
855.18	85.16
855.354	38.06
855.529	42.15
855.704	-15.19
855.879	7.34
856.053	83.11
856.228	-7
856.403	38.06
856.577	46.25
856.752	-56.15
856.926	52.39
857.101	64.68
857.276	23.72
857.45	-47.96
857.625	-2.9
857.799	23.72
857.974	79.02
858.148	-23.38
858.323	13.48
858.497	-15.19
858.672	-11.09
858.846	-19.29
859.02	58.54
859.195	7.34
859.369	25.77
859.543	11.43
859.718	-0.85
859.892	52.39
860.066	79.02
860.241	-0.85
860.415	-25.43
860.589	33.96
860.763	56.49
860.938	-11.09
861.112	93.35
861.286	-23.38
861.46	13.48
861.634	15.53
861.808	81.07
861.982	5.29
862.157	27.82
862.331	46.25
862.505	29.87
862.679	-17.24
862.853	117.93
863.027	23.72
863.201	7.34
863.375	3.24
863.549	-19.29
863.722	66.73
863.896	31.91
864.07	-17.24
864.244	101.55
864.418	74.92
864.592	105.64
864.766	1.19
864.939	19.63
865.113	-45.91
865.287	-29.52
865.461	38.06
865.634	87.21
865.808	60.59
865.982	70.83
866.156	-43.86
866.329	27.82
866.503	17.58
866.676	33.96
866.85	74.92
867.024	11.43
867.197	15.53
867.371	15.53
867.544	38.06
867.718	13.48
867.891	27.82
868.065	19.63
868.238	-11.09
868.412	62.63
868.585	103.59
868.759	54.44
868.932	60.59
869.105	105.64
869.279	9.39
869.452	-58.2
869.625	-23.38
869.799	-7
869.972	40.11
870.145	25.77
870.319	9.39
870.492	7.34
870.665	-33.62
870.838	68.78
871.011	-74.58
871.185	-13.14
871.358	9.39
871.531	54.44
871.704	-52.05
871.877	5.29
872.05	-4.95
872.223	-0.85
872.396	15.53
872.569	36.01
872.742	33.96
872.915	74.92
873.088	-37.72
873.261	3.24
873.434	74.92
873.607	31.91
873.78	-17.24
873.953	15.53
874.126	91.31
874.299	-15.19
874.471	-2.9
874.644	21.67
874.817	-7
874.99	42.15
875.163	64.68
875.335	79.02
875.508	17.58
875.681	-23.38
875.853	15.53
876.026	42.15
876.199	-21.33
876.371	40.11
876.544	-21.33
876.717	117.93
876.889	64.68
877.062	36.01
877.234	1.19
877.407	11.43
877.579	-43.86
877.752	-27.48
877.924	-13.14
878.097	74.92
878.269	7.34
878.442	9.39
878.614	-17.24
878.786	93.35
878.959	27.82
879.131	62.63
879.303	-43.86
879.476	-4.95
879.648	27.82
879.82	11.43
879.993	-7
880.165	-7
880.337	9.39
880.509	9.39
880.681	-4.95
880.854	54.44
881.026	40.11
881.198	25.77
881.37	-2.9
881.542	64.68
881.714	-2.9
881.886	17.58
882.058	60.59
882.23	74.92
882.402	29.87
882.574	109.74
882.746	52.39
882.918	25.77
883.09	-62.29
883.262	23.72
883.434	17.58
883.606	36.01
883.778	-23.38
883.95	44.2
884.122	7.34
884.293	9.39
884.465	21.67
884.637	62.63
884.809	66.73
884.98	5.29
885.152	-11.09
885.324	97.45
885.496	-41.81
885.667	-50
885.839	66.73
886.011	50.35
886.182	25.77
886.354	38.06
886.525	42.15
886.697	27.82
886.869	-11.09
887.04	21.67
887.212	60.59
887.383	-4.95
887.555	23.72
887.726	99.5
887.897	58.54
888.069	99.5
888.24	1.19
888.412	68.78
888.583	105.64
888.754	36.01
888.926	-33.62
889.097	31.91
889.268	5.29
889.44	70.83
889.611	5.29
889.782	13.48
889.953	-93.01
890.125	-4.95
890.296	-21.33
890.467	17.58
890.638	-52.05
890.809	66.73
890.98	52.39
891.151	7.34
891.323	7.34
891.494	25.77
891.665	-25.43
891.836	60.59
892.007	7.34
892.178	58.54
892.349	60.59
892.52	-25.43
892.691	56.49
892.862	19.63
893.032	-45.91
893.203	-11.09
893.374	68.78
893.545	23.72
893.716	-13.14
893.887	74.92
894.057	17.58
894.228	27.82
894.399	-0.85
894.57	60.59
894.74	7.34
894.911	3.24
895.082	-13.14
895.253	31.91
895.423	79.02
895.594	79.02
895.764	29.87
895.935	29.87
896.106	79.02
896.276	3.24
896.447	60.59
896.617	5.29
896.788	-11.09
896.958	38.06
897.129	-13.14
897.299	-60.24
897.47	36.01
897.64	-27.48
897.81	-23.38
897.981	48.3
898.151	3.24
898.322	1.19
898.492	85.16
898.662	7.34
898.832	9.39
899.003	1.19
899.173	70.83
899.343	52.39
899.513	38.06
