Data from USB4F104151__22__11-05-03-572.txt Node

Date: Wed Mar 12 11:05:03 EDT 2025
User: louis
Spectrometer: USB4F10415
Trigger mode: 4
Integration Time (sec): 2.000000E-2
Scans to average: 1
Electric dark correction enabled: true
Nonlinearity correction enabled: false
Boxcar width: 0
XAxis mode: Wavelengths
Number of Pixels in Spectrum: 3648
>>>>>Begin Spectral Data<<<<<
178.204	-76.8
178.424	-76.8
178.644	-76.8
178.864	-72.7
179.084	-50.18
179.304	-11.26
179.524	33.79
179.744	17.41
179.964	50.18
180.184	27.65
180.404	31.74
180.624	-5.12
180.844	-31.74
181.064	-50.18
181.283	-9.22
181.503	-31.74
181.723	-21.5
181.943	37.89
182.163	41.98
182.383	-35.84
182.602	29.7
182.822	-21.5
183.042	17.41
183.262	-13.31
183.482	27.65
183.701	17.41
183.921	19.46
184.141	52.22
184.361	66.56
184.58	17.41
184.8	11.26
185.02	-35.84
185.239	13.31
185.459	-9.22
185.679	54.27
185.898	-17.41
186.118	66.56
186.338	-37.89
186.557	29.7
186.777	95.23
186.997	68.61
187.216	111.61
187.436	50.18
187.655	-19.46
187.875	37.89
188.095	19.46
188.314	44.03
188.534	-19.46
188.753	78.85
188.973	15.36
189.192	80.89
189.412	5.12
189.631	-13.31
189.851	-70.65
190.07	21.5
190.29	9.22
190.509	19.46
190.729	-1.02
190.948	70.65
191.168	132.09
191.387	15.36
191.607	-31.74
191.826	17.41
192.045	19.46
192.265	35.84
192.484	21.5
192.704	-1.02
192.923	9.22
193.142	103.42
193.362	50.18
193.581	107.52
193.8	35.84
194.02	29.7
194.239	52.22
194.458	13.31
194.678	-56.32
194.897	-19.46
195.116	82.94
195.335	56.32
195.555	-3.07
195.774	-35.84
195.993	82.94
196.212	99.33
196.432	-13.31
196.651	54.27
196.87	66.56
197.089	62.46
197.308	68.61
197.528	46.08
197.747	-35.84
197.966	-19.46
198.185	50.18
198.404	58.37
198.623	62.46
198.842	11.26
199.062	-1.02
199.281	76.8
199.5	5.12
199.719	78.85
199.938	44.03
200.157	27.65
200.376	48.13
200.595	74.75
200.814	41.98
201.033	-13.31
201.252	-41.98
201.471	13.31
201.69	-27.65
201.909	9.22
202.128	17.41
202.347	37.89
202.566	1.02
202.785	13.31
203.004	5.12
203.223	87.04
203.442	52.22
203.661	-7.17
203.879	35.84
204.098	46.08
204.317	-11.26
204.536	56.32
204.755	13.31
204.974	-3.07
205.193	50.18
205.411	-11.26
205.63	9.22
205.849	7.17
206.068	-76.8
206.287	-33.79
206.505	58.37
206.724	13.31
206.943	39.94
207.162	78.85
207.381	48.13
207.599	-23.55
207.818	39.94
208.037	27.65
208.255	31.74
208.474	58.37
208.693	-15.36
208.911	-33.79
209.13	29.7
209.349	23.55
209.567	-39.94
209.786	66.56
210.005	-15.36
210.223	-27.65
210.442	9.22
210.661	50.18
210.879	89.09
211.098	9.22
211.316	-13.31
211.535	23.55
211.753	-44.03
211.972	62.46
212.191	17.41
212.409	37.89
212.628	95.23
212.846	-35.84
213.065	121.85
213.283	-3.07
213.502	23.55
213.72	68.61
213.938	1.02
214.157	21.5
214.375	87.04
214.594	56.32
214.812	72.7
215.031	58.37
215.249	13.31
215.467	25.6
215.686	5.12
215.904	9.22
216.122	13.31
216.341	64.51
216.559	46.08
216.778	-46.08
216.996	35.84
217.214	17.41
217.432	54.27
217.651	84.99
217.869	3.07
218.087	-27.65
218.306	-1.02
218.524	64.51
218.742	5.12
218.96	1.02
219.179	13.31
219.397	27.65
219.615	74.75
219.833	17.41
220.051	58.37
220.27	89.09
220.488	1.02
220.706	7.17
220.924	21.5
221.142	74.75
221.36	7.17
221.578	-5.12
221.796	54.27
222.015	84.99
222.233	-39.94
222.451	13.31
222.669	3.07
222.887	33.79
223.105	52.22
223.323	-48.13
223.541	-27.65
223.759	41.98
223.977	41.98
224.195	39.94
224.413	29.7
224.631	27.65
224.849	29.7
225.067	41.98
225.285	7.17
225.503	95.23
225.721	-7.17
225.939	70.65
226.157	37.89
226.375	78.85
226.592	66.56
226.81	31.74
227.028	-39.94
227.246	121.85
227.464	62.46
227.682	21.5
227.9	31.74
228.117	50.18
228.335	60.42
228.553	44.03
228.771	9.22
228.989	48.13
229.206	52.22
229.424	3.07
229.642	-17.41
229.86	29.7
230.077	25.6
230.295	1.02
230.513	11.26
230.731	27.65
230.948	35.84
231.166	66.56
231.384	9.22
231.601	27.65
231.819	31.74
232.037	5.12
232.254	19.46
232.472	-13.31
232.689	-25.6
232.907	95.23
233.125	66.56
233.342	62.46
233.56	66.56
233.777	11.26
233.995	-1.02
234.213	15.36
234.43	-35.84
234.648	-29.7
234.865	13.31
235.083	87.04
235.3	7.17
235.518	58.37
235.735	54.27
235.953	-23.55
236.17	-7.17
236.388	5.12
236.605	35.84
236.822	48.13
237.04	66.56
237.257	31.74
237.475	11.26
237.692	117.76
237.909	-37.89
238.127	17.41
238.344	117.76
238.562	62.46
238.779	-7.17
238.996	9.22
239.214	23.55
239.431	23.55
239.648	-39.94
239.865	68.61
240.083	50.18
240.3	9.22
240.517	-21.5
240.735	-33.79
240.952	1.02
241.169	37.89
241.386	1.02
241.603	25.6
241.821	13.31
242.038	70.65
242.255	23.55
242.472	54.27
242.689	35.84
242.907	21.5
243.124	-7.17
243.341	-29.7
243.558	-3.07
243.775	52.22
243.992	-27.65
244.209	68.61
244.426	80.89
244.643	17.41
244.86	33.79
245.078	27.65
245.295	-7.17
245.512	11.26
245.729	-9.22
245.946	29.7
246.163	23.55
246.38	7.17
246.597	66.56
246.814	46.08
247.031	11.26
247.248	31.74
247.464	39.94
247.681	46.08
247.898	-1.02
248.115	41.98
248.332	48.13
248.549	25.6
248.766	-44.03
248.983	23.55
249.2	72.7
249.417	60.42
249.633	17.41
249.85	19.46
250.067	107.52
250.284	52.22
250.501	23.55
250.717	66.56
250.934	-39.94
251.151	33.79
251.368	15.36
251.585	56.32
251.801	-11.26
252.018	-35.84
252.235	89.09
252.451	-19.46
252.668	1.02
252.885	-25.6
253.102	74.75
253.318	29.7
253.535	15.36
253.752	1.02
253.968	11.26
254.185	25.6
254.401	54.27
254.618	76.8
254.835	-5.12
255.051	9.22
255.268	64.51
255.484	74.75
255.701	56.32
255.917	103.42
256.134	37.89
256.351	37.89
256.567	25.6
256.784	27.65
257	13.31
257.217	58.37
257.433	29.7
257.65	56.32
257.866	9.22
258.082	11.26
258.299	23.55
258.515	-3.07
258.732	23.55
258.948	121.85
259.165	97.28
259.381	97.28
259.597	15.36
259.814	-25.6
260.03	46.08
260.246	37.89
260.463	54.27
260.679	23.55
260.895	11.26
261.112	91.13
261.328	19.46
261.544	54.27
261.761	33.79
261.977	-1.02
262.193	29.7
262.409	52.22
262.626	54.27
262.842	-23.55
263.058	-41.98
263.274	58.37
263.49	74.75
263.707	15.36
263.923	-1.02
264.139	33.79
264.355	15.36
264.571	103.42
264.787	25.6
265.004	62.46
265.22	-27.65
265.436	35.84
265.652	44.03
265.868	50.18
266.084	93.18
266.3	19.46
266.516	-7.17
266.732	-21.5
266.948	62.46
267.164	23.55
267.38	89.09
267.596	13.31
267.812	64.51
268.028	25.6
268.244	21.5
268.46	93.18
268.676	78.85
268.892	87.04
269.108	-1.02
269.324	-48.13
269.54	-58.37
269.756	29.7
269.972	103.42
270.188	80.89
270.403	54.27
270.619	13.31
270.835	70.65
271.051	70.65
271.267	1.02
271.483	13.31
271.698	21.5
271.914	72.7
272.13	17.41
272.346	19.46
272.562	25.6
272.777	19.46
272.993	-15.36
273.209	27.65
273.425	54.27
273.64	-27.65
273.856	-52.22
274.072	7.17
274.287	31.74
274.503	64.51
274.719	-19.46
274.934	3.07
275.15	-70.65
275.366	35.84
275.581	50.18
275.797	80.89
276.012	-27.65
276.228	117.76
276.444	48.13
276.659	109.57
276.875	-15.36
277.09	58.37
277.306	-19.46
277.521	82.94
277.737	29.7
277.952	80.89
278.168	5.12
278.383	9.22
278.599	107.52
278.814	31.74
279.03	99.33
279.245	13.31
279.461	-3.07
279.676	7.17
279.892	-25.6
280.107	56.32
280.322	7.17
280.538	54.27
280.753	-31.74
280.969	91.13
281.184	-3.07
281.399	52.22
281.615	37.89
281.83	-7.17
282.045	-33.79
282.26	31.74
282.476	7.17
282.691	82.94
282.906	78.85
283.122	-19.46
283.337	9.22
283.552	44.03
283.767	50.18
283.983	60.42
284.198	21.5
284.413	52.22
284.628	5.12
284.843	9.22
285.058	58.37
285.274	62.46
285.489	13.31
285.704	19.46
285.919	46.08
286.134	54.27
286.349	54.27
286.564	21.5
286.779	76.8
286.995	29.7
287.21	41.98
287.425	64.51
287.64	5.12
287.855	21.5
288.07	-19.46
288.285	27.65
288.5	105.47
288.715	-15.36
288.93	64.51
289.145	-25.6
289.36	50.18
289.575	33.79
289.79	56.32
290.004	39.94
290.219	39.94
290.434	25.6
290.649	29.7
290.864	1.02
291.079	7.17
291.294	91.13
291.509	9.22
291.724	70.65
291.938	39.94
292.153	74.75
292.368	109.57
292.583	46.08
292.798	76.8
293.012	89.09
293.227	-35.84
293.442	-29.7
293.657	3.07
293.871	113.66
294.086	15.36
294.301	87.04
294.516	31.74
294.73	72.7
294.945	13.31
295.16	-23.55
295.374	82.94
295.589	60.42
295.804	1.02
296.018	-46.08
296.233	39.94
296.447	15.36
296.662	-21.5
296.877	23.55
297.091	70.65
297.306	44.03
297.52	60.42
297.735	27.65
297.949	5.12
298.164	52.22
298.378	-29.7
298.593	109.57
298.807	-23.55
299.022	33.79
299.236	82.94
299.451	11.26
299.665	5.12
299.88	7.17
300.094	54.27
300.309	84.99
300.523	7.17
300.737	58.37
300.952	29.7
301.166	41.98
301.381	39.94
301.595	21.5
301.809	62.46
302.024	-11.26
302.238	27.65
302.452	78.85
302.667	48.13
302.881	117.76
303.095	154.62
303.309	82.94
303.524	1.02
303.738	-19.46
303.952	87.04
304.166	70.65
304.381	-31.74
304.595	21.5
304.809	17.41
305.023	27.65
305.237	-21.5
305.452	33.79
305.666	-23.55
305.88	48.13
306.094	82.94
306.308	66.56
306.522	33.79
306.736	7.17
306.95	123.9
307.164	48.13
307.379	29.7
307.593	58.37
307.807	70.65
308.021	29.7
308.235	58.37
308.449	-41.98
308.663	82.94
308.877	68.61
309.091	9.22
309.305	64.51
309.519	-1.02
309.733	35.84
309.947	46.08
310.161	13.31
310.374	27.65
310.588	11.26
310.802	-3.07
311.016	-29.7
311.23	21.5
311.444	17.41
311.658	-17.41
311.872	64.51
312.085	-15.36
312.299	103.42
312.513	33.79
312.727	33.79
312.941	-58.37
313.154	-11.26
313.368	11.26
313.582	5.12
313.796	56.32
314.009	-19.46
314.223	80.89
314.437	97.28
314.651	-7.17
314.864	70.65
315.078	13.31
315.292	25.6
315.505	-11.26
315.719	11.26
315.933	103.42
316.146	21.5
316.36	1.02
316.573	115.71
316.787	25.6
317.001	27.65
317.214	-48.13
317.428	13.31
317.641	-13.31
317.855	103.42
318.068	58.37
318.282	31.74
318.495	64.51
318.709	-3.07
318.922	15.36
319.136	-5.12
319.349	87.04
319.563	1.02
319.776	101.37
319.99	52.22
320.203	87.04
320.417	123.9
320.63	64.51
320.843	103.42
321.057	21.5
321.27	41.98
321.483	56.32
321.697	46.08
321.91	5.12
322.124	91.13
322.337	11.26
322.55	93.18
322.763	91.13
322.977	-19.46
323.19	48.13
323.403	33.79
323.617	64.51
323.83	99.33
324.043	-11.26
324.256	68.61
324.469	35.84
324.683	-23.55
324.896	48.13
325.109	13.31
325.322	25.6
325.535	62.46
325.748	68.61
325.962	76.8
326.175	44.03
326.388	52.22
326.601	54.27
326.814	27.65
327.027	7.17
327.24	39.94
327.453	-27.65
327.666	115.71
327.879	111.61
328.092	119.81
328.305	15.36
328.518	21.5
328.731	-7.17
328.944	99.33
329.157	58.37
329.37	31.74
329.583	101.37
329.796	1.02
330.009	-11.26
330.222	132.09
330.435	46.08
330.648	21.5
330.861	-15.36
331.073	44.03
331.286	50.18
331.499	50.18
331.712	-29.7
331.925	44.03
332.138	23.55
332.35	5.12
332.563	1.02
332.776	23.55
332.989	78.85
333.202	-54.27
333.414	64.51
333.627	89.09
333.84	-21.5
334.053	103.42
334.265	-15.36
334.478	11.26
334.691	78.85
334.903	89.09
335.116	1.02
335.329	101.37
335.541	76.8
335.754	62.46
335.966	-17.41
336.179	50.18
336.392	19.46
336.604	48.13
336.817	31.74
337.029	41.98
337.242	113.66
337.454	23.55
337.667	21.5
337.88	31.74
338.092	-54.27
338.305	37.89
338.517	39.94
338.729	3.07
338.942	128
339.154	11.26
339.367	17.41
339.579	19.46
339.792	21.5
340.004	-11.26
340.217	82.94
340.429	60.42
340.641	33.79
340.854	138.24
341.066	70.65
341.278	1.02
341.491	62.46
341.703	140.29
341.915	-33.79
342.128	17.41
342.34	25.6
342.552	111.61
342.764	-11.26
342.977	46.08
343.189	80.89
343.401	97.28
343.613	-41.98
343.826	1.02
344.038	-64.51
344.25	70.65
344.462	78.85
344.674	99.33
344.886	41.98
345.099	31.74
345.311	-7.17
345.523	78.85
345.735	9.22
345.947	41.98
346.159	60.42
346.371	58.37
346.583	35.84
346.795	56.32
347.007	-11.26
347.219	5.12
347.431	-23.55
347.643	78.85
347.855	91.13
348.067	74.75
348.279	25.6
348.491	3.07
348.703	56.32
348.915	23.55
349.127	15.36
349.339	54.27
349.551	15.36
349.763	37.89
349.975	15.36
350.187	23.55
350.399	74.75
350.61	13.31
350.822	130.05
351.034	48.13
351.246	31.74
351.458	48.13
351.669	33.79
351.881	93.18
352.093	23.55
352.305	27.65
352.517	29.7
352.728	27.65
352.94	97.28
353.152	52.22
353.363	54.27
353.575	13.31
353.787	58.37
353.999	52.22
354.21	66.56
354.422	50.18
354.633	58.37
354.845	13.31
355.057	111.61
355.268	62.46
355.48	82.94
355.692	19.46
355.903	29.7
356.115	-1.02
356.326	1.02
356.538	50.18
356.749	93.18
356.961	15.36
357.172	70.65
357.384	-13.31
357.595	82.94
357.807	62.46
358.018	87.04
358.23	31.74
358.441	41.98
358.653	74.75
358.864	17.41
359.075	33.79
359.287	13.31
359.498	107.52
359.709	82.94
359.921	80.89
360.132	39.94
360.344	9.22
360.555	60.42
360.766	5.12
360.977	80.89
361.189	93.18
361.4	66.56
361.611	142.33
361.823	84.99
362.034	93.18
362.245	115.71
362.456	54.27
362.667	68.61
362.879	11.26
363.09	128
363.301	-25.6
363.512	105.47
363.723	-56.32
363.935	39.94
364.146	107.52
364.357	39.94
364.568	107.52
364.779	33.79
364.99	115.71
365.201	-9.22
365.412	21.5
365.623	-35.84
365.834	91.13
366.045	95.23
366.256	142.33
366.467	27.65
366.678	64.51
366.889	-19.46
367.1	82.94
367.311	31.74
367.522	84.99
367.733	1.02
367.944	54.27
368.155	46.08
368.366	82.94
368.577	39.94
368.788	68.61
368.999	82.94
369.209	66.56
369.42	80.89
369.631	15.36
369.842	64.51
370.053	50.18
370.264	3.07
370.474	64.51
370.685	62.46
370.896	78.85
371.107	82.94
371.317	56.32
371.528	17.41
371.739	93.18
371.95	89.09
372.16	72.7
372.371	54.27
372.582	15.36
372.792	39.94
373.003	74.75
373.214	68.61
373.424	37.89
373.635	29.7
373.846	123.9
374.056	66.56
374.267	54.27
374.477	-23.55
374.688	9.22
374.898	11.26
375.109	111.61
375.319	99.33
375.53	3.07
375.74	44.03
375.951	39.94
376.161	9.22
376.372	-1.02
376.582	50.18
376.793	82.94
377.003	27.65
377.214	91.13
377.424	99.33
377.635	1.02
377.845	74.75
378.055	41.98
378.266	-48.13
378.476	89.09
378.686	103.42
378.897	95.23
379.107	66.56
379.317	15.36
379.528	46.08
379.738	74.75
379.948	9.22
380.158	23.55
380.369	21.5
380.579	99.33
380.789	23.55
380.999	111.61
381.21	54.27
381.42	44.03
381.63	48.13
381.84	74.75
382.05	76.8
382.261	91.13
382.471	103.42
382.681	-15.36
382.891	72.7
383.101	123.9
383.311	33.79
383.521	5.12
383.731	25.6
383.941	56.32
384.151	107.52
384.361	39.94
384.571	23.55
384.781	99.33
384.991	80.89
385.201	101.37
385.411	37.89
385.621	119.81
385.831	50.18
386.041	101.37
386.251	62.46
386.461	87.04
386.671	23.55
386.881	39.94
387.091	3.07
387.301	31.74
387.511	-9.22
387.72	95.23
387.93	-3.07
388.14	9.22
388.35	41.98
388.56	66.56
388.769	62.46
388.979	117.76
389.189	39.94
389.399	78.85
389.609	35.84
389.818	80.89
390.028	70.65
390.238	82.94
390.447	66.56
390.657	50.18
390.867	-13.31
391.076	68.61
391.286	191.49
391.496	99.33
391.705	-15.36
391.915	35.84
392.125	84.99
392.334	-11.26
392.544	99.33
392.753	58.37
392.963	9.22
393.172	46.08
393.382	25.6
393.591	146.43
393.801	25.6
394.01	74.75
394.22	50.18
394.429	33.79
394.639	-41.98
394.848	74.75
395.058	97.28
395.267	44.03
395.477	39.94
395.686	136.19
395.895	138.24
396.105	142.33
396.314	119.81
396.524	123.9
396.733	66.56
396.942	52.22
397.152	66.56
397.361	121.85
397.57	23.55
397.78	93.18
397.989	99.33
398.198	93.18
398.407	52.22
398.617	78.85
398.826	70.65
399.035	80.89
399.244	132.09
399.453	87.04
399.663	56.32
399.872	111.61
400.081	70.65
400.29	111.61
400.499	35.84
400.708	91.13
400.917	160.77
401.127	89.09
401.336	109.57
401.545	207.87
401.754	99.33
401.963	87.04
402.172	103.42
402.381	113.66
402.59	105.47
402.799	121.85
403.008	119.81
403.217	160.77
403.426	144.38
403.635	117.76
403.844	64.51
404.053	168.96
404.262	164.86
404.471	140.29
404.68	82.94
404.888	152.57
405.097	154.62
405.306	175.1
405.515	113.66
405.724	205.82
405.933	179.2
406.142	181.25
406.35	99.33
406.559	162.81
406.768	146.43
406.977	226.3
407.185	154.62
407.394	197.63
407.603	189.44
407.812	91.13
408.02	193.53
408.229	254.97
408.438	203.77
408.646	214.01
408.855	216.06
409.064	277.5
409.272	187.39
409.481	193.53
409.69	205.82
409.898	242.68
410.107	302.08
410.315	295.93
410.524	334.84
410.733	353.27
410.941	269.31
411.15	314.36
411.358	312.32
411.567	269.31
411.775	347.13
411.984	416.76
412.192	357.37
412.401	418.81
412.609	416.76
412.818	457.72
413.026	435.19
413.234	416.76
413.443	445.43
413.651	478.2
413.86	381.95
414.068	551.93
414.276	588.79
414.485	521.21
414.693	625.65
414.901	623.61
415.11	617.46
415.318	539.64
415.526	660.47
415.734	629.75
415.943	730.1
416.151	777.2
416.359	758.77
416.567	785.4
416.776	738.29
416.984	812.02
417.192	934.9
417.4	973.81
417.608	842.74
417.817	867.31
418.025	1000.43
418.233	1080.3
418.441	1041.39
418.649	1049.58
418.857	1096.69
419.065	1178.61
419.273	1147.89
419.481	1211.37
419.689	1262.57
419.897	1338.35
420.105	1356.78
420.313	1342.44
420.521	1393.64
420.729	1387.5
420.937	1506.28
421.145	1588.2
421.353	1659.88
421.561	1762.28
421.769	1749.99
421.977	1872.87
422.185	1651.69
422.393	1991.65
422.601	2061.28
422.809	1956.83
423.017	2022.37
423.224	2053.09
423.432	2143.2
423.64	2171.87
423.848	2343.9
424.056	2376.67
424.263	2538.46
424.471	2466.78
424.679	2520.03
424.887	2763.73
425.094	2747.35
425.302	2898.9
425.51	2814.93
425.718	2976.72
425.925	3003.35
426.133	3036.11
426.341	3259.34
426.548	3427.28
426.756	3423.18
426.964	3441.61
427.171	3670.98
427.379	3867.59
427.586	3883.97
427.794	4096.96
428.001	4195.26
428.209	4350.91
428.417	4258.75
428.624	4699.06
428.832	4572.09
429.039	4365.25
429.247	4647.87
429.454	4944.82
429.662	5460.91
429.869	5049.27
430.076	5333.93
430.284	5440.43
430.491	5295.02
430.699	5858.21
430.906	5725.1
431.114	5813.16
431.321	6007.72
431.528	6151.07
431.736	6570.91
431.943	6935.45
432.15	6718.36
432.358	6620.06
432.565	7144.34
432.772	7146.39
432.979	7410.57
433.187	7615.37
433.394	7590.8
433.601	8172.42
433.808	8145.8
434.016	8194.95
434.223	8534.91
434.43	8797.05
434.637	8803.19
434.844	9380.72
435.052	9593.71
435.259	9288.56
435.466	9655.15
435.673	9386.86
435.88	9956.2
436.087	10668.89
436.294	10822.49
436.501	10398.56
436.708	10543.97
436.915	10902.36
437.122	11535.18
437.329	11524.94
437.537	11651.92
437.743	11965.26
437.95	11852.62
438.157	12526.4
438.364	12886.84
438.571	13083.45
438.778	12731.2
438.985	14181.16
439.192	13808.43
439.399	14068.52
439.606	14002.99
439.813	14375.72
440.02	15395.61
440.227	15078.17
440.433	14787.36
440.64	15491.86
440.847	15459.09
441.054	15895.31
441.261	16812.8
441.467	16595.71
441.674	17130.23
441.881	17761.01
442.088	17457.91
442.294	17537.78
442.501	17767.15
442.708	18078.44
442.914	19118.81
443.121	19825.36
443.328	19159.77
443.534	20417.22
443.741	20282.06
443.948	19956.43
444.154	21080.77
444.361	21097.15
444.568	21566.13
444.774	21310.14
444.981	21748.4
445.187	21971.63
445.394	22911.65
445.6	22858.4
445.807	24564.36
446.013	23657.11
446.22	24380.04
446.426	25031.3
446.633	25340.54
446.839	26374.77
447.046	25156.22
447.252	26471.02
447.459	26421.87
447.665	26354.29
447.871	27675.23
448.078	28756.55
448.284	27142.75
448.491	27855.45
448.697	29178.43
448.903	29809.21
449.11	29774.39
449.316	28904.01
449.522	29479.49
449.728	30380.59
449.935	30648.88
450.141	30609.96
450.347	31126.05
450.553	30419.5
450.76	30757.42
450.966	31668.76
451.172	31146.53
451.378	31590.94
451.584	31164.96
451.791	31961.62
451.997	31853.08
452.203	32180.76
452.409	32219.67
452.615	31865.37
452.821	30859.82
453.027	30556.72
453.233	32236.05
453.44	30726.7
453.646	31156.77
453.852	31230.5
454.058	31828.51
454.264	30679.6
454.47	31175.2
454.676	30632.49
454.882	31126.05
455.088	28725.83
455.294	28983.88
455.5	29438.53
455.705	29878.84
455.911	28197.46
456.117	27970.13
456.323	27204.19
456.529	25893.49
456.735	27019.88
456.941	26235.5
457.147	26061.43
457.352	25125.5
457.558	24826.5
457.764	24799.88
457.97	24515.21
458.176	23587.48
458.381	23693.97
458.587	22817.44
458.793	22631.08
458.999	21365.43
459.204	23194.27
459.41	21949.11
459.616	20761.28
459.821	20789.95
460.027	20669.12
460.233	20071.12
460.438	19092.19
460.644	19432.15
460.85	18701.03
461.055	18598.63
461.261	18414.31
461.466	16954.11
461.672	16571.14
461.878	17539.83
462.083	16323.33
462.289	16081.67
462.494	15825.68
462.7	15235.86
462.905	14791.45
463.111	15565.59
463.316	15407.89
463.522	15377.17
463.727	15244.06
463.932	15096.6
464.138	14916.38
464.343	15176.47
464.549	14631.71
464.754	15053.59
464.959	15199
465.165	14652.19
465.37	14369.57
465.575	13943.6
465.781	14304.04
465.986	14277.41
466.191	13978.41
466.397	13890.35
466.602	13091.64
466.807	13798.19
467.012	13734.7
467.218	13708.08
467.423	13218.61
467.628	13695.79
467.833	13974.31
468.038	13482.8
468.244	13136.7
468.449	13564.72
468.654	13146.94
468.859	13189.94
469.064	13148.98
469.269	12602.18
469.474	12526.4
469.679	12704.57
469.885	12489.54
470.09	12440.39
470.295	12503.87
470.5	12159.81
470.705	12385.09
470.91	12163.91
471.115	11979.59
471.32	12026.7
471.525	11787.08
471.73	11635.53
471.935	11858.76
472.139	11209.56
472.344	11238.23
472.549	11334.48
472.754	11066.2
472.959	11062.1
473.164	10701.66
473.369	10756.96
473.574	11150.17
473.778	10943.32
473.983	10806.11
474.188	10632.03
474.393	10185.57
474.598	10347.36
474.802	9980.78
475.007	10072.93
475.212	10072.93
475.417	9632.62
475.621	9583.47
475.826	9749.36
476.031	9532.27
476.235	9569.13
476.44	9470.83
476.645	9233.27
476.849	9382.77
477.054	9347.95
477.259	9020.28
477.463	8962.94
477.668	9063.29
477.872	9196.4
478.077	8799.1
478.282	8459.13
478.486	8491.9
478.691	8577.92
478.895	8496
479.1	8553.34
479.304	8534.91
479.509	8080.26
479.713	8338.3
479.918	8113.03
480.122	8135.56
480.326	8196.99
480.531	8170.37
480.735	8184.71
480.94	8047.49
481.144	8113.03
481.348	7830.41
481.553	8055.69
481.757	7979.91
481.961	7811.98
482.166	7918.47
482.37	8006.53
482.574	7635.85
482.778	7859.08
482.983	8029.06
483.187	7887.75
483.391	7809.93
483.595	7779.21
483.8	7752.59
484.004	8006.53
484.208	7965.57
484.412	7906.18
484.616	7945.09
484.821	8018.82
485.025	7766.92
485.229	8010.63
485.433	7861.13
485.637	7920.52
485.841	7768.97
486.045	7881.61
486.249	7902.09
486.453	7678.86
486.657	7879.56
486.861	7842.7
487.065	7795.59
487.269	7748.49
487.473	7797.64
487.677	7979.91
487.881	7775.11
488.085	7920.52
488.289	7766.92
488.493	7830.41
488.697	7797.64
488.901	7926.66
489.105	7994.25
489.309	8059.78
489.512	7789.45
489.716	7854.98
489.92	7963.53
490.124	8102.79
490.328	8090.5
490.531	7930.76
490.735	7936.9
490.939	8086.4
491.143	8090.5
491.346	8094.6
491.55	8215.43
491.754	8174.47
491.958	8307.59
492.161	8352.64
492.365	8350.59
492.569	8295.3
492.772	8274.82
492.976	8330.11
493.18	8385.41
493.383	8403.84
493.587	8561.53
493.79	8731.51
493.994	8612.73
494.197	8737.66
494.401	8768.38
494.605	8817.53
494.808	8997.75
495.012	9038.71
495.215	9173.88
495.419	9108.34
495.622	9069.43
495.825	9065.33
496.029	9139.06
496.232	9286.51
496.436	9397.1
496.639	9532.27
496.843	9335.67
497.046	9741.16
497.249	9788.27
497.453	9835.37
497.656	10124.13
497.859	9943.91
498.063	10120.04
498.266	10296.16
498.469	10312.55
498.673	10300.26
498.876	10500.96
499.079	10507.1
499.282	10566.49
499.485	10797.92
499.689	10986.33
499.892	11072.34
500.095	11146.07
500.298	11486.03
500.501	11371.35
500.705	11746.12
500.908	11588.43
501.111	11940.68
501.314	12073.8
501.517	12139.33
501.72	12270.4
501.923	12491.59
502.126	12600.13
502.329	12692.29
502.532	12909.37
502.735	13054.78
502.938	13161.27
503.141	13290.29
503.344	13394.74
503.547	13054.78
503.75	13521.71
503.953	13953.84
504.156	13927.21
504.359	13988.65
504.562	14179.11
504.765	14379.81
504.968	14482.21
505.17	14578.47
505.373	14779.17
505.576	14834.46
505.779	15295.25
505.982	15311.64
506.185	15536.91
506.387	15885.07
506.59	15760.14
506.793	16253.7
506.996	16222.98
507.198	16321.29
507.401	16257.8
507.604	16458.5
507.807	16909.05
508.009	17128.19
508.212	17251.06
508.415	17537.78
508.617	17400.57
508.82	17718
509.022	17761.01
509.225	18055.92
509.428	18266.86
509.63	18264.81
509.833	18590.44
510.035	18893.54
510.238	18848.48
510.44	18991.84
510.643	19325.66
510.845	19299.03
511.048	19454.68
511.25	19829.46
511.453	19761.87
511.655	20335.31
511.858	20490.95
512.06	20429.51
512.262	20681.41
512.465	20857.54
512.667	21015.23
512.87	21183.16
513.072	21441.21
513.274	21992.11
513.477	21803.7
513.679	22342.32
513.881	22241.96
514.084	22778.53
514.286	22719.14
514.488	22901.41
514.69	23546.52
514.893	23421.59
515.095	23542.42
515.297	23851.67
515.499	23792.28
515.701	24150.67
515.904	24570.51
516.106	24728.2
516.308	25164.42
516.51	25459.32
516.712	25031.3
516.914	25430.65
517.116	26206.83
517.318	25842.29
517.52	26356.33
517.722	26415.72
517.925	26677.86
518.127	27103.84
518.329	27095.65
518.531	27179.62
518.733	27669.08
518.935	27877.97
519.136	27877.97
519.338	28381.77
519.54	28559.95
519.742	28551.76
519.944	28580.43
520.146	29489.73
520.348	29372.99
520.55	29542.97
520.752	29954.61
520.954	30302.77
521.155	29876.79
521.357	30644.78
521.559	30757.42
521.761	31590.94
521.963	31324.71
522.164	31498.78
522.366	31304.23
522.568	31805.98
522.77	31902.23
522.971	32641.55
523.173	32035.35
523.375	32932.36
523.576	32641.55
523.778	32903.69
523.98	33292.8
524.181	33425.92
524.383	33374.72
524.584	34099.7
524.786	33911.29
524.988	33956.35
525.189	34337.27
525.391	34501.11
525.592	34849.26
525.794	35019.24
525.995	34900.46
526.197	35178.98
526.398	34918.89
526.6	35779.04
526.801	35576.29
527.003	35756.51
527.204	35428.84
527.406	36162.01
527.607	36383.19
527.808	36385.24
528.01	35520.99
528.211	36219.35
528.412	36739.54
528.614	36272.6
528.815	36297.17
529.016	37431.75
529.218	36456.92
529.419	37018.06
529.62	36796.88
529.822	37048.78
530.023	37229
530.224	36919.76
530.425	37333.45
530.626	37030.35
530.828	36809.17
531.029	37931.45
531.23	37685.7
531.431	37538.24
531.632	37804.48
531.833	37528
532.035	37829.05
532.236	37951.93
532.437	37734.85
532.638	37994.94
532.839	38330.81
533.04	38074.81
533.241	37366.21
533.442	38238.65
533.643	37790.14
533.844	38369.72
534.045	38283.7
534.246	37124.55
534.447	38093.24
534.648	37800.38
534.849	37857.73
535.05	37861.82
535.251	38091.19
535.451	37943.74
535.652	38566.32
535.853	37890.49
536.054	38074.81
536.255	38517.17
536.456	37931.45
536.657	38728.11
536.857	37757.38
537.058	38201.79
537.259	38439.35
537.46	38246.84
537.66	38275.51
537.861	38185.4
538.062	38435.25
538.263	38267.32
538.463	38267.32
538.664	38302.14
538.865	38152.63
539.065	38611.38
539.266	38169.02
539.466	38410.68
539.667	37726.66
539.868	38242.74
540.068	38130.11
540.269	38179.26
540.469	38220.22
540.67	38330.81
540.87	38101.43
541.071	37847.49
541.271	38279.61
541.472	38343.09
541.672	38255.03
541.873	38080.95
542.073	37657.03
542.274	38353.33
542.474	37906.88
542.675	37990.84
542.875	38199.74
543.075	37976.51
543.276	37386.69
543.476	38218.17
543.676	38091.19
543.877	38040
544.077	38152.63
544.277	37757.38
544.478	38013.37
544.678	38054.33
544.878	38007.23
545.078	38062.52
545.279	37636.55
545.479	37841.34
545.679	37917.12
545.879	37571.01
546.079	37931.45
546.28	37968.32
546.48	37728.7
546.68	37788.1
546.88	38156.73
547.08	37501.38
547.28	37968.32
547.48	37710.27
547.68	37779.9
547.88	37485
548.081	37886.4
548.281	37978.56
548.481	37456.32
548.681	37886.4
548.881	37550.53
549.081	37360.07
549.28	37519.81
549.48	37888.45
549.68	37202.38
549.88	38201.79
550.08	37528
550.28	37388.74
550.48	37679.55
550.68	38255.03
550.88	37255.62
551.08	37272.01
551.279	37454.28
551.479	37194.18
551.679	37695.94
551.879	37034.44
552.079	37534.15
552.278	37671.36
552.478	37204.42
552.678	37681.6
552.878	37767.62
553.077	37673.41
553.277	37147.08
553.477	37886.4
553.676	37149.13
553.876	37065.16
554.076	37054.92
554.275	36909.52
554.475	36964.81
554.674	37235.14
554.874	36952.52
555.074	36649.42
555.273	36979.15
555.473	37216.71
555.672	37071.31
555.872	36942.28
556.071	37300.68
556.271	36884.94
556.47	36774.35
556.67	36383.19
556.869	36977.1
557.068	36807.12
557.268	36497.88
557.467	36657.62
557.667	36489.68
557.866	36712.91
558.065	36401.62
558.265	36518.35
558.464	35994.07
558.663	36680.14
558.863	35930.59
559.062	36753.87
559.261	35901.92
559.461	36452.82
559.66	35621.34
559.859	35881.44
560.058	35471.84
560.258	36235.74
560.457	35342.82
560.656	36135.38
560.855	35482.08
561.054	35707.36
561.253	35572.19
561.453	35375.59
561.652	35277.29
561.851	35674.59
562.05	35697.12
562.249	35123.69
562.448	35402.21
562.647	35355.11
562.846	35056.11
563.045	35271.14
563.244	34497.01
563.443	35238.37
563.642	34673.13
563.841	34859.5
564.04	34806.25
564.239	34779.63
564.438	34376.18
564.637	34695.66
564.836	34591.22
565.035	34159.09
565.234	34136.57
565.432	34044.41
565.631	33888.76
565.83	34324.98
566.029	33821.18
566.228	34148.85
566.427	33876.48
566.625	33600
566.824	33327.62
567.023	33872.38
567.222	33049.1
567.42	33538.56
567.619	32958.99
567.818	33221.13
568.016	33085.96
568.215	33214.98
568.414	33180.17
568.612	33018.38
568.811	32887.31
569.01	32934.41
569.208	32285.2
569.407	32948.75
569.605	32348.69
569.804	32533.01
570.002	31984.15
570.201	32340.5
570.4	32002.58
570.598	31914.52
570.797	32031.26
570.995	32270.87
571.193	31445.54
571.392	32147.99
571.59	31420.96
571.789	31564.32
571.987	31631.9
572.186	31500.83
572.384	31201.83
572.582	31386.15
572.781	31511.07
572.979	30816.81
573.177	31361.57
573.376	30994.98
573.574	30935.59
573.772	30878.25
573.971	30886.44
574.169	30423.6
574.367	30173.75
574.565	30687.79
574.763	30450.22
574.962	30243.38
575.16	29907.51
575.358	30231.09
575.556	29944.38
575.754	30153.27
575.952	29631.04
576.151	30038.58
576.349	29672
576.547	29770.3
576.745	29526.59
576.943	29583.93
577.141	29356.61
577.339	29184.58
577.537	29006.41
577.735	29141.57
577.933	28912.2
578.131	29051.46
578.329	28807.75
578.527	28848.71
578.725	28930.63
578.923	28762.7
579.121	28475.98
579.319	28742.22
579.516	28793.42
579.714	28660.3
579.912	28357.2
580.11	28525.13
580.308	28148.31
580.506	27980.37
580.704	27794.01
580.901	27955.8
581.099	28308.05
581.297	27849.3
581.495	27724.38
581.692	27597.4
581.89	27310.69
582.088	27587.16
582.285	27439.71
582.483	27830.87
582.681	27363.93
582.878	27152.99
583.076	27185.76
583.274	27331.17
583.471	26675.82
583.669	26829.41
583.866	26819.17
584.064	26894.95
584.262	26231.41
584.459	26757.74
584.657	26528.36
584.854	26651.24
585.052	25879.16
585.249	26473.07
585.447	26382.96
585.644	26088.05
585.841	25993.84
586.039	26303.09
586.236	25600.63
586.434	25633.4
586.631	25883.25
586.828	25897.59
587.026	25762.42
587.223	25662.07
587.42	25516.67
587.618	25649.78
587.815	25195.14
588.012	25363.07
588.21	24935.04
588.407	25424.51
588.604	24973.95
588.801	24677
588.999	24806.02
589.196	24826.5
589.393	24988.29
589.59	25242.24
589.787	24621.7
589.984	24396.43
590.182	24296.08
590.379	24717.96
590.576	24349.32
590.773	24396.43
590.97	24103.57
591.167	24259.21
591.364	23573.14
591.561	23839.38
591.758	23876.24
591.955	23913.11
592.152	23892.63
592.349	23581.34
592.546	23585.43
592.743	24128.14
592.94	23409.31
593.137	23333.53
593.334	23517.85
593.531	23018.14
593.727	23143.07
593.924	23116.45
594.121	23251.61
594.318	23018.14
594.515	22702.76
594.712	22987.43
594.908	22821.54
595.105	22858.4
595.302	22397.61
595.499	22397.61
595.696	22418.09
595.892	22196.91
596.089	22590.12
596.286	22635.17
596.482	22102.7
596.679	22143.66
596.876	22143.66
597.072	21871.28
597.269	21832.37
597.466	21729.97
597.662	21689.01
597.859	21826.23
598.055	21828.27
598.252	21392.06
598.448	21766.84
598.645	21572.28
598.841	21570.23
599.038	21406.39
599.234	21385.91
599.431	20865.73
599.627	21050.05
599.824	21220.03
600.02	20808.39
600.217	21168.83
600.413	21043.9
600.609	20665.03
600.806	20662.98
601.002	20517.57
601.198	20628.17
601.395	20265.67
601.591	20609.73
601.787	20624.07
601.984	20572.87
602.18	20619.97
602.376	20165.32
602.572	20150.99
602.769	20329.16
602.965	19804.88
603.161	20198.09
603.357	19727.06
603.553	19923.66
603.75	20013.77
603.946	19704.53
604.142	19897.04
604.338	19383
604.534	19774.16
604.73	19487.45
604.926	19774.16
605.122	19649.24
605.318	19329.75
605.514	19174.11
605.71	19391.19
605.906	19157.72
606.102	19221.21
606.298	19141.34
606.494	18817.76
606.69	19112.67
606.886	19100.38
607.082	18531.05
607.278	18995.93
607.474	18520.81
607.67	18832.1
607.866	18496.23
608.062	18842.34
608.257	18430.69
608.453	18680.55
608.649	18461.41
608.845	18293.48
609.041	18205.42
609.236	18393.83
609.432	18504.42
609.628	18461.41
609.824	18473.7
610.019	18209.51
610.215	18010.86
610.411	18279.15
610.606	18070.25
610.802	18131.69
610.998	17896.17
611.193	18066.16
611.389	17842.93
611.584	17847.02
611.78	17744.63
611.976	17550.07
612.171	17517.3
612.367	17613.56
612.562	17582.84
612.758	17185.53
612.953	17312.5
613.149	17875.7
613.344	17310.46
613.539	18031.34
613.735	17324.79
613.93	17701.62
614.126	17375.99
614.321	17578.74
614.517	17490.68
614.712	17093.37
614.907	17146.62
615.103	17285.88
615.298	16999.16
615.493	17267.45
615.688	16812.8
615.884	17361.66
616.079	16872.19
616.274	16784.13
616.47	17101.56
616.665	17007.36
616.86	16681.73
617.055	16917.25
617.25	16485.12
617.445	16616.19
617.641	16552.71
617.836	16530.18
618.031	16059.15
618.226	16526.08
618.421	16448.26
618.616	16513.8
618.811	16315.14
619.006	16470.79
619.201	16044.81
619.396	16317.19
619.591	16044.81
619.786	16182.03
619.981	15792.91
620.176	16196.36
620.371	15840.01
620.566	15758.1
620.761	15811.34
620.956	15911.69
621.151	15471.38
621.346	15618.83
621.541	15428.37
621.735	15487.76
621.93	15094.55
622.125	15280.92
622.32	14873.37
622.515	15237.91
622.709	15127.32
622.904	15170.33
623.099	14789.41
623.294	14902.04
623.488	14586.66
623.683	14725.92
623.878	14437.16
624.072	14621.47
624.267	14242.6
624.462	14535.46
624.656	14275.37
624.851	14363.43
625.046	13978.41
625.24	14289.7
625.435	13878.06
625.629	13876.01
625.824	13562.67
626.018	13890.35
626.213	13513.52
626.407	13689.65
626.602	13349.68
626.796	13624.11
626.991	13460.27
627.185	13396.79
627.38	13101.88
627.574	13140.79
627.768	13278.01
627.963	13007.67
628.157	12835.64
628.352	12837.69
628.546	12768.06
628.74	12813.12
628.935	12675.9
629.129	12507.97
629.323	12438.34
629.517	12555.07
629.712	12237.64
629.906	12319.56
630.1	11989.83
630.294	12407.62
630.489	12026.7
630.683	12245.83
630.877	11948.87
631.071	12016.46
631.265	12047.18
631.459	11739.98
631.653	11887.43
631.848	12086.09
632.042	11570
632.236	11916.11
632.43	11627.34
632.624	11610.96
632.818	11506.51
633.012	11457.36
633.206	11033.43
633.4	11318.1
633.594	11193.17
633.788	11211.6
633.982	10961.75
634.176	11027.29
634.369	10982.23
634.563	10928.99
634.757	10859.35
634.951	10890.07
635.145	10900.31
635.339	10728.28
635.533	10705.76
635.726	10566.49
635.92	10476.38
636.114	10490.72
636.308	10423.14
636.501	10341.22
636.695	10283.88
636.889	10265.44
637.083	10210.15
637.276	10165.09
637.47	10226.53
637.664	10021.74
637.857	9802.6
638.051	10042.21
638.244	9763.69
638.438	9913.19
638.632	9962.34
638.825	9497.46
639.019	9655.15
639.212	9368.43
639.406	9448.3
639.599	9673.58
639.793	9673.58
639.986	9298.8
640.18	9304.95
640.373	9317.23
640.567	9364.34
640.76	9208.69
640.954	8889.21
641.147	9083.77
641.34	9005.94
641.534	9069.43
641.727	9055.09
641.92	8876.92
642.114	8864.63
642.307	8803.19
642.5	8899.45
642.694	8676.22
642.887	8514.43
643.08	8680.32
643.273	8498.05
643.467	8524.67
643.66	8440.7
643.853	8539.01
644.046	8508.29
644.239	8416.13
644.432	8440.7
644.626	8147.84
644.819	8166.28
645.012	8332.16
645.205	8102.79
645.398	8086.4
645.591	7932.81
645.784	8106.88
645.977	7932.81
646.17	7930.76
646.363	7857.03
646.556	7941
646.749	7758.73
646.942	7783.31
647.135	7574.41
647.328	7725.96
647.521	7541.64
647.714	7660.43
647.907	7635.85
648.099	7572.36
648.292	7531.41
648.485	7551.88
648.678	7431.05
648.871	7244.69
649.064	7377.81
649.256	7394.19
649.449	7173.01
649.642	7091.09
649.835	7269.27
650.027	7058.32
650.22	6974.36
650.413	7027.6
650.605	6978.45
650.798	6941.59
650.991	6898.58
651.183	6931.35
651.376	7000.98
651.568	6906.77
651.761	6716.31
651.954	6701.98
652.146	6644.63
652.339	6742.94
652.531	6634.39
652.724	6644.63
652.916	6519.71
653.109	6527.9
653.301	6503.32
653.494	6603.68
653.686	6296.48
653.879	6255.52
654.071	6310.82
654.263	6482.85
654.456	6278.05
654.648	6355.87
654.84	6204.32
655.033	6177.7
655.225	6122.4
655.417	6142.88
655.61	6034.34
655.802	5974.95
655.994	6116.26
656.186	6169.51
656.379	5989.28
656.571	6056.87
656.763	5888.93
656.955	5749.67
657.148	5862.31
657.34	5821.35
657.532	5716.9
657.724	5624.75
657.916	5858.21
658.108	5565.36
658.3	5704.62
658.492	5661.61
658.684	5534.64
658.876	5581.74
659.068	5569.45
659.26	5391.28
659.452	5491.63
659.644	5475.24
659.836	5430.19
660.028	5452.72
660.22	5518.25
660.412	5227.44
660.604	5465
660.796	5419.95
660.988	5362.61
661.18	5329.84
661.372	5239.73
661.563	5206.96
661.755	5094.32
661.947	5051.31
662.139	5114.8
662.331	5190.58
662.522	5028.79
662.714	5014.45
662.906	4907.96
663.097	4963.25
663.289	4783.03
663.481	4940.72
663.673	4934.58
663.864	4834.23
664.056	4770.74
664.247	4948.92
664.439	4744.12
664.631	4869.05
664.822	4699.06
665.014	4776.89
665.205	4875.19
665.397	4649.91
665.588	4697.02
665.78	4608.95
665.971	4561.85
666.163	4643.77
666.354	4678.58
666.546	4537.27
666.737	4637.63
666.929	4471.74
667.12	4551.61
667.311	4514.75
667.503	4418.49
667.694	4453.31
667.885	4524.99
668.077	4494.27
668.268	4402.11
668.459	4359.1
668.651	4369.34
668.842	4355.01
669.033	4336.57
669.224	4346.81
669.416	4291.52
669.607	4248.51
669.798	4219.84
669.989	4281.28
670.18	4068.29
670.371	4158.4
670.563	4201.41
670.754	4064.19
670.945	3994.56
671.136	3986.37
671.327	4049.86
671.518	4115.39
671.709	4058.05
671.9	3902.4
672.091	4113.35
672.282	3959.75
672.473	3972.04
672.664	4078.53
672.855	3990.47
673.046	3935.17
673.237	3900.36
673.428	3843.01
673.619	3879.88
673.809	3748.81
674	3742.66
674.191	3951.56
674.382	3675.08
674.573	3718.09
674.764	3785.67
674.954	3871.68
675.145	3779.53
675.336	3693.51
675.527	3834.82
675.717	3775.43
675.908	3716.04
676.099	3718.09
676.289	3763.14
676.48	3660.74
676.671	3677.13
676.861	3634.12
677.052	3699.66
677.243	3564.49
677.433	3748.81
677.624	3615.69
677.814	3503.05
678.005	3701.7
678.195	3591.11
678.386	3523.53
678.576	3507.15
678.767	3427.28
678.957	3621.83
679.148	3509.19
679.338	3554.25
679.529	3427.28
679.719	3384.27
679.909	3552.2
680.1	3449.8
680.29	3521.48
680.481	3529.67
680.671	3472.33
680.861	3363.79
681.052	3292.11
681.242	3425.23
681.432	3396.56
681.622	3339.21
681.813	3304.4
682.003	3449.8
682.193	3390.41
682.383	3326.93
682.573	3320.78
682.764	3331.02
682.954	3341.26
683.144	3312.59
683.334	3363.79
683.524	3281.87
683.714	3331.02
683.904	3371.98
684.094	3306.45
684.284	3306.45
684.474	3384.27
684.664	3204.05
684.854	3191.76
685.044	3218.38
685.234	3210.19
685.424	3175.38
685.614	3210.19
685.804	3316.69
685.994	3285.97
686.184	3306.45
686.374	3115.98
686.564	3158.99
686.753	3144.66
686.943	3077.07
687.133	3097.55
687.323	3085.26
687.513	3109.84
687.702	3175.38
687.892	3081.17
688.082	3075.03
688.272	3146.7
688.461	3029.97
688.651	3019.73
688.841	2952.15
689.03	2974.67
689.22	3044.31
689.41	3005.39
689.599	2999.25
689.789	2915.28
689.979	2976.72
690.168	2997.2
690.358	2806.74
690.547	2923.48
690.737	2790.36
690.926	2991.06
691.116	2884.56
691.305	2905.04
691.495	2843.6
691.684	2935.76
691.874	2769.88
692.063	2767.83
692.252	2751.45
692.442	2741.21
692.631	2782.17
692.82	2679.77
693.01	2610.14
693.199	2753.49
693.388	2728.92
693.578	2651.1
693.767	2722.77
693.956	2737.11
694.146	2620.38
694.335	2737.11
694.524	2644.95
694.713	2628.57
694.902	2739.16
695.092	2681.82
695.281	2663.38
695.47	2577.37
695.659	2606.04
695.848	2708.44
696.037	2642.9
696.226	2685.91
696.415	2614.23
696.604	2712.53
696.793	2563.03
696.982	2538.46
697.171	2673.62
697.36	2573.27
697.549	2610.14
697.738	2560.98
697.927	2587.61
698.116	2585.56
698.305	2593.75
698.494	2528.22
698.683	2681.82
698.872	2583.51
699.061	2550.75
699.25	2556.89
699.438	2542.55
699.627	2489.31
699.816	2589.66
700.005	2536.41
700.193	2440.15
700.382	2536.41
700.571	2511.83
700.76	2589.66
700.948	2591.7
701.137	2470.87
701.326	2546.65
701.514	2499.55
701.703	2560.98
701.892	2474.97
702.08	2581.46
702.269	2532.31
702.457	2573.27
702.646	2458.59
702.834	2460.63
703.023	2456.54
703.212	2458.59
703.4	2515.93
703.589	2524.12
703.777	2550.75
703.965	2436.06
704.154	2524.12
704.342	2458.59
704.531	2384.86
704.719	2517.98
704.907	2573.27
705.096	2485.21
705.284	2403.29
705.472	2509.79
705.661	2558.94
705.849	2593.75
706.037	2530.27
706.226	2563.03
706.414	2444.25
706.602	2477.02
706.79	2411.48
706.979	2397.15
707.167	2454.49
707.355	2550.75
707.543	2501.59
707.731	2423.77
707.919	2485.21
708.107	2530.27
708.296	2417.63
708.484	2563.03
708.672	2524.12
708.86	2366.43
709.048	2513.88
709.236	2466.78
709.424	2384.86
709.612	2524.12
709.8	2429.91
709.988	2343.9
710.176	2417.63
710.364	2517.98
710.551	2405.34
710.739	2540.51
710.927	2388.96
711.115	2294.75
711.303	2440.15
711.491	2345.95
711.679	2370.52
711.866	2395.1
712.054	2536.41
712.242	2405.34
712.43	2485.21
712.617	2434.01
712.805	2405.34
712.993	2438.11
713.181	2270.17
713.368	2315.23
713.556	2393.05
713.744	2399.2
713.931	2427.87
714.119	2380.76
714.306	2429.91
714.494	2409.44
714.682	2393.05
714.869	2341.85
715.057	2368.48
715.244	2352.09
715.432	2413.53
715.619	2331.61
715.807	2391
715.994	2427.87
716.182	2419.68
716.369	2331.61
716.556	2452.44
716.744	2372.57
716.931	2288.61
717.119	2477.02
717.306	2370.52
717.493	2335.71
717.681	2474.97
717.868	2380.76
718.055	2423.77
718.242	2413.53
718.43	2237.41
718.617	2352.09
718.804	2374.62
718.991	2284.51
719.179	2304.99
719.366	2354.14
719.553	2368.48
719.74	2376.67
719.927	2335.71
720.114	2341.85
720.301	2343.9
720.488	2307.04
720.676	2300.89
720.863	2331.61
721.05	2376.67
721.237	2300.89
721.424	2284.51
721.611	2274.27
721.798	2284.51
721.985	2259.93
722.172	2280.41
722.358	2331.61
722.545	2276.32
722.732	2368.48
722.919	2229.21
723.106	2307.04
723.293	2374.62
723.48	2259.93
723.667	2208.73
723.853	2200.54
724.04	2380.76
724.227	2325.47
724.414	2372.57
724.6	2368.48
724.787	2374.62
724.974	2288.61
725.161	2311.13
725.347	2298.84
725.534	2278.37
725.72	2202.59
725.907	2321.37
726.094	2323.42
726.28	2161.63
726.467	2245.6
726.653	2276.32
726.84	2255.84
727.027	2331.61
727.213	2237.41
727.4	2251.74
727.586	2126.82
727.773	2247.65
727.959	2331.61
728.145	2272.22
728.332	2309.08
728.518	2307.04
728.705	2460.63
728.891	2208.73
729.077	2235.36
729.264	2188.25
729.45	2173.92
729.636	2128.86
729.823	2259.93
730.009	2327.52
730.195	2235.36
730.382	2380.76
730.568	2192.35
730.754	2237.41
730.94	2216.93
731.126	2218.97
731.313	2223.07
731.499	2225.12
731.685	2294.75
731.871	2261.98
732.057	2182.11
732.243	2212.83
732.429	2182.11
732.615	2157.54
732.801	2313.18
732.987	2171.87
733.173	2221.02
733.359	2149.34
733.545	2315.23
733.731	2296.8
733.917	2200.54
734.103	2253.79
734.289	2311.13
734.475	2257.89
734.661	2190.3
734.847	2184.16
735.033	2212.83
735.219	2055.14
735.404	2175.97
735.59	2202.59
735.776	2280.41
735.962	2192.35
736.148	2196.45
736.333	2188.25
736.519	2231.26
736.705	2249.69
736.89	2245.6
737.076	2302.94
737.262	2003.94
737.447	2102.24
737.633	2059.23
737.819	2192.35
738.004	2278.37
738.19	2143.2
738.375	2069.47
738.561	2087.9
738.747	2122.72
738.932	2110.43
739.118	2159.58
739.303	2051.04
739.489	1989.6
739.674	2046.94
739.859	2098.14
740.045	1971.17
740.23	2155.49
740.416	1956.83
740.601	2040.8
740.786	2030.56
740.972	1985.51
741.157	1965.03
741.342	2008.03
741.528	1985.51
741.713	1985.51
741.898	1975.27
742.084	1971.17
742.269	1965.03
742.454	1942.5
742.639	2008.03
742.824	1850.34
743.01	1893.35
743.195	2069.47
743.38	1922.02
743.565	1891.3
743.75	1905.63
743.935	1909.73
744.12	1958.88
744.305	1889.25
744.49	1858.53
744.675	1860.58
744.86	1854.44
745.045	1864.68
745.23	1911.78
745.415	1768.42
745.6	1965.03
745.785	1854.44
745.97	1874.92
746.155	1844.2
746.34	1801.19
746.525	1858.53
746.71	1813.48
746.895	1733.61
747.079	1788.9
747.264	1780.71
747.449	1840.1
747.634	1790.95
747.819	1692.65
748.003	1663.97
748.188	1702.89
748.373	1711.08
748.557	1704.93
748.742	1659.88
748.927	1657.83
749.111	1692.65
749.296	1774.56
749.481	1680.36
749.665	1709.03
749.85	1571.82
750.034	1686.5
750.219	1686.5
750.404	1680.36
750.588	1569.77
750.773	1551.34
750.957	1551.34
751.141	1522.66
751.326	1629.16
751.51	1483.75
751.695	1463.27
751.879	1455.08
752.064	1559.53
752.248	1627.11
752.432	1512.42
752.617	1573.86
752.801	1475.56
752.985	1383.4
753.17	1440.75
753.354	1395.69
753.538	1373.16
753.722	1430.51
753.907	1371.12
754.091	1313.77
754.275	1397.74
754.459	1332.2
754.643	1336.3
754.828	1436.65
755.012	1338.35
755.196	1344.49
755.38	1295.34
755.564	1276.91
755.748	1238
755.932	1358.83
756.116	1364.97
756.3	1328.11
756.484	1180.65
756.668	1264.62
756.852	1203.18
757.036	1235.95
757.22	1194.99
757.404	1264.62
757.588	1231.85
757.772	1278.96
757.956	1182.7
758.14	1213.42
758.323	1182.7
758.507	1147.89
758.691	1180.65
758.875	1162.22
759.059	1160.17
759.242	1154.03
759.426	1102.83
759.61	1086.45
759.794	1147.89
759.977	1246.19
760.161	1238
760.345	1135.6
760.528	1115.12
760.712	1106.93
760.895	1061.87
761.079	1170.41
761.263	1057.78
761.446	1123.31
761.63	1098.74
761.813	1012.72
761.997	1016.82
762.18	1063.92
762.364	1031.15
762.547	973.81
762.731	1045.49
762.914	947.19
763.098	994.29
763.281	1063.92
763.464	1063.92
763.648	1018.86
763.831	938.99
764.015	1063.92
764.198	1033.2
764.381	1072.11
764.564	938.99
764.748	1051.63
764.931	1029.1
765.114	928.75
765.297	1006.58
765.481	910.32
765.664	996.34
765.847	973.81
766.03	959.47
766.213	920.56
766.397	867.31
766.58	961.52
766.763	1047.54
766.946	904.18
767.129	828.4
767.312	977.91
767.495	924.66
767.678	842.74
767.861	914.42
768.044	938.99
768.227	1012.72
768.41	875.51
768.593	945.14
768.776	863.22
768.959	783.35
769.142	840.69
769.324	803.83
769.507	873.46
769.69	861.17
769.873	830.45
770.056	863.22
770.239	959.47
770.421	824.31
770.604	824.31
770.787	893.94
770.97	846.84
771.152	863.22
771.335	748.53
771.518	834.55
771.7	816.12
771.883	834.55
772.066	826.36
772.248	840.69
772.431	881.65
772.613	785.4
772.796	715.77
772.978	754.68
773.161	820.21
773.343	840.69
773.526	668.66
773.708	746.48
773.891	656.37
774.073	742.39
774.256	797.68
774.438	732.15
774.621	701.43
774.803	836.6
774.985	699.38
775.168	754.68
775.35	730.1
775.532	824.31
775.715	726
775.897	652.28
776.079	760.82
776.261	754.68
776.444	738.29
776.626	732.15
776.808	742.39
776.99	744.44
777.173	687.09
777.355	752.63
777.537	656.37
777.719	672.76
777.901	715.77
778.083	674.81
778.265	613.37
778.447	662.52
778.629	582.65
778.811	607.22
778.993	605.17
779.175	584.7
779.357	629.75
779.539	568.31
779.721	553.98
779.903	596.98
780.085	594.93
780.267	568.31
780.449	625.65
780.631	564.22
780.812	664.57
780.994	560.12
781.176	568.31
781.358	521.21
781.54	541.69
781.721	496.63
781.903	596.98
782.085	533.5
782.267	629.75
782.448	513.02
782.63	508.92
782.812	609.27
782.993	437.24
783.175	494.58
783.357	467.96
783.538	398.33
783.72	453.63
783.901	447.48
784.083	449.53
784.264	459.77
784.446	404.47
784.627	494.58
784.809	474.1
784.99	488.44
785.172	435.19
785.353	447.48
785.535	525.3
785.716	500.73
785.897	435.19
786.079	480.25
786.26	369.66
786.441	406.52
786.623	447.48
786.804	463.86
786.985	375.8
787.167	404.47
787.348	398.33
787.529	412.67
787.71	410.62
787.891	367.61
788.073	379.9
788.254	349.18
788.435	441.34
788.616	377.85
788.797	408.57
788.978	433.15
789.159	386.04
789.34	377.85
789.522	353.27
789.703	394.23
789.884	302.08
790.065	390.14
790.246	437.24
790.427	400.38
790.607	343.03
790.788	361.47
790.969	388.09
791.15	324.6
791.331	363.51
791.512	361.47
791.693	379.9
791.874	322.56
792.054	379.9
792.235	257.02
792.416	359.42
792.597	334.84
792.778	277.5
792.958	265.21
793.139	353.27
793.32	355.32
793.5	336.89
793.681	332.79
793.862	377.85
794.042	334.84
794.223	275.45
794.404	285.69
794.584	238.59
794.765	199.68
794.945	267.26
795.126	300.03
795.306	343.03
795.487	238.59
795.667	300.03
795.848	304.12
796.028	275.45
796.209	312.32
796.389	277.5
796.57	306.17
796.75	265.21
796.93	216.06
797.111	271.36
797.291	250.88
797.471	336.89
797.652	287.74
797.832	226.3
798.012	320.51
798.192	263.16
798.373	218.11
798.553	297.98
798.733	281.6
798.913	164.86
799.093	244.73
799.274	203.77
799.454	265.21
799.634	209.92
799.814	297.98
799.994	261.12
800.174	314.36
800.354	302.08
800.534	214.01
800.714	252.92
800.894	203.77
801.074	263.16
801.254	250.88
801.434	173.05
801.614	252.92
801.794	279.55
801.974	562.17
802.154	238.59
802.334	216.06
802.514	240.64
802.693	254.97
802.873	340.99
803.053	179.2
803.233	195.58
803.413	187.39
803.592	238.59
803.772	197.63
803.952	300.03
804.131	214.01
804.311	234.49
804.491	220.16
804.67	267.26
804.85	275.45
805.03	277.5
805.209	183.29
805.389	224.25
805.568	195.58
805.748	226.3
805.928	97.28
806.107	246.78
806.287	201.72
806.466	193.53
806.646	211.96
806.825	197.63
807.004	189.44
807.184	164.86
807.363	259.07
807.543	216.06
807.722	132.09
807.901	132.09
808.081	107.52
808.26	209.92
808.439	134.14
808.619	136.19
808.798	214.01
808.977	162.81
809.156	181.25
809.336	181.25
809.515	226.3
809.694	164.86
809.873	152.57
810.052	193.53
810.231	240.64
810.411	181.25
810.59	226.3
810.769	136.19
810.948	181.25
811.127	101.37
811.306	185.34
811.485	103.42
811.664	214.01
811.843	168.96
812.022	164.86
812.201	74.75
812.38	191.49
812.559	136.19
812.737	109.57
812.916	146.43
813.095	211.96
813.274	89.09
813.453	197.63
813.632	156.67
813.811	218.11
813.989	128
814.168	148.48
814.347	128
814.526	125.95
814.704	160.77
814.883	228.35
815.062	107.52
815.24	183.29
815.419	132.09
815.598	175.1
815.776	82.94
815.955	87.04
816.133	154.62
816.312	222.2
816.49	130.05
816.669	115.71
816.847	93.18
817.026	173.05
817.204	150.53
817.383	91.13
817.561	109.57
817.74	240.64
817.918	113.66
818.097	87.04
818.275	74.75
818.453	132.09
818.632	164.86
818.81	80.89
818.988	238.59
819.167	99.33
819.345	136.19
819.523	156.67
819.701	154.62
819.879	218.11
820.058	132.09
820.236	103.42
820.414	123.9
820.592	64.51
820.77	123.9
820.948	66.56
821.127	87.04
821.305	19.46
821.483	173.05
821.661	144.38
821.839	138.24
822.017	105.47
822.195	44.03
822.373	146.43
822.551	70.65
822.729	128
822.907	70.65
823.085	164.86
823.262	21.5
823.44	93.18
823.618	152.57
823.796	99.33
823.974	117.76
824.152	31.74
824.329	58.37
824.507	89.09
824.685	132.09
824.863	152.57
825.04	78.85
825.218	142.33
825.396	62.46
825.574	121.85
825.751	123.9
825.929	144.38
826.107	80.89
826.284	113.66
826.462	105.47
826.639	91.13
826.817	123.9
826.994	72.7
827.172	37.89
827.349	68.61
827.527	95.23
827.704	158.72
827.882	35.84
828.059	99.33
828.237	56.32
828.414	199.68
828.591	17.41
828.769	146.43
828.946	121.85
829.124	121.85
829.301	74.75
829.478	93.18
829.655	87.04
829.833	91.13
830.01	76.8
830.187	93.18
830.364	48.13
830.542	44.03
830.719	62.46
830.896	117.76
831.073	138.24
831.25	138.24
831.427	107.52
831.604	136.19
831.782	123.9
831.959	140.29
832.136	33.79
832.313	132.09
832.49	119.81
832.667	62.46
832.844	37.89
833.021	130.05
833.198	27.65
833.374	13.31
833.551	27.65
833.728	56.32
833.905	89.09
834.082	3.07
834.259	78.85
834.436	193.53
834.612	41.98
834.789	44.03
834.966	62.46
835.143	74.75
835.319	-7.17
835.496	80.89
835.673	89.09
835.85	76.8
836.026	91.13
836.203	105.47
836.38	29.7
836.556	62.46
836.733	89.09
836.909	60.42
837.086	17.41
837.262	33.79
837.439	140.29
837.616	74.75
837.792	29.7
837.968	19.46
838.145	46.08
838.321	58.37
838.498	150.53
838.674	7.17
838.851	93.18
839.027	91.13
839.203	87.04
839.38	60.42
839.556	58.37
839.732	39.94
839.909	64.51
840.085	95.23
840.261	58.37
840.437	148.48
840.614	58.37
840.79	109.57
840.966	-15.36
841.142	91.13
841.318	58.37
841.494	70.65
841.671	48.13
841.847	60.42
842.023	58.37
842.199	87.04
842.375	101.37
842.551	95.23
842.727	-33.79
842.903	31.74
843.079	5.12
843.255	82.94
843.431	52.22
843.607	60.42
843.783	7.17
843.959	35.84
844.134	13.31
844.31	103.42
844.486	64.51
844.662	78.85
844.838	66.56
845.013	84.99
845.189	64.51
845.365	76.8
845.541	58.37
845.716	-11.26
845.892	60.42
846.068	76.8
846.244	70.65
846.419	41.98
846.595	35.84
846.77	58.37
846.946	9.22
847.122	35.84
847.297	23.55
847.473	113.66
847.648	37.89
847.824	-23.55
847.999	-1.02
848.175	64.51
848.35	17.41
848.526	70.65
848.701	-11.26
848.876	140.29
849.052	64.51
849.227	48.13
849.403	-1.02
849.578	64.51
849.753	9.22
849.929	117.76
850.104	5.12
850.279	78.85
850.454	25.6
850.63	25.6
850.805	33.79
850.98	-7.17
851.155	25.6
851.33	115.71
851.505	60.42
851.681	80.89
851.856	54.27
852.031	103.42
852.206	33.79
852.381	132.09
852.556	62.46
852.731	111.61
852.906	121.85
853.081	50.18
853.256	87.04
853.431	91.13
853.606	17.41
853.781	11.26
853.956	70.65
854.131	33.79
854.305	-1.02
854.48	103.42
854.655	25.6
854.83	56.32
855.005	97.28
855.18	76.8
855.354	37.89
855.529	13.31
855.704	29.7
855.879	-13.31
856.053	1.02
856.228	-23.55
856.403	-7.17
856.577	58.37
856.752	15.36
856.926	5.12
857.101	-37.89
857.276	48.13
857.45	17.41
857.625	91.13
857.799	21.5
857.974	97.28
858.148	5.12
858.323	62.46
858.497	-13.31
858.672	-31.74
858.846	-25.6
859.02	91.13
859.195	-19.46
859.369	-11.26
859.543	37.89
859.718	-17.41
859.892	41.98
860.066	66.56
860.241	-1.02
860.415	7.17
860.589	29.7
860.763	3.07
860.938	-60.42
861.112	62.46
861.286	7.17
861.46	46.08
861.634	48.13
861.808	1.02
861.982	7.17
862.157	54.27
862.331	64.51
862.505	19.46
862.679	52.22
862.853	39.94
863.027	27.65
863.201	41.98
863.375	1.02
863.549	25.6
863.722	95.23
863.896	54.27
864.07	72.7
864.244	35.84
864.418	99.33
864.592	19.46
864.766	44.03
864.939	54.27
865.113	-76.8
865.287	74.75
865.461	3.07
865.634	17.41
865.808	50.18
865.982	58.37
866.156	78.85
866.329	46.08
866.503	41.98
866.676	29.7
866.85	-3.07
867.024	44.03
867.197	58.37
867.371	-21.5
867.544	5.12
867.718	-1.02
867.891	27.65
868.065	99.33
868.238	5.12
868.412	76.8
868.585	27.65
868.759	72.7
868.932	5.12
869.105	-13.31
869.279	-76.8
869.452	33.79
869.625	33.79
869.799	-39.94
869.972	54.27
870.145	39.94
870.319	54.27
870.492	35.84
870.665	-11.26
870.838	46.08
871.011	-11.26
871.185	-11.26
871.358	1.02
871.531	64.51
871.704	21.5
871.877	-23.55
872.05	-11.26
872.223	50.18
872.396	23.55
872.569	31.74
872.742	-3.07
872.915	39.94
873.088	-17.41
873.261	60.42
873.434	-33.79
873.607	44.03
873.78	80.89
873.953	-31.74
874.126	103.42
874.299	-3.07
874.471	1.02
874.644	35.84
874.817	52.22
874.99	52.22
875.163	9.22
875.335	-15.36
875.508	21.5
875.681	52.22
875.853	48.13
876.026	-3.07
876.199	-46.08
876.371	89.09
876.544	-5.12
876.717	17.41
876.889	-7.17
877.062	17.41
877.234	46.08
877.407	62.46
877.579	-17.41
877.752	17.41
877.924	37.89
878.097	31.74
878.269	-23.55
878.442	21.5
878.614	82.94
878.786	78.85
878.959	-23.55
879.131	33.79
879.303	-17.41
879.476	-5.12
879.648	44.03
879.82	29.7
879.993	29.7
880.165	7.17
880.337	99.33
880.509	17.41
880.681	3.07
880.854	5.12
881.026	-31.74
881.198	62.46
881.37	-3.07
881.542	58.37
881.714	-15.36
881.886	62.46
882.058	1.02
882.23	76.8
882.402	9.22
882.574	15.36
882.746	-5.12
882.918	56.32
883.09	5.12
883.262	66.56
883.434	50.18
883.606	-11.26
883.778	31.74
883.95	1.02
884.122	5.12
884.293	39.94
884.465	-11.26
884.637	-37.89
884.809	11.26
884.98	25.6
885.152	54.27
885.324	-5.12
885.496	-1.02
885.667	-35.84
885.839	5.12
886.011	46.08
886.182	37.89
886.354	17.41
886.525	-17.41
886.697	-5.12
886.869	31.74
887.04	17.41
887.212	21.5
887.383	1.02
887.555	39.94
887.726	52.22
887.897	-41.98
888.069	68.61
888.24	-17.41
888.412	11.26
888.583	-3.07
888.754	17.41
888.926	-3.07
889.097	56.32
889.268	-56.32
889.44	-17.41
889.611	21.5
889.782	23.55
889.953	-11.26
890.125	103.42
890.296	-48.13
890.467	46.08
890.638	9.22
890.809	-5.12
890.98	39.94
891.151	87.04
891.323	37.89
891.494	25.6
891.665	50.18
891.836	58.37
892.007	-7.17
892.178	-48.13
892.349	-46.08
892.52	35.84
892.691	33.79
892.862	17.41
893.032	-9.22
893.203	25.6
893.374	21.5
893.545	68.61
893.716	-21.5
893.887	23.55
894.057	-7.17
894.228	-56.32
894.399	1.02
894.57	5.12
894.74	-9.22
894.911	31.74
895.082	17.41
895.253	17.41
895.423	31.74
895.594	78.85
895.764	-29.7
895.935	21.5
896.106	-13.31
896.276	29.7
896.447	35.84
896.617	62.46
896.788	58.37
896.958	-37.89
897.129	-3.07
897.299	-15.36
897.47	66.56
897.64	23.55
897.81	-41.98
897.981	78.85
898.151	-1.02
898.322	3.07
898.492	21.5
898.662	-15.36
898.832	-19.46
899.003	15.36
899.173	78.85
899.343	-23.55
899.513	15.36
