Data from USB4F104151__280__11-12-52-981.txt Node

Date: Wed Mar 12 11:12:52 EDT 2025
User: louis
Spectrometer: USB4F10415
Trigger mode: 4
Integration Time (sec): 2.000000E-2
Scans to average: 1
Electric dark correction enabled: true
Nonlinearity correction enabled: false
Boxcar width: 0
XAxis mode: Wavelengths
Number of Pixels in Spectrum: 3648
>>>>>Begin Spectral Data<<<<<
178.204	-29.01
178.424	-29.01
178.644	-29.01
178.864	-43.35
179.084	-94.55
179.304	-2.39
179.524	59.05
179.744	-0.34
179.964	-14.68
180.184	-6.49
180.404	-65.88
180.624	22.19
180.844	22.19
181.064	-106.84
181.283	18.09
181.503	57
181.723	18.09
181.943	50.86
182.163	100.01
182.383	67.24
182.602	50.86
182.822	100.01
183.042	9.9
183.262	-4.44
183.482	77.48
183.701	-26.96
183.921	42.67
184.141	-18.77
184.361	16.04
184.58	52.91
184.8	40.62
185.02	-8.53
185.239	50.86
185.459	22.19
185.679	59.05
185.898	20.14
186.118	22.19
186.338	32.43
186.557	46.76
186.777	-22.87
186.997	-49.49
187.216	71.34
187.436	75.43
187.655	50.86
187.875	79.53
188.095	52.91
188.314	46.76
188.534	34.47
188.753	48.81
188.973	-31.06
189.192	63.15
189.412	22.19
189.631	46.76
189.851	-14.68
190.07	-14.68
190.29	83.63
190.509	20.14
190.729	-12.63
190.948	32.43
191.168	161.45
191.387	34.47
191.607	-6.49
191.826	44.71
192.045	-47.44
192.265	71.34
192.484	32.43
192.704	63.15
192.923	34.47
193.142	36.52
193.362	26.28
193.581	69.29
193.8	93.87
194.02	16.04
194.239	95.91
194.458	36.52
194.678	5.8
194.897	91.82
195.116	13.99
195.335	52.91
195.555	63.15
195.774	52.91
195.993	-2.39
196.212	18.09
196.432	-18.77
196.651	-24.92
196.87	44.71
197.089	63.15
197.308	44.71
197.528	52.91
197.747	26.28
197.966	42.67
198.185	100.01
198.404	20.14
198.623	42.67
198.842	114.34
199.062	5.8
199.281	145.06
199.5	-45.4
199.719	34.47
199.938	100.01
200.157	116.39
200.376	112.3
200.595	59.05
200.814	26.28
201.033	36.52
201.252	50.86
201.471	-16.73
201.69	102.06
201.909	1.71
202.128	73.39
202.347	93.87
202.566	1.71
202.785	93.87
203.004	83.63
203.223	95.91
203.442	7.85
203.661	73.39
203.879	36.52
204.098	63.15
204.317	-18.77
204.536	85.67
204.755	128.68
204.974	3.75
205.193	18.09
205.411	114.34
205.63	97.96
205.849	61.1
206.068	108.2
206.287	57
206.505	67.24
206.724	38.57
206.943	59.05
207.162	59.05
207.381	18.09
207.599	-2.39
207.818	71.34
208.037	73.39
208.255	83.63
208.474	77.48
208.693	71.34
208.911	42.67
209.13	57
209.349	36.52
209.567	40.62
209.786	3.75
210.005	108.2
210.223	71.34
210.442	38.57
210.661	91.82
210.879	65.19
211.098	52.91
211.316	-4.44
211.535	83.63
211.753	38.57
211.972	108.2
212.191	-6.49
212.409	112.3
212.628	65.19
212.846	65.19
213.065	5.8
213.283	93.87
213.502	7.85
213.72	28.33
213.938	16.04
214.157	34.47
214.375	95.91
214.594	65.19
214.812	67.24
215.031	7.85
215.249	46.76
215.467	5.8
215.686	81.58
215.904	48.81
216.122	11.95
216.341	83.63
216.559	24.23
216.778	108.2
216.996	48.81
217.214	73.39
217.432	57
217.651	57
217.869	22.19
218.087	-6.49
218.306	42.67
218.524	126.63
218.742	44.71
218.96	9.9
219.179	34.47
219.397	3.75
219.615	83.63
219.833	-20.82
220.051	-8.53
220.27	59.05
220.488	52.91
220.706	93.87
220.924	46.76
221.142	91.82
221.36	79.53
221.578	75.43
221.796	69.29
222.015	5.8
222.233	59.05
222.451	108.2
222.669	40.62
222.887	52.91
223.105	-35.16
223.323	3.75
223.541	34.47
223.759	85.67
223.977	50.86
224.195	48.81
224.413	89.77
224.631	114.34
224.849	95.91
225.067	110.25
225.285	50.86
225.503	57
225.721	40.62
225.939	-0.34
226.157	138.92
226.375	126.63
226.592	18.09
226.81	48.81
227.028	40.62
227.246	24.23
227.464	38.57
227.682	26.28
227.9	71.34
228.117	61.1
228.335	-16.73
228.553	63.15
228.771	34.47
228.989	28.33
229.206	9.9
229.424	30.38
229.642	13.99
229.86	5.8
230.077	-10.58
230.295	22.19
230.513	7.85
230.731	57
230.948	54.95
231.166	95.91
231.384	97.96
231.601	40.62
231.819	81.58
232.037	81.58
232.254	-10.58
232.472	75.43
232.689	42.67
232.907	67.24
233.125	32.43
233.342	44.71
233.56	63.15
233.777	32.43
233.995	30.38
234.213	102.06
234.43	40.62
234.648	40.62
234.865	16.04
235.083	85.67
235.3	34.47
235.518	42.67
235.735	46.76
235.953	20.14
236.17	75.43
236.388	36.52
236.605	-92.5
236.822	89.77
237.04	26.28
237.257	40.62
237.475	50.86
237.692	100.01
237.909	67.24
238.127	22.19
238.344	57
238.562	89.77
238.779	57
238.996	18.09
239.214	22.19
239.431	63.15
239.648	13.99
239.865	87.72
240.083	26.28
240.3	42.67
240.517	59.05
240.735	38.57
240.952	9.9
241.169	9.9
241.386	16.04
241.603	44.71
241.821	-6.49
242.038	46.76
242.255	-39.25
242.472	100.01
242.689	-2.39
242.907	54.95
243.124	34.47
243.341	85.67
243.558	38.57
243.775	22.19
243.992	46.76
244.209	9.9
244.426	7.85
244.643	63.15
244.86	59.05
245.078	93.87
245.295	42.67
245.512	83.63
245.729	42.67
245.946	59.05
246.163	77.48
246.38	73.39
246.597	79.53
246.814	18.09
247.031	65.19
247.248	59.05
247.464	52.91
247.681	75.43
247.898	42.67
248.115	97.96
248.332	11.95
248.549	54.95
248.766	46.76
248.983	106.15
249.2	52.91
249.417	114.34
249.633	42.67
249.85	77.48
250.067	46.76
250.284	42.67
250.501	83.63
250.717	52.91
250.934	-6.49
251.151	28.33
251.368	67.24
251.585	95.91
251.801	32.43
252.018	48.81
252.235	110.25
252.451	24.23
252.668	59.05
252.885	126.63
253.102	108.2
253.318	79.53
253.535	67.24
253.752	120.49
253.968	9.9
254.185	28.33
254.401	83.63
254.618	59.05
254.835	61.1
255.051	61.1
255.268	85.67
255.484	108.2
255.701	59.05
255.917	52.91
256.134	28.33
256.351	38.57
256.567	59.05
256.784	40.62
257	42.67
257.217	83.63
257.433	16.04
257.65	22.19
257.866	104.11
258.082	50.86
258.299	28.33
258.515	106.15
258.732	91.82
258.948	34.47
259.165	-29.01
259.381	97.96
259.597	42.67
259.814	30.38
260.03	73.39
260.246	63.15
260.463	5.8
260.679	20.14
260.895	38.57
261.112	-20.82
261.328	75.43
261.544	100.01
261.761	42.67
261.977	44.71
262.193	65.19
262.409	22.19
262.626	151.21
262.842	22.19
263.058	36.52
263.274	110.25
263.49	63.15
263.707	40.62
263.923	83.63
264.139	-6.49
264.355	32.43
264.571	106.15
264.787	22.19
265.004	126.63
265.22	26.28
265.436	28.33
265.652	63.15
265.868	34.47
266.084	-0.34
266.3	69.29
266.516	81.58
266.732	75.43
266.948	28.33
267.164	7.85
267.38	48.81
267.596	95.91
267.812	30.38
268.028	34.47
268.244	54.95
268.46	18.09
268.676	140.97
268.892	73.39
269.108	46.76
269.324	59.05
269.54	89.77
269.756	81.58
269.972	13.99
270.188	-2.39
270.403	26.28
270.619	26.28
270.835	1.71
271.051	63.15
271.267	11.95
271.483	50.86
271.698	34.47
271.914	54.95
272.13	75.43
272.346	34.47
272.562	-39.25
272.777	85.67
272.993	26.28
273.209	54.95
273.425	50.86
273.64	91.82
273.856	30.38
274.072	63.15
274.287	-22.87
274.503	79.53
274.719	63.15
274.934	-2.39
275.15	50.86
275.366	93.87
275.581	50.86
275.797	104.11
276.012	-2.39
276.228	38.57
276.444	81.58
276.659	87.72
276.875	67.24
277.09	20.14
277.306	-4.44
277.521	46.76
277.737	46.76
277.952	100.01
278.168	-16.73
278.383	116.39
278.599	-39.25
278.814	36.52
279.03	13.99
279.245	67.24
279.461	54.95
279.676	77.48
279.892	22.19
280.107	-22.87
280.322	18.09
280.538	83.63
280.753	63.15
280.969	95.91
281.184	50.86
281.399	95.91
281.615	73.39
281.83	18.09
282.045	5.8
282.26	89.77
282.476	75.43
282.691	122.54
282.906	5.8
283.122	5.8
283.337	54.95
283.552	16.04
283.767	22.19
283.983	63.15
284.198	-39.25
284.413	124.58
284.628	44.71
284.843	52.91
285.058	124.58
285.274	48.81
285.489	57
285.704	52.91
285.919	-22.87
286.134	83.63
286.349	69.29
286.564	-8.53
286.779	147.11
286.995	-14.68
287.21	18.09
287.425	134.82
287.64	26.28
287.855	110.25
288.07	5.8
288.285	71.34
288.5	87.72
288.715	65.19
288.93	1.71
289.145	120.49
289.36	54.95
289.575	30.38
289.79	59.05
290.004	7.85
290.219	75.43
290.434	48.81
290.649	30.38
290.864	36.52
291.079	50.86
291.294	50.86
291.509	52.91
291.724	46.76
291.938	89.77
292.153	57
292.368	69.29
292.583	95.91
292.798	24.23
293.012	38.57
293.227	85.67
293.442	30.38
293.657	85.67
293.871	81.58
294.086	44.71
294.301	71.34
294.516	61.1
294.73	-8.53
294.945	63.15
295.16	32.43
295.374	93.87
295.589	71.34
295.804	36.52
296.018	50.86
296.233	52.91
296.447	52.91
296.662	50.86
296.877	122.54
297.091	54.95
297.306	44.71
297.52	-37.2
297.735	106.15
297.949	18.09
298.164	79.53
298.378	34.47
298.593	73.39
298.807	52.91
299.022	48.81
299.236	46.76
299.451	143.02
299.665	46.76
299.88	69.29
300.094	9.9
300.309	46.76
300.523	95.91
300.737	7.85
300.952	32.43
301.166	163.5
301.381	42.67
301.595	46.76
301.809	11.95
302.024	59.05
302.238	65.19
302.452	108.2
302.667	3.75
302.881	52.91
303.095	67.24
303.309	38.57
303.524	97.96
303.738	24.23
303.952	54.95
304.166	79.53
304.381	69.29
304.595	112.3
304.809	-8.53
305.023	-55.64
305.237	71.34
305.452	26.28
305.666	69.29
305.88	97.96
306.094	128.68
306.308	40.62
306.522	75.43
306.736	73.39
306.95	81.58
307.164	89.77
307.379	30.38
307.593	24.23
307.807	75.43
308.021	83.63
308.235	75.43
308.449	20.14
308.663	1.71
308.877	77.48
309.091	42.67
309.305	46.76
309.519	44.71
309.733	87.72
309.947	11.95
310.161	85.67
310.374	69.29
310.588	32.43
310.802	24.23
311.016	26.28
311.23	63.15
311.444	91.82
311.658	63.15
311.872	57
312.085	30.38
312.299	57
312.513	140.97
312.727	30.38
312.941	50.86
313.154	50.86
313.368	69.29
313.582	54.95
313.796	22.19
314.009	26.28
314.223	97.96
314.437	-10.58
314.651	28.33
314.864	-14.68
315.078	65.19
315.292	24.23
315.505	71.34
315.719	89.77
315.933	73.39
316.146	-6.49
316.36	13.99
316.573	71.34
316.787	69.29
317.001	38.57
317.214	9.9
317.428	67.24
317.641	50.86
317.855	67.24
318.068	13.99
318.282	85.67
318.495	75.43
318.709	104.11
318.922	71.34
319.136	102.06
319.349	69.29
319.563	42.67
319.776	54.95
319.99	52.91
320.203	89.77
320.417	132.78
320.63	34.47
320.843	34.47
321.057	16.04
321.27	87.72
321.483	130.73
321.697	93.87
321.91	9.9
322.124	50.86
322.337	100.01
322.55	104.11
322.763	40.62
322.977	126.63
323.19	-18.77
323.403	83.63
323.617	100.01
323.83	73.39
324.043	34.47
324.256	128.68
324.469	-2.39
324.683	132.78
324.896	42.67
325.109	20.14
325.322	44.71
325.535	118.44
325.748	52.91
325.962	145.06
326.175	128.68
326.388	128.68
326.601	9.9
326.814	57
327.027	54.95
327.24	63.15
327.453	30.38
327.666	93.87
327.879	42.67
328.092	52.91
328.305	59.05
328.518	122.54
328.731	65.19
328.944	5.8
329.157	13.99
329.37	-41.3
329.583	114.34
329.796	102.06
330.009	69.29
330.222	85.67
330.435	38.57
330.648	24.23
330.861	69.29
331.073	40.62
331.286	46.76
331.499	24.23
331.712	13.99
331.925	48.81
332.138	50.86
332.35	52.91
332.563	18.09
332.776	36.52
332.989	9.9
333.202	24.23
333.414	50.86
333.627	54.95
333.84	24.23
334.053	34.47
334.265	24.23
334.478	7.85
334.691	28.33
334.903	61.1
335.116	97.96
335.329	34.47
335.541	50.86
335.754	65.19
335.966	32.43
336.179	85.67
336.392	50.86
336.604	-26.96
336.817	79.53
337.029	118.44
337.242	5.8
337.454	95.91
337.667	59.05
337.88	93.87
338.092	63.15
338.305	87.72
338.517	-0.34
338.729	91.82
338.942	81.58
339.154	9.9
339.367	18.09
339.579	11.95
339.792	73.39
340.004	85.67
340.217	32.43
340.429	122.54
340.641	83.63
340.854	140.97
341.066	48.81
341.278	30.38
341.491	116.39
341.703	54.95
341.915	71.34
342.128	22.19
342.34	63.15
342.552	18.09
342.764	22.19
342.977	40.62
343.189	140.97
343.401	40.62
343.613	-55.64
343.826	44.71
344.038	42.67
344.25	87.72
344.462	-0.34
344.674	57
344.886	75.43
345.099	77.48
345.311	57
345.523	63.15
345.735	38.57
345.947	26.28
346.159	63.15
346.371	34.47
346.583	-20.82
346.795	59.05
347.007	108.2
347.219	75.43
347.431	42.67
347.643	89.77
347.855	26.28
348.067	46.76
348.279	32.43
348.491	46.76
348.703	79.53
348.915	46.76
349.127	24.23
349.339	52.91
349.551	20.14
349.763	77.48
349.975	52.91
350.187	26.28
350.399	32.43
350.61	83.63
350.822	16.04
351.034	91.82
351.246	16.04
351.458	106.15
351.669	79.53
351.881	85.67
352.093	-12.63
352.305	75.43
352.517	73.39
352.728	140.97
352.94	108.2
353.152	67.24
353.363	50.86
353.575	75.43
353.787	112.3
353.999	81.58
354.21	73.39
354.422	-61.78
354.633	67.24
354.845	97.96
355.057	50.86
355.268	32.43
355.48	163.5
355.692	50.86
355.903	71.34
356.115	46.76
356.326	42.67
356.538	44.71
356.749	73.39
356.961	122.54
357.172	32.43
357.384	65.19
357.595	79.53
357.807	87.72
358.018	-6.49
358.23	65.19
358.441	85.67
358.653	16.04
358.864	87.72
359.075	-20.82
359.287	126.63
359.498	85.67
359.709	48.81
359.921	97.96
360.132	91.82
360.344	44.71
360.555	18.09
360.766	-0.34
360.977	-8.53
361.189	130.73
361.4	104.11
361.611	145.06
361.823	63.15
362.034	87.72
362.245	26.28
362.456	46.76
362.667	79.53
362.879	149.16
363.09	95.91
363.301	18.09
363.512	48.81
363.723	34.47
363.935	16.04
364.146	147.11
364.357	112.3
364.568	118.44
364.779	-18.77
364.99	104.11
365.201	140.97
365.412	46.76
365.623	-12.63
365.834	120.49
366.045	59.05
366.256	100.01
366.467	87.72
366.678	-14.68
366.889	116.39
367.1	59.05
367.311	89.77
367.522	97.96
367.733	16.04
367.944	140.97
368.155	91.82
368.366	136.87
368.577	97.96
368.788	145.06
368.999	54.95
369.209	140.97
369.42	116.39
369.631	122.54
369.842	46.76
370.053	50.86
370.264	110.25
370.474	59.05
370.685	13.99
370.896	67.24
371.107	130.73
371.317	112.3
371.528	61.1
371.739	38.57
371.95	83.63
372.16	120.49
372.371	28.33
372.582	75.43
372.792	24.23
373.003	44.71
373.214	40.62
373.424	75.43
373.635	65.19
373.846	116.39
374.056	104.11
374.267	108.2
374.477	161.45
374.688	73.39
374.898	67.24
375.109	97.96
375.319	61.1
375.53	93.87
375.74	140.97
375.951	50.86
376.161	91.82
376.372	97.96
376.582	36.52
376.793	122.54
377.003	112.3
377.214	79.53
377.424	118.44
377.635	46.76
377.845	87.72
378.055	63.15
378.266	59.05
378.476	85.67
378.686	140.97
378.897	85.67
379.107	79.53
379.317	171.69
379.528	44.71
379.738	63.15
379.948	59.05
380.158	87.72
380.369	26.28
380.579	34.47
380.789	67.24
380.999	24.23
381.21	7.85
381.42	134.82
381.63	44.71
381.84	3.75
382.05	75.43
382.261	116.39
382.471	67.24
382.681	116.39
382.891	89.77
383.101	65.19
383.311	38.57
383.521	-2.39
383.731	32.43
383.941	122.54
384.151	42.67
384.361	91.82
384.571	77.48
384.781	75.43
384.991	93.87
385.201	97.96
385.411	155.3
385.621	59.05
385.831	69.29
386.041	52.91
386.251	79.53
386.461	42.67
386.671	38.57
386.881	67.24
387.091	46.76
387.301	136.87
387.511	54.95
387.72	36.52
387.93	22.19
388.14	1.71
388.35	71.34
388.56	36.52
388.769	13.99
388.979	42.67
389.189	93.87
389.399	147.11
389.609	155.3
389.818	54.95
390.028	54.95
390.238	77.48
390.447	108.2
390.657	116.39
390.867	26.28
391.076	95.91
391.286	95.91
391.496	165.54
391.705	85.67
391.915	149.16
392.125	110.25
392.334	89.77
392.544	100.01
392.753	104.11
392.963	110.25
393.172	73.39
393.382	52.91
393.591	73.39
393.801	57
394.01	102.06
394.22	130.73
394.429	26.28
394.639	108.2
394.848	65.19
395.058	128.68
395.267	52.91
395.477	116.39
395.686	91.82
395.895	112.3
396.105	149.16
396.314	97.96
396.524	81.58
396.733	77.48
396.942	181.93
397.152	79.53
397.361	214.7
397.57	186.02
397.78	155.3
397.989	143.02
398.198	224.94
398.407	112.3
398.617	69.29
398.826	75.43
399.035	108.2
399.244	151.21
399.453	106.15
399.663	208.55
399.872	124.58
400.081	91.82
400.29	132.78
400.499	85.67
400.708	79.53
400.917	186.02
401.127	124.58
401.336	106.15
401.545	130.73
401.754	163.5
401.963	149.16
402.172	153.26
402.381	114.34
402.59	143.02
402.799	206.5
403.008	57
403.217	157.35
403.426	73.39
403.635	118.44
403.844	202.41
404.053	118.44
404.262	147.11
404.471	173.74
404.68	220.84
404.888	237.22
405.097	102.06
405.306	190.12
405.515	212.65
405.724	198.31
405.933	208.55
406.142	226.98
406.35	224.94
406.559	216.74
406.768	157.35
406.977	206.5
407.185	241.32
407.394	249.51
407.603	216.74
407.812	274.09
408.02	317.09
408.229	300.71
408.438	306.85
408.646	265.89
408.855	235.18
409.064	247.46
409.272	220.84
409.481	284.33
409.69	292.52
409.898	313
410.107	345.77
410.315	323.24
410.524	341.67
410.733	403.11
410.941	329.38
411.15	380.58
411.358	427.68
411.567	556.71
411.775	362.15
411.984	427.68
412.192	472.74
412.401	452.26
412.609	507.55
412.818	564.9
413.026	515.75
413.234	583.33
413.443	548.51
413.651	618.15
413.86	687.78
414.068	638.62
414.276	659.1
414.485	636.58
414.693	702.11
414.901	728.74
415.11	771.74
415.318	790.17
415.526	824.99
415.734	833.18
415.943	804.51
416.151	865.95
416.359	937.63
416.567	1001.12
416.776	970.4
416.984	935.58
417.192	1060.51
417.4	1019.55
417.608	1046.17
417.817	1093.27
418.025	1222.3
418.233	1226.39
418.441	1189.53
418.649	1212.06
418.857	1375.89
419.065	1375.89
419.273	1334.93
419.481	1361.56
419.689	1537.68
419.897	1599.12
420.105	1552.02
420.313	1619.6
420.521	1640.08
420.729	1744.53
420.937	1662.61
421.145	1863.31
421.353	1900.17
421.561	2021
421.769	1963.66
421.977	2223.75
422.185	2078.35
422.393	2346.63
422.601	2350.73
422.809	2391.69
423.017	2385.54
423.224	2465.41
423.432	2645.63
423.64	2467.46
423.848	2774.66
424.056	2707.07
424.263	3030.65
424.471	2858.62
424.679	3022.46
424.887	3176.06
425.094	3264.12
425.302	3434.1
425.51	3503.73
425.718	3643
425.925	3509.88
426.133	3620.47
426.341	3858.03
426.548	4101.74
426.756	4050.54
426.964	4136.56
427.171	4376.17
427.379	4490.85
427.586	4568.68
427.794	4722.27
428.001	4816.48
428.209	5064.29
428.417	4908.64
428.624	5357.14
428.832	5379.67
429.039	5379.67
429.247	5543.51
429.454	5996.11
429.662	6153.8
429.869	5906
430.076	6112.85
430.284	6137.42
430.491	6256.2
430.699	6809.15
430.906	6749.76
431.114	6719.04
431.321	6956.61
431.528	7171.65
431.736	7564.86
431.943	8037.94
432.15	7833.14
432.358	7935.54
432.565	8425
432.772	8308.27
432.979	8738.34
433.187	8908.32
433.394	8826.4
433.601	9629.21
433.808	9405.98
434.016	9424.41
434.223	10003.99
434.43	10817.03
434.637	10313.23
434.844	10769.93
435.052	11101.7
435.259	10860.04
435.466	11118.08
435.673	10831.37
435.88	11621.88
436.087	12428.78
436.294	12332.53
436.501	12017.14
436.708	12203.5
436.915	12785.13
437.122	13231.58
437.329	13213.15
437.537	13723.1
437.743	13936.09
437.95	13800.92
438.157	14495.18
438.364	14874.06
438.571	14847.43
438.778	14964.17
438.985	16346.55
439.192	15672.76
439.399	16309.68
439.606	15836.6
439.813	16706.99
440.02	17946.01
440.227	17462.69
440.433	17313.19
440.64	18001.3
440.847	17679.77
441.054	18316.69
441.261	19338.63
441.467	18996.62
441.674	19674.49
441.881	20268.41
442.088	20329.84
442.294	19703.17
442.501	20415.86
442.708	20823.4
442.914	21955.93
443.121	22349.14
443.328	22357.33
443.534	23573.83
443.741	22846.8
443.948	22486.36
444.154	24706.35
444.361	24261.94
444.568	24251.7
444.774	24573.24
444.981	24583.48
445.187	25054.51
445.394	26518.81
445.6	26090.78
445.807	28720.37
446.013	27421.96
446.22	27874.56
446.426	29234.41
446.633	29469.93
446.839	29953.25
447.046	28767.48
447.252	30399.71
447.459	30237.92
447.665	30401.75
447.871	31855.81
448.078	33078.45
448.284	31196.37
448.491	32226.49
448.697	33920.17
448.903	33893.54
449.11	34075.81
449.316	33926.31
449.522	34376.86
449.728	35069.08
449.935	35269.78
450.141	35396.75
450.347	36017.29
450.553	34870.42
450.76	35374.22
450.966	36502.65
451.172	36306.05
451.378	36772.99
451.584	36037.76
451.791	37229.68
451.997	37407.86
452.203	37573.74
452.409	37545.07
452.615	37678.19
452.821	36074.63
453.027	35642.51
453.233	37526.64
453.44	35918.98
453.646	36623.48
453.852	36596.86
454.058	37477.49
454.264	36013.19
454.47	36666.49
454.676	36129.92
454.882	37110.9
455.088	33541.29
455.294	34569.37
455.5	34765.98
455.705	34899.09
455.911	33500.33
456.117	33125.55
456.323	32877.75
456.529	31024.34
456.735	32359.61
456.941	31268.05
457.147	31026.39
457.352	30225.63
457.558	29715.69
457.764	29596.9
457.97	29338.86
458.176	28458.23
458.381	28634.36
458.587	27297.03
458.793	27200.78
458.999	25830.69
459.204	27460.87
459.41	26922.26
459.616	25070.89
459.821	24929.58
460.027	24943.92
460.233	24194.36
460.438	23317.83
460.644	23600.45
460.85	22539.6
461.055	22275.41
461.261	22060.38
461.466	20311.41
461.672	19934.59
461.878	21013.87
462.083	20028.79
462.289	19735.93
462.494	19512.7
462.7	18517.39
462.905	18144.66
463.111	18501.01
463.316	18746.76
463.522	18337.17
463.727	18267.54
463.932	18128.28
464.138	18279.83
464.343	18038.17
464.549	17393.06
464.754	18388.37
464.959	18214.29
465.165	17718.68
465.37	17092.01
465.575	16514.48
465.781	17366.43
465.986	17532.32
466.191	16815.53
466.397	16653.74
466.602	15932.86
466.807	16371.12
467.012	16588.21
467.218	16231.86
467.423	16014.77
467.628	16061.88
467.833	16661.93
468.038	16375.22
468.244	15875.51
468.449	16553.39
468.654	15642.04
468.859	15699.39
469.064	15564.22
469.269	15009.22
469.474	15201.73
469.679	15293.89
469.885	15089.09
470.09	15381.95
470.295	15175.11
470.5	14861.77
470.705	14945.73
470.91	14603.72
471.115	14331.34
471.32	14501.33
471.525	14439.89
471.73	14263.76
471.935	14040.53
472.139	13618.65
472.344	13737.43
472.549	13852.12
472.754	13577.69
472.959	13372.89
473.164	13159.91
473.369	12631.53
473.574	13202.91
473.778	13178.34
473.983	12846.57
474.188	12865
474.393	12404.21
474.598	12369.39
474.802	12213.74
475.007	12232.18
475.212	12113.39
475.417	12074.48
475.621	11814.39
475.826	11916.79
476.031	11742.71
476.235	11482.62
476.44	11701.75
476.645	11316.73
476.849	11460.09
477.054	11161.09
477.259	11083.27
477.463	11286.01
477.668	10995.2
477.872	10939.91
478.077	10849.8
478.282	10722.82
478.486	10403.34
478.691	10520.07
478.895	10280.46
479.1	10425.87
479.304	10450.44
479.509	9950.74
479.713	10247.69
479.918	9870.87
480.122	9764.37
480.326	10028.56
480.531	10051.09
480.735	9907.73
480.94	9856.53
481.144	9979.41
481.348	9694.74
481.553	9784.85
481.757	9362.97
481.961	9670.17
482.166	9862.68
482.37	9625.11
482.574	9461.27
482.778	9569.82
482.983	9565.72
483.187	9635.35
483.391	9588.25
483.595	9506.33
483.8	9420.31
484.004	9707.03
484.208	9582.1
484.412	9365.02
484.616	9565.72
484.821	9733.65
485.025	9524.76
485.229	9739.8
485.433	9379.36
485.637	9477.66
485.841	9252.38
486.045	9537.05
486.249	9590.3
486.453	9653.78
486.657	9541.15
486.861	9633.3
487.065	9246.24
487.269	9535
487.473	9311.77
487.677	9555.48
487.881	9696.79
488.085	9498.14
488.289	9440.79
488.493	9588.25
488.697	9795.09
488.901	9537.05
489.105	9625.11
489.309	9537.05
489.512	9727.51
489.716	9758.23
489.92	9788.95
490.124	9516.57
490.328	9610.78
490.531	9618.97
490.735	9700.89
490.939	9862.68
491.143	9637.4
491.346	9799.19
491.55	9909.78
491.754	9971.22
491.958	9881.11
492.161	10098.19
492.365	10061.33
492.569	9850.39
492.772	10032.66
492.976	10233.36
493.18	10034.71
493.383	10499.59
493.587	10274.32
493.79	10499.59
493.994	10239.5
494.197	10384.91
494.401	10354.19
494.605	10597.9
494.808	10751.49
495.012	10833.41
495.215	10876.42
495.419	10794.5
495.622	10911.24
495.825	10976.77
496.029	11042.31
496.232	11222.53
496.436	11216.38
496.639	11570.68
496.843	11263.49
497.046	11568.63
497.249	11724.28
497.453	12058.1
497.656	11972.08
497.859	11941.36
498.063	12320.24
498.266	12297.71
498.469	12469.74
498.673	12373.49
498.876	12504.56
499.079	12770.79
499.282	12764.65
499.485	13331.94
499.689	13092.32
499.892	13276.64
500.095	13477.34
500.298	13833.69
500.501	13620.7
500.705	13858.26
500.908	14087.64
501.111	14286.29
501.314	14274
501.517	14417.36
501.72	14890.44
501.923	14800.33
502.126	14972.36
502.329	15252.93
502.532	15238.59
502.735	15328.7
502.938	15556.03
503.141	15803.83
503.344	16065.97
503.547	16014.77
503.75	16162.23
503.953	16473.52
504.156	16582.06
504.359	16500.14
504.562	16780.71
504.765	17327.52
504.968	17098.15
505.17	17429.92
505.373	17407.39
505.576	17724.83
505.779	18163.09
505.982	18001.3
506.185	18714
506.387	18824.59
506.59	18679.18
506.793	19205.51
506.996	19158.41
507.198	19588.48
507.401	19369.35
507.604	19537.28
507.807	20186.49
508.009	20260.21
508.212	20221.3
508.415	20669.81
508.617	20544.88
508.82	20716.91
509.022	20987.24
509.225	20979.05
509.428	21224.81
509.63	21615.97
509.833	21759.33
510.035	22078.81
510.238	22080.86
510.44	22359.38
510.643	22965.58
510.845	23020.88
511.048	22975.82
511.25	23237.96
511.453	23555.4
511.655	23981.37
511.858	23926.08
512.06	23887.17
512.262	24362.29
512.465	24382.77
512.667	24589.62
512.87	25128.24
513.072	25398.57
513.274	25470.25
513.477	25576.74
513.679	25910.56
513.881	26191.13
514.084	26793.23
514.286	26453.27
514.488	26799.38
514.69	27573.51
514.893	27417.86
515.095	27350.28
515.297	27903.23
515.499	27890.95
515.701	28183.8
515.904	28615.93
516.106	28685.56
516.308	29117.68
516.51	29654.25
516.712	29336.81
516.914	29797.6
517.116	29822.18
517.318	30108.9
517.52	30207.2
517.722	30375.13
517.925	30776.53
518.127	31218.89
518.329	31675.59
518.531	31198.41
518.733	32048.32
518.935	32265.41
519.136	32451.77
519.338	32763.06
519.54	32914.61
519.742	32853.17
519.944	32945.33
520.146	33475.76
520.348	33584.3
520.55	34294.94
520.752	34290.85
520.954	34661.53
521.155	34682.01
521.357	35015.83
521.559	35546.25
521.761	35400.85
521.963	35654.79
522.164	35736.71
522.366	35824.78
522.568	36293.76
522.77	36273.28
522.971	37039.22
523.173	36476.03
523.375	36826.23
523.576	37024.89
523.778	37540.97
523.98	37342.32
524.181	37520.49
524.383	37940.33
524.584	38225
524.786	38001.77
524.988	38347.87
525.189	38622.3
525.391	38706.27
525.592	39001.18
525.794	38833.24
525.995	39042.13
526.197	39081.05
526.398	39304.27
526.6	39717.96
526.801	39951.43
527.003	39785.55
527.204	39709.77
527.406	40420.42
527.607	40008.78
527.808	40688.7
528.01	39928.91
528.211	40422.47
528.412	41153.59
528.614	40875.07
528.815	40995.9
529.016	41385.01
529.218	40959.03
529.419	40895.55
529.62	41045.05
529.822	41184.31
530.023	41028.66
530.224	41399.35
530.425	41167.93
530.626	41348.15
530.828	40977.47
531.029	42023.98
531.23	41569.33
531.431	41081.91
531.632	41636.91
531.833	41835.56
532.035	41522.23
532.236	41911.34
532.437	41874.48
532.638	41655.34
532.839	42044.46
533.04	42345.51
533.241	41692.21
533.442	42509.35
533.643	41890.86
533.844	42056.74
534.045	42224.68
534.246	41841.71
534.447	42179.62
534.648	41856.04
534.849	42013.74
535.05	41933.87
535.251	42337.32
535.451	41858.09
535.652	42196.01
535.853	42236.97
536.054	42390.56
536.255	42081.32
536.456	42028.07
536.657	42552.35
536.857	42095.66
537.058	41980.97
537.259	42331.17
537.46	42241.06
537.66	42079.27
537.861	42396.71
538.062	42282.02
538.263	42329.12
538.463	41757.74
538.664	42318.88
538.865	41995.31
539.065	42337.32
539.266	42085.42
539.466	42365.99
539.667	41591.86
539.868	42667.04
540.068	42421.28
540.269	42089.51
540.469	42544.16
540.67	41673.77
540.87	42013.74
541.071	42218.53
541.271	42224.68
541.472	42185.77
541.672	41860.14
541.873	41643.06
542.073	41544.75
542.274	42185.77
542.474	41933.87
542.675	41708.59
542.875	42488.87
543.075	42486.82
543.276	41727.02
543.476	42435.62
543.676	41753.65
543.877	42236.97
544.077	41917.48
544.277	42134.57
544.478	42294.31
544.678	42071.08
544.878	41655.34
545.078	41874.48
545.279	41849.9
545.479	41600.05
545.679	41770.03
545.879	42236.97
546.079	41712.69
546.28	41983.02
546.48	41520.18
546.68	41847.85
546.88	41446.45
547.08	42443.81
547.28	42023.98
547.48	41679.92
547.68	41823.28
547.88	41200.69
548.081	41935.91
548.281	41854
548.481	41714.73
548.681	41854
548.881	41645.1
549.081	42169.38
549.28	41548.85
549.48	41618.48
549.68	41655.34
549.88	42279.97
550.08	41491.51
550.28	41757.74
550.48	41821.23
550.68	42175.53
550.88	41366.58
551.08	41167.93
551.279	41587.76
551.479	41204.79
551.679	41647.15
551.879	41532.46
552.079	41618.48
552.278	41225.27
552.478	41450.55
552.678	41749.55
552.878	41743.41
553.077	41661.49
553.277	41143.35
553.477	41477.17
553.676	41739.31
553.876	41299
554.076	41335.86
554.275	40797.24
554.475	40768.57
554.674	41342
554.874	41045.05
555.074	41098.3
555.273	41307.19
555.473	41210.93
555.672	40672.32
555.872	41370.68
556.071	41159.73
556.271	41311.28
556.47	41086.01
556.67	40887.35
556.869	41026.62
557.068	40913.98
557.268	40397.89
557.467	41057.34
557.667	40920.12
557.866	40752.19
558.065	40428.61
558.265	40377.41
558.464	40406.08
558.663	40825.92
558.863	40313.92
559.062	41065.53
559.261	40164.42
559.461	40950.84
559.66	40043.59
559.859	40547.39
560.058	40041.54
560.258	40313.92
560.457	39515.22
560.656	40463.43
560.855	40148.04
561.054	40303.68
561.253	39603.28
561.453	39767.12
561.652	40070.22
561.851	39914.57
562.05	39978.06
562.249	39279.7
562.448	39638.09
562.647	39586.89
562.846	39482.45
563.045	39664.72
563.244	39162.97
563.443	39545.94
563.642	38810.71
563.841	39349.33
564.04	38997.08
564.239	39646.29
564.438	38833.24
564.637	39072.85
564.836	39152.73
565.035	38708.32
565.234	38743.13
565.432	38577.25
565.631	38728.8
565.83	38837.34
566.029	38634.59
566.228	38573.15
566.427	38413.41
566.625	38243.43
566.824	37932.14
567.023	39097.43
567.222	37514.35
567.42	38284.39
567.619	38077.54
567.818	38014.05
568.016	37966.95
568.215	38440.03
568.414	37817.45
568.612	38128.74
568.811	37819.5
569.01	38024.29
569.208	37684.33
569.407	38165.6
569.605	36983.93
569.804	37530.73
570.002	37268.59
570.201	37510.25
570.4	37092.47
570.598	36707.45
570.797	37205.11
570.995	37084.28
571.193	36506.75
571.392	36832.38
571.59	36506.75
571.789	36924.54
571.987	36519.04
572.186	36873.34
572.384	36392.06
572.582	36514.94
572.781	36482.17
572.979	35914.89
573.177	36467.84
573.376	36404.35
573.574	35722.38
573.772	36226.18
573.971	35902.6
574.169	35972.23
574.367	35474.57
574.565	36029.57
574.763	35679.37
574.962	35708.04
575.16	35341.46
575.358	35384.46
575.556	35169.43
575.754	35224.72
575.952	34847.89
576.151	35060.88
576.349	34663.58
576.547	34835.61
576.745	34970.77
576.943	35173.52
577.141	34589.85
577.339	34731.16
577.537	34395.29
577.735	34460.83
577.933	34268.32
578.131	34387.1
578.329	34253.98
578.527	33995.94
578.725	34077.86
578.923	34184.35
579.121	34114.72
579.319	33875.11
579.516	34100.39
579.714	33647.79
579.912	33764.52
580.11	33354.93
580.308	33791.14
580.506	34049.19
580.704	32898.23
580.901	33354.93
581.099	33150.13
581.297	33060.02
581.495	33047.73
581.692	33248.43
581.89	32799.93
582.088	33248.43
582.285	32599.23
582.483	33150.13
582.681	33006.77
582.878	32427.2
583.076	32099.52
583.274	32576.7
583.471	32269.5
583.669	32136.38
583.866	32117.95
584.064	32169.15
584.262	32255.17
584.459	31997.12
584.657	31665.35
584.854	32015.55
585.052	31669.45
585.249	31868.1
585.447	31581.38
585.644	31196.37
585.841	31544.52
586.039	31694.02
586.236	31182.03
586.434	31194.32
586.631	30954.71
586.828	30909.65
587.026	31153.36
587.223	30831.83
587.42	31071.44
587.618	31020.24
587.815	30700.76
588.012	30653.65
588.21	30502.11
588.407	30731.48
588.604	30147.81
588.801	30137.57
588.999	30129.37
589.196	29936.87
589.393	30242.01
589.59	29865.19
589.787	29955.3
589.984	29975.78
590.182	29248.75
590.379	29897.95
590.576	29621.48
590.773	29533.42
590.97	29459.69
591.167	29551.85
591.364	29273.32
591.561	29152.49
591.758	28558.58
591.955	29021.42
592.152	28931.31
592.349	28792.05
592.546	28689.65
592.743	28699.89
592.94	28398.84
593.137	28329.21
593.334	28650.74
593.531	28493.05
593.727	28456.18
593.924	28568.82
594.121	27675.91
594.318	28470.52
594.515	27587.85
594.712	28159.23
594.908	27712.77
595.105	27944.19
595.302	27745.54
595.499	28065.02
595.696	27532.55
595.892	27555.08
596.089	27350.28
596.286	27337.99
596.482	27743.49
596.679	27403.53
596.876	27325.71
597.072	27088.14
597.269	26965.26
597.466	26787.09
597.662	26735.89
597.859	26758.42
598.055	26866.96
598.252	26826
598.448	26658.07
598.645	26506.52
598.841	26205.47
599.038	26447.13
599.234	26430.74
599.431	26012.96
599.627	26023.2
599.824	26176.8
600.02	26047.77
600.217	26062.11
600.413	25722.15
600.609	25713.95
600.806	25580.84
601.002	25658.66
601.198	25427.24
601.395	25318.7
601.591	25460.01
601.787	25279.78
601.984	25263.4
602.18	25222.44
602.376	24855.86
602.572	25130.28
602.769	25031.98
602.965	24796.46
603.161	24997.17
603.357	24626.48
603.553	24632.63
603.75	24831.28
603.946	24458.55
604.142	24794.42
604.338	24030.52
604.534	24352.06
604.73	24069.44
604.926	24008
605.122	24100.15
605.318	23864.64
605.514	23887.17
605.71	23885.12
605.906	24073.53
606.102	23700.8
606.298	23678.27
606.494	23741.76
606.69	23567.68
606.886	23717.18
607.082	23352.65
607.278	23471.43
607.474	22846.8
607.67	23520.58
607.866	22981.96
608.062	23317.83
608.257	23209.29
608.453	22943.05
608.649	23192.9
608.845	22816.08
609.041	23129.42
609.236	23061.83
609.432	22785.36
609.628	22908.24
609.824	22617.43
610.019	22799.69
610.215	22472.02
610.411	23031.12
610.606	22664.53
610.802	22656.34
610.998	22605.14
611.193	22316.37
611.389	22779.22
611.584	22197.59
611.78	22334.81
611.976	22488.4
612.171	22566.23
612.367	22365.53
612.562	22345.05
612.758	21831.01
612.953	22021.47
613.149	22166.87
613.344	22003.03
613.539	22410.58
613.735	22068.57
613.93	22193.5
614.126	21884.25
614.321	22187.35
614.517	21921.12
614.712	21495.14
614.907	21753.18
615.103	21828.96
615.298	21681.5
615.493	21917.02
615.688	21261.67
615.884	21970.27
616.079	21278.05
616.274	21634.4
616.47	21409.12
616.665	21345.64
616.86	21304.68
617.055	21464.42
617.25	21349.73
617.445	21323.11
617.641	21161.32
617.836	21151.08
618.031	20671.86
618.226	21335.4
618.421	20854.12
618.616	21312.87
618.811	20774.25
619.006	20964.71
619.201	20538.74
619.396	20643.18
619.591	20366.71
619.786	20608.37
619.981	20231.54
620.176	20624.75
620.371	20008.31
620.566	20123
620.761	19871.1
620.956	20086.14
621.151	19760.51
621.346	20022.65
621.541	19432.83
621.735	19846.52
621.93	19385.73
622.125	19514.75
622.32	19127.69
622.515	19371.4
622.709	19078.54
622.904	19144.07
623.099	18847.12
623.294	19139.97
623.488	18732.43
623.683	18843.02
623.878	18693.52
624.072	18603.41
624.267	18584.98
624.462	18306.45
624.656	18197.91
624.851	18277.78
625.046	18251.16
625.24	18095.51
625.435	17825.18
625.629	17935.77
625.824	17782.17
626.018	17784.22
626.213	16967.08
626.407	17327.52
626.602	17188.26
626.796	17489.31
626.991	17132.97
627.185	17208.74
627.38	16960.94
627.574	16657.84
627.768	16934.31
627.963	16672.17
628.157	16516.53
628.352	16690.6
628.546	16027.06
628.74	16475.57
628.935	16242.1
629.129	16248.24
629.323	16123.32
629.517	16004.53
629.712	15975.86
629.906	15807.93
630.1	15623.61
630.294	15797.69
630.489	15515.07
630.683	15582.65
630.877	15351.23
631.071	14992.84
631.265	15437.25
631.459	15244.74
631.653	15140.29
631.848	14992.84
632.042	15240.64
632.236	15177.16
632.43	14755.27
632.624	14904.78
632.818	14775.75
633.012	14493.13
633.206	14433.74
633.4	14507.47
633.594	14093.78
633.788	14380.5
633.982	14439.89
634.176	14194.13
634.369	13796.82
634.563	14157.27
634.757	13938.13
634.951	14306.77
635.145	13884.89
635.339	13868.5
635.533	13817.3
635.726	13686.23
635.92	13401.57
636.114	13571.55
636.308	13274.59
636.501	13288.93
636.695	13438.43
636.889	13129.19
637.083	12873.19
637.276	12910.05
637.47	12955.11
637.664	12889.57
637.857	12660.2
638.051	12688.87
638.244	12666.35
638.438	12729.83
638.632	12527.08
638.825	12522.99
639.019	12488.17
639.212	12535.28
639.406	12217.84
639.599	12219.89
639.793	12375.53
639.986	12121.59
640.18	12406.25
640.373	12160.5
640.567	11957.75
640.76	12000.76
640.954	11720.18
641.147	11615.74
641.34	12037.62
641.534	11838.97
641.727	11697.66
641.92	11630.07
642.114	11527.67
642.307	11462.14
642.5	11404.8
642.694	11245.06
642.887	11275.77
643.08	11437.56
643.273	11171.33
643.467	11161.09
643.66	11068.93
643.853	10864.13
644.046	10898.95
644.239	10755.59
644.432	10751.49
644.626	10835.46
644.819	10851.85
645.012	10694.15
645.205	10688.01
645.398	10710.54
645.591	10808.84
645.784	10462.73
645.977	10264.08
646.17	10479.11
646.363	10331.66
646.556	10130.96
646.749	10317.33
646.942	10352.14
647.135	10036.75
647.328	9926.16
647.521	10075.66
647.714	10030.61
647.907	10026.51
648.099	9829.91
648.292	9858.58
648.485	9819.67
648.678	9623.06
648.871	9551.38
649.064	9412.12
649.256	9555.48
649.449	9592.34
649.642	9692.69
649.835	9430.55
650.027	9115.17
650.22	9348.64
650.413	9303.58
650.605	9369.12
650.798	9334.3
650.991	9082.4
651.183	9041.44
651.376	8881.7
651.568	8826.4
651.761	9018.91
651.954	8783.4
652.146	8752.68
652.339	8779.3
652.531	8732.2
652.724	8549.93
652.916	8603.18
653.109	8615.46
653.301	8562.22
653.494	8597.03
653.686	8363.56
653.879	8592.94
654.071	8295.98
654.263	8386.09
654.456	8298.03
654.648	8564.26
654.84	8177.2
655.033	8140.33
655.225	7964.21
655.417	8013.36
655.61	7943.73
655.802	8066.61
655.994	8033.84
656.186	8052.27
656.379	7843.38
656.571	7724.6
656.763	7835.19
656.955	7820.85
657.148	7710.26
657.34	7753.27
657.532	7534.14
657.724	7562.81
657.916	7599.67
658.108	7568.95
658.3	7378.49
658.492	7368.25
658.684	7372.35
658.876	7396.92
659.068	7319.1
659.26	7171.65
659.452	7347.77
659.644	7263.8
659.836	7171.65
660.028	7128.64
660.22	7095.87
660.412	7091.77
660.604	6948.42
660.796	6856.26
660.988	7034.43
661.18	6925.89
661.372	6874.69
661.563	6913.6
661.755	6743.62
661.947	6684.23
662.139	6717
662.331	6719.04
662.522	6735.43
662.714	6856.26
662.906	6671.94
663.097	6647.37
663.289	6567.49
663.481	6602.31
663.673	6608.45
663.864	6352.46
664.056	6407.75
664.247	6399.56
664.439	6454.86
664.631	6461
664.822	6342.22
665.014	6395.47
665.205	6317.64
665.397	6299.21
665.588	6262.35
665.78	6215.24
665.971	6084.17
666.163	6239.82
666.354	6129.23
666.546	6159.95
666.737	5965.39
666.929	5944.91
667.12	6022.73
667.311	5959.25
667.503	6006.35
667.694	5983.82
667.885	5903.95
668.077	5799.51
668.268	5819.99
668.459	5723.73
668.651	5748.31
668.842	5842.51
669.033	5842.51
669.224	5590.61
669.416	5607
669.607	5488.21
669.798	5553.75
669.989	5652.05
670.18	5373.53
670.371	5332.57
670.563	5539.41
670.754	5488.21
670.945	5410.39
671.136	5439.06
671.327	5418.58
671.518	5271.13
671.709	5453.4
671.9	5469.78
672.091	5434.97
672.282	5334.62
672.473	5269.08
672.664	5326.43
672.855	5135.96
673.046	5246.55
673.237	5398.1
673.428	5160.54
673.619	5166.68
673.809	5113.44
674	5064.29
674.191	5084.77
674.382	5154.4
674.573	5125.72
674.764	4947.55
674.954	5140.06
675.145	4877.92
675.336	4943.46
675.527	4945.5
675.717	5002.85
675.908	4755.04
676.099	5023.33
676.289	4855.39
676.48	4812.39
676.671	4773.47
676.861	4908.64
677.052	4783.71
677.243	4830.82
677.433	4765.28
677.624	5006.94
677.814	4654.69
678.005	4738.66
678.195	4808.29
678.386	4863.58
678.576	4654.69
678.767	4685.41
678.957	4640.36
679.148	4785.76
679.338	4638.31
679.529	4623.97
679.719	4701.79
679.909	4486.76
680.1	4597.35
680.29	4628.07
680.481	4591.2
680.671	4460.13
680.861	4537.96
681.052	4529.77
681.242	4492.9
681.432	4660.84
681.622	4546.15
681.813	4417.13
682.003	4460.13
682.193	4482.66
682.383	4617.83
682.573	4331.11
682.764	4599.4
682.954	4429.42
683.144	4335.21
683.334	4265.58
683.524	4386.41
683.714	4261.48
683.904	4591.2
684.094	4404.84
684.284	4357.74
684.474	4386.41
684.664	4410.98
684.854	4296.3
685.044	4337.26
685.234	4261.48
685.424	4298.35
685.614	4197.99
685.804	4314.73
685.994	4140.65
686.184	4374.12
686.374	4111.98
686.564	4116.08
686.753	4130.41
686.943	4093.55
687.133	4030.06
687.323	4114.03
687.513	4204.14
687.702	4152.94
687.892	3976.81
688.082	4073.07
688.272	3952.24
688.461	4021.87
688.651	3962.48
688.841	3911.28
689.03	3950.19
689.22	3942
689.41	3927.66
689.599	3970.67
689.789	3915.37
689.979	3804.78
690.168	3831.41
690.358	3860.08
690.547	3729.01
690.737	3776.11
690.926	3837.55
691.116	3622.52
691.305	3769.97
691.495	3679.86
691.684	3614.32
691.874	3651.19
692.063	3634.8
692.252	3673.71
692.442	3538.55
692.631	3489.4
692.82	3516.02
693.01	3548.79
693.199	3477.11
693.388	3452.53
693.578	3563.12
693.767	3575.41
693.956	3503.73
694.146	3516.02
694.335	3370.62
694.524	3348.09
694.713	3491.45
694.902	3356.28
695.092	3399.29
695.281	3257.98
695.47	3307.13
695.659	3174.01
695.848	3204.73
696.037	3329.66
696.226	3378.81
696.415	3247.74
696.604	3235.45
696.793	3196.54
696.982	3282.55
697.171	3174.01
697.36	3229.31
697.549	3163.77
697.738	3241.59
697.927	3155.58
698.116	3190.39
698.305	3088
698.494	3192.44
698.683	3116.67
698.872	3270.26
699.061	3079.8
699.25	3167.87
699.438	3120.76
699.627	2913.92
699.816	3153.53
700.005	3067.52
700.193	3088
700.382	3100.28
700.571	3155.58
700.76	3004.03
700.948	3012.22
701.137	3081.85
701.326	3137.15
701.514	2901.63
701.703	2948.73
701.892	2963.07
702.08	2913.92
702.269	3032.7
702.457	2961.02
702.646	2911.87
702.834	2932.35
703.023	2725.51
703.212	2997.88
703.4	2958.97
703.589	2893.44
703.777	2985.6
703.965	2860.67
704.154	2836.1
704.342	2813.57
704.531	2809.47
704.719	2965.12
704.907	2877.05
705.096	2872.96
705.284	2885.25
705.472	2891.39
705.661	2823.81
705.849	2909.82
706.037	2940.54
706.226	2844.29
706.414	2899.58
706.602	2797.18
706.79	2825.86
706.979	2700.93
707.167	2750.08
707.355	2637.44
707.543	2752.13
707.731	2764.42
707.919	2735.74
708.107	2760.32
708.296	2885.25
708.484	2735.74
708.672	2797.18
708.86	2770.56
709.048	2733.7
709.236	2743.94
709.424	2717.31
709.612	2842.24
709.8	2731.65
709.988	2877.05
710.176	2750.08
710.364	2700.93
710.551	2739.84
710.739	2727.55
710.927	2766.46
711.115	2707.07
711.303	2711.17
711.491	2825.86
711.679	2705.03
711.866	2698.88
712.054	2750.08
712.242	2659.97
712.43	2666.11
712.617	2741.89
712.805	2672.26
712.993	2778.75
713.181	2700.93
713.368	2752.13
713.556	2684.55
713.744	2608.77
713.931	2741.89
714.119	2614.91
714.306	2653.83
714.494	2737.79
714.682	2713.22
714.869	2788.99
715.057	2612.87
715.244	2651.78
715.432	2733.7
715.619	2684.55
715.807	2733.7
715.994	2670.21
716.182	2774.66
716.369	2610.82
716.556	2631.3
716.744	2653.83
716.931	2573.96
717.119	2713.22
717.306	2745.98
717.493	2469.51
717.681	2612.87
717.868	2745.98
718.055	2811.52
718.242	2602.63
718.43	2698.88
718.617	2709.12
718.804	2610.82
718.991	2625.15
719.179	2647.68
719.366	2619.01
719.553	2705.03
719.74	2604.67
719.927	2717.31
720.114	2717.31
720.301	2766.46
720.488	2635.39
720.676	2676.35
720.863	2651.78
721.05	2625.15
721.237	2623.11
721.424	2533
721.611	2598.53
721.798	2571.91
721.985	2582.15
722.172	2582.15
722.358	2645.63
722.545	2680.45
722.732	2563.72
722.919	2643.59
723.106	2682.5
723.293	2551.43
723.48	2643.59
723.667	2721.41
723.853	2647.68
724.04	2713.22
724.227	2561.67
724.414	2608.77
724.6	2606.72
724.787	2635.39
724.974	2645.63
725.161	2633.35
725.347	2537.09
725.534	2643.59
725.72	2580.1
725.907	2702.98
726.094	2479.75
726.28	2631.3
726.467	2586.24
726.653	2625.15
726.84	2555.52
727.027	2725.51
727.213	2565.76
727.4	2776.7
727.586	2721.41
727.773	2659.97
727.959	2694.79
728.145	2576
728.332	2614.91
728.518	2707.07
728.705	2670.21
728.891	2707.07
729.077	2739.84
729.264	2594.44
729.45	2594.44
729.636	2633.35
729.823	2664.07
730.009	2674.31
730.195	2784.9
730.382	2696.83
730.568	2629.25
730.754	2561.67
730.94	2621.06
731.126	2766.46
731.313	2639.49
731.499	2737.79
731.685	2705.03
731.871	2657.92
732.057	2612.87
732.243	2713.22
732.429	2772.61
732.615	2676.35
732.801	2621.06
732.987	2723.46
733.173	2784.9
733.359	2678.4
733.545	2662.02
733.731	2631.3
733.917	2756.22
734.103	2723.46
734.289	2616.96
734.475	2688.64
734.661	2696.83
734.847	2764.42
735.033	2678.4
735.219	2807.42
735.404	2629.25
735.59	2752.13
735.776	2649.73
735.962	2672.26
736.148	2674.31
736.333	2698.88
736.519	2723.46
736.705	2668.16
736.89	2684.55
737.076	2692.74
737.262	2664.07
737.447	2670.21
737.633	2723.46
737.819	2762.37
738.004	2592.39
738.19	2694.79
738.375	2602.63
738.561	2690.69
738.747	2578.05
738.932	2614.91
739.118	2528.9
739.303	2582.15
739.489	2637.44
739.674	2680.45
739.859	2651.78
740.045	2528.9
740.23	2537.09
740.416	2528.9
740.601	2559.62
740.786	2451.08
740.972	2584.2
741.157	2668.16
741.342	2473.6
741.528	2643.59
741.713	2487.94
741.898	2520.71
742.084	2553.48
742.269	2625.15
742.454	2569.86
742.639	2420.36
742.824	2465.41
743.01	2627.2
743.195	2516.61
743.38	2528.9
743.565	2555.52
743.75	2449.03
743.935	2475.65
744.12	2467.46
744.305	2510.47
744.49	2553.48
744.675	2389.64
744.86	2377.35
745.045	2436.74
745.23	2451.08
745.415	2434.69
745.6	2418.31
745.785	2363.01
745.97	2348.68
746.155	2287.24
746.34	2416.26
746.525	2291.34
746.71	2338.44
746.895	2303.62
747.079	2365.06
747.264	2299.53
747.449	2281.1
747.634	2315.91
747.819	2299.53
748.003	2293.38
748.188	2283.14
748.373	2252.42
748.557	2170.51
748.742	2315.91
748.927	2203.27
749.111	2272.9
749.296	2080.39
749.481	2248.33
749.665	2166.41
749.85	2100.87
750.034	2176.65
750.219	2160.27
750.404	2158.22
750.588	2066.06
750.773	2055.82
750.957	2025.1
751.141	1975.95
751.326	2059.92
751.51	1959.56
751.695	2049.68
751.879	1990.28
752.064	1926.8
752.248	1926.8
752.432	2025.1
752.617	1914.51
752.801	2064.01
752.985	1863.31
753.17	1973.9
753.354	1902.22
753.538	1978
753.722	1828.49
753.907	1824.4
754.091	1840.78
754.275	1752.72
754.459	1762.96
754.643	1814.16
754.828	1769.1
755.012	1765.01
755.196	1678.99
755.38	1705.62
755.564	1730.19
755.748	1830.54
755.932	1775.25
756.116	1652.37
756.3	1732.24
756.484	1660.56
756.668	1736.34
756.852	1644.18
757.036	1697.42
757.22	1672.85
757.404	1586.83
757.588	1664.66
757.772	1699.47
757.956	1623.7
758.14	1695.38
758.323	1504.92
758.507	1613.46
758.691	1533.59
758.875	1635.99
759.059	1689.23
759.242	1513.11
759.426	1541.78
759.61	1545.88
759.794	1488.53
759.977	1390.23
760.161	1441.43
760.345	1568.4
760.528	1492.63
760.712	1488.53
760.895	1488.53
761.079	1556.11
761.263	1398.42
761.446	1439.38
761.63	1382.04
761.813	1330.84
761.997	1414.81
762.18	1334.93
762.364	1345.17
762.547	1306.26
762.731	1437.33
762.914	1406.61
763.098	1343.13
763.281	1336.98
763.464	1330.84
763.648	1400.47
763.831	1363.61
764.015	1410.71
764.198	1355.41
764.381	1281.69
764.564	1341.08
764.748	1336.98
764.931	1316.5
765.114	1328.79
765.297	1232.54
765.481	1318.55
765.664	1265.3
765.847	1289.88
766.03	1324.69
766.213	1312.41
766.397	1162.9
766.58	1357.46
766.763	1304.21
766.946	1177.24
767.129	1201.82
767.312	1236.63
767.495	1205.91
767.678	1128.09
767.861	1193.62
768.044	1214.1
768.227	1183.38
768.41	1197.72
768.593	1291.93
768.776	1287.83
768.959	1238.68
769.142	1201.82
769.324	1197.72
769.507	1185.43
769.69	1091.23
769.873	1142.43
770.056	1228.44
770.239	1220.25
770.421	1115.8
770.604	1115.8
770.787	1183.38
770.97	1109.66
771.152	1097.37
771.335	1115.8
771.518	1091.23
771.7	1095.32
771.883	1107.61
772.066	1115.8
772.248	1056.41
772.431	1128.09
772.613	1115.8
772.796	1066.65
772.978	1046.17
773.161	1134.23
773.343	1062.55
773.526	1099.42
773.708	1037.98
773.891	1058.46
774.073	974.49
774.256	1007.26
774.438	1011.36
774.621	1001.12
774.803	956.06
774.985	1021.6
775.168	1009.31
775.35	859.81
775.532	1011.36
775.715	994.97
775.897	951.96
776.079	931.48
776.261	964.25
776.444	951.96
776.626	935.58
776.808	945.82
776.99	906.91
777.173	931.48
777.355	876.19
777.537	865.95
777.719	964.25
777.901	997.02
778.083	929.44
778.265	777.89
778.447	913.05
778.629	818.85
778.811	775.84
778.993	835.23
779.175	882.33
779.357	804.51
779.539	710.3
779.721	800.41
779.903	738.98
780.085	747.17
780.267	775.84
780.449	818.85
780.631	810.65
780.812	751.26
780.994	755.36
781.176	757.41
781.358	777.89
781.54	675.49
781.721	741.02
781.903	628.39
782.085	685.73
782.267	751.26
782.448	663.2
782.63	695.97
782.812	736.93
782.993	765.6
783.175	761.5
783.357	671.39
783.538	616.1
783.72	624.29
783.901	626.34
784.083	652.96
784.264	652.96
784.446	665.25
784.627	663.2
784.809	691.87
784.99	636.58
785.172	669.34
785.353	577.19
785.535	655.01
785.716	612
785.897	599.71
786.079	566.95
786.26	593.57
786.441	581.28
786.623	558.75
786.804	462.5
786.985	587.43
787.167	566.95
787.348	530.08
787.529	589.47
787.71	626.34
787.891	652.96
788.073	474.79
788.254	519.84
788.435	532.13
788.616	605.86
788.797	517.79
788.978	487.08
789.159	517.79
789.34	509.6
789.522	564.9
789.703	452.26
789.884	419.49
790.065	489.12
790.246	591.52
790.427	468.64
790.607	476.84
790.788	480.93
790.969	501.41
791.15	538.27
791.331	509.6
791.512	509.6
791.693	466.6
791.874	466.6
792.054	562.85
792.235	429.73
792.416	409.25
792.597	534.18
792.778	423.59
792.958	401.06
793.139	456.36
793.32	405.16
793.5	493.22
793.681	487.08
793.862	523.94
794.042	343.72
794.223	411.3
794.404	419.49
794.584	370.34
794.765	388.77
794.945	550.56
795.126	413.35
795.306	396.96
795.487	364.2
795.667	499.36
795.848	454.31
796.028	368.29
796.209	347.81
796.389	421.54
796.57	388.77
796.75	325.29
796.93	421.54
797.111	370.34
797.291	429.73
797.471	411.3
797.652	394.92
797.832	415.4
798.012	407.2
798.192	362.15
798.373	341.67
798.553	372.39
798.733	282.28
798.913	327.33
799.093	366.25
799.274	331.43
799.454	386.72
799.634	386.72
799.814	399.01
799.994	325.29
800.174	302.76
800.354	368.29
800.534	317.09
800.714	448.16
800.894	407.2
801.074	331.43
801.254	380.58
801.434	290.47
801.614	353.96
801.794	298.66
801.974	636.58
802.154	315.05
802.334	341.67
802.514	272.04
802.693	384.68
802.873	282.28
803.053	317.09
803.233	323.24
803.413	259.75
803.592	386.72
803.772	272.04
803.952	280.23
804.131	310.95
804.311	308.9
804.491	325.29
804.67	243.37
804.85	304.81
805.03	269.99
805.209	315.05
805.389	286.37
805.568	358.05
805.748	300.71
805.928	247.46
806.107	298.66
806.287	272.04
806.466	298.66
806.646	313
806.825	253.61
807.004	237.22
807.184	251.56
807.363	272.04
807.543	192.17
807.722	259.75
807.901	239.27
808.081	331.43
808.26	188.07
808.439	233.13
808.619	267.94
808.798	196.26
808.977	220.84
809.156	253.61
809.336	190.12
809.515	292.52
809.694	319.14
809.873	261.8
810.052	239.27
810.231	261.8
810.411	255.65
810.59	313
810.769	210.6
810.948	204.46
811.127	196.26
811.306	257.7
811.485	167.59
811.664	249.51
811.843	263.85
812.022	196.26
812.201	259.75
812.38	259.75
812.559	245.41
812.737	222.89
812.916	231.08
813.095	253.61
813.274	204.46
813.453	243.37
813.632	235.18
813.811	190.12
813.989	222.89
814.168	208.55
814.347	214.7
814.526	196.26
814.704	202.41
814.883	308.9
815.062	249.51
815.24	319.14
815.419	147.11
815.598	161.45
815.776	214.7
815.955	200.36
816.133	159.4
816.312	173.74
816.49	245.41
816.669	239.27
816.847	161.45
817.026	202.41
817.204	214.7
817.383	259.75
817.561	177.83
817.74	233.13
817.918	206.5
818.097	208.55
818.275	233.13
818.453	186.02
818.632	259.75
818.81	237.22
818.988	132.78
819.167	171.69
819.345	177.83
819.523	202.41
819.701	159.4
819.879	202.41
820.058	167.59
820.236	157.35
820.414	173.74
820.592	151.21
820.77	165.54
820.948	167.59
821.127	143.02
821.305	202.41
821.483	143.02
821.661	204.46
821.839	177.83
822.017	122.54
822.195	173.74
822.373	235.18
822.551	161.45
822.729	218.79
822.907	161.45
823.085	157.35
823.262	222.89
823.44	126.63
823.618	151.21
823.796	235.18
823.974	124.58
824.152	116.39
824.329	196.26
824.507	220.84
824.685	104.11
824.863	155.3
825.04	132.78
825.218	132.78
825.396	100.01
825.574	157.35
825.751	34.47
825.929	218.79
826.107	108.2
826.284	202.41
826.462	132.78
826.639	132.78
826.817	110.25
826.994	231.08
827.172	134.82
827.349	216.74
827.527	83.63
827.704	143.02
827.882	87.72
828.059	83.63
828.237	163.5
828.414	165.54
828.591	-16.73
828.769	157.35
828.946	104.11
829.124	114.34
829.301	100.01
829.478	149.16
829.655	173.74
829.833	138.92
830.01	194.22
830.187	108.2
830.364	157.35
830.542	116.39
830.719	145.06
830.896	169.64
831.073	91.82
831.25	104.11
831.427	106.15
831.604	97.96
831.782	97.96
831.959	87.72
832.136	114.34
832.313	112.3
832.49	89.77
832.667	75.43
832.844	183.98
833.021	143.02
833.198	196.26
833.374	147.11
833.551	104.11
833.728	-29.01
833.905	102.06
834.082	54.95
834.259	122.54
834.436	179.88
834.612	120.49
834.789	155.3
834.966	-0.34
835.143	124.58
835.319	130.73
835.496	204.46
835.673	128.68
835.85	116.39
836.026	102.06
836.203	151.21
836.38	89.77
836.556	87.72
836.733	143.02
836.909	140.97
837.086	132.78
837.262	87.72
837.439	120.49
837.616	136.87
837.792	122.54
837.968	75.43
838.145	75.43
838.321	118.44
838.498	61.1
838.674	120.49
838.851	59.05
839.027	89.77
839.203	50.86
839.38	87.72
839.556	20.14
839.732	171.69
839.909	97.96
840.085	134.82
840.261	59.05
840.437	97.96
840.614	136.87
840.79	97.96
840.966	79.53
841.142	91.82
841.318	194.22
841.494	69.29
841.671	85.67
841.847	-8.53
842.023	177.83
842.199	77.48
842.375	140.97
842.551	147.11
842.727	122.54
842.903	69.29
843.079	36.52
843.255	100.01
843.431	87.72
843.607	42.67
843.783	-0.34
843.959	177.83
844.134	71.34
844.31	71.34
844.486	108.2
844.662	77.48
844.838	11.95
845.013	89.77
845.189	120.49
845.365	122.54
845.541	93.87
845.716	106.15
845.892	69.29
846.068	89.77
846.244	36.52
846.419	108.2
846.595	32.43
846.77	97.96
846.946	83.63
847.122	57
847.297	100.01
847.473	118.44
847.648	40.62
847.824	112.3
847.999	18.09
848.175	59.05
848.35	67.24
848.526	52.91
848.701	91.82
848.876	30.38
849.052	83.63
849.227	110.25
849.403	93.87
849.578	110.25
849.753	40.62
849.929	-33.11
850.104	48.81
850.279	24.23
850.454	46.76
850.63	79.53
850.805	54.95
850.98	63.15
851.155	9.9
851.33	95.91
851.505	71.34
851.681	81.58
851.856	-6.49
852.031	163.5
852.206	106.15
852.381	106.15
852.556	67.24
852.731	91.82
852.906	63.15
853.081	155.3
853.256	71.34
853.431	83.63
853.606	95.91
853.781	79.53
853.956	65.19
854.131	57
854.305	-29.01
854.48	26.28
854.655	100.01
854.83	75.43
855.005	52.91
855.18	32.43
855.354	65.19
855.529	61.1
855.704	-20.82
855.879	120.49
856.053	69.29
856.228	97.96
856.403	38.57
856.577	106.15
856.752	100.01
856.926	89.77
857.101	120.49
857.276	54.95
857.45	71.34
857.625	79.53
857.799	61.1
857.974	38.57
858.148	69.29
858.323	77.48
858.497	34.47
858.672	79.53
858.846	48.81
859.02	106.15
859.195	13.99
859.369	20.14
859.543	52.91
859.718	28.33
859.892	71.34
860.066	52.91
860.241	67.24
860.415	-10.58
860.589	16.04
860.763	87.72
860.938	59.05
861.112	63.15
861.286	9.9
861.46	30.38
861.634	42.67
861.808	77.48
861.982	-6.49
862.157	89.77
862.331	9.9
862.505	28.33
862.679	100.01
862.853	48.81
863.027	83.63
863.201	112.3
863.375	-53.59
863.549	26.28
863.722	91.82
863.896	18.09
864.07	83.63
864.244	73.39
864.418	13.99
864.592	11.95
864.766	50.86
864.939	93.87
865.113	-14.68
865.287	59.05
865.461	24.23
865.634	28.33
865.808	67.24
865.982	52.91
866.156	118.44
866.329	63.15
866.503	69.29
866.676	89.77
866.85	-0.34
867.024	-6.49
867.197	97.96
867.371	36.52
867.544	50.86
867.718	16.04
867.891	50.86
868.065	1.71
868.238	65.19
868.412	73.39
868.585	7.85
868.759	9.9
868.932	16.04
869.105	69.29
869.279	42.67
869.452	100.01
869.625	95.91
869.799	97.96
869.972	36.52
870.145	-14.68
870.319	24.23
870.492	48.81
870.665	-6.49
870.838	54.95
871.011	11.95
871.185	67.24
871.358	7.85
871.531	46.76
871.704	-10.58
871.877	63.15
872.05	-22.87
872.223	11.95
872.396	44.71
872.569	59.05
872.742	67.24
872.915	71.34
873.088	30.38
873.261	11.95
873.434	57
873.607	91.82
873.78	48.81
873.953	-2.39
874.126	95.91
874.299	63.15
874.471	-4.44
874.644	-35.16
874.817	61.1
874.99	83.63
875.163	22.19
875.335	42.67
875.508	-6.49
875.681	-14.68
875.853	22.19
876.026	54.95
876.199	3.75
876.371	44.71
876.544	81.58
876.717	40.62
876.889	54.95
877.062	100.01
877.234	-4.44
877.407	40.62
877.579	73.39
877.752	57
877.924	32.43
878.097	36.52
878.269	104.11
878.442	26.28
878.614	36.52
878.786	28.33
878.959	7.85
879.131	9.9
879.303	-10.58
879.476	24.23
879.648	5.8
879.82	63.15
879.993	54.95
880.165	16.04
880.337	32.43
880.509	73.39
880.681	91.82
880.854	-16.73
881.026	59.05
881.198	48.81
881.37	-24.92
881.542	-14.68
881.714	-31.06
881.886	24.23
882.058	104.11
882.23	46.76
882.402	36.52
882.574	48.81
882.746	52.91
882.918	-20.82
883.09	18.09
883.262	16.04
883.434	7.85
883.606	-8.53
883.778	-29.01
883.95	59.05
884.122	75.43
884.293	-22.87
884.465	24.23
884.637	9.9
884.809	30.38
884.98	50.86
885.152	9.9
885.324	75.43
885.496	48.81
885.667	-31.06
885.839	18.09
886.011	18.09
886.182	81.58
886.354	59.05
886.525	44.71
886.697	28.33
886.869	44.71
887.04	-2.39
887.212	124.58
887.383	52.91
887.555	18.09
887.726	85.67
887.897	26.28
888.069	52.91
888.24	11.95
888.412	30.38
888.583	-57.68
888.754	7.85
888.926	13.99
889.097	57
889.268	7.85
889.44	63.15
889.611	-80.21
889.782	32.43
889.953	36.52
890.125	48.81
890.296	18.09
890.467	24.23
890.638	-18.77
890.809	-35.16
890.98	73.39
891.151	-45.4
891.323	50.86
891.494	16.04
891.665	42.67
891.836	65.19
892.007	18.09
892.178	65.19
892.349	34.47
892.52	87.72
892.691	50.86
892.862	63.15
893.032	-10.58
893.203	-16.73
893.374	-29.01
893.545	30.38
893.716	9.9
893.887	52.91
894.057	22.19
894.228	65.19
894.399	-16.73
894.57	50.86
894.74	16.04
894.911	20.14
895.082	87.72
895.253	11.95
895.423	-41.3
895.594	59.05
895.764	26.28
895.935	5.8
896.106	38.57
896.276	30.38
896.447	61.1
896.617	18.09
896.788	34.47
896.958	3.75
897.129	-37.2
897.299	-63.83
897.47	-22.87
897.64	48.81
897.81	-39.25
897.981	40.62
898.151	-2.39
898.322	-6.49
898.492	22.19
898.662	-20.82
898.832	-37.2
899.003	40.62
899.173	63.15
899.343	-4.44
899.513	32.43
