Data from USB4F104151__142__11-08-11-092.txt Node

Date: Wed Mar 12 11:08:11 EDT 2025
User: louis
Spectrometer: USB4F10415
Trigger mode: 4
Integration Time (sec): 2.000000E-2
Scans to average: 1
Electric dark correction enabled: true
Nonlinearity correction enabled: false
Boxcar width: 0
XAxis mode: Wavelengths
Number of Pixels in Spectrum: 3648
>>>>>Begin Spectral Data<<<<<
178.204	-52.39
178.424	-52.39
178.644	-52.39
178.864	-60.59
179.084	-103.59
179.304	58.2
179.524	-48.3
179.744	-29.87
179.964	50
180.184	29.52
180.404	-13.48
180.624	9.05
180.844	-3.24
181.064	-52.39
181.283	-7.34
181.503	-19.63
181.723	27.48
181.943	-68.78
182.163	78.68
182.383	45.91
182.602	78.68
182.822	52.05
183.042	-7.34
183.262	19.29
183.482	-21.67
183.701	29.52
183.921	-21.67
184.141	35.67
184.361	21.33
184.58	17.24
184.8	-1.19
185.02	0.85
185.239	15.19
185.459	54.1
185.679	93.01
185.898	-7.34
186.118	74.58
186.338	-13.48
186.557	21.33
186.777	50
186.997	2.9
187.216	-54.44
187.436	111.44
187.655	41.81
187.875	58.2
188.095	21.33
188.314	60.24
188.534	68.44
188.753	72.53
188.973	27.48
189.192	111.44
189.412	25.43
189.631	13.14
189.851	-27.82
190.07	-52.39
190.29	17.24
190.509	37.72
190.729	29.52
190.948	76.63
191.168	95.06
191.387	62.29
191.607	4.95
191.826	-23.72
192.045	62.29
192.265	-7.34
192.484	76.63
192.704	25.43
192.923	66.39
193.142	21.33
193.362	47.96
193.581	39.76
193.8	-15.53
194.02	74.58
194.239	25.43
194.458	-50.35
194.678	13.14
194.897	-7.34
195.116	19.29
195.335	7
195.555	35.67
195.774	4.95
195.993	56.15
196.212	52.05
196.432	-7.34
196.651	37.72
196.87	-7.34
197.089	70.48
197.308	15.19
197.528	45.91
197.747	-72.87
197.966	43.86
198.185	-27.82
198.404	-19.63
198.623	-60.59
198.842	-44.2
199.062	78.68
199.281	29.52
199.5	45.91
199.719	-9.39
199.938	62.29
200.157	64.34
200.376	66.39
200.595	80.72
200.814	-17.58
201.033	-31.91
201.252	97.11
201.471	54.1
201.69	-11.43
201.909	58.2
202.128	-3.24
202.347	-1.19
202.566	21.33
202.785	-64.68
203.004	-17.58
203.223	58.2
203.442	-40.11
203.661	19.29
203.879	11.09
204.098	66.39
204.317	39.76
204.536	50
204.755	-19.63
204.974	119.64
205.193	37.72
205.411	21.33
205.63	86.87
205.849	64.34
206.068	-19.63
206.287	-3.24
206.505	-11.43
206.724	-9.39
206.943	25.43
207.162	-13.48
207.381	2.9
207.599	39.76
207.818	-29.87
208.037	-50.35
208.255	95.06
208.474	-7.34
208.693	58.2
208.911	-21.67
209.13	37.72
209.349	23.38
209.567	7
209.786	101.2
210.005	33.62
210.223	-3.24
210.442	-23.72
210.661	-3.24
210.879	25.43
211.098	41.81
211.316	78.68
211.535	33.62
211.753	11.09
211.972	37.72
212.191	23.38
212.409	50
212.628	39.76
212.846	2.9
213.065	2.9
213.283	54.1
213.502	43.86
213.72	29.52
213.938	17.24
214.157	-13.48
214.375	35.67
214.594	-25.77
214.812	21.33
215.031	93.01
215.249	2.9
215.467	70.48
215.686	33.62
215.904	-64.68
216.122	-7.34
216.341	-19.63
216.559	-25.77
216.778	52.05
216.996	2.9
217.214	33.62
217.432	-40.11
217.651	-36.01
217.869	2.9
218.087	0.85
218.306	17.24
218.524	39.76
218.742	9.05
218.96	-1.19
219.179	11.09
219.397	-13.48
219.615	78.68
219.833	-27.82
220.051	-1.19
220.27	29.52
220.488	25.43
220.706	60.24
220.924	-11.43
221.142	37.72
221.36	39.76
221.578	4.95
221.796	58.2
222.015	13.14
222.233	72.53
222.451	39.76
222.669	9.05
222.887	41.81
223.105	-3.24
223.323	-3.24
223.541	2.9
223.759	62.29
223.977	4.95
224.195	35.67
224.413	72.53
224.631	27.48
224.849	33.62
225.067	101.2
225.285	-7.34
225.503	-81.07
225.721	86.87
225.939	121.68
226.157	-13.48
226.375	33.62
226.592	-9.39
226.81	54.1
227.028	21.33
227.246	37.72
227.464	-3.24
227.682	95.06
227.9	58.2
228.117	4.95
228.335	-33.96
228.553	-64.68
228.771	2.9
228.989	117.59
229.206	-5.29
229.424	-29.87
229.642	68.44
229.86	52.05
230.077	11.09
230.295	60.24
230.513	7
230.731	41.81
230.948	17.24
231.166	93.01
231.384	52.05
231.601	97.11
231.819	-27.82
232.037	58.2
232.254	11.09
232.472	-5.29
232.689	29.52
232.907	7
233.125	11.09
233.342	54.1
233.56	33.62
233.777	-1.19
233.995	-27.82
234.213	62.29
234.43	-42.15
234.648	47.96
234.865	-44.2
235.083	56.15
235.3	-3.24
235.518	-13.48
235.735	41.81
235.953	35.67
236.17	-1.19
236.388	62.29
236.605	4.95
236.822	11.09
237.04	-5.29
237.257	13.14
237.475	13.14
237.692	58.2
237.909	23.38
238.127	62.29
238.344	56.15
238.562	70.48
238.779	11.09
238.996	-13.48
239.214	-58.54
239.431	62.29
239.648	37.72
239.865	47.96
240.083	52.05
240.3	19.29
240.517	-48.3
240.735	47.96
240.952	-7.34
241.169	45.91
241.386	7
241.603	9.05
241.821	7
242.038	66.39
242.255	54.1
242.472	-25.77
242.689	29.52
242.907	66.39
243.124	13.14
243.341	-23.72
243.558	-13.48
243.775	72.53
243.992	13.14
244.209	9.05
244.426	-40.11
244.643	-11.43
244.86	39.76
245.078	-9.39
245.295	-42.15
245.512	23.38
245.729	-36.01
245.946	15.19
246.163	58.2
246.38	-31.91
246.597	15.19
246.814	117.59
247.031	-17.58
247.248	17.24
247.464	35.67
247.681	21.33
247.898	21.33
248.115	66.39
248.332	-62.63
248.549	60.24
248.766	58.2
248.983	31.57
249.2	-15.53
249.417	15.19
249.633	66.39
249.85	21.33
250.067	-15.53
250.284	17.24
250.501	7
250.717	74.58
250.934	-54.44
251.151	31.57
251.368	17.24
251.585	19.29
251.801	7
252.018	37.72
252.235	52.05
252.451	-19.63
252.668	33.62
252.885	41.81
253.102	17.24
253.318	43.86
253.535	33.62
253.752	7
253.968	117.59
254.185	-5.29
254.401	-23.72
254.618	78.68
254.835	21.33
255.051	7
255.268	33.62
255.484	62.29
255.701	-31.91
255.917	41.81
256.134	-62.63
256.351	23.38
256.567	9.05
256.784	2.9
257	-21.67
257.217	60.24
257.433	-36.01
257.65	-17.58
257.866	37.72
258.082	17.24
258.299	-3.24
258.515	154.45
258.732	-7.34
258.948	-13.48
259.165	11.09
259.381	29.52
259.597	9.05
259.814	-31.91
260.03	58.2
260.246	13.14
260.463	93.01
260.679	39.76
260.895	-7.34
261.112	-11.43
261.328	35.67
261.544	-36.01
261.761	72.53
261.977	4.95
262.193	-31.91
262.409	93.01
262.626	21.33
262.842	52.05
263.058	41.81
263.274	31.57
263.49	-5.29
263.707	7
263.923	33.62
264.139	-13.48
264.355	-29.87
264.571	78.68
264.787	2.9
265.004	21.33
265.22	78.68
265.436	7
265.652	41.81
265.868	41.81
266.084	-1.19
266.3	15.19
266.516	-31.91
266.732	17.24
266.948	-5.29
267.164	-25.77
267.38	-11.43
267.596	4.95
267.812	-11.43
268.028	39.76
268.244	27.48
268.46	54.1
268.676	27.48
268.892	7
269.108	-46.25
269.324	-7.34
269.54	-25.77
269.756	-1.19
269.972	-23.72
270.188	35.67
270.403	-40.11
270.619	7
270.835	7
271.051	80.72
271.267	99.16
271.483	4.95
271.698	72.53
271.914	9.05
272.13	68.44
272.346	39.76
272.562	-1.19
272.777	19.29
272.993	-25.77
273.209	39.76
273.425	21.33
273.64	52.05
273.856	35.67
274.072	86.87
274.287	27.48
274.503	54.1
274.719	-31.91
274.934	-27.82
275.15	-52.39
275.366	29.52
275.581	2.9
275.797	62.29
276.012	27.48
276.228	-27.82
276.444	-40.11
276.659	-66.73
276.875	-44.2
277.09	29.52
277.306	29.52
277.521	58.2
277.737	-29.87
277.952	39.76
278.168	66.39
278.383	52.05
278.599	21.33
278.814	35.67
279.03	-48.3
279.245	27.48
279.461	13.14
279.676	66.39
279.892	21.33
280.107	29.52
280.322	11.09
280.538	33.62
280.753	41.81
280.969	-7.34
281.184	-15.53
281.399	19.29
281.615	-9.39
281.83	27.48
282.045	0.85
282.26	31.57
282.476	-46.25
282.691	31.57
282.906	17.24
283.122	0.85
283.337	21.33
283.552	86.87
283.767	-56.49
283.983	62.29
284.198	-27.82
284.413	-1.19
284.628	-29.87
284.843	23.38
285.058	39.76
285.274	-5.29
285.489	25.43
285.704	93.01
285.919	80.72
286.134	80.72
286.349	7
286.564	21.33
286.779	105.3
286.995	54.1
287.21	19.29
287.425	68.44
287.64	-79.02
287.855	82.77
288.07	39.76
288.285	90.96
288.5	23.38
288.715	-11.43
288.93	27.48
289.145	-58.54
289.36	21.33
289.575	84.82
289.79	-9.39
290.004	17.24
290.219	31.57
290.434	-9.39
290.649	15.19
290.864	-17.58
291.079	-9.39
291.294	37.72
291.509	11.09
291.724	54.1
291.938	2.9
292.153	60.24
292.368	-38.06
292.583	68.44
292.798	45.91
293.012	31.57
293.227	23.38
293.442	-5.29
293.657	43.86
293.871	17.24
294.086	62.29
294.301	25.43
294.516	-54.44
294.73	-1.19
294.945	-3.24
295.16	21.33
295.374	37.72
295.589	41.81
295.804	52.05
296.018	23.38
296.233	17.24
296.447	9.05
296.662	-7.34
296.877	54.1
297.091	-17.58
297.306	2.9
297.52	13.14
297.735	35.67
297.949	2.9
298.164	-23.72
298.378	-25.77
298.593	21.33
298.807	17.24
299.022	25.43
299.236	29.52
299.451	23.38
299.665	54.1
299.88	13.14
300.094	7
300.309	56.15
300.523	31.57
300.737	-13.48
300.952	33.62
301.166	45.91
301.381	-60.59
301.595	17.24
301.809	2.9
302.024	-13.48
302.238	37.72
302.452	60.24
302.667	-40.11
302.881	68.44
303.095	4.95
303.309	50
303.524	11.09
303.738	19.29
303.952	25.43
304.166	80.72
304.381	66.39
304.595	15.19
304.809	-23.72
305.023	19.29
305.237	2.9
305.452	4.95
305.666	13.14
305.88	86.87
306.094	43.86
306.308	109.4
306.522	-5.29
306.736	37.72
306.95	43.86
307.164	-23.72
307.379	47.96
307.593	21.33
307.807	15.19
308.021	70.48
308.235	-7.34
308.449	-54.44
308.663	0.85
308.877	58.2
309.091	39.76
309.305	15.19
309.519	-3.24
309.733	45.91
309.947	-3.24
310.161	-3.24
310.374	2.9
310.588	15.19
310.802	0.85
311.016	58.2
311.23	23.38
311.444	64.34
311.658	-36.01
311.872	70.48
312.085	-70.83
312.299	82.77
312.513	23.38
312.727	0.85
312.941	-13.48
313.154	-31.91
313.368	33.62
313.582	35.67
313.796	86.87
314.009	64.34
314.223	11.09
314.437	62.29
314.651	62.29
314.864	66.39
315.078	19.29
315.292	-9.39
315.505	0.85
315.719	86.87
315.933	58.2
316.146	-21.67
316.36	37.72
316.573	17.24
316.787	-25.77
317.001	19.29
317.214	-11.43
317.428	31.57
317.641	68.44
317.855	23.38
318.068	2.9
318.282	2.9
318.495	99.16
318.709	47.96
318.922	52.05
319.136	74.58
319.349	64.34
319.563	0.85
319.776	29.52
319.99	37.72
320.203	13.14
320.417	74.58
320.63	82.77
320.843	66.39
321.057	31.57
321.27	11.09
321.483	21.33
321.697	111.44
321.91	-3.24
322.124	43.86
322.337	86.87
322.55	56.15
322.763	107.35
322.977	93.01
323.19	4.95
323.403	47.96
323.617	-27.82
323.83	37.72
324.043	9.05
324.256	78.68
324.469	2.9
324.683	17.24
324.896	19.29
325.109	33.62
325.322	58.2
325.535	54.1
325.748	43.86
325.962	52.05
326.175	-19.63
326.388	-23.72
326.601	15.19
326.814	58.2
327.027	56.15
327.24	88.92
327.453	-9.39
327.666	-17.58
327.879	60.24
328.092	41.81
328.305	47.96
328.518	76.63
328.731	15.19
328.944	45.91
329.157	37.72
329.37	25.43
329.583	47.96
329.796	64.34
330.009	31.57
330.222	47.96
330.435	47.96
330.648	29.52
330.861	-25.77
331.073	47.96
331.286	78.68
331.499	52.05
331.712	31.57
331.925	54.1
332.138	41.81
332.35	33.62
332.563	-21.67
332.776	41.81
332.989	-3.24
333.202	25.43
333.414	-23.72
333.627	39.76
333.84	50
334.053	31.57
334.265	90.96
334.478	68.44
334.691	47.96
334.903	15.19
335.116	84.82
335.329	-7.34
335.541	27.48
335.754	19.29
335.966	-40.11
336.179	2.9
336.392	35.67
336.604	37.72
336.817	60.24
337.029	25.43
337.242	25.43
337.454	78.68
337.667	29.52
337.88	74.58
338.092	56.15
338.305	19.29
338.517	47.96
338.729	52.05
338.942	15.19
339.154	7
339.367	-11.43
339.579	37.72
339.792	19.29
340.004	13.14
340.217	45.91
340.429	-11.43
340.641	15.19
340.854	54.1
341.066	45.91
341.278	43.86
341.491	58.2
341.703	88.92
341.915	15.19
342.128	37.72
342.34	45.91
342.552	54.1
342.764	23.38
342.977	64.34
343.189	2.9
343.401	-3.24
343.613	19.29
343.826	17.24
344.038	11.09
344.25	13.14
344.462	62.29
344.674	13.14
344.886	45.91
345.099	66.39
345.311	-52.39
345.523	43.86
345.735	95.06
345.947	13.14
346.159	41.81
346.371	29.52
346.583	11.09
346.795	62.29
347.007	9.05
347.219	103.25
347.431	23.38
347.643	2.9
347.855	-48.3
348.067	64.34
348.279	43.86
348.491	105.3
348.703	45.91
348.915	0.85
349.127	68.44
349.339	33.62
349.551	41.81
349.763	54.1
349.975	-11.43
350.187	41.81
350.399	64.34
350.61	39.76
350.822	17.24
351.034	9.05
351.246	47.96
351.458	148.31
351.669	37.72
351.881	121.68
352.093	56.15
352.305	9.05
352.517	54.1
352.728	11.09
352.94	29.52
353.152	37.72
353.363	9.05
353.575	45.91
353.787	119.64
353.999	88.92
354.21	60.24
354.422	17.24
354.633	41.81
354.845	17.24
355.057	25.43
355.268	-40.11
355.48	37.72
355.692	-1.19
355.903	-31.91
356.115	2.9
356.326	33.62
356.538	17.24
356.749	15.19
356.961	37.72
357.172	21.33
357.384	-27.82
357.595	29.52
357.807	41.81
358.018	29.52
358.23	58.2
358.441	70.48
358.653	-15.53
358.864	39.76
359.075	47.96
359.287	41.81
359.498	84.82
359.709	45.91
359.921	50
360.132	2.9
360.344	37.72
360.555	52.05
360.766	47.96
360.977	56.15
361.189	37.72
361.4	-31.91
361.611	4.95
361.823	60.24
362.034	37.72
362.245	2.9
362.456	115.54
362.667	-29.87
362.879	37.72
363.09	93.01
363.301	154.45
363.512	76.63
363.723	-21.67
363.935	21.33
364.146	21.33
364.357	111.44
364.568	117.59
364.779	35.67
364.99	80.72
365.201	-66.73
365.412	72.53
365.623	31.57
365.834	25.43
366.045	2.9
366.256	50
366.467	4.95
366.678	41.81
366.889	33.62
367.1	45.91
367.311	86.87
367.522	13.14
367.733	70.48
367.944	78.68
368.155	43.86
368.366	136.02
368.577	37.72
368.788	68.44
368.999	54.1
369.209	72.53
369.42	64.34
369.631	52.05
369.842	60.24
370.053	88.92
370.264	17.24
370.474	-7.34
370.685	27.48
370.896	11.09
371.107	66.39
371.317	66.39
371.528	-19.63
371.739	19.29
371.95	35.67
372.16	78.68
372.371	37.72
372.582	-38.06
372.792	86.87
373.003	50
373.214	-19.63
373.424	41.81
373.635	-11.43
373.846	80.72
374.056	-33.96
374.267	9.05
374.477	47.96
374.688	31.57
374.898	2.9
375.109	39.76
375.319	23.38
375.53	80.72
375.74	47.96
375.951	136.02
376.161	11.09
376.372	72.53
376.582	29.52
376.793	15.19
377.003	66.39
377.214	56.15
377.424	23.38
377.635	31.57
377.845	-42.15
378.055	107.35
378.266	15.19
378.476	15.19
378.686	-3.24
378.897	17.24
379.107	-38.06
379.317	54.1
379.528	9.05
379.738	50
379.948	17.24
380.158	58.2
380.369	19.29
380.579	107.35
380.789	17.24
380.999	39.76
381.21	52.05
381.42	123.73
381.63	-9.39
381.84	54.1
382.05	74.58
382.261	88.92
382.471	41.81
382.681	27.48
382.891	76.63
383.101	47.96
383.311	25.43
383.521	-3.24
383.731	25.43
383.941	125.78
384.151	43.86
384.361	103.25
384.571	70.48
384.781	2.9
384.991	47.96
385.201	58.2
385.411	64.34
385.621	113.49
385.831	107.35
386.041	25.43
386.251	72.53
386.461	119.64
386.671	-3.24
386.881	54.1
387.091	-7.34
387.301	107.35
387.511	58.2
387.72	29.52
387.93	93.01
388.14	23.38
388.35	-40.11
388.56	11.09
388.769	43.86
388.979	76.63
389.189	19.29
389.399	4.95
389.609	19.29
389.818	43.86
390.028	156.5
390.238	35.67
390.447	-72.87
390.657	97.11
390.867	60.24
391.076	29.52
391.286	31.57
391.496	35.67
391.705	82.77
391.915	50
392.125	7
392.334	66.39
392.544	50
392.753	45.91
392.963	-3.24
393.172	17.24
393.382	7
393.591	111.44
393.801	39.76
394.01	90.96
394.22	62.29
394.429	97.11
394.639	25.43
394.848	66.39
395.058	29.52
395.267	107.35
395.477	50
395.686	103.25
395.895	72.53
396.105	9.05
396.314	72.53
396.524	56.15
396.733	54.1
396.942	158.55
397.152	54.1
397.361	56.15
397.57	64.34
397.78	74.58
397.989	109.4
398.198	107.35
398.407	111.44
398.617	95.06
398.826	39.76
399.035	88.92
399.244	111.44
399.453	50
399.663	95.06
399.872	201.55
400.081	64.34
400.29	162.64
400.499	95.06
400.708	129.88
400.917	70.48
401.127	90.96
401.336	74.58
401.545	189.27
401.754	115.54
401.963	115.54
402.172	88.92
402.381	95.06
402.59	76.63
402.799	138.07
403.008	170.83
403.217	140.12
403.426	101.2
403.635	111.44
403.844	107.35
404.053	142.16
404.262	142.16
404.471	183.12
404.68	136.02
404.888	219.99
405.097	138.07
405.306	144.21
405.515	234.32
405.724	95.06
405.933	199.51
406.142	90.96
406.35	181.07
406.559	107.35
406.768	43.86
406.977	191.31
407.185	109.4
407.394	170.83
407.603	117.59
407.812	236.37
408.02	234.32
408.229	265.04
408.438	185.17
408.646	209.75
408.855	189.27
409.064	303.95
409.272	246.61
409.481	275.28
409.69	283.47
409.898	217.94
410.107	297.81
410.315	297.81
410.524	258.9
410.733	328.53
410.941	299.86
411.15	312.14
411.358	320.34
411.567	353.1
411.775	398.16
411.984	353.1
412.192	445.26
412.401	379.73
412.609	537.42
412.818	418.64
413.026	447.31
413.234	529.23
413.443	369.49
413.651	432.97
413.86	533.33
414.068	615.24
414.276	527.18
414.485	588.62
414.693	600.91
414.901	621.39
415.11	568.14
415.318	633.68
415.526	635.72
415.734	684.87
415.943	740.17
416.151	787.27
416.359	813.9
416.567	795.47
416.776	799.56
416.984	836.42
417.192	942.92
417.4	934.73
417.608	881.48
417.817	936.78
418.025	1067.85
418.233	1020.74
418.441	1037.13
418.649	1133.38
418.857	1280.83
419.065	1131.33
419.273	1164.1
419.481	1231.68
419.689	1250.11
419.897	1358.66
420.105	1428.29
420.313	1428.29
420.521	1495.87
420.729	1477.44
420.937	1581.89
421.145	1641.28
421.353	1700.67
421.561	1876.79
421.769	1833.79
421.977	1872.7
422.185	1882.94
422.393	2032.44
422.601	2102.07
422.809	2108.21
423.017	2163.51
423.224	2200.37
423.432	2253.62
423.64	2292.53
423.848	2474.8
424.056	2317.11
424.263	2593.58
424.471	2601.77
424.679	2634.54
424.887	2837.29
425.094	2876.2
425.302	2829.1
425.51	3128.1
425.718	3128.1
425.925	3207.97
426.133	3226.4
426.341	3363.62
426.548	3418.91
426.756	3636
426.964	3633.95
427.171	3865.37
427.379	4051.74
427.586	3822.36
427.794	4016.92
428.001	4301.59
428.209	4657.93
428.417	4430.61
428.624	4786.96
428.832	4733.71
429.039	4619.02
429.247	4942.6
429.454	5149.45
429.662	5413.63
429.869	5169.93
430.076	5542.66
430.284	5462.79
430.491	5731.07
430.699	6003.45
430.906	5901.05
431.114	5948.15
431.321	6259.45
431.528	6281.97
431.736	6710
431.943	7164.65
432.15	6892.27
432.358	6916.84
432.565	7500.51
432.772	7357.16
432.979	7762.65
433.187	7883.49
433.394	7811.81
433.601	8321.75
433.808	8530.64
434.016	8444.63
434.223	8725.2
434.43	9159.37
434.637	9368.26
434.844	9513.67
435.052	9765.57
435.259	9659.07
435.466	9745.09
435.673	9581.25
435.88	10379.96
436.087	10932.91
436.294	11020.97
436.501	10586.8
436.708	10906.29
436.915	11201.19
437.122	11578.02
437.329	11858.59
437.537	12085.92
437.743	12237.47
437.95	12159.64
438.157	12839.57
438.364	13144.72
438.571	13220.49
438.778	13458.06
438.985	14606.97
439.192	13775.49
439.399	14342.78
439.606	14160.51
439.813	14959.22
440.02	15866.47
440.227	15684.2
440.433	15301.23
440.64	15848.04
440.847	15888.99
441.054	16204.38
441.261	17144.4
441.467	17039.95
441.674	17185.36
441.881	17750.6
442.088	17930.82
442.294	17766.98
442.501	18485.82
442.708	18516.54
442.914	19483.18
443.121	20150.82
443.328	19608.11
443.534	20933.14
443.741	20513.31
443.948	19776.04
444.154	21723.66
444.361	21463.57
444.568	21711.37
444.774	21758.47
444.981	21881.35
445.187	22430.21
445.394	23407.09
445.6	23087.61
445.807	25631.18
446.013	24320.48
446.22	24664.54
446.426	25610.7
446.633	25661.9
446.839	26667.45
447.046	25375.19
447.252	27144.63
447.459	26956.22
447.665	26878.4
447.871	28164.52
448.078	29272.47
448.284	27978.15
448.491	28748.19
448.697	29565.33
448.903	30392.71
449.11	30173.58
449.316	29737.36
449.522	30392.71
449.728	31164.79
449.935	31168.89
450.141	31232.38
450.347	31777.14
450.553	31062.4
450.76	31394.17
450.966	32190.83
451.172	31895.92
451.378	32801.12
451.584	32381.29
451.791	32776.55
451.997	32684.39
452.203	33390.94
452.409	33288.54
452.615	33233.24
452.821	31707.51
453.027	32018.8
453.233	33325.4
453.44	31893.87
453.646	32174.44
453.852	32063.85
454.058	32995.68
454.264	31924.59
454.47	32350.57
454.676	31558
454.882	32489.83
455.088	30001.55
455.294	30185.86
455.5	30531.97
455.705	31023.48
455.911	29796.75
456.117	28995.99
456.323	28590.5
456.529	27046.33
456.735	28375.46
456.941	27568.56
457.147	27062.71
457.352	26026.44
457.558	25774.54
457.764	26274.24
457.97	25610.7
458.176	25090.52
458.381	25289.17
458.587	23779.82
458.793	23644.65
458.999	22465.02
459.204	24107.49
459.41	23386.61
459.616	21983.75
459.821	21969.41
460.027	21950.98
460.233	21529.1
460.438	20288.03
460.644	20718.11
460.85	19546.67
461.055	19247.66
461.261	19415.6
461.466	17873.48
461.672	17132.11
461.878	18518.59
462.083	17529.42
462.289	17097.3
462.494	16980.56
462.7	16151.13
462.905	15639.14
463.111	16409.18
463.316	16433.75
463.522	16222.81
463.727	15886.95
463.932	15950.43
464.138	15696.49
464.343	15725.16
464.549	15370.86
464.754	15923.81
464.959	15776.36
465.165	15682.15
465.37	15172.21
465.575	14545.53
465.781	15159.92
465.986	15379.05
466.191	14850.67
466.397	14441.08
466.602	13462.15
466.807	14379.64
467.012	14166.65
467.218	14277.24
467.423	13990.53
467.628	14299.77
467.833	14631.54
468.038	14078.59
468.244	13826.69
468.449	14404.22
468.654	13701.76
468.859	13640.33
469.064	13642.37
469.269	13068.94
469.474	13468.3
469.679	13458.06
469.885	12870.29
470.09	13269.64
470.295	13060.75
470.5	12864.15
470.705	12812.95
470.91	12690.07
471.115	12546.71
471.32	12941.97
471.525	12720.79
471.73	12495.51
471.935	12300.95
472.139	11829.92
472.344	11897.5
472.549	11952.8
472.754	11971.23
472.959	11672.23
473.164	11311.78
473.369	11340.46
473.574	11561.64
473.778	11420.33
473.983	11387.56
474.188	11373.22
474.393	10748.59
474.598	10922.67
474.802	10767.03
475.007	10615.48
475.212	10650.29
475.417	10009.28
475.621	10316.47
475.826	10246.84
476.031	9941.69
476.235	10148.54
476.44	10119.87
476.645	9740.99
476.849	9810.62
477.054	9740.99
477.259	9644.74
477.463	9599.68
477.668	9263.82
477.872	9495.24
478.077	9448.13
478.282	9237.19
478.486	9136.84
478.691	9026.25
478.895	8870.61
479.1	8997.58
479.304	8805.07
479.509	8973
479.713	8987.34
479.918	8504.02
480.122	8301.27
480.326	8690.38
480.531	8809.17
480.735	8676.05
480.94	8434.39
481.144	8786.64
481.348	8342.23
481.553	8434.39
481.757	8067.8
481.961	8438.48
482.166	8618.71
482.37	8307.41
482.574	8233.69
482.778	8194.78
482.983	8405.72
483.187	8233.69
483.391	8266.46
483.595	8336.09
483.8	8049.37
484.004	8340.18
484.208	8366.81
484.412	8250.07
484.616	8331.99
484.821	8200.92
485.025	8235.74
485.229	8506.07
485.433	8303.32
485.637	8145.63
485.841	8241.88
486.045	7936.73
486.249	8082.14
486.453	8342.23
486.657	8229.59
486.861	8340.18
487.065	7971.55
487.269	8344.28
487.473	8012.51
487.677	8252.12
487.881	8360.66
488.085	8319.7
488.289	8438.48
488.493	8252.12
488.697	8520.4
488.901	8481.49
489.105	8194.78
489.309	8534.74
489.512	8381.14
489.716	8225.5
489.92	8299.22
490.124	8245.98
490.328	8491.73
490.531	8557.27
490.735	8622.8
490.939	8415.96
491.143	8547.03
491.346	8440.53
491.55	8575.7
491.754	8528.6
491.958	8630.99
492.161	8639.19
492.365	8780.5
492.569	8602.32
492.772	8886.99
492.976	8674
493.18	8903.37
493.383	8991.44
493.587	8940.24
493.79	9079.5
493.994	8979.15
494.197	9169.61
494.401	8958.67
494.605	9343.69
494.808	9503.43
495.012	9204.42
495.215	9282.25
495.419	9560.77
495.622	9452.23
495.825	9542.34
496.029	9689.79
496.232	9673.41
496.436	9724.61
496.639	10027.71
496.843	9784
497.046	10070.72
497.249	10175.16
497.453	10277.56
497.656	10635.96
497.859	10295.99
498.063	10619.57
498.266	10678.96
498.469	10697.39
498.673	10850.99
498.876	10908.33
499.079	11207.34
499.282	11045.55
499.485	11518.63
499.689	11506.34
499.892	11438.76
500.095	11762.34
500.298	11842.21
500.501	11852.45
500.705	11932.32
500.908	12124.83
501.111	12155.55
501.314	12776.08
501.517	12796.56
501.72	12946.06
501.923	12710.55
502.126	12974.74
502.329	13290.12
502.532	13173.39
502.735	13542.02
502.938	13714.05
503.141	13673.09
503.344	13914.75
503.547	13951.62
503.75	14180.99
503.953	14414.46
504.156	14428.79
504.359	14520.95
504.562	14662.26
504.765	14910.07
504.968	14946.93
505.17	15047.28
505.373	15164.01
505.576	15850.08
505.779	16071.26
505.982	15778.4
506.185	16511.58
506.387	16247.39
506.59	16392.8
506.793	16865.88
506.996	16724.57
507.198	17201.74
507.401	17099.34
507.604	17095.25
507.807	17633.86
508.009	17640.01
508.212	17652.3
508.415	17908.29
508.617	18266.69
508.82	18135.62
509.022	18240.06
509.225	18913.84
509.428	19046.96
509.63	19149.36
509.833	19071.54
510.035	19434.03
510.238	19548.72
510.44	19868.2
510.643	20232.74
510.845	20234.78
511.048	20116
511.25	20494.88
511.453	20707.87
511.655	21324.3
511.858	21039.64
512.06	21170.71
512.262	21352.98
512.465	21531.15
512.667	22014.47
512.87	22028.81
513.072	22194.69
513.274	22370.82
513.477	22999.54
513.679	22798.84
513.881	23165.43
514.084	23235.06
514.286	23484.91
514.488	23687.66
514.69	24283.62
514.893	24027.62
515.095	24445.41
515.297	24891.87
515.499	24869.34
515.701	25338.32
515.904	25350.61
516.106	25217.49
516.308	25969.1
516.51	26010.06
516.712	26106.31
516.914	26458.56
517.116	26651.07
517.318	26749.37
517.52	27023.8
517.722	27179.45
517.925	27677.1
518.127	27840.94
518.329	27683.25
518.531	28152.23
518.733	28633.5
518.935	28744.09
519.136	28520.87
519.338	29407.64
519.54	29426.07
519.742	29790.61
519.944	29473.17
520.146	30005.64
520.348	30542.21
520.55	30491.01
520.752	30611.84
520.954	30996.86
521.155	31097.21
521.357	31310.2
521.559	31764.85
521.761	32151.91
521.963	32182.63
522.164	32350.57
522.366	32379.24
522.568	32328.04
522.77	32866.66
522.971	33331.54
523.173	32844.13
523.375	33266.01
523.576	33767.76
523.778	33759.57
523.98	33880.4
524.181	34175.31
524.383	34326.86
524.584	34707.78
524.786	34996.54
524.988	34492.74
525.189	34955.58
525.391	35240.25
525.592	35266.88
525.794	35739.96
525.995	35725.62
526.197	35658.04
526.398	36041.01
526.6	36297
526.801	36600.1
527.003	36544.81
527.204	36137.26
527.406	36772.13
527.607	37017.89
527.808	37364
528.01	36739.36
528.211	36852
528.412	37435.67
528.614	37673.24
528.815	37470.49
529.016	38222.09
529.218	37605.66
529.419	38019.35
529.62	37841.17
529.822	37820.69
530.023	37792.02
530.224	38164.75
530.425	38125.84
530.626	37695.77
530.828	37673.24
531.029	39037.19
531.23	38433.03
531.431	38453.51
531.632	38580.49
531.833	38488.33
532.035	38643.98
532.236	38062.35
532.437	39151.87
532.638	38160.66
532.839	39082.24
533.04	39348.48
533.241	38064.4
533.442	39254.27
533.643	39512.31
533.844	38750.47
534.045	39524.6
534.246	38365.45
534.447	38918.4
534.648	39008.51
534.849	39479.55
535.05	38865.16
535.251	39031.04
535.451	39072
535.652	39143.68
535.853	38936.84
536.054	39000.32
536.255	39221.5
536.456	38826.24
536.657	39833.85
536.857	39014.66
537.058	38963.46
537.259	39862.52
537.46	39182.59
537.66	38854.92
537.861	39241.98
538.062	39045.38
538.263	39207.17
538.463	38908.16
538.664	39123.2
538.865	39198.98
539.065	39452.92
539.266	39194.88
539.466	39637.24
539.667	38713.61
539.868	39231.74
540.068	38863.11
540.269	39096.58
540.469	39610.62
540.67	38820.1
540.87	39176.45
541.071	39002.37
541.271	38889.73
541.472	39252.22
541.672	39180.54
541.873	38906.12
542.073	38553.87
542.274	39182.59
542.474	39063.81
542.675	38824.2
542.875	39143.68
543.075	38873.35
543.276	38807.81
543.476	39168.26
543.676	38666.5
543.877	39192.83
544.077	38871.3
544.277	38773
544.478	38828.29
544.678	38938.88
544.878	38648.07
545.078	38803.72
545.279	38779.14
545.479	38859.01
545.679	38932.74
545.879	38789.38
546.079	38721.8
546.28	38603.02
546.48	38330.64
546.68	38678.79
546.88	38887.68
547.08	39153.92
547.28	38820.1
547.48	38734.09
547.68	38818.05
547.88	38512.91
548.081	38844.68
548.281	38717.7
548.481	38506.76
548.681	38977.79
548.881	38789.38
549.081	38764.81
549.28	38506.76
549.48	38807.81
549.68	38232.33
549.88	39115.01
550.08	38199.57
550.28	38623.5
550.48	38637.83
550.68	38869.25
550.88	38410.51
551.08	38490.38
551.279	38377.74
551.479	38181.13
551.679	38725.89
551.879	38043.92
552.079	38713.61
552.278	38236.43
552.478	38357.26
552.678	38566.15
552.878	38562.06
553.077	38086.93
553.277	38017.3
553.477	38246.67
553.676	38297.87
553.876	38240.53
554.076	38355.21
554.275	37962
554.475	37736.73
554.674	38312.2
554.874	38197.52
555.074	37882.13
555.273	38320.4
555.473	38398.22
555.672	37789.97
555.872	37937.43
556.071	38107.41
556.271	38301.96
556.47	37441.82
556.67	37462.3
556.869	37554.46
557.068	37845.27
557.268	37658.9
557.467	37665.05
557.667	37396.76
557.866	37652.76
558.065	37568.79
558.265	37052.7
558.464	37165.34
558.663	37353.76
558.863	37085.47
559.062	37556.5
559.261	37036.32
559.461	37636.38
559.66	36821.28
559.859	36964.64
560.058	36618.53
560.258	36962.59
560.457	36718.89
560.656	36960.55
560.855	36448.55
561.054	36899.11
561.253	36190.51
561.453	36520.23
561.652	36473.13
561.851	36686.12
562.05	35995.95
562.249	36249.9
562.448	36481.32
562.647	36460.84
562.846	36182.32
563.045	36227.37
563.244	35457.34
563.443	36604.2
563.642	35430.71
563.841	35993.9
564.04	36094.25
564.239	35901.75
564.438	35287.35
564.637	35584.31
564.836	35686.71
565.035	35187
565.234	35125.57
565.432	35359.03
565.631	35088.7
565.83	35359.03
566.029	34867.52
566.228	34779.46
566.427	35219.77
566.625	34623.81
566.824	34310.47
567.023	34838.85
567.222	34128.2
567.42	34734.4
567.619	34431.3
567.818	34189.64
568.016	34206.03
568.215	34521.41
568.414	34134.35
568.612	34603.33
568.811	34091.34
569.01	34099.53
569.208	33569.11
569.407	34197.84
569.605	33417.56
569.804	34025.81
570.002	33143.13
570.201	33515.86
570.4	33042.78
570.598	33200.47
570.797	33028.45
570.995	33364.31
571.193	32934.24
571.392	33089.88
571.59	32500.07
571.789	32942.43
571.987	32086.38
572.186	32399.72
572.384	32325.99
572.582	32678.24
572.781	32344.42
572.979	31934.83
573.177	32420.2
573.376	32174.44
573.574	31895.92
573.772	32080.24
573.971	31873.39
574.169	31531.38
574.367	31297.91
574.565	31867.25
574.763	31275.38
574.962	31353.21
575.16	31140.22
575.358	31242.62
575.556	30792.06
575.754	31304.06
575.952	30943.61
576.151	31273.34
576.349	30704
576.547	30939.52
576.745	31097.21
576.943	30751.1
577.141	30654.85
577.339	30497.16
577.537	30683.52
577.735	30646.66
577.933	30304.65
578.131	30222.73
578.329	30136.71
578.527	29903.25
578.725	29663.63
578.923	30302.6
579.121	29729.17
579.319	29925.77
579.516	29624.72
579.714	29729.17
579.912	29323.67
580.11	29276.57
580.308	29540.75
580.506	29329.81
580.704	28760.48
580.901	29329.81
581.099	28887.45
581.297	29112.73
581.495	28893.6
581.692	29331.86
581.89	28639.65
582.088	28850.59
582.285	28750.24
582.483	28795.29
582.681	28441
582.878	28604.83
583.076	28314.02
583.274	28314.02
583.471	27820.46
583.669	28340.64
583.866	27867.56
584.064	28131.75
584.262	27711.92
584.459	27992.49
584.657	27541.94
584.854	27898.28
585.052	27314.61
585.249	27662.77
585.447	27658.67
585.644	27249.08
585.841	27537.84
586.039	27050.42
586.236	27060.66
586.434	27044.28
586.631	26845.63
586.828	26999.23
587.026	26950.07
587.223	26872.25
587.42	26313.16
587.618	26888.64
587.815	26520
588.012	26591.68
588.21	26235.33
588.407	26624.45
588.604	26173.89
588.801	26141.13
588.999	26221
589.196	26194.37
589.393	25840.08
589.59	26018.25
589.787	25729.48
589.984	25938.38
590.182	25772.49
590.379	25774.54
590.576	25608.65
590.773	25582.03
590.97	25342.42
591.167	25407.95
591.364	25330.13
591.561	25344.47
591.758	25033.18
591.955	25207.25
592.152	25264.6
592.349	24977.88
592.546	24900.06
592.743	24668.64
592.94	24668.64
593.137	24629.73
593.334	24533.47
593.531	24334.82
593.727	24433.12
593.924	24445.41
594.121	24250.85
594.318	24271.33
594.515	24166.88
594.712	24396.26
594.908	23788.01
595.105	24136.17
595.302	23679.47
595.499	23851.5
595.696	23568.88
595.892	23394.8
596.089	23671.28
596.286	23757.29
596.482	23448.05
596.679	23339.51
596.876	23034.36
597.072	23060.98
597.269	23341.55
597.466	22927.86
597.662	22655.48
597.859	22673.92
598.055	22878.71
598.252	22827.51
598.448	22598.14
598.645	22444.54
598.841	22643.2
599.038	22434.3
599.234	22446.59
599.431	22229.51
599.627	22309.38
599.824	22487.55
600.02	22022.66
600.217	22483.45
600.413	22327.81
600.609	21922.31
600.806	21959.17
601.002	22000.13
601.198	21797.38
601.395	21824.01
601.591	21432.85
601.787	21703.18
601.984	21477.9
602.18	21629.45
602.376	21525
602.572	21377.55
602.769	21355.02
602.965	20904.47
603.161	21297.68
603.357	21072.4
603.553	21203.47
603.75	21056.02
603.946	20857.37
604.142	21230.1
604.338	20615.71
604.534	20754.97
604.73	20589.08
604.926	20525.6
605.122	20802.07
605.318	20605.47
605.514	20396.57
605.71	20333.09
605.906	20308.51
606.102	20507.16
606.298	20361.76
606.494	20318.75
606.69	20328.99
606.886	20159.01
607.082	19866.15
607.278	20265.5
607.474	19794.47
607.67	20056.61
607.866	19647.02
608.062	19925.54
608.257	19700.26
608.453	19685.93
608.649	19487.28
608.845	19423.79
609.041	19364.4
609.236	19571.24
609.432	19229.23
609.628	19651.11
609.824	19395.12
610.019	19077.68
610.215	19235.38
610.411	19135.03
610.606	18991.67
610.802	19202.61
610.998	19100.21
611.193	19110.45
611.389	18661.94
611.584	18735.67
611.78	18676.28
611.976	18889.27
612.171	19059.25
612.367	18809.4
612.562	19063.35
612.758	19026.48
612.953	18612.79
613.149	18684.47
613.344	18346.56
613.539	18807.35
613.735	18657.85
613.93	18504.25
614.126	18545.21
614.321	18580.03
614.517	18537.02
614.712	18248.25
614.907	18207.3
615.103	18487.87
615.298	18178.62
615.493	18436.67
615.688	18106.95
615.884	18438.72
616.079	18008.64
616.274	18260.54
616.47	18029.12
616.665	17781.32
616.86	18018.88
617.055	17951.3
617.25	17859.14
617.445	17785.41
617.641	17879.62
617.836	17877.57
618.031	17480.27
618.226	17740.36
618.421	17519.18
618.616	17994.31
618.811	17279.57
619.006	17924.68
619.201	17271.37
619.396	17449.55
619.591	16970.32
619.786	17402.44
619.981	16996.95
620.176	17234.51
620.371	16859.73
620.566	16935.51
620.761	16874.07
620.956	17035.86
621.151	16536.15
621.346	16743
621.541	16644.7
621.735	16640.6
621.93	16415.32
622.125	16437.85
622.32	16138.85
622.515	16142.94
622.709	16040.54
622.904	15956.58
623.099	15905.38
623.294	15862.37
623.488	15555.18
623.683	15766.12
623.878	15628.9
624.072	15589.99
624.267	15299.18
624.462	15360.62
624.656	15331.95
624.851	15422.06
625.046	15104.62
625.24	15389.29
625.435	14875.25
625.629	14991.98
625.824	14959.22
626.018	14938.74
626.213	14434.94
626.407	14627.45
626.602	14252.67
626.796	14432.89
626.991	14596.73
627.185	14348.92
627.38	14101.12
627.574	14275.2
627.768	13912.71
627.963	14111.36
628.157	13769.35
628.352	13992.58
628.546	13818.5
628.74	14043.78
628.935	13625.99
629.129	13484.68
629.323	13617.8
629.517	13511.3
629.712	13314.7
629.906	13335.18
630.1	13075.09
630.294	13085.33
630.489	12972.69
630.683	13021.84
630.877	12933.78
631.071	12702.36
631.265	12591.77
631.459	12595.86
631.653	12710.55
631.848	12776.08
632.042	12487.32
632.236	12462.74
632.43	12397.21
632.624	12489.37
632.818	12346.01
633.012	12221.08
633.206	12194.46
633.4	12292.76
633.594	11928.22
633.788	12122.78
633.982	12014.24
634.176	11973.28
634.369	11727.52
634.563	11653.8
634.757	11530.92
634.951	11575.97
635.145	11455.14
635.339	11625.12
635.533	11317.93
635.726	11119.28
635.92	11246.25
636.114	11106.99
636.308	11217.58
636.501	11152.04
636.695	11104.94
636.889	10926.77
637.083	10902.19
637.276	10967.73
637.47	10676.91
637.664	10607.28
637.857	10760.88
638.051	10644.15
638.244	10537.65
638.438	10558.13
638.632	10437.3
638.825	10287.8
639.019	10431.16
639.212	10281.66
639.406	10214.07
639.599	10269.37
639.793	10044.09
639.986	10003.13
640.18	10130.11
640.373	10021.56
640.567	9763.52
640.76	9626.31
640.954	9884.35
641.147	9566.92
641.34	9714.37
641.534	9759.42
641.727	9566.92
641.92	9681.6
642.114	9312.97
642.307	9650.88
642.5	9474.76
642.694	9427.65
642.887	9153.23
643.08	9409.22
643.273	9204.42
643.467	9157.32
643.66	9140.94
643.853	8938.19
644.046	9001.68
644.239	8954.57
644.432	8944.33
644.626	8667.86
644.819	8788.69
645.012	8811.21
645.205	8766.16
645.398	8727.25
645.591	8641.23
645.784	8645.33
645.977	8467.16
646.17	8389.33
646.363	8557.27
646.556	8327.89
646.749	8461.01
646.942	8356.57
647.135	8243.93
647.328	8125.15
647.521	8202.97
647.714	8073.95
647.907	8260.31
648.099	8119
648.292	8114.91
648.485	7908.06
648.678	7895.77
648.871	7965.4
649.064	7758.56
649.256	7865.05
649.449	7719.65
649.642	7822.05
649.835	7779.04
650.027	7707.36
650.22	7598.82
650.413	7561.95
650.605	7733.98
650.798	7625.44
650.991	7547.62
651.183	7570.15
651.376	7418.6
651.568	7512.8
651.761	7303.91
651.954	7324.39
652.146	7394.02
652.339	7119.59
652.531	7144.17
652.724	7144.17
652.916	6998.76
653.109	7123.69
653.301	7054.06
653.494	7199.46
653.686	6814.45
653.879	6968.04
654.071	7054.06
654.263	6904.56
654.456	6820.59
654.648	6945.52
654.84	6714.09
655.033	6636.27
655.225	6617.84
655.417	6621.94
655.61	6595.31
655.802	6591.22
655.994	6437.62
656.186	6591.22
656.379	6404.85
656.571	6386.42
656.763	6335.22
656.955	6228.73
657.148	6367.99
657.34	6359.8
657.532	6208.25
657.724	6306.55
657.916	6198.01
658.108	6202.1
658.3	6087.42
658.492	6048.51
658.684	6077.18
658.876	5923.58
659.068	5792.51
659.26	5724.93
659.452	5878.52
659.644	6085.37
659.836	5837.56
660.028	6009.59
660.22	5765.89
660.412	5776.13
660.604	5579.52
660.796	5645.06
660.988	5882.62
661.18	5481.22
661.372	5538.56
661.563	5632.77
661.755	5671.68
661.947	5497.6
662.139	5561.09
662.331	5528.32
662.522	5344
662.714	5550.85
662.906	5501.7
663.097	5405.44
663.289	5358.34
663.481	5411.59
663.673	5487.36
663.864	5280.52
664.056	5270.28
664.247	5155.59
664.439	5284.61
664.631	5210.89
664.822	5085.96
665.014	5045
665.205	5155.59
665.397	4981.51
665.588	4995.85
665.78	4948.75
665.971	5126.92
666.163	4875.02
666.354	4981.51
666.546	4928.27
666.737	4846.35
666.929	4842.25
667.12	4866.83
667.311	4688.65
667.503	4836.11
667.694	4676.37
667.885	4829.96
668.077	4694.8
668.268	4739.85
668.459	4719.37
668.651	4668.17
668.842	4735.76
669.033	4698.89
669.224	4580.11
669.416	4649.74
669.607	4422.42
669.798	4516.62
669.989	4639.5
670.18	4395.79
670.371	4512.53
670.563	4535.06
670.754	4518.67
670.945	4420.37
671.136	4438.8
671.327	4338.45
671.518	4363.03
671.709	4262.68
671.9	4453.14
672.091	4369.17
672.282	4209.43
672.473	4129.56
672.664	4178.71
672.855	4420.37
673.046	4383.51
673.237	4326.16
673.428	4191
673.619	4281.11
673.809	4147.99
674	4217.62
674.191	4191
674.382	4107.03
674.573	4094.74
674.764	4102.93
674.954	4074.26
675.145	4084.5
675.336	4061.98
675.527	3908.38
675.717	3986.2
675.908	3891.99
676.099	4074.26
676.289	3887.9
676.48	4154.13
676.671	3822.36
676.861	3793.69
677.052	3965.72
677.243	3943.19
677.433	3896.09
677.624	4004.63
677.814	3828.51
678.005	3867.42
678.195	3865.37
678.386	3855.13
678.576	3746.59
678.767	3820.32
678.957	3726.11
679.148	3752.73
679.338	3844.89
679.529	3738.4
679.719	3826.46
679.909	3779.36
680.1	3855.13
680.29	3644.19
680.481	3801.88
680.671	3703.58
680.861	3685.15
681.052	3760.92
681.242	3570.46
681.432	3568.41
681.622	3676.96
681.813	3707.68
682.003	3633.95
682.193	3611.42
682.383	3691.29
682.573	3709.72
682.764	3543.84
682.954	3695.39
683.144	3552.03
683.334	3599.13
683.524	3615.52
683.714	3541.79
683.904	3443.49
684.094	3599.13
684.284	3601.18
684.474	3556.13
684.664	3664.67
684.854	3474.21
685.044	3515.17
685.234	3402.53
685.424	3597.09
685.614	3539.74
685.804	3543.84
685.994	3455.78
686.184	3496.74
686.374	3447.58
686.564	3363.62
686.753	3265.32
686.943	3390.24
687.133	3410.72
687.323	3326.75
687.513	3361.57
687.702	3332.9
687.892	3334.95
688.082	3220.26
688.272	3373.86
688.461	3179.3
688.651	3355.43
688.841	3240.74
689.03	3199.78
689.22	3144.49
689.41	3279.65
689.599	3316.51
689.789	3173.16
689.979	3126.05
690.168	3105.57
690.358	3109.67
690.547	3011.37
690.737	3019.56
690.926	2951.98
691.116	3054.37
691.305	3101.48
691.495	2988.84
691.684	2956.07
691.874	3021.61
692.063	3023.66
692.252	3078.95
692.442	2988.84
692.631	2982.7
692.82	2945.83
693.01	2857.77
693.199	2829.1
693.388	2915.11
693.578	2863.91
693.767	2896.68
693.956	2898.73
694.146	2886.44
694.335	2884.39
694.524	2880.3
694.713	2773.8
694.902	2929.45
695.092	2818.86
695.281	2882.35
695.47	2822.95
695.659	2693.93
695.848	2753.32
696.037	2689.84
696.226	2681.64
696.415	2679.6
696.604	2753.32
696.793	2685.74
696.982	2710.32
697.171	2777.9
697.36	2755.37
697.549	2741.04
697.738	2599.73
697.927	2626.35
698.116	2716.46
698.305	2673.45
698.494	2636.59
698.683	2671.4
698.872	2589.49
699.061	2788.14
699.25	2581.29
699.438	2724.65
699.627	2667.31
699.816	2667.31
700.005	2597.68
700.193	2669.36
700.382	2738.99
700.571	2673.45
700.76	2685.74
700.948	2755.37
701.137	2642.73
701.326	2677.55
701.514	2519.85
701.703	2575.15
701.892	2575.15
702.08	2734.89
702.269	2726.7
702.457	2652.97
702.646	2603.82
702.834	2614.06
703.023	2630.45
703.212	2601.77
703.4	2579.25
703.589	2663.21
703.777	2640.69
703.965	2618.16
704.154	2591.53
704.342	2620.21
704.531	2542.38
704.719	2562.86
704.907	2708.27
705.096	2638.64
705.284	2495.28
705.472	2587.44
705.661	2554.67
705.849	2630.45
706.037	2476.85
706.226	2646.83
706.414	2636.59
706.602	2550.57
706.79	2648.88
706.979	2519.85
707.167	2581.29
707.355	2523.95
707.543	2534.19
707.731	2581.29
707.919	2538.29
708.107	2499.38
708.296	2503.47
708.484	2452.27
708.672	2620.21
708.86	2497.33
709.048	2472.75
709.236	2472.75
709.424	2507.57
709.612	2521.9
709.8	2554.67
709.988	2452.27
710.176	2515.76
710.364	2616.11
710.551	2581.29
710.739	2538.29
710.927	2530.09
711.115	2577.2
711.303	2464.56
711.491	2444.08
711.679	2515.76
711.866	2509.62
712.054	2433.84
712.242	2499.38
712.43	2499.38
712.617	2566.96
712.805	2439.98
712.993	2577.2
713.181	2509.62
713.368	2589.49
713.556	2528.05
713.744	2456.37
713.931	2478.9
714.119	2560.81
714.306	2472.75
714.494	2507.57
714.682	2444.08
714.869	2415.41
715.057	2489.14
715.244	2489.14
715.432	2460.46
715.619	2409.26
715.807	2437.94
715.994	2403.12
716.182	2544.43
716.369	2536.24
716.556	2540.33
716.744	2534.19
716.931	2569.01
717.119	2435.89
717.306	2538.29
717.493	2474.8
717.681	2507.57
717.868	2435.89
718.055	2493.23
718.242	2466.61
718.43	2411.31
718.617	2476.85
718.804	2351.92
718.991	2429.74
719.179	2442.03
719.366	2384.69
719.553	2417.46
719.74	2415.41
719.927	2454.32
720.114	2327.35
720.301	2388.78
720.488	2468.66
720.676	2403.12
720.863	2362.16
721.05	2448.18
721.237	2493.23
721.424	2444.08
721.611	2476.85
721.798	2335.54
721.985	2493.23
722.172	2347.83
722.358	2384.69
722.545	2431.79
722.732	2433.84
722.919	2491.18
723.106	2337.59
723.293	2337.59
723.48	2431.79
723.667	2460.46
723.853	2390.83
724.04	2429.74
724.227	2485.04
724.414	2351.92
724.6	2331.44
724.787	2466.61
724.974	2439.98
725.161	2466.61
725.347	2270
725.534	2468.66
725.72	2388.78
725.907	2323.25
726.094	2376.5
726.28	2435.89
726.467	2411.31
726.653	2403.12
726.84	2368.31
727.027	2460.46
727.213	2372.4
727.4	2364.21
727.586	2319.15
727.773	2450.22
727.959	2491.18
728.145	2458.42
728.332	2341.68
728.518	2435.89
728.705	2425.65
728.891	2411.31
729.077	2401.07
729.264	2399.02
729.45	2360.11
729.636	2321.2
729.823	2507.57
730.009	2335.54
730.195	2491.18
730.382	2415.41
730.568	2417.46
730.754	2380.59
730.94	2513.71
731.126	2429.74
731.313	2409.26
731.499	2298.67
731.685	2390.83
731.871	2325.3
732.057	2501.42
732.243	2339.63
732.429	2380.59
732.615	2409.26
732.801	2411.31
732.987	2425.65
733.173	2419.5
733.359	2327.35
733.545	2329.39
733.731	2370.35
733.917	2468.66
734.103	2362.16
734.289	2382.64
734.475	2396.98
734.661	2382.64
734.847	2323.25
735.033	2308.91
735.219	2265.91
735.404	2351.92
735.59	2302.77
735.776	2323.25
735.962	2276.15
736.148	2353.97
736.333	2419.5
736.519	2409.26
736.705	2360.11
736.89	2401.07
737.076	2292.53
737.262	2270
737.447	2233.14
737.633	2407.22
737.819	2265.91
738.004	2290.48
738.19	2282.29
738.375	2259.76
738.561	2310.96
738.747	2270
738.932	2241.33
739.118	2294.58
739.303	2237.24
739.489	2237.24
739.674	2298.67
739.859	2177.84
740.045	2214.71
740.23	2218.8
740.416	2147.12
740.601	2241.33
740.786	2183.99
740.972	2179.89
741.157	2261.81
741.342	2372.4
741.528	2337.59
741.713	2227
741.898	2048.82
742.084	2286.39
742.269	2136.88
742.454	2198.32
742.639	2235.19
742.824	2126.64
743.01	2134.84
743.195	2181.94
743.38	2145.08
743.565	2130.74
743.75	2118.45
743.935	2118.45
744.12	2161.46
744.305	2059.06
744.49	1989.43
744.675	1919.8
744.86	2069.3
745.045	2104.12
745.23	2052.92
745.415	2009.91
745.6	2067.25
745.785	2149.17
745.97	2020.15
746.155	2057.01
746.34	1938.23
746.525	1897.27
746.71	2009.91
746.895	1876.79
747.079	1907.51
747.264	1958.71
747.449	1848.12
747.634	1991.48
747.819	1792.83
748.003	1846.07
748.188	1887.03
748.373	1866.55
748.557	1831.74
748.742	1794.87
748.927	1807.16
749.111	1878.84
749.296	1805.11
749.481	1897.27
749.665	1737.53
749.85	1788.73
750.034	1784.63
750.219	1749.82
750.404	1758.01
750.588	1844.03
750.773	1786.68
750.957	1815.35
751.141	1659.71
751.326	1633.08
751.51	1676.09
751.695	1690.43
751.879	1602.36
752.064	1729.34
752.248	1565.5
752.432	1663.8
752.617	1659.71
752.801	1639.23
752.985	1524.54
753.17	1653.56
753.354	1504.06
753.538	1647.42
753.722	1526.59
753.907	1540.93
754.091	1522.49
754.275	1491.77
754.459	1514.3
754.643	1483.58
754.828	1563.45
755.012	1452.86
755.196	1506.11
755.38	1497.92
755.564	1432.38
755.748	1352.51
755.932	1471.29
756.116	1372.99
756.3	1389.38
756.484	1393.47
756.668	1358.66
756.852	1303.36
757.036	1407.81
757.22	1358.66
757.404	1379.14
757.588	1270.59
757.772	1385.28
757.956	1379.14
758.14	1416
758.323	1246.02
758.507	1356.61
758.691	1286.98
758.875	1231.68
759.059	1207.11
759.242	1239.87
759.426	1291.07
759.61	1248.07
759.794	1248.07
759.977	1215.3
760.161	1295.17
760.345	1366.85
760.528	1321.79
760.712	1254.21
760.895	1168.2
761.079	1297.22
761.263	1192.77
761.446	1207.11
761.63	1160
761.813	1160
761.997	1145.67
762.18	1211.2
762.364	1117
762.547	1153.86
762.731	1104.71
762.914	1172.29
763.098	1086.28
763.281	1188.68
763.464	1160
763.648	1203.01
763.831	1227.59
764.015	1078.08
764.198	1168.2
764.381	1094.47
764.564	1035.08
764.748	1069.89
764.931	1153.86
765.114	1127.24
765.297	1035.08
765.481	1020.74
765.664	1020.74
765.847	1051.46
766.03	1073.99
766.213	981.83
766.397	955.21
766.58	1012.55
766.763	1098.56
766.946	981.83
767.129	994.12
767.312	985.93
767.495	1067.85
767.678	938.82
767.861	1037.13
768.044	1055.56
768.227	947.01
768.41	951.11
768.593	1106.76
768.776	920.39
768.959	987.97
769.142	922.44
769.324	1051.46
769.507	908.1
769.69	938.82
769.873	924.49
770.056	963.4
770.239	887.62
770.421	1014.6
770.604	928.58
770.787	938.82
770.97	936.78
771.152	920.39
771.335	947.01
771.518	944.97
771.7	893.77
771.883	936.78
772.066	895.82
772.248	811.85
772.431	875.34
772.613	832.33
772.796	807.75
772.978	889.67
773.161	922.44
773.343	938.82
773.526	789.32
773.708	817.99
773.891	807.75
774.073	834.38
774.256	779.08
774.438	824.14
774.621	863.05
774.803	799.56
774.985	869.19
775.168	754.51
775.35	779.08
775.532	811.85
775.715	797.51
775.897	820.04
776.079	856.9
776.261	789.32
776.444	815.94
776.626	695.11
776.808	770.89
776.99	787.27
777.173	766.79
777.355	619.34
777.537	703.31
777.719	725.83
777.901	699.21
778.083	664.4
778.265	752.46
778.447	766.79
778.629	639.82
778.811	699.21
778.993	648.01
779.175	717.64
779.357	639.82
779.539	674.64
779.721	699.21
779.903	643.92
780.085	635.72
780.267	600.91
780.449	641.87
780.631	615.24
780.812	658.25
780.994	586.57
781.176	629.58
781.358	566.09
781.54	510.8
781.721	543.57
781.903	668.49
782.085	553.8
782.267	545.61
782.448	541.52
782.63	611.15
782.812	619.34
782.993	570.19
783.175	570.19
783.357	521.04
783.538	535.37
783.72	457.55
783.901	648.01
784.083	527.18
784.264	578.38
784.446	506.7
784.627	486.22
784.809	494.41
784.99	535.37
785.172	502.61
785.353	498.51
785.535	553.8
785.716	484.17
785.897	494.41
786.079	506.7
786.26	414.54
786.441	512.85
786.623	424.78
786.804	447.31
786.985	492.37
787.167	461.65
787.348	437.07
787.529	516.94
787.71	449.36
787.891	516.94
788.073	365.39
788.254	447.31
788.435	461.65
788.616	402.26
788.797	428.88
788.978	420.69
789.159	492.37
789.34	461.65
789.522	351.06
789.703	414.54
789.884	424.78
790.065	400.21
790.246	457.55
790.427	394.06
790.607	412.5
790.788	387.92
790.969	306
791.15	418.64
791.331	369.49
791.512	392.02
791.693	377.68
791.874	355.15
792.054	357.2
792.235	389.97
792.416	406.35
792.597	394.06
792.778	328.53
792.958	349.01
793.139	326.48
793.32	346.96
793.5	355.15
793.681	365.39
793.862	396.11
794.042	330.58
794.223	349.01
794.404	361.3
794.584	306
794.765	328.53
794.945	377.68
795.126	398.16
795.306	344.91
795.487	387.92
795.667	373.58
795.848	269.14
796.028	291.66
796.209	359.25
796.389	330.58
796.57	330.58
796.75	318.29
796.93	353.1
797.111	275.28
797.291	318.29
797.471	238.42
797.652	289.62
797.832	228.18
798.012	322.38
798.192	267.09
798.373	254.8
798.553	207.7
798.733	324.43
798.913	271.19
799.093	295.76
799.274	267.09
799.454	197.46
799.634	273.23
799.814	277.33
799.994	308.05
800.174	291.66
800.354	287.57
800.534	197.46
800.714	283.47
800.894	254.8
801.074	176.98
801.254	240.47
801.434	295.76
801.614	222.03
801.794	238.42
801.974	637.77
802.154	236.37
802.334	269.14
802.514	211.79
802.693	242.51
802.873	232.27
803.053	271.19
803.233	197.46
803.413	283.47
803.592	310.1
803.772	207.7
803.952	252.75
804.131	224.08
804.311	279.38
804.491	234.32
804.67	183.12
804.85	242.51
805.03	254.8
805.209	277.33
805.389	236.37
805.568	234.32
805.748	191.31
805.928	246.61
806.107	238.42
806.287	226.13
806.466	248.66
806.646	219.99
806.825	265.04
807.004	164.69
807.184	189.27
807.363	232.27
807.543	226.13
807.722	168.79
807.901	209.75
808.081	269.14
808.26	150.36
808.439	133.97
808.619	168.79
808.798	213.84
808.977	207.7
809.156	217.94
809.336	203.6
809.515	203.6
809.694	170.83
809.873	224.08
810.052	140.12
810.231	179.03
810.411	127.83
810.59	195.41
810.769	164.69
810.948	146.26
811.127	129.88
811.306	176.98
811.485	168.79
811.664	273.23
811.843	209.75
812.022	183.12
812.201	168.79
812.38	121.68
812.559	136.02
812.737	230.23
812.916	80.72
813.095	148.31
813.274	144.21
813.453	174.93
813.632	176.98
813.811	201.55
813.989	152.4
814.168	189.27
814.347	140.12
814.526	138.07
814.704	285.52
814.883	217.94
815.062	131.92
815.24	101.2
815.419	144.21
815.598	150.36
815.776	150.36
815.955	160.59
816.133	105.3
816.312	131.92
816.49	68.44
816.669	146.26
816.847	160.59
817.026	107.35
817.204	207.7
817.383	76.63
817.561	95.06
817.74	150.36
817.918	148.31
818.097	179.03
818.275	152.4
818.453	197.46
818.632	170.83
818.81	95.06
818.988	138.07
819.167	140.12
819.345	101.2
819.523	133.97
819.701	176.98
819.879	105.3
820.058	136.02
820.236	54.1
820.414	197.46
820.592	189.27
820.77	95.06
820.948	-21.67
821.127	136.02
821.305	84.82
821.483	152.4
821.661	123.73
821.839	119.64
822.017	111.44
822.195	125.78
822.373	131.92
822.551	82.77
822.729	113.49
822.907	101.2
823.085	181.07
823.262	62.29
823.44	58.2
823.618	101.2
823.796	52.05
823.974	47.96
824.152	80.72
824.329	54.1
824.507	146.26
824.685	181.07
824.863	103.25
825.04	93.01
825.218	170.83
825.396	136.02
825.574	107.35
825.751	136.02
825.929	183.12
826.107	152.4
826.284	58.2
826.462	115.54
826.639	127.83
826.817	70.48
826.994	72.53
827.172	74.58
827.349	125.78
827.527	199.51
827.704	160.59
827.882	88.92
828.059	138.07
828.237	144.21
828.414	172.88
828.591	37.72
828.769	70.48
828.946	43.86
829.124	158.55
829.301	64.34
829.478	74.58
829.655	72.53
829.833	125.78
830.01	70.48
830.187	90.96
830.364	47.96
830.542	72.53
830.719	93.01
830.896	125.78
831.073	93.01
831.25	50
831.427	107.35
831.604	82.77
831.782	95.06
831.959	76.63
832.136	11.09
832.313	78.68
832.49	80.72
832.667	72.53
832.844	15.19
833.021	45.91
833.198	115.54
833.374	93.01
833.551	62.29
833.728	90.96
833.905	80.72
834.082	107.35
834.259	97.11
834.436	105.3
834.612	13.14
834.789	86.87
834.966	62.29
835.143	25.43
835.319	72.53
835.496	86.87
835.673	142.16
835.85	148.31
836.026	95.06
836.203	103.25
836.38	117.59
836.556	58.2
836.733	50
836.909	72.53
837.086	70.48
837.262	-9.39
837.439	113.49
837.616	103.25
837.792	127.83
837.968	148.31
838.145	-3.24
838.321	68.44
838.498	93.01
838.674	84.82
838.851	54.1
839.027	97.11
839.203	90.96
839.38	39.76
839.556	136.02
839.732	99.16
839.909	78.68
840.085	189.27
840.261	7
840.437	50
840.614	0.85
840.79	62.29
840.966	11.09
841.142	45.91
841.318	-9.39
841.494	31.57
841.671	74.58
841.847	9.05
842.023	95.06
842.199	82.77
842.375	4.95
842.551	-21.67
842.727	54.1
842.903	64.34
843.079	64.34
843.255	119.64
843.431	74.58
843.607	90.96
843.783	-42.15
843.959	103.25
844.134	21.33
844.31	62.29
844.486	64.34
844.662	86.87
844.838	-3.24
845.013	109.4
845.189	95.06
845.365	74.58
845.541	0.85
845.716	58.2
845.892	-9.39
846.068	-46.25
846.244	13.14
846.419	90.96
846.595	15.19
846.77	-17.58
846.946	123.73
847.122	74.58
847.297	54.1
847.473	70.48
847.648	41.81
847.824	66.39
847.999	29.52
848.175	-5.29
848.35	23.38
848.526	54.1
848.701	103.25
848.876	72.53
849.052	37.72
849.227	60.24
849.403	13.14
849.578	11.09
849.753	97.11
849.929	52.05
850.104	50
850.279	13.14
850.454	72.53
850.63	39.76
850.805	2.9
850.98	2.9
851.155	45.91
851.33	13.14
851.505	13.14
851.681	74.58
851.856	31.57
852.031	70.48
852.206	119.64
852.381	103.25
852.556	72.53
852.731	84.82
852.906	31.57
853.081	66.39
853.256	41.81
853.431	97.11
853.606	74.58
853.781	99.16
853.956	25.43
854.131	56.15
854.305	47.96
854.48	33.62
854.655	45.91
854.83	-17.58
855.005	27.48
855.18	54.1
855.354	9.05
855.529	103.25
855.704	-19.63
855.879	142.16
856.053	-15.53
856.228	43.86
856.403	11.09
856.577	41.81
856.752	-48.3
856.926	43.86
857.101	43.86
857.276	64.34
857.45	47.96
857.625	101.2
857.799	2.9
857.974	86.87
858.148	41.81
858.323	21.33
858.497	-1.19
858.672	-21.67
858.846	72.53
859.02	19.29
859.195	41.81
859.369	9.05
859.543	105.3
859.718	-13.48
859.892	21.33
860.066	19.29
860.241	-40.11
860.415	-48.3
860.589	58.2
860.763	58.2
860.938	50
861.112	101.2
861.286	31.57
861.46	-5.29
861.634	84.82
861.808	23.38
861.982	4.95
862.157	-9.39
862.331	80.72
862.505	17.24
862.679	-23.72
862.853	-1.19
863.027	45.91
863.201	29.52
863.375	-11.43
863.549	21.33
863.722	62.29
863.896	58.2
864.07	43.86
864.244	-11.43
864.418	23.38
864.592	-11.43
864.766	19.29
864.939	86.87
865.113	76.63
865.287	101.2
865.461	58.2
865.634	-11.43
865.808	-27.82
865.982	21.33
866.156	41.81
866.329	39.76
866.503	35.67
866.676	-48.3
866.85	2.9
867.024	-3.24
867.197	78.68
867.371	11.09
867.544	-17.58
867.718	21.33
867.891	60.24
868.065	-7.34
868.238	47.96
868.412	76.63
868.585	101.2
868.759	47.96
868.932	72.53
869.105	45.91
869.279	15.19
869.452	29.52
869.625	-29.87
869.799	33.62
869.972	9.05
870.145	9.05
870.319	11.09
870.492	-1.19
870.665	-21.67
870.838	19.29
871.011	21.33
871.185	13.14
871.358	-7.34
871.531	11.09
871.704	-9.39
871.877	-3.24
872.05	-13.48
872.223	95.06
872.396	45.91
872.569	84.82
872.742	39.76
872.915	21.33
873.088	-27.82
873.261	-9.39
873.434	74.58
873.607	-1.19
873.78	21.33
873.953	-1.19
874.126	-48.3
874.299	2.9
874.471	-40.11
874.644	-7.34
874.817	27.48
874.99	-44.2
875.163	41.81
875.335	9.05
875.508	-9.39
875.681	64.34
875.853	-5.29
876.026	-5.29
876.199	7
876.371	-21.67
876.544	-42.15
876.717	-15.53
876.889	29.52
877.062	-1.19
877.234	4.95
877.407	41.81
877.579	-27.82
877.752	2.9
877.924	-29.87
878.097	68.44
878.269	2.9
878.442	47.96
878.614	41.81
878.786	101.2
878.959	50
879.131	17.24
879.303	17.24
879.476	-7.34
879.648	43.86
879.82	11.09
879.993	-31.91
880.165	-62.63
880.337	-23.72
880.509	43.86
880.681	-46.25
880.854	70.48
881.026	-52.39
881.198	27.48
881.37	15.19
881.542	-23.72
881.714	31.57
881.886	52.05
882.058	17.24
882.23	25.43
882.402	37.72
882.574	41.81
882.746	23.38
882.918	95.06
883.09	-27.82
883.262	33.62
883.434	-5.29
883.606	58.2
883.778	11.09
883.95	-21.67
884.122	-3.24
884.293	37.72
884.465	-64.68
884.637	86.87
884.809	-15.53
884.98	-1.19
885.152	37.72
885.324	-17.58
885.496	-74.92
885.667	15.19
885.839	-46.25
886.011	-44.2
886.182	25.43
886.354	56.15
886.525	-5.29
886.697	9.05
886.869	-56.49
887.04	-50.35
887.212	41.81
887.383	43.86
887.555	23.38
887.726	11.09
887.897	-27.82
888.069	-1.19
888.24	-11.43
888.412	-38.06
888.583	35.67
888.754	62.29
888.926	-95.4
889.097	-3.24
889.268	33.62
889.44	33.62
889.611	-7.34
889.782	-15.53
889.953	-33.96
890.125	50
890.296	-29.87
890.467	15.19
890.638	0.85
890.809	17.24
890.98	-11.43
891.151	31.57
891.323	52.05
891.494	-1.19
891.665	52.05
891.836	4.95
892.007	35.67
892.178	33.62
892.349	62.29
892.52	0.85
892.691	9.05
892.862	64.34
893.032	-54.44
893.203	27.48
893.374	-1.19
893.545	43.86
893.716	-50.35
893.887	0.85
894.057	11.09
894.228	-1.19
894.399	-36.01
894.57	-7.34
894.74	-50.35
894.911	31.57
895.082	2.9
895.253	-1.19
895.423	-17.58
895.594	74.58
895.764	-3.24
895.935	-46.25
896.106	-23.72
896.276	-42.15
896.447	27.48
896.617	4.95
896.788	25.43
896.958	52.05
897.129	7
897.299	-62.63
897.47	4.95
897.64	17.24
897.81	-11.43
897.981	60.24
898.151	-23.72
898.322	-44.2
898.492	21.33
898.662	-29.87
898.832	-27.82
899.003	41.81
899.173	-31.91
899.343	-29.87
899.513	-19.63
