Data from USB4F104151__51__11-05-42-268.txt Node

Date: Wed Mar 12 11:05:42 EDT 2025
User: louis
Spectrometer: USB4F10415
Trigger mode: 4
Integration Time (sec): 2.000000E-2
Scans to average: 1
Electric dark correction enabled: true
Nonlinearity correction enabled: false
Boxcar width: 0
XAxis mode: Wavelengths
Number of Pixels in Spectrum: 3648
>>>>>Begin Spectral Data<<<<<
178.204	-120.49
178.424	-120.49
178.644	-120.49
178.864	-71.34
179.084	-112.3
179.304	82.26
179.524	67.92
179.744	-54.95
179.964	12.63
180.184	4.44
180.404	-20.14
180.624	-16.04
180.844	-18.09
181.064	-7.85
181.283	-54.95
181.503	-42.67
181.723	47.44
181.943	-16.04
182.163	51.54
182.383	61.78
182.602	20.82
182.822	51.54
183.042	6.49
183.262	-40.62
183.482	63.83
183.701	65.88
183.921	-3.75
184.141	49.49
184.361	37.2
184.58	4.44
184.8	63.83
185.02	53.59
185.239	49.49
185.459	63.83
185.679	29.01
185.898	-63.15
186.118	8.53
186.338	-26.28
186.557	4.44
186.777	0.34
186.997	22.87
187.216	61.78
187.436	92.5
187.655	16.73
187.875	65.88
188.095	8.53
188.314	26.96
188.534	55.64
188.753	-57
188.973	55.64
189.192	76.12
189.412	47.44
189.631	29.01
189.851	20.82
190.07	-7.85
190.29	0.34
190.509	49.49
190.729	0.34
190.948	61.78
191.168	82.26
191.387	53.59
191.607	33.11
191.826	-38.57
192.045	4.44
192.265	0.34
192.484	4.44
192.704	72.02
192.923	-7.85
193.142	69.97
193.362	47.44
193.581	98.64
193.8	6.49
194.02	53.59
194.239	-16.04
194.458	-20.14
194.678	39.25
194.897	-54.95
195.116	-40.62
195.335	39.25
195.555	57.68
195.774	12.63
195.993	31.06
196.212	41.3
196.432	-9.9
196.651	0.34
196.87	6.49
197.089	131.41
197.308	12.63
197.528	35.16
197.747	-1.71
197.966	-81.58
198.185	20.82
198.404	90.45
198.623	86.36
198.842	20.82
199.062	74.07
199.281	108.88
199.5	-46.76
199.719	8.53
199.938	-30.38
200.157	90.45
200.376	55.64
200.595	74.07
200.814	74.07
201.033	-7.85
201.252	69.97
201.471	20.82
201.69	94.55
201.909	106.84
202.128	-16.04
202.347	-7.85
202.566	74.07
202.785	33.11
203.004	20.82
203.223	41.3
203.442	8.53
203.661	35.16
203.879	10.58
204.098	-13.99
204.317	4.44
204.536	29.01
204.755	-54.95
204.974	61.78
205.193	33.11
205.411	76.12
205.63	12.63
205.849	-3.75
206.068	33.11
206.287	-30.38
206.505	-28.33
206.724	8.53
206.943	37.2
207.162	35.16
207.381	-85.67
207.599	-26.28
207.818	22.87
208.037	-34.47
208.255	20.82
208.474	-13.99
208.693	-13.99
208.911	39.25
209.13	61.78
209.349	18.77
209.567	22.87
209.786	41.3
210.005	26.96
210.223	29.01
210.442	39.25
210.661	49.49
210.879	-9.9
211.098	55.64
211.316	-34.47
211.535	102.74
211.753	6.49
211.972	-36.52
212.191	29.01
212.409	49.49
212.628	16.73
212.846	-30.38
213.065	37.2
213.283	29.01
213.502	-42.67
213.72	0.34
213.938	0.34
214.157	33.11
214.375	2.39
214.594	33.11
214.812	-24.23
215.031	74.07
215.249	67.92
215.467	12.63
215.686	0.34
215.904	59.73
216.122	53.59
216.341	4.44
216.559	-16.04
216.778	-1.71
216.996	-22.19
217.214	26.96
217.432	-16.04
217.651	20.82
217.869	-50.86
218.087	45.4
218.306	49.49
218.524	-40.62
218.742	53.59
218.96	29.01
219.179	-30.38
219.397	-9.9
219.615	67.92
219.833	74.07
220.051	-18.09
220.27	37.2
220.488	16.73
220.706	-16.04
220.924	24.92
221.142	-16.04
221.36	-24.23
221.578	-16.04
221.796	26.96
222.015	6.49
222.233	-9.9
222.451	37.2
222.669	55.64
222.887	47.44
223.105	-1.71
223.323	-5.8
223.541	10.58
223.759	41.3
223.977	31.06
224.195	4.44
224.413	63.83
224.631	69.97
224.849	16.73
225.067	94.55
225.285	37.2
225.503	69.97
225.721	-57
225.939	31.06
226.157	-1.71
226.375	41.3
226.592	2.39
226.81	-7.85
227.028	45.4
227.246	33.11
227.464	43.35
227.682	-26.28
227.9	65.88
228.117	2.39
228.335	-48.81
228.553	53.59
228.771	-5.8
228.989	20.82
229.206	33.11
229.424	8.53
229.642	-44.71
229.86	4.44
230.077	82.26
230.295	33.11
230.513	65.88
230.731	59.73
230.948	-34.47
231.166	61.78
231.384	57.68
231.601	49.49
231.819	12.63
232.037	22.87
232.254	-18.09
232.472	0.34
232.689	-18.09
232.907	74.07
233.125	-1.71
233.342	94.55
233.56	24.92
233.777	2.39
233.995	10.58
234.213	53.59
234.43	49.49
234.648	29.01
234.865	26.96
235.083	26.96
235.3	45.4
235.518	-54.95
235.735	74.07
235.953	69.97
236.17	14.68
236.388	4.44
236.605	12.63
236.822	20.82
237.04	65.88
237.257	-36.52
237.475	22.87
237.692	53.59
237.909	35.16
238.127	29.01
238.344	14.68
238.562	-28.33
238.779	-42.67
238.996	18.77
239.214	-75.43
239.431	94.55
239.648	53.59
239.865	26.96
240.083	10.58
240.3	12.63
240.517	-5.8
240.735	4.44
240.952	49.49
241.169	41.3
241.386	-13.99
241.603	20.82
241.821	14.68
242.038	45.4
242.255	43.35
242.472	-26.28
242.689	-57
242.907	14.68
243.124	67.92
243.341	20.82
243.558	-26.28
243.775	-3.75
243.992	31.06
244.209	-13.99
244.426	74.07
244.643	53.59
244.86	-3.75
245.078	10.58
245.295	-24.23
245.512	12.63
245.729	-20.14
245.946	31.06
246.163	8.53
246.38	33.11
246.597	16.73
246.814	20.82
247.031	43.35
247.248	26.96
247.464	4.44
247.681	-44.71
247.898	43.35
248.115	72.02
248.332	2.39
248.549	110.93
248.766	69.97
248.983	10.58
249.2	6.49
249.417	67.92
249.633	-11.95
249.85	6.49
250.067	18.77
250.284	-3.75
250.501	12.63
250.717	47.44
250.934	-11.95
251.151	10.58
251.368	41.3
251.585	61.78
251.801	26.96
252.018	-57
252.235	31.06
252.451	65.88
252.668	24.92
252.885	67.92
253.102	55.64
253.318	-11.95
253.535	-26.28
253.752	-13.99
253.968	2.39
254.185	45.4
254.401	47.44
254.618	16.73
254.835	65.88
255.051	65.88
255.268	0.34
255.484	29.01
255.701	37.2
255.917	-36.52
256.134	18.77
256.351	-24.23
256.567	55.64
256.784	14.68
257	-11.95
257.217	90.45
257.433	63.83
257.65	112.98
257.866	6.49
258.082	-40.62
258.299	16.73
258.515	47.44
258.732	49.49
258.948	-22.19
259.165	49.49
259.381	8.53
259.597	22.87
259.814	82.26
260.03	-3.75
260.246	29.01
260.463	51.54
260.679	29.01
260.895	-9.9
261.112	69.97
261.328	0.34
261.544	37.2
261.761	49.49
261.977	22.87
262.193	37.2
262.409	112.98
262.626	43.35
262.842	4.44
263.058	-13.99
263.274	-3.75
263.49	61.78
263.707	45.4
263.923	37.2
264.139	16.73
264.355	-9.9
264.571	53.59
264.787	2.39
265.004	139.6
265.22	8.53
265.436	-71.34
265.652	14.68
265.868	37.2
266.084	0.34
266.3	80.21
266.516	-1.71
266.732	-26.28
266.948	-7.85
267.164	74.07
267.38	14.68
267.596	59.73
267.812	45.4
268.028	45.4
268.244	33.11
268.46	-3.75
268.676	49.49
268.892	26.96
269.108	31.06
269.324	88.4
269.54	-40.62
269.756	78.16
269.972	33.11
270.188	41.3
270.403	-32.43
270.619	86.36
270.835	14.68
271.051	33.11
271.267	-42.67
271.483	-57
271.698	55.64
271.914	29.01
272.13	2.39
272.346	14.68
272.562	12.63
272.777	76.12
272.993	-50.86
273.209	31.06
273.425	69.97
273.64	24.92
273.856	49.49
274.072	41.3
274.287	-16.04
274.503	20.82
274.719	41.3
274.934	8.53
275.15	-18.09
275.366	37.2
275.581	-11.95
275.797	49.49
276.012	16.73
276.228	72.02
276.444	8.53
276.659	35.16
276.875	8.53
277.09	98.64
277.306	41.3
277.521	61.78
277.737	-34.47
277.952	65.88
278.168	102.74
278.383	76.12
278.599	-5.8
278.814	-18.09
279.03	-28.33
279.245	-11.95
279.461	76.12
279.676	24.92
279.892	-1.71
280.107	24.92
280.322	47.44
280.538	49.49
280.753	14.68
280.969	31.06
281.184	37.2
281.399	24.92
281.615	6.49
281.83	18.77
282.045	0.34
282.26	26.96
282.476	16.73
282.691	55.64
282.906	-26.28
283.122	4.44
283.337	0.34
283.552	-42.67
283.767	-52.91
283.983	20.82
284.198	0.34
284.413	69.97
284.628	14.68
284.843	72.02
285.058	57.68
285.274	84.31
285.489	26.96
285.704	-9.9
285.919	18.77
286.134	22.87
286.349	4.44
286.564	-7.85
286.779	90.45
286.995	57.68
287.21	-81.58
287.425	-38.57
287.64	22.87
287.855	115.03
288.07	0.34
288.285	-5.8
288.5	119.12
288.715	69.97
288.93	18.77
289.145	57.68
289.36	106.84
289.575	22.87
289.79	29.01
290.004	47.44
290.219	20.82
290.434	-1.71
290.649	65.88
290.864	18.77
291.079	8.53
291.294	59.73
291.509	37.2
291.724	20.82
291.938	57.68
292.153	14.68
292.368	41.3
292.583	43.35
292.798	112.98
293.012	102.74
293.227	-7.85
293.442	-67.24
293.657	-24.23
293.871	-40.62
294.086	-13.99
294.301	12.63
294.516	45.4
294.73	0.34
294.945	-1.71
295.16	18.77
295.374	14.68
295.589	82.26
295.804	33.11
296.018	61.78
296.233	29.01
296.447	98.64
296.662	-48.81
296.877	61.78
297.091	53.59
297.306	4.44
297.52	-34.47
297.735	84.31
297.949	4.44
298.164	33.11
298.378	-40.62
298.593	24.92
298.807	-3.75
299.022	55.64
299.236	37.2
299.451	33.11
299.665	31.06
299.88	2.39
300.094	-16.04
300.309	49.49
300.523	-26.28
300.737	33.11
300.952	55.64
301.166	41.3
301.381	6.49
301.595	2.39
301.809	59.73
302.024	14.68
302.238	41.3
302.452	88.4
302.667	33.11
302.881	33.11
303.095	143.7
303.309	90.45
303.524	20.82
303.738	33.11
303.952	41.3
304.166	53.59
304.381	8.53
304.595	33.11
304.809	0.34
305.023	-5.8
305.237	31.06
305.452	49.49
305.666	65.88
305.88	76.12
306.094	57.68
306.308	61.78
306.522	57.68
306.736	39.25
306.95	61.78
307.164	8.53
307.379	35.16
307.593	26.96
307.807	-57
308.021	39.25
308.235	-22.19
308.449	-3.75
308.663	24.92
308.877	100.69
309.091	24.92
309.305	18.77
309.519	10.58
309.733	33.11
309.947	-7.85
310.161	4.44
310.374	98.64
310.588	57.68
310.802	57.68
311.016	67.92
311.23	12.63
311.444	-24.23
311.658	37.2
311.872	63.83
312.085	24.92
312.299	61.78
312.513	8.53
312.727	12.63
312.941	12.63
313.154	0.34
313.368	-11.95
313.582	31.06
313.796	-7.85
314.009	-5.8
314.223	6.49
314.437	78.16
314.651	51.54
314.864	112.98
315.078	-20.14
315.292	24.92
315.505	41.3
315.719	84.31
315.933	51.54
316.146	39.25
316.36	26.96
316.573	8.53
316.787	49.49
317.001	55.64
317.214	-13.99
317.428	72.02
317.641	59.73
317.855	-20.14
318.068	47.44
318.282	-1.71
318.495	8.53
318.709	26.96
318.922	-16.04
319.136	153.94
319.349	59.73
319.563	29.01
319.776	14.68
319.99	63.83
320.203	47.44
320.417	-11.95
320.63	104.79
320.843	39.25
321.057	67.92
321.27	8.53
321.483	-18.09
321.697	74.07
321.91	18.77
322.124	65.88
322.337	22.87
322.55	41.3
322.763	-9.9
322.977	18.77
323.19	82.26
323.403	14.68
323.617	18.77
323.83	33.11
324.043	-7.85
324.256	20.82
324.469	31.06
324.683	-32.43
324.896	178.51
325.109	-11.95
325.322	78.16
325.535	31.06
325.748	10.58
325.962	29.01
326.175	35.16
326.388	-20.14
326.601	53.59
326.814	29.01
327.027	-1.71
327.24	29.01
327.453	45.4
327.666	22.87
327.879	37.2
328.092	90.45
328.305	59.73
328.518	61.78
328.731	33.11
328.944	18.77
329.157	45.4
329.37	-13.99
329.583	106.84
329.796	20.82
330.009	37.2
330.222	-13.99
330.435	121.17
330.648	-3.75
330.861	24.92
331.073	-20.14
331.286	16.73
331.499	57.68
331.712	16.73
331.925	22.87
332.138	-30.38
332.35	61.78
332.563	-9.9
332.776	74.07
332.989	-3.75
333.202	33.11
333.414	-38.57
333.627	65.88
333.84	78.16
334.053	-52.91
334.265	22.87
334.478	33.11
334.691	16.73
334.903	18.77
335.116	-1.71
335.329	100.69
335.541	82.26
335.754	45.4
335.966	4.44
336.179	-1.71
336.392	102.74
336.604	88.4
336.817	61.78
337.029	67.92
337.242	39.25
337.454	20.82
337.667	8.53
337.88	49.49
338.092	8.53
338.305	20.82
338.517	26.96
338.729	8.53
338.942	98.64
339.154	29.01
339.367	-13.99
339.579	45.4
339.792	29.01
340.004	94.55
340.217	-32.43
340.429	61.78
340.641	14.68
340.854	20.82
341.066	80.21
341.278	78.16
341.491	26.96
341.703	41.3
341.915	-11.95
342.128	78.16
342.34	41.3
342.552	-28.33
342.764	-40.62
342.977	-5.8
343.189	45.4
343.401	72.02
343.613	12.63
343.826	63.83
344.038	-32.43
344.25	-13.99
344.462	72.02
344.674	22.87
344.886	-18.09
345.099	14.68
345.311	41.3
345.523	-24.23
345.735	-63.15
345.947	67.92
346.159	33.11
346.371	35.16
346.583	-42.67
346.795	61.78
347.007	-20.14
347.219	35.16
347.431	29.01
347.643	121.17
347.855	-20.14
348.067	49.49
348.279	14.68
348.491	88.4
348.703	86.36
348.915	-30.38
349.127	18.77
349.339	39.25
349.551	-22.19
349.763	86.36
349.975	53.59
350.187	4.44
350.399	45.4
350.61	37.2
350.822	47.44
351.034	53.59
351.246	45.4
351.458	24.92
351.669	115.03
351.881	45.4
352.093	8.53
352.305	57.68
352.517	10.58
352.728	59.73
352.94	10.58
353.152	22.87
353.363	10.58
353.575	51.54
353.787	-42.67
353.999	74.07
354.21	108.88
354.422	47.44
354.633	59.73
354.845	-22.19
355.057	39.25
355.268	8.53
355.48	90.45
355.692	-9.9
355.903	-26.28
356.115	74.07
356.326	14.68
356.538	80.21
356.749	16.73
356.961	76.12
357.172	12.63
357.384	-32.43
357.595	31.06
357.807	45.4
358.018	39.25
358.23	10.58
358.441	65.88
358.653	33.11
358.864	0.34
359.075	100.69
359.287	127.32
359.498	51.54
359.709	26.96
359.921	51.54
360.132	76.12
360.344	41.3
360.555	72.02
360.766	31.06
360.977	29.01
361.189	47.44
361.4	49.49
361.611	67.92
361.823	41.3
362.034	-20.14
362.245	-16.04
362.456	55.64
362.667	47.44
362.879	55.64
363.09	45.4
363.301	106.84
363.512	-16.04
363.723	49.49
363.935	16.73
364.146	84.31
364.357	94.55
364.568	112.98
364.779	6.49
364.99	43.35
365.201	12.63
365.412	4.44
365.623	143.7
365.834	55.64
366.045	80.21
366.256	55.64
366.467	63.83
366.678	86.36
366.889	72.02
367.1	45.4
367.311	80.21
367.522	59.73
367.733	127.32
367.944	49.49
368.155	74.07
368.366	57.68
368.577	-13.99
368.788	74.07
368.999	6.49
369.209	39.25
369.42	67.92
369.631	35.16
369.842	96.6
370.053	90.45
370.264	84.31
370.474	88.4
370.685	29.01
370.896	37.2
371.107	29.01
371.317	53.59
371.528	29.01
371.739	29.01
371.95	2.39
372.16	90.45
372.371	20.82
372.582	16.73
372.792	88.4
373.003	45.4
373.214	100.69
373.424	51.54
373.635	-13.99
373.846	35.16
374.056	31.06
374.267	41.3
374.477	39.25
374.688	35.16
374.898	29.01
375.109	47.44
375.319	65.88
375.53	115.03
375.74	37.2
375.951	139.6
376.161	57.68
376.372	69.97
376.582	-38.57
376.793	94.55
377.003	78.16
377.214	18.77
377.424	22.87
377.635	61.78
377.845	31.06
378.055	-5.8
378.266	0.34
378.476	10.58
378.686	-3.75
378.897	55.64
379.107	76.12
379.317	72.02
379.528	29.01
379.738	94.55
379.948	72.02
380.158	65.88
380.369	123.22
380.579	84.31
380.789	74.07
380.999	43.35
381.21	57.68
381.42	-16.04
381.63	74.07
381.84	51.54
382.05	55.64
382.261	10.58
382.471	61.78
382.681	53.59
382.891	102.74
383.101	35.16
383.311	110.93
383.521	47.44
383.731	43.35
383.941	90.45
384.151	98.64
384.361	74.07
384.571	67.92
384.781	-24.23
384.991	24.92
385.201	158.03
385.411	151.89
385.621	41.3
385.831	61.78
386.041	74.07
386.251	41.3
386.461	41.3
386.671	24.92
386.881	123.22
387.091	39.25
387.301	35.16
387.511	53.59
387.72	37.2
387.93	57.68
388.14	57.68
388.35	37.2
388.56	74.07
388.769	94.55
388.979	80.21
389.189	37.2
389.399	82.26
389.609	61.78
389.818	76.12
390.028	57.68
390.238	69.97
390.447	14.68
390.657	43.35
390.867	22.87
391.076	39.25
391.286	55.64
391.496	-5.8
391.705	102.74
391.915	168.27
392.125	-3.75
392.334	121.17
392.544	80.21
392.753	102.74
392.963	92.5
393.172	92.5
393.382	57.68
393.591	92.5
393.801	61.78
394.01	170.32
394.22	57.68
394.429	106.84
394.639	-26.28
394.848	74.07
395.058	92.5
395.267	80.21
395.477	139.6
395.686	88.4
395.895	112.98
396.105	115.03
396.314	41.3
396.524	108.88
396.733	29.01
396.942	186.71
397.152	135.51
397.361	139.6
397.57	88.4
397.78	88.4
397.989	63.83
398.198	158.03
398.407	57.68
398.617	155.99
398.826	151.89
399.035	49.49
399.244	49.49
399.453	160.08
399.663	88.4
399.872	127.32
400.081	63.83
400.29	82.26
400.499	74.07
400.708	106.84
400.917	102.74
401.127	106.84
401.336	106.84
401.545	74.07
401.754	80.21
401.963	131.41
402.172	139.6
402.381	119.12
402.59	115.03
402.799	123.22
403.008	143.7
403.217	117.08
403.426	96.6
403.635	172.37
403.844	160.08
404.053	94.55
404.262	162.13
404.471	139.6
404.68	117.08
404.888	125.27
405.097	176.47
405.306	176.47
405.515	176.47
405.724	115.03
405.933	143.7
406.142	149.84
406.35	190.8
406.559	188.75
406.768	229.71
406.977	217.43
407.185	180.56
407.394	244.05
407.603	145.75
407.812	184.66
408.02	254.29
408.229	112.98
408.438	276.82
408.646	178.51
408.855	178.51
409.064	321.87
409.272	184.66
409.481	350.54
409.69	221.52
409.898	332.11
410.107	258.39
410.315	385.36
410.524	395.6
410.733	379.22
410.941	350.54
411.15	418.13
411.358	323.92
411.567	522.57
411.775	360.78
411.984	416.08
412.192	534.86
412.401	420.17
412.609	416.08
412.818	524.62
413.026	514.38
413.234	543.05
413.443	520.53
413.651	559.44
413.86	559.44
414.068	641.36
414.276	665.93
414.485	663.88
414.693	645.45
414.901	735.56
415.11	663.88
415.318	792.91
415.526	690.51
415.734	786.76
415.943	723.27
416.151	809.29
416.359	866.63
416.567	991.56
416.776	874.82
416.984	887.11
417.192	1016.13
417.4	1034.57
417.608	993.61
417.817	1130.82
418.025	1100.1
418.233	1243.46
418.441	1141.06
418.649	1339.71
418.857	1419.58
419.065	1409.34
419.273	1286.47
419.481	1462.59
419.689	1481.02
419.897	1454.4
420.105	1605.95
420.313	1644.86
420.521	1704.25
420.729	1759.55
420.937	1732.92
421.145	1880.38
421.353	1954.1
421.561	1990.97
421.769	2056.5
421.977	2255.15
422.185	2099.51
422.393	2353.46
422.601	2335.03
422.809	2275.63
423.017	2421.04
423.224	2451.76
423.432	2674.99
423.64	2691.37
423.848	2849.07
424.056	2748.72
424.263	2971.94
424.471	2984.23
424.679	3094.82
424.887	3332.39
425.094	3416.35
425.302	3297.57
425.51	3506.46
425.718	3547.42
425.925	3582.24
426.133	3741.98
426.341	3856.67
426.548	4114.71
426.756	4221.2
426.964	4219.16
427.171	4436.24
427.379	4579.6
427.586	4389.14
427.794	4700.43
428.001	5024.01
428.209	5216.52
428.417	5075.21
428.624	5615.87
428.832	5476.61
429.039	5386.5
429.247	5540.1
429.454	5884.16
429.662	6248.69
429.869	5955.83
430.076	6396.15
430.284	6037.75
430.491	6375.67
430.699	7014.63
430.906	6867.18
431.114	6936.81
431.321	7231.72
431.528	7473.38
431.736	7870.69
431.943	8145.11
432.15	7796.96
432.358	8014.04
432.565	8616.15
432.772	8464.6
432.979	8990.92
433.187	8849.61
433.394	9046.22
433.601	9703.62
433.808	9793.73
434.016	9717.95
434.223	10148.03
434.43	10662.07
434.637	10514.61
434.844	11030.7
435.052	11194.54
435.259	10971.31
435.466	11540.65
435.673	11157.68
435.88	11917.47
436.087	12648.6
436.294	12626.07
436.501	12370.07
436.708	12646.55
436.915	12851.35
437.122	13596.81
437.329	13426.82
437.537	14018.69
437.743	14145.66
437.95	13928.58
438.157	14938.23
438.364	15353.96
438.571	15607.91
438.778	15523.94
438.985	16779.35
439.192	16302.17
439.399	17084.5
439.606	16255.07
439.813	17367.12
440.02	18225.22
440.227	18040.9
440.433	17606.73
440.64	18726.97
440.847	18323.52
441.054	19099.7
441.261	19820.58
441.467	19785.77
441.674	19939.37
441.881	20840.47
442.088	20723.74
442.294	20690.97
442.501	21231.63
442.708	21766.15
442.914	22726.65
443.121	23373.81
443.328	23068.66
443.534	24647.65
443.741	23805.93
443.948	23351.28
444.154	25157.59
444.361	25006.04
444.568	25161.69
444.774	25264.08
444.981	25690.06
445.187	26290.12
445.394	27355.06
445.6	26609.6
445.807	29777.81
446.013	27940.78
446.22	28680.1
446.426	29544.34
446.633	30101.39
446.839	31217.53
447.046	29552.53
447.252	31479.67
447.459	31422.33
447.665	31381.37
447.871	32628.58
448.078	33910.61
448.284	32323.43
448.491	33310.55
448.697	34258.76
448.903	35125.05
449.11	35092.29
449.316	34299.72
449.522	35587.89
449.728	35983.15
449.935	36562.73
450.141	36212.52
450.347	36880.16
450.553	36013.87
450.76	36443.95
450.966	37392.15
451.172	36775.72
451.378	38037.26
451.584	37347.1
451.791	37996.31
451.997	38067.98
452.203	38528.78
452.409	38385.42
452.615	38102.8
452.821	36886.31
453.027	36282.16
453.233	38092.56
453.44	36112.17
453.646	36820.77
453.852	37291.8
454.058	37941.01
454.264	36282.16
454.47	37183.26
454.676	36095.79
454.882	37429.02
455.088	34178.89
455.294	34715.46
455.5	35061.57
455.705	35555.13
455.911	34316.11
456.117	33345.37
456.323	32872.29
456.529	30891.9
456.735	32507.75
456.941	31580.02
457.147	31141.75
457.352	29974.41
457.558	29712.27
457.764	29712.27
457.97	29001.63
458.176	28413.86
458.381	28706.72
458.587	26761.15
458.793	27183.03
458.999	25792.46
459.204	27498.42
459.41	26619.84
459.616	24879.07
459.821	24971.22
460.027	24793.05
460.233	24360.93
460.438	23115.76
460.644	23554.03
460.85	22095.88
461.055	22071.3
461.261	21626.89
461.466	20318.24
461.672	19759.14
461.878	21344.27
462.083	19939.37
462.289	19546.16
462.494	19464.24
462.7	18321.47
462.905	17911.88
463.111	18427.96
463.316	18597.95
463.522	17991.75
463.727	18321.47
463.932	18182.21
464.138	18090.05
464.343	17858.63
464.549	17592.39
464.754	18157.63
464.959	18249.79
465.165	17834.05
465.37	16978
465.575	16623.7
465.781	17565.77
465.986	17449.04
466.191	16693.33
466.397	16423
466.602	15689.83
466.807	16318.56
467.012	16629.85
467.218	16236.64
467.423	16203.87
467.628	16111.71
467.833	16586.84
468.038	15949.92
468.244	15657.06
468.449	16222.3
468.654	15771.75
468.859	15337.58
469.064	15614.06
469.269	14983.28
469.474	15390.83
469.679	15374.44
469.885	14895.22
470.09	15181.93
470.295	14948.47
470.5	14696.57
470.705	14602.36
470.91	14391.42
471.115	14160
471.32	14221.44
471.525	14346.36
471.73	13926.53
471.935	14051.45
472.139	13627.53
472.344	13443.21
472.549	13500.55
472.754	13369.48
472.959	13076.62
473.164	13011.09
473.369	12664.98
473.574	13041.81
473.778	12857.49
473.983	12599.45
474.188	12759.19
474.393	12177.56
474.598	12331.16
474.802	12161.18
475.007	11987.1
475.212	11868.32
475.417	11751.59
475.621	11456.68
475.826	11679.91
476.031	11372.71
476.235	11298.98
476.44	11245.74
476.645	11186.35
476.849	11235.5
477.054	10920.11
477.259	11026.61
477.463	10952.88
477.668	10637.49
477.872	10594.48
478.077	10451.13
478.282	10426.55
478.486	10287.29
478.691	10150.07
478.895	10182.84
479.1	9998.52
479.304	10258.62
479.509	9797.82
479.713	9791.68
479.918	9842.88
480.122	9797.82
480.326	9758.91
480.531	9838.78
480.735	9795.78
480.94	9691.33
481.144	9722.05
481.348	9404.61
481.553	9433.29
481.757	9355.46
481.961	9498.82
482.166	9572.55
482.37	9552.07
482.574	9099.47
482.778	9212.1
482.983	9525.44
483.187	9218.25
483.391	9423.05
483.595	9300.17
483.8	9365.7
484.004	9375.94
484.208	9685.19
484.412	9136.33
484.616	9267.4
484.821	9507.01
485.025	9189.58
485.229	9441.48
485.433	9322.7
485.637	9339.08
485.841	9277.64
486.045	9248.97
486.249	9390.28
486.453	9375.94
486.657	9357.51
486.861	9466.05
487.065	9142.47
487.269	9240.78
487.473	9169.1
487.677	9482.44
487.881	9275.59
488.085	9244.87
488.289	9484.48
488.493	9355.46
488.697	9228.49
488.901	9230.54
489.105	9404.61
489.309	9504.96
489.512	9353.41
489.716	9435.33
489.92	9492.68
490.124	9568.45
490.328	9648.32
490.531	9687.23
490.735	9767.1
490.939	9476.29
491.143	9572.55
491.346	9527.49
491.55	9613.51
491.754	9758.91
491.958	9758.91
492.161	9793.73
492.365	9724.1
492.569	9959.61
492.772	10080.44
492.976	9963.71
493.18	9920.7
493.383	10039.48
493.587	10307.77
493.79	10502.33
493.994	10066.11
494.197	10248.38
494.401	10596.53
494.605	10283.19
494.808	10666.16
495.012	10586.29
495.215	10457.27
495.419	10776.75
495.622	10799.28
495.825	10784.94
496.029	10700.98
496.232	11106.48
496.436	10952.88
496.639	11372.71
496.843	11286.7
497.046	11452.58
497.249	11720.87
497.453	11821.22
497.656	12023.97
497.859	11821.22
498.063	12187.8
498.266	12222.62
498.469	12443.8
498.673	12099.74
498.876	12374.17
499.079	12619.92
499.282	12609.68
499.485	12812.43
499.689	12855.44
499.892	12886.16
500.095	13310.09
500.298	13502.6
500.501	13320.33
500.705	13840.51
500.908	14028.93
501.111	14008.45
501.314	14166.14
501.517	14473.34
501.72	14432.38
501.923	14600.31
502.126	15001.71
502.329	15089.78
502.532	15255.66
502.735	15466.6
502.938	15462.51
503.141	15612.01
503.344	15843.43
503.547	15882.34
503.75	16320.6
503.953	16318.56
504.156	16650.33
504.359	16679
504.562	16660.57
504.765	16949.33
504.968	17104.98
505.17	17190.99
505.373	17336.4
505.576	17676.36
505.779	18012.23
505.982	17926.21
506.185	18370.62
506.387	18210.88
506.59	18608.19
506.793	19068.98
506.996	18806.84
507.198	19064.88
507.401	19339.31
507.604	19687.46
507.807	20168.74
508.009	20027.43
508.212	20260.9
508.415	20441.12
508.617	20695.07
508.82	20830.23
509.022	20908.05
509.225	21307.41
509.428	21747.72
509.63	21714.95
509.833	21753.87
510.035	22349.82
510.238	21966.85
510.44	22208.51
510.643	22880.25
510.845	23060.47
511.048	22900.73
511.25	23257.07
511.453	23568.37
511.655	23914.47
511.858	24492
512.06	24094.69
512.262	24532.96
512.465	24340.45
512.667	24807.39
512.87	25008.09
513.072	24922.07
513.274	25483.22
513.477	25774.03
513.679	26357.7
513.881	26372.03
514.084	26351.56
514.286	26564.54
514.488	26779.58
514.69	27600.82
514.893	27783.09
515.095	27617.2
515.297	27914.16
515.499	28231.59
515.701	28493.73
515.904	28678.05
516.106	28968.86
516.308	29018.01
516.51	29753.23
516.712	29607.83
516.914	30201.74
517.116	30363.53
517.318	30394.25
517.52	30640
517.722	31088.51
517.925	31528.82
518.127	31952.75
518.329	32042.86
518.531	31983.47
518.733	32268.14
518.935	32679.78
519.136	32341.86
519.338	33314.65
519.54	33011.55
519.742	33918.8
519.944	33757.01
520.146	34418.5
520.348	34586.44
520.55	34367.3
520.752	34596.68
520.954	35665.72
521.155	35026.75
521.357	36038.45
521.559	35903.28
521.761	36587.3
521.963	36525.86
522.164	36794.15
522.366	36814.63
522.568	37218.08
522.77	37156.64
522.971	38006.55
523.173	37820.18
523.375	37834.52
523.576	37861.14
523.778	38258.45
523.98	38643.46
524.181	38948.61
524.383	38772.49
524.584	39317.25
524.786	39419.64
524.988	39569.15
525.189	39546.62
525.391	40097.52
525.592	40212.21
525.794	40355.57
525.995	40339.18
526.197	40693.48
526.398	40711.91
526.6	40951.52
526.801	41301.73
527.003	41045.73
527.204	41586.39
527.406	42102.48
527.607	41799.38
527.808	41975.51
528.01	41496.28
528.211	41869.01
528.412	43077.32
528.614	42956.49
528.815	42839.75
529.016	42966.73
529.218	42374.86
529.419	42835.66
529.62	42954.44
529.822	42608.33
530.023	43077.32
530.224	42909.38
530.425	43263.68
530.626	42860.23
530.828	42972.87
531.029	43849.4
531.23	43355.84
531.431	43800.25
531.632	43525.82
531.833	43767.48
532.035	43552.44
532.236	43042.5
532.437	44025.53
532.638	43583.16
532.839	44113.59
533.04	43888.31
533.241	43665.08
533.442	44375.73
533.643	44099.25
533.844	43968.18
534.045	44410.54
534.246	43691.71
534.447	44328.62
534.648	43878.07
534.849	44482.22
535.05	43747
535.251	44373.68
535.451	43949.75
535.652	44465.84
535.853	44304.05
536.054	44412.59
536.255	44529.33
536.456	44066.48
536.657	44598.96
536.857	44258.99
537.058	43974.33
537.259	44779.18
537.46	44615.34
537.66	44246.71
537.861	44484.27
538.062	44422.83
538.263	44885.67
538.463	44371.63
538.664	44050.1
538.865	44762.79
539.065	44601
539.266	44435.12
539.466	44852.9
539.667	44078.77
539.868	44713.64
540.068	44455.6
540.269	44469.93
540.469	44781.23
540.67	44250.8
540.87	44627.63
541.071	44367.54
541.271	44459.69
541.472	44312.24
541.672	44189.36
541.873	44224.18
542.073	43869.88
542.274	44658.35
542.474	44320.43
542.675	43851.45
542.875	44961.45
543.075	44222.13
543.276	43720.38
543.476	44467.89
543.676	44123.83
543.877	44381.87
544.077	44467.89
544.277	44338.86
544.478	44027.57
544.678	44222.13
544.878	44205.75
545.078	44236.47
545.279	43869.88
545.479	44074.68
545.679	44328.62
545.879	44297.91
546.079	44330.67
546.28	43964.09
546.48	43738.81
546.68	44433.07
546.88	44140.21
547.08	44496.56
547.28	43718.33
547.48	44068.53
547.68	43810.49
547.88	43822.78
548.081	44199.6
548.281	43591.36
548.481	43978.42
548.681	44060.34
548.881	44050.1
549.081	44086.96
549.28	43833.02
549.48	43747
549.68	43992.76
549.88	44553.9
550.08	43888.31
550.28	44039.86
550.48	43554.49
550.68	44009.14
550.88	43779.77
551.08	43921.08
551.279	43648.7
551.479	43738.81
551.679	43525.82
551.879	43572.92
552.079	44007.09
552.278	43339.46
552.478	43787.96
552.678	43443.9
552.878	43970.23
553.077	43380.42
553.277	43673.27
553.477	43871.93
553.676	43574.97
553.876	43505.34
554.076	43597.5
554.275	43638.46
554.475	42905.29
554.674	43419.33
554.874	43259.59
555.074	43030.21
555.273	43296.45
555.473	43333.31
555.672	42596.04
555.872	42886.85
556.071	42899.14
556.271	42979.01
556.47	42774.22
556.67	42563.28
556.869	43194.05
557.068	42893
557.268	42612.43
557.467	42743.5
557.667	42512.08
557.866	42579.66
558.065	42946.25
558.265	42358.48
558.464	41936.6
558.663	42610.38
558.863	41828.06
559.062	42929.86
559.261	42122.96
559.461	42776.26
559.66	41842.39
559.859	42075.86
560.058	41805.53
560.258	41772.76
560.457	41256.67
560.656	42041.04
560.855	41150.18
561.054	41993.94
561.253	41502.43
561.453	41559.77
561.652	42100.43
561.851	41672.41
562.05	41324.25
562.249	41037.54
562.448	41494.24
562.647	41107.17
562.846	40586.99
563.045	40949.48
563.244	40996.58
563.443	41404.13
563.642	40537.83
563.841	40765.16
564.04	40652.52
564.239	40726.25
564.438	40462.06
564.637	40926.95
564.836	40539.88
565.035	39917.3
565.234	39980.79
565.432	40181.49
565.631	39884.53
565.83	39960.31
566.029	39821.05
566.228	39841.53
566.427	39708.41
566.625	39329.53
566.824	38833.92
567.023	39618.3
567.222	38962.95
567.42	39845.62
567.619	39415.55
567.818	39028.48
568.016	39321.34
568.215	39112.45
568.414	39143.17
568.612	39153.41
568.811	38737.67
569.01	38737.67
569.208	38151.95
569.407	38815.49
569.605	38127.38
569.804	38356.75
570.002	37965.59
570.201	37998.35
570.4	37799.7
570.598	37965.59
570.797	37711.64
570.995	38006.55
571.193	37152.54
571.392	37664.53
571.59	36886.31
571.789	37345.05
571.987	37406.49
572.186	37254.94
572.384	36781.86
572.582	37121.82
572.781	37166.88
572.979	36724.52
573.177	36697.89
573.376	36779.81
573.574	36372.27
573.772	36343.59
573.971	36460.33
574.169	36155.18
574.367	36114.22
574.565	36146.99
574.763	35929.91
574.962	35823.41
575.16	35823.41
575.358	35544.89
575.556	35239.74
575.754	35981.1
575.952	35233.6
576.151	35559.22
576.349	35051.33
576.547	35346.23
576.745	35108.67
576.943	34668.36
577.141	35108.67
577.339	34975.55
577.537	34350.92
577.735	34443.08
577.933	33883.98
578.131	34447.18
578.329	34436.94
578.527	34023.25
578.725	34031.44
578.923	34191.18
579.121	33951.57
579.319	34170.7
579.516	33832.79
579.714	33531.73
579.912	33638.23
580.11	33357.66
580.308	33697.62
580.506	33251.16
580.704	32782.18
580.901	33150.81
581.099	33113.95
581.297	33199.96
581.495	32788.32
581.692	32954.21
581.89	32671.59
582.088	32790.37
582.285	32587.62
582.483	32446.31
582.681	32593.76
582.878	32376.68
583.076	32067.44
583.274	32374.63
583.471	31803.25
583.669	31924.08
583.866	31741.81
584.064	31960.94
584.262	31594.36
584.459	31741.81
584.657	31203.19
584.854	32053.1
585.052	31151.99
585.249	31537.01
585.447	31379.32
585.644	31053.69
585.841	31115.13
586.039	31129.47
586.236	30748.54
586.434	30859.13
586.631	30728.06
586.828	30695.3
587.026	30467.97
587.223	30504.84
587.42	30480.26
587.618	30517.12
587.815	30085
588.012	29896.59
588.21	29986.7
588.407	29888.4
588.604	29818.77
588.801	29654.93
588.999	29626.26
589.196	29724.56
589.393	29431.7
589.59	29515.67
589.787	29290.39
589.984	29149.08
590.182	29063.07
590.379	28960.67
590.576	29085.59
590.773	29198.23
590.97	28993.43
591.167	29052.83
591.364	28829.6
591.561	28645.28
591.758	28088.23
591.955	28534.69
592.152	28839.84
592.349	28342.18
592.546	28393.38
592.743	28508.07
592.94	27838.38
593.137	28223.4
593.334	28112.81
593.531	27822
593.727	27953.07
593.924	28106.66
594.121	27398.07
594.318	27404.21
594.515	27117.5
594.712	27512.75
594.908	26734.53
595.105	27176.89
595.302	27113.4
595.499	27219.89
595.696	26795.96
595.892	26771.39
596.089	26847.16
596.286	26566.59
596.482	26523.58
596.679	26646.46
596.876	26408.9
597.072	26296.26
597.269	26202.05
597.466	25616.33
597.662	26003.4
597.859	26404.8
598.055	26204.1
598.252	26060.74
598.448	25847.75
598.645	25440.21
598.841	25532.37
599.038	25862.09
599.234	25358.29
599.431	25116.63
599.627	25200.6
599.824	25276.37
600.02	25307.09
600.217	25472.98
600.413	25094.1
600.609	25370.58
600.806	24711.13
601.002	24983.51
601.198	24690.65
601.395	24707.04
601.591	24471.52
601.787	24965.08
601.984	24326.11
602.18	24776.67
602.376	24246.24
602.572	24340.45
602.769	24133.61
602.965	23988.2
603.161	24188.9
603.357	23789.55
603.553	23685.1
603.75	23914.47
603.946	23771.11
604.142	23914.47
604.338	23549.93
604.534	23658.48
604.73	23375.86
604.926	23492.59
605.122	23212.02
605.318	23330.8
605.514	23298.03
605.71	23025.65
605.906	23050.23
606.102	23019.51
606.298	22810.62
606.494	23031.8
606.69	23001.08
606.886	22779.9
607.082	22427.65
607.278	23015.41
607.474	22480.89
607.67	22777.85
607.866	22177.79
608.062	22566.91
608.257	22302.72
608.453	22353.92
608.649	22312.96
608.845	22120.45
609.041	22317.06
609.236	21899.27
609.432	22122.5
609.628	22050.82
609.824	21973
610.019	21757.96
610.215	21710.86
610.411	21630.99
610.606	21479.44
610.802	21821.45
610.998	21626.89
611.193	21786.63
611.389	21555.21
611.584	21499.92
611.78	21108.76
611.976	21530.64
612.171	21280.78
612.367	21420.05
612.562	21082.13
612.758	20664.35
612.953	21041.17
613.149	21082.13
613.344	21032.98
613.539	21413.9
613.735	21182.48
613.93	21002.26
614.126	20770.84
614.321	21164.05
614.517	20830.23
614.712	20901.91
614.907	20666.39
615.103	20776.98
615.298	20860.95
615.493	20768.79
615.688	20443.17
615.884	20750.36
616.079	20473.88
616.274	20547.61
616.47	20623.39
616.665	20332.58
616.86	20064.29
617.055	20125.73
617.25	20322.34
617.445	20105.25
617.641	20082.72
617.836	20133.92
618.031	19736.62
618.226	19951.65
618.421	19922.98
618.616	20303.9
618.811	19505.2
619.006	20152.35
619.201	19490.86
619.396	19531.82
619.591	19195.95
619.786	19451.95
619.981	19245.1
620.176	19433.52
620.371	19030.07
620.566	19142.71
620.761	19175.47
620.956	18985.01
621.151	18747.45
621.346	18585.66
621.541	18669.62
621.735	18581.56
621.93	18278.46
622.125	18493.5
622.32	18010.18
622.515	18341.95
622.709	18092.1
622.904	17977.41
623.099	17969.22
623.294	18061.38
623.488	17754.18
623.683	18069.57
623.878	17326.16
624.072	17406.03
624.267	17424.46
624.462	17510.47
624.656	17203.28
624.851	17150.03
625.046	16838.74
625.24	17143.89
625.435	16838.74
625.629	16760.92
625.824	16599.13
626.018	16521.31
626.213	16158.81
626.407	16154.72
626.602	16093.28
626.796	16304.22
626.991	16246.88
627.185	16156.77
627.38	16259.17
627.574	15841.38
627.768	15941.73
627.963	15562.86
628.157	15560.81
628.352	15501.42
628.546	15249.52
628.74	15540.33
628.935	15415.4
629.129	15333.48
629.323	14966.9
629.517	15011.95
629.712	14946.42
629.906	15108.21
630.1	14600.31
630.294	14774.39
630.489	14692.47
630.683	14874.74
630.877	14342.27
631.071	14418.04
631.265	14569.59
631.459	14268.54
631.653	14143.61
631.848	13951.1
632.042	14198.91
632.236	14211.2
632.43	14069.89
632.624	13832.32
632.818	13856.9
633.012	13713.54
633.206	13744.26
633.4	13566.09
633.594	13547.65
633.788	13469.83
633.982	13592.71
634.176	13271.18
634.369	13107.34
634.563	13244.56
634.757	13041.81
634.951	13250.7
635.145	13041.81
635.339	13009.04
635.533	12873.87
635.726	12923.02
635.92	12505.24
636.114	12777.62
636.308	12517.53
636.501	12513.43
636.695	12621.97
636.889	12226.71
637.083	12378.26
637.276	12161.18
637.47	12136.6
637.664	12142.75
637.857	12042.4
638.051	11804.83
638.244	11847.84
638.438	11731.11
638.632	11899.04
638.825	11561.12
639.019	11710.63
639.212	11661.48
639.406	11395.24
639.599	11563.17
639.793	11479.21
639.986	11372.71
640.18	11335.85
640.373	11167.91
640.567	11028.65
640.76	11129
640.954	10948.78
641.147	10922.16
641.34	11010.22
641.534	10916.01
641.727	10844.34
641.92	11028.65
642.114	10932.4
642.307	10651.83
642.5	10580.15
642.694	10510.52
642.887	10442.93
643.08	10539.19
643.273	10438.84
643.467	10318.01
643.66	10150.07
643.853	10199.23
644.046	10047.68
644.239	10191.03
644.432	9971.9
644.626	9824.45
644.819	9943.23
645.012	9822.4
645.205	9853.12
645.398	9791.68
645.591	9783.49
645.784	9828.54
645.977	9543.88
646.17	9582.79
646.363	9470.15
646.556	9408.71
646.749	9574.6
646.942	9416.9
647.135	9361.61
647.328	9406.66
647.521	9208.01
647.714	8909.01
647.907	9115.85
648.099	9070.79
648.292	9169.1
648.485	8816.85
648.678	8679.63
648.871	8974.54
649.064	8691.92
649.256	8638.67
649.449	8657.11
649.642	8732.88
649.835	8622.29
650.027	8536.28
650.22	8706.26
650.413	8388.82
650.605	8444.12
650.798	8351.96
650.991	8298.71
651.183	8222.94
651.376	8173.78
651.568	8179.93
651.761	8057.05
651.954	8034.52
652.146	8134.87
652.339	8093.91
652.531	7979.23
652.724	7995.61
652.916	7948.51
653.109	7956.7
653.301	7932.12
653.494	7661.79
653.686	7768.29
653.879	7903.45
654.071	7733.47
654.263	7639.26
654.456	7569.63
654.648	7637.22
654.84	7520.48
655.033	7395.56
655.225	7446.76
655.417	7311.59
655.61	7477.48
655.802	7397.6
655.994	7221.48
656.186	7354.6
656.379	7299.3
656.571	7057.64
656.763	7178.47
656.955	7198.95
657.148	6928.62
657.34	7157.99
657.532	6805.74
657.724	6928.62
657.916	7123.18
658.108	6785.26
658.3	6830.32
658.492	6953.2
658.684	6643.95
658.876	6791.41
659.068	6684.91
659.26	6600.94
659.452	6596.85
659.644	6772.97
659.836	6703.34
660.028	6625.52
660.22	6572.27
660.412	6539.51
660.604	6408.44
660.796	6439.16
660.988	6322.42
661.18	6369.52
661.372	6322.42
661.563	6193.4
661.755	6144.25
661.947	6281.46
662.139	6134.01
662.331	6152.44
662.522	6113.53
662.714	6066.42
662.906	5976.31
663.097	5976.31
663.289	6064.38
663.481	5816.57
663.673	5933.31
663.864	5908.73
664.056	5812.48
664.247	5896.44
664.439	5595.39
664.631	5705.98
664.822	5923.07
665.014	5695.74
665.205	5650.69
665.397	5656.83
665.588	5671.17
665.78	5394.69
665.971	5615.87
666.163	5597.44
666.354	5400.83
666.546	5564.67
666.737	5445.89
666.929	5574.91
667.12	5349.64
667.311	5337.35
667.503	5200.13
667.694	5298.44
667.885	5331.2
668.077	5280
668.268	5200.13
668.459	5304.58
668.651	5112.07
668.842	5173.51
669.033	5054.73
669.224	5183.75
669.416	5128.46
669.607	5062.92
669.798	5202.18
669.989	5087.5
670.18	5015.82
670.371	5169.41
670.563	4956.43
670.754	5107.98
670.945	5054.73
671.136	4950.28
671.327	4835.6
671.518	4733.2
671.709	4854.03
671.9	4831.5
672.091	4993.29
672.282	4659.47
672.473	4751.63
672.664	4733.2
672.855	4770.06
673.046	4536.59
673.237	4774.16
673.428	4702.48
673.619	4569.36
673.809	4727.05
674	4616.46
674.191	4448.53
674.382	4608.27
674.573	4358.42
674.764	4583.7
674.954	4565.26
675.145	4477.2
675.336	4360.47
675.527	4571.41
675.717	4518.16
675.908	4307.22
676.099	4411.67
676.289	4475.15
676.48	4354.32
676.671	4485.39
676.861	4337.94
677.052	4301.08
677.243	4315.41
677.433	4395.28
677.624	4294.93
677.814	4276.5
678.005	4219.16
678.195	4217.11
678.386	4339.99
678.576	4110.61
678.767	4129.05
678.957	4157.72
679.148	4270.36
679.338	4206.87
679.529	4170.01
679.719	4047.13
679.909	4288.79
680.1	4081.94
680.29	4141.33
680.481	4045.08
680.671	4083.99
680.861	4104.47
681.052	4137.24
681.242	4149.53
681.432	4004.12
681.622	3973.4
681.813	4069.66
682.003	3916.06
682.193	4004.12
682.383	3928.35
682.573	3895.58
682.764	3969.3
682.954	3907.87
683.144	3942.68
683.334	3926.3
683.524	3770.65
683.714	3836.19
683.904	3748.12
684.094	3854.62
684.284	3883.29
684.474	3825.95
684.664	3924.25
684.854	3860.76
685.044	3772.7
685.234	3776.8
685.424	3703.07
685.614	3735.84
685.804	3694.88
685.994	3791.13
686.184	3752.22
686.374	3711.26
686.564	3746.08
686.753	3727.64
686.943	3686.69
687.133	3766.56
687.323	3688.73
687.513	3574.05
687.702	3588.38
687.892	3674.4
688.082	3543.33
688.272	3672.35
688.461	3606.81
688.651	3504.42
688.841	3572
689.03	3600.67
689.22	3475.74
689.41	3561.76
689.599	3440.93
689.789	3469.6
689.979	3524.9
690.168	3471.65
690.358	3449.12
690.547	3346.72
690.737	3475.74
690.926	3270.95
691.116	3256.61
691.305	3297.57
691.495	3195.17
691.684	3338.53
691.874	3494.18
692.063	3453.22
692.252	3309.86
692.442	3277.09
692.631	3277.09
692.82	3213.6
693.01	3193.12
693.199	3217.7
693.388	3266.85
693.578	3266.85
693.767	3225.89
693.956	3103.01
694.146	3209.51
694.335	3055.91
694.524	3178.79
694.713	3072.29
694.902	3141.93
695.092	3098.92
695.281	3152.17
695.47	3080.49
695.659	2973.99
695.848	3002.66
696.037	3121.45
696.226	3154.21
696.415	2994.47
696.604	3209.51
696.793	3002.66
696.982	3176.74
697.171	3168.55
697.36	3057.96
697.549	2922.79
697.738	2879.79
697.927	3072.29
698.116	3045.67
698.305	3029.29
698.494	2912.55
698.683	2953.51
698.872	3117.35
699.061	3025.19
699.25	2918.7
699.438	3039.53
699.627	2916.65
699.816	2928.94
700.005	2906.41
700.193	2986.28
700.382	2857.26
700.571	2881.83
700.76	3072.29
700.948	2826.54
701.137	2951.46
701.326	2949.42
701.514	2824.49
701.703	3021.1
701.892	2910.5
702.08	2976.04
702.269	2849.07
702.457	2873.64
702.646	3006.76
702.834	2793.77
703.023	2840.87
703.212	2924.84
703.4	2973.99
703.589	2898.22
703.777	2941.22
703.965	2758.96
704.154	2779.43
704.342	2867.5
704.531	2916.65
704.719	2713.9
704.907	2820.39
705.096	2881.83
705.284	2957.61
705.472	2849.07
705.661	2734.38
705.849	2814.25
706.037	2996.52
706.226	2826.54
706.414	2851.11
706.602	2793.77
706.79	2881.83
706.979	2836.78
707.167	2885.93
707.355	2826.54
707.543	2904.36
707.731	2785.58
707.919	2814.25
708.107	2763.05
708.296	2900.27
708.484	2943.27
708.672	2920.74
708.86	2849.07
709.048	2814.25
709.236	2670.89
709.424	2773.29
709.612	2781.48
709.8	2720.04
709.988	2756.91
710.176	2724.14
710.364	2928.94
710.551	2701.61
710.739	2834.73
710.927	2683.18
711.115	2742.57
711.303	2763.05
711.491	2791.72
711.679	2642.22
711.866	2808.11
712.054	2728.24
712.242	2662.7
712.43	2711.85
712.617	2775.34
712.805	2746.67
712.993	2677.04
713.181	2711.85
713.368	2650.41
713.556	2801.96
713.744	2732.33
713.931	2763.05
714.119	2720.04
714.306	2617.65
714.494	2623.79
714.682	2677.04
714.869	2586.93
715.057	2779.43
715.244	2591.02
715.432	2797.87
715.619	2750.76
715.807	2617.65
715.994	2658.6
716.182	2666.8
716.369	2687.28
716.556	2625.84
716.744	2699.56
716.931	2703.66
717.119	2605.36
717.306	2664.75
717.493	2658.6
717.681	2640.17
717.868	2564.4
718.055	2578.73
718.242	2625.84
718.43	2689.32
718.617	2701.61
718.804	2685.23
718.991	2662.7
719.179	2732.33
719.366	2679.08
719.553	2679.08
719.74	2664.75
719.927	2697.52
720.114	2627.89
720.301	2611.5
720.488	2625.84
720.676	2593.07
720.863	2492.72
721.05	2601.26
721.237	2574.64
721.424	2578.73
721.611	2535.73
721.798	2601.26
721.985	2558.25
722.172	2672.94
722.358	2640.17
722.545	2672.94
722.732	2576.69
722.919	2548.01
723.106	2531.63
723.293	2548.01
723.48	2660.65
723.667	2517.29
723.853	2527.53
724.04	2668.84
724.227	2562.35
724.414	2445.62
724.6	2648.36
724.787	2564.4
724.974	2560.3
725.161	2556.21
725.347	2500.91
725.534	2541.87
725.72	2617.65
725.907	2517.29
726.094	2681.13
726.28	2623.79
726.467	2650.41
726.653	2525.49
726.84	2453.81
727.027	2595.12
727.213	2601.26
727.4	2642.22
727.586	2529.58
727.773	2435.38
727.959	2570.54
728.145	2611.5
728.332	2599.21
728.518	2439.47
728.705	2498.86
728.891	2466.1
729.077	2490.67
729.264	2613.55
729.45	2382.13
729.636	2545.97
729.823	2441.52
730.009	2519.34
730.195	2496.82
730.382	2464.05
730.568	2451.76
730.754	2484.53
730.94	2521.39
731.126	2591.02
731.313	2523.44
731.499	2603.31
731.685	2574.64
731.871	2527.53
732.057	2572.59
732.243	2470.19
732.429	2621.74
732.615	2476.34
732.801	2505.01
732.987	2429.23
733.173	2388.27
733.359	2531.63
733.545	2398.51
733.731	2511.15
733.917	2414.9
734.103	2537.77
734.289	2519.34
734.475	2425.14
734.661	2472.24
734.847	2474.29
735.033	2392.37
735.219	2539.82
735.404	2447.66
735.59	2492.72
735.776	2416.94
735.962	2359.6
736.148	2511.15
736.333	2431.28
736.519	2449.71
736.705	2322.74
736.89	2482.48
737.076	2347.31
737.262	2416.94
737.447	2406.7
737.633	2400.56
737.819	2312.5
738.004	2287.92
738.19	2277.68
738.375	2253.11
738.561	2373.94
738.747	2283.83
738.932	2349.36
739.118	2345.27
739.303	2316.59
739.489	2228.53
739.674	2210.1
739.859	2302.26
740.045	2224.44
740.23	2347.31
740.416	2206
740.601	2294.07
740.786	2292.02
740.972	2263.35
741.157	2306.35
741.342	2249.01
741.528	2128.18
741.713	2208.05
741.898	2257.2
742.084	2238.77
742.269	2306.35
742.454	2240.82
742.639	2191.67
742.824	2150.71
743.01	2216.24
743.195	2265.39
743.38	2191.67
743.565	2087.22
743.75	2158.9
743.935	2111.8
744.12	2156.85
744.305	2042.17
744.49	2140.47
744.675	2029.88
744.86	2019.64
745.045	2105.65
745.23	2013.49
745.415	2212.15
745.6	2072.89
745.785	1964.34
745.97	2210.1
746.155	2089.27
746.34	2007.35
746.525	2021.69
746.71	1984.82
746.895	2007.35
747.079	1923.38
747.264	2056.5
747.449	1876.28
747.634	1927.48
747.819	1968.44
748.003	2003.25
748.188	1812.79
748.373	1849.66
748.557	1851.71
748.742	1861.94
748.927	1853.75
749.111	1716.54
749.296	1712.44
749.481	1833.27
749.665	1913.14
749.85	1859.9
750.034	1761.59
750.219	1802.55
750.404	1919.29
750.588	1712.44
750.773	1728.83
750.957	1755.45
751.141	1732.92
751.326	1810.75
751.51	1730.87
751.695	1737.02
751.879	1687.87
752.064	1712.44
752.248	1638.72
752.432	1632.57
752.617	1575.23
752.801	1663.29
752.985	1593.66
753.17	1552.7
753.354	1562.94
753.538	1616.19
753.722	1581.37
753.907	1573.18
754.091	1495.36
754.275	1646.91
754.459	1462.59
754.643	1438.02
754.828	1497.41
755.012	1579.33
755.196	1462.59
755.38	1366.34
755.564	1417.54
755.748	1339.71
755.932	1534.27
756.116	1446.21
756.3	1360.19
756.484	1306.95
756.668	1446.21
756.852	1278.27
757.036	1425.73
757.22	1292.61
757.404	1368.38
757.588	1294.66
757.772	1421.63
757.956	1370.43
758.14	1366.34
758.323	1268.03
758.507	1302.85
758.691	1317.19
758.875	1368.38
759.059	1192.26
759.242	1255.75
759.426	1263.94
759.61	1290.56
759.794	1184.07
759.977	1253.7
760.161	1352
760.345	1284.42
760.528	1212.74
760.712	1227.07
760.895	1296.71
761.079	1206.59
761.263	1169.73
761.446	1196.36
761.63	1151.3
761.813	1155.4
761.997	1184.07
762.18	1143.11
762.364	1157.44
762.547	1032.52
762.731	1126.72
762.914	1188.16
763.098	1073.48
763.281	1112.39
763.464	1075.52
763.648	1114.44
763.831	1079.62
764.015	1096
764.198	1134.92
764.381	1169.73
764.564	1126.72
764.748	1089.86
764.931	1132.87
765.114	1038.66
765.297	1081.67
765.481	1077.57
765.664	1055.05
765.847	999.75
766.03	966.98
766.213	1034.57
766.397	1007.94
766.58	946.5
766.763	1001.8
766.946	954.69
767.129	1057.09
767.312	1028.42
767.495	1055.05
767.678	1040.71
767.861	940.36
768.044	997.7
768.227	1032.52
768.41	942.41
768.593	1018.18
768.776	964.93
768.959	960.84
769.142	977.22
769.324	1001.8
769.507	1050.95
769.69	989.51
769.873	1003.85
770.056	1016.13
770.239	923.98
770.421	1009.99
770.604	948.55
770.787	987.46
770.97	969.03
771.152	930.12
771.335	883.02
771.518	786.76
771.7	938.31
771.883	883.02
772.066	981.32
772.248	911.69
772.431	915.78
772.613	833.86
772.796	837.96
772.978	825.67
773.161	883.02
773.343	862.54
773.526	856.39
773.708	858.44
773.891	780.62
774.073	868.68
774.256	866.63
774.438	897.35
774.621	801.1
774.803	872.78
774.985	809.29
775.168	831.82
775.35	868.68
775.532	895.3
775.715	749.9
775.897	762.19
776.079	807.24
776.261	768.33
776.444	803.15
776.626	766.28
776.808	674.12
776.99	719.18
777.173	729.42
777.355	764.23
777.537	842.06
777.719	704.84
777.901	690.51
778.083	649.55
778.265	686.41
778.447	713.03
778.629	731.47
778.811	690.51
778.993	725.32
779.175	665.93
779.357	743.75
779.539	602.44
779.721	663.88
779.903	602.44
780.085	622.92
780.267	653.64
780.449	594.25
780.631	616.78
780.812	706.89
780.994	610.64
781.176	610.64
781.358	581.96
781.54	602.44
781.721	530.77
781.903	663.88
782.085	620.88
782.267	565.58
782.448	504.14
782.63	614.73
782.812	518.48
782.993	643.4
783.175	549.2
783.357	567.63
783.538	536.91
783.72	518.48
783.901	598.35
784.083	559.44
784.264	549.2
784.446	547.15
784.627	485.71
784.809	495.95
784.99	563.53
785.172	512.33
785.353	502.09
785.535	565.58
785.716	504.14
785.897	389.46
786.079	520.53
786.26	553.29
786.441	567.63
786.623	393.55
786.804	459.09
786.985	551.24
787.167	444.75
787.348	409.94
787.529	495.95
787.71	498
787.891	512.33
788.073	483.66
788.254	399.7
788.435	440.65
788.616	502.09
788.797	424.27
788.978	371.02
789.159	444.75
789.34	403.79
789.522	334.16
789.703	389.46
789.884	399.7
790.065	373.07
790.246	481.61
790.427	446.8
790.607	401.74
790.788	465.23
790.969	442.7
791.15	334.16
791.331	377.17
791.512	442.7
791.693	358.74
791.874	344.4
792.054	348.5
792.235	387.41
792.416	422.22
792.597	436.56
792.778	305.49
792.958	282.96
793.139	356.69
793.32	368.98
793.5	340.3
793.681	399.7
793.862	307.54
794.042	383.31
794.223	239.95
794.404	278.87
794.584	287.06
794.765	360.78
794.945	403.79
795.126	278.87
795.306	373.07
795.487	301.39
795.667	291.15
795.848	260.43
796.028	428.37
796.209	256.34
796.389	293.2
796.57	254.29
796.75	293.2
796.93	297.3
797.111	309.58
797.291	305.49
797.471	254.29
797.652	270.67
797.832	289.1
798.012	272.72
798.192	309.58
798.373	287.06
798.553	266.58
798.733	278.87
798.913	229.71
799.093	315.73
799.274	244.05
799.454	233.81
799.634	307.54
799.814	276.82
799.994	223.57
800.174	274.77
800.354	209.23
800.534	280.91
800.714	262.48
800.894	276.82
801.074	242
801.254	205.14
801.434	287.06
801.614	262.48
801.794	246.1
801.974	627.02
802.154	219.47
802.334	295.25
802.514	188.75
802.693	260.43
802.873	213.33
803.053	272.72
803.233	225.62
803.413	270.67
803.592	309.58
803.772	115.03
803.952	162.13
804.131	198.99
804.311	287.06
804.491	252.24
804.67	231.76
804.85	221.52
805.03	260.43
805.209	276.82
805.389	252.24
805.568	244.05
805.748	229.71
805.928	264.53
806.107	211.28
806.287	270.67
806.466	176.47
806.646	223.57
806.825	170.32
807.004	217.43
807.184	225.62
807.363	147.8
807.543	174.42
807.722	229.71
807.901	242
808.081	203.09
808.26	266.58
808.439	127.32
808.619	203.09
808.798	211.28
808.977	242
809.156	250.19
809.336	221.52
809.515	205.14
809.694	143.7
809.873	172.37
810.052	131.41
810.231	219.47
810.411	221.52
810.59	211.28
810.769	188.75
810.948	139.6
811.127	231.76
811.306	227.67
811.485	158.03
811.664	280.91
811.843	141.65
812.022	184.66
812.201	139.6
812.38	186.71
812.559	155.99
812.737	198.99
812.916	121.17
813.095	151.89
813.274	192.85
813.453	190.8
813.632	213.33
813.811	229.71
813.989	129.36
814.168	196.95
814.347	172.37
814.526	139.6
814.704	192.85
814.883	153.94
815.062	153.94
815.24	98.64
815.419	92.5
815.598	188.75
815.776	125.27
815.955	158.03
816.133	112.98
816.312	127.32
816.49	119.12
816.669	164.18
816.847	158.03
817.026	166.23
817.204	168.27
817.383	168.27
817.561	102.74
817.74	164.18
817.918	160.08
818.097	174.42
818.275	92.5
818.453	186.71
818.632	153.94
818.81	205.14
818.988	186.71
819.167	63.83
819.345	158.03
819.523	125.27
819.701	182.61
819.879	205.14
820.058	149.84
820.236	96.6
820.414	162.13
820.592	190.8
820.77	127.32
820.948	196.95
821.127	74.07
821.305	143.7
821.483	53.59
821.661	168.27
821.839	94.55
822.017	149.84
822.195	135.51
822.373	168.27
822.551	90.45
822.729	174.42
822.907	90.45
823.085	123.22
823.262	72.02
823.44	162.13
823.618	139.6
823.796	76.12
823.974	137.56
824.152	108.88
824.329	153.94
824.507	143.7
824.685	110.93
824.863	55.64
825.04	121.17
825.218	112.98
825.396	86.36
825.574	78.16
825.751	67.92
825.929	135.51
826.107	133.46
826.284	59.73
826.462	162.13
826.639	31.06
826.817	72.02
826.994	141.65
827.172	57.68
827.349	135.51
827.527	59.73
827.704	119.12
827.882	139.6
828.059	74.07
828.237	90.45
828.414	160.08
828.591	92.5
828.769	51.54
828.946	47.44
829.124	112.98
829.301	78.16
829.478	59.73
829.655	84.31
829.833	59.73
830.01	115.03
830.187	45.4
830.364	82.26
830.542	86.36
830.719	121.17
830.896	98.64
831.073	96.6
831.25	84.31
831.427	170.32
831.604	90.45
831.782	49.49
831.959	88.4
832.136	74.07
832.313	90.45
832.49	55.64
832.667	108.88
832.844	65.88
833.021	86.36
833.198	65.88
833.374	98.64
833.551	108.88
833.728	86.36
833.905	80.21
834.082	14.68
834.259	20.82
834.436	112.98
834.612	41.3
834.789	100.69
834.966	-16.04
835.143	88.4
835.319	78.16
835.496	72.02
835.673	106.84
835.85	82.26
836.026	37.2
836.203	96.6
836.38	35.16
836.556	104.79
836.733	92.5
836.909	22.87
837.086	41.3
837.262	45.4
837.439	53.59
837.616	49.49
837.792	37.2
837.968	108.88
838.145	63.83
838.321	59.73
838.498	78.16
838.674	80.21
838.851	39.25
839.027	29.01
839.203	29.01
839.38	104.79
839.556	22.87
839.732	51.54
839.909	74.07
840.085	57.68
840.261	61.78
840.437	108.88
840.614	35.16
840.79	102.74
840.966	4.44
841.142	8.53
841.318	72.02
841.494	78.16
841.671	51.54
841.847	61.78
842.023	-13.99
842.199	-5.8
842.375	72.02
842.551	117.08
842.727	-3.75
842.903	33.11
843.079	8.53
843.255	92.5
843.431	14.68
843.607	98.64
843.783	16.73
843.959	110.93
844.134	78.16
844.31	33.11
844.486	78.16
844.662	92.5
844.838	14.68
845.013	69.97
845.189	39.25
845.365	4.44
845.541	41.3
845.716	106.84
845.892	69.97
846.068	37.2
846.244	43.35
846.419	65.88
846.595	31.06
846.77	63.83
846.946	29.01
847.122	22.87
847.297	12.63
847.473	108.88
847.648	22.87
847.824	63.83
847.999	31.06
848.175	8.53
848.35	151.89
848.526	76.12
848.701	6.49
848.876	57.68
849.052	35.16
849.227	49.49
849.403	74.07
849.578	65.88
849.753	76.12
849.929	92.5
850.104	-18.09
850.279	43.35
850.454	6.49
850.63	47.44
850.805	8.53
850.98	31.06
851.155	45.4
851.33	78.16
851.505	43.35
851.681	100.69
851.856	51.54
852.031	45.4
852.206	39.25
852.381	29.01
852.556	39.25
852.731	16.73
852.906	102.74
853.081	61.78
853.256	69.97
853.431	41.3
853.606	33.11
853.781	35.16
853.956	49.49
854.131	82.26
854.305	49.49
854.48	12.63
854.655	24.92
854.83	53.59
855.005	102.74
855.18	72.02
855.354	65.88
855.529	49.49
855.704	-28.33
855.879	-9.9
856.053	18.77
856.228	72.02
856.403	14.68
856.577	-7.85
856.752	-30.38
856.926	2.39
857.101	20.82
857.276	29.01
857.45	-30.38
857.625	24.92
857.799	20.82
857.974	57.68
858.148	-50.86
858.323	65.88
858.497	86.36
858.672	41.3
858.846	-16.04
859.02	86.36
859.195	94.55
859.369	-32.43
859.543	59.73
859.718	4.44
859.892	-9.9
860.066	61.78
860.241	61.78
860.415	35.16
860.589	-22.19
860.763	18.77
860.938	8.53
861.112	-3.75
861.286	22.87
861.46	61.78
861.634	10.58
861.808	-18.09
861.982	-18.09
862.157	-16.04
862.331	35.16
862.505	-3.75
862.679	26.96
862.853	16.73
863.027	12.63
863.201	72.02
863.375	29.01
863.549	-16.04
863.722	-1.71
863.896	26.96
864.07	-26.28
864.244	37.2
864.418	123.22
864.592	90.45
864.766	12.63
864.939	-11.95
865.113	18.77
865.287	45.4
865.461	45.4
865.634	-5.8
865.808	16.73
865.982	-16.04
866.156	-52.91
866.329	-20.14
866.503	-42.67
866.676	22.87
866.85	-5.8
867.024	0.34
867.197	39.25
867.371	55.64
867.544	29.01
867.718	26.96
867.891	-26.28
868.065	35.16
868.238	-16.04
868.412	24.92
868.585	20.82
868.759	22.87
868.932	2.39
869.105	24.92
869.279	33.11
869.452	33.11
869.625	6.49
869.799	49.49
869.972	0.34
870.145	0.34
870.319	-16.04
870.492	24.92
870.665	-59.05
870.838	20.82
871.011	4.44
871.185	47.44
871.358	26.96
871.531	-36.52
871.704	12.63
871.877	51.54
872.05	12.63
872.223	53.59
872.396	-38.57
872.569	0.34
872.742	2.39
872.915	39.25
873.088	-3.75
873.261	8.53
873.434	59.73
873.607	-28.33
873.78	-20.14
873.953	-32.43
874.126	33.11
874.299	20.82
874.471	-48.81
874.644	0.34
874.817	-20.14
874.99	4.44
875.163	4.44
875.335	63.83
875.508	57.68
875.681	74.07
875.853	43.35
876.026	6.49
876.199	57.68
876.371	18.77
876.544	-67.24
876.717	-22.19
876.889	10.58
877.062	-9.9
877.234	37.2
877.407	-1.71
877.579	-16.04
877.752	14.68
877.924	4.44
878.097	63.83
878.269	76.12
878.442	43.35
878.614	0.34
878.786	-11.95
878.959	-61.1
879.131	33.11
879.303	6.49
879.476	39.25
879.648	0.34
879.82	41.3
879.993	-79.53
880.165	72.02
880.337	-24.23
880.509	-5.8
880.681	18.77
880.854	24.92
881.026	31.06
881.198	45.4
881.37	31.06
881.542	33.11
881.714	16.73
881.886	-32.43
882.058	10.58
882.23	8.53
882.402	18.77
882.574	16.73
882.746	43.35
882.918	43.35
883.09	67.92
883.262	2.39
883.434	33.11
883.606	26.96
883.778	78.16
883.95	-7.85
884.122	-26.28
884.293	88.4
884.465	-44.71
884.637	41.3
884.809	8.53
884.98	76.12
885.152	0.34
885.324	-16.04
885.496	8.53
885.667	22.87
885.839	18.77
886.011	45.4
886.182	-7.85
886.354	18.77
886.525	90.45
886.697	22.87
886.869	-24.23
887.04	-30.38
887.212	80.21
887.383	39.25
887.555	-18.09
887.726	47.44
887.897	-7.85
888.069	12.63
888.24	26.96
888.412	31.06
888.583	110.93
888.754	43.35
888.926	22.87
889.097	8.53
889.268	-42.67
889.44	-18.09
889.611	-16.04
889.782	74.07
889.953	14.68
890.125	14.68
890.296	-7.85
890.467	18.77
890.638	-73.39
890.809	59.73
890.98	-36.52
891.151	-1.71
891.323	-20.14
891.494	26.96
891.665	-52.91
891.836	-11.95
892.007	43.35
892.178	-9.9
892.349	41.3
892.52	12.63
892.691	49.49
892.862	6.49
893.032	-161.45
893.203	-28.33
893.374	14.68
893.545	63.83
893.716	-7.85
893.887	-48.81
894.057	2.39
894.228	29.01
894.399	6.49
894.57	43.35
894.74	4.44
894.911	47.44
895.082	37.2
895.253	22.87
895.423	-18.09
895.594	45.4
895.764	-9.9
895.935	69.97
896.106	65.88
896.276	-22.19
896.447	31.06
896.617	14.68
896.788	16.73
896.958	-26.28
897.129	29.01
897.299	6.49
897.47	16.73
897.64	-18.09
897.81	-1.71
897.981	39.25
898.151	49.49
898.322	35.16
898.492	10.58
898.662	67.92
898.832	57.68
899.003	29.01
899.173	39.25
899.343	-50.86
899.513	-3.75
