Data from USB4F104151__154__11-08-28-130.txt Node

Date: Wed Mar 12 11:08:28 EDT 2025
User: louis
Spectrometer: USB4F10415
Trigger mode: 4
Integration Time (sec): 2.000000E-2
Scans to average: 1
Electric dark correction enabled: true
Nonlinearity correction enabled: false
Boxcar width: 0
XAxis mode: Wavelengths
Number of Pixels in Spectrum: 3648
>>>>>Begin Spectral Data<<<<<
178.204	-90.96
178.424	-90.96
178.644	-90.96
178.864	-78.68
179.084	-107.35
179.304	11.43
179.524	-23.38
179.744	54.44
179.964	-11.09
180.184	9.39
180.404	19.63
180.624	25.77
180.844	-62.29
181.064	-60.24
181.283	23.72
181.503	23.72
181.723	-11.09
181.943	-50
182.163	27.82
182.383	-43.86
182.602	33.96
182.822	48.3
183.042	3.24
183.262	-17.24
183.482	21.67
183.701	-84.82
183.921	-35.67
184.141	44.2
184.361	13.48
184.58	-23.38
184.8	-33.62
185.02	11.43
185.239	3.24
185.459	-11.09
185.679	23.72
185.898	-68.44
186.118	29.87
186.338	-41.81
186.557	-41.81
186.777	27.82
186.997	-23.38
187.216	-4.95
187.436	72.87
187.655	-45.91
187.875	-4.95
188.095	-0.85
188.314	56.49
188.534	19.63
188.753	72.87
188.973	31.91
189.192	54.44
189.412	15.53
189.631	-11.09
189.851	-70.48
190.07	76.97
190.29	19.63
190.509	-88.92
190.729	-52.05
190.948	38.06
191.168	60.59
191.387	101.55
191.607	-0.85
191.826	-66.39
192.045	62.63
192.265	17.58
192.484	142.5
192.704	-0.85
192.923	15.53
193.142	70.83
193.362	56.49
193.581	95.4
193.8	21.67
194.02	62.63
194.239	44.2
194.458	44.2
194.678	31.91
194.897	31.91
195.116	17.58
195.335	23.72
195.555	-37.72
195.774	-70.48
195.993	23.72
196.212	44.2
196.432	50.35
196.651	21.67
196.87	44.2
197.089	9.39
197.308	-15.19
197.528	17.58
197.747	7.34
197.966	21.67
198.185	9.39
198.404	-37.72
198.623	42.15
198.842	29.87
199.062	-45.91
199.281	52.39
199.5	-39.76
199.719	7.34
199.938	17.58
200.157	72.87
200.376	19.63
200.595	-2.9
200.814	9.39
201.033	-33.62
201.252	-60.24
201.471	1.19
201.69	33.96
201.909	40.11
202.128	-9.05
202.347	40.11
202.566	48.3
202.785	-2.9
203.004	-33.62
203.223	99.5
203.442	-27.48
203.661	-13.14
203.879	83.11
204.098	-2.9
204.317	-33.62
204.536	-0.85
204.755	29.87
204.974	-4.95
205.193	3.24
205.411	79.02
205.63	68.78
205.849	31.91
206.068	-17.24
206.287	3.24
206.505	-4.95
206.724	-31.57
206.943	-11.09
207.162	-25.43
207.381	-25.43
207.599	83.11
207.818	40.11
208.037	33.96
208.255	-27.48
208.474	25.77
208.693	1.19
208.911	33.96
209.13	64.68
209.349	3.24
209.567	9.39
209.786	58.54
210.005	38.06
210.223	1.19
210.442	23.72
210.661	54.44
210.879	-45.91
211.098	11.43
211.316	31.91
211.535	29.87
211.753	-60.24
211.972	27.82
212.191	-21.33
212.409	-47.96
212.628	36.01
212.846	-7
213.065	-41.81
213.283	-15.19
213.502	79.02
213.72	-31.57
213.938	21.67
214.157	31.91
214.375	27.82
214.594	105.64
214.812	89.26
215.031	81.07
215.249	23.72
215.467	-37.72
215.686	-11.09
215.904	17.58
216.122	-39.76
216.341	7.34
216.559	-0.85
216.778	42.15
216.996	81.07
217.214	-17.24
217.432	93.35
217.651	-19.29
217.869	-7
218.087	38.06
218.306	-43.86
218.524	27.82
218.742	134.31
218.96	-11.09
219.179	54.44
219.397	-2.9
219.615	19.63
219.833	64.68
220.051	-21.33
220.27	9.39
220.488	-29.52
220.706	7.34
220.924	-15.19
221.142	-0.85
221.36	5.29
221.578	97.45
221.796	-29.52
222.015	50.35
222.233	11.43
222.451	42.15
222.669	-4.95
222.887	42.15
223.105	-9.05
223.323	54.44
223.541	-64.34
223.759	-0.85
223.977	-58.2
224.195	13.48
224.413	44.2
224.631	17.58
224.849	9.39
225.067	38.06
225.285	-17.24
225.503	66.73
225.721	-21.33
225.939	46.25
226.157	-27.48
226.375	19.63
226.592	81.07
226.81	-54.1
227.028	40.11
227.246	5.29
227.464	91.31
227.682	-21.33
227.9	27.82
228.117	52.39
228.335	74.92
228.553	56.49
228.771	23.72
228.989	7.34
229.206	54.44
229.424	36.01
229.642	46.25
229.86	-25.43
230.077	33.96
230.295	54.44
230.513	-43.86
230.731	-17.24
230.948	13.48
231.166	-23.38
231.384	33.96
231.601	17.58
231.819	17.58
232.037	46.25
232.254	-13.14
232.472	38.06
232.689	29.87
232.907	36.01
233.125	44.2
233.342	-4.95
233.56	42.15
233.777	70.83
233.995	9.39
234.213	76.97
234.43	17.58
234.648	-29.52
234.865	11.43
235.083	13.48
235.3	7.34
235.518	33.96
235.735	11.43
235.953	87.21
236.17	7.34
236.388	27.82
236.605	3.24
236.822	19.63
237.04	-45.91
237.257	25.77
237.475	-11.09
237.692	-9.05
237.909	11.43
238.127	13.48
238.344	-9.05
238.562	-27.48
238.779	-0.85
238.996	-80.72
239.214	-41.81
239.431	109.74
239.648	31.91
239.865	56.49
240.083	31.91
240.3	15.53
240.517	74.92
240.735	-21.33
240.952	44.2
241.169	48.3
241.386	-0.85
241.603	-19.29
241.821	-13.14
242.038	-0.85
242.255	27.82
242.472	7.34
242.689	27.82
242.907	-37.72
243.124	-29.52
243.341	13.48
243.558	66.73
243.775	44.2
243.992	3.24
244.209	17.58
244.426	-17.24
244.643	21.67
244.86	9.39
245.078	23.72
245.295	-0.85
245.512	-2.9
245.729	38.06
245.946	38.06
246.163	23.72
246.38	9.39
246.597	48.3
246.814	23.72
247.031	-4.95
247.248	-25.43
247.464	48.3
247.681	48.3
247.898	-13.14
248.115	-0.85
248.332	21.67
248.549	52.39
248.766	56.49
248.983	7.34
249.2	19.63
249.417	50.35
249.633	13.48
249.85	54.44
250.067	-31.57
250.284	-21.33
250.501	36.01
250.717	27.82
250.934	-56.15
251.151	54.44
251.368	-7
251.585	40.11
251.801	58.54
252.018	15.53
252.235	42.15
252.451	-54.1
252.668	11.43
252.885	-19.29
253.102	15.53
253.318	27.82
253.535	11.43
253.752	-39.76
253.968	74.92
254.185	-25.43
254.401	87.21
254.618	1.19
254.835	-45.91
255.051	89.26
255.268	91.31
255.484	44.2
255.701	-23.38
255.917	11.43
256.134	27.82
256.351	60.59
256.567	-19.29
256.784	48.3
257	-21.33
257.217	7.34
257.433	40.11
257.65	27.82
257.866	66.73
258.082	-29.52
258.299	1.19
258.515	5.29
258.732	-29.52
258.948	68.78
259.165	13.48
259.381	48.3
259.597	56.49
259.814	62.63
260.03	56.49
260.246	64.68
260.463	31.91
260.679	25.77
260.895	-45.91
261.112	21.67
261.328	23.72
261.544	-15.19
261.761	11.43
261.977	17.58
262.193	-0.85
262.409	44.2
262.626	25.77
262.842	48.3
263.058	62.63
263.274	36.01
263.49	56.49
263.707	-0.85
263.923	23.72
264.139	-11.09
264.355	40.11
264.571	-4.95
264.787	5.29
265.004	-13.14
265.22	50.35
265.436	29.87
265.652	21.67
265.868	9.39
266.084	-25.43
266.3	-27.48
266.516	-2.9
266.732	-9.05
266.948	-11.09
267.164	-74.58
267.38	-45.91
267.596	33.96
267.812	56.49
268.028	-21.33
268.244	-43.86
268.46	19.63
268.676	-33.62
268.892	46.25
269.108	7.34
269.324	-17.24
269.54	-33.62
269.756	99.5
269.972	1.19
270.188	33.96
270.403	-21.33
270.619	38.06
270.835	85.16
271.051	5.29
271.267	15.53
271.483	97.45
271.698	40.11
271.914	97.45
272.13	-21.33
272.346	62.63
272.562	-7
272.777	-11.09
272.993	-66.39
273.209	68.78
273.425	7.34
273.64	-13.14
273.856	40.11
274.072	-2.9
274.287	-0.85
274.503	64.68
274.719	42.15
274.934	-4.95
275.15	-62.29
275.366	25.77
275.581	72.87
275.797	36.01
276.012	-15.19
276.228	15.53
276.444	79.02
276.659	33.96
276.875	-29.52
277.09	-45.91
277.306	-33.62
277.521	60.59
277.737	15.53
277.952	23.72
278.168	5.29
278.383	21.67
278.599	38.06
278.814	31.91
279.03	66.73
279.245	-19.29
279.461	-66.39
279.676	62.63
279.892	72.87
280.107	60.59
280.322	9.39
280.538	5.29
280.753	-13.14
280.969	23.72
281.184	25.77
281.399	58.54
281.615	-29.52
281.83	-31.57
282.045	33.96
282.26	-70.48
282.476	-37.72
282.691	-11.09
282.906	27.82
283.122	74.92
283.337	-25.43
283.552	27.82
283.767	-19.29
283.983	91.31
284.198	5.29
284.413	29.87
284.628	-25.43
284.843	60.59
285.058	60.59
285.274	17.58
285.489	5.29
285.704	-0.85
285.919	-13.14
286.134	89.26
286.349	40.11
286.564	-29.52
286.779	101.55
286.995	-19.29
287.21	-2.9
287.425	83.11
287.64	50.35
287.855	109.74
288.07	38.06
288.285	50.35
288.5	-25.43
288.715	-58.2
288.93	27.82
289.145	68.78
289.36	-11.09
289.575	3.24
289.79	44.2
290.004	17.58
290.219	44.2
290.434	66.73
290.649	64.68
290.864	9.39
291.079	-0.85
291.294	3.24
291.509	-37.72
291.724	25.77
291.938	19.63
292.153	9.39
292.368	13.48
292.583	40.11
292.798	122.02
293.012	31.91
293.227	-11.09
293.442	-66.39
293.657	-52.05
293.871	40.11
294.086	48.3
294.301	15.53
294.516	83.11
294.73	-35.67
294.945	54.44
295.16	44.2
295.374	13.48
295.589	89.26
295.804	-4.95
296.018	19.63
296.233	27.82
296.447	48.3
296.662	-43.86
296.877	68.78
297.091	29.87
297.306	3.24
297.52	31.91
297.735	60.59
297.949	15.53
298.164	17.58
298.378	-4.95
298.593	52.39
298.807	-11.09
299.022	58.54
299.236	15.53
299.451	17.58
299.665	-15.19
299.88	27.82
300.094	-31.57
300.309	-15.19
300.523	-35.67
300.737	13.48
300.952	15.53
301.166	-27.48
301.381	-13.14
301.595	-0.85
301.809	-7
302.024	48.3
302.238	13.48
302.452	5.29
302.667	5.29
302.881	31.91
303.095	-25.43
303.309	105.64
303.524	-0.85
303.738	89.26
303.952	79.02
304.166	89.26
304.381	58.54
304.595	-4.95
304.809	-13.14
305.023	56.49
305.237	-0.85
305.452	-66.39
305.666	-35.67
305.88	70.83
306.094	19.63
306.308	101.55
306.522	-27.48
306.736	25.77
306.95	62.63
307.164	19.63
307.379	29.87
307.593	31.91
307.807	-70.48
308.021	68.78
308.235	31.91
308.449	-23.38
308.663	-50
308.877	27.82
309.091	62.63
309.305	1.19
309.519	-27.48
309.733	113.83
309.947	-58.2
310.161	23.72
310.374	17.58
310.588	72.87
310.802	-19.29
311.016	60.59
311.23	-2.9
311.444	56.49
311.658	-41.81
311.872	66.73
312.085	-0.85
312.299	70.83
312.513	64.68
312.727	66.73
312.941	-13.14
313.154	27.82
313.368	74.92
313.582	62.63
313.796	9.39
314.009	23.72
314.223	68.78
314.437	44.2
314.651	29.87
314.864	7.34
315.078	25.77
315.292	56.49
315.505	38.06
315.719	25.77
315.933	-25.43
316.146	21.67
316.36	-9.05
316.573	33.96
316.787	36.01
317.001	11.43
317.214	7.34
317.428	48.3
317.641	13.48
317.855	44.2
318.068	7.34
318.282	15.53
318.495	64.68
318.709	-41.81
318.922	-7
319.136	85.16
319.349	11.43
319.563	11.43
319.776	70.83
319.99	33.96
320.203	-9.05
320.417	-70.48
320.63	27.82
320.843	19.63
321.057	-25.43
321.27	15.53
321.483	-29.52
321.697	105.64
321.91	15.53
322.124	1.19
322.337	40.11
322.55	9.39
322.763	93.35
322.977	19.63
323.19	-21.33
323.403	27.82
323.617	-0.85
323.83	79.02
324.043	-27.48
324.256	105.64
324.469	-54.1
324.683	76.97
324.896	-0.85
325.109	87.21
325.322	-66.39
325.535	25.77
325.748	-23.38
325.962	21.67
326.175	-80.72
326.388	72.87
326.601	27.82
326.814	48.3
327.027	-58.2
327.24	-13.14
327.453	9.39
327.666	62.63
327.879	17.58
328.092	-19.29
328.305	17.58
328.518	23.72
328.731	38.06
328.944	21.67
329.157	64.68
329.37	15.53
329.583	-15.19
329.796	19.63
330.009	-15.19
330.222	15.53
330.435	44.2
330.648	38.06
330.861	15.53
331.073	-15.19
331.286	29.87
331.499	-21.33
331.712	-25.43
331.925	-21.33
332.138	-15.19
332.35	40.11
332.563	76.97
332.776	72.87
332.989	-13.14
333.202	5.29
333.414	7.34
333.627	48.3
333.84	36.01
334.053	21.67
334.265	-52.05
334.478	33.96
334.691	1.19
334.903	40.11
335.116	-39.76
335.329	42.15
335.541	11.43
335.754	81.07
335.966	29.87
336.179	23.72
336.392	27.82
336.604	38.06
336.817	-4.95
337.029	119.98
337.242	-0.85
337.454	46.25
337.667	81.07
337.88	42.15
338.092	3.24
338.305	107.69
338.517	-17.24
338.729	27.82
338.942	-13.14
339.154	40.11
339.367	-21.33
339.579	33.96
339.792	79.02
340.004	7.34
340.217	40.11
340.429	33.96
340.641	-41.81
340.854	74.92
341.066	31.91
341.278	70.83
341.491	52.39
341.703	11.43
341.915	-7
342.128	52.39
342.34	-25.43
342.552	-7
342.764	85.16
342.977	54.44
343.189	-9.05
343.401	27.82
343.613	9.39
343.826	46.25
344.038	113.83
344.25	-0.85
344.462	62.63
344.674	5.29
344.886	-19.29
345.099	56.49
345.311	17.58
345.523	-21.33
345.735	-45.91
345.947	54.44
346.159	31.91
346.371	56.49
346.583	-25.43
346.795	21.67
347.007	1.19
347.219	52.39
347.431	-9.05
347.643	58.54
347.855	15.53
348.067	54.44
348.279	7.34
348.491	29.87
348.703	46.25
348.915	17.58
349.127	-39.76
349.339	60.59
349.551	-29.52
349.763	64.68
349.975	-19.29
350.187	87.21
350.399	-2.9
350.61	87.21
350.822	13.48
351.034	-50
351.246	25.77
351.458	15.53
351.669	21.67
351.881	83.11
352.093	3.24
352.305	97.45
352.517	54.44
352.728	70.83
352.94	85.16
353.152	-4.95
353.363	31.91
353.575	74.92
353.787	33.96
353.999	25.77
354.21	42.15
354.422	-37.72
354.633	54.44
354.845	93.35
355.057	-4.95
355.268	46.25
355.48	68.78
355.692	33.96
355.903	-11.09
356.115	-17.24
356.326	-13.14
356.538	76.97
356.749	11.43
356.961	99.5
357.172	15.53
357.384	76.97
357.595	38.06
357.807	5.29
358.018	23.72
358.23	-27.48
358.441	25.77
358.653	-2.9
358.864	-33.62
359.075	74.92
359.287	68.78
359.498	11.43
359.709	38.06
359.921	7.34
360.132	66.73
360.344	1.19
360.555	76.97
360.766	60.59
360.977	9.39
361.189	-25.43
361.4	44.2
361.611	44.2
361.823	48.3
362.034	33.96
362.245	-13.14
362.456	74.92
362.667	46.25
362.879	48.3
363.09	33.96
363.301	42.15
363.512	46.25
363.723	95.4
363.935	38.06
364.146	89.26
364.357	40.11
364.568	93.35
364.779	-31.57
364.99	5.29
365.201	72.87
365.412	44.2
365.623	33.96
365.834	15.53
366.045	-64.34
366.256	64.68
366.467	68.78
366.678	-4.95
366.889	48.3
367.1	5.29
367.311	68.78
367.522	66.73
367.733	48.3
367.944	23.72
368.155	62.63
368.366	-9.05
368.577	36.01
368.788	36.01
368.999	54.44
369.209	3.24
369.42	64.68
369.631	21.67
369.842	-4.95
370.053	31.91
370.264	58.54
370.474	29.87
370.685	87.21
370.896	64.68
371.107	122.02
371.317	36.01
371.528	15.53
371.739	76.97
371.95	66.73
372.16	46.25
372.371	-52.05
372.582	-27.48
372.792	97.45
373.003	3.24
373.214	31.91
373.424	95.4
373.635	38.06
373.846	31.91
374.056	-31.57
374.267	21.67
374.477	19.63
374.688	13.48
374.898	58.54
375.109	83.11
375.319	52.39
375.53	21.67
375.74	48.3
375.951	36.01
376.161	21.67
376.372	21.67
376.582	3.24
376.793	101.55
377.003	40.11
377.214	-2.9
377.424	15.53
377.635	-4.95
377.845	74.92
378.055	148.65
378.266	19.63
378.476	111.78
378.686	72.87
378.897	31.91
379.107	105.64
379.317	29.87
379.528	64.68
379.738	64.68
379.948	21.67
380.158	25.77
380.369	-13.14
380.579	56.49
380.789	48.3
380.999	85.16
381.21	144.55
381.42	117.93
381.63	33.96
381.84	-33.62
382.05	109.74
382.261	83.11
382.471	126.12
382.681	46.25
382.891	58.54
383.101	-31.57
383.311	-27.48
383.521	124.07
383.731	40.11
383.941	5.29
384.151	64.68
384.361	74.92
384.571	-9.05
384.781	44.2
384.991	83.11
385.201	11.43
385.411	50.35
385.621	13.48
385.831	-2.9
386.041	17.58
386.251	46.25
386.461	-33.62
386.671	38.06
386.881	68.78
387.091	95.4
387.301	93.35
387.511	46.25
387.72	-11.09
387.93	93.35
388.14	89.26
388.35	-23.38
388.56	128.17
388.769	-0.85
388.979	60.59
389.189	29.87
389.399	31.91
389.609	62.63
389.818	58.54
390.028	25.77
390.238	7.34
390.447	91.31
390.657	-13.14
390.867	56.49
391.076	33.96
391.286	72.87
391.496	25.77
391.705	25.77
391.915	3.24
392.125	76.97
392.334	-31.57
392.544	68.78
392.753	5.29
392.963	62.63
393.172	38.06
393.382	64.68
393.591	46.25
393.801	31.91
394.01	50.35
394.22	126.12
394.429	40.11
394.639	72.87
394.848	79.02
395.058	58.54
395.267	126.12
395.477	15.53
395.686	13.48
395.895	74.92
396.105	81.07
396.314	-4.95
396.524	72.87
396.733	40.11
396.942	52.39
397.152	83.11
397.361	31.91
397.57	105.64
397.78	105.64
397.989	15.53
398.198	38.06
398.407	-21.33
398.617	33.96
398.826	68.78
399.035	103.59
399.244	50.35
399.453	103.59
399.663	48.3
399.872	64.68
400.081	17.58
400.29	124.07
400.499	23.72
400.708	101.55
400.917	62.63
401.127	85.16
401.336	66.73
401.545	142.5
401.754	99.5
401.963	124.07
402.172	64.68
402.381	11.43
402.59	101.55
402.799	52.39
403.008	128.17
403.217	99.5
403.426	99.5
403.635	89.26
403.844	93.35
404.053	134.31
404.262	72.87
404.471	122.02
404.68	19.63
404.888	128.17
405.097	169.13
405.306	130.22
405.515	52.39
405.724	154.79
405.933	87.21
406.142	132.26
406.35	62.63
406.559	130.22
406.768	109.74
406.977	208.04
407.185	128.17
407.394	95.4
407.603	70.83
407.812	224.42
408.02	144.55
408.229	134.31
408.438	152.74
408.646	79.02
408.855	148.65
409.064	156.84
409.272	205.99
409.481	148.65
409.69	230.57
409.898	138.41
410.107	253.09
410.315	183.46
410.524	181.42
410.733	232.62
410.941	130.22
411.15	246.95
411.358	275.62
411.567	302.25
411.775	222.38
411.984	306.34
412.192	273.57
412.401	279.72
412.609	261.29
412.818	365.73
413.026	310.44
413.234	335.01
413.443	318.63
413.651	316.58
413.86	392.36
414.068	445.6
414.276	441.51
414.485	296.1
414.693	468.13
414.901	437.41
415.11	537.76
415.318	412.84
415.526	474.28
415.734	509.09
415.943	509.09
416.151	498.85
416.359	548
416.567	560.29
416.776	548
416.984	607.39
417.192	578.72
417.4	642.21
417.608	703.65
417.817	736.42
418.025	697.5
418.233	773.28
418.441	765.09
418.649	820.38
418.857	875.68
419.065	849.05
419.273	836.77
419.481	955.55
419.689	1010.84
419.897	949.4
420.105	1029.27
420.313	1100.95
420.521	1086.62
420.729	1166.49
420.937	1127.58
421.145	1184.92
421.353	1203.35
421.561	1238.17
421.769	1328.28
421.977	1285.27
422.185	1338.52
422.393	1453.2
422.601	1567.89
422.809	1555.6
423.017	1520.79
423.224	1582.23
423.432	1741.97
423.64	1545.36
423.848	1844.37
424.056	1750.16
424.263	1862.8
424.471	1881.23
424.679	1959.05
424.887	2077.83
425.094	2153.61
425.302	2108.55
425.51	2135.18
425.718	2305.16
425.925	2182.28
426.133	2411.65
426.341	2542.72
426.548	2643.07
426.756	2630.79
426.964	2632.83
427.171	2860.16
427.379	2942.08
427.586	2919.55
427.794	3038.33
428.001	3099.77
428.209	3388.53
428.417	3243.13
428.624	3501.17
428.832	3304.57
429.039	3492.98
429.247	3464.31
429.454	3687.54
429.662	4021.36
429.869	3669.11
430.076	3984.49
430.284	3853.42
430.491	4097.13
430.699	4234.35
430.906	4271.21
431.114	4346.98
431.321	4373.61
431.528	4631.65
431.736	4834.4
431.943	5137.5
432.15	5031.01
432.358	5071.97
432.565	5207.13
432.772	5282.91
432.979	5512.28
433.187	5497.94
433.394	5680.21
433.601	5993.55
433.808	5940.3
434.016	5844.05
434.223	6091.85
434.43	6593.61
434.637	6413.38
434.844	6970.43
435.052	7093.31
435.259	7056.45
435.466	6982.72
435.673	7050.3
435.88	7507
436.087	7867.44
436.294	7808.05
436.501	7603.25
436.708	7939.12
436.915	8127.53
437.122	8633.38
437.329	8471.59
437.537	8528.94
437.743	8895.52
437.95	8686.63
438.157	9212.96
438.364	9485.34
438.571	9536.54
438.778	9624.6
438.985	10454.03
439.192	10021.91
439.399	10439.69
439.606	10126.35
439.813	10685.45
440.02	11545.59
440.227	11101.19
440.433	11049.99
440.64	11469.82
440.847	11342.85
441.054	11486.2
441.261	12332.01
441.467	12094.45
441.674	12567.53
441.881	12794.86
442.088	12876.77
442.294	12647.4
442.501	13288.42
442.708	13378.53
442.914	13745.11
443.121	14392.27
443.328	13990.87
443.534	15076.29
443.741	14932.93
443.948	14318.54
444.154	15573.95
444.361	15367.1
444.568	15418.3
444.774	15313.86
444.981	15612.86
445.187	15944.63
445.394	16884.65
445.6	16346.03
445.807	18209.68
446.013	17277.86
446.22	17994.65
446.426	18465.68
446.633	18443.15
446.839	19145.61
447.046	18348.95
447.252	19239.81
447.459	19538.82
447.665	19295.11
447.871	20200.31
448.078	20786.03
448.284	19811.2
448.491	20323.19
448.697	21160.81
448.903	21570.4
449.11	21545.83
449.316	21322.6
449.522	21930.84
449.728	22178.65
449.935	22000.47
450.141	22440.79
450.347	22801.23
450.553	22149.98
450.76	22344.53
450.966	23259.98
451.172	22754.13
451.378	23376.71
451.584	22997.84
451.791	23720.77
451.997	23556.93
452.203	23634.75
452.409	23577.41
452.615	23755.58
452.821	22907.73
453.027	22649.68
453.233	23589.7
453.44	22518.61
453.646	23085.9
453.852	23163.72
454.058	23567.17
454.264	22616.91
454.47	22834
454.676	22686.54
454.882	22870.86
455.088	21255.01
455.294	21334.89
455.5	21594.98
455.705	21873.5
455.911	21078.89
456.117	20913
456.323	20355.96
456.529	19094.41
456.735	20079.48
456.941	19487.62
457.147	19145.61
457.352	18359.19
457.558	18559.89
457.764	18197.4
457.97	17980.31
458.176	17748.89
458.381	17691.55
458.587	17066.92
458.793	16602.03
458.999	15786.94
459.204	17281.95
459.41	16653.23
459.616	15539.13
459.821	15762.36
460.027	15563.71
460.233	15236.03
460.438	14255.06
460.644	14537.68
460.85	14095.32
461.055	13706.2
461.261	13560.8
461.466	12696.55
461.672	12049.39
461.878	13054.95
462.083	12233.71
462.289	11987.96
462.494	11932.66
462.7	11340.8
462.905	11002.88
463.111	11312.13
463.316	11537.4
463.522	11152.38
463.727	11387.9
463.932	11367.42
464.138	11412.48
464.343	11207.68
464.549	10871.81
464.754	11283.45
464.959	11054.08
465.165	11244.54
465.37	10789.89
465.575	10486.79
465.781	10765.32
465.986	10961.92
466.191	10681.35
466.397	10320.91
466.602	9610.26
466.807	10044.43
467.012	10208.27
467.218	9989.14
467.423	9860.12
467.628	10097.68
467.833	10116.11
468.038	10073.1
468.244	9681.94
468.449	10089.49
468.654	9767.96
468.859	9653.27
469.064	9741.33
469.269	9235.49
469.474	9212.96
469.679	9628.7
469.885	9434.14
470.09	9384.99
470.295	9301.02
470.5	9047.07
470.705	9153.57
470.91	8950.82
471.115	8752.17
471.32	9002.02
471.525	8965.15
471.73	8672.29
471.935	8686.63
472.139	8342.57
472.344	8426.54
472.549	8289.32
472.754	8533.03
472.959	8234.03
473.164	7914.55
473.369	7932.98
473.574	8047.66
473.778	7849.01
473.983	7814.2
474.188	7922.74
474.393	7676.98
474.598	7537.72
474.802	7334.97
475.007	7476.28
475.212	7537.72
475.417	7142.46
475.621	7257.15
475.826	7304.25
476.031	7025.73
476.235	6708.29
476.44	7085.12
476.645	6894.66
476.849	7062.59
477.054	6831.17
477.259	6663.24
477.463	6646.85
477.668	6575.17
477.872	6655.05
478.077	6485.06
478.282	6351.95
478.486	6323.27
478.691	6274.12
478.895	6470.73
479.1	6407.24
479.304	6294.6
479.509	6046.8
479.713	6288.46
479.918	6122.57
480.122	6134.86
480.326	6061.13
480.531	6044.75
480.735	5962.83
480.94	5995.6
481.144	6057.04
481.348	5758.03
481.553	5934.16
481.757	5809.23
481.961	5928.02
482.166	5989.46
482.37	5842
482.574	5774.42
482.778	5624.92
482.983	5909.58
483.187	5827.67
483.391	5930.06
483.595	5649.49
483.8	5848.15
484.004	6073.42
484.208	5964.88
484.412	5885.01
484.616	5788.75
484.821	5762.13
485.025	5778.51
485.229	5612.63
485.433	5743.7
485.637	5860.43
485.841	5672.02
486.045	5733.46
486.249	5897.3
486.453	5905.49
486.657	5837.91
486.861	5735.51
487.065	5725.27
487.269	5760.08
487.473	5815.38
487.677	5805.14
487.881	5911.63
488.085	5807.19
488.289	5700.69
488.493	5837.91
488.697	5885.01
488.901	5821.52
489.105	5850.19
489.309	5928.02
489.512	6014.03
489.716	5803.09
489.92	5987.41
490.124	5751.89
490.328	5942.35
490.531	5964.88
490.735	5919.82
490.939	5907.54
491.143	5856.34
491.346	5968.98
491.55	6038.61
491.754	6110.29
491.958	6155.34
492.161	6257.74
492.365	6112.33
492.569	6085.71
492.772	5975.12
492.976	6257.74
493.18	6288.46
493.383	6288.46
493.587	6321.23
493.79	6321.23
493.994	6339.66
494.197	6452.3
494.401	6399.05
494.605	6599.75
494.808	6550.6
495.012	6431.82
495.215	6831.17
495.419	6788.16
495.622	6581.32
495.825	6630.47
496.029	6751.3
496.232	6839.36
496.436	6904.9
496.639	7058.49
496.843	6960.19
497.046	7154.75
497.249	7189.56
497.453	7164.99
497.656	7355.45
497.859	7455.8
498.063	7525.43
498.266	7744.56
498.469	7554.1
498.673	7527.48
498.876	8002.61
499.079	7760.95
499.282	7726.13
499.485	7859.25
499.689	8172.59
499.892	8141.87
500.095	8414.25
500.298	8461.35
500.501	8414.25
500.705	8633.38
500.908	8608.81
501.111	8832.04
501.314	8815.65
501.517	8985.63
501.72	9120.8
501.923	9002.02
502.126	9165.85
502.329	9192.48
502.532	9262.11
502.735	9270.3
502.938	9657.37
503.141	9608.22
503.344	9868.31
503.547	9933.84
503.75	10097.68
503.953	10257.42
504.156	10161.17
504.359	10476.55
504.562	10376.2
504.765	10605.58
504.968	10628.1
505.17	10695.69
505.373	10884.1
505.576	10882.05
505.779	11240.45
505.982	11426.81
506.185	11527.16
506.387	11582.46
506.59	11635.71
506.793	11578.36
506.996	11707.38
507.198	12205.04
507.401	12106.74
507.604	12090.35
507.807	12418.03
508.009	12588.01
508.212	12823.53
508.415	12991.46
508.617	12794.86
508.82	13341.66
509.022	12991.46
509.225	13296.61
509.428	13448.16
509.63	13624.28
509.833	13698.01
510.035	14185.43
510.238	14095.32
510.44	14152.66
510.643	14298.06
510.845	14375.89
511.048	14431.18
511.25	14691.27
511.453	14511.05
511.655	15375.3
511.858	14998.47
512.06	15156.16
512.262	15186.88
512.465	15371.2
512.667	15647.68
512.87	15854.52
513.072	16118.71
513.274	16290.74
513.477	16634.8
513.679	16667.56
513.881	16794.54
514.084	16919.46
514.286	16796.59
514.488	17120.17
514.69	17542.05
514.893	17595.29
515.095	17564.57
515.297	17755.04
515.499	17959.83
515.701	18054.04
515.904	18439.06
516.106	18480.02
516.308	18656.14
516.51	19043.21
516.712	18905.99
516.914	19334.02
517.116	19645.31
517.318	19211.14
517.52	19592.06
517.722	19899.26
517.925	19960.7
518.127	20544.37
518.329	20548.47
518.531	20446.07
518.733	21066.6
518.935	21062.51
519.136	21173.1
519.338	21570.4
519.54	21476.19
519.742	21918.56
519.944	21728.1
520.146	22268.76
520.348	22315.86
520.55	22471.51
520.752	22885.2
520.954	22973.26
521.155	22569.81
521.357	23206.73
521.559	23305.03
521.761	23591.75
521.963	23788.35
522.164	24152.89
522.366	24116.03
522.568	24453.94
522.77	24417.08
522.971	24841.01
523.173	24730.42
523.375	25101.1
523.576	24898.35
523.778	25090.86
523.98	25629.48
524.181	25596.71
524.383	25525.03
524.584	26190.62
524.786	26202.91
524.988	25957.15
525.189	26340.12
525.391	26475.29
525.592	26536.73
525.794	26637.08
525.995	27058.96
526.197	27253.51
526.398	27319.05
526.6	27251.47
526.801	27456.26
527.003	27564.81
527.204	27966.21
527.406	27611.91
527.607	27859.71
527.808	28140.29
528.01	27824.9
528.211	28144.38
528.412	28764.92
528.614	28324.6
528.815	28656.37
529.016	28705.52
529.218	28576.5
529.419	28715.76
529.62	28662.52
529.822	28859.12
530.023	28953.33
530.224	28930.8
530.425	29047.54
530.626	28713.72
530.828	29094.64
531.029	29713.13
531.23	29260.52
531.431	29348.59
531.632	29182.7
531.833	29487.85
532.035	29139.69
532.236	29512.42
532.437	29473.51
532.638	29426.41
532.839	29778.66
533.04	30036.7
533.241	29281
533.442	30167.77
533.643	29610.73
533.844	29782.76
534.045	29950.69
534.246	29930.21
534.447	30081.76
534.648	29825.76
534.849	30290.65
535.05	29813.48
535.251	30024.42
535.451	29676.26
535.652	30042.85
535.853	29967.07
536.054	30167.77
536.255	30100.19
536.456	29975.27
536.657	30458.59
536.857	30055.14
537.058	29864.67
537.259	30548.7
537.46	30382.81
537.66	29825.76
537.861	30335.71
538.062	29905.63
538.263	30409.43
538.463	30055.14
538.664	30460.63
538.865	30139.1
539.065	30481.11
539.266	29940.45
539.466	30667.48
539.667	29772.52
539.868	30360.28
540.068	29946.59
540.269	30376.67
540.469	30173.92
540.67	30036.7
540.87	30231.26
541.071	30333.66
541.271	29766.37
541.472	30233.31
541.672	29934.31
541.873	30243.55
542.073	29827.81
542.274	30438.11
542.474	30104.29
542.675	29995.74
542.875	30343.9
543.075	30065.38
543.276	29661.93
543.476	30106.34
543.676	29981.41
543.877	29997.79
544.077	29989.6
544.277	30028.51
544.478	30132.96
544.678	29911.78
544.878	29905.63
545.078	30333.66
545.279	29795.04
545.479	29960.93
545.679	30202.59
545.879	30284.51
546.079	29876.96
546.28	29876.96
546.48	29901.54
546.68	30106.34
546.88	29987.55
547.08	30171.87
547.28	30198.49
547.48	29604.58
547.68	29893.35
547.88	30198.49
548.081	30157.53
548.281	30051.04
548.481	29995.74
548.681	30038.75
548.881	30135.01
549.081	30104.29
549.28	29690.6
549.48	30126.81
549.68	29977.31
549.88	30020.32
550.08	30182.11
550.28	29956.83
550.48	29612.77
550.68	30485.21
550.88	29879.01
551.08	29780.71
551.279	30081.76
551.479	29711.08
551.679	29737.7
551.879	29987.55
552.079	30218.97
552.278	29637.35
552.478	29934.31
552.678	29864.67
552.878	29747.94
553.077	30112.48
553.277	29321.96
553.477	30149.34
553.676	29506.28
553.876	29649.64
554.076	29625.06
554.275	29453.03
554.475	29518.57
554.674	29715.17
554.874	29651.69
555.074	29600.49
555.273	29680.36
555.473	29801.19
555.672	29541.1
555.872	29063.92
556.071	29379.31
556.271	29950.69
556.47	29043.44
556.67	29248.24
556.869	29022.96
557.068	29422.31
557.268	29014.77
557.467	29070.06
557.667	29108.97
557.866	29303.53
558.065	28975.86
558.265	28977.9
558.464	28967.66
558.663	29274.86
558.863	28551.93
559.062	28756.72
559.261	28814.07
559.461	29303.53
559.66	28611.32
559.859	28519.16
560.058	28340.99
560.258	28508.92
560.457	28316.41
560.656	28709.62
560.855	28549.88
561.054	28642.04
561.253	27968.26
561.453	28158.72
561.652	28334.84
561.851	28263.16
562.05	28220.16
562.249	27853.57
562.448	28324.6
562.647	28162.81
562.846	27841.28
563.045	28150.53
563.244	27583.24
563.443	28023.55
563.642	27443.98
563.841	27183.88
564.04	27509.51
564.239	28070.65
564.438	27507.46
564.637	27120.4
564.836	27138.83
565.035	27253.51
565.234	27384.58
565.432	27089.68
565.631	27046.67
565.83	27251.47
566.029	26905.36
566.228	26649.36
566.427	26741.52
566.625	26929.94
566.824	26446.62
567.023	26661.65
567.222	26094.36
567.42	26579.73
567.619	26313.5
567.818	26446.62
568.016	26002.21
568.215	26587.92
568.414	25920.29
568.612	26323.74
568.811	26161.95
569.01	25985.82
569.208	25846.56
569.407	25918.24
569.605	25668.39
569.804	25922.34
570.002	25547.56
570.201	25889.57
570.4	25068.33
570.598	25219.88
570.797	25010.99
570.995	25051.95
571.193	24660.79
571.392	25017.13
571.59	24873.78
571.789	24789.81
571.987	24818.48
572.186	24572.72
572.384	24443.7
572.582	24810.29
572.781	24849.2
572.979	24103.74
573.177	24869.68
573.376	24474.42
573.574	24191.8
573.772	24462.13
573.971	24134.46
574.169	24101.69
574.367	23769.92
574.565	24116.03
574.763	23665.47
574.962	23692.1
575.16	23659.33
575.358	23413.57
575.556	23421.77
575.754	23933.76
575.952	23241.54
576.151	23477.06
576.349	23202.63
576.547	23501.64
576.745	23239.5
576.943	23325.51
577.141	22897.49
577.339	22891.34
577.537	22690.64
577.735	22946.64
577.933	22764.37
578.131	22584.15
578.329	22608.72
578.527	22336.34
578.725	22313.81
578.923	22524.75
579.121	22504.28
579.319	22117.21
579.516	22541.14
579.714	22324.05
579.912	22367.06
580.11	22031.19
580.308	22080.35
580.506	22059.87
580.704	21582.69
580.901	21756.77
581.099	21996.38
581.297	21588.83
581.495	21629.79
581.692	21646.18
581.89	21316.45
582.088	21785.44
582.285	21386.08
582.483	21613.41
582.681	21279.59
582.878	21230.44
583.076	21052.27
583.274	21169
583.471	20890.48
583.669	21058.41
583.866	20824.94
584.064	21021.55
584.262	20796.27
584.459	21240.68
584.657	20487.03
584.854	20767.6
585.052	20149.11
585.249	20452.21
585.447	20349.81
585.644	20339.57
585.841	20331.38
586.039	20409.2
586.236	19960.7
586.434	20120.44
586.631	19981.18
586.828	19923.83
587.026	19964.79
587.223	19862.4
587.42	19876.73
587.618	19692.41
587.815	19534.72
588.012	19667.84
588.21	19512.19
588.407	19573.63
588.604	19397.51
588.801	19530.62
588.999	19301.25
589.196	19411.84
589.393	19231.62
589.59	19137.41
589.787	19063.69
589.984	19127.17
590.182	19200.9
590.379	19047.3
590.576	18541.46
590.773	18854.79
590.97	18693.01
591.167	18924.43
591.364	18486.16
591.561	18707.34
591.758	18432.91
591.955	18138.01
592.152	18377.62
592.349	18570.13
592.546	18410.39
592.743	18600.85
592.94	18045.85
593.137	18281.36
593.334	18224.02
593.531	18201.49
593.727	17937.3
593.924	18193.3
594.121	17830.81
594.318	17752.99
594.515	17822.62
594.712	17906.59
594.908	17974.17
595.105	17828.76
595.302	17396.64
595.499	17439.65
595.696	17445.79
595.892	17290.15
596.089	17462.18
596.286	17585.05
596.482	17099.69
596.679	17226.66
596.876	17279.91
597.072	17165.22
597.269	16884.65
597.466	16991.14
597.662	16667.56
597.859	16970.66
598.055	17046.44
598.252	16896.94
598.448	16657.32
598.645	16733.1
598.841	16434.1
599.038	16669.61
599.234	16511.92
599.431	16548.78
599.627	16073.65
599.824	16565.17
600.02	16311.22
600.217	16331.7
600.413	16126.9
600.609	16124.85
600.806	16071.61
601.002	15899.58
601.198	15940.54
601.395	15926.2
601.591	16010.17
601.787	15709.11
601.984	15938.49
602.18	15969.21
602.376	15770.55
602.572	15518.65
602.769	15756.22
602.965	15432.64
603.161	15506.37
603.357	15291.33
603.553	15213.51
603.75	15436.74
603.946	15211.46
604.142	15340.48
604.338	15268.8
604.534	15338.43
604.73	15182.79
604.926	15006.66
605.122	15098.82
605.318	15010.76
605.514	14975.94
605.71	14965.7
605.906	14664.65
606.102	15021
606.298	14717.9
606.494	14812.1
606.69	14586.83
606.886	14644.17
607.082	14533.58
607.278	14760.91
607.474	14595.02
607.67	14535.63
607.866	14263.25
608.062	14539.72
608.257	14486.48
608.453	14511.05
608.649	14134.23
608.845	14126.04
609.041	14123.99
609.236	14318.54
609.432	14214.1
609.628	14164.95
609.824	13827.03
610.019	13835.22
610.215	14214.1
610.411	14373.84
610.606	13941.72
610.802	13741.02
610.998	13945.81
611.193	14040.02
611.389	13824.98
611.584	13706.2
611.78	13751.26
611.976	13745.11
612.171	13620.19
612.367	13775.83
612.562	13702.11
612.758	13485.02
612.953	13480.92
613.149	13915.09
613.344	13349.85
613.539	13605.85
613.735	13315.04
613.93	13603.8
614.126	13368.29
614.321	13509.6
614.517	13325.28
614.712	13251.55
614.907	13272.03
615.103	13358.05
615.298	13220.83
615.493	13065.19
615.688	13087.71
615.884	13126.63
616.079	12911.59
616.274	13020.13
616.47	13052.9
616.665	13175.78
616.86	12979.17
617.055	13034.47
617.25	12864.49
617.445	12973.03
617.641	12745.7
617.836	13030.37
618.031	12438.51
618.226	12729.32
618.421	12798.95
618.616	12727.27
618.811	12405.74
619.006	12844.01
619.201	12602.35
619.396	12598.25
619.591	12194.8
619.786	12479.47
619.981	12327.92
620.176	12530.67
620.371	12200.94
620.566	12153.84
620.761	12166.13
620.956	12213.23
621.151	11906.04
621.346	11871.22
621.541	11754.49
621.735	11877.37
621.93	11617.27
622.125	11787.25
622.32	11617.27
622.515	11764.73
622.709	11523.07
622.904	11672.57
623.099	11510.78
623.294	11301.89
623.488	11140.1
623.683	11238.4
623.878	11080.71
624.072	11183.1
624.267	11039.75
624.462	10968.07
624.656	10920.96
624.851	11009.03
625.046	10927.11
625.24	10906.63
625.435	10750.98
625.629	10636.3
625.824	10650.63
626.018	10693.64
626.213	10271.76
626.407	10449.93
626.602	10607.62
626.796	10593.29
626.991	10470.41
627.185	10331.15
627.38	10341.39
627.574	10089.49
627.768	9982.99
627.963	10253.33
628.157	9784.34
628.352	10021.91
628.546	9759.77
628.74	9935.89
628.935	9591.83
629.129	9714.71
629.323	9464.86
629.517	9475.1
629.712	9514.01
629.906	9640.98
630.1	9223.2
630.294	9452.57
630.489	9423.9
630.683	9329.69
630.877	9110.56
631.071	9047.07
631.265	9010.21
631.459	9004.07
631.653	8963.11
631.848	8961.06
632.042	8815.65
632.236	8901.67
632.43	8903.71
632.624	8879.14
632.818	8731.69
633.012	8645.67
633.206	8633.38
633.4	8580.14
633.594	8543.27
633.788	8565.8
633.982	8684.58
634.176	8641.57
634.369	8361
634.563	8234.03
634.757	8412.2
634.951	8383.53
635.145	8225.84
635.339	8242.22
635.533	8008.75
635.726	8209.45
635.92	8123.44
636.114	7953.46
636.308	8088.62
636.501	7937.07
636.695	8008.75
636.889	7750.71
637.083	7932.98
637.276	7760.95
637.47	7619.64
637.664	7889.97
637.857	7597.11
638.051	7631.93
638.244	7605.3
638.438	7470.14
638.632	7410.75
638.825	7375.93
639.019	7345.21
639.212	7427.13
639.406	7427.13
639.599	7287.87
639.793	7300.16
639.986	7009.34
640.18	7017.54
640.373	7322.68
640.567	6970.43
640.76	7257.15
640.954	6802.5
641.147	6939.71
641.34	6796.35
641.534	6945.86
641.727	6755.4
641.92	6767.68
642.114	6708.29
642.307	6765.64
642.5	6626.37
642.694	6507.59
642.887	6556.74
643.08	6634.57
643.273	6548.55
643.467	6376.52
643.66	6503.5
643.853	6452.3
644.046	6345.8
644.239	6472.78
644.432	6294.6
644.626	6122.57
644.819	6257.74
645.012	6413.38
645.205	6167.63
645.398	6001.74
645.591	6071.37
645.784	6042.7
645.977	5925.97
646.17	6063.18
646.363	6034.51
646.556	5885.01
646.749	5893.2
646.942	5983.31
647.135	5801.04
647.328	5895.25
647.521	5678.16
647.714	5645.4
647.907	5631.06
648.099	5641.3
648.292	5813.33
648.485	5772.37
648.678	5395.54
648.871	5526.61
649.064	5674.07
649.256	5407.83
649.449	5553.24
649.642	5399.64
649.835	5452.89
650.027	5485.65
650.22	5348.44
650.413	5387.35
650.605	5319.77
650.798	5340.25
650.991	5252.19
651.183	5231.71
651.376	5033.05
651.568	5225.56
651.761	5078.11
651.954	5135.45
652.146	5092.44
652.339	5100.64
652.531	5135.45
652.724	4879.46
652.916	4826.21
653.109	4846.69
653.301	4822.11
653.494	4926.56
653.686	4824.16
653.879	4707.43
654.071	4721.76
654.263	4848.74
654.456	4686.95
654.648	4721.76
654.84	4635.75
655.033	4734.05
655.225	4643.94
655.417	4645.99
655.61	4582.5
655.802	4426.86
655.994	4574.31
656.186	4555.88
656.379	4545.64
656.571	4484.2
656.763	4353.13
656.955	4484.2
657.148	4435.05
657.34	4293.74
657.532	4260.97
657.724	4400.23
657.916	4324.46
658.108	4258.92
658.3	4283.5
658.492	4324.46
658.684	4314.22
658.876	4177
659.068	4195.43
659.26	4054.12
659.452	4265.07
659.644	4260.97
659.836	4140.14
660.028	4076.65
660.22	3878
660.412	4017.26
660.604	3980.4
660.796	4080.75
660.988	4093.04
661.18	3951.73
661.372	3890.29
661.563	3892.34
661.755	3867.76
661.947	3841.14
662.139	4136.04
662.331	3910.77
662.522	3767.41
662.714	3759.22
662.906	3761.27
663.097	3847.28
663.289	3863.66
663.481	3732.59
663.673	3683.44
663.864	3662.96
664.056	3591.28
664.247	3712.11
664.439	3556.47
664.631	3724.4
664.822	3587.19
665.014	3460.21
665.205	3513.46
665.397	3480.69
665.588	3617.91
665.78	3601.52
665.971	3452.02
666.163	3431.54
666.354	3343.48
666.546	3468.41
666.737	3312.76
666.929	3292.28
667.12	3370.1
667.311	3376.25
667.503	3314.81
667.694	3441.78
667.885	3425.4
668.077	3380.34
668.268	3196.03
668.459	3349.62
668.651	3343.48
668.842	3374.2
669.033	3052.67
669.224	3249.27
669.416	3388.53
669.607	3198.07
669.798	3259.51
669.989	3134.59
670.18	3128.44
670.371	3103.87
670.563	3071.1
670.754	3044.48
670.945	3067
671.136	3038.33
671.327	3001.47
671.518	3007.61
671.709	3103.87
671.9	3019.9
672.091	2892.93
672.282	3073.15
672.473	2944.13
672.664	2952.32
672.855	2944.13
673.046	2940.03
673.237	2921.6
673.428	2950.27
673.619	2909.31
673.809	2929.79
674	2962.56
674.191	2841.73
674.382	2802.82
674.573	2894.97
674.764	2929.79
674.954	2968.7
675.145	2761.86
675.336	2778.24
675.527	2880.64
675.717	2878.59
675.908	2749.57
676.099	2796.67
676.289	2860.16
676.48	2763.9
676.671	2899.07
676.861	2649.22
677.052	2722.95
677.243	2702.47
677.433	2800.77
677.624	2757.76
677.814	2735.23
678.005	2833.54
678.195	2706.56
678.386	2741.38
678.576	2673.79
678.767	2604.16
678.957	2641.03
679.148	2571.4
679.338	2784.38
679.529	2755.71
679.719	2593.92
679.909	2813.06
680.1	2708.61
680.29	2655.36
680.481	2667.65
680.671	2686.08
680.861	2708.61
681.052	2749.57
681.242	2520.2
681.432	2636.93
681.622	2559.11
681.813	2538.63
682.003	2485.38
682.193	2587.78
682.383	2722.95
682.573	2643.07
682.764	2575.49
682.954	2559.11
683.144	2542.72
683.334	2616.45
683.524	2600.07
683.714	2530.44
683.904	2569.35
684.094	2620.55
684.284	2505.86
684.474	2569.35
684.664	2518.15
684.854	2563.2
685.044	2673.79
685.234	2432.13
685.424	2524.29
685.614	2532.48
685.804	2581.64
685.994	2489.48
686.184	2497.67
686.374	2428.04
686.564	2387.08
686.753	2425.99
686.943	2434.18
687.133	2372.74
687.323	2325.64
687.513	2385.03
687.702	2272.39
687.892	2358.41
688.082	2301.06
688.272	2327.69
688.461	2460.81
688.651	2378.89
688.841	2415.75
689.03	2301.06
689.22	2290.82
689.41	2249.86
689.599	2378.89
689.789	2251.91
689.979	2356.36
690.168	2278.54
690.358	2233.48
690.547	2182.28
690.737	2358.41
690.926	2184.33
691.116	2174.09
691.305	2301.06
691.495	2104.46
691.684	2116.75
691.874	2282.63
692.063	2260.1
692.252	2208.9
692.442	2174.09
692.631	2157.71
692.82	2245.77
693.01	2083.98
693.199	2139.27
693.388	2045.07
693.578	2223.24
693.767	2208.9
693.956	2200.71
694.146	2096.27
694.335	2086.03
694.524	2172.04
694.713	2118.79
694.902	2073.74
695.092	2096.27
695.281	2006.16
695.47	2112.65
695.659	2104.46
695.848	2088.07
696.037	2065.55
696.226	2141.32
696.415	2161.8
696.604	2053.26
696.793	2040.97
696.982	2112.65
697.171	2100.36
697.36	2063.5
697.549	2069.64
697.738	2061.45
697.927	1914
698.116	2122.89
698.305	1957
698.494	2012.3
698.683	2071.69
698.872	2116.75
699.061	2024.59
699.25	2063.5
699.438	2116.75
699.627	2139.27
699.816	2061.45
700.005	2045.07
700.193	2102.41
700.382	2268.3
700.571	2141.32
700.76	1983.63
700.948	1991.82
701.137	2086.03
701.326	2040.97
701.514	2071.69
701.703	2034.83
701.892	2063.5
702.08	2227.34
702.269	2034.83
702.457	2073.74
702.646	1987.72
702.834	2188.43
703.023	1873.04
703.212	2073.74
703.4	2045.07
703.589	2133.13
703.777	2055.31
703.965	2102.41
704.154	1975.44
704.342	2114.7
704.531	2065.55
704.719	2032.78
704.907	2174.09
705.096	2071.69
705.284	2059.4
705.472	2090.12
705.661	2090.12
705.849	2088.07
706.037	2083.98
706.226	2116.75
706.414	2014.35
706.602	2110.6
706.79	2153.61
706.979	2030.73
707.167	2163.85
707.355	2124.94
707.543	2137.23
707.731	2106.51
707.919	2126.99
708.107	2018.44
708.296	2067.6
708.484	2129.03
708.672	2114.7
708.86	2122.89
709.048	1971.34
709.236	2215.05
709.424	2030.73
709.612	2075.79
709.8	2178.19
709.988	2094.22
710.176	2083.98
710.364	2014.35
710.551	2020.49
710.739	2030.73
710.927	2086.03
711.115	2096.27
711.303	2004.11
711.491	2006.16
711.679	2145.42
711.866	2055.31
712.054	2096.27
712.242	2000.01
712.43	2063.5
712.617	2024.59
712.805	2112.65
712.993	2092.17
713.181	2131.08
713.368	2018.44
713.556	2137.23
713.744	1977.48
713.931	2155.66
714.119	2038.92
714.306	2081.93
714.494	2024.59
714.682	2008.2
714.869	2038.92
715.057	2012.3
715.244	1979.53
715.432	2079.88
715.619	2098.31
715.807	2151.56
715.994	2088.07
716.182	1985.68
716.369	1987.72
716.556	2024.59
716.744	2045.07
716.931	2040.97
717.119	2100.36
717.306	2161.8
717.493	2047.12
717.681	2057.36
717.868	2032.78
718.055	2096.27
718.242	2075.79
718.43	2196.62
718.617	2022.54
718.804	2083.98
718.991	2137.23
719.179	2022.54
719.366	2159.75
719.553	2014.35
719.74	1954.96
719.927	2059.4
720.114	2055.31
720.301	2114.7
720.488	2079.88
720.676	2120.84
720.863	2124.94
721.05	2114.7
721.237	2034.83
721.424	2086.03
721.611	2104.46
721.798	1975.44
721.985	2008.2
722.172	1819.79
722.358	2000.01
722.545	2053.26
722.732	2010.25
722.919	1989.77
723.106	2055.31
723.293	1952.91
723.48	1987.72
723.667	2014.35
723.853	2135.18
724.04	1969.29
724.227	2000.01
724.414	2133.13
724.6	1997.96
724.787	2102.41
724.974	2032.78
725.161	1973.39
725.347	1971.34
725.534	2036.88
725.72	2026.64
725.907	1938.57
726.094	1977.48
726.28	2071.69
726.467	1977.48
726.653	1981.58
726.84	1977.48
727.027	1997.96
727.213	1993.87
727.4	1975.44
727.586	2043.02
727.773	1971.34
727.959	1950.86
728.145	1989.77
728.332	1991.82
728.518	1961.1
728.705	1983.63
728.891	2043.02
729.077	1993.87
729.264	2006.16
729.45	1987.72
729.636	1983.63
729.823	2071.69
730.009	1948.81
730.195	2018.44
730.382	2065.55
730.568	1889.42
730.754	1952.91
730.94	1993.87
731.126	1959.05
731.313	2053.26
731.499	2014.35
731.685	2034.83
731.871	1959.05
732.057	1985.68
732.243	1946.76
732.429	1907.85
732.615	2051.21
732.801	2006.16
732.987	1965.2
733.173	1932.43
733.359	1905.81
733.545	1975.44
733.731	1963.15
733.917	1934.48
734.103	2094.22
734.289	2059.4
734.475	1983.63
734.661	1991.82
734.847	1856.65
735.033	1961.1
735.219	1901.71
735.404	1877.13
735.59	2018.44
735.776	1936.53
735.962	1881.23
736.148	1950.86
736.333	1854.61
736.519	1854.61
736.705	1938.57
736.89	1875.09
737.076	1975.44
737.262	1776.78
737.447	2004.11
737.633	1873.04
737.819	2075.79
738.004	1934.48
738.19	1864.85
738.375	1848.46
738.561	1928.33
738.747	1924.24
738.932	1907.85
739.118	1870.99
739.303	1856.65
739.489	1854.61
739.674	1797.26
739.859	1827.98
740.045	1899.66
740.23	1848.46
740.416	1846.41
740.601	1813.65
740.786	1791.12
740.972	1868.94
741.157	1774.74
741.342	1809.55
741.528	1891.47
741.713	1776.78
741.898	1854.61
742.084	1842.32
742.269	1813.65
742.454	1811.6
742.639	1825.93
742.824	1770.64
743.01	1709.2
743.195	1807.5
743.38	1709.2
743.565	1723.54
743.75	1694.86
743.935	1764.5
744.12	1815.69
744.305	1737.87
744.49	1565.84
744.675	1723.54
744.86	1721.49
745.045	1750.16
745.23	1625.23
745.415	1698.96
745.6	1662.1
745.785	1533.08
745.97	1604.75
746.155	1662.1
746.34	1713.3
746.525	1737.87
746.71	1625.23
746.895	1664.15
747.079	1598.61
747.264	1555.6
747.449	1629.33
747.634	1506.45
747.819	1510.55
748.003	1459.35
748.188	1545.36
748.373	1600.66
748.557	1559.7
748.742	1508.5
748.927	1481.88
749.111	1479.83
749.296	1479.83
749.481	1537.17
749.665	1526.93
749.85	1461.4
750.034	1440.92
750.219	1473.68
750.404	1467.54
750.588	1420.44
750.773	1453.2
750.957	1477.78
751.141	1367.19
751.326	1440.92
751.51	1340.57
751.695	1373.33
751.879	1342.61
752.064	1373.33
752.248	1311.89
752.432	1330.33
752.617	1426.58
752.801	1361.05
752.985	1397.91
753.17	1313.94
753.354	1232.02
753.538	1326.23
753.722	1203.35
753.907	1252.5
754.091	1182.87
754.275	1225.88
754.459	1199.26
754.643	1197.21
754.828	1221.78
755.012	1119.39
755.196	1242.26
755.38	1246.36
755.564	1227.93
755.748	1143.96
755.932	1170.58
756.116	1137.82
756.3	1107.1
756.484	1090.71
756.668	1225.88
756.852	1096.86
757.036	1221.78
757.22	1113.24
757.404	1080.47
757.588	1189.02
757.772	1082.52
757.956	1117.34
758.14	1033.37
758.323	1074.33
758.507	1045.66
758.691	1014.94
758.875	1078.43
759.059	1076.38
759.242	1113.24
759.426	982.17
759.61	996.51
759.794	982.17
759.977	1100.95
760.161	1008.8
760.345	994.46
760.528	1068.19
760.712	1051.8
760.895	1016.99
761.079	976.03
761.263	976.03
761.446	916.64
761.63	947.36
761.813	896.16
761.997	957.6
762.18	990.36
762.364	922.78
762.547	937.12
762.731	916.64
762.914	1014.94
763.098	939.16
763.281	928.92
763.464	865.44
763.648	875.68
763.831	799.9
764.015	865.44
764.198	883.87
764.381	980.12
764.564	916.64
764.748	928.92
764.931	935.07
765.114	855.2
765.297	961.69
765.481	900.25
765.664	912.54
765.847	812.19
766.03	857.25
766.213	791.71
766.397	906.4
766.58	885.92
766.763	853.15
766.946	830.62
767.129	906.4
767.312	847.01
767.495	832.67
767.678	865.44
767.861	787.61
768.044	822.43
768.227	826.53
768.41	810.14
768.593	801.95
768.776	734.37
768.959	801.95
769.142	785.57
769.324	789.66
769.507	777.37
769.69	785.57
769.873	785.57
770.056	797.85
770.239	785.57
770.421	832.67
770.604	783.52
770.787	797.85
770.97	775.33
771.152	615.59
771.335	793.76
771.518	785.57
771.7	687.26
771.883	830.62
772.066	691.36
772.248	724.13
772.431	697.5
772.613	717.98
772.796	738.46
772.978	613.54
773.161	783.52
773.343	662.69
773.526	599.2
773.708	787.61
773.891	679.07
774.073	625.83
774.256	701.6
774.438	734.37
774.621	720.03
774.803	617.63
774.985	646.3
775.168	677.02
775.35	732.32
775.532	687.26
775.715	662.69
775.897	722.08
776.079	720.03
776.261	625.83
776.444	572.58
776.626	654.5
776.808	566.43
776.99	572.58
777.173	640.16
777.355	607.39
777.537	584.87
777.719	582.82
777.901	597.15
778.083	629.92
778.265	543.91
778.447	566.43
778.629	621.73
778.811	552.1
778.993	543.91
779.175	535.71
779.357	617.63
779.539	535.71
779.721	464.04
779.903	498.85
780.085	492.71
780.267	556.19
780.449	443.56
780.631	498.85
780.812	455.84
780.994	521.38
781.176	535.71
781.358	548
781.54	523.43
781.721	545.95
781.903	416.93
782.085	513.19
782.267	474.28
782.448	492.71
782.63	500.9
782.812	427.17
782.993	464.04
783.175	543.91
783.357	466.08
783.538	519.33
783.72	386.21
783.901	470.18
784.083	459.94
784.264	449.7
784.446	423.08
784.627	351.4
784.809	449.7
784.99	533.67
785.172	533.67
785.353	492.71
785.535	373.92
785.716	468.13
785.897	347.3
786.079	445.6
786.26	392.36
786.441	435.36
786.623	357.54
786.804	384.16
786.985	439.46
787.167	412.84
787.348	320.68
787.529	435.36
787.71	466.08
787.891	353.45
788.073	335.01
788.254	335.01
788.435	349.35
788.616	388.26
788.797	382.12
788.978	298.15
789.159	308.39
789.34	273.57
789.522	267.43
789.703	332.97
789.884	328.87
790.065	330.92
790.246	349.35
790.427	353.45
790.607	378.02
790.788	349.35
790.969	310.44
791.15	265.38
791.331	312.49
791.512	306.34
791.693	357.54
791.874	316.58
792.054	302.25
792.235	326.82
792.416	316.58
792.597	310.44
792.778	273.57
792.958	265.38
793.139	234.66
793.32	308.39
793.5	257.19
793.681	335.01
793.862	279.72
794.042	277.67
794.223	263.33
794.404	210.09
794.584	330.92
794.765	277.67
794.945	300.2
795.126	314.53
795.306	341.16
795.487	285.86
795.667	273.57
795.848	285.86
796.028	324.77
796.209	242.85
796.389	242.85
796.57	253.09
796.75	240.81
796.93	314.53
797.111	257.19
797.291	265.38
797.471	294.05
797.652	283.81
797.832	240.81
798.012	216.23
798.192	257.19
798.373	232.62
798.553	249
798.733	183.46
798.913	271.53
799.093	226.47
799.274	210.09
799.454	232.62
799.634	249
799.814	218.28
799.994	199.85
800.174	224.42
800.354	201.9
800.534	158.89
800.714	279.72
800.894	187.56
801.074	220.33
801.254	226.47
801.434	210.09
801.614	238.76
801.794	201.9
801.974	658.59
802.154	267.43
802.334	236.71
802.514	113.83
802.693	191.66
802.873	203.94
803.053	181.42
803.233	253.09
803.413	179.37
803.592	197.8
803.772	236.71
803.952	187.56
804.131	298.15
804.311	158.89
804.491	234.66
804.67	134.31
804.85	177.32
805.03	152.74
805.209	175.27
805.389	218.28
805.568	199.85
805.748	122.02
805.928	165.03
806.107	205.99
806.287	218.28
806.466	183.46
806.646	191.66
806.825	181.42
807.004	111.78
807.184	113.83
807.363	173.22
807.543	226.47
807.722	140.46
807.901	154.79
808.081	191.66
808.26	171.18
808.439	191.66
808.619	146.6
808.798	208.04
808.977	154.79
809.156	244.9
809.336	169.13
809.515	152.74
809.694	148.65
809.873	167.08
810.052	201.9
810.231	185.51
810.411	203.94
810.59	214.18
810.769	181.42
810.948	128.17
811.127	119.98
811.306	154.79
811.485	122.02
811.664	156.84
811.843	169.13
812.022	81.07
812.201	68.78
812.38	230.57
812.559	103.59
812.737	109.74
812.916	177.32
813.095	97.45
813.274	60.59
813.453	162.98
813.632	140.46
813.811	181.42
813.989	162.98
814.168	119.98
814.347	169.13
814.526	109.74
814.704	154.79
814.883	165.03
815.062	93.35
815.24	124.07
815.419	220.33
815.598	185.51
815.776	134.31
815.955	152.74
816.133	99.5
816.312	97.45
816.49	66.73
816.669	119.98
816.847	74.92
817.026	142.5
817.204	87.21
817.383	117.93
817.561	162.98
817.74	216.23
817.918	68.78
818.097	158.89
818.275	99.5
818.453	107.69
818.632	79.02
818.81	175.27
818.988	70.83
819.167	-9.05
819.345	203.94
819.523	72.87
819.701	101.55
819.879	101.55
820.058	95.4
820.236	11.43
820.414	81.07
820.592	111.78
820.77	56.49
820.948	128.17
821.127	183.46
821.305	113.83
821.483	115.88
821.661	68.78
821.839	152.74
822.017	175.27
822.195	60.59
822.373	140.46
822.551	128.17
822.729	103.59
822.907	95.4
823.085	189.61
823.262	89.26
823.44	74.92
823.618	13.48
823.796	58.54
823.974	99.5
824.152	93.35
824.329	132.26
824.507	54.44
824.685	42.15
824.863	46.25
825.04	68.78
825.218	111.78
825.396	76.97
825.574	62.63
825.751	66.73
825.929	68.78
826.107	70.83
826.284	148.65
826.462	81.07
826.639	130.22
826.817	85.16
826.994	97.45
827.172	95.4
827.349	74.92
827.527	93.35
827.704	138.41
827.882	144.55
828.059	89.26
828.237	66.73
828.414	156.84
828.591	54.44
828.769	105.64
828.946	38.06
829.124	109.74
829.301	72.87
829.478	97.45
829.655	103.59
829.833	76.97
830.01	9.39
830.187	91.31
830.364	76.97
830.542	109.74
830.719	117.93
830.896	99.5
831.073	124.07
831.25	124.07
831.427	124.07
831.604	40.11
831.782	81.07
831.959	87.21
832.136	21.67
832.313	38.06
832.49	54.44
832.667	74.92
832.844	44.2
833.021	62.63
833.198	97.45
833.374	-4.95
833.551	99.5
833.728	56.49
833.905	109.74
834.082	50.35
834.259	25.77
834.436	113.83
834.612	15.53
834.789	126.12
834.966	40.11
835.143	101.55
835.319	46.25
835.496	27.82
835.673	42.15
835.85	101.55
836.026	105.64
836.203	64.68
836.38	85.16
836.556	87.21
836.733	40.11
836.909	68.78
837.086	56.49
837.262	46.25
837.439	48.3
837.616	15.53
837.792	54.44
837.968	130.22
838.145	87.21
838.321	95.4
838.498	13.48
838.674	38.06
838.851	48.3
839.027	-0.85
839.203	17.58
839.38	111.78
839.556	70.83
839.732	17.58
839.909	56.49
840.085	46.25
840.261	33.96
840.437	48.3
840.614	19.63
840.79	17.58
840.966	72.87
841.142	54.44
841.318	44.2
841.494	54.44
841.671	40.11
841.847	70.83
842.023	46.25
842.199	31.91
842.375	29.87
842.551	33.96
842.727	3.24
842.903	72.87
843.079	27.82
843.255	111.78
843.431	68.78
843.607	58.54
843.783	-0.85
843.959	38.06
844.134	17.58
844.31	44.2
844.486	-2.9
844.662	-60.24
844.838	5.29
845.013	76.97
845.189	91.31
845.365	95.4
845.541	64.68
845.716	87.21
845.892	38.06
846.068	36.01
846.244	64.68
846.419	76.97
846.595	7.34
846.77	64.68
846.946	72.87
847.122	-27.48
847.297	144.55
847.473	11.43
847.648	23.72
847.824	66.73
847.999	11.43
848.175	13.48
848.35	52.39
848.526	62.63
848.701	42.15
848.876	79.02
849.052	58.54
849.227	19.63
849.403	19.63
849.578	31.91
849.753	11.43
849.929	58.54
850.104	44.2
850.279	54.44
850.454	50.35
850.63	76.97
850.805	97.45
850.98	56.49
851.155	60.59
851.33	25.77
851.505	-45.91
851.681	79.02
851.856	11.43
852.031	48.3
852.206	-0.85
852.381	79.02
852.556	60.59
852.731	72.87
852.906	33.96
853.081	56.49
853.256	-56.15
853.431	1.19
853.606	-19.29
853.781	13.48
853.956	-43.86
854.131	17.58
854.305	40.11
854.48	13.48
854.655	93.35
854.83	60.59
855.005	-11.09
855.18	50.35
855.354	-21.33
855.529	79.02
855.704	11.43
855.879	25.77
856.053	40.11
856.228	17.58
856.403	56.49
856.577	-25.43
856.752	-25.43
856.926	40.11
857.101	38.06
857.276	46.25
857.45	79.02
857.625	-2.9
857.799	81.07
857.974	19.63
858.148	27.82
858.323	27.82
858.497	38.06
858.672	64.68
858.846	54.44
859.02	36.01
859.195	-0.85
859.369	40.11
859.543	74.92
859.718	54.44
859.892	27.82
860.066	23.72
860.241	25.77
860.415	11.43
860.589	-13.14
860.763	5.29
860.938	-50
861.112	29.87
861.286	70.83
861.46	74.92
861.634	1.19
861.808	105.64
861.982	3.24
862.157	-58.2
862.331	19.63
862.505	9.39
862.679	17.58
862.853	46.25
863.027	13.48
863.201	11.43
863.375	5.29
863.549	40.11
863.722	31.91
863.896	27.82
864.07	-33.62
864.244	21.67
864.418	-23.38
864.592	29.87
864.766	-13.14
864.939	-7
865.113	21.67
865.287	97.45
865.461	-58.2
865.634	46.25
865.808	-78.68
865.982	23.72
866.156	1.19
866.329	-19.29
866.503	-4.95
866.676	-2.9
866.85	-23.38
867.024	70.83
867.197	-13.14
867.371	60.59
867.544	48.3
867.718	11.43
867.891	44.2
868.065	7.34
868.238	36.01
868.412	44.2
868.585	21.67
868.759	-47.96
868.932	-15.19
869.105	21.67
869.279	-56.15
869.452	93.35
869.625	33.96
869.799	-9.05
869.972	17.58
870.145	7.34
870.319	66.73
870.492	17.58
870.665	7.34
870.838	19.63
871.011	-23.38
871.185	62.63
871.358	-7
871.531	66.73
871.704	1.19
871.877	-17.24
872.05	50.35
872.223	17.58
872.396	19.63
872.569	54.44
872.742	-9.05
872.915	-0.85
873.088	7.34
873.261	11.43
873.434	50.35
873.607	48.3
873.78	-7
873.953	21.67
874.126	-15.19
874.299	48.3
874.471	81.07
874.644	-0.85
874.817	40.11
874.99	148.65
875.163	7.34
875.335	-66.39
875.508	15.53
875.681	3.24
875.853	46.25
876.026	31.91
876.199	-15.19
876.371	11.43
876.544	-17.24
876.717	36.01
876.889	54.44
877.062	83.11
877.234	-33.62
877.407	-70.48
877.579	64.68
877.752	9.39
877.924	-43.86
878.097	9.39
878.269	-19.29
878.442	-0.85
878.614	46.25
878.786	44.2
878.959	-9.05
879.131	31.91
879.303	-41.81
879.476	-9.05
879.648	11.43
879.82	-27.48
879.993	23.72
880.165	-9.05
880.337	-7
880.509	-9.05
880.681	-17.24
880.854	-4.95
881.026	-29.52
881.198	13.48
881.37	-72.53
881.542	7.34
881.714	33.96
881.886	76.97
882.058	15.53
882.23	54.44
882.402	-19.29
882.574	-17.24
882.746	105.64
882.918	-33.62
883.09	68.78
883.262	91.31
883.434	19.63
883.606	-90.96
883.778	7.34
883.95	19.63
884.122	17.58
884.293	-7
884.465	5.29
884.637	13.48
884.809	-35.67
884.98	56.49
885.152	1.19
885.324	15.53
885.496	19.63
885.667	-4.95
885.839	-29.52
886.011	19.63
886.182	23.72
886.354	-7
886.525	-66.39
886.697	-21.33
886.869	-7
887.04	-7
887.212	-4.95
887.383	126.12
887.555	-4.95
887.726	-41.81
887.897	23.72
888.069	-9.05
888.24	-19.29
888.412	7.34
888.583	-97.11
888.754	19.63
888.926	40.11
889.097	-13.14
889.268	-74.58
889.44	15.53
889.611	-15.19
889.782	-29.52
889.953	29.87
890.125	89.26
890.296	-41.81
890.467	5.29
890.638	-33.62
890.809	-33.62
890.98	-9.05
891.151	21.67
891.323	-17.24
891.494	-52.05
891.665	11.43
891.836	-33.62
892.007	29.87
892.178	66.73
892.349	-4.95
892.52	42.15
892.691	64.68
892.862	38.06
893.032	-88.92
893.203	1.19
893.374	29.87
893.545	-7
893.716	-27.48
893.887	7.34
894.057	25.77
894.228	-47.96
894.399	-62.29
894.57	44.2
894.74	9.39
894.911	68.78
895.082	15.53
895.253	-27.48
895.423	25.77
895.594	42.15
895.764	40.11
895.935	11.43
896.106	-0.85
896.276	-4.95
896.447	-17.24
896.617	-31.57
896.788	-11.09
896.958	7.34
897.129	23.72
897.299	15.53
897.47	83.11
897.64	68.78
897.81	38.06
897.981	58.54
898.151	-2.9
898.322	36.01
898.492	54.44
898.662	50.35
898.832	-41.81
899.003	5.29
899.173	-25.43
899.343	5.29
899.513	48.3
