Data from USB4F104151__119__11-07-25-397.txt Node

Date: Wed Mar 12 11:07:25 EDT 2025
User: louis
Spectrometer: USB4F10415
Trigger mode: 4
Integration Time (sec): 2.000000E-2
Scans to average: 1
Electric dark correction enabled: true
Nonlinearity correction enabled: false
Boxcar width: 0
XAxis mode: Wavelengths
Number of Pixels in Spectrum: 3648
>>>>>Begin Spectral Data<<<<<
178.204	-52.56
178.424	-52.56
178.644	-52.56
178.864	-81.24
179.084	-68.95
179.304	12.97
179.524	-7.51
179.744	-27.99
179.964	-9.56
180.184	27.31
180.404	15.02
180.624	35.5
180.844	-5.46
181.064	-19.8
181.283	-21.85
181.503	-50.52
181.723	51.88
181.943	-75.09
182.163	76.46
182.383	84.65
182.602	37.55
182.822	-1.37
183.042	12.97
183.262	15.02
183.482	-13.65
183.701	10.92
183.921	35.5
184.141	2.73
184.361	37.55
184.58	27.31
184.8	74.41
185.02	31.4
185.239	41.64
185.459	41.64
185.679	33.45
185.898	37.55
186.118	19.11
186.338	4.78
186.557	68.27
186.777	82.6
186.997	-13.65
187.216	123.56
187.436	98.99
187.655	41.64
187.875	98.99
188.095	62.12
188.314	25.26
188.534	72.36
188.753	80.55
188.973	94.89
189.192	39.59
189.412	39.59
189.631	84.65
189.851	15.02
190.07	60.07
190.29	29.35
190.509	53.93
190.729	45.74
190.948	37.55
191.168	117.42
191.387	80.55
191.607	-1.37
191.826	51.88
192.045	27.31
192.265	96.94
192.484	127.66
192.704	84.65
192.923	-11.61
193.142	62.12
193.362	86.7
193.581	98.99
193.8	109.22
194.02	55.98
194.239	27.31
194.458	31.4
194.678	37.55
194.897	12.97
195.116	43.69
195.335	55.98
195.555	-40.28
195.774	51.88
195.993	-44.37
196.212	45.74
196.432	8.87
196.651	35.5
196.87	41.64
197.089	41.64
197.308	15.02
197.528	49.83
197.747	27.31
197.966	33.45
198.185	62.12
198.404	2.73
198.623	10.92
198.842	125.61
199.062	31.4
199.281	139.94
199.5	35.5
199.719	35.5
199.938	41.64
200.157	109.22
200.376	43.69
200.595	113.32
200.814	39.59
201.033	29.35
201.252	88.75
201.471	98.99
201.69	31.4
201.909	37.55
202.128	37.55
202.347	62.12
202.566	4.78
202.785	6.83
203.004	41.64
203.223	19.11
203.442	29.35
203.661	27.31
203.879	113.32
204.098	-5.46
204.317	15.02
204.536	148.14
204.755	35.5
204.974	-30.04
205.193	43.69
205.411	101.03
205.63	47.79
205.849	76.46
206.068	78.51
206.287	68.27
206.505	0.68
206.724	72.36
206.943	21.16
207.162	27.31
207.381	33.45
207.599	53.93
207.818	109.22
208.037	12.97
208.255	33.45
208.474	47.79
208.693	43.69
208.911	43.69
209.13	66.22
209.349	39.59
209.567	15.02
209.786	80.55
210.005	15.02
210.223	37.55
210.442	6.83
210.661	41.64
210.879	-19.8
211.098	31.4
211.316	64.17
211.535	-30.04
211.753	45.74
211.972	47.79
212.191	58.03
212.409	33.45
212.628	29.35
212.846	23.21
213.065	72.36
213.283	39.59
213.502	49.83
213.72	-11.61
213.938	-44.37
214.157	131.75
214.375	43.69
214.594	41.64
214.812	119.46
215.031	80.55
215.249	-19.8
215.467	37.55
215.686	86.7
215.904	55.98
216.122	72.36
216.341	53.93
216.559	27.31
216.778	82.6
216.996	105.13
217.214	88.75
217.432	35.5
217.651	90.79
217.869	23.21
218.087	27.31
218.306	80.55
218.524	25.26
218.742	0.68
218.96	-13.65
219.179	68.27
219.397	72.36
219.615	62.12
219.833	53.93
220.051	25.26
220.27	47.79
220.488	109.22
220.706	62.12
220.924	15.02
221.142	51.88
221.36	55.98
221.578	80.55
221.796	43.69
222.015	115.37
222.233	25.26
222.451	37.55
222.669	53.93
222.887	-1.37
223.105	19.11
223.323	45.74
223.541	33.45
223.759	82.6
223.977	21.16
224.195	25.26
224.413	-3.41
224.631	98.99
224.849	-23.89
225.067	94.89
225.285	17.07
225.503	80.55
225.721	66.22
225.939	62.12
226.157	68.27
226.375	58.03
226.592	31.4
226.81	88.75
227.028	29.35
227.246	92.84
227.464	78.51
227.682	82.6
227.9	45.74
228.117	51.88
228.335	15.02
228.553	-36.18
228.771	123.56
228.989	92.84
229.206	29.35
229.424	0.68
229.642	-15.7
229.86	0.68
230.077	-1.37
230.295	39.59
230.513	47.79
230.731	80.55
230.948	37.55
231.166	125.61
231.384	55.98
231.601	47.79
231.819	84.65
232.037	58.03
232.254	39.59
232.472	10.92
232.689	-3.41
232.907	47.79
233.125	72.36
233.342	96.94
233.56	-32.08
233.777	88.75
233.995	51.88
234.213	98.99
234.43	105.13
234.648	92.84
234.865	39.59
235.083	82.6
235.3	47.79
235.518	51.88
235.735	29.35
235.953	39.59
236.17	101.03
236.388	47.79
236.605	43.69
236.822	62.12
237.04	15.02
237.257	64.17
237.475	19.11
237.692	131.75
237.909	64.17
238.127	33.45
238.344	96.94
238.562	80.55
238.779	64.17
238.996	76.46
239.214	78.51
239.431	98.99
239.648	53.93
239.865	92.84
240.083	101.03
240.3	94.89
240.517	-1.37
240.735	51.88
240.952	92.84
241.169	64.17
241.386	125.61
241.603	33.45
241.821	45.74
242.038	58.03
242.255	66.22
242.472	31.4
242.689	31.4
242.907	10.92
243.124	2.73
243.341	-85.33
243.558	23.21
243.775	4.78
243.992	37.55
244.209	31.4
244.426	121.51
244.643	62.12
244.86	27.31
245.078	47.79
245.295	31.4
245.512	60.07
245.729	37.55
245.946	55.98
246.163	72.36
246.38	80.55
246.597	43.69
246.814	43.69
247.031	43.69
247.248	105.13
247.464	19.11
247.681	47.79
247.898	51.88
248.115	43.69
248.332	17.07
248.549	51.88
248.766	139.94
248.983	74.41
249.2	10.92
249.417	51.88
249.633	53.93
249.85	25.26
250.067	17.07
250.284	92.84
250.501	82.6
250.717	37.55
250.934	0.68
251.151	27.31
251.368	31.4
251.585	164.52
251.801	21.16
252.018	68.27
252.235	109.22
252.451	62.12
252.668	27.31
252.885	21.16
253.102	82.6
253.318	23.21
253.535	-34.13
253.752	80.55
253.968	55.98
254.185	33.45
254.401	33.45
254.618	2.73
254.835	35.5
255.051	88.75
255.268	64.17
255.484	80.55
255.701	-1.37
255.917	103.08
256.134	43.69
256.351	70.31
256.567	94.89
256.784	15.02
257	-9.56
257.217	43.69
257.433	82.6
257.65	43.69
257.866	-40.28
258.082	-5.46
258.299	43.69
258.515	23.21
258.732	2.73
258.948	107.18
259.165	76.46
259.381	23.21
259.597	47.79
259.814	123.56
260.03	92.84
260.246	58.03
260.463	21.16
260.679	64.17
260.895	66.22
261.112	-46.42
261.328	25.26
261.544	17.07
261.761	25.26
261.977	-17.75
262.193	33.45
262.409	70.31
262.626	62.12
262.842	135.85
263.058	-7.51
263.274	72.36
263.49	43.69
263.707	107.18
263.923	6.83
264.139	70.31
264.355	58.03
264.571	86.7
264.787	119.46
265.004	23.21
265.22	53.93
265.436	90.79
265.652	45.74
265.868	84.65
266.084	49.83
266.3	70.31
266.516	64.17
266.732	66.22
266.948	70.31
267.164	98.99
267.38	80.55
267.596	55.98
267.812	31.4
268.028	17.07
268.244	47.79
268.46	88.75
268.676	96.94
268.892	58.03
269.108	53.93
269.324	8.87
269.54	51.88
269.756	90.79
269.972	74.41
270.188	37.55
270.403	-3.41
270.619	45.74
270.835	98.99
271.051	76.46
271.267	39.59
271.483	53.93
271.698	68.27
271.914	29.35
272.13	60.07
272.346	-9.56
272.562	35.5
272.777	62.12
272.993	33.45
273.209	64.17
273.425	35.5
273.64	53.93
273.856	53.93
274.072	19.11
274.287	70.31
274.503	39.59
274.719	86.7
274.934	55.98
275.15	37.55
275.366	101.03
275.581	6.83
275.797	94.89
276.012	12.97
276.228	39.59
276.444	-7.51
276.659	-1.37
276.875	64.17
277.09	84.65
277.306	94.89
277.521	33.45
277.737	25.26
277.952	92.84
278.168	72.36
278.383	8.87
278.599	66.22
278.814	6.83
279.03	25.26
279.245	119.46
279.461	115.37
279.676	72.36
279.892	4.78
280.107	41.64
280.322	-21.85
280.538	41.64
280.753	51.88
280.969	33.45
281.184	84.65
281.399	103.08
281.615	94.89
281.83	35.5
282.045	15.02
282.26	76.46
282.476	37.55
282.691	51.88
282.906	-19.8
283.122	10.92
283.337	-13.65
283.552	43.69
283.767	115.37
283.983	123.56
284.198	72.36
284.413	82.6
284.628	45.74
284.843	109.22
285.058	82.6
285.274	35.5
285.489	21.16
285.704	84.65
285.919	33.45
286.134	74.41
286.349	21.16
286.564	92.84
286.779	158.38
286.995	27.31
287.21	19.11
287.425	53.93
287.64	82.6
287.855	17.07
288.07	-15.7
288.285	86.7
288.5	125.61
288.715	70.31
288.93	53.93
289.145	66.22
289.36	37.55
289.575	90.79
289.79	55.98
290.004	-50.52
290.219	94.89
290.434	41.64
290.649	19.11
290.864	131.75
291.079	53.93
291.294	64.17
291.509	96.94
291.724	70.31
291.938	37.55
292.153	21.16
292.368	33.45
292.583	113.32
292.798	41.64
293.012	39.59
293.227	96.94
293.442	29.35
293.657	6.83
293.871	94.89
294.086	39.59
294.301	70.31
294.516	78.51
294.73	-9.56
294.945	-3.41
295.16	51.88
295.374	158.38
295.589	82.6
295.804	53.93
296.018	43.69
296.233	70.31
296.447	41.64
296.662	17.07
296.877	25.26
297.091	8.87
297.306	58.03
297.52	27.31
297.735	109.22
297.949	78.51
298.164	39.59
298.378	88.75
298.593	55.98
298.807	17.07
299.022	78.51
299.236	133.8
299.451	23.21
299.665	43.69
299.88	80.55
300.094	-7.51
300.309	45.74
300.523	64.17
300.737	43.69
300.952	25.26
301.166	90.79
301.381	66.22
301.595	31.4
301.809	-1.37
302.024	21.16
302.238	109.22
302.452	37.55
302.667	-5.46
302.881	115.37
303.095	43.69
303.309	90.79
303.524	88.75
303.738	29.35
303.952	68.27
304.166	-7.51
304.381	31.4
304.595	125.61
304.809	123.56
305.023	39.59
305.237	64.17
305.452	88.75
305.666	47.79
305.88	84.65
306.094	27.31
306.308	60.07
306.522	94.89
306.736	92.84
306.95	76.46
307.164	117.42
307.379	21.16
307.593	137.9
307.807	109.22
308.021	58.03
308.235	39.59
308.449	35.5
308.663	27.31
308.877	119.46
309.091	66.22
309.305	35.5
309.519	74.41
309.733	17.07
309.947	21.16
310.161	154.28
310.374	-7.51
310.588	84.65
310.802	92.84
311.016	55.98
311.23	37.55
311.444	76.46
311.658	94.89
311.872	37.55
312.085	58.03
312.299	76.46
312.513	125.61
312.727	92.84
312.941	19.11
313.154	72.36
313.368	94.89
313.582	66.22
313.796	70.31
314.009	64.17
314.223	96.94
314.437	84.65
314.651	51.88
314.864	53.93
315.078	78.51
315.292	55.98
315.505	49.83
315.719	76.46
315.933	58.03
316.146	74.41
316.36	-21.85
316.573	-23.89
316.787	43.69
317.001	111.27
317.214	78.51
317.428	12.97
317.641	64.17
317.855	90.79
318.068	60.07
318.282	62.12
318.495	68.27
318.709	113.32
318.922	82.6
319.136	78.51
319.349	88.75
319.563	72.36
319.776	41.64
319.99	41.64
320.203	47.79
320.417	2.73
320.63	74.41
320.843	74.41
321.057	78.51
321.27	150.18
321.483	129.7
321.697	58.03
321.91	113.32
322.124	51.88
322.337	92.84
322.55	74.41
322.763	60.07
322.977	66.22
323.19	-9.56
323.403	66.22
323.617	51.88
323.83	125.61
324.043	25.26
324.256	76.46
324.469	27.31
324.683	70.31
324.896	98.99
325.109	8.87
325.322	33.45
325.535	84.65
325.748	92.84
325.962	68.27
326.175	-40.28
326.388	43.69
326.601	113.32
326.814	62.12
327.027	58.03
327.24	162.47
327.453	94.89
327.666	64.17
327.879	86.7
328.092	43.69
328.305	70.31
328.518	64.17
328.731	68.27
328.944	86.7
329.157	39.59
329.37	58.03
329.583	72.36
329.796	8.87
330.009	72.36
330.222	55.98
330.435	64.17
330.648	70.31
330.861	19.11
331.073	146.09
331.286	115.37
331.499	105.13
331.712	53.93
331.925	35.5
332.138	17.07
332.35	109.22
332.563	21.16
332.776	86.7
332.989	21.16
333.202	72.36
333.414	27.31
333.627	10.92
333.84	23.21
334.053	41.64
334.265	4.78
334.478	129.7
334.691	31.4
334.903	31.4
335.116	47.79
335.329	37.55
335.541	107.18
335.754	98.99
335.966	-11.61
336.179	62.12
336.392	139.94
336.604	105.13
336.817	45.74
337.029	45.74
337.242	66.22
337.454	139.94
337.667	60.07
337.88	84.65
338.092	109.22
338.305	105.13
338.517	96.94
338.729	86.7
338.942	53.93
339.154	109.22
339.367	21.16
339.579	-11.61
339.792	-15.7
340.004	101.03
340.217	86.7
340.429	92.84
340.641	92.84
340.854	105.13
341.066	92.84
341.278	80.55
341.491	141.99
341.703	74.41
341.915	4.78
342.128	127.66
342.34	74.41
342.552	45.74
342.764	21.16
342.977	84.65
343.189	107.18
343.401	80.55
343.613	21.16
343.826	55.98
344.038	76.46
344.25	109.22
344.462	115.37
344.674	105.13
344.886	80.55
345.099	109.22
345.311	86.7
345.523	64.17
345.735	66.22
345.947	105.13
346.159	113.32
346.371	74.41
346.583	33.45
346.795	-9.56
347.007	107.18
347.219	141.99
347.431	92.84
347.643	72.36
347.855	82.6
348.067	139.94
348.279	64.17
348.491	105.13
348.703	103.08
348.915	64.17
349.127	80.55
349.339	47.79
349.551	15.02
349.763	92.84
349.975	60.07
350.187	45.74
350.399	82.6
350.61	125.61
350.822	74.41
351.034	121.51
351.246	78.51
351.458	25.26
351.669	84.65
351.881	113.32
352.093	82.6
352.305	86.7
352.517	15.02
352.728	113.32
352.94	72.36
353.152	74.41
353.363	74.41
353.575	150.18
353.787	90.79
353.999	96.94
354.21	144.04
354.422	51.88
354.633	96.94
354.845	103.08
355.057	70.31
355.268	72.36
355.48	137.9
355.692	47.79
355.903	72.36
356.115	60.07
356.326	68.27
356.538	84.65
356.749	92.84
356.961	96.94
357.172	62.12
357.384	66.22
357.595	105.13
357.807	82.6
358.018	113.32
358.23	107.18
358.441	103.08
358.653	111.27
358.864	60.07
359.075	109.22
359.287	76.46
359.498	98.99
359.709	55.98
359.921	72.36
360.132	64.17
360.344	80.55
360.555	86.7
360.766	74.41
360.977	129.7
361.189	74.41
361.4	117.42
361.611	123.56
361.823	107.18
362.034	154.28
362.245	72.36
362.456	64.17
362.667	137.9
362.879	101.03
363.09	119.46
363.301	103.08
363.512	103.08
363.723	39.59
363.935	27.31
364.146	74.41
364.357	96.94
364.568	60.07
364.779	-48.47
364.99	84.65
365.201	135.85
365.412	127.66
365.623	80.55
365.834	109.22
366.045	19.11
366.256	84.65
366.467	121.51
366.678	135.85
366.889	152.23
367.1	17.07
367.311	70.31
367.522	64.17
367.733	84.65
367.944	107.18
368.155	60.07
368.366	82.6
368.577	121.51
368.788	88.75
368.999	35.5
369.209	43.69
369.42	123.56
369.631	121.51
369.842	55.98
370.053	113.32
370.264	119.46
370.474	6.83
370.685	148.14
370.896	47.79
371.107	86.7
371.317	115.37
371.528	119.46
371.739	92.84
371.95	146.09
372.16	49.83
372.371	80.55
372.582	96.94
372.792	27.31
373.003	131.75
373.214	72.36
373.424	15.02
373.635	39.59
373.846	174.76
374.056	47.79
374.267	94.89
374.477	113.32
374.688	72.36
374.898	45.74
375.109	-13.65
375.319	80.55
375.53	78.51
375.74	137.9
375.951	123.56
376.161	195.24
376.372	141.99
376.582	92.84
376.793	215.72
377.003	70.31
377.214	66.22
377.424	60.07
377.635	37.55
377.845	68.27
378.055	80.55
378.266	86.7
378.476	64.17
378.686	129.7
378.897	92.84
379.107	70.31
379.317	62.12
379.528	101.03
379.738	160.42
379.948	39.59
380.158	139.94
380.369	64.17
380.579	76.46
380.789	68.27
380.999	131.75
381.21	64.17
381.42	166.57
381.63	39.59
381.84	105.13
382.05	76.46
382.261	107.18
382.471	47.79
382.681	47.79
382.891	137.9
383.101	62.12
383.311	35.5
383.521	76.46
383.731	35.5
383.941	84.65
384.151	129.7
384.361	160.42
384.571	88.75
384.781	103.08
384.991	25.26
385.201	123.56
385.411	123.56
385.621	203.43
385.831	68.27
386.041	131.75
386.251	125.61
386.461	47.79
386.671	92.84
386.881	58.03
387.091	158.38
387.301	150.18
387.511	103.08
387.72	92.84
387.93	105.13
388.14	125.61
388.35	123.56
388.56	156.33
388.769	156.33
388.979	68.27
389.189	98.99
389.399	164.52
389.609	144.04
389.818	125.61
390.028	113.32
390.238	125.61
390.447	109.22
390.657	189.1
390.867	70.31
391.076	96.94
391.286	156.33
391.496	105.13
391.705	137.9
391.915	207.53
392.125	135.85
392.334	119.46
392.544	103.08
392.753	121.51
392.963	115.37
393.172	113.32
393.382	121.51
393.591	160.42
393.801	86.7
394.01	189.1
394.22	201.38
394.429	105.13
394.639	53.93
394.848	119.46
395.058	101.03
395.267	240.29
395.477	105.13
395.686	121.51
395.895	162.47
396.105	182.95
396.314	103.08
396.524	154.28
396.733	146.09
396.942	82.6
397.152	156.33
397.361	172.71
397.57	160.42
397.78	123.56
397.989	207.53
398.198	182.95
398.407	111.27
398.617	170.66
398.826	219.82
399.035	187.05
399.244	146.09
399.453	162.47
399.663	174.76
399.872	211.62
400.081	193.19
400.29	164.52
400.499	158.38
400.708	211.62
400.917	172.71
401.127	250.53
401.336	160.42
401.545	238.25
401.754	180.9
401.963	197.29
402.172	205.48
402.381	266.92
402.59	201.38
402.799	209.58
403.008	148.14
403.217	96.94
403.426	160.42
403.635	209.58
403.844	203.43
404.053	254.63
404.262	217.77
404.471	287.4
404.68	217.77
404.888	238.25
405.097	295.59
405.306	207.53
405.515	199.34
405.724	303.78
405.933	301.73
406.142	275.11
406.35	252.58
406.559	277.16
406.768	266.92
406.977	303.78
407.185	273.06
407.394	281.25
407.603	316.07
407.812	373.41
408.02	361.13
408.229	363.17
408.438	414.37
408.646	352.93
408.855	305.83
409.064	430.76
409.272	443.04
409.481	477.86
409.69	363.17
409.898	375.46
410.107	490.15
410.315	469.67
410.524	477.86
410.733	539.3
410.941	512.67
411.15	461.48
411.358	586.4
411.567	592.55
411.775	617.12
411.984	565.92
412.192	613.03
412.401	668.32
412.609	686.75
412.818	787.1
413.026	744.1
413.234	740
413.443	875.17
413.651	823.97
413.86	959.13
414.068	942.75
414.276	942.75
414.485	930.46
414.693	932.51
414.901	1098.39
415.11	1075.87
415.318	1065.63
415.526	1165.98
415.734	1188.5
415.943	1139.35
416.151	1239.7
416.359	1231.51
416.567	1256.09
416.776	1282.71
416.984	1307.29
417.192	1440.4
417.4	1462.93
417.608	1417.88
417.817	1464.98
418.025	1643.15
418.233	1661.59
418.441	1763.98
418.649	1792.66
418.857	2042.51
419.065	1944.2
419.273	1913.49
419.481	2091.66
419.689	2118.28
419.897	2271.88
420.105	2304.65
420.313	2349.7
420.521	2392.71
420.729	2380.42
420.937	2531.97
421.145	2665.09
421.353	2775.68
421.561	2986.62
421.769	2982.53
421.977	3054.2
422.185	3064.44
422.393	3183.23
422.601	3613.3
422.809	3426.93
423.017	3390.07
423.224	3527.28
423.432	3648.11
423.64	3744.37
423.848	4008.56
424.056	3998.32
424.263	4264.55
424.471	4264.55
424.679	4219.5
424.887	4686.44
425.094	4723.3
425.302	4792.93
425.51	4938.34
425.718	5087.84
425.925	5167.71
426.133	5382.74
426.341	5530.2
426.548	5935.7
426.756	5730.9
426.964	6003.28
427.171	6394.44
427.379	6488.65
427.586	6722.12
427.794	6853.19
428.001	6994.5
428.209	7381.56
428.417	7334.46
428.624	7582.26
428.832	7744.05
429.039	7735.86
429.247	7795.25
429.454	8399.4
429.662	9146.91
429.869	8417.83
430.076	8940.07
430.284	8874.53
430.491	9064.99
430.699	9663
430.906	9794.07
431.114	9804.31
431.321	10310.16
431.528	10353.16
431.736	11028.99
431.943	11610.62
432.15	11190.78
432.358	11495.93
432.565	11792.89
432.772	12143.09
432.979	12646.89
433.187	12997.09
433.394	12960.23
433.601	13728.22
433.808	13715.93
434.016	13838.81
434.223	14481.87
434.43	15122.88
434.637	14707.15
434.844	15653.31
435.052	16179.64
435.259	16032.18
435.466	16052.66
435.673	16067
435.88	17144.23
436.087	18059.67
436.294	18022.81
436.501	17643.93
436.708	17897.88
436.915	18379.15
437.122	19315.08
437.329	19251.59
437.537	20064.63
437.743	20111.74
437.95	20136.31
438.157	21006.7
438.364	21844.32
438.571	21885.28
438.778	21709.15
438.985	23947.58
439.192	22964.56
439.399	23566.66
439.606	23331.14
439.813	24690.99
440.02	25921.82
440.227	25571.62
440.433	25450.79
440.64	25895.2
440.847	25925.92
441.054	26507.54
441.261	28438.78
441.467	28229.88
441.674	28721.4
441.881	29520.1
442.088	29583.59
442.294	29348.07
442.501	30200.03
442.708	30501.08
442.914	31869.12
443.121	32917.68
443.328	32575.67
443.534	34887.83
443.741	33878.18
443.948	32776.37
444.154	36006.02
444.361	35309.71
444.568	35330.19
444.774	35627.15
444.981	36216.96
445.187	37124.21
445.394	38510.69
445.6	37779.56
445.807	41261.11
446.013	39780.43
446.22	40366.15
446.426	42082.34
446.633	42070.06
446.839	43786.25
447.046	42133.54
447.252	44584.96
447.459	44408.84
447.665	44179.46
447.871	45866.99
448.078	47314.9
448.284	45498.36
448.491	46909.41
448.697	48635.84
448.903	49291.19
449.11	49344.44
449.316	48586.69
449.522	49418.17
449.728	50884.51
449.935	50864.03
450.141	50763.68
450.347	51939.22
450.553	50448.3
450.76	50847.65
450.966	52557.7
451.172	52123.54
451.378	52856.71
451.584	51861.4
451.791	53301.12
451.997	53120.9
452.203	54220.66
452.409	53874.55
452.615	53772.15
452.821	51709.85
453.027	51103.65
453.233	53802.87
453.44	51548.06
453.646	51992.47
453.852	52529.03
454.058	53370.75
454.264	51228.57
454.47	52733.83
454.676	51210.14
454.882	52991.87
455.088	48353.22
455.294	49426.36
455.5	49799.09
455.705	50358.19
455.911	48369.61
456.117	47292.38
456.323	46342.12
456.529	44154.89
456.735	46272.49
456.941	44832.77
457.147	43991.05
457.352	42786.85
457.558	42266.66
457.764	42377.25
457.97	41726
458.176	40880.19
458.381	41408.56
458.587	38432.86
458.793	38608.99
458.999	37068.92
459.204	39422.03
459.41	38201.44
459.616	35651.72
459.821	35594.38
460.027	35573.9
460.233	34898.07
460.438	32862.39
460.644	33593.51
460.85	31873.22
461.055	31320.27
461.261	31596.74
461.466	29239.53
461.672	28123.39
461.878	30425.31
462.083	28602.61
462.289	28174.59
462.494	27570.44
462.7	26276.12
462.905	25960.73
463.111	26804.5
463.316	26722.58
463.522	26360.09
463.727	26491.16
463.932	26024.22
464.138	26255.64
464.343	26048.8
464.549	25356.58
464.754	26308.89
464.959	25884.96
465.165	25743.65
465.37	24856.88
465.575	23972.16
465.781	25057.58
465.986	25166.12
466.191	24391.99
466.397	23945.53
466.602	22726.99
466.807	23607.62
467.012	23611.71
467.218	23404.87
467.423	23122.25
467.628	23267.66
467.833	24308.02
468.038	23521.6
468.244	22724.94
468.449	23488.84
468.654	22813.01
468.859	22800.72
469.064	22450.52
469.269	21786.97
469.474	21823.84
469.679	22016.35
469.885	21600.61
470.09	22141.27
470.295	21664.1
470.5	21053.8
470.705	21598.56
470.91	21154.15
471.115	20590.96
471.32	21049.71
471.525	20783.47
471.73	20091.26
471.935	20128.12
472.139	19589.5
472.344	19900.79
472.549	19620.22
472.754	19296.64
472.959	19102.09
473.164	18590.1
473.369	18502.03
473.574	19050.89
473.778	18669.97
473.983	18788.75
474.188	18567.57
474.393	17961.37
474.598	17914.27
474.802	17510.82
475.007	17482.14
475.212	17574.3
475.417	17000.87
475.621	17070.5
475.826	17025.45
476.031	16566.7
476.235	16335.28
476.44	16783.79
476.645	16159.16
476.849	16167.35
477.054	16210.36
477.259	15890.87
477.463	15815.1
477.668	15462.85
477.872	15696.32
478.077	15403.46
478.282	15008.2
478.486	14942.66
478.691	14825.93
478.895	14795.21
479.1	14899.66
479.304	14690.76
479.509	14387.66
479.713	14420.43
479.918	14254.55
480.122	14076.37
480.326	14227.92
480.531	14346.7
480.735	14098.9
480.94	14084.56
481.144	14457.29
481.348	13976.02
481.553	13857.24
481.757	13687.26
481.961	13890.01
482.166	14078.42
482.37	13853.14
482.574	13623.77
482.778	13457.89
482.983	14019.03
483.187	13677.02
483.391	14045.65
483.595	13613.53
483.8	13640.15
484.004	13668.83
484.208	13853.14
484.412	13652.44
484.616	13720.03
484.821	13810.14
485.025	13672.92
485.229	13554.14
485.433	13560.28
485.637	13574.62
485.841	13515.23
486.045	13623.77
486.249	13568.48
486.453	13568.48
486.657	13775.32
486.861	13713.88
487.065	13324.77
487.269	13722.07
487.473	13539.8
487.677	13826.52
487.881	13904.34
488.085	13677.02
488.289	13947.35
488.493	13717.98
488.697	13730.27
488.901	13803.99
489.105	13717.98
489.309	13885.91
489.512	13697.5
489.716	13906.39
489.92	13781.46
490.124	13746.65
490.328	14262.74
490.531	13564.38
490.735	13881.81
490.939	14277.07
491.143	13963.73
491.346	14027.22
491.55	14197.2
491.754	14287.31
491.958	14332.37
492.161	14328.27
492.365	14332.37
492.569	14412.24
492.772	14430.67
492.976	14723.53
493.18	14729.67
493.383	14698.95
493.587	14852.55
493.79	14817.74
493.994	14762.44
494.197	15049.16
494.401	15215.04
494.605	15342.02
494.808	15458.75
495.012	15360.45
495.215	15782.33
495.419	15665.6
495.622	15561.15
495.825	15815.1
496.029	15839.67
496.232	16083.38
496.436	16161.2
496.639	16642.48
496.843	16646.57
497.046	16892.33
497.249	16771.5
497.453	17062.31
497.656	17279.4
497.859	17140.13
498.063	17486.24
498.266	17691.04
498.469	17770.91
498.673	17781.15
498.876	18426.26
499.079	18583.95
499.282	18387.35
499.485	18635.15
499.689	18985.35
499.892	19038.6
500.095	19202.44
500.298	19792.25
500.501	19417.47
500.705	20156.79
500.908	20474.23
501.111	20384.12
501.314	20609.39
501.517	21000.55
501.72	20975.98
501.923	21018.99
502.126	21555.55
502.329	21987.68
502.532	21848.41
502.735	21791.07
502.938	22561.11
503.141	22628.69
503.344	23060.81
503.547	22550.87
503.75	23062.86
503.953	23736.64
504.156	23947.58
504.359	23902.53
504.562	23888.19
504.765	24764.72
504.968	25110.83
505.17	25045.29
505.373	25194.79
505.576	25733.41
505.779	25987.36
505.982	26292.51
506.185	26456.34
506.387	26681.62
506.59	26859.79
506.793	27547.91
506.996	27384.07
507.198	28078.33
507.401	27857.15
507.604	28403.96
507.807	28786.93
508.009	28784.88
508.212	29161.71
508.415	29585.64
508.617	29827.3
508.82	29745.38
509.022	29620.45
509.225	30884.05
509.428	30863.57
509.63	31350.99
509.833	30937.3
510.035	31807.69
510.238	31891.65
510.44	32360.64
510.643	32540.86
510.845	33091.76
511.048	32759.99
511.25	33730.73
511.453	33761.45
511.655	34814.1
511.858	34205.86
512.06	34703.51
512.262	35160.21
512.465	35080.34
512.667	35516.56
512.87	35999.88
513.072	36038.79
513.274	36677.75
513.477	36962.42
513.679	37363.82
513.881	38031.46
514.084	37795.95
514.286	38250.6
514.488	38400.1
514.69	39159.89
514.893	39268.44
515.095	39522.38
515.297	39936.07
515.499	40126.53
515.701	40980.54
515.904	41158.71
516.106	41340.98
516.308	41695.28
516.51	42070.06
516.712	42285.09
516.914	42668.06
517.116	43442.2
517.318	43221.02
517.52	43829.26
517.722	43946
517.925	44402.69
518.127	44959.74
518.329	45320.18
518.531	44904.45
518.733	46034.92
518.935	46268.39
519.136	46165.99
519.338	47032.28
519.54	47114.2
519.742	47448.02
519.944	47771.6
520.146	48836.55
520.348	48553.93
520.55	48668.61
520.752	48816.07
520.954	49881.01
521.155	49622.97
521.357	50401.19
521.559	50642.85
521.761	51257.24
521.963	51160.99
522.164	51330.97
522.366	51834.77
522.568	52062.1
522.77	52088.72
522.971	52950.91
523.173	52637.58
523.375	53417.85
523.576	53127.04
523.778	53430.14
523.98	53905.27
524.181	54028.15
524.383	54095.73
524.584	54685.54
524.786	54955.88
524.988	54742.89
525.189	55304.03
525.391	55431
525.592	55740.25
525.794	56209.23
525.995	56002.39
526.197	56475.47
526.398	56172.37
526.6	57169.73
526.801	57009.99
527.003	57521.98
527.204	56770.38
527.406	57712.44
527.607	57552.7
527.808	58332.98
528.01	57421.63
528.211	57868.09
528.412	58851.11
528.614	58617.64
528.815	58462
529.016	59262.75
529.218	58736.43
529.419	59162.4
529.62	58257.2
529.822	58828.58
530.023	58810.15
530.224	58795.82
530.425	58945.32
530.626	59066.15
530.828	58670.89
531.029	60102.42
531.23	59125.54
531.431	59197.22
531.632	59617.05
531.833	59500.32
532.035	59899.67
532.236	59494.17
532.437	60131.09
532.638	59830.04
532.839	59934.49
533.04	60127
533.241	59780.89
533.442	60768.01
533.643	60069.65
533.844	60014.36
534.045	60469.01
534.246	60094.23
534.447	59942.68
534.648	59950.87
534.849	60432.14
535.05	59936.54
535.251	60323.6
535.451	59879.19
535.652	60610.32
535.853	59936.54
536.054	60436.24
536.255	60538.64
536.456	59662.11
536.657	60876.55
536.857	59975.45
537.058	60008.21
537.259	60974.86
537.46	60495.63
537.66	60284.69
537.861	60663.56
538.062	60335.89
538.263	60454.67
538.463	60348.18
538.664	60079.89
538.865	60598.03
539.065	60499.73
539.266	59891.48
539.466	60540.69
539.667	60163.86
539.868	60694.28
540.068	60462.86
540.269	59846.43
540.469	60235.54
540.67	60104.47
540.87	59891.48
541.071	60210.96
541.271	60362.51
541.472	60358.42
541.672	60194.58
541.873	59914.01
542.073	59459.36
542.274	60575.5
542.474	59899.67
542.675	59719.45
542.875	60565.26
543.075	60370.71
543.276	59698.97
543.476	60612.37
543.676	59891.48
543.877	59875.1
544.077	59850.52
544.277	60024.6
544.478	59830.04
544.678	59944.73
544.878	59744.03
545.078	59762.46
545.279	59481.89
545.479	60079.89
545.679	59854.62
545.879	59844.38
546.079	59827.99
546.28	59555.61
546.48	59569.95
546.68	59725.6
546.88	59574.05
547.08	59748.12
547.28	59686.68
547.48	59297.57
547.68	59717.4
547.88	59229.99
548.081	59875.1
548.281	59723.55
548.481	59383.58
548.681	59805.47
548.881	59918.1
549.081	59399.97
549.28	59025.19
549.48	59895.58
549.68	59207.46
549.88	60188.44
550.08	59338.53
550.28	59508.51
550.48	58947.37
550.68	59852.57
550.88	58939.18
551.08	59082.53
551.279	59307.81
551.479	58636.08
551.679	59154.21
551.879	59047.72
552.079	59465.5
552.278	59461.41
552.478	59080.49
552.678	59492.13
552.878	59615
553.077	59105.06
553.277	58810.15
553.477	59977.5
553.676	58638.12
553.876	59152.16
554.076	58724.14
554.275	59060.01
554.475	58392.37
554.674	58791.72
554.874	58711.85
555.074	58720.04
555.273	58959.65
555.473	59090.72
555.672	58527.53
555.872	58707.75
556.071	58605.36
556.271	58527.53
556.47	58566.44
556.67	58257.2
556.869	58353.46
557.068	58294.07
557.268	57808.7
557.467	58578.73
557.667	58367.79
557.866	58048.31
558.065	58445.61
558.265	57773.88
558.464	57605.95
558.663	58146.61
558.863	57456.45
559.062	58486.57
559.261	57392.96
559.461	58173.24
559.66	57433.92
559.859	57573.18
560.058	57075.52
560.258	57341.76
560.457	57040.71
560.656	57550.65
560.855	57132.87
561.054	57243.46
561.253	56837.96
561.453	57282.37
561.652	57055.04
561.851	56868.68
562.05	56287.06
562.249	56483.66
562.448	56676.17
562.647	57067.33
562.846	56356.69
563.045	56520.52
563.244	56104.79
563.443	56756.04
563.642	55582.55
563.841	56115.03
564.04	55648.09
564.239	56268.62
564.438	55357.28
564.637	56074.07
564.836	55666.52
565.035	55060.32
565.234	55148.39
565.432	55152.48
565.631	55142.24
565.83	55650.14
566.029	55222.11
566.228	55281.5
566.427	54869.86
566.625	54771.56
566.824	54404.97
567.023	54828.9
567.222	54140.78
567.42	54673.26
567.619	54396.78
567.818	54108.02
568.016	54400.88
568.215	54615.91
568.414	54519.66
568.612	54370.16
568.811	53780.34
569.01	53741.43
569.208	53346.17
569.407	53907.32
569.605	53168
569.804	53888.88
570.002	52817.8
570.201	53634.94
570.4	52305.8
570.598	52354.96
570.797	52395.92
570.995	52428.68
571.193	52252.56
571.392	52739.97
571.59	52332.43
571.789	52453.26
571.987	52367.24
572.186	52072.34
572.384	51660.69
572.582	52053.9
572.781	52154.25
572.979	51265.44
573.177	51789.72
573.376	51775.38
573.574	51236.76
573.772	51718.04
573.971	51087.26
574.169	50931.62
574.367	50866.08
574.565	50929.57
574.763	50573.22
574.962	50257.84
575.16	50108.33
575.358	50896.8
575.556	49788.85
575.754	50128.81
575.952	49815.47
576.151	50550.7
576.349	49438.65
576.547	49668.02
576.745	49948.59
576.943	49817.52
577.141	49176.51
577.339	49483.7
577.537	49063.87
577.735	49184.7
577.933	48699.33
578.131	49094.59
578.329	48877.5
578.527	48906.18
578.725	48699.33
578.923	48762.82
579.121	48347.08
579.319	47884.24
579.516	48773.06
579.714	48062.41
579.912	48068.56
580.11	47826.9
580.308	47589.33
580.506	47785.94
580.704	47177.69
580.901	47701.97
581.099	47841.23
581.297	46944.22
581.495	47001.57
581.692	47491.03
581.89	46632.93
582.088	47378.39
582.285	46452.71
582.483	46778.34
582.681	46684.13
582.878	46346.22
583.076	45725.68
583.274	46245.86
583.471	45522.93
583.669	45680.63
583.866	45309.94
584.064	45916.14
584.262	44965.88
584.459	45660.15
584.657	44982.27
584.854	45744.11
585.052	44728.32
585.249	45293.56
585.447	45092.86
585.644	44255.24
585.841	44578.82
586.039	44550.15
586.236	44187.66
586.434	44218.38
586.631	43984.91
586.828	43829.26
587.026	43999.24
587.223	44077.07
587.42	43380.76
587.618	43675.66
587.815	43147.29
588.012	42762.27
588.21	42995.74
588.407	43567.12
588.604	43231.25
588.801	42711.07
588.999	42913.82
589.196	42889.24
589.393	42467.36
589.59	42749.98
589.787	42668.06
589.984	42076.2
590.182	42065.96
590.379	42025
590.576	42070.06
590.773	42151.98
590.97	41433.14
591.167	41957.42
591.364	41087.03
591.561	41506.87
591.758	40886.33
591.955	41109.56
592.152	41558.06
592.349	40900.67
592.546	41152.57
592.743	41003.07
592.94	40329.28
593.137	40540.22
593.334	40654.91
593.531	39835.72
593.727	40253.51
593.924	39991.37
594.121	39616.59
594.318	40216.64
594.515	39524.43
594.712	40210.5
594.908	39673.93
595.105	39694.41
595.302	38963.29
595.499	39354.45
595.696	39309.39
595.892	38748.25
596.089	39460.94
596.286	39041.11
596.482	38555.74
596.679	38508.64
596.876	38543.45
597.072	38330.47
597.269	38078.57
597.466	38097
597.662	38207.59
597.859	37797.99
598.055	37984.36
598.252	37797.99
598.448	37503.09
598.645	37263.47
598.841	37449.84
599.038	37382.26
599.234	37529.71
599.431	36909.18
599.627	36589.69
599.824	37498.99
600.02	36616.32
600.217	36702.33
600.413	36552.83
600.609	36604.03
600.806	35815.56
601.002	36319.36
601.198	36292.74
601.395	35516.56
601.591	36024.45
601.787	36112.52
601.984	35405.97
602.18	35917.96
602.376	35715.21
602.572	35528.84
602.769	35479.69
602.965	34877.59
603.161	35410.06
603.357	34775.19
603.553	34900.12
603.75	35020.95
603.946	34705.56
604.142	34893.97
604.338	34224.29
604.534	34900.12
604.73	34091.17
604.926	34181.28
605.122	34668.7
605.318	34277.54
605.514	33970.34
605.71	33853.61
605.906	33654.95
606.102	33745.06
606.298	33906.85
606.494	33511.6
606.69	33646.76
606.886	33673.38
607.082	33026.23
607.278	33845.41
607.474	32823.48
607.67	33587.37
607.866	32829.62
608.062	33325.23
608.257	32747.7
608.453	33112.24
608.649	32776.37
608.845	32430.27
609.041	32516.28
609.236	32880.82
609.432	32256.19
609.628	32815.29
609.824	32374.97
610.019	32317.63
610.215	32161.98
610.411	32307.39
610.606	32014.53
610.802	32202.94
610.998	32018.63
611.193	32286.91
611.389	31893.7
611.584	31611.08
611.78	31924.42
611.976	31918.28
612.171	31482.06
612.367	31586.5
612.562	31445.19
612.758	31125.71
612.953	30845.14
613.149	31772.87
613.344	31166.67
613.539	31776.97
613.735	31250.64
613.93	30933.2
614.126	31166.67
614.321	31490.25
614.517	31326.41
614.712	30888.15
614.907	30621.91
615.103	31127.76
615.298	30697.69
615.493	31238.35
615.688	30419.16
615.884	31379.66
616.079	30484.7
616.274	30531.8
616.47	30453.98
616.665	30585.05
616.86	30177.5
617.055	30240.99
617.25	30212.32
617.445	30292.19
617.641	29763.81
617.836	30560.47
618.031	29696.23
618.226	30114.02
618.421	29831.4
618.616	29982.95
618.811	29585.64
619.006	30060.77
619.201	29210.86
619.396	29329.64
619.591	28850.42
619.786	29217
619.981	28840.18
620.176	29126.89
620.371	28840.18
620.566	28639.48
620.761	28696.82
620.956	28834.03
621.151	28111.1
621.346	28627.19
621.541	27879.68
621.735	28188.92
621.93	27560.2
622.125	27994.37
622.32	27334.92
622.515	27830.53
622.709	27470.09
622.904	27511.05
623.099	27013.39
623.294	27123.98
623.488	26861.84
623.683	26837.27
623.878	26378.52
624.072	26663.19
624.267	26446.1
624.462	26063.13
624.656	25997.6
624.851	25803.04
625.046	26022.17
625.24	25622.82
625.435	25375.02
625.629	25450.79
625.824	25254.19
626.018	25090.35
626.213	24682.8
626.407	25055.53
626.602	24652.08
626.796	24789.3
626.991	24592.69
627.185	24328.5
627.38	24199.48
627.574	24115.51
627.768	23810.37
627.963	23529.8
628.157	23445.83
628.352	23699.78
628.546	23191.88
628.74	23746.88
628.935	22956.36
629.129	23308.62
629.323	22993.23
629.517	22679.89
629.712	22853.97
629.906	22755.66
630.1	22313.3
630.294	22745.42
630.489	22456.66
630.683	22651.22
630.877	22036.83
631.071	22133.08
631.265	21973.34
631.459	21805.41
631.653	21750.11
631.848	21555.55
632.042	21563.75
632.236	21342.56
632.43	21244.26
632.624	21176.68
632.818	20906.35
633.012	20920.68
633.206	20636.02
633.4	21000.55
633.594	20463.99
633.788	20470.13
633.982	20318.58
634.176	20380.02
634.369	20238.71
634.563	20038.01
634.757	19683.71
634.951	20042.1
635.145	19868.03
635.339	19829.12
635.533	19837.31
635.726	19702.14
635.92	19265.92
636.114	19407.23
636.308	19257.73
636.501	19339.65
636.695	19083.66
636.889	19104.14
637.083	18725.26
637.276	18897.29
637.47	18549.14
637.664	18569.62
637.857	18647.44
638.051	18532.75
638.244	18182.55
638.438	18174.36
638.632	17963.42
638.825	17971.61
639.019	17734.04
639.212	18160.02
639.406	17871.26
639.599	17652.13
639.793	17623.45
639.986	17404.32
640.18	17527.2
640.373	17500.58
640.567	17181.09
640.76	17119.65
640.954	17150.37
641.147	16767.4
641.34	16679.34
641.534	17041.83
641.727	16712.11
641.92	16671.15
642.114	16452.02
642.307	16622
642.5	16234.93
642.694	16382.38
642.887	16099.76
643.08	16386.48
643.273	16097.72
643.467	15811
643.66	15782.33
643.853	15886.78
644.046	15434.18
644.239	15862.2
644.432	15679.93
644.626	15456.7
644.819	15481.28
645.012	15348.16
645.205	15673.79
645.398	15241.67
645.591	15266.24
645.784	15124.93
645.977	14801.35
646.17	14891.46
646.363	15118.79
646.556	14807.5
646.749	14754.25
646.942	14877.13
647.135	14735.82
647.328	14553.55
647.521	14549.45
647.714	14272.98
647.907	14305.74
648.099	14039.51
648.292	14082.52
648.485	14092.76
648.678	13681.11
648.871	13699.55
649.064	13881.81
649.256	14008.79
649.449	13642.2
649.642	13681.11
649.835	13447.65
650.027	13380.06
650.22	13324.77
650.413	13255.14
650.605	13343.2
650.798	13107.68
650.991	13165.03
651.183	12974.56
651.376	13017.57
651.568	13117.92
651.761	12675.56
651.954	12769.77
652.146	12751.34
652.339	12753.38
652.531	12616.17
652.724	12472.81
652.916	12345.84
653.109	12237.3
653.301	12286.45
653.494	12538.35
653.686	12138.99
653.879	12376.56
654.071	12231.15
654.263	12055.03
654.456	12186.1
654.648	11962.87
654.84	11430.4
655.033	11901.43
655.225	11721.21
655.417	11524.6
655.61	11665.91
655.802	11598.33
655.994	11440.64
656.186	11483.64
656.379	11344.38
656.571	11485.69
656.763	11328
656.955	11112.96
657.148	10998.27
657.34	10965.51
657.532	11131.39
657.724	10826.25
657.916	10912.26
658.108	10680.84
658.3	10988.03
658.492	10859.01
658.684	10471.95
658.876	10613.26
659.068	10795.53
659.26	10635.78
659.452	10660.36
659.644	10711.56
659.836	10242.57
660.028	10441.23
660.22	10076.69
660.412	10349.07
660.604	10177.04
660.796	10304.01
660.988	10101.26
661.18	10013.2
661.372	9861.65
661.563	9996.82
661.755	9794.07
661.947	10142.22
662.139	9804.31
662.331	9628.18
662.522	9806.36
662.714	9605.66
662.906	9699.86
663.097	9400.86
663.289	9513.5
663.481	9536.03
663.673	9333.28
663.864	9392.67
664.056	9431.58
664.247	9058.85
664.439	9128.48
664.631	9089.57
664.822	9267.74
665.014	9308.7
665.205	8790.56
665.397	9126.43
665.588	8888.87
665.78	8946.21
665.971	8944.16
666.163	8835.62
666.354	8798.76
666.546	8651.3
666.737	8684.07
666.929	8663.59
667.12	8628.77
667.311	8591.91
667.503	8507.94
667.694	8483.37
667.885	8368.68
668.077	8489.51
668.268	8493.61
668.459	8428.07
668.651	8233.52
668.842	8188.46
669.033	8139.31
669.224	8243.76
669.416	8122.93
669.607	8088.11
669.798	7850.55
669.989	8145.45
670.18	7850.55
670.371	8057.39
670.563	7797.3
670.754	7934.51
670.945	7842.36
671.136	7789.11
671.327	7868.98
671.518	7850.55
671.709	7561.78
671.9	7778.87
672.091	7623.22
672.282	7723.57
672.473	7510.58
672.664	7543.35
672.855	7561.78
673.046	7494.2
673.237	7506.49
673.428	7438.91
673.619	7443
673.809	7322.17
674	7399.99
674.191	7373.37
674.382	7316.03
674.573	7313.98
674.764	6992.45
674.954	7199.29
675.145	7043.65
675.336	7123.52
675.527	7045.7
675.717	7154.24
675.908	6943.3
676.099	6986.3
676.289	7008.83
676.48	6904.39
676.671	6822.47
676.861	6969.92
677.052	6767.17
677.243	6978.11
677.433	6920.77
677.624	6709.83
677.814	6775.36
678.005	6851.14
678.195	6789.7
678.386	6597.19
678.576	6658.63
678.767	6586.95
678.957	6621.77
679.148	6685.25
679.338	6447.69
679.529	6404.68
679.719	6437.45
679.909	6691.4
680.1	6519.37
680.29	6535.75
680.481	6474.31
680.671	6408.78
680.861	6390.35
681.052	6564.42
681.242	6359.63
681.432	6353.48
681.622	6265.42
681.813	6287.95
682.003	6304.33
682.193	6206.03
682.383	6259.28
682.573	6212.17
682.764	6136.4
682.954	6089.29
683.144	6101.58
683.334	6226.51
683.524	5986.9
683.714	5980.75
683.904	6027.85
684.094	5997.14
684.284	5894.74
684.474	6040.14
684.664	5958.22
684.854	6023.76
685.044	5943.89
685.234	5866.07
685.424	5759.57
685.614	5759.57
685.804	5804.63
685.994	5786.19
686.184	5835.35
686.374	5753.43
686.564	5587.54
686.753	5810.77
686.943	5499.48
687.133	5669.46
687.323	5601.88
687.513	5665.36
687.702	5476.95
687.892	5497.43
688.082	5499.48
688.272	5648.98
688.461	5345.88
688.651	5460.57
688.841	5507.67
689.03	5390.94
689.22	5229.15
689.41	5349.98
689.599	5261.91
689.789	5290.59
689.979	5309.02
690.168	5315.16
690.358	5042.78
690.547	5212.76
690.737	5194.33
690.926	5175.9
691.116	5063.26
691.305	5323.35
691.495	5050.97
691.684	5149.28
691.874	5030.49
692.063	5114.46
692.252	4956.77
692.442	5046.88
692.631	4895.33
692.82	4913.76
693.01	4885.09
693.199	4938.34
693.388	4860.51
693.578	4954.72
693.767	4866.66
693.956	4921.95
694.146	4735.59
694.335	4807.27
694.524	4745.83
694.713	4811.36
694.902	4696.68
695.092	4762.21
695.281	4846.18
695.47	4684.39
695.659	4760.16
695.848	4758.11
696.037	4768.35
696.226	4625
696.415	4719.2
696.604	4594.28
696.793	4606.56
696.982	4661.86
697.171	4625
697.36	4641.38
697.549	4579.94
697.738	4590.18
697.927	4541.03
698.116	4516.45
698.305	4450.92
698.494	4436.58
698.683	4573.8
698.872	4438.63
699.061	4498.02
699.25	4352.62
699.438	4446.82
699.627	4426.34
699.816	4495.97
700.005	4561.51
700.193	4328.04
700.382	4405.86
700.571	4471.4
700.76	4491.88
700.948	4344.42
701.137	4340.33
701.326	4319.85
701.514	4317.8
701.703	4350.57
701.892	4211.31
702.08	4440.68
702.269	4313.7
702.457	4369
702.646	4446.82
702.834	4067.95
703.023	4301.42
703.212	4360.81
703.4	4149.87
703.589	4127.34
703.777	4162.16
703.965	4186.73
704.154	4289.13
704.342	4260.46
704.531	4194.92
704.719	4096.62
704.907	4098.67
705.096	4233.83
705.284	4158.06
705.472	4090.48
705.661	4127.34
705.849	4057.71
706.037	4280.94
706.226	4217.45
706.414	4178.54
706.602	3990.13
706.79	3957.36
706.979	4065.9
707.167	4045.42
707.355	4078.19
707.543	4190.83
707.731	3996.27
707.919	4061.8
708.107	3951.21
708.296	3961.45
708.484	4047.47
708.672	3893.87
708.86	3990.13
709.048	3977.84
709.236	3971.69
709.424	4039.28
709.612	4020.85
709.8	3897.97
709.988	3945.07
710.176	3971.69
710.364	3963.5
710.551	3914.35
710.739	4014.7
710.927	3885.68
711.115	3779.19
711.303	3830.38
711.491	3754.61
711.679	3852.91
711.866	3850.86
712.054	3914.35
712.242	3854.96
712.43	3875.44
712.617	3736.18
712.805	3809.9
712.993	3770.99
713.181	3783.28
713.368	3697.27
713.556	3773.04
713.744	3830.38
713.931	3824.24
714.119	3736.18
714.306	3836.53
714.494	3682.93
714.682	3727.99
714.869	3664.5
715.057	3816.05
715.244	3605.11
715.432	3680.88
715.619	3738.23
715.807	3596.92
715.994	3715.7
716.182	3639.92
716.369	3461.75
716.556	3691.12
716.744	3752.56
716.931	3752.56
717.119	3644.02
717.306	3695.22
717.493	3627.64
717.681	3598.96
717.868	3674.74
718.055	3494.52
718.242	3650.16
718.43	3623.54
718.617	3572.34
718.804	3676.79
718.991	3553.91
719.179	3615.35
719.366	3545.72
719.553	3453.56
719.74	3410.55
719.927	3588.72
720.114	3502.71
720.301	3576.44
720.488	3410.55
720.676	3435.13
720.863	3297.91
721.05	3474.04
721.237	3592.82
721.424	3537.52
721.611	3500.66
721.798	3394.17
721.985	3402.36
722.172	3385.98
722.358	3457.65
722.545	3388.02
722.732	3467.89
722.919	3314.3
723.106	3461.75
723.293	3390.07
723.48	3338.87
723.667	3463.8
723.853	3424.89
724.04	3330.68
724.227	3322.49
724.414	3381.88
724.6	3338.87
724.787	3398.26
724.974	3340.92
725.161	3367.54
725.347	3299.96
725.534	3408.5
725.72	3471.99
725.907	3320.44
726.094	3291.77
726.28	3363.45
726.467	3265.14
726.653	3293.82
726.84	3295.86
727.027	3383.93
727.213	3420.79
727.4	3304.06
727.586	3287.67
727.773	3345.02
727.959	3314.3
728.145	3349.11
728.332	3250.81
728.518	3304.06
728.705	3357.3
728.891	3224.19
729.077	3154.55
729.264	3187.32
729.45	3062.4
729.636	3338.87
729.823	3269.24
730.009	3222.14
730.195	3308.15
730.382	3226.23
730.568	3287.67
730.754	3287.67
730.94	3138.17
731.126	3213.95
731.313	3168.89
731.499	3150.46
731.685	3093.12
731.871	3238.52
732.057	3228.28
732.243	3185.27
732.429	3123.84
732.615	3240.57
732.801	3289.72
732.987	3175.03
733.173	3164.79
733.359	3201.66
733.545	3056.25
733.731	2998.91
733.917	3015.29
734.103	3152.51
734.289	3177.08
734.475	3046.01
734.661	3267.19
734.847	3209.85
735.033	3156.6
735.219	3011.2
735.404	3058.3
735.59	3136.12
735.776	2916.99
735.962	2943.61
736.148	2937.47
736.333	3041.92
736.519	2976.38
736.705	3103.36
736.89	3031.68
737.076	2994.81
737.262	3084.92
737.447	2986.62
737.633	2955.9
737.819	3009.15
738.004	2986.62
738.19	3039.87
738.375	2927.23
738.561	3035.77
738.747	3086.97
738.932	2951.81
739.118	2939.52
739.303	2988.67
739.489	2880.13
739.674	2933.37
739.859	2970.24
740.045	2851.46
740.23	2763.39
740.416	2849.41
740.601	2820.74
740.786	2759.3
740.972	2810.5
741.157	2798.21
741.342	2837.12
741.528	2968.19
741.713	2779.78
741.898	2775.68
742.084	2742.91
742.269	2759.3
742.454	2689.67
742.639	2785.92
742.824	2679.43
743.01	2751.1
743.195	2701.95
743.38	2669.19
743.565	2761.34
743.75	2693.76
743.935	2685.57
744.12	2648.71
744.305	2632.32
744.49	2669.19
744.675	2593.41
744.86	2622.08
745.045	2597.51
745.23	2620.03
745.415	2617.99
745.6	2583.17
745.785	2534.02
745.97	2583.17
746.155	2587.27
746.34	2474.63
746.525	2437.77
746.71	2587.27
746.895	2501.25
747.079	2482.82
747.264	2441.86
747.449	2534.02
747.634	2515.59
747.819	2435.72
748.003	2423.43
748.188	2448.01
748.373	2341.51
748.557	2316.94
748.742	2286.22
748.927	2382.47
749.111	2284.17
749.296	2278.02
749.481	2212.49
749.665	2396.81
749.85	2241.16
750.034	2255.5
750.219	2288.26
750.404	2140.81
750.588	2060.94
750.773	2298.5
750.957	2058.89
751.141	2214.54
751.326	2194.06
751.51	2116.23
751.695	1956.49
751.879	2052.75
752.064	2056.84
752.248	2144.91
752.432	2136.71
752.617	2136.71
752.801	1913.49
752.985	2024.08
753.17	2005.64
753.354	1878.67
753.538	2022.03
753.722	1899.15
753.907	1956.49
754.091	1950.35
754.275	1966.73
754.459	1950.35
754.643	1915.53
754.828	1854.09
755.012	1763.98
755.196	1755.79
755.38	1798.8
755.564	1852.05
755.748	1833.61
755.932	1806.99
756.116	1751.7
756.3	1786.51
756.484	1786.51
756.668	1716.88
756.852	1788.56
757.036	1741.46
757.22	1628.82
757.404	1782.42
757.588	1608.34
757.772	1716.88
757.956	1821.33
758.14	1714.83
758.323	1735.31
758.507	1694.35
758.691	1559.19
758.875	1538.71
759.059	1647.25
759.242	1555.09
759.426	1534.61
759.61	1591.95
759.794	1505.94
759.977	1594
760.161	1653.39
760.345	1546.9
760.528	1559.19
760.712	1602.19
760.895	1485.46
761.079	1596.05
761.263	1428.12
761.446	1493.65
761.63	1497.75
761.813	1391.25
761.997	1497.75
762.18	1421.97
762.364	1540.76
762.547	1487.51
762.731	1450.64
762.914	1430.16
763.098	1452.69
763.281	1374.87
763.464	1464.98
763.648	1489.56
763.831	1409.69
764.015	1376.92
764.198	1411.73
764.381	1430.16
764.564	1370.77
764.748	1325.72
764.931	1417.88
765.114	1389.21
765.297	1321.62
765.481	1350.29
765.664	1288.85
765.847	1338.01
766.03	1290.9
766.213	1292.95
766.397	1297.05
766.58	1292.95
766.763	1317.53
766.946	1278.62
767.129	1280.66
767.312	1288.85
767.495	1274.52
767.678	1139.35
767.861	1270.42
768.044	1331.86
768.227	1303.19
768.41	1266.33
768.593	1319.57
768.776	1264.28
768.959	1288.85
769.142	1208.98
769.324	1217.18
769.507	1186.46
769.69	1198.74
769.873	1290.9
770.056	1225.37
770.239	1165.98
770.421	1163.93
770.604	1186.46
770.787	1145.5
770.97	1143.45
771.152	1180.31
771.335	1208.98
771.518	1090.2
771.7	1108.63
771.883	1165.98
772.066	1223.32
772.248	1180.31
772.431	1131.16
772.613	1168.02
772.796	1120.92
772.978	1139.35
773.161	1151.64
773.343	1086.11
773.526	1018.52
773.708	1153.69
773.891	1043.1
774.073	1022.62
774.256	1055.39
774.438	1159.83
774.621	1088.15
774.803	1059.48
774.985	1053.34
775.168	1032.86
775.35	1016.48
775.532	1006.24
775.715	1022.62
775.897	1067.67
776.079	942.75
776.261	977.56
776.444	993.95
776.626	1086.11
776.808	948.89
776.99	971.42
777.173	1030.81
777.355	1012.38
777.537	946.84
777.719	971.42
777.901	893.6
778.083	903.84
778.265	803.49
778.447	912.03
778.629	842.4
778.811	842.4
778.993	842.4
779.175	897.69
779.357	805.53
779.539	830.11
779.721	897.69
779.903	793.25
780.085	801.44
780.267	828.06
780.449	807.58
780.631	893.6
780.812	785.05
780.994	842.4
781.176	875.17
781.358	811.68
781.54	774.81
781.721	871.07
781.903	774.81
782.085	742.05
782.267	895.64
782.448	619.17
782.63	713.38
782.812	737.95
782.993	776.86
783.175	746.14
783.357	666.27
783.538	690.85
783.72	713.38
783.901	715.42
784.083	731.81
784.264	713.38
784.446	666.27
784.627	729.76
784.809	707.23
784.99	678.56
785.172	656.03
785.353	690.85
785.535	672.42
785.716	649.89
785.897	602.79
786.079	637.6
786.26	637.6
786.441	623.27
786.623	565.92
786.804	615.07
786.985	613.03
787.167	608.93
787.348	572.07
787.529	580.26
787.71	627.36
787.891	563.87
788.073	504.48
788.254	561.83
788.435	613.03
788.616	555.68
788.797	541.35
788.978	582.31
789.159	553.63
789.34	520.87
789.522	510.63
789.703	551.59
789.884	504.48
790.065	535.2
790.246	529.06
790.427	590.5
790.607	481.96
790.788	557.73
790.969	547.49
791.15	486.05
791.331	543.39
791.512	518.82
791.693	522.91
791.874	500.39
792.054	512.67
792.235	469.67
792.416	481.96
792.597	455.33
792.778	500.39
792.958	463.52
793.139	471.72
793.32	549.54
793.5	459.43
793.681	518.82
793.862	486.05
794.042	453.28
794.223	393.89
794.404	443.04
794.584	516.77
794.765	441
794.945	387.75
795.126	481.96
795.306	408.23
795.487	502.43
795.667	334.5
795.848	457.38
796.028	400.04
796.209	389.8
796.389	385.7
796.57	371.37
796.75	436.9
796.93	432.8
797.111	422.56
797.291	404.13
797.471	361.13
797.652	434.85
797.832	412.32
798.012	387.75
798.192	418.47
798.373	350.89
798.553	389.8
798.733	365.22
798.913	381.6
799.093	328.36
799.274	416.42
799.454	363.17
799.634	387.75
799.814	432.8
799.994	369.32
800.174	307.88
800.354	359.08
800.534	346.79
800.714	340.65
800.894	346.79
801.074	318.12
801.254	301.73
801.434	408.23
801.614	361.13
801.794	326.31
801.974	701.09
802.154	328.36
802.334	346.79
802.514	334.5
802.693	303.78
802.873	297.64
803.053	297.64
803.233	318.12
803.413	305.83
803.592	350.89
803.772	385.7
803.952	281.25
804.131	293.54
804.311	311.97
804.491	318.12
804.67	250.53
804.85	291.49
805.03	283.3
805.209	334.5
805.389	248.49
805.568	252.58
805.748	228.01
805.928	359.08
806.107	244.39
806.287	334.5
806.466	285.35
806.646	309.93
806.825	256.68
807.004	318.12
807.184	305.83
807.363	318.12
807.543	316.07
807.722	281.25
807.901	309.93
808.081	318.12
808.26	252.58
808.439	262.82
808.619	232.1
808.798	318.12
808.977	283.3
809.156	268.97
809.336	268.97
809.515	283.3
809.694	195.24
809.873	242.34
810.052	193.19
810.231	346.79
810.411	215.72
810.59	211.62
810.769	293.54
810.948	256.68
811.127	238.25
811.306	299.69
811.485	260.77
811.664	301.73
811.843	182.95
812.022	277.16
812.201	238.25
812.38	250.53
812.559	228.01
812.737	228.01
812.916	273.06
813.095	193.19
813.274	336.55
813.453	314.02
813.632	225.96
813.811	189.1
813.989	232.1
814.168	318.12
814.347	289.45
814.526	203.43
814.704	277.16
814.883	219.82
815.062	154.28
815.24	215.72
815.419	262.82
815.598	230.06
815.776	182.95
815.955	209.58
816.133	244.39
816.312	215.72
816.49	185
816.669	191.14
816.847	209.58
817.026	242.34
817.204	166.57
817.383	189.1
817.561	182.95
817.74	260.77
817.918	107.18
818.097	238.25
818.275	230.06
818.453	252.58
818.632	154.28
818.81	223.91
818.988	176.81
819.167	187.05
819.345	111.27
819.523	170.66
819.701	160.42
819.879	207.53
820.058	195.24
820.236	125.61
820.414	187.05
820.592	203.43
820.77	164.52
820.948	187.05
821.127	174.76
821.305	129.7
821.483	217.77
821.661	160.42
821.839	135.85
822.017	103.08
822.195	150.18
822.373	168.62
822.551	137.9
822.729	178.86
822.907	158.38
823.085	43.69
823.262	199.34
823.44	103.08
823.618	141.99
823.796	178.86
823.974	74.41
824.152	203.43
824.329	189.1
824.507	185
824.685	193.19
824.863	203.43
825.04	139.94
825.218	221.86
825.396	148.14
825.574	154.28
825.751	98.99
825.929	133.8
826.107	144.04
826.284	133.8
826.462	105.13
826.639	146.09
826.817	131.75
826.994	129.7
827.172	86.7
827.349	195.24
827.527	195.24
827.704	94.89
827.882	160.42
828.059	127.66
828.237	160.42
828.414	174.76
828.591	82.6
828.769	199.34
828.946	84.65
829.124	160.42
829.301	146.09
829.478	109.22
829.655	228.01
829.833	193.19
830.01	209.58
830.187	158.38
830.364	180.9
830.542	129.7
830.719	250.53
830.896	154.28
831.073	58.03
831.25	156.33
831.427	98.99
831.604	111.27
831.782	158.38
831.959	111.27
832.136	49.83
832.313	66.22
832.49	121.51
832.667	176.81
832.844	121.51
833.021	156.33
833.198	146.09
833.374	125.61
833.551	129.7
833.728	70.31
833.905	103.08
834.082	113.32
834.259	111.27
834.436	154.28
834.612	113.32
834.789	98.99
834.966	96.94
835.143	123.56
835.319	103.08
835.496	191.14
835.673	113.32
835.85	109.22
836.026	121.51
836.203	160.42
836.38	139.94
836.556	127.66
836.733	45.74
836.909	166.57
837.086	96.94
837.262	144.04
837.439	70.31
837.616	131.75
837.792	127.66
837.968	98.99
838.145	53.93
838.321	117.42
838.498	94.89
838.674	119.46
838.851	60.07
839.027	115.37
839.203	62.12
839.38	119.46
839.556	105.13
839.732	168.62
839.909	62.12
840.085	129.7
840.261	41.64
840.437	55.98
840.614	60.07
840.79	141.99
840.966	88.75
841.142	139.94
841.318	109.22
841.494	55.98
841.671	105.13
841.847	45.74
842.023	115.37
842.199	139.94
842.375	107.18
842.551	29.35
842.727	103.08
842.903	127.66
843.079	88.75
843.255	47.79
843.431	70.31
843.607	74.41
843.783	15.02
843.959	146.09
844.134	88.75
844.31	88.75
844.486	64.17
844.662	2.73
844.838	86.7
845.013	141.99
845.189	137.9
845.365	58.03
845.541	39.59
845.716	55.98
845.892	51.88
846.068	76.46
846.244	53.93
846.419	154.28
846.595	103.08
846.77	139.94
846.946	117.42
847.122	101.03
847.297	107.18
847.473	96.94
847.648	37.55
847.824	111.27
847.999	19.11
848.175	62.12
848.35	68.27
848.526	141.99
848.701	86.7
848.876	82.6
849.052	107.18
849.227	64.17
849.403	-1.37
849.578	109.22
849.753	88.75
849.929	62.12
850.104	0.68
850.279	127.66
850.454	103.08
850.63	74.41
850.805	76.46
850.98	86.7
851.155	10.92
851.33	66.22
851.505	82.6
851.681	101.03
851.856	6.83
852.031	76.46
852.206	-3.41
852.381	-17.75
852.556	0.68
852.731	76.46
852.906	49.83
853.081	109.22
853.256	68.27
853.431	33.45
853.606	43.69
853.781	41.64
853.956	6.83
854.131	101.03
854.305	8.87
854.48	105.13
854.655	21.16
854.83	76.46
855.005	41.64
855.18	62.12
855.354	92.84
855.529	62.12
855.704	76.46
855.879	119.46
856.053	66.22
856.228	74.41
856.403	80.55
856.577	94.89
856.752	33.45
856.926	105.13
857.101	35.5
857.276	49.83
857.45	62.12
857.625	72.36
857.799	72.36
857.974	-19.8
858.148	15.02
858.323	84.65
858.497	146.09
858.672	53.93
858.846	109.22
859.02	123.56
859.195	31.4
859.369	90.79
859.543	96.94
859.718	12.97
859.892	113.32
860.066	86.7
860.241	4.78
860.415	47.79
860.589	39.59
860.763	96.94
860.938	96.94
861.112	64.17
861.286	58.03
861.46	37.55
861.634	47.79
861.808	35.5
861.982	60.07
862.157	2.73
862.331	-7.51
862.505	74.41
862.679	43.69
862.853	-13.65
863.027	49.83
863.201	49.83
863.375	33.45
863.549	35.5
863.722	55.98
863.896	29.35
864.07	78.51
864.244	0.68
864.418	47.79
864.592	8.87
864.766	25.26
864.939	64.17
865.113	68.27
865.287	88.75
865.461	105.13
865.634	80.55
865.808	64.17
865.982	98.99
866.156	45.74
866.329	29.35
866.503	125.61
866.676	127.66
866.85	-15.7
867.024	29.35
867.197	37.55
867.371	4.78
867.544	92.84
867.718	60.07
867.891	86.7
868.065	51.88
868.238	62.12
868.412	68.27
868.585	76.46
868.759	92.84
868.932	84.65
869.105	55.98
869.279	53.93
869.452	96.94
869.625	25.26
869.799	27.31
869.972	-1.37
870.145	35.5
870.319	90.79
870.492	66.22
870.665	31.4
870.838	39.59
871.011	60.07
871.185	60.07
871.358	70.31
871.531	8.87
871.704	21.16
871.877	127.66
872.05	47.79
872.223	31.4
872.396	166.57
872.569	37.55
872.742	25.26
872.915	37.55
873.088	15.02
873.261	101.03
873.434	39.59
873.607	29.35
873.78	41.64
873.953	49.83
874.126	74.41
874.299	47.79
874.471	21.16
874.644	88.75
874.817	43.69
874.99	70.31
875.163	-5.46
875.335	-5.46
875.508	51.88
875.681	92.84
875.853	86.7
876.026	86.7
876.199	96.94
876.371	119.46
876.544	35.5
876.717	51.88
876.889	27.31
877.062	53.93
877.234	-1.37
877.407	101.03
877.579	-9.56
877.752	55.98
877.924	19.11
878.097	19.11
878.269	84.65
878.442	43.69
878.614	66.22
878.786	25.26
878.959	37.55
879.131	43.69
879.303	-9.56
879.476	58.03
879.648	15.02
879.82	29.35
879.993	12.97
880.165	60.07
880.337	2.73
880.509	78.51
880.681	72.36
880.854	86.7
881.026	78.51
881.198	70.31
881.37	19.11
881.542	15.02
881.714	37.55
881.886	-7.51
882.058	27.31
882.23	-15.7
882.402	68.27
882.574	51.88
882.746	68.27
882.918	31.4
883.09	35.5
883.262	33.45
883.434	84.65
883.606	33.45
883.778	-62.8
883.95	43.69
884.122	84.65
884.293	74.41
884.465	115.37
884.637	23.21
884.809	-27.99
884.98	-7.51
885.152	66.22
885.324	62.12
885.496	23.21
885.667	-34.13
885.839	-38.23
886.011	53.93
886.182	8.87
886.354	-23.89
886.525	131.75
886.697	51.88
886.869	15.02
887.04	66.22
887.212	39.59
887.383	109.22
887.555	2.73
887.726	68.27
887.897	31.4
888.069	23.21
888.24	-9.56
888.412	35.5
888.583	86.7
888.754	58.03
888.926	-25.94
889.097	117.42
889.268	4.78
889.44	41.64
889.611	-19.8
889.782	27.31
889.953	4.78
890.125	19.11
890.296	-11.61
890.467	27.31
890.638	23.21
890.809	51.88
890.98	51.88
891.151	-13.65
891.323	-30.04
891.494	2.73
891.665	-13.65
891.836	101.03
892.007	43.69
892.178	43.69
892.349	68.27
892.52	4.78
892.691	68.27
892.862	0.68
893.032	-34.13
893.203	25.26
893.374	0.68
893.545	90.79
893.716	43.69
893.887	39.59
894.057	55.98
894.228	19.11
894.399	-52.56
894.57	82.6
894.74	53.93
894.911	29.35
895.082	45.74
895.253	17.07
895.423	29.35
895.594	23.21
895.764	51.88
895.935	27.31
896.106	35.5
896.276	-25.94
896.447	76.46
896.617	37.55
896.788	27.31
896.958	70.31
897.129	-17.75
897.299	76.46
897.47	21.16
897.64	39.59
897.81	15.02
897.981	6.83
898.151	-34.13
898.322	6.83
898.492	70.31
898.662	66.22
898.832	0.68
899.003	10.92
899.173	31.4
899.343	-19.8
899.513	-42.32
