Data from USB4F104151__35__12-21-26-565.txt Node

Date: Wed Feb 19 12:21:26 EST 2025
User: louis
Spectrometer: USB4F10415
Trigger mode: 4
Integration Time (sec): 2.250200E-1
Scans to average: 1
Electric dark correction enabled: true
Nonlinearity correction enabled: false
Boxcar width: 0
XAxis mode: Wavelengths
Number of Pixels in Spectrum: 3648
>>>>>Begin Spectral Data<<<<<
178.204	-852.13
178.424	-852.13
178.644	-852.13
178.864	-764.06
179.084	-794.78
179.304	153.43
179.524	106.32
179.744	-37.03
179.964	-180.39
180.184	218.96
180.404	128.85
180.624	-237.74
180.844	-49.32
181.064	16.21
181.283	178
181.503	-147.62
181.723	-149.67
181.943	-61.61
182.163	407.38
182.383	-184.49
182.602	-188.58
182.822	497.49
183.042	278.35
183.262	-135.34
183.482	-170.15
183.701	194.39
183.921	243.54
184.141	-235.69
184.361	-102.57
184.58	270.16
184.8	221.01
185.02	-159.91
185.239	-65.71
185.459	311.12
185.679	429.9
185.898	-149.67
186.118	-188.58
186.338	270.16
186.557	352.08
186.777	-192.68
186.997	-186.54
187.216	184.15
187.436	466.77
187.655	-135.34
187.875	-22.7
188.095	276.31
188.314	442.19
188.534	-30.89
188.753	-276.65
188.973	411.47
189.192	470.86
189.412	-272.55
189.631	-102.57
189.851	321.36
190.07	552.78
190.29	-174.25
190.509	-196.78
190.729	280.4
190.948	452.43
191.168	14.17
191.387	-123.05
191.607	202.58
191.826	294.74
192.045	-110.76
192.265	-243.88
192.484	294.74
192.704	212.82
192.923	-225.45
193.142	-51.37
193.362	333.65
193.581	261.97
193.8	-145.58
194.02	-108.71
194.239	307.02
194.458	397.14
194.678	-82.09
194.897	-215.21
195.116	296.78
195.335	227.15
195.555	-176.3
195.774	-250.02
195.993	436.05
196.212	196.43
196.432	-69.8
196.651	-190.63
196.87	290.64
197.089	560.97
197.308	-143.53
197.528	-49.32
197.747	38.74
197.966	239.44
198.185	-6.31
198.404	-219.3
198.623	298.83
198.842	448.33
199.062	-53.42
199.281	-61.61
199.5	282.45
199.719	272.21
199.938	-168.1
200.157	-211.11
200.376	327.5
200.595	397.14
200.814	-75.95
201.033	-116.9
201.252	442.19
201.471	321.36
201.69	-202.92
201.909	-69.8
202.128	309.07
202.347	376.66
202.566	-49.32
202.785	-350.37
203.004	186.19
203.223	595.79
203.442	-221.35
203.661	-272.55
203.879	347.98
204.098	304.98
204.317	-260.26
204.536	24.4
204.755	354.13
204.974	343.89
205.193	-360.61
205.411	-127.14
205.63	343.89
205.849	319.31
206.068	-157.86
206.287	-221.35
206.505	366.42
206.724	155.47
206.943	-235.69
207.162	-198.82
207.381	212.82
207.599	186.19
207.818	-131.24
208.037	-264.36
208.255	257.87
208.474	227.15
208.693	-133.29
208.911	-141.48
209.13	401.23
209.349	354.13
209.567	-4.27
209.786	-127.14
210.005	335.7
210.223	231.25
210.442	-327.85
210.661	-176.3
210.879	239.44
211.098	122.71
211.316	-131.24
211.535	-172.2
211.753	278.35
211.972	245.59
212.191	-149.67
212.409	-65.71
212.628	335.7
212.846	137.04
213.065	-278.69
213.283	-34.99
213.502	223.06
213.72	190.29
213.938	-196.78
214.157	-178.34
214.375	335.7
214.594	212.82
214.812	-82.09
215.031	-190.63
215.249	149.33
215.467	343.89
215.686	-90.28
215.904	-213.16
216.122	239.44
216.341	507.73
216.559	10.07
216.778	34.64
216.996	468.81
217.214	266.07
217.432	-147.62
217.651	-237.74
217.869	196.43
218.087	202.58
218.306	-170.15
218.524	-196.78
218.742	149.33
218.96	362.32
219.179	-127.14
219.397	-200.87
219.615	520.01
219.833	300.88
220.051	-178.34
220.27	-18.6
220.488	319.31
220.706	313.17
220.924	-202.92
221.142	-114.86
221.36	276.31
221.578	286.54
221.796	-100.52
222.015	-98.47
222.233	296.78
222.451	376.66
222.669	-108.71
222.887	-39.08
223.105	169.81
223.323	184.15
223.541	-131.24
223.759	-123.05
223.977	159.57
224.195	427.85
224.413	-57.51
224.631	-155.82
224.849	227.15
225.067	507.73
225.285	-30.89
225.503	-153.77
225.721	-34.99
225.939	210.77
226.157	-104.62
226.375	147.28
226.592	83.8
226.81	225.11
227.028	22.36
227.246	-114.86
227.464	282.45
227.682	298.83
227.9	-20.65
228.117	-43.18
228.335	300.88
228.553	218.96
228.771	-233.64
228.989	-135.34
229.206	331.6
229.424	118.61
229.642	-133.29
229.86	-102.57
230.077	368.46
230.295	239.44
230.513	-82.09
230.731	-123.05
230.948	485.2
231.166	364.37
231.384	-90.28
231.601	-41.13
231.819	440.14
232.037	91.99
232.254	-75.95
232.472	-209.06
232.689	186.19
232.907	329.55
233.125	-227.5
233.342	-170.15
233.56	122.71
233.777	94.04
233.995	-145.58
234.213	-135.34
234.43	376.66
234.648	239.44
234.865	-151.72
235.083	-47.27
235.3	233.3
235.518	284.5
235.735	-16.55
235.953	-57.51
236.17	218.96
236.388	204.63
236.605	83.8
236.822	-24.75
237.04	444.24
237.257	216.91
237.475	-77.99
237.692	-65.71
237.909	329.55
238.127	235.35
238.344	26.45
238.562	-123.05
238.779	75.6
238.996	-24.75
239.214	10.07
239.431	-73.9
239.648	163.67
239.865	233.3
240.083	-90.28
240.3	-188.58
240.517	112.47
240.735	192.34
240.952	55.12
241.169	-274.6
241.386	307.02
241.603	200.53
241.821	-166.06
242.038	-24.75
242.255	409.42
242.472	51.03
242.689	-63.66
242.907	-65.71
243.124	180.05
243.341	251.73
243.558	-127.14
243.775	-147.62
243.992	28.5
244.209	327.5
244.426	55.12
244.643	-84.14
244.86	184.15
245.078	327.5
245.295	-92.33
245.512	-166.06
245.729	61.27
245.946	288.59
246.163	-149.67
246.38	-168.1
246.597	223.06
246.814	198.48
247.031	-106.67
247.248	-178.34
247.464	311.12
247.681	169.81
247.898	-102.57
248.115	-57.51
248.332	155.47
248.549	507.73
248.766	59.22
248.983	-67.75
249.2	339.79
249.417	434
249.633	-59.56
249.85	-65.71
250.067	223.06
250.284	255.83
250.501	-143.53
250.717	-100.52
250.934	61.27
251.151	196.43
251.368	-104.62
251.585	-145.58
251.801	175.95
252.018	53.08
252.235	24.4
252.451	-221.35
252.668	145.24
252.885	284.5
253.102	-114.86
253.318	-73.9
253.535	106.32
253.752	159.57
253.968	-106.67
254.185	-178.34
254.401	233.3
254.618	284.5
254.835	-73.9
255.051	-45.23
255.268	325.46
255.484	237.39
255.701	-82.09
255.917	-90.28
256.134	81.75
256.351	237.39
256.567	-168.1
256.784	-28.84
257	1.88
257.217	343.89
257.433	-6.31
257.65	3.93
257.866	415.57
258.082	98.13
258.299	-221.35
258.515	-90.28
258.732	178
258.948	34.64
259.165	-32.94
259.381	-159.91
259.597	345.94
259.814	200.53
260.03	-166.06
260.246	-69.8
260.463	345.94
260.679	272.21
260.895	22.36
261.112	-153.77
261.328	118.61
261.544	91.99
261.761	-39.08
261.977	-88.23
262.193	-12.46
262.409	300.88
262.626	-43.18
262.842	-172.2
263.058	130.9
263.274	278.35
263.49	-61.61
263.707	-168.1
263.923	298.83
264.139	-61.61
264.355	-94.38
264.571	-49.32
264.787	302.93
265.004	425.81
265.22	-2.22
265.436	-57.51
265.652	204.63
265.868	243.54
266.084	-96.43
266.3	-112.81
266.516	73.56
266.732	206.67
266.948	-10.41
267.164	-129.19
267.38	345.94
267.596	235.35
267.812	75.6
268.028	-61.61
268.244	141.14
268.46	280.4
268.676	-32.94
268.892	81.75
269.108	110.42
269.324	139.09
269.54	-178.34
269.756	-86.19
269.972	128.85
270.188	169.81
270.403	-94.38
270.619	-86.19
270.835	255.83
271.051	245.59
271.267	-55.47
271.483	-121
271.698	331.6
271.914	347.98
272.13	-22.7
272.346	-131.24
272.562	212.82
272.777	399.18
272.993	-65.71
273.209	-90.28
273.425	202.58
273.64	-80.04
273.856	-151.72
274.072	-258.21
274.287	178
274.503	282.45
274.719	122.71
274.934	-204.97
275.15	48.98
275.366	151.38
275.581	-26.79
275.797	-57.51
276.012	266.07
276.228	94.04
276.444	-0.17
276.659	91.99
276.875	130.9
277.09	85.84
277.306	-55.47
277.521	-30.89
277.737	175.95
277.952	169.81
278.168	-16.55
278.383	-8.36
278.599	108.37
278.814	286.54
279.03	-170.15
279.245	106.32
279.461	202.58
279.676	204.63
279.892	-10.41
280.107	-14.51
280.322	3.93
280.538	356.18
280.753	-108.71
280.969	8.02
281.184	261.97
281.399	380.75
281.615	-24.75
281.83	81.75
282.045	-71.85
282.26	110.42
282.476	-2.22
282.691	48.98
282.906	192.34
283.122	151.38
283.337	-73.9
283.552	22.36
283.767	83.8
283.983	202.58
284.198	14.17
284.413	-112.81
284.628	-59.56
284.843	151.38
285.058	-47.27
285.274	-157.86
285.489	108.37
285.704	323.41
285.919	-6.31
286.134	65.36
286.349	206.67
286.564	178
286.779	10.07
286.995	-16.55
287.21	-14.51
287.425	223.06
287.64	-61.61
287.855	184.15
288.07	8.02
288.285	278.35
288.5	110.42
288.715	55.12
288.93	159.57
289.145	112.47
289.36	-69.8
289.575	67.41
289.79	317.26
290.004	57.17
290.219	59.22
290.434	-37.03
290.649	130.9
290.864	36.69
291.079	-69.8
291.294	14.17
291.509	278.35
291.724	102.23
291.938	-20.65
292.153	5.97
292.368	153.43
292.583	255.83
292.798	40.79
293.012	122.71
293.227	245.59
293.442	30.55
293.657	114.52
293.871	-8.36
294.086	190.29
294.301	360.27
294.516	14.17
294.73	108.37
294.945	83.8
295.16	184.15
295.374	102.23
295.589	48.98
295.804	124.76
296.018	126.8
296.233	-37.03
296.447	120.66
296.662	196.43
296.877	307.02
297.091	10.07
297.306	22.36
297.52	169.81
297.735	257.87
297.949	89.94
298.164	-145.58
298.378	251.73
298.593	85.84
298.807	-32.94
299.022	34.64
299.236	393.04
299.451	42.84
299.665	-59.56
299.88	118.61
300.094	356.18
300.309	198.48
300.523	24.4
300.737	-69.8
300.952	237.39
301.166	178
301.381	-94.38
301.595	-114.86
301.809	141.14
302.024	139.09
302.238	-26.79
302.452	161.62
302.667	261.97
302.881	319.31
303.095	10.07
303.309	18.26
303.524	137.04
303.738	85.84
303.952	98.13
304.166	61.27
304.381	-53.42
304.595	282.45
304.809	20.31
305.023	20.31
305.237	112.47
305.452	79.7
305.666	26.45
305.88	57.17
306.094	321.36
306.308	212.82
306.522	-53.42
306.736	106.32
306.95	223.06
307.164	190.29
307.379	-37.03
307.593	122.71
307.807	317.26
308.021	241.49
308.235	83.8
308.449	-80.04
308.663	145.24
308.877	569.16
309.091	61.27
309.305	81.75
309.519	-10.41
309.733	319.31
309.947	-14.51
310.161	-53.42
310.374	223.06
310.588	368.46
310.802	-110.76
311.016	-49.32
311.23	280.4
311.444	124.76
311.658	59.22
311.872	204.63
312.085	335.7
312.299	354.13
312.513	167.76
312.727	-112.81
312.941	48.98
313.154	161.62
313.368	20.31
313.582	-73.9
313.796	221.01
314.009	173.91
314.223	194.39
314.437	24.4
314.651	231.25
314.864	51.03
315.078	-28.84
315.292	-92.33
315.505	161.62
315.719	98.13
315.933	110.42
316.146	-69.8
316.36	173.91
316.573	247.63
316.787	139.09
317.001	-30.89
317.214	102.23
317.428	206.67
317.641	-73.9
317.855	55.12
318.068	227.15
318.282	186.19
318.495	159.57
318.709	18.26
318.922	180.05
319.136	354.13
319.349	96.08
319.563	-0.17
319.776	235.35
319.99	-106.67
320.203	-16.55
320.417	14.17
320.63	149.33
320.843	325.46
321.057	48.98
321.27	28.5
321.483	321.36
321.697	253.78
321.91	-80.04
322.124	63.32
322.337	233.3
322.55	26.45
322.763	59.22
322.977	-94.38
323.19	153.43
323.403	145.24
323.617	-26.79
323.83	221.01
324.043	192.34
324.256	126.8
324.469	-153.77
324.683	104.28
324.896	192.34
325.109	77.65
325.322	-59.56
325.535	42.84
325.748	347.98
325.962	102.23
326.175	34.64
326.388	-77.99
326.601	261.97
326.814	10.07
327.027	57.17
327.24	214.87
327.453	3.93
327.666	233.3
327.879	94.04
328.092	91.99
328.305	335.7
328.518	61.27
328.731	-18.6
328.944	-86.19
329.157	180.05
329.37	10.07
329.583	137.04
329.796	124.76
330.009	65.36
330.222	278.35
330.435	91.99
330.648	42.84
330.861	253.78
331.073	157.52
331.286	171.86
331.499	5.97
331.712	91.99
331.925	108.37
332.138	34.64
332.35	-47.27
332.563	120.66
332.776	354.13
332.989	-34.99
333.202	-137.38
333.414	182.1
333.627	229.2
333.84	-47.27
334.053	145.24
334.265	100.18
334.478	40.79
334.691	-14.51
334.903	128.85
335.116	206.67
335.329	126.8
335.541	71.51
335.754	290.64
335.966	73.56
336.179	175.95
336.392	61.27
336.604	51.03
336.817	225.11
337.029	175.95
337.242	-43.18
337.454	106.32
337.667	175.95
337.88	276.31
338.092	178
338.305	75.6
338.517	96.08
338.729	114.52
338.942	124.76
339.154	-164.01
339.367	69.46
339.579	307.02
339.792	-96.43
340.004	55.12
340.217	157.52
340.429	194.39
340.641	8.02
340.854	-47.27
341.066	175.95
341.278	241.49
341.491	204.63
341.703	118.61
341.915	108.37
342.128	247.63
342.34	102.23
342.552	-6.31
342.764	221.01
342.977	210.77
343.189	75.6
343.401	28.5
343.613	18.26
343.826	155.47
344.038	-14.51
344.25	87.89
344.462	116.56
344.674	200.53
344.886	-112.81
345.099	89.94
345.311	315.22
345.523	57.17
345.735	-71.85
345.947	51.03
346.159	274.26
346.371	180.05
346.583	-22.7
346.795	137.04
347.007	89.94
347.219	272.21
347.431	59.22
347.643	163.67
347.855	77.65
348.067	319.31
348.279	24.4
348.491	-57.51
348.703	255.83
348.915	194.39
349.127	1.88
349.339	79.7
349.551	190.29
349.763	261.97
349.975	-16.55
350.187	196.43
350.399	319.31
350.61	235.35
350.822	-0.17
351.034	81.75
351.246	225.11
351.458	243.54
351.669	73.56
351.881	63.32
352.093	339.79
352.305	257.87
352.517	-47.27
352.728	108.37
352.94	184.15
353.152	278.35
353.363	-61.61
353.575	112.47
353.787	388.94
353.999	280.4
354.21	178
354.422	-43.18
354.633	210.77
354.845	261.97
355.057	89.94
355.268	12.12
355.48	280.4
355.692	-6.31
355.903	28.5
356.115	-80.04
356.326	-24.75
356.538	331.6
356.749	-45.23
356.961	67.41
357.172	173.91
357.384	26.45
357.595	266.07
357.807	3.93
358.018	67.41
358.23	292.69
358.441	75.6
358.653	-4.27
358.864	206.67
359.075	69.46
359.287	-22.7
359.498	73.56
359.709	294.74
359.921	221.01
360.132	110.42
360.344	-32.94
360.555	116.56
360.766	198.48
360.977	-22.7
361.189	89.94
361.4	188.24
361.611	376.66
361.823	108.37
362.034	34.64
362.245	16.21
362.456	145.24
362.667	114.52
362.879	-67.75
363.09	298.83
363.301	251.73
363.512	30.55
363.723	-69.8
363.935	108.37
364.146	261.97
364.357	30.55
364.568	5.97
364.779	-6.31
364.99	397.14
365.201	75.6
365.412	196.43
365.623	-8.36
365.834	221.01
366.045	67.41
366.256	106.32
366.467	339.79
366.678	221.01
366.889	71.51
367.1	18.26
367.311	390.99
367.522	214.87
367.733	110.42
367.944	128.85
368.155	149.33
368.366	292.69
368.577	34.64
368.788	200.53
368.999	147.28
369.209	180.05
369.42	124.76
369.631	350.03
369.842	190.29
370.053	257.87
370.264	42.84
370.474	61.27
370.685	343.89
370.896	149.33
371.107	173.91
371.317	59.22
371.528	198.48
371.739	456.53
371.95	94.04
372.16	145.24
372.371	53.08
372.582	200.53
372.792	16.21
373.003	153.43
373.214	247.63
373.424	280.4
373.635	104.28
373.846	206.67
374.056	251.73
374.267	188.24
374.477	157.52
374.688	96.08
374.898	333.65
375.109	196.43
375.319	71.51
375.53	94.04
375.74	319.31
375.951	124.76
376.161	167.76
376.372	94.04
376.582	104.28
376.793	276.31
377.003	-37.03
377.214	-24.75
377.424	364.37
377.635	282.45
377.845	-12.46
378.055	77.65
378.266	57.17
378.476	239.44
378.686	61.27
378.897	163.67
379.107	427.85
379.317	288.59
379.528	-53.42
379.738	132.95
379.948	77.65
380.158	294.74
380.369	208.72
380.579	141.14
380.789	116.56
380.999	204.63
381.21	231.25
381.42	249.68
381.63	196.43
381.84	327.5
382.05	124.76
382.261	161.62
382.471	358.22
382.681	173.91
382.891	104.28
383.101	165.71
383.311	139.09
383.521	124.76
383.731	100.18
383.941	225.11
384.151	171.86
384.361	130.9
384.571	89.94
384.781	116.56
384.991	343.89
385.201	446.29
385.411	257.87
385.621	100.18
385.831	270.16
386.041	159.57
386.251	141.14
386.461	141.14
386.671	208.72
386.881	163.67
387.091	51.03
387.301	257.87
387.511	214.87
387.72	358.22
387.93	163.67
388.14	34.64
388.35	200.53
388.56	261.97
388.769	116.56
388.979	42.84
389.189	147.28
389.399	268.11
389.609	167.76
389.818	153.43
390.028	259.92
390.238	313.17
390.447	-12.46
390.657	91.99
390.867	272.21
391.076	122.71
391.286	85.84
391.496	130.9
391.705	212.82
391.915	458.57
392.125	94.04
392.334	122.71
392.544	452.43
392.753	245.59
392.963	26.45
393.172	114.52
393.382	137.04
393.591	462.67
393.801	40.79
394.01	79.7
394.22	280.4
394.429	261.97
394.639	151.38
394.848	167.76
395.058	309.07
395.267	198.48
395.477	112.47
395.686	145.24
395.895	550.73
396.105	378.7
396.314	83.8
396.524	143.19
396.733	173.91
396.942	388.94
397.152	155.47
397.361	198.48
397.57	202.58
397.78	161.62
397.989	180.05
398.198	427.85
398.407	210.77
398.617	255.83
398.826	175.95
399.035	46.93
399.244	327.5
399.453	339.79
399.663	147.28
399.872	-0.17
400.081	98.13
400.29	292.69
400.499	118.61
400.708	253.78
400.917	331.6
401.127	309.07
401.336	143.19
401.545	388.94
401.754	409.42
401.963	417.61
402.172	169.81
402.381	57.17
402.59	368.46
402.799	274.26
403.008	264.02
403.217	212.82
403.426	417.61
403.635	46.93
403.844	63.32
404.053	48.98
404.262	311.12
404.471	462.67
404.68	132.95
404.888	182.1
405.097	251.73
405.306	259.92
405.515	192.34
405.724	98.13
405.933	354.13
406.142	325.46
406.35	159.57
406.559	143.19
406.768	294.74
406.977	450.38
407.185	194.39
407.394	171.86
407.603	122.71
407.812	382.8
408.02	352.08
408.229	188.24
408.438	290.64
408.646	114.52
408.855	114.52
409.064	178
409.272	270.16
409.481	360.27
409.69	132.95
409.898	153.43
410.107	384.85
410.315	444.24
410.524	221.01
410.733	180.05
410.941	280.4
411.15	425.81
411.358	227.15
411.567	350.03
411.775	393.04
411.984	278.35
412.192	206.67
412.401	188.24
412.609	536.4
412.818	434
413.026	141.14
413.234	194.39
413.443	313.17
413.651	245.59
413.86	110.42
414.068	401.23
414.276	589.64
414.485	321.36
414.693	261.97
414.901	327.5
415.11	487.25
415.318	309.07
415.526	196.43
415.734	288.59
415.943	345.94
416.151	481.1
416.359	106.32
416.567	300.88
416.776	458.57
416.984	403.28
417.192	288.59
417.4	206.67
417.608	300.88
417.817	266.07
418.025	253.78
418.233	284.5
418.441	280.4
418.649	216.91
418.857	247.63
419.065	311.12
419.273	352.08
419.481	345.94
419.689	261.97
419.897	165.71
420.105	292.69
420.313	477.01
420.521	354.13
420.729	327.5
420.937	327.5
421.145	247.63
421.353	290.64
421.561	276.31
421.769	515.92
421.977	325.46
422.185	370.51
422.393	335.7
422.601	458.57
422.809	477.01
423.017	360.27
423.224	247.63
423.432	495.44
423.64	345.94
423.848	321.36
424.056	210.77
424.263	681.8
424.471	489.29
424.679	499.53
424.887	304.98
425.094	646.99
425.302	485.2
425.51	223.06
425.718	376.66
425.925	479.05
426.133	370.51
426.341	548.68
426.548	501.58
426.756	415.57
426.964	646.99
427.171	360.27
427.379	411.47
427.586	522.06
427.794	689.99
428.001	501.58
428.209	520.01
428.417	773.96
428.624	739.15
428.832	503.63
429.039	548.68
429.247	585.55
429.454	659.28
429.662	665.42
429.869	499.53
430.076	675.66
430.284	704.33
430.491	532.3
430.699	638.8
430.906	933.7
431.114	833.35
431.321	698.19
431.528	700.23
431.736	761.67
431.943	814.92
432.15	751.43
432.358	610.12
432.565	1068.87
432.772	587.6
432.979	794.44
433.187	646.99
433.394	1038.15
433.601	816.97
433.808	812.87
434.016	927.56
434.223	980.81
434.43	1042.25
434.637	767.82
434.844	929.61
435.052	1138.5
435.259	1212.23
435.466	1021.77
435.673	868.17
435.88	1294.15
436.087	1244.99
436.294	1230.66
436.501	1146.69
436.708	1335.1
436.915	1296.19
437.122	1298.24
437.329	1101.64
437.537	1302.34
437.743	1371.97
437.95	1419.07
438.157	1314.63
438.364	1476.41
438.571	1453.89
438.778	1400.64
438.985	1476.41
439.192	1548.09
439.399	1511.23
439.606	1349.44
439.813	1611.58
440.02	1879.86
440.227	1982.26
440.433	1646.4
440.64	1646.4
440.847	1722.17
441.054	1904.44
441.261	1687.36
441.467	1736.51
441.674	1898.3
441.881	2150.2
442.088	1974.07
442.294	2049.85
442.501	2219.83
442.708	2379.57
442.914	2170.68
443.121	2260.79
443.328	2408.24
443.534	2565.93
443.741	2203.44
443.948	2205.49
444.154	2639.66
444.361	2694.96
444.568	2512.69
444.774	2596.65
444.981	2637.61
445.187	2946.86
445.394	2787.11
445.6	2879.27
445.807	3131.17
446.013	3137.32
446.22	2836.27
446.426	3247.91
446.633	3483.42
446.839	3868.44
447.046	3256.1
447.252	3690.27
447.459	3686.17
447.665	3753.76
447.871	3766.04
448.078	4366.1
448.284	3999.51
448.491	4405.01
448.697	4390.67
448.903	4517.65
449.11	4607.76
449.316	4495.12
449.522	4841.23
449.728	4982.54
449.935	5365.51
450.141	5146.37
450.347	5412.61
450.553	5177.09
450.76	5488.39
450.966	5750.53
451.172	5818.11
451.378	6022.91
451.584	6059.77
451.791	6457.07
451.997	6409.97
452.203	6541.04
452.409	7028.46
452.615	6901.48
452.821	6684.4
453.027	6766.32
453.233	7601.89
453.44	7177.96
453.646	7280.36
453.852	7505.63
454.058	7849.69
454.264	7896.8
454.47	8105.69
454.676	8191.7
454.882	8580.82
455.088	8019.67
455.294	8470.23
455.5	8885.97
455.705	8965.84
455.911	8818.38
456.117	8855.25
456.323	8693.46
456.529	8670.93
456.735	9184.97
456.941	8832.72
457.147	8931.02
457.352	9244.36
457.558	9127.63
457.764	9285.32
457.97	9168.59
458.176	9449.16
458.381	9412.29
458.587	9113.29
458.793	9461.44
458.999	8746.7
459.204	9725.63
459.41	9248.46
459.616	9070.28
459.821	9404.1
460.027	9287.37
460.233	9111.24
460.438	8869.58
460.644	9240.26
460.85	8777.42
461.055	8990.41
461.261	8941.26
461.466	8165.08
461.672	8183.51
461.878	8490.71
462.083	8101.59
462.289	7769.82
462.494	7874.27
462.7	7681.76
462.905	7456.48
463.111	8070.87
463.316	8206.04
463.522	7874.27
463.727	7671.52
463.932	7769.82
464.138	7636.7
464.343	7763.68
464.549	7614.18
464.754	7999.2
464.959	7937.76
465.165	7538.4
465.37	7333.61
465.575	7253.73
465.781	7446.24
465.986	7378.66
466.191	7292.65
466.397	7089.9
466.602	6946.54
466.807	7163.62
467.012	7126.76
467.218	7347.94
467.423	7266.02
467.628	7065.32
467.833	7274.21
468.038	7362.28
468.244	6981.35
468.449	7294.69
468.654	7208.68
468.859	7190.25
469.064	7259.88
469.269	6848.24
469.474	7020.27
469.679	7433.96
469.885	7239.4
470.09	7096.04
470.295	6934.25
470.5	7120.62
470.705	7431.91
470.91	7286.5
471.115	7077.61
471.32	7212.78
471.525	7450.34
471.73	7063.27
471.935	7163.62
472.139	7177.96
472.344	7137
472.549	7161.58
472.754	7472.87
472.959	7268.07
473.164	7128.81
473.369	7243.49
473.574	7540.45
473.778	7466.72
473.983	7677.66
474.188	7546.59
474.393	7085.8
474.598	7388.9
474.802	7376.61
475.007	7188.2
475.212	7462.63
475.417	7304.93
475.621	7464.68
475.826	7474.92
476.031	7263.97
476.235	7386.85
476.44	7444.2
476.645	7323.37
476.849	7378.66
477.054	7384.8
477.259	7296.74
477.463	7405.28
477.668	7491.3
477.872	7913.18
478.077	7436
478.282	7087.85
478.486	7233.25
478.691	7284.45
478.895	7249.64
479.1	7493.35
479.304	7472.87
479.509	7335.65
479.713	7714.53
479.918	7161.58
480.122	7194.34
480.326	7438.05
480.531	7659.23
480.735	7380.71
480.94	7157.48
481.144	7730.91
481.348	7505.63
481.553	7327.46
481.757	7259.88
481.961	7589.6
482.166	7638.75
482.37	7440.1
482.574	7274.21
482.778	7468.77
482.983	7735.01
483.187	7554.79
483.391	7769.82
483.595	7677.66
483.8	7671.52
484.004	7761.63
484.208	7741.15
484.412	8007.39
484.616	7952.09
484.821	7763.68
485.025	7904.99
485.229	7843.55
485.433	8066.78
485.637	7780.06
485.841	7847.65
486.045	8257.24
486.249	8261.34
486.453	8140.51
486.657	7954.14
486.861	8148.7
487.065	8322.77
487.269	8290.01
487.473	7937.76
487.677	8638.16
487.881	8855.25
488.085	8455.89
488.289	8521.43
488.493	8509.14
488.697	9078.47
488.901	8783.57
489.105	8822.48
489.309	9031.37
489.512	9375.43
489.716	8910.54
489.92	8900.3
490.124	9070.28
490.328	9496.26
490.531	9258.7
490.735	9348.81
490.939	9377.48
491.143	9428.68
491.346	9328.33
491.55	9574.08
491.754	9797.31
491.958	9715.39
492.161	9625.28
492.365	9651.91
492.569	9778.88
492.772	10057.4
492.976	10004.16
493.18	10006.2
493.383	10428.09
493.587	10389.17
493.79	10505.91
493.994	10096.32
494.197	10561.2
494.401	10722.99
494.605	10579.64
494.808	10596.02
495.012	10596.02
495.215	10892.98
495.419	10862.26
495.622	10802.86
495.825	11101.87
496.029	11030.19
496.232	11183.79
496.436	11101.87
496.639	11708.07
496.843	11466.41
497.046	11529.89
497.249	11642.53
497.453	11957.92
497.656	11861.66
497.859	11810.47
498.063	11912.86
498.266	12390.04
498.469	11990.69
498.673	12367.51
498.876	12353.18
499.079	12375.7
499.282	12408.47
499.485	12844.69
499.689	12975.76
499.892	13246.09
500.095	12940.94
500.298	13325.96
500.501	13311.63
500.705	13575.81
500.908	13811.33
501.111	13616.77
501.314	13743.75
501.517	14143.1
501.72	14157.44
501.923	13971.07
502.126	14349.95
502.329	14691.96
502.532	14675.57
502.735	14456.44
502.938	15220.33
503.141	14976.62
503.344	14845.55
503.547	14917.23
503.75	15036.02
503.953	15496.81
504.156	15758.95
504.359	15728.23
504.562	15457.9
504.765	16094.82
504.968	16311.9
505.17	16336.48
505.373	16322.14
505.576	16752.21
505.779	16827.99
505.982	16346.72
506.185	17086.03
506.387	16973.39
506.59	17528.39
506.793	17784.39
506.996	17585.74
507.198	18165.31
507.401	17872.45
507.604	17702.47
507.807	18517.56
508.009	18505.27
508.212	18697.78
508.415	18812.47
508.617	18976.31
508.82	19199.54
509.022	19174.96
509.225	19494.44
509.428	19588.65
509.63	19689
509.833	19869.22
510.035	20117.03
510.238	19930.66
510.44	20473.37
510.643	20727.32
510.845	20934.17
511.048	20729.37
511.25	21194.26
511.453	21204.5
511.655	21679.63
511.858	21659.15
512.06	22093.32
512.262	21724.68
512.465	21650.95
512.667	22171.14
512.87	22662.65
513.072	22783.48
513.274	22867.45
513.477	22978.04
513.679	23496.17
513.881	23592.43
514.084	23703.02
514.286	23465.46
514.488	24116.71
514.69	24554.97
514.893	24589.79
515.095	24495.58
515.297	24847.83
515.499	25171.41
515.701	25288.15
515.904	25478.61
516.106	25918.92
516.308	25857.48
516.51	26201.54
516.712	26258.88
516.914	26609.09
517.116	26832.32
517.318	26551.74
517.52	26875.32
517.722	27155.89
517.925	27141.56
518.127	27803.05
518.329	28155.3
518.531	27735.47
518.733	28618.14
518.935	28265.89
519.136	28745.12
519.338	29023.64
519.54	28954.01
519.742	29531.54
519.944	29709.71
520.146	29750.67
520.348	29943.18
520.55	30297.48
520.752	30016.91
520.954	30545.28
521.155	30514.56
521.357	30758.27
521.559	31112.57
521.761	31372.66
521.963	31157.63
522.164	31817.07
522.366	31853.94
522.568	32148.84
522.77	32296.3
522.971	32669.03
523.173	32320.87
523.375	32456.04
523.576	32580.96
523.778	32587.11
523.98	33273.18
524.181	33197.4
524.383	33396.06
524.584	33817.94
524.786	33627.48
524.988	33813.84
525.189	34112.84
525.391	34368.84
525.592	34205
525.794	34180.43
525.995	34667.84
526.197	34657.6
526.398	34559.3
526.6	34962.75
526.801	35118.4
527.003	34901.31
527.204	35298.62
527.406	35421.5
527.607	35568.95
527.808	35679.54
528.01	35409.21
528.211	35734.84
528.412	36044.08
528.614	35822.9
528.815	35788.08
529.016	36644.13
529.218	35853.62
529.419	35937.58
529.62	36181.29
529.822	36189.49
530.023	36291.88
530.224	36123.95
530.425	36478.25
530.626	36334.89
530.828	36306.22
531.029	36840.74
531.23	36285.74
531.431	36338.99
531.632	36713.77
531.833	36377.9
532.035	36451.63
532.236	36664.61
532.437	36887.84
532.638	36298.03
532.839	36869.41
533.04	37293.34
533.241	36918.56
533.442	37684.5
533.643	36889.89
533.844	36959.52
534.045	36873.51
534.246	36687.14
534.447	36904.23
534.648	36850.98
534.849	37354.78
535.05	36635.94
535.251	37025.06
535.451	37100.83
535.652	37135.65
535.853	36932.9
536.054	37229.85
536.255	37287.2
536.456	37334.3
536.657	37268.76
536.857	37018.91
537.058	36902.18
537.259	37430.55
537.46	37477.66
537.66	36906.27
537.861	37215.52
538.062	37164.32
538.263	36951.33
538.463	37121.31
538.664	37160.22
538.865	36928.8
539.065	37289.24
539.266	36676.9
539.466	37395.74
539.667	37244.19
539.868	37676.31
540.068	37156.13
540.269	37526.81
540.469	37502.23
540.67	36801.83
540.87	37377.31
541.071	37420.31
541.271	37299.48
541.472	37018.91
541.672	37143.84
541.873	37149.98
542.073	36924.71
542.274	37651.73
542.474	37352.73
542.675	37473.56
542.875	37629.21
543.075	37516.57
543.276	37264.67
543.476	37995.79
543.676	37641.49
543.877	37821.72
544.077	37561.62
544.277	37602.58
544.478	37360.92
544.678	37524.76
544.878	37514.52
545.078	37500.19
545.279	37362.97
545.479	37367.07
545.679	37541.14
545.879	37635.35
546.079	37881.11
546.28	37236
546.48	37408.03
546.68	38214.93
546.88	37735.7
547.08	37641.49
547.28	37604.63
547.48	37297.44
547.68	37688.6
547.88	37487.9
548.081	38034.7
548.281	37516.57
548.481	37625.11
548.681	37889.3
548.881	37756.18
549.081	38137.1
549.28	37551.38
549.48	37954.83
549.68	37784.85
549.88	38452.49
550.08	38010.13
550.28	38182.16
550.48	38075.66
550.68	38169.87
550.88	38126.86
551.08	37946.64
551.279	38087.95
551.479	37633.3
551.679	37981.46
551.879	38090
552.079	37969.17
552.278	37993.75
552.478	38280.46
552.678	37756.18
552.878	38294.8
553.077	37829.91
553.277	38032.66
553.477	38403.34
553.676	38380.81
553.876	38231.31
554.076	38110.48
554.275	38190.35
554.475	37782.8
554.674	38405.39
554.874	38337.8
555.074	37960.98
555.273	38352.14
555.473	38395.15
555.672	38077.71
555.872	37653.78
556.071	38145.3
556.271	38432.01
556.47	37819.67
556.67	37588.25
556.869	37973.27
557.068	37991.7
557.268	37901.59
557.467	38104.34
557.667	37713.17
557.866	37805.33
558.065	37977.36
558.265	37760.28
558.464	37559.58
558.663	37780.76
558.863	37674.26
559.062	38188.3
559.261	37485.85
559.461	38337.8
559.66	37412.12
559.859	37805.33
560.058	37616.92
560.258	37805.33
560.457	37643.54
560.656	37831.96
560.855	37397.79
561.054	38100.24
561.253	37414.17
561.453	37350.68
561.652	37391.64
561.851	37264.67
562.05	37686.55
562.249	37076.26
562.448	37496.09
562.647	36832.55
562.846	37197.09
563.045	37356.83
563.244	36881.7
563.443	37696.79
563.642	36965.67
563.841	37276.96
564.04	36826.4
564.239	37563.67
564.438	36850.98
564.637	36889.89
564.836	37186.85
565.035	36855.07
565.234	36865.31
565.432	36795.68
565.631	36244.78
565.83	37100.83
566.029	36601.13
566.228	36500.78
566.427	36635.94
566.625	36351.27
566.824	35943.73
567.023	36566.31
567.222	35921.2
567.42	36502.82
567.619	36113.71
567.818	36130.09
568.016	36148.53
568.215	36255.02
568.414	36316.46
568.612	36302.12
568.811	35980.59
569.01	35769.65
569.208	35497.27
569.407	35611.96
569.605	35153.21
569.804	35843.38
570.002	35380.54
570.201	35226.94
570.4	35073.34
570.598	35452.22
570.797	35024.19
570.995	34972.99
571.193	34635.08
571.392	35290.43
571.59	34831.68
571.789	34827.59
571.987	34581.83
572.186	34827.59
572.384	34929.98
572.582	34848.07
572.781	34889.02
572.979	34069.84
573.177	34542.92
573.376	34657.6
573.574	34065.74
573.772	34434.38
573.971	34110.8
574.169	33494.36
574.367	33936.72
574.565	34186.57
574.763	34137.42
574.962	33768.79
575.16	33457.49
575.358	33944.91
575.556	33455.45
575.754	33852.75
575.952	33238.36
576.151	33744.21
576.349	33363.29
576.547	32990.56
576.745	33285.47
576.943	33545.56
577.141	33099.1
577.339	33195.35
577.537	33346.9
577.735	33387.86
577.933	32922.97
578.131	33047.9
578.329	33035.61
578.527	33015.13
578.725	32892.26
578.923	32505.19
579.121	32529.76
579.319	32431.46
579.516	32965.98
579.714	32652.64
579.912	32558.44
580.11	32218.47
580.308	32494.95
580.506	32214.38
580.704	31849.84
580.901	31972.72
581.099	33008.99
581.297	31866.22
581.495	31980.91
581.692	31923.57
581.89	31853.94
582.088	32218.47
582.285	31767.92
582.483	32097.64
582.681	32314.73
582.878	31833.46
583.076	31403.38
583.274	32030.06
583.471	31884.65
583.669	31679.86
583.866	31628.66
584.064	31825.26
584.262	31294.84
584.459	31888.75
584.657	31206.78
584.854	31972.72
585.052	31067.52
585.249	31366.52
585.447	31174.01
585.644	30965.12
585.841	31321.46
586.039	31384.95
586.236	31251.83
586.434	31284.6
586.631	30942.59
586.828	30784.9
587.026	30907.77
587.223	31184.25
587.42	30977.4
587.618	30829.95
587.815	30547.33
588.012	31053.18
588.21	30897.53
588.407	30891.39
588.604	30741.89
588.801	30727.55
588.999	30633.35
589.196	30649.73
589.393	30588.29
589.59	30688.64
589.787	30541.19
589.984	30225.8
590.182	30152.07
590.379	30516.61
590.576	30524.8
590.773	30383.49
590.97	30373.25
591.167	30553.48
591.364	30252.42
591.561	30545.28
591.758	30295.43
591.955	30459.27
592.152	30518.66
592.349	30309.77
592.546	30293.38
592.743	30623.11
592.94	29959.56
593.137	30463.36
593.334	30412.17
593.531	30285.19
593.727	30219.66
593.924	30391.69
594.121	30104.97
594.318	30623.11
594.515	30147.98
594.712	30113.16
594.908	30064.01
595.105	30033.29
595.302	30035.34
595.499	29795.73
595.696	30135.69
595.892	29865.36
596.089	30043.53
596.286	30164.36
596.482	29801.87
596.679	30180.74
596.876	29918.6
597.072	29777.29
597.269	30158.22
597.466	29758.86
597.662	29967.76
597.859	29488.53
598.055	29949.32
598.252	29734.29
598.448	29998.48
598.645	29828.49
598.841	29459.86
599.038	29832.59
599.234	30346.63
599.431	29511.06
599.627	29560.21
599.824	30057.87
600.02	29580.69
600.217	30043.53
600.413	29797.77
600.609	29865.36
600.806	29967.76
601.002	29920.65
601.198	29500.82
601.395	29816.21
601.591	29980.04
601.787	29840.78
601.984	29502.87
602.18	30199.18
602.376	29707.66
602.572	29662.61
602.769	29773.2
602.965	29529.49
603.161	29715.86
603.357	29844.88
603.553	29810.06
603.75	29928.84
603.946	29904.27
604.142	29865.36
604.338	29388.18
604.534	29576.59
604.73	29414.8
604.926	29615.51
605.122	29867.41
605.318	29676.94
605.514	29672.85
605.71	29353.37
605.906	29648.27
606.102	29584.79
606.298	29859.21
606.494	29791.63
606.69	29842.83
606.886	29613.46
607.082	29543.83
607.278	29375.89
607.474	29566.35
607.67	29885.84
607.866	29156.76
608.062	29871.5
608.257	29617.55
608.453	29480.34
608.649	29932.94
608.845	29105.56
609.041	29228.44
609.236	29742.48
609.432	29781.39
609.628	29504.92
609.824	29476.24
610.019	29588.88
610.215	29973.9
610.411	29607.31
610.606	29570.45
610.802	29760.91
610.998	29664.66
611.193	29644.18
611.389	29320.6
611.584	29785.49
611.78	29285.78
611.976	29978
612.171	29773.2
612.367	29443.48
612.562	29777.29
612.758	29744.53
612.953	29242.78
613.149	30295.43
613.344	29275.54
613.539	29941.13
613.735	29771.15
613.93	29672.85
614.126	29568.4
614.321	30012.81
614.517	29818.25
614.712	29941.13
614.907	30066.06
615.103	30059.91
615.298	29588.88
615.493	30168.46
615.688	29330.84
615.884	30545.28
616.079	29558.16
616.274	30174.6
616.47	29582.74
616.665	29240.73
616.86	29769.1
617.055	29898.13
617.25	29590.93
617.445	29734.29
617.641	29347.22
617.836	30211.46
618.031	29713.81
618.226	30213.51
618.421	29728.14
618.616	30002.57
618.811	29371.8
619.006	29975.95
619.201	29234.58
619.396	29822.35
619.591	29414.8
619.786	29601.17
619.981	29052.31
620.176	29408.66
620.371	28974.49
620.566	29218.2
620.761	29308.31
620.956	29324.69
621.151	29029.79
621.346	29289.88
621.541	28364.2
621.735	29474.2
621.93	28667.3
622.125	28814.75
622.32	28329.38
622.515	28505.51
622.709	28814.75
622.904	28337.57
623.099	28491.17
623.294	28726.69
623.488	28169.64
623.683	28374.44
623.878	27749.81
624.072	28284.33
624.267	28151.21
624.462	27880.88
624.656	27631.02
624.851	28048.81
625.046	27592.11
625.24	27782.57
625.435	27559.34
625.629	27637.17
625.824	27555.25
626.018	27530.67
626.213	26965.43
626.407	27573.68
626.602	26879.42
626.796	26992.06
626.991	27196.85
627.185	26813.88
627.38	27010.49
627.574	26985.91
627.768	26625.47
627.963	26645.95
628.157	26447.3
628.352	26414.53
628.546	25953.74
628.74	26660.29
628.935	26303.94
629.129	26355.14
629.323	26070.47
629.517	26179.01
629.712	25941.45
629.906	26103.24
630.1	25800.14
630.294	26054.09
630.489	25611.73
630.683	26174.92
630.877	25296.34
631.071	25992.65
631.265	25740.75
631.459	25091.54
631.653	25470.42
631.848	25464.27
632.042	25357.78
632.236	25380.31
632.43	25093.59
632.624	25253.33
632.818	24929.75
633.012	24686.04
633.206	24597.98
633.4	24987.1
633.594	24694.24
633.788	24462.82
633.982	24546.78
634.176	24839.64
634.369	24131.05
634.563	24268.26
634.757	24012.26
634.951	24190.44
635.145	24399.33
635.339	24053.22
635.533	23842.28
635.726	23836.14
635.92	23619.05
636.114	23576.05
636.308	23539.18
636.501	23404.02
636.695	23336.43
636.889	22902.26
637.083	22793.72
637.276	22926.84
637.47	22533.63
637.664	22265.35
637.857	22435.33
638.051	22615.55
638.244	22433.28
638.438	22246.91
638.632	22380.03
638.825	21806.6
639.019	22162.95
639.212	21622.28
639.406	21497.36
639.599	21104.15
639.793	21589.52
639.986	20862.49
640.18	21134.87
640.373	21005.84
640.567	20817.43
640.76	20780.57
640.954	20692.51
641.147	20688.41
641.34	20311.58
641.534	20168.23
641.727	20106.79
641.92	20321.82
642.114	19873.32
642.307	19897.89
642.5	19633.71
642.694	19103.28
642.887	19240.5
643.08	19230.26
643.273	18955.83
643.467	18943.54
643.66	18474.56
643.853	18433.6
644.046	18562.62
644.239	18376.25
644.432	18091.59
644.626	18048.58
644.819	17944.13
645.012	17950.28
645.205	18097.73
645.398	17495.63
645.591	17411.66
645.784	17380.94
645.977	16967.25
646.17	17305.17
646.363	16889.43
646.556	16645.72
646.749	16635.48
646.942	16862.8
647.135	16631.38
647.328	16270.94
647.521	16498.27
647.714	16082.53
647.907	16098.91
648.099	16014.94
648.292	15930.98
648.485	15992.42
648.678	15386.22
648.871	15720.04
649.064	15396.46
649.256	15496.81
649.449	15132.27
649.642	14892.66
649.835	14921.33
650.027	14847.6
650.22	14835.31
650.413	14966.38
650.605	14843.51
650.798	14886.51
650.991	14591.61
651.183	14622.33
651.376	14392.95
651.568	14282.36
651.761	14440.06
651.954	14384.76
652.146	13971.07
652.339	14184.06
652.531	13958.78
652.724	13907.59
652.916	13651.59
653.109	13678.21
653.301	13682.31
653.494	13946.5
653.686	13733.51
653.879	13575.81
654.071	13264.52
654.263	13364.87
654.456	13313.67
654.648	13155.98
654.84	12979.86
655.033	13088.4
655.225	13184.65
655.417	12914.32
655.61	13180.56
655.802	13215.37
655.994	12951.18
656.186	12699.28
656.379	12670.61
656.571	12637.84
656.763	12596.89
656.955	12211.87
657.148	12328.6
657.34	12443.29
657.532	12291.74
657.724	12072.61
657.916	12097.18
658.108	12265.11
658.3	12183.2
658.492	12177.05
658.684	11488.93
658.876	11959.97
659.068	11472.55
659.26	11423.4
659.452	11341.48
659.644	11601.57
659.836	11654.82
660.028	11208.36
660.22	10983.09
660.412	11112.11
660.604	11261.61
660.796	10833.58
660.988	10733.23
661.18	10827.44
661.372	10739.38
661.563	10596.02
661.755	10272.44
661.947	10471.09
662.139	10364.6
662.331	10235.58
662.522	9821.89
662.714	9864.89
662.906	9801.41
663.097	9805.5
663.289	9553.6
663.481	9578.18
663.673	9780.93
663.864	9395.91
664.056	9400.01
664.247	9352.9
664.439	9553.6
664.631	9166.54
664.822	9135.82
665.014	9080.52
665.205	8806.09
665.397	8898.25
665.588	8697.55
665.78	8711.89
665.971	8928.97
666.163	8421.08
666.354	8126.17
666.546	8363.73
666.737	8283.86
666.929	8263.38
667.12	8197.85
667.311	8171.22
667.503	8210.14
667.694	8003.29
667.885	7759.58
668.077	8072.92
668.268	7585.51
668.459	7665.38
668.651	7638.75
668.842	7626.46
669.033	7513.83
669.224	7253.73
669.416	7685.86
669.607	7536.35
669.798	7263.97
669.989	7253.73
670.18	7120.62
670.371	7333.61
670.563	6948.59
670.754	7233.25
670.945	6885.1
671.136	7089.9
671.327	6971.11
671.518	6897.39
671.709	6764.27
671.9	7057.13
672.091	6999.79
672.282	6653.68
672.473	6516.47
672.664	6633.2
672.855	6508.27
673.046	6631.15
673.237	6618.86
673.428	6579.95
673.619	6911.72
673.809	6393.59
674	6389.49
674.191	6412.02
674.382	6438.64
674.573	6455.03
674.764	6233.85
674.954	6606.58
675.145	6182.65
675.336	5969.66
675.527	6184.69
675.717	6201.08
675.908	6227.7
676.099	6121.21
676.289	6113.02
676.48	6110.97
676.671	6170.36
676.861	6153.98
677.052	6076.15
677.243	6172.41
677.433	6135.54
677.624	5953.27
677.814	6121.21
678.005	6094.58
678.195	6405.88
678.386	5826.3
678.576	5900.03
678.767	5936.89
678.957	6239.99
679.148	6219.51
679.338	6076.15
679.529	6276.85
679.719	6088.44
679.909	6135.54
680.1	5873.4
680.29	6151.93
680.481	6031.1
680.671	6110.97
680.861	5949.18
681.052	6170.36
681.242	6076.15
681.432	6369.01
681.622	6004.47
681.813	6137.59
682.003	6258.42
682.193	6031.1
682.383	6434.55
682.573	6430.45
682.764	6319.86
682.954	6293.24
683.144	6446.83
683.334	6481.65
683.524	6401.78
683.714	6616.82
683.904	6426.36
684.094	6719.21
684.284	6768.37
684.474	6690.54
684.664	6676.21
684.854	7151.34
685.044	6809.33
685.234	6846.19
685.424	6799.09
685.614	6878.96
685.804	7200.49
685.994	7069.42
686.184	7341.8
686.374	7278.31
686.564	7241.45
686.753	7239.4
686.943	7061.23
687.133	7452.39
687.323	7483.11
687.513	7501.54
687.702	7544.55
687.892	7640.8
688.082	7784.16
688.272	7806.69
688.461	7751.39
688.651	8134.36
688.841	8095.45
689.03	7929.56
689.22	8169.18
689.41	8617.68
689.599	8185.56
689.789	8320.73
689.979	8183.51
690.168	8455.89
690.358	8466.13
690.547	8275.67
690.737	8662.74
690.926	8808.14
691.116	8537.81
691.305	8883.92
691.495	8810.19
691.684	8605.39
691.874	8863.44
692.063	9078.47
692.252	8828.62
692.442	9463.49
692.631	9178.83
692.82	9074.38
693.01	9207.5
693.199	9545.41
693.388	9387.72
693.578	9375.43
693.767	9449.16
693.956	9709.25
694.146	9404.1
694.335	9666.24
694.524	9533.12
694.713	10004.16
694.902	9715.39
695.092	9608.9
695.281	9719.49
695.47	9680.58
695.659	9846.46
695.848	9580.23
696.037	9891.52
696.226	10041.02
696.415	9969.34
696.604	10182.33
696.793	10002.11
696.982	10241.72
697.171	10268.34
697.36	10026.68
697.549	9936.57
697.738	9889.47
697.927	10038.97
698.116	10092.22
698.305	9965.25
698.494	10170.04
698.683	10294.97
698.872	10239.67
699.061	10192.57
699.25	10241.72
699.438	10292.92
699.627	10020.54
699.816	10497.72
700.005	9961.15
700.193	10086.08
700.382	10237.63
700.571	10071.74
700.76	10454.71
700.948	10520.24
701.137	9846.46
701.326	10018.49
701.514	10100.41
701.703	10342.07
701.892	9965.25
702.08	10395.32
702.269	10225.34
702.457	10092.22
702.646	10231.48
702.834	9998.01
703.023	10239.67
703.212	10231.48
703.4	10034.88
703.589	10182.33
703.777	10219.19
703.965	9998.01
704.154	9840.32
704.342	9901.76
704.531	10264.25
704.719	10030.78
704.907	10090.17
705.096	9651.91
705.284	10092.22
705.472	10049.21
705.661	9938.62
705.849	10065.6
706.037	10288.82
706.226	9834.18
706.414	9782.98
706.602	9526.98
706.79	10055.36
706.979	9744.06
707.167	9557.7
707.355	9721.54
707.543	9944.77
707.731	9934.53
707.919	9594.56
708.107	9397.96
708.296	9707.2
708.484	9594.56
708.672	9565.89
708.86	9449.16
709.048	9535.17
709.236	9524.93
709.424	9443.01
709.612	9545.41
709.8	9150.15
709.988	9217.74
710.176	9277.13
710.364	9213.64
710.551	9432.77
710.739	9432.77
710.927	8980.17
711.115	8920.78
711.303	9330.37
711.491	9357
711.679	8865.49
711.866	9119.43
712.054	9119.43
712.242	9051.85
712.43	9109.19
712.617	8632.02
712.805	9004.75
712.993	8926.93
713.181	8666.83
713.368	8638.16
713.556	8879.82
713.744	8576.72
713.931	8748.75
714.119	8668.88
714.306	8890.06
714.494	8509.14
714.682	8576.72
714.869	8156.89
715.057	8644.31
715.244	8300.25
715.432	8492.76
715.619	8318.68
715.807	8414.93
715.994	8423.12
716.182	8349.4
716.369	8285.91
716.556	8212.18
716.744	8046.3
716.931	8013.53
717.119	8019.67
717.306	8210.14
717.493	8169.18
717.681	7839.45
717.868	7743.2
718.055	8122.07
718.242	7821.02
718.43	7937.76
718.617	7644.9
718.804	7640.8
718.991	7872.22
719.179	7544.55
719.366	7577.31
719.553	7739.1
719.74	7573.22
719.927	7438.05
720.114	7468.77
720.301	7370.47
720.488	7188.2
720.676	7143.14
720.863	7376.61
721.05	7642.85
721.237	7493.35
721.424	7376.61
721.611	7083.75
721.798	7118.57
721.985	7020.27
722.172	7007.98
722.358	6958.83
722.545	7417.57
722.732	7038.7
722.919	7071.47
723.106	6936.3
723.293	6852.33
723.48	7003.88
723.667	6909.68
723.853	6733.55
724.04	7038.7
724.227	6848.24
724.414	6684.4
724.6	6543.09
724.787	6792.94
724.974	6938.35
725.161	6770.41
725.347	6313.72
725.534	6661.87
725.72	6694.64
725.907	6573.81
726.094	6489.84
726.28	6209.27
726.467	6422.26
726.653	6125.3
726.84	6561.52
727.027	6641.39
727.213	6303.48
727.4	6276.85
727.586	6129.4
727.773	6283
727.959	6182.65
728.145	6239.99
728.332	5900.03
728.518	5996.28
728.705	6217.46
728.891	5803.77
729.077	6016.76
729.264	6000.38
729.45	5891.84
729.636	6016.76
729.823	5865.21
730.009	6110.97
730.195	5828.35
730.382	5775.1
730.568	5664.51
730.754	5940.99
730.94	5801.72
731.126	5734.14
731.313	5771.01
731.499	5703.42
731.685	5850.88
731.871	5730.05
732.057	5699.33
732.243	5820.16
732.429	5629.7
732.615	5623.55
732.801	5594.88
732.987	5648.13
733.173	5539.58
733.359	5349.12
733.545	5420.8
733.731	5388.04
733.917	5562.11
734.103	5494.53
734.289	5515.01
734.475	5324.55
734.661	5588.74
734.847	5234.44
735.033	5318.4
735.219	5377.8
735.404	5349.12
735.59	5101.32
735.776	5211.91
735.962	5203.72
736.148	5490.43
736.333	5013.26
736.519	5017.35
736.705	5138.18
736.89	5068.55
737.076	4980.49
737.262	4857.61
737.447	4910.86
737.633	4775.69
737.819	5037.83
738.004	4654.86
738.19	5056.26
738.375	4994.83
738.561	4923.15
738.747	4732.69
738.932	4824.84
739.118	5099.27
739.303	4814.6
739.489	4818.7
739.674	4761.36
739.859	4589.33
740.045	4681.49
740.23	4658.96
740.416	4384.53
740.601	4624.14
740.786	4466.45
740.972	4448.02
741.157	4626.19
741.342	4253.46
741.528	4370.19
741.713	4421.39
741.898	4314.9
742.084	4300.56
742.269	4286.23
742.454	4259.6
742.639	4415.25
742.824	4388.63
743.01	4194.07
743.195	4349.71
743.38	4208.41
743.565	4349.71
743.75	4108.05
743.935	4282.13
744.12	4331.28
744.305	3968.79
744.49	4040.47
744.675	4001.56
744.86	4140.82
745.045	4284.18
745.23	3997.46
745.415	3927.83
745.6	4181.78
745.785	3907.35
745.97	3981.08
746.155	3876.63
746.34	4058.9
746.525	3886.87
746.71	3888.92
746.895	3704.6
747.079	3641.12
747.264	3837.72
747.449	3708.7
747.634	3774.24
747.819	3868.44
748.003	3663.65
748.188	3497.76
748.373	3657.5
748.557	3716.89
748.742	3622.69
748.927	3612.45
749.111	3514.14
749.296	3563.29
749.481	3612.45
749.665	3399.46
749.85	3405.6
750.034	3440.42
750.219	3499.81
750.404	3299.11
750.588	3340.07
750.773	3342.11
750.957	3383.07
751.141	3276.58
751.326	3209
751.51	3067.69
751.695	3227.43
751.879	3168.04
752.064	3378.98
752.248	3256.1
752.432	3368.74
752.617	3088.17
752.801	3145.51
752.985	3157.8
753.17	3163.94
753.354	2946.86
753.538	2916.14
753.722	2869.03
753.907	2950.95
754.091	2950.95
754.275	2805.55
754.459	2830.12
754.643	2897.71
754.828	2883.37
755.012	2866.99
755.196	2647.85
755.38	2879.27
755.564	2717.48
755.748	2703.15
755.932	2975.53
756.116	2877.23
756.3	2686.76
756.484	2826.03
756.668	2844.46
756.852	2582.32
757.036	2549.55
757.22	2434.86
757.404	2617.13
757.588	2709.29
757.772	2676.52
757.956	2572.08
758.14	2746.16
758.323	2553.65
758.507	2477.87
758.691	2469.68
758.875	2649.9
759.059	2633.52
759.242	2230.07
759.426	2406.19
759.61	2406.19
759.794	2244.4
759.977	2363.19
760.161	2580.27
760.345	2455.34
760.528	2350.9
760.712	2031.41
760.895	2131.76
761.079	2197.3
761.263	1976.12
761.446	2074.42
761.63	1955.64
761.813	2066.23
761.997	2015.03
762.18	1984.31
762.364	1969.98
762.547	1941.3
762.731	1988.41
762.914	1986.36
763.098	1883.96
763.281	1900.34
763.464	1838.91
763.648	1830.71
763.831	1982.26
764.015	2015.03
764.198	2137.91
764.381	1845.05
764.564	1830.71
764.748	2023.22
764.931	2060.09
765.114	1830.71
765.297	1894.2
765.481	1877.82
765.664	1929.02
765.847	1756.99
766.03	1892.15
766.213	1947.45
766.397	1982.26
766.58	1789.75
766.763	2004.79
766.946	2070.33
767.129	1920.82
767.312	1890.1
767.495	2090.81
767.678	1990.45
767.861	2156.34
768.044	1959.74
768.227	2008.89
768.41	2064.18
768.593	2015.03
768.776	2150.2
768.959	1904.44
769.142	2238.26
769.324	2015.03
769.507	1912.63
769.69	1963.83
769.873	2039.61
770.056	2373.43
770.239	2012.98
770.421	2150.2
770.604	2113.33
770.787	2008.89
770.97	2076.47
771.152	1941.3
771.335	2123.57
771.518	1838.91
771.7	1902.39
771.883	2045.75
772.066	1793.85
772.248	2088.76
772.431	2068.28
772.613	1890.1
772.796	2002.74
772.978	2080.57
773.161	1955.64
773.343	1644.35
773.526	1836.86
773.708	1787.71
773.891	1619.77
774.073	1789.75
774.256	1789.75
774.438	2066.23
774.621	1761.08
774.803	1730.36
774.985	1824.57
775.168	2017.08
775.35	1703.74
775.532	1718.08
775.715	1705.79
775.897	1929.02
776.079	1601.34
776.261	1818.43
776.444	1980.22
776.626	1677.12
776.808	1625.92
776.99	1419.07
777.173	1707.84
777.355	1640.25
777.537	1589.05
777.719	1615.68
777.901	1689.4
778.083	1533.76
778.265	1447.74
778.447	1609.53
778.629	1466.17
778.811	1519.42
778.993	1677.12
779.175	1609.53
779.357	1515.33
779.539	1482.56
779.721	1584.96
779.903	1531.71
780.085	1587.01
780.267	1642.3
780.449	1343.3
780.631	1591.1
780.812	1675.07
780.994	1412.93
781.176	1386.3
781.358	1355.58
781.54	1556.29
781.721	1548.09
781.903	1324.87
782.085	1449.79
782.267	1572.67
782.448	1273.67
782.63	1369.92
782.812	1331.01
782.993	1535.81
783.175	1578.81
783.357	1165.12
783.538	1455.94
783.72	1374.02
783.901	1466.17
784.083	1378.11
784.264	1328.96
784.446	1165.12
784.627	1228.61
784.809	1384.26
784.99	1118.02
785.172	1345.34
785.353	1314.63
785.535	1148.74
785.716	1077.06
785.897	1187.65
786.079	1218.37
786.26	1171.27
786.441	1244.99
786.623	993.09
786.804	1214.27
786.985	1161.03
787.167	1095.49
787.348	1197.89
787.529	1158.98
787.71	1154.88
787.891	1150.79
788.073	1113.92
788.254	970.57
788.435	1173.32
788.616	1087.3
788.797	929.61
788.978	1095.49
789.159	1019.72
789.34	1038.15
789.522	1087.3
789.703	898.89
789.884	1056.58
790.065	1048.39
790.246	1294.15
790.427	960.33
790.607	1032.01
790.788	958.28
790.969	995.14
791.15	1152.84
791.331	927.56
791.512	857.93
791.693	986.95
791.874	972.61
792.054	1146.69
792.235	1068.87
792.416	909.13
792.597	894.79
792.778	999.24
792.958	907.08
793.139	970.57
793.32	919.37
793.5	827.21
793.681	1019.72
793.862	1062.73
794.042	995.14
794.223	651.08
794.404	798.54
794.584	636.75
794.765	939.85
794.945	898.89
795.126	982.85
795.306	1036.1
795.487	958.28
795.667	819.02
795.848	749.39
796.028	954.18
796.209	888.65
796.389	1007.43
796.57	749.39
796.75	759.63
796.93	931.66
797.111	753.48
797.291	714.57
797.471	984.9
797.652	810.82
797.832	790.35
798.012	827.21
798.192	778.06
798.373	620.36
798.553	798.54
798.733	835.4
798.913	749.39
799.093	792.39
799.274	788.3
799.454	757.58
799.634	933.7
799.814	886.6
799.994	857.93
800.174	704.33
800.354	737.1
800.534	567.12
800.714	704.33
800.894	558.92
801.074	614.22
801.254	589.64
801.434	825.16
801.614	663.37
801.794	638.8
801.974	5226.25
802.154	597.84
802.334	767.82
802.514	720.71
802.693	757.58
802.873	573.26
803.053	776.01
803.233	763.72
803.413	737.1
803.592	606.03
803.772	663.37
803.952	714.57
804.131	544.59
804.311	661.32
804.491	718.67
804.67	583.5
804.85	583.5
805.03	646.99
805.209	819.02
805.389	636.75
805.568	599.88
805.748	571.21
805.928	608.08
806.107	835.4
806.287	692.04
806.466	720.71
806.646	573.26
806.825	663.37
807.004	579.4
807.184	665.42
807.363	614.22
807.543	646.99
807.722	548.68
807.901	700.23
808.081	683.85
808.26	376.66
808.439	661.32
808.619	540.49
808.798	563.02
808.977	628.56
809.156	827.21
809.336	632.65
809.515	606.03
809.694	503.63
809.873	540.49
810.052	546.64
810.231	749.39
810.411	612.17
810.59	761.67
810.769	517.97
810.948	640.84
811.127	300.88
811.306	606.03
811.485	448.33
811.664	642.89
811.843	620.36
812.022	616.27
812.201	452.43
812.38	413.52
812.559	544.59
812.737	583.5
812.916	362.32
813.095	358.22
813.274	612.17
813.453	560.97
813.632	436.05
813.811	626.51
813.989	290.64
814.168	536.4
814.347	378.7
814.526	468.81
814.704	665.42
814.883	653.13
815.062	315.22
815.24	413.52
815.419	409.42
815.598	556.88
815.776	272.21
815.955	417.61
816.133	180.05
816.312	477.01
816.49	456.53
816.669	380.75
816.847	524.11
817.026	493.39
817.204	317.26
817.383	405.33
817.561	372.56
817.74	538.45
817.918	393.04
818.097	343.89
818.275	343.89
818.453	511.82
818.632	395.09
818.81	477.01
818.988	454.48
819.167	429.9
819.345	358.22
819.523	298.83
819.701	513.87
819.879	479.05
820.058	370.51
820.236	280.4
820.414	452.43
820.592	436.05
820.77	282.45
820.948	253.78
821.127	413.52
821.305	440.14
821.483	169.81
821.661	362.32
821.839	487.25
822.017	325.46
822.195	315.22
822.373	403.28
822.551	376.66
822.729	444.24
822.907	382.8
823.085	378.7
823.262	524.11
823.44	282.45
823.618	460.62
823.796	419.66
823.974	386.9
824.152	253.78
824.329	390.99
824.507	399.18
824.685	483.15
824.863	368.46
825.04	261.97
825.218	350.03
825.396	327.5
825.574	460.62
825.751	331.6
825.929	302.93
826.107	221.01
826.284	483.15
826.462	284.5
826.639	282.45
826.817	212.82
826.994	335.7
827.172	247.63
827.349	337.74
827.527	419.66
827.704	386.9
827.882	425.81
828.059	290.64
828.237	341.84
828.414	444.24
828.591	87.89
828.769	358.22
828.946	165.71
829.124	534.35
829.301	534.35
829.478	292.69
829.655	431.95
829.833	284.5
830.01	143.19
830.187	456.53
830.364	337.74
830.542	399.18
830.719	323.41
830.896	333.65
831.073	438.09
831.25	354.13
831.427	264.02
831.604	286.54
831.782	288.59
831.959	413.52
832.136	233.3
832.313	321.36
832.49	251.73
832.667	386.9
832.844	214.87
833.021	343.89
833.198	393.04
833.374	321.36
833.551	331.6
833.728	194.39
833.905	513.87
834.082	122.71
834.259	352.08
834.436	397.14
834.612	212.82
834.789	436.05
834.966	341.84
835.143	276.31
835.319	182.1
835.496	444.24
835.673	292.69
835.85	362.32
836.026	419.66
836.203	546.64
836.38	225.11
836.556	286.54
836.733	278.35
836.909	509.77
837.086	212.82
837.262	108.37
837.439	325.46
837.616	233.3
837.792	251.73
837.968	286.54
838.145	132.95
838.321	345.94
838.498	272.21
838.674	319.31
838.851	352.08
839.027	294.74
839.203	298.83
839.38	343.89
839.556	356.18
839.732	411.47
839.909	139.09
840.085	198.48
840.261	194.39
840.437	335.7
840.614	196.43
840.79	350.03
840.966	413.52
841.142	390.99
841.318	233.3
841.494	223.06
841.671	384.85
841.847	235.35
842.023	153.43
842.199	212.82
842.375	579.4
842.551	36.69
842.727	118.61
842.903	376.66
843.079	229.2
843.255	470.86
843.431	180.05
843.607	243.54
843.783	26.45
843.959	397.14
844.134	139.09
844.31	329.55
844.486	233.3
844.662	192.34
844.838	216.91
845.013	135
845.189	505.68
845.365	302.93
845.541	257.87
845.716	214.87
845.892	452.43
846.068	229.2
846.244	196.43
846.419	114.52
846.595	196.43
846.77	178
846.946	282.45
847.122	206.67
847.297	221.01
847.473	524.11
847.648	173.91
847.824	169.81
847.999	83.8
848.175	270.16
848.35	280.4
848.526	376.66
848.701	438.09
848.876	401.23
849.052	417.61
849.227	196.43
849.403	249.68
849.578	218.96
849.753	272.21
849.929	188.24
850.104	118.61
850.279	249.68
850.454	237.39
850.63	282.45
850.805	298.83
850.98	171.86
851.155	198.48
851.33	290.64
851.505	108.37
851.681	368.46
851.856	124.76
852.031	229.2
852.206	278.35
852.381	266.07
852.556	128.85
852.731	67.41
852.906	366.42
853.081	282.45
853.256	317.26
853.431	206.67
853.606	184.15
853.781	155.47
853.956	3.93
854.131	182.1
854.305	114.52
854.48	182.1
854.655	91.99
854.83	98.13
855.005	251.73
855.18	331.6
855.354	188.24
855.529	171.86
855.704	216.91
855.879	278.35
856.053	3.93
856.228	182.1
856.403	42.84
856.577	376.66
856.752	63.32
856.926	145.24
857.101	337.74
857.276	108.37
857.45	141.14
857.625	341.84
857.799	229.2
857.974	175.95
858.148	-10.41
858.323	241.49
858.497	218.96
858.672	198.48
858.846	48.98
859.02	214.87
859.195	192.34
859.369	192.34
859.543	257.87
859.718	229.2
859.892	278.35
860.066	321.36
860.241	130.9
860.415	116.56
860.589	180.05
860.763	135
860.938	73.56
861.112	180.05
861.286	159.57
861.46	239.44
861.634	198.48
861.808	106.32
861.982	106.32
862.157	73.56
862.331	149.33
862.505	5.97
862.679	16.21
862.853	130.9
863.027	96.08
863.201	167.76
863.375	118.61
863.549	274.26
863.722	249.68
863.896	243.54
864.07	87.89
864.244	221.01
864.418	247.63
864.592	120.66
864.766	237.39
864.939	288.59
865.113	73.56
865.287	335.7
865.461	67.41
865.634	171.86
865.808	153.43
865.982	32.6
866.156	141.14
866.329	48.98
866.503	165.71
866.676	292.69
866.85	307.02
867.024	65.36
867.197	261.97
867.371	87.89
867.544	315.22
867.718	-94.38
867.891	196.43
868.065	-39.08
868.238	120.66
868.412	356.18
868.585	143.19
868.759	73.56
868.932	196.43
869.105	40.79
869.279	225.11
869.452	42.84
869.625	319.31
869.799	157.52
869.972	-8.36
870.145	141.14
870.319	352.08
870.492	100.18
870.665	91.99
870.838	73.56
871.011	-108.71
871.185	202.58
871.358	155.47
871.531	292.69
871.704	210.77
871.877	253.78
872.05	38.74
872.223	-26.79
872.396	307.02
872.569	294.74
872.742	16.21
872.915	233.3
873.088	202.58
873.261	87.89
873.434	223.06
873.607	81.75
873.78	382.8
873.953	65.36
874.126	102.23
874.299	173.91
874.471	100.18
874.644	100.18
874.817	255.83
874.99	245.59
875.163	151.38
875.335	216.91
875.508	85.84
875.681	186.19
875.853	130.9
876.026	216.91
876.199	192.34
876.371	100.18
876.544	79.7
876.717	225.11
876.889	126.8
877.062	147.28
877.234	77.65
877.407	46.93
877.579	71.51
877.752	182.1
877.924	274.26
878.097	214.87
878.269	67.41
878.442	149.33
878.614	270.16
878.786	173.91
878.959	34.64
879.131	190.29
879.303	-0.17
879.476	171.86
879.648	225.11
879.82	141.14
879.993	167.76
880.165	77.65
880.337	-77.99
880.509	89.94
880.681	26.45
880.854	91.99
881.026	227.15
881.198	163.67
881.37	204.63
881.542	118.61
881.714	180.05
881.886	10.07
882.058	282.45
882.23	231.25
882.402	175.95
882.574	214.87
882.746	317.26
882.918	378.7
883.09	184.15
883.262	167.76
883.434	235.35
883.606	75.6
883.778	98.13
883.95	223.06
884.122	91.99
884.293	362.32
884.465	65.36
884.637	163.67
884.809	143.19
884.98	206.67
885.152	274.26
885.324	124.76
885.496	102.23
885.667	194.39
885.839	102.23
886.011	139.09
886.182	184.15
886.354	352.08
886.525	169.81
886.697	36.69
886.869	40.79
887.04	165.71
887.212	278.35
887.383	329.55
887.555	135
887.726	98.13
887.897	55.12
888.069	141.14
888.24	405.33
888.412	122.71
888.583	108.37
888.754	48.98
888.926	-63.66
889.097	89.94
889.268	-71.85
889.44	-2.22
889.611	30.55
889.782	67.41
889.953	34.64
890.125	159.57
890.296	42.84
890.467	83.8
890.638	32.6
890.809	118.61
890.98	83.8
891.151	173.91
891.323	264.02
891.494	5.97
891.665	91.99
891.836	212.82
892.007	67.41
892.178	81.75
892.349	128.85
892.52	83.8
892.691	130.9
892.862	18.26
893.032	-41.13
893.203	104.28
893.374	159.57
893.545	190.29
893.716	116.56
893.887	282.45
894.057	79.7
894.228	98.13
894.399	36.69
894.57	335.7
894.74	106.32
894.911	102.23
895.082	180.05
895.253	85.84
895.423	141.14
895.594	118.61
895.764	247.63
895.935	-39.08
896.106	94.04
896.276	-14.51
896.447	221.01
896.617	81.75
896.788	36.69
896.958	-26.79
897.129	124.76
897.299	141.14
897.47	233.3
897.64	102.23
897.81	116.56
897.981	264.02
898.151	42.84
898.322	122.71
898.492	206.67
898.662	32.6
898.832	32.6
899.003	98.13
899.173	337.74
899.343	10.07
899.513	-37.03
