Data from USB4F104151__13__12-53-13-209.txt Node

Date: Fri Mar 14 12:53:13 EDT 2025
User: louis
Spectrometer: USB4F10415
Trigger mode: 4
Integration Time (sec): 1.000000E-2
Scans to average: 1
Electric dark correction enabled: true
Nonlinearity correction enabled: false
Boxcar width: 0
XAxis mode: Wavelengths
Number of Pixels in Spectrum: 3648
>>>>>Begin Spectral Data<<<<<
178.204	3.41
178.424	3.41
178.644	3.41
178.864	-29.35
179.084	-78.51
179.304	-39.59
179.524	-45.74
179.744	-25.26
179.964	3.41
180.184	1.37
180.404	60.76
180.624	-12.97
180.844	7.51
181.064	-29.35
181.283	54.61
181.503	52.56
181.723	-27.31
181.943	-23.21
182.163	30.04
182.383	-27.31
182.602	-21.16
182.822	23.89
183.042	21.85
183.262	-23.21
183.482	44.37
183.701	15.7
183.921	5.46
184.141	-12.97
184.361	7.51
184.58	-27.31
184.8	58.71
185.02	15.7
185.239	52.56
185.459	68.95
185.679	71
185.898	-60.07
186.118	13.65
186.338	-27.31
186.557	66.9
186.777	44.37
186.997	11.61
187.216	-21.16
187.436	13.65
187.655	7.51
187.875	-10.92
188.095	30.04
188.314	36.18
188.534	36.18
188.753	5.46
188.973	-0.68
189.192	-4.78
189.412	-49.83
189.631	30.04
189.851	40.28
190.07	60.76
190.29	13.65
190.509	34.13
190.729	5.46
190.948	62.8
191.168	21.85
191.387	62.8
191.607	62.8
191.826	77.14
192.045	23.89
192.265	-25.26
192.484	-27.31
192.704	11.61
192.923	-4.78
193.142	81.24
193.362	52.56
193.581	77.14
193.8	-43.69
194.02	9.56
194.239	-35.5
194.458	46.42
194.678	1.37
194.897	34.13
195.116	64.85
195.335	40.28
195.555	44.37
195.774	52.56
195.993	3.41
196.212	5.46
196.432	-21.16
196.651	50.52
196.87	91.48
197.089	68.95
197.308	40.28
197.528	44.37
197.747	13.65
197.966	66.9
198.185	83.28
198.404	-35.5
198.623	1.37
198.842	58.71
199.062	32.08
199.281	71
199.5	-33.45
199.719	91.48
199.938	-17.07
200.157	-51.88
200.376	19.8
200.595	52.56
200.814	-58.03
201.033	-0.68
201.252	-6.83
201.471	48.47
201.69	44.37
201.909	-23.21
202.128	-39.59
202.347	79.19
202.566	32.08
202.785	13.65
203.004	93.52
203.223	25.94
203.442	23.89
203.661	23.89
203.879	-31.4
204.098	38.23
204.317	27.99
204.536	9.56
204.755	-17.07
204.974	21.85
205.193	38.23
205.411	11.61
205.63	30.04
205.849	79.19
206.068	48.47
206.287	95.57
206.505	44.37
206.724	40.28
206.943	3.41
207.162	27.99
207.381	13.65
207.599	36.18
207.818	89.43
208.037	71
208.255	5.46
208.474	-10.92
208.693	-19.11
208.911	-35.5
209.13	17.75
209.349	-58.03
209.567	-31.4
209.786	27.99
210.005	11.61
210.223	5.46
210.442	27.99
210.661	1.37
210.879	73.04
211.098	66.9
211.316	13.65
211.535	19.8
211.753	19.8
211.972	-4.78
212.191	105.81
212.409	36.18
212.628	54.61
212.846	60.76
213.065	19.8
213.283	23.89
213.502	-49.83
213.72	-4.78
213.938	27.99
214.157	-17.07
214.375	58.71
214.594	-35.5
214.812	25.94
215.031	11.61
215.249	34.13
215.467	-41.64
215.686	5.46
215.904	15.7
216.122	-8.87
216.341	44.37
216.559	73.04
216.778	99.67
216.996	46.42
217.214	13.65
217.432	-8.87
217.651	52.56
217.869	7.51
218.087	50.52
218.306	56.66
218.524	36.18
218.742	-23.21
218.96	-55.98
219.179	75.09
219.397	19.8
219.615	52.56
219.833	32.08
220.051	75.09
220.27	44.37
220.488	34.13
220.706	-0.68
220.924	30.04
221.142	5.46
221.36	7.51
221.578	-6.83
221.796	-25.26
222.015	-12.97
222.233	-4.78
222.451	13.65
222.669	27.99
222.887	36.18
223.105	30.04
223.323	-12.97
223.541	-41.64
223.759	66.9
223.977	27.99
224.195	-2.73
224.413	42.32
224.631	42.32
224.849	75.09
225.067	91.48
225.285	40.28
225.503	-10.92
225.721	25.94
225.939	44.37
226.157	7.51
226.375	68.95
226.592	-33.45
226.81	3.41
227.028	103.76
227.246	107.86
227.464	60.76
227.682	17.75
227.9	62.8
228.117	-8.87
228.335	46.42
228.553	-35.5
228.771	62.8
228.989	-12.97
229.206	3.41
229.424	60.76
229.642	42.32
229.86	30.04
230.077	50.52
230.295	-35.5
230.513	64.85
230.731	68.95
230.948	-8.87
231.166	-4.78
231.384	56.66
231.601	21.85
231.819	48.47
232.037	-27.31
232.254	-27.31
232.472	68.95
232.689	-35.5
232.907	-37.55
233.125	42.32
233.342	116.05
233.56	30.04
233.777	19.8
233.995	48.47
234.213	-12.97
234.43	38.23
234.648	58.71
234.865	19.8
235.083	48.47
235.3	36.18
235.518	50.52
235.735	34.13
235.953	21.85
236.17	21.85
236.388	19.8
236.605	-19.11
236.822	101.72
237.04	19.8
237.257	-2.73
237.475	71
237.692	81.24
237.909	-6.83
238.127	-17.07
238.344	77.14
238.562	64.85
238.779	25.94
238.996	-12.97
239.214	64.85
239.431	75.09
239.648	58.71
239.865	54.61
240.083	11.61
240.3	38.23
240.517	32.08
240.735	13.65
240.952	21.85
241.169	60.76
241.386	11.61
241.603	19.8
241.821	-23.21
242.038	44.37
242.255	50.52
242.472	-33.45
242.689	11.61
242.907	42.32
243.124	5.46
243.341	32.08
243.558	5.46
243.775	56.66
243.992	85.33
244.209	77.14
244.426	44.37
244.643	3.41
244.86	21.85
245.078	56.66
245.295	97.62
245.512	64.85
245.729	60.76
245.946	87.38
246.163	-55.98
246.38	54.61
246.597	42.32
246.814	-8.87
247.031	-25.26
247.248	54.61
247.464	87.38
247.681	7.51
247.898	1.37
248.115	19.8
248.332	3.41
248.549	58.71
248.766	3.41
248.983	15.7
249.2	52.56
249.417	87.38
249.633	-4.78
249.85	-33.45
250.067	75.09
250.284	9.56
250.501	56.66
250.717	64.85
250.934	44.37
251.151	23.89
251.368	36.18
251.585	21.85
251.801	36.18
252.018	-10.92
252.235	68.95
252.451	73.04
252.668	-35.5
252.885	-12.97
253.102	44.37
253.318	9.56
253.535	-2.73
253.752	15.7
253.968	44.37
254.185	54.61
254.401	-12.97
254.618	103.76
254.835	-31.4
255.051	50.52
255.268	-10.92
255.484	19.8
255.701	-25.26
255.917	-0.68
256.134	44.37
256.351	68.95
256.567	5.46
256.784	-0.68
257	-41.64
257.217	56.66
257.433	54.61
257.65	-12.97
257.866	83.28
258.082	9.56
258.299	-19.11
258.515	38.23
258.732	21.85
258.948	54.61
259.165	60.76
259.381	34.13
259.597	-66.22
259.814	73.04
260.03	34.13
260.246	17.75
260.463	-0.68
260.679	48.47
260.895	-2.73
261.112	62.8
261.328	-98.99
261.544	-15.02
261.761	64.85
261.977	21.85
262.193	54.61
262.409	19.8
262.626	79.19
262.842	23.89
263.058	-10.92
263.274	93.52
263.49	-2.73
263.707	23.89
263.923	60.76
264.139	83.28
264.355	-21.16
264.571	93.52
264.787	114
265.004	-29.35
265.22	27.99
265.436	11.61
265.652	-55.98
265.868	68.95
266.084	-27.31
266.3	-6.83
266.516	17.75
266.732	19.8
266.948	-6.83
267.164	30.04
267.38	7.51
267.596	-31.4
267.812	11.61
268.028	11.61
268.244	11.61
268.46	38.23
268.676	-29.35
268.892	15.7
269.108	34.13
269.324	44.37
269.54	17.75
269.756	77.14
269.972	40.28
270.188	13.65
270.403	21.85
270.619	44.37
270.835	30.04
271.051	-8.87
271.267	44.37
271.483	15.7
271.698	66.9
271.914	11.61
272.13	73.04
272.346	17.75
272.562	36.18
272.777	52.56
272.993	-15.02
273.209	13.65
273.425	126.29
273.64	5.46
273.856	-6.83
274.072	42.32
274.287	23.89
274.503	23.89
274.719	19.8
274.934	-31.4
275.15	15.7
275.366	60.76
275.581	46.42
275.797	27.99
276.012	97.62
276.228	107.86
276.444	-17.07
276.659	3.41
276.875	-2.73
277.09	118.1
277.306	-6.83
277.521	48.47
277.737	36.18
277.952	1.37
278.168	19.8
278.383	109.91
278.599	-35.5
278.814	17.75
279.03	-10.92
279.245	79.19
279.461	79.19
279.676	95.57
279.892	32.08
280.107	-0.68
280.322	15.7
280.538	-0.68
280.753	36.18
280.969	89.43
281.184	34.13
281.399	30.04
281.615	-29.35
281.83	48.47
282.045	-21.16
282.26	19.8
282.476	64.85
282.691	25.94
282.906	68.95
283.122	34.13
283.337	27.99
283.552	36.18
283.767	3.41
283.983	-8.87
284.198	23.89
284.413	-8.87
284.628	-47.79
284.843	38.23
285.058	-0.68
285.274	103.76
285.489	-33.45
285.704	34.13
285.919	-15.02
286.134	38.23
286.349	120.15
286.564	-2.73
286.779	52.56
286.995	13.65
287.21	38.23
287.425	21.85
287.64	-96.94
287.855	95.57
288.07	-76.46
288.285	75.09
288.5	5.46
288.715	64.85
288.93	52.56
289.145	32.08
289.36	73.04
289.575	-19.11
289.79	85.33
290.004	60.76
290.219	105.81
290.434	7.51
290.649	23.89
290.864	32.08
291.079	11.61
291.294	30.04
291.509	32.08
291.724	46.42
291.938	30.04
292.153	-6.83
292.368	21.85
292.583	81.24
292.798	77.14
293.012	107.86
293.227	30.04
293.442	25.94
293.657	32.08
293.871	42.32
294.086	9.56
294.301	58.71
294.516	7.51
294.73	54.61
294.945	-117.42
295.16	114
295.374	23.89
295.589	52.56
295.804	54.61
296.018	68.95
296.233	-0.68
296.447	79.19
296.662	3.41
296.877	9.56
297.091	38.23
297.306	54.61
297.52	1.37
297.735	32.08
297.949	34.13
298.164	9.56
298.378	-0.68
298.593	105.81
298.807	36.18
299.022	58.71
299.236	50.52
299.451	19.8
299.665	17.75
299.88	-4.78
300.094	-17.07
300.309	23.89
300.523	-2.73
300.737	77.14
300.952	-27.31
301.166	50.52
301.381	-15.02
301.595	40.28
301.809	-29.35
302.024	7.51
302.238	5.46
302.452	34.13
302.667	27.99
302.881	-45.74
303.095	68.95
303.309	62.8
303.524	-41.64
303.738	32.08
303.952	-35.5
304.166	-35.5
304.381	52.56
304.595	64.85
304.809	44.37
305.023	60.76
305.237	27.99
305.452	71
305.666	46.42
305.88	25.94
306.094	38.23
306.308	48.47
306.522	66.9
306.736	52.56
306.95	42.32
307.164	91.48
307.379	66.9
307.593	114
307.807	60.76
308.021	-12.97
308.235	5.46
308.449	42.32
308.663	-0.68
308.877	44.37
309.091	-0.68
309.305	-29.35
309.519	-8.87
309.733	-19.11
309.947	-43.69
310.161	73.04
310.374	95.57
310.588	-35.5
310.802	-78.51
311.016	-45.74
311.23	11.61
311.444	56.66
311.658	30.04
311.872	44.37
312.085	54.61
312.299	21.85
312.513	32.08
312.727	64.85
312.941	25.94
313.154	54.61
313.368	64.85
313.582	19.8
313.796	17.75
314.009	-12.97
314.223	23.89
314.437	21.85
314.651	23.89
314.864	13.65
315.078	38.23
315.292	30.04
315.505	32.08
315.719	42.32
315.933	54.61
316.146	11.61
316.36	19.8
316.573	73.04
316.787	21.85
317.001	89.43
317.214	56.66
317.428	71
317.641	-2.73
317.855	13.65
318.068	21.85
318.282	38.23
318.495	60.76
318.709	146.77
318.922	64.85
319.136	66.9
319.349	11.61
319.563	56.66
319.776	79.19
319.99	-0.68
320.203	-37.55
320.417	-21.16
320.63	36.18
320.843	73.04
321.057	15.7
321.27	58.71
321.483	-55.98
321.697	48.47
321.91	19.8
322.124	30.04
322.337	91.48
322.55	5.46
322.763	40.28
322.977	60.76
323.19	48.47
323.403	128.34
323.617	-27.31
323.83	38.23
324.043	-17.07
324.256	-8.87
324.469	-31.4
324.683	134.48
324.896	-39.59
325.109	17.75
325.322	19.8
325.535	42.32
325.748	27.99
325.962	-43.69
326.175	-15.02
326.388	-33.45
326.601	23.89
326.814	-8.87
327.027	99.67
327.24	111.96
327.453	-10.92
327.666	79.19
327.879	36.18
328.092	50.52
328.305	36.18
328.518	50.52
328.731	79.19
328.944	46.42
329.157	75.09
329.37	-21.16
329.583	-23.21
329.796	48.47
330.009	34.13
330.222	9.56
330.435	60.76
330.648	40.28
330.861	-2.73
331.073	48.47
331.286	101.72
331.499	114
331.712	48.47
331.925	32.08
332.138	68.95
332.35	58.71
332.563	-23.21
332.776	66.9
332.989	13.65
333.202	-45.74
333.414	21.85
333.627	44.37
333.84	71
334.053	103.76
334.265	38.23
334.478	56.66
334.691	11.61
334.903	56.66
335.116	-27.31
335.329	52.56
335.541	75.09
335.754	-21.16
335.966	44.37
336.179	101.72
336.392	19.8
336.604	19.8
336.817	-8.87
337.029	25.94
337.242	38.23
337.454	95.57
337.667	25.94
337.88	52.56
338.092	30.04
338.305	62.8
338.517	32.08
338.729	120.15
338.942	58.71
339.154	81.24
339.367	-21.16
339.579	95.57
339.792	-17.07
340.004	93.52
340.217	62.8
340.429	-41.64
340.641	42.32
340.854	46.42
341.066	81.24
341.278	30.04
341.491	-21.16
341.703	19.8
341.915	-17.07
342.128	-43.69
342.34	-53.93
342.552	17.75
342.764	64.85
342.977	36.18
343.189	-6.83
343.401	27.99
343.613	-29.35
343.826	99.67
344.038	34.13
344.25	19.8
344.462	62.8
344.674	13.65
344.886	19.8
345.099	36.18
345.311	27.99
345.523	-21.16
345.735	-35.5
345.947	52.56
346.159	5.46
346.371	44.37
346.583	17.75
346.795	120.15
347.007	7.51
347.219	1.37
347.431	48.47
347.643	-0.68
347.855	73.04
348.067	62.8
348.279	30.04
348.491	23.89
348.703	62.8
348.915	99.67
349.127	40.28
349.339	66.9
349.551	-15.02
349.763	126.29
349.975	-10.92
350.187	97.62
350.399	75.09
350.61	83.28
350.822	23.89
351.034	68.95
351.246	58.71
351.458	75.09
351.669	111.96
351.881	21.85
352.093	13.65
352.305	19.8
352.517	7.51
352.728	101.72
352.94	-60.07
353.152	58.71
353.363	52.56
353.575	58.71
353.787	46.42
353.999	60.76
354.21	30.04
354.422	19.8
354.633	68.95
354.845	64.85
355.057	-21.16
355.268	48.47
355.48	5.46
355.692	79.19
355.903	17.75
356.115	34.13
356.326	15.7
356.538	56.66
356.749	58.71
356.961	48.47
357.172	-33.45
357.384	81.24
357.595	54.61
357.807	50.52
358.018	36.18
358.23	7.51
358.441	64.85
358.653	-49.83
358.864	91.48
359.075	5.46
359.287	40.28
359.498	126.29
359.709	32.08
359.921	42.32
360.132	81.24
360.344	36.18
360.555	73.04
360.766	97.62
360.977	77.14
361.189	68.95
361.4	-35.5
361.611	68.95
361.823	58.71
362.034	42.32
362.245	52.56
362.456	122.2
362.667	30.04
362.879	54.61
363.09	54.61
363.301	79.19
363.512	140.63
363.723	25.94
363.935	44.37
364.146	42.32
364.357	118.1
364.568	83.28
364.779	5.46
364.99	66.9
365.201	9.56
365.412	38.23
365.623	68.95
365.834	27.99
366.045	23.89
366.256	40.28
366.467	56.66
366.678	46.42
366.889	9.56
367.1	68.95
367.311	81.24
367.522	38.23
367.733	71
367.944	-51.88
368.155	75.09
368.366	105.81
368.577	21.85
368.788	44.37
368.999	107.86
369.209	23.89
369.42	13.65
369.631	126.29
369.842	85.33
370.053	68.95
370.264	32.08
370.474	-15.02
370.685	27.99
370.896	32.08
371.107	50.52
371.317	75.09
371.528	-10.92
371.739	64.85
371.95	56.66
372.16	64.85
372.371	48.47
372.582	79.19
372.792	36.18
373.003	-0.68
373.214	9.56
373.424	40.28
373.635	19.8
373.846	66.9
374.056	42.32
374.267	23.89
374.477	91.48
374.688	40.28
374.898	40.28
375.109	79.19
375.319	1.37
375.53	93.52
375.74	-35.5
375.951	83.28
376.161	71
376.372	9.56
376.582	17.75
376.793	83.28
377.003	79.19
377.214	-2.73
377.424	38.23
377.635	52.56
377.845	-23.21
378.055	83.28
378.266	11.61
378.476	34.13
378.686	9.56
378.897	64.85
379.107	15.7
379.317	60.76
379.528	-19.11
379.738	58.71
379.948	44.37
380.158	25.94
380.369	25.94
380.579	99.67
380.789	68.95
380.999	21.85
381.21	5.46
381.42	62.8
381.63	48.47
381.84	-6.83
382.05	75.09
382.261	52.56
382.471	77.14
382.681	93.52
382.891	21.85
383.101	21.85
383.311	19.8
383.521	50.52
383.731	40.28
383.941	46.42
384.151	42.32
384.361	66.9
384.571	17.75
384.781	58.71
384.991	25.94
385.201	87.38
385.411	30.04
385.621	50.52
385.831	-23.21
386.041	17.75
386.251	9.56
386.461	87.38
386.671	64.85
386.881	71
387.091	54.61
387.301	130.39
387.511	99.67
387.72	-4.78
387.93	19.8
388.14	30.04
388.35	75.09
388.56	60.76
388.769	-19.11
388.979	87.38
389.189	73.04
389.399	13.65
389.609	140.63
389.818	103.76
390.028	54.61
390.238	87.38
390.447	7.51
390.657	71
390.867	5.46
391.076	85.33
391.286	23.89
391.496	48.47
391.705	66.9
391.915	107.86
392.125	5.46
392.334	77.14
392.544	56.66
392.753	79.19
392.963	34.13
393.172	68.95
393.382	30.04
393.591	109.91
393.801	17.75
394.01	91.48
394.22	87.38
394.429	75.09
394.639	62.8
394.848	77.14
395.058	3.41
395.267	48.47
395.477	42.32
395.686	66.9
395.895	68.95
396.105	75.09
396.314	75.09
396.524	83.28
396.733	34.13
396.942	54.61
397.152	68.95
397.361	58.71
397.57	42.32
397.78	40.28
397.989	101.72
398.198	60.76
398.407	36.18
398.617	34.13
398.826	83.28
399.035	132.44
399.244	130.39
399.453	54.61
399.663	42.32
399.872	97.62
400.081	1.37
400.29	101.72
400.499	83.28
400.708	122.2
400.917	25.94
401.127	105.81
401.336	134.48
401.545	152.92
401.754	83.28
401.963	97.62
402.172	9.56
402.381	97.62
402.59	73.04
402.799	109.91
403.008	105.81
403.217	111.96
403.426	93.52
403.635	109.91
403.844	120.15
404.053	116.05
404.262	97.62
404.471	134.48
404.68	89.43
404.888	68.95
405.097	34.13
405.306	89.43
405.515	179.54
405.724	109.91
405.933	111.96
406.142	42.32
406.35	130.39
406.559	134.48
406.768	32.08
406.977	238.93
407.185	114
407.394	130.39
407.603	79.19
407.812	109.91
408.02	122.2
408.229	191.83
408.438	193.87
408.646	105.81
408.855	202.07
409.064	130.39
409.272	83.28
409.481	191.83
409.69	167.25
409.898	140.63
410.107	189.78
410.315	187.73
410.524	240.98
410.733	169.3
410.941	177.49
411.15	240.98
411.358	232.79
411.567	216.4
411.775	259.41
411.984	275.79
412.192	265.55
412.401	230.74
412.609	294.22
412.818	308.56
413.026	259.41
413.234	249.17
413.443	310.61
413.651	308.56
413.86	265.55
414.068	337.23
414.276	355.66
414.485	406.86
414.693	359.76
414.901	406.86
415.11	464.21
415.318	351.57
415.526	478.54
415.734	380.24
415.943	499.02
416.151	519.5
416.359	513.36
416.567	505.17
416.776	490.83
416.984	472.4
417.192	552.27
417.4	550.22
417.608	564.56
417.817	609.61
418.025	593.23
418.233	699.72
418.441	626
418.649	765.26
418.857	669
419.065	701.77
419.273	791.88
419.481	740.68
419.689	800.07
419.897	859.46
420.105	881.99
420.313	904.52
420.521	873.8
420.729	912.71
420.937	955.72
421.145	1008.97
421.353	1037.64
421.561	1123.65
421.769	1123.65
421.977	1254.72
422.185	1094.98
422.393	1236.29
422.601	1264.96
422.809	1310.02
423.017	1277.25
423.224	1346.88
423.432	1418.56
423.64	1408.32
423.848	1453.38
424.056	1439.04
424.263	1674.56
424.471	1602.88
424.679	1660.22
424.887	1819.96
425.094	1709.37
425.302	1834.3
425.51	1848.63
425.718	1989.94
425.925	1961.27
426.133	2045.24
426.341	2000.18
426.548	2145.59
426.756	2254.13
426.964	2153.78
427.171	2383.15
427.379	2460.98
427.586	2344.24
427.794	2526.51
428.001	2733.36
428.209	2729.26
428.417	2733.36
428.624	2927.91
428.832	2850.09
429.039	2995.5
429.247	2845.99
429.454	3083.56
429.662	3321.12
429.869	3142.95
430.076	3415.33
430.284	3267.88
430.491	3441.95
430.699	3583.26
430.906	3753.24
431.114	3726.62
431.321	3865.88
431.528	3861.79
431.736	4058.39
431.943	4252.95
432.15	4273.43
432.358	4373.78
432.565	4386.07
432.772	4476.18
432.979	4699.41
433.187	4640.01
433.394	4926.73
433.601	5221.64
433.808	5090.57
434.016	5180.68
434.223	5328.13
434.43	5694.72
434.637	5567.74
434.844	5952.76
435.052	5995.77
435.259	6081.78
435.466	6071.54
435.673	5985.53
435.88	6374.64
436.087	6657.26
436.294	6937.84
436.501	6518
436.708	6665.46
436.915	6909.16
437.122	7214.31
437.329	7300.33
437.537	7582.95
437.743	7787.74
437.95	7668.96
438.157	8146.14
438.364	8320.21
438.571	8234.2
438.778	8342.74
438.985	9049.29
439.192	8717.52
439.399	8916.17
439.606	8834.25
439.813	9354.44
440.02	10038.46
440.227	9632.96
440.433	9669.83
440.64	9841.86
440.847	9909.44
441.054	10073.28
441.261	10839.22
441.467	10615.99
441.674	10824.88
441.881	11267.24
442.088	11166.89
442.294	11252.91
442.501	11455.65
442.708	11777.19
442.914	12213.4
443.121	12745.87
443.328	12489.88
443.534	13292.68
443.741	12905.62
443.948	12584.09
444.154	13542.53
444.361	13710.47
444.568	13487.24
444.774	13665.41
444.981	14013.57
445.187	14079.1
445.394	14738.55
445.6	14713.97
445.807	16178.27
446.013	15273.07
446.22	15740.01
446.426	16221.28
446.633	16360.54
446.839	16815.19
447.046	15930.47
447.252	17173.58
447.459	16829.52
447.665	16995.41
447.871	17955.91
448.078	18742.33
448.284	17812.55
448.491	18244.67
448.697	18795.57
448.903	19293.23
449.11	19280.94
449.316	19201.07
449.522	19557.42
449.728	19921.96
449.935	19950.63
450.141	20311.07
450.347	20599.83
450.553	19911.72
450.76	20165.67
450.966	20855.83
451.172	20732.95
451.378	21283.86
451.584	20591.64
451.791	21330.96
451.997	21124.11
452.203	21619.72
452.409	21830.66
452.615	21646.35
452.821	20591.64
453.027	20511.77
453.233	21752.84
453.44	20958.23
453.646	20773.91
453.852	21140.5
454.058	21421.07
454.264	20884.5
454.47	21187.6
454.676	20524.06
454.882	21648.39
455.088	19541.04
455.294	19547.18
455.5	20161.57
455.705	20329.5
455.911	19379.25
456.117	19350.57
456.323	19029.04
456.529	17898.56
456.735	18633.78
456.941	18373.69
457.147	17835.08
457.352	17517.64
457.558	17249.36
457.764	17452.11
457.97	17003.6
458.176	16682.07
458.381	16606.3
458.587	15772.77
458.793	16026.72
458.999	14855.28
459.204	16131.17
459.41	15635.56
459.616	14562.42
459.821	14627.96
460.027	14576.76
460.233	14273.66
460.438	13700.23
460.644	13757.57
460.85	13171.85
461.055	12934.29
461.261	12950.67
461.466	11932.83
461.672	11912.35
461.878	12526.74
462.083	11422.89
462.289	11302.06
462.494	11543.72
462.7	10751.15
462.905	10575.03
463.111	10878.13
463.316	10867.89
463.522	10839.22
463.727	10736.82
463.932	10878.13
464.138	10878.13
464.343	10923.18
464.549	10306.74
464.754	10835.12
464.959	10597.56
465.165	10544.31
465.37	10071.23
465.575	10040.51
465.781	10284.22
465.986	10450.1
466.191	10155.19
466.397	9858.24
466.602	9424.07
466.807	9798.85
467.012	9727.17
467.218	9684.16
467.423	9397.45
467.628	9520.32
467.833	9981.12
468.038	9485.51
468.244	9391.3
468.449	9833.66
468.654	9589.95
468.859	9311.43
469.064	9379.01
469.269	9051.34
469.474	9112.78
469.679	9407.69
469.885	9049.29
470.09	9024.72
470.295	9108.68
470.5	8799.44
470.705	8907.98
470.91	8635.6
471.115	8692.94
471.32	8699.09
471.525	8615.12
471.73	8639.7
471.935	8385.75
472.139	8205.53
472.344	8262.87
472.549	8187.1
472.754	8139.99
472.959	7761.12
473.164	7730.4
473.369	7529.7
473.574	7824.61
473.778	7853.28
473.983	7746.78
474.188	7601.38
474.393	7445.73
474.598	7265.51
474.802	7259.37
475.007	7218.41
475.212	7261.41
475.417	6952.17
475.621	6847.72
475.826	7040.23
476.031	6966.51
476.235	6630.64
476.44	6898.92
476.645	6745.33
476.849	6683.89
477.054	6542.58
477.259	6319.35
477.463	6716.65
477.668	6370.55
477.872	6382.84
478.077	6388.98
478.282	6163.7
478.486	6204.66
478.691	6077.69
478.895	6102.26
479.1	6051.07
479.304	5919.99
479.509	5870.84
479.713	5965.05
479.918	5747.97
480.122	5741.82
480.326	5901.56
480.531	5618.94
480.735	5727.49
480.94	5571.84
481.144	5758.21
481.348	5600.51
481.553	5735.68
481.757	5518.59
481.961	5786.88
482.166	5842.17
482.37	5725.44
482.574	5571.84
482.778	5582.08
482.983	5610.75
483.187	5481.73
483.391	5553.41
483.595	5670.14
483.8	5420.29
484.004	5577.98
484.208	5698.81
484.412	5551.36
484.616	5788.93
484.821	5651.71
485.025	5725.44
485.229	5764.35
485.433	5674.24
485.637	5733.63
485.841	5604.61
486.045	5643.52
486.249	5801.21
486.453	5602.56
486.657	5809.4
486.861	5625.09
487.065	5573.89
487.269	5596.42
487.473	5670.14
487.677	5747.97
487.881	5870.84
488.085	5688.57
488.289	5694.72
488.493	5655.81
488.697	5741.82
488.901	5831.93
489.105	5780.73
489.309	5836.03
489.512	5960.95
489.716	5899.52
489.92	5967.1
490.124	5758.21
490.328	5881.08
490.531	5831.93
490.735	5745.92
490.939	5981.43
491.143	6155.51
491.346	5901.56
491.55	6128.89
491.754	6108.41
491.958	6190.33
492.161	6159.61
492.365	6253.81
492.569	6089.98
492.772	6106.36
492.976	6339.83
493.18	6333.68
493.383	6436.08
493.587	6481.14
493.79	6743.28
493.994	6415.6
494.197	6399.22
494.401	6599.92
494.605	6655.22
494.808	6872.3
495.012	6796.53
495.215	6829.29
495.419	6845.68
495.622	6728.94
495.825	7230.7
496.029	7073
496.232	7197.93
496.436	7224.55
496.639	7423.2
496.843	7195.88
497.046	7484.64
497.249	7666.91
497.453	7501.03
497.656	7877.85
497.859	7726.3
498.063	7802.08
498.266	8099.03
498.469	7884
498.673	7996.64
498.876	8162.52
499.079	8178.9
499.282	8279.25
499.485	8537.3
499.689	8617.17
499.892	8574.16
500.095	8867.02
500.298	9028.81
500.501	8631.51
500.705	9198.79
500.908	9262.28
501.111	9467.08
501.314	9352.39
501.517	9608.39
501.72	9694.4
501.923	9864.38
502.126	10009.79
502.329	10323.13
502.532	10284.22
502.735	10474.68
502.938	10380.47
503.141	10712.24
503.344	10943.66
503.547	10874.03
503.75	11119.79
503.953	11422.89
504.156	11257
504.359	11584.68
504.562	11502.76
504.765	11873.44
504.968	11928.74
505.17	12338.33
505.373	12133.53
505.576	12248.22
505.779	12629.14
505.982	12655.76
506.185	12956.82
506.387	12876.94
506.59	13212.81
506.793	13532.29
506.996	13329.55
507.198	13673.6
507.401	13761.67
507.604	13769.86
507.807	14150.78
508.009	14294.14
508.212	14361.72
508.415	14603.38
508.617	14699.64
508.82	14957.68
509.022	14945.39
509.225	15289.45
509.428	15629.41
509.63	15488.1
509.833	15633.51
510.035	15973.47
510.238	16282.72
510.44	16055.39
510.643	16604.25
510.845	16970.83
511.048	16878.68
511.25	17290.32
511.453	17103.95
511.655	17816.65
511.858	17443.92
512.06	17669.19
512.262	17908.8
512.465	17947.72
512.667	18353.21
512.87	18521.15
513.072	18658.36
513.274	18883.64
513.477	19336.24
513.679	19491.88
513.881	19850.28
514.084	19768.36
514.286	19770.41
514.488	19881
514.69	20538.4
514.893	20519.96
515.095	20685.85
515.297	20798.49
515.499	20859.93
515.701	21451.79
515.904	21695.5
516.106	21865.48
516.308	22025.22
516.51	22359.04
516.712	22303.74
516.914	22883.32
517.116	23139.32
517.318	22983.67
517.52	23466.99
517.722	23329.78
517.925	23862.25
518.127	24062.95
518.329	24157.16
518.531	24038.37
518.733	24620
518.935	24853.47
519.136	24783.84
519.338	25218
519.54	25263.06
519.742	25666.51
519.944	25684.94
520.146	26348.48
520.348	26076.1
520.55	26557.38
520.752	26743.74
520.954	27003.83
521.155	26584
521.357	27261.88
521.559	27300.79
521.761	28036.01
521.963	27722.67
522.164	27937.71
522.366	27894.7
522.568	28441.51
522.77	28799.9
522.971	28795.81
523.173	28879.77
523.375	29137.82
523.576	29010.84
523.778	29379.48
523.98	29617.04
524.181	29715.34
524.383	30036.87
524.584	30552.96
524.786	30012.3
524.988	30133.13
525.189	30415.75
525.391	30833.53
525.592	30684.03
525.794	31136.63
525.995	31210.36
526.197	31134.59
526.398	31226.74
526.6	31626.1
526.801	31884.14
527.003	32099.18
527.204	32054.12
527.406	32025.45
527.607	32258.92
527.808	32623.46
528.01	31765.36
528.211	32359.27
528.412	32525.16
528.614	32744.29
528.815	32865.12
529.016	32799.58
529.218	32820.06
529.419	33184.6
529.62	33588.05
529.822	32940.89
530.023	33440.6
530.224	33489.75
530.425	33389.4
530.626	33196.89
530.828	32926.56
531.029	34024.27
531.23	33565.53
531.431	33663.83
531.632	33704.79
531.833	33760.08
532.035	34009.93
532.236	33899.34
532.437	34050.89
532.638	33985.36
532.839	33966.93
533.04	34360.14
533.241	33956.69
533.442	34636.61
533.643	34206.54
533.844	34659.14
534.045	34472.78
534.246	34308.94
534.447	34544.45
534.648	34200.4
534.849	34468.68
535.05	34444.1
535.251	34601.8
535.451	34227.02
535.652	35371.83
535.853	34569.03
536.054	35140.41
536.255	34986.82
536.456	34622.28
536.657	35044.16
536.857	34679.62
537.058	34896.7
537.259	35021.63
537.46	35023.68
537.66	34638.66
537.861	35081.02
538.062	35171.13
538.263	35035.97
538.463	34847.55
538.664	34890.56
538.865	35502.9
539.065	35048.25
539.266	34851.65
539.466	35543.86
539.667	34960.19
539.868	35595.06
540.068	35197.76
540.269	35562.29
540.469	35377.98
540.67	34827.07
540.87	34988.86
541.071	35148.61
541.271	35394.36
541.472	35228.48
541.672	35257.15
541.873	35093.31
542.073	34894.66
542.274	35670.84
542.474	35375.93
542.675	34896.7
542.875	35384.12
543.075	35140.41
543.276	35083.07
543.476	35568.44
543.676	35240.76
543.877	35461.94
544.077	35480.38
544.277	35259.2
544.478	35373.88
544.678	35619.64
544.878	35566.39
545.078	35326.78
545.279	35269.44
545.479	35451.7
545.679	35468.09
545.879	35294.01
546.079	35334.97
546.28	35226.43
546.48	34757.44
546.68	35707.7
546.88	35418.94
547.08	35609.4
547.28	35334.97
547.48	35169.08
547.68	35717.94
547.88	35597.11
548.081	35416.89
548.281	35154.75
548.481	35363.64
548.681	35707.7
548.881	35547.96
549.081	35371.83
549.28	35445.56
549.48	35566.39
549.68	35244.86
549.88	35881.78
550.08	35263.29
550.28	35466.04
550.48	35109.69
550.68	35228.48
550.88	35320.63
551.08	35496.76
551.279	35713.84
551.479	35248.96
551.679	35375.93
551.879	35220.28
552.079	35826.48
552.278	35285.82
552.478	35185.47
552.678	35263.29
552.878	35693.36
553.077	35181.37
553.277	35199.8
553.477	35590.97
553.676	35113.79
553.876	35248.96
554.076	35259.2
554.275	35154.75
554.475	34706.24
554.674	35410.75
554.874	35281.72
555.074	35101.5
555.273	35042.11
555.473	35388.22
555.672	35007.3
555.872	35050.3
556.071	35105.6
556.271	35492.66
556.47	34800.45
556.67	34775.87
556.869	34962.24
557.068	34980.67
557.268	34655.04
557.467	35339.07
557.667	34724.68
557.866	34769.73
558.065	35056.45
558.265	34739.01
558.464	34792.26
558.663	35232.57
558.863	34675.52
559.062	35273.53
559.261	34673.48
559.461	35175.23
559.66	34290.51
559.859	34673.48
560.058	34730.82
560.258	34614.09
560.457	34333.51
560.656	34937.66
560.855	34409.29
561.054	34644.8
561.253	34216.78
561.453	34448.2
561.652	34583.37
561.851	34757.44
562.05	34521.93
562.249	34560.84
562.448	34745.16
562.647	34560.84
562.846	34255.69
563.045	34186.06
563.244	33858.38
563.443	34753.35
563.642	34044.75
563.841	34327.37
564.04	34405.19
564.239	34546.5
564.438	34061.13
564.637	34077.52
564.836	34188.11
565.035	33885.01
565.234	34061.13
565.432	33788.75
565.631	34327.37
565.83	34634.56
566.029	33770.32
566.228	33909.58
566.427	33704.79
566.625	34118.48
566.824	33352.54
567.023	34202.44
567.222	33481.56
567.42	33919.82
567.619	33631.06
567.818	33770.32
568.016	33649.49
568.215	33753.94
568.414	33545.05
568.612	33846.1
568.811	33882.96
569.01	33516.37
569.208	33192.79
569.407	33721.17
569.605	33176.41
569.804	33545.05
570.002	33264.47
570.201	33493.85
570.4	32977.76
570.598	33190.75
570.797	32924.51
570.995	33325.91
571.193	32940.89
571.392	33149.79
571.59	32723.81
571.789	32930.65
571.987	32944.99
572.186	32873.31
572.384	32822.11
572.582	32838.5
572.781	32744.29
572.979	32529.25
573.177	32639.84
573.376	32529.25
573.574	32721.76
573.772	32476.01
573.971	32803.68
574.169	32267.11
574.367	32379.75
574.565	32473.96
574.763	31865.71
574.962	32060.27
575.16	32076.65
575.358	32117.61
575.556	31619.95
575.754	32232.3
575.952	31452.02
576.151	31968.11
576.349	31441.78
576.547	31472.5
576.745	31718.26
576.943	31710.07
577.141	31638.39
577.339	31204.22
577.537	31388.53
577.735	31017.85
577.933	31075.2
578.131	31236.98
578.329	31343.48
578.527	30737.28
578.725	31030.14
578.923	31030.14
579.121	30784.38
579.319	30583.68
579.516	31007.61
579.714	30790.53
579.912	30727.04
580.11	30657.41
580.308	30518.15
580.506	30593.92
580.704	29973.39
580.901	30444.42
581.099	30694.27
581.297	30016.4
581.495	30274.44
581.692	30118.79
581.89	30137.23
582.088	30022.54
582.285	30020.49
582.483	29938.57
582.681	29873.04
582.878	29514.64
583.076	29463.44
583.274	29557.65
583.471	29180.82
583.669	29565.84
583.866	29348.76
584.064	29424.53
584.262	29272.98
584.459	29313.94
584.657	29078.43
584.854	29053.85
585.052	28494.75
585.249	29031.32
585.447	28943.26
585.644	28586.91
585.841	28900.25
586.039	28822.43
586.236	28150.7
586.434	28324.77
586.631	28273.57
586.828	28412.84
587.026	28445.6
587.223	28142.5
587.42	28029.87
587.618	28046.25
587.815	27894.7
588.012	27718.57
588.21	27583.41
588.407	28193.7
588.604	27558.83
588.801	27667.38
588.999	27800.49
589.196	27411.38
589.393	27474.87
589.59	27114.42
589.787	27392.95
589.984	27102.14
590.182	26868.67
590.379	27360.18
590.576	26655.68
590.773	26790.84
590.97	26731.45
591.167	26889.15
591.364	26530.75
591.561	26700.73
591.758	26362.82
591.955	26379.2
592.152	26637.25
592.349	26282.95
592.546	26426.31
592.743	26168.26
592.94	25977.8
593.137	26196.93
593.334	26067.91
593.531	25308.12
593.727	26020.81
593.924	26004.42
594.121	25648.08
594.318	26061.77
594.515	25553.87
594.712	25699.28
594.908	25304.02
595.105	25236.44
595.302	25195.48
595.499	25146.33
595.696	24962.01
595.892	24867.8
596.089	25080.79
596.286	25164.76
596.482	24789.98
596.679	25195.48
596.876	24587.23
597.072	24665.05
597.269	24703.96
597.466	24554.46
597.662	24366.05
597.859	24435.68
598.055	24429.54
598.252	24325.09
598.448	24394.72
598.645	24134.63
598.841	23987.18
599.038	23688.17
599.234	23839.72
599.431	23739.37
599.627	23694.32
599.824	24122.34
600.02	23917.54
600.217	23858.15
600.413	23385.07
600.609	23346.16
600.806	23311.35
601.002	23407.6
601.198	23200.76
601.395	22903.8
601.591	23055.35
601.787	23092.21
601.984	22979.57
602.18	23190.52
602.376	22533.12
602.572	22764.54
602.769	22580.22
602.965	22336.51
603.161	22735.87
603.357	22508.54
603.553	22246.4
603.75	22574.08
603.946	22418.43
604.142	22230.02
604.338	21865.48
604.534	22068.23
604.73	21797.9
604.926	21881.86
605.122	22236.16
605.318	21791.75
605.514	21509.13
605.71	21605.39
605.906	21898.25
606.102	21650.44
606.298	21505.04
606.494	21642.25
606.69	21634.06
606.886	21386.25
607.082	21150.74
607.278	21402.64
607.474	21009.43
607.67	21042.2
607.866	21111.83
608.062	21156.88
608.257	20966.42
608.453	21085.2
608.649	21277.71
608.845	20929.56
609.041	20909.08
609.236	20698.14
609.432	20861.97
609.628	20544.54
609.824	20583.45
610.019	20657.18
610.215	20460.57
610.411	20708.38
610.606	20376.61
610.802	20272.16
610.998	20442.14
611.193	20503.58
611.389	20298.78
611.584	20231.2
611.78	20175.91
611.976	19815.46
612.171	20333.6
612.367	19874.85
612.562	20001.83
612.758	19809.32
612.953	19713.06
613.149	20040.74
613.344	19530.8
613.539	19934.25
613.735	19813.41
613.93	19844.13
614.126	19678.25
614.321	19725.35
614.517	19649.58
614.712	19385.39
614.907	19620.91
615.103	19903.53
615.298	19409.97
615.493	19878.95
615.688	19127.35
615.884	19559.47
616.079	19178.54
616.274	19477.55
616.47	19401.77
616.665	19108.91
616.86	19123.25
617.055	19131.44
617.25	19065.91
617.445	19270.7
617.641	18590.78
617.836	19057.71
618.031	18412.6
618.226	18926.64
618.421	18631.74
618.616	18703.42
618.811	18574.39
619.006	18662.46
619.201	18076.74
619.396	18615.35
619.591	18046.02
619.786	18306.11
619.981	18000.96
620.176	17888.32
620.371	17697.86
620.566	18027.59
620.761	17589.32
620.956	18035.78
621.151	17646.66
621.346	17699.91
621.541	17316.94
621.735	17673.29
621.93	17001.55
622.125	17327.18
622.32	16970.83
622.515	17171.54
622.709	17015.89
622.904	16718.93
623.099	16837.72
623.294	17022.03
623.488	16622.68
623.683	16655.45
623.878	16223.33
624.072	16432.22
624.267	16297.05
624.462	16157.79
624.656	15985.76
624.851	16200.8
625.046	16028.77
625.24	16100.45
625.435	15684.71
625.629	15780.96
625.824	15703.14
626.018	15492.2
626.213	15213.68
626.407	15371.37
626.602	15105.13
626.796	15199.34
626.991	15101.04
627.185	15010.93
627.38	15109.23
627.574	14716.02
627.768	14775.41
627.963	14945.39
628.157	14879.86
628.352	14728.31
628.546	14316.67
628.74	14558.33
628.935	14058.62
629.129	14472.31
629.323	14146.69
629.517	14027.9
629.712	13997.18
629.906	14054.53
630.1	13837.44
630.294	13773.96
630.489	13812.87
630.683	13700.23
630.877	13497.48
631.071	13638.79
631.265	13739.14
631.459	13450.38
631.653	13554.82
631.848	13356.17
632.042	13311.11
632.236	13331.59
632.43	12946.58
632.624	12874.9
632.818	13063.31
633.012	12786.83
633.206	12928.14
633.4	12919.95
633.594	12672.15
633.788	12690.58
633.982	12432.54
634.176	12471.45
634.369	12461.21
634.563	12420.25
634.757	12524.69
634.951	12399.77
635.145	12307.61
635.339	12160.16
635.533	12055.71
635.726	12088.48
635.92	11912.35
636.114	11875.49
636.308	11832.48
636.501	11666.6
636.695	11840.67
636.889	11797.67
637.083	11531.43
637.276	11740.32
637.47	11455.65
637.664	11515.05
637.857	11539.62
638.051	11289.77
638.244	11175.08
638.438	11306.15
638.632	11121.84
638.825	11064.49
639.019	11115.69
639.212	10896.56
639.406	10558.64
639.599	10630.32
639.793	10669.23
639.986	10613.94
640.18	10763.44
640.373	10882.22
640.567	10425.53
640.76	10538.16
640.954	10507.44
641.147	10609.84
641.34	10454.2
641.534	10327.22
641.727	10104
641.92	10255.54
642.114	9893.05
642.307	10171.58
642.5	10138.81
642.694	9848
642.887	9600.19
643.08	9981.12
643.273	9632.96
643.467	9585.86
643.66	9594.05
643.853	9399.49
644.046	9407.69
644.239	9469.12
644.432	9467.08
644.626	9415.88
644.819	9309.38
645.012	9368.77
645.205	9360.58
645.398	9172.17
645.591	9057.48
645.784	9014.48
645.977	9063.63
646.17	9125.07
646.363	9000.14
646.556	8817.87
646.749	8752.34
646.942	8819.92
647.135	8735.95
647.328	8602.83
647.521	8475.86
647.714	8316.12
647.907	8539.35
648.099	8482
648.292	8309.97
648.485	8180.95
648.678	8234.2
648.871	8166.62
649.064	8230.1
649.256	8213.72
649.449	8017.12
649.642	8103.13
649.835	7945.44
650.027	7931.1
650.22	7806.17
650.413	7904.48
650.605	7855.33
650.798	7806.17
650.991	7824.61
651.183	7666.91
651.376	7761.12
651.568	7648.48
651.761	7433.44
651.954	7462.12
652.146	7431.4
652.339	7505.12
652.531	7431.4
652.724	7236.84
652.916	7314.66
653.109	7318.76
653.301	7011.56
653.494	7251.17
653.686	6909.16
653.879	7240.93
654.071	7068.91
654.263	6880.49
654.456	6857.96
654.648	6886.64
654.84	6763.76
655.033	6862.06
655.225	6669.55
655.417	6644.98
655.61	6704.37
655.802	6552.82
655.994	6636.78
656.186	6614.26
656.379	6388.98
656.571	6460.66
656.763	6495.47
656.955	6315.25
657.148	6407.41
657.34	6262.01
657.532	6302.97
657.724	6294.77
657.916	6216.95
658.108	6188.28
658.3	5948.67
658.492	6024.44
658.684	6120.7
658.876	5950.71
659.068	5883.13
659.26	5915.9
659.452	5995.77
659.644	5936.38
659.836	5739.77
660.028	5827.84
660.22	5678.33
660.412	5704.96
660.604	5649.66
660.796	5422.34
660.988	5680.38
661.18	5561.6
661.372	5311.75
661.563	5379.33
661.755	5313.8
661.947	5356.8
662.139	5262.6
662.331	5238.02
662.522	5078.28
662.714	5219.59
662.906	5102.86
663.097	5141.77
663.289	5031.18
663.481	5016.84
663.673	5217.54
663.864	5057.8
664.056	4959.5
664.247	4914.44
664.439	4754.7
664.631	4777.23
664.822	4738.32
665.014	4961.55
665.205	4914.44
665.397	4680.97
665.588	4723.98
665.78	4515.09
665.971	4578.58
666.163	4599.06
666.354	4619.53
666.546	4613.39
666.737	4363.54
666.929	4420.88
667.12	4355.35
667.311	4394.26
667.503	4394.26
667.694	4334.87
667.885	4252.95
668.077	4273.43
668.268	4414.74
668.459	4328.72
668.651	4304.15
668.842	4181.27
669.033	4048.15
669.224	4105.49
669.416	4097.3
669.607	4193.56
669.798	4064.54
669.989	4060.44
670.18	3906.84
670.371	4078.87
670.563	4044.06
670.754	3976.47
670.945	3976.47
671.136	3826.97
671.327	3892.51
671.518	3810.59
671.709	3759.39
671.9	3792.16
672.091	3669.28
672.282	3700
672.473	3730.72
672.664	3753.24
672.855	3546.4
673.046	3677.47
673.237	3718.43
673.428	3616.03
673.619	3470.62
673.809	3544.35
674	3570.97
674.191	3521.82
674.382	3587.36
674.573	3558.69
674.764	3374.37
674.954	3380.51
675.145	3427.62
675.336	3337.51
675.527	3468.58
675.717	3386.66
675.908	3448.1
676.099	3374.37
676.289	3321.12
676.48	3231.01
676.671	3261.73
676.861	3239.2
677.052	3271.97
677.243	3247.4
677.433	3319.07
677.624	3175.72
677.814	3136.81
678.005	3198.24
678.195	3091.75
678.386	3202.34
678.576	3124.52
678.767	3145
678.957	3056.93
679.148	3163.43
679.338	3091.75
679.529	3089.7
679.719	3024.17
679.909	3032.36
680.1	2999.59
680.29	3075.37
680.481	2946.34
680.671	3065.13
680.861	3022.12
681.052	2975.02
681.242	3011.88
681.432	2917.67
681.622	2915.62
681.813	2907.43
682.003	2899.24
682.193	2862.38
682.383	2938.15
682.573	2952.49
682.764	2905.39
682.954	2790.7
683.144	2946.34
683.334	2778.41
683.524	2950.44
683.714	2864.43
683.904	2897.19
684.094	2850.09
684.284	2841.9
684.474	2780.46
684.664	2848.04
684.854	2753.84
685.044	2845.99
685.234	2798.89
685.424	2723.12
685.614	2837.8
685.804	2790.7
685.994	2837.8
686.184	2739.5
686.374	2798.89
686.564	2731.31
686.753	2747.69
686.943	2653.48
687.133	2792.75
687.323	2692.4
687.513	2845.99
687.702	2770.22
687.892	2665.77
688.082	2759.98
688.272	2809.13
688.461	2831.66
688.651	2723.12
688.841	2696.49
689.03	2682.16
689.22	2755.88
689.41	2633.01
689.599	2721.07
689.789	2747.69
689.979	2667.82
690.168	2733.36
690.358	2643.24
690.547	2704.68
690.737	2712.88
690.926	2676.01
691.116	2571.57
691.305	2770.22
691.495	2633.01
691.684	2647.34
691.874	2440.5
692.063	2682.16
692.252	2667.82
692.442	2706.73
692.631	2540.85
692.82	2655.53
693.01	2661.68
693.199	2630.96
693.388	2534.7
693.578	2602.29
693.767	2620.72
693.956	2645.29
694.146	2565.42
694.335	2612.53
694.524	2561.33
694.713	2696.49
694.902	2598.19
695.092	2520.37
695.281	2497.84
695.47	2643.24
695.659	2614.57
695.848	2528.56
696.037	2592.05
696.226	2503.98
696.415	2553.13
696.604	2467.12
696.793	2413.87
696.982	2471.22
697.171	2508.08
697.36	2481.46
697.549	2409.78
697.738	2399.54
697.927	2379.06
698.116	2485.55
698.305	2524.46
698.494	2456.88
698.683	2344.24
698.872	2293.04
699.061	2391.34
699.25	2348.34
699.438	2452.78
699.627	2350.39
699.816	2286.9
700.005	2317.62
700.193	2192.69
700.382	2344.24
700.571	2293.04
700.76	2260.27
700.948	2405.68
701.137	2266.42
701.326	2348.34
701.514	2297.14
701.703	2211.12
701.892	2252.08
702.08	2217.27
702.269	2290.99
702.457	2067.77
702.646	2209.08
702.834	2225.46
703.023	2235.7
703.212	2194.74
703.4	2186.55
703.589	2157.88
703.777	2176.31
703.965	2080.05
704.154	2053.43
704.342	2043.19
704.531	1981.75
704.719	2096.44
704.907	2045.24
705.096	1983.8
705.284	2114.87
705.472	2026.81
705.661	1971.51
705.849	2051.38
706.037	2022.71
706.226	1981.75
706.414	1951.03
706.602	2026.81
706.79	1948.98
706.979	2032.95
707.167	1987.9
707.355	1908.02
707.543	1971.51
707.731	1989.94
707.919	2022.71
708.107	1887.54
708.296	1856.83
708.484	1873.21
708.672	1936.7
708.86	1883.45
709.048	1948.98
709.236	1908.02
709.424	1785.15
709.612	1819.96
709.8	1867.06
709.988	1883.45
710.176	1752.38
710.364	1787.19
710.551	1801.53
710.739	1713.47
710.927	1789.24
711.115	1824.06
711.303	1809.72
711.491	1721.66
711.679	1707.32
711.866	1813.82
712.054	1699.13
712.242	1738.04
712.43	1684.8
712.617	1760.57
712.805	1641.79
712.993	1711.42
713.181	1643.84
713.368	1680.7
713.556	1635.64
713.744	1641.79
713.931	1719.61
714.119	1615.16
714.306	1520.96
714.494	1613.12
714.682	1658.17
714.869	1574.21
715.057	1695.04
715.244	1531.2
715.432	1584.45
715.619	1750.33
715.807	1545.53
715.994	1555.77
716.182	1551.68
716.369	1553.73
716.556	1529.15
716.744	1461.57
716.931	1553.73
717.119	1520.96
717.306	1465.66
717.493	1414.46
717.681	1531.2
717.868	1432.9
718.055	1453.38
718.242	1482.05
718.43	1391.94
718.617	1445.18
718.804	1359.17
718.991	1455.42
719.179	1381.7
719.366	1299.78
719.553	1475.9
719.74	1443.14
719.927	1426.75
720.114	1350.98
720.301	1457.47
720.488	1338.69
720.676	1297.73
720.863	1295.68
721.05	1408.32
721.237	1346.88
721.424	1377.6
721.611	1346.88
721.798	1359.17
721.985	1293.63
722.172	1373.5
722.358	1221.95
722.545	1215.81
722.732	1305.92
722.919	1144.13
723.106	1273.15
723.293	1213.76
723.48	1209.67
723.667	1197.38
723.853	1199.43
724.04	1262.91
724.227	1254.72
724.414	1256.77
724.6	1207.62
724.787	1133.89
724.974	1224
725.161	1224
725.347	1097.03
725.534	1166.66
725.72	1160.52
725.907	1064.26
726.094	1252.67
726.28	1125.7
726.467	1111.36
726.653	1228.1
726.84	1111.36
727.027	1221.95
727.213	1146.18
727.4	1051.97
727.586	1256.77
727.773	1078.6
727.959	1027.4
728.145	1094.98
728.332	1105.22
728.518	1099.08
728.705	1023.3
728.891	1113.41
729.077	1004.87
729.264	1002.82
729.45	1062.21
729.636	1164.61
729.823	953.67
730.009	1037.64
730.195	1117.51
730.382	986.44
730.568	1015.11
730.754	1039.69
730.94	1035.59
731.126	1080.64
731.313	974.15
731.499	978.25
731.685	1076.55
731.871	1035.59
732.057	963.91
732.243	990.53
732.429	982.34
732.615	925
732.801	949.57
732.987	888.14
733.173	965.96
733.359	945.48
733.545	1017.16
733.731	939.34
733.917	918.86
734.103	970.05
734.289	945.48
734.475	898.38
734.661	945.48
734.847	871.75
735.033	830.79
735.219	877.9
735.404	959.81
735.59	843.08
735.776	892.23
735.962	961.86
736.148	920.9
736.333	900.42
736.519	875.85
736.705	910.66
736.89	834.89
737.076	918.86
737.262	816.46
737.447	836.94
737.633	777.55
737.819	898.38
738.004	816.46
738.19	845.13
738.375	904.52
738.561	898.38
738.747	861.51
738.932	791.88
739.118	836.94
739.303	847.18
739.489	763.21
739.674	855.37
739.859	685.39
740.045	765.26
740.23	779.59
740.416	744.78
740.601	795.98
740.786	738.63
740.972	716.11
741.157	838.98
741.342	795.98
741.528	707.91
741.713	750.92
741.898	820.55
742.084	709.96
742.269	689.48
742.454	687.43
742.639	746.83
742.824	703.82
743.01	712.01
743.195	699.72
743.38	742.73
743.565	626
743.75	748.87
743.935	656.72
744.12	662.86
744.305	695.63
744.49	730.44
744.675	767.31
744.86	603.47
745.045	730.44
745.23	656.72
745.415	652.62
745.6	701.77
745.785	648.52
745.97	597.32
746.155	720.2
746.34	617.8
746.525	638.28
746.71	626
746.895	652.62
747.079	697.67
747.264	675.15
747.449	646.48
747.634	597.32
747.819	603.47
748.003	548.17
748.188	507.21
748.373	609.61
748.557	517.45
748.742	617.8
748.927	626
749.111	521.55
749.296	595.28
749.481	601.42
749.665	550.22
749.85	507.21
750.034	556.36
750.219	550.22
750.404	517.45
750.588	556.36
750.773	566.6
750.957	519.5
751.141	535.89
751.326	558.41
751.51	515.41
751.695	550.22
751.879	501.07
752.064	537.93
752.248	597.32
752.432	669
752.617	521.55
752.801	599.37
752.985	462.16
753.17	488.78
753.354	423.25
753.538	501.07
753.722	433.49
753.907	582.99
754.091	519.5
754.275	492.88
754.459	472.4
754.643	554.32
754.828	445.77
755.012	494.93
755.196	494.93
755.38	376.14
755.564	355.66
755.748	505.17
755.932	509.26
756.116	492.88
756.3	437.58
756.484	521.55
756.668	429.39
756.852	470.35
757.036	441.68
757.22	453.97
757.404	499.02
757.588	421.2
757.772	480.59
757.956	398.67
758.14	458.06
758.323	378.19
758.507	429.39
758.691	421.2
758.875	447.82
759.059	437.58
759.242	421.2
759.426	445.77
759.61	423.25
759.794	392.53
759.977	460.11
760.161	421.2
760.345	378.19
760.528	353.62
760.712	419.15
760.895	374.1
761.079	460.11
761.263	429.39
761.446	386.38
761.63	425.29
761.813	394.58
761.997	431.44
762.18	451.92
762.364	380.24
762.547	347.47
762.731	400.72
762.914	421.2
763.098	388.43
763.281	404.82
763.464	388.43
763.648	359.76
763.831	339.28
764.015	292.18
764.198	419.15
764.381	408.91
764.564	367.95
764.748	335.18
764.931	423.25
765.114	388.43
765.297	333.14
765.481	331.09
765.664	390.48
765.847	343.38
766.03	345.42
766.213	322.9
766.397	374.1
766.58	351.57
766.763	413.01
766.946	337.23
767.129	326.99
767.312	353.62
767.495	351.57
767.678	308.56
767.861	419.15
768.044	394.58
768.227	310.61
768.41	353.62
768.593	464.21
768.776	347.47
768.959	310.61
769.142	355.66
769.324	353.62
769.507	351.57
769.69	394.58
769.873	351.57
770.056	333.14
770.239	341.33
770.421	372.05
770.604	404.82
770.787	384.34
770.97	357.71
771.152	378.19
771.335	361.81
771.518	304.46
771.7	269.65
771.883	365.9
772.066	331.09
772.248	288.08
772.431	281.94
772.613	335.18
772.796	322.9
772.978	251.22
773.161	310.61
773.343	275.79
773.526	357.71
773.708	306.51
773.891	206.16
774.073	322.9
774.256	277.84
774.438	286.03
774.621	310.61
774.803	378.19
774.985	238.93
775.168	329.04
775.35	247.12
775.532	310.61
775.715	261.46
775.897	247.12
776.079	322.9
776.261	263.51
776.444	296.27
776.626	304.46
776.808	257.36
776.99	275.79
777.173	226.64
777.355	259.41
777.537	212.31
777.719	322.9
777.901	339.28
778.083	269.65
778.265	288.08
778.447	263.51
778.629	300.37
778.811	263.51
778.993	269.65
779.175	292.18
779.357	308.56
779.539	251.22
779.721	187.73
779.903	263.51
780.085	269.65
780.267	255.31
780.449	269.65
780.631	222.55
780.812	216.4
780.994	228.69
781.176	228.69
781.358	283.99
781.54	304.46
781.721	238.93
781.903	236.88
782.085	222.55
782.267	277.84
782.448	191.83
782.63	240.98
782.812	279.89
782.993	232.79
783.175	251.22
783.357	236.88
783.538	208.21
783.72	220.5
783.901	161.11
784.083	245.07
784.264	249.17
784.446	206.16
784.627	249.17
784.809	175.44
784.99	169.3
785.172	322.9
785.353	230.74
785.535	193.87
785.716	271.7
785.897	243.03
786.079	171.35
786.26	224.59
786.441	226.64
786.623	169.3
786.804	216.4
786.985	208.21
787.167	175.44
787.348	132.44
787.529	249.17
787.71	210.26
787.891	161.11
788.073	212.31
788.254	189.78
788.435	130.39
788.616	234.83
788.797	189.78
788.978	165.2
789.159	183.63
789.34	181.59
789.522	136.53
789.703	144.72
789.884	232.79
790.065	189.78
790.246	169.3
790.427	165.2
790.607	134.48
790.788	206.16
790.969	152.92
791.15	179.54
791.331	142.68
791.512	222.55
791.693	132.44
791.874	157.01
792.054	226.64
792.235	208.21
792.416	169.3
792.597	138.58
792.778	159.06
792.958	169.3
793.139	177.49
793.32	122.2
793.5	189.78
793.681	181.59
793.862	132.44
794.042	114
794.223	128.34
794.404	118.1
794.584	87.38
794.765	173.39
794.945	120.15
795.126	150.87
795.306	138.58
795.487	79.19
795.667	85.33
795.848	122.2
796.028	109.91
796.209	126.29
796.389	114
796.57	187.73
796.75	142.68
796.93	93.52
797.111	124.24
797.291	173.39
797.471	138.58
797.652	159.06
797.832	34.13
798.012	181.59
798.192	105.81
798.373	73.04
798.553	103.76
798.733	150.87
798.913	111.96
799.093	163.15
799.274	154.96
799.454	136.53
799.634	93.52
799.814	128.34
799.994	183.63
800.174	48.47
800.354	124.24
800.534	48.47
800.714	114
800.894	124.24
801.074	116.05
801.254	107.86
801.434	142.68
801.614	91.48
801.794	95.57
801.974	333.14
802.154	167.25
802.334	105.81
802.514	169.3
802.693	42.32
802.873	60.76
803.053	114
803.233	126.29
803.413	97.62
803.592	118.1
803.772	148.82
803.952	83.28
804.131	132.44
804.311	109.91
804.491	109.91
804.67	91.48
804.85	81.24
805.03	142.68
805.209	79.19
805.389	71
805.568	130.39
805.748	62.8
805.928	99.67
806.107	128.34
806.287	91.48
806.466	130.39
806.646	101.72
806.825	73.04
807.004	111.96
807.184	58.71
807.363	208.21
807.543	32.08
807.722	120.15
807.901	58.71
808.081	114
808.26	40.28
808.439	101.72
808.619	103.76
808.798	111.96
808.977	50.52
809.156	95.57
809.336	111.96
809.515	169.3
809.694	60.76
809.873	60.76
810.052	89.43
810.231	144.72
810.411	60.76
810.59	97.62
810.769	44.37
810.948	85.33
811.127	116.05
811.306	85.33
811.485	40.28
811.664	122.2
811.843	60.76
812.022	56.66
812.201	19.8
812.38	144.72
812.559	17.75
812.737	75.09
812.916	36.18
813.095	52.56
813.274	34.13
813.453	109.91
813.632	77.14
813.811	60.76
813.989	89.43
814.168	167.25
814.347	25.94
814.526	107.86
814.704	89.43
814.883	120.15
815.062	54.61
815.24	27.99
815.419	60.76
815.598	64.85
815.776	25.94
815.955	44.37
816.133	42.32
816.312	146.77
816.49	50.52
816.669	40.28
816.847	95.57
817.026	66.9
817.204	77.14
817.383	34.13
817.561	99.67
817.74	111.96
817.918	75.09
818.097	56.66
818.275	46.42
818.453	118.1
818.632	44.37
818.81	32.08
818.988	23.89
819.167	36.18
819.345	60.76
819.523	5.46
819.701	152.92
819.879	48.47
820.058	36.18
820.236	36.18
820.414	103.76
820.592	128.34
820.77	79.19
820.948	103.76
821.127	93.52
821.305	120.15
821.483	60.76
821.661	73.04
821.839	15.7
822.017	103.76
822.195	15.7
822.373	89.43
822.551	50.52
822.729	75.09
822.907	23.89
823.085	85.33
823.262	71
823.44	91.48
823.618	109.91
823.796	183.63
823.974	68.95
824.152	27.99
824.329	-12.97
824.507	64.85
824.685	48.47
824.863	105.81
825.04	42.32
825.218	46.42
825.396	68.95
825.574	32.08
825.751	66.9
825.929	85.33
826.107	56.66
826.284	64.85
826.462	44.37
826.639	48.47
826.817	3.41
826.994	83.28
827.172	21.85
827.349	46.42
827.527	93.52
827.704	36.18
827.882	62.8
828.059	56.66
828.237	-15.02
828.414	46.42
828.591	15.7
828.769	44.37
828.946	21.85
829.124	13.65
829.301	25.94
829.478	36.18
829.655	44.37
829.833	30.04
830.01	1.37
830.187	99.67
830.364	71
830.542	38.23
830.719	21.85
830.896	71
831.073	54.61
831.25	42.32
831.427	-4.78
831.604	128.34
831.782	107.86
831.959	89.43
832.136	81.24
832.313	91.48
832.49	68.95
832.667	79.19
832.844	-41.64
833.021	21.85
833.198	17.75
833.374	87.38
833.551	25.94
833.728	44.37
833.905	116.05
834.082	54.61
834.259	-6.83
834.436	40.28
834.612	58.71
834.789	56.66
834.966	23.89
835.143	68.95
835.319	93.52
835.496	9.56
835.673	52.56
835.85	124.24
836.026	52.56
836.203	42.32
836.38	-12.97
836.556	118.1
836.733	75.09
836.909	52.56
837.086	-4.78
837.262	21.85
837.439	58.71
837.616	-6.83
837.792	19.8
837.968	44.37
838.145	-29.35
838.321	5.46
838.498	27.99
838.674	93.52
838.851	105.81
839.027	95.57
839.203	-4.78
839.38	75.09
839.556	-29.35
839.732	77.14
839.909	58.71
840.085	30.04
840.261	50.52
840.437	19.8
840.614	-19.11
840.79	75.09
840.966	66.9
841.142	27.99
841.318	71
841.494	-12.97
841.671	42.32
841.847	19.8
842.023	13.65
842.199	5.46
842.375	56.66
842.551	5.46
842.727	73.04
842.903	32.08
843.079	105.81
843.255	71
843.431	109.91
843.607	-4.78
843.783	15.7
843.959	-6.83
844.134	19.8
844.31	71
844.486	-55.98
844.662	27.99
844.838	77.14
845.013	48.47
845.189	52.56
845.365	36.18
845.541	44.37
845.716	68.95
845.892	-17.07
846.068	101.72
846.244	-21.16
846.419	-2.73
846.595	15.7
846.77	15.7
846.946	19.8
847.122	44.37
847.297	1.37
847.473	-2.73
847.648	-12.97
847.824	60.76
847.999	21.85
848.175	19.8
848.35	81.24
848.526	34.13
848.701	56.66
848.876	-17.07
849.052	-12.97
849.227	30.04
849.403	30.04
849.578	5.46
849.753	50.52
849.929	64.85
850.104	44.37
850.279	77.14
850.454	9.56
850.63	73.04
850.805	60.76
850.98	9.56
851.155	56.66
851.33	25.94
851.505	-17.07
851.681	-15.02
851.856	-21.16
852.031	1.37
852.206	11.61
852.381	44.37
852.556	54.61
852.731	27.99
852.906	-43.69
853.081	-19.11
853.256	23.89
853.431	15.7
853.606	1.37
853.781	44.37
853.956	-53.93
854.131	27.99
854.305	46.42
854.48	11.61
854.655	19.8
854.83	71
855.005	30.04
855.18	32.08
855.354	-4.78
855.529	-33.45
855.704	-21.16
855.879	27.99
856.053	34.13
856.228	62.8
856.403	-4.78
856.577	40.28
856.752	-12.97
856.926	11.61
857.101	54.61
857.276	46.42
857.45	-2.73
857.625	1.37
857.799	9.56
857.974	-29.35
858.148	-6.83
858.323	46.42
858.497	-25.26
858.672	7.51
858.846	-0.68
859.02	42.32
859.195	34.13
859.369	19.8
859.543	40.28
859.718	3.41
859.892	-2.73
860.066	89.43
860.241	38.23
860.415	56.66
860.589	7.51
860.763	44.37
860.938	-37.55
861.112	30.04
861.286	-33.45
861.46	27.99
861.634	-68.27
861.808	58.71
861.982	21.85
862.157	79.19
862.331	5.46
862.505	30.04
862.679	-72.36
862.853	19.8
863.027	44.37
863.201	71
863.375	-23.21
863.549	103.76
863.722	79.19
863.896	13.65
864.07	-0.68
864.244	58.71
864.418	77.14
864.592	116.05
864.766	44.37
864.939	15.7
865.113	34.13
865.287	19.8
865.461	25.94
865.634	3.41
865.808	52.56
865.982	30.04
866.156	27.99
866.329	-19.11
866.503	-8.87
866.676	44.37
866.85	52.56
867.024	62.8
867.197	54.61
867.371	-10.92
867.544	11.61
867.718	66.9
867.891	-6.83
868.065	17.75
868.238	-31.4
868.412	17.75
868.585	103.76
868.759	40.28
868.932	54.61
869.105	71
869.279	40.28
869.452	85.33
869.625	60.76
869.799	36.18
869.972	46.42
870.145	126.29
870.319	54.61
870.492	46.42
870.665	73.04
870.838	140.63
871.011	-70.31
871.185	46.42
871.358	40.28
871.531	83.28
871.704	3.41
871.877	17.75
872.05	40.28
872.223	46.42
872.396	54.61
872.569	-15.02
872.742	21.85
872.915	34.13
873.088	89.43
873.261	19.8
873.434	-29.35
873.607	54.61
873.78	-10.92
873.953	11.61
874.126	5.46
874.299	66.9
874.471	-2.73
874.644	11.61
874.817	34.13
874.99	77.14
875.163	-47.79
875.335	38.23
875.508	27.99
875.681	54.61
875.853	3.41
876.026	13.65
876.199	-21.16
876.371	27.99
876.544	-10.92
876.717	21.85
876.889	-15.02
877.062	62.8
877.234	-19.11
877.407	91.48
877.579	-43.69
877.752	11.61
877.924	27.99
878.097	42.32
878.269	44.37
878.442	13.65
878.614	25.94
878.786	7.51
878.959	17.75
879.131	-6.83
879.303	5.46
879.476	-29.35
879.648	-6.83
879.82	23.89
879.993	3.41
880.165	9.56
880.337	15.7
880.509	-10.92
880.681	-25.26
880.854	3.41
881.026	30.04
881.198	83.28
881.37	36.18
881.542	19.8
881.714	9.56
881.886	32.08
882.058	-35.5
882.23	91.48
882.402	-8.87
882.574	23.89
882.746	64.85
882.918	-47.79
883.09	62.8
883.262	25.94
883.434	46.42
883.606	36.18
883.778	-4.78
883.95	85.33
884.122	30.04
884.293	56.66
884.465	-47.79
884.637	23.89
884.809	3.41
884.98	11.61
885.152	73.04
885.324	114
885.496	21.85
885.667	21.85
885.839	13.65
886.011	27.99
886.182	5.46
886.354	21.85
886.525	-8.87
886.697	23.89
886.869	-19.11
887.04	17.75
887.212	11.61
887.383	46.42
887.555	25.94
887.726	60.76
887.897	52.56
888.069	46.42
888.24	64.85
888.412	73.04
888.583	-45.74
888.754	-19.11
888.926	15.7
889.097	40.28
889.268	42.32
889.44	27.99
889.611	1.37
889.782	-37.55
889.953	-0.68
890.125	19.8
890.296	-43.69
890.467	3.41
890.638	-58.03
890.809	50.52
890.98	-45.74
891.151	-58.03
891.323	36.18
891.494	34.13
891.665	15.7
891.836	-35.5
892.007	-19.11
892.178	23.89
892.349	17.75
892.52	-60.07
892.691	36.18
892.862	3.41
893.032	32.08
893.203	7.51
893.374	52.56
893.545	44.37
893.716	5.46
893.887	23.89
894.057	15.7
894.228	73.04
894.399	7.51
894.57	23.89
894.74	13.65
894.911	5.46
895.082	-12.97
895.253	34.13
895.423	7.51
895.594	46.42
895.764	-41.64
895.935	15.7
896.106	-23.21
896.276	52.56
896.447	95.57
896.617	-8.87
896.788	-53.93
896.958	11.61
897.129	-4.78
897.299	-43.69
897.47	-88.75
897.64	50.52
897.81	40.28
897.981	15.7
898.151	21.85
898.322	-19.11
898.492	-12.97
898.662	48.47
898.832	-4.78
899.003	15.7
899.173	-23.21
899.343	-19.11
899.513	15.7
