Data from USB4F104151__44__12-53-50-235.txt Node

Date: Fri Mar 14 12:53:50 EDT 2025
User: louis
Spectrometer: USB4F10415
Trigger mode: 4
Integration Time (sec): 1.000000E-2
Scans to average: 1
Electric dark correction enabled: true
Nonlinearity correction enabled: false
Boxcar width: 0
XAxis mode: Wavelengths
Number of Pixels in Spectrum: 3648
>>>>>Begin Spectral Data<<<<<
178.204	5.97
178.424	5.97
178.644	5.97
178.864	-12.46
179.084	-69.8
179.304	-51.37
179.524	8.02
179.744	28.5
179.964	-22.7
180.184	-30.89
180.404	42.84
180.624	16.21
180.844	-4.27
181.064	-34.99
181.283	32.6
181.503	34.64
181.723	-18.6
181.943	-98.47
182.163	-8.36
182.383	-16.55
182.602	36.69
182.822	-28.84
183.042	30.55
183.262	-16.55
183.482	106.32
183.701	63.32
183.921	-10.41
184.141	-65.71
184.361	51.03
184.58	55.12
184.8	5.97
185.02	-49.32
185.239	69.46
185.459	-24.75
185.679	28.5
185.898	-18.6
186.118	81.75
186.338	48.98
186.557	89.94
186.777	24.4
186.997	46.93
187.216	14.17
187.436	20.31
187.655	3.93
187.875	36.69
188.095	-28.84
188.314	38.74
188.534	10.07
188.753	10.07
188.973	-6.31
189.192	135
189.412	91.99
189.631	36.69
189.851	81.75
190.07	85.84
190.29	48.98
190.509	-24.75
190.729	34.64
190.948	34.64
191.168	108.37
191.387	40.79
191.607	-2.22
191.826	14.17
192.045	-6.31
192.265	59.22
192.484	-28.84
192.704	71.51
192.923	-2.22
193.142	96.08
193.362	73.56
193.581	22.36
193.8	-10.41
194.02	3.93
194.239	-43.18
194.458	-2.22
194.678	57.17
194.897	26.45
195.116	20.31
195.335	12.12
195.555	5.97
195.774	98.13
195.993	24.4
196.212	73.56
196.432	-24.75
196.651	46.93
196.87	-2.22
197.089	118.61
197.308	10.07
197.528	-10.41
197.747	-30.89
197.966	42.84
198.185	61.27
198.404	-10.41
198.623	34.64
198.842	89.94
199.062	-37.03
199.281	53.08
199.5	-20.65
199.719	71.51
199.938	71.51
200.157	-57.51
200.376	104.28
200.595	98.13
200.814	73.56
201.033	51.03
201.252	-71.85
201.471	46.93
201.69	40.79
201.909	46.93
202.128	71.51
202.347	-20.65
202.566	42.84
202.785	10.07
203.004	14.17
203.223	10.07
203.442	48.98
203.661	28.5
203.879	24.4
204.098	-4.27
204.317	-16.55
204.536	-0.17
204.755	-0.17
204.974	-22.7
205.193	16.21
205.411	40.79
205.63	1.88
205.849	-2.22
206.068	10.07
206.287	38.74
206.505	14.17
206.724	-16.55
206.943	20.31
207.162	-41.13
207.381	3.93
207.599	32.6
207.818	30.55
208.037	71.51
208.255	3.93
208.474	8.02
208.693	51.03
208.911	-24.75
209.13	16.21
209.349	73.56
209.567	28.5
209.786	65.36
210.005	87.89
210.223	46.93
210.442	-0.17
210.661	48.98
210.879	28.5
211.098	-24.75
211.316	28.5
211.535	61.27
211.753	5.97
211.972	22.36
212.191	-32.94
212.409	16.21
212.628	-32.94
212.846	-16.55
213.065	-22.7
213.283	83.8
213.502	-6.31
213.72	135
213.938	36.69
214.157	57.17
214.375	44.88
214.594	32.6
214.812	28.5
215.031	77.65
215.249	-49.32
215.467	20.31
215.686	69.46
215.904	-14.51
216.122	53.08
216.341	40.79
216.559	-10.41
216.778	57.17
216.996	14.17
217.214	53.08
217.432	-4.27
217.651	-4.27
217.869	48.98
218.087	1.88
218.306	85.84
218.524	24.4
218.742	38.74
218.96	38.74
219.179	42.84
219.397	-24.75
219.615	46.93
219.833	16.21
220.051	-67.75
220.27	12.12
220.488	53.08
220.706	14.17
220.924	57.17
221.142	1.88
221.36	42.84
221.578	53.08
221.796	53.08
222.015	-61.61
222.233	98.13
222.451	61.27
222.669	-20.65
222.887	65.36
223.105	-28.84
223.323	42.84
223.541	16.21
223.759	12.12
223.977	-2.22
224.195	34.64
224.413	30.55
224.631	94.04
224.849	-45.23
225.067	-24.75
225.285	69.46
225.503	34.64
225.721	38.74
225.939	98.13
226.157	26.45
226.375	10.07
226.592	57.17
226.81	-4.27
227.028	48.98
227.246	-10.41
227.464	106.32
227.682	14.17
227.9	67.41
228.117	-4.27
228.335	30.55
228.553	51.03
228.771	-4.27
228.989	-6.31
229.206	20.31
229.424	20.31
229.642	-12.46
229.86	-75.95
230.077	32.6
230.295	22.36
230.513	81.75
230.731	12.12
230.948	71.51
231.166	22.36
231.384	71.51
231.601	16.21
231.819	28.5
232.037	-10.41
232.254	-4.27
232.472	-2.22
232.689	79.7
232.907	-12.46
233.125	-37.03
233.342	12.12
233.56	-45.23
233.777	-28.84
233.995	-14.51
234.213	51.03
234.43	1.88
234.648	42.84
234.865	18.26
235.083	40.79
235.3	-26.79
235.518	53.08
235.735	-12.46
235.953	38.74
236.17	-18.6
236.388	61.27
236.605	-10.41
236.822	53.08
237.04	26.45
237.257	20.31
237.475	16.21
237.692	55.12
237.909	28.5
238.127	51.03
238.344	5.97
238.562	28.5
238.779	44.88
238.996	-26.79
239.214	16.21
239.431	30.55
239.648	71.51
239.865	8.02
240.083	-20.65
240.3	44.88
240.517	1.88
240.735	-4.27
240.952	12.12
241.169	-6.31
241.386	-30.89
241.603	28.5
241.821	10.07
242.038	-18.6
242.255	18.26
242.472	-18.6
242.689	28.5
242.907	-0.17
243.124	-12.46
243.341	30.55
243.558	-34.99
243.775	59.22
243.992	22.36
244.209	48.98
244.426	-20.65
244.643	38.74
244.86	124.76
245.078	55.12
245.295	69.46
245.512	69.46
245.729	-12.46
245.946	104.28
246.163	1.88
246.38	36.69
246.597	3.93
246.814	10.07
247.031	12.12
247.248	63.32
247.464	73.56
247.681	18.26
247.898	-6.31
248.115	46.93
248.332	24.4
248.549	51.03
248.766	83.8
248.983	22.36
249.2	28.5
249.417	91.99
249.633	10.07
249.85	51.03
250.067	73.56
250.284	34.64
250.501	8.02
250.717	51.03
250.934	-49.32
251.151	16.21
251.368	24.4
251.585	22.36
251.801	-4.27
252.018	3.93
252.235	102.23
252.451	-51.37
252.668	42.84
252.885	40.79
253.102	28.5
253.318	100.18
253.535	-2.22
253.752	24.4
253.968	3.93
254.185	10.07
254.401	3.93
254.618	48.98
254.835	12.12
255.051	151.38
255.268	-80.04
255.484	81.75
255.701	24.4
255.917	40.79
256.134	38.74
256.351	28.5
256.567	20.31
256.784	32.6
257	38.74
257.217	14.17
257.433	81.75
257.65	85.84
257.866	-14.51
258.082	-22.7
258.299	12.12
258.515	46.93
258.732	-80.04
258.948	-24.75
259.165	-10.41
259.381	8.02
259.597	-16.55
259.814	71.51
260.03	38.74
260.246	61.27
260.463	65.36
260.679	63.32
260.895	-20.65
261.112	-26.79
261.328	8.02
261.544	12.12
261.761	1.88
261.977	91.99
262.193	-45.23
262.409	20.31
262.626	20.31
262.842	36.69
263.058	48.98
263.274	-16.55
263.49	22.36
263.707	42.84
263.923	8.02
264.139	-12.46
264.355	10.07
264.571	67.41
264.787	89.94
265.004	71.51
265.22	96.08
265.436	30.55
265.652	22.36
265.868	42.84
266.084	34.64
266.3	48.98
266.516	18.26
266.732	28.5
266.948	-59.56
267.164	22.36
267.38	-2.22
267.596	-37.03
267.812	34.64
268.028	40.79
268.244	3.93
268.46	-61.61
268.676	-0.17
268.892	1.88
269.108	28.5
269.324	28.5
269.54	-20.65
269.756	16.21
269.972	-4.27
270.188	3.93
270.403	10.07
270.619	67.41
270.835	-47.27
271.051	-18.6
271.267	-4.27
271.483	89.94
271.698	26.45
271.914	48.98
272.13	10.07
272.346	40.79
272.562	-26.79
272.777	83.8
272.993	77.65
273.209	46.93
273.425	3.93
273.64	51.03
273.856	8.02
274.072	48.98
274.287	-18.6
274.503	48.98
274.719	51.03
274.934	34.64
275.15	20.31
275.366	16.21
275.581	-10.41
275.797	36.69
276.012	-12.46
276.228	22.36
276.444	3.93
276.659	61.27
276.875	8.02
277.09	12.12
277.306	26.45
277.521	59.22
277.737	61.27
277.952	98.13
278.168	-0.17
278.383	-10.41
278.599	-34.99
278.814	16.21
279.03	26.45
279.245	108.37
279.461	12.12
279.676	104.28
279.892	-10.41
280.107	-22.7
280.322	36.69
280.538	85.84
280.753	28.5
280.969	-2.22
281.184	79.7
281.399	73.56
281.615	59.22
281.83	1.88
282.045	28.5
282.26	-10.41
282.476	-16.55
282.691	65.36
282.906	12.12
283.122	20.31
283.337	20.31
283.552	51.03
283.767	57.17
283.983	1.88
284.198	26.45
284.413	28.5
284.628	22.36
284.843	57.17
285.058	69.46
285.274	65.36
285.489	26.45
285.704	-18.6
285.919	8.02
286.134	38.74
286.349	16.21
286.564	-0.17
286.779	-2.22
286.995	22.36
287.21	55.12
287.425	102.23
287.64	3.93
287.855	30.55
288.07	18.26
288.285	34.64
288.5	20.31
288.715	5.97
288.93	-20.65
289.145	40.79
289.36	-47.27
289.575	14.17
289.79	12.12
290.004	-0.17
290.219	12.12
290.434	130.9
290.649	-4.27
290.864	8.02
291.079	36.69
291.294	65.36
291.509	14.17
291.724	28.5
291.938	44.88
292.153	65.36
292.368	-8.36
292.583	38.74
292.798	3.93
293.012	87.89
293.227	20.31
293.442	73.56
293.657	14.17
293.871	53.08
294.086	-37.03
294.301	20.31
294.516	-67.75
294.73	48.98
294.945	24.4
295.16	30.55
295.374	73.56
295.589	-18.6
295.804	-2.22
296.018	32.6
296.233	34.64
296.447	81.75
296.662	-26.79
296.877	18.26
297.091	40.79
297.306	42.84
297.52	79.7
297.735	18.26
297.949	18.26
298.164	22.36
298.378	38.74
298.593	32.6
298.807	-22.7
299.022	53.08
299.236	71.51
299.451	-4.27
299.665	-65.71
299.88	24.4
300.094	53.08
300.309	59.22
300.523	28.5
300.737	-4.27
300.952	36.69
301.166	12.12
301.381	57.17
301.595	22.36
301.809	1.88
302.024	42.84
302.238	14.17
302.452	36.69
302.667	30.55
302.881	61.27
303.095	69.46
303.309	8.02
303.524	-39.08
303.738	48.98
303.952	51.03
304.166	42.84
304.381	-10.41
304.595	89.94
304.809	32.6
305.023	44.88
305.237	44.88
305.452	44.88
305.666	18.26
305.88	8.02
306.094	28.5
306.308	53.08
306.522	57.17
306.736	-2.22
306.95	71.51
307.164	89.94
307.379	1.88
307.593	14.17
307.807	-16.55
308.021	42.84
308.235	30.55
308.449	12.12
308.663	71.51
308.877	44.88
309.091	53.08
309.305	51.03
309.519	-30.89
309.733	32.6
309.947	69.46
310.161	48.98
310.374	-47.27
310.588	40.79
310.802	69.46
311.016	-18.6
311.23	46.93
311.444	38.74
311.658	-26.79
311.872	-14.51
312.085	51.03
312.299	61.27
312.513	61.27
312.727	42.84
312.941	-39.08
313.154	67.41
313.368	32.6
313.582	26.45
313.796	51.03
314.009	14.17
314.223	-32.94
314.437	44.88
314.651	28.5
314.864	104.28
315.078	36.69
315.292	14.17
315.505	18.26
315.719	87.89
315.933	32.6
316.146	46.93
316.36	14.17
316.573	14.17
316.787	53.08
317.001	73.56
317.214	-8.36
317.428	38.74
317.641	65.36
317.855	5.97
318.068	28.5
318.282	20.31
318.495	89.94
318.709	12.12
318.922	22.36
319.136	61.27
319.349	-14.51
319.563	28.5
319.776	44.88
319.99	83.8
320.203	8.02
320.417	18.26
320.63	73.56
320.843	46.93
321.057	28.5
321.27	18.26
321.483	28.5
321.697	61.27
321.91	48.98
322.124	57.17
322.337	55.12
322.55	59.22
322.763	71.51
322.977	83.8
323.19	20.31
323.403	104.28
323.617	20.31
323.83	65.36
324.043	-2.22
324.256	53.08
324.469	20.31
324.683	38.74
324.896	51.03
325.109	61.27
325.322	38.74
325.535	51.03
325.748	34.64
325.962	-16.55
326.175	73.56
326.388	34.64
326.601	30.55
326.814	36.69
327.027	-2.22
327.24	28.5
327.453	34.64
327.666	59.22
327.879	42.84
328.092	51.03
328.305	48.98
328.518	18.26
328.731	38.74
328.944	75.6
329.157	51.03
329.37	61.27
329.583	46.93
329.796	38.74
330.009	26.45
330.222	83.8
330.435	-37.03
330.648	-6.31
330.861	12.12
331.073	110.42
331.286	36.69
331.499	100.18
331.712	22.36
331.925	-8.36
332.138	18.26
332.35	61.27
332.563	28.5
332.776	16.21
332.989	3.93
333.202	-30.89
333.414	8.02
333.627	3.93
333.84	40.79
334.053	32.6
334.265	48.98
334.478	24.4
334.691	5.97
334.903	10.07
335.116	36.69
335.329	-10.41
335.541	73.56
335.754	42.84
335.966	8.02
336.179	46.93
336.392	16.21
336.604	44.88
336.817	-0.17
337.029	-22.7
337.242	42.84
337.454	114.52
337.667	38.74
337.88	126.8
338.092	89.94
338.305	28.5
338.517	51.03
338.729	5.97
338.942	44.88
339.154	91.99
339.367	36.69
339.579	26.45
339.792	22.36
340.004	63.32
340.217	63.32
340.429	96.08
340.641	38.74
340.854	26.45
341.066	24.4
341.278	30.55
341.491	36.69
341.703	65.36
341.915	53.08
342.128	5.97
342.34	71.51
342.552	44.88
342.764	8.02
342.977	10.07
343.189	3.93
343.401	40.79
343.613	42.84
343.826	42.84
344.038	28.5
344.25	89.94
344.462	91.99
344.674	44.88
344.886	67.41
345.099	20.31
345.311	67.41
345.523	32.6
345.735	30.55
345.947	14.17
346.159	44.88
346.371	28.5
346.583	36.69
346.795	75.6
347.007	3.93
347.219	-12.46
347.431	-16.55
347.643	53.08
347.855	73.56
348.067	75.6
348.279	61.27
348.491	5.97
348.703	102.23
348.915	16.21
349.127	55.12
349.339	44.88
349.551	67.41
349.763	81.75
349.975	16.21
350.187	118.61
350.399	71.51
350.61	106.32
350.822	-12.46
351.034	73.56
351.246	-32.94
351.458	63.32
351.669	48.98
351.881	46.93
352.093	100.18
352.305	16.21
352.517	53.08
352.728	36.69
352.94	22.36
353.152	42.84
353.363	42.84
353.575	71.51
353.787	38.74
353.999	55.12
354.21	67.41
354.422	73.56
354.633	-2.22
354.845	30.55
355.057	34.64
355.268	36.69
355.48	5.97
355.692	-59.56
355.903	91.99
356.115	61.27
356.326	61.27
356.538	51.03
356.749	175.95
356.961	112.47
357.172	-43.18
357.384	30.55
357.595	63.32
357.807	30.55
358.018	5.97
358.23	69.46
358.441	48.98
358.653	38.74
358.864	20.31
359.075	55.12
359.287	38.74
359.498	24.4
359.709	63.32
359.921	40.79
360.132	14.17
360.344	53.08
360.555	26.45
360.766	63.32
360.977	-24.75
361.189	46.93
361.4	44.88
361.611	61.27
361.823	20.31
362.034	34.64
362.245	-32.94
362.456	38.74
362.667	137.04
362.879	59.22
363.09	-37.03
363.301	53.08
363.512	57.17
363.723	63.32
363.935	53.08
364.146	67.41
364.357	24.4
364.568	14.17
364.779	-4.27
364.99	36.69
365.201	3.93
365.412	51.03
365.623	44.88
365.834	34.64
366.045	42.84
366.256	57.17
366.467	-2.22
366.678	-4.27
366.889	44.88
367.1	34.64
367.311	32.6
367.522	-4.27
367.733	85.84
367.944	57.17
368.155	116.56
368.366	24.4
368.577	38.74
368.788	22.36
368.999	18.26
369.209	67.41
369.42	94.04
369.631	63.32
369.842	96.08
370.053	38.74
370.264	-10.41
370.474	81.75
370.685	20.31
370.896	12.12
371.107	75.6
371.317	71.51
371.528	24.4
371.739	38.74
371.95	32.6
372.16	116.56
372.371	28.5
372.582	28.5
372.792	48.98
373.003	-14.51
373.214	57.17
373.424	59.22
373.635	-39.08
373.846	20.31
374.056	46.93
374.267	3.93
374.477	18.26
374.688	79.7
374.898	28.5
375.109	65.36
375.319	63.32
375.53	34.64
375.74	3.93
375.951	55.12
376.161	42.84
376.372	8.02
376.582	73.56
376.793	22.36
377.003	40.79
377.214	55.12
377.424	100.18
377.635	10.07
377.845	32.6
378.055	48.98
378.266	12.12
378.476	40.79
378.686	75.6
378.897	24.4
379.107	28.5
379.317	14.17
379.528	-53.42
379.738	24.4
379.948	-20.65
380.158	110.42
380.369	51.03
380.579	30.55
380.789	-2.22
380.999	30.55
381.21	32.6
381.42	73.56
381.63	94.04
381.84	55.12
382.05	32.6
382.261	73.56
382.471	69.46
382.681	16.21
382.891	61.27
383.101	51.03
383.311	51.03
383.521	5.97
383.731	44.88
383.941	102.23
384.151	108.37
384.361	94.04
384.571	12.12
384.781	114.52
384.991	32.6
385.201	77.65
385.411	24.4
385.621	81.75
385.831	46.93
386.041	96.08
386.251	28.5
386.461	40.79
386.671	85.84
386.881	73.56
387.091	55.12
387.301	69.46
387.511	73.56
387.72	28.5
387.93	36.69
388.14	30.55
388.35	61.27
388.56	118.61
388.769	51.03
388.979	130.9
389.189	16.21
389.399	63.32
389.609	98.13
389.818	61.27
390.028	36.69
390.238	3.93
390.447	71.51
390.657	57.17
390.867	46.93
391.076	28.5
391.286	48.98
391.496	57.17
391.705	55.12
391.915	104.28
392.125	22.36
392.334	34.64
392.544	81.75
392.753	8.02
392.963	112.47
393.172	85.84
393.382	110.42
393.591	36.69
393.801	59.22
394.01	61.27
394.22	75.6
394.429	18.26
394.639	36.69
394.848	77.65
395.058	81.75
395.267	112.47
395.477	69.46
395.686	73.56
395.895	57.17
396.105	130.9
396.314	57.17
396.524	112.47
396.733	10.07
396.942	3.93
397.152	98.13
397.361	22.36
397.57	94.04
397.78	96.08
397.989	81.75
398.198	53.08
398.407	91.99
398.617	83.8
398.826	14.17
399.035	159.57
399.244	71.51
399.453	63.32
399.663	63.32
399.872	30.55
400.081	108.37
400.29	153.43
400.499	81.75
400.708	67.41
400.917	42.84
401.127	30.55
401.336	18.26
401.545	94.04
401.754	108.37
401.963	100.18
402.172	-8.36
402.381	87.89
402.59	65.36
402.799	77.65
403.008	20.31
403.217	85.84
403.426	67.41
403.635	24.4
403.844	124.76
404.053	87.89
404.262	61.27
404.471	110.42
404.68	65.36
404.888	89.94
405.097	77.65
405.306	161.62
405.515	53.08
405.724	175.95
405.933	116.56
406.142	104.28
406.35	159.57
406.559	149.33
406.768	147.28
406.977	200.53
407.185	149.33
407.394	153.43
407.603	59.22
407.812	178
408.02	171.86
408.229	126.8
408.438	194.39
408.646	141.14
408.855	151.38
409.064	227.15
409.272	167.76
409.481	278.35
409.69	245.59
409.898	210.77
410.107	231.25
410.315	165.71
410.524	247.63
410.733	202.58
410.941	278.35
411.15	241.49
411.358	272.21
411.567	292.69
411.775	315.22
411.984	331.6
412.192	280.4
412.401	333.65
412.609	307.02
412.818	399.18
413.026	368.46
413.234	393.04
413.443	315.22
413.651	347.98
413.86	397.14
414.068	386.9
414.276	427.85
414.485	479.05
414.693	409.42
414.901	503.63
415.11	491.34
415.318	511.82
415.526	503.63
415.734	497.49
415.943	520.01
416.151	515.92
416.359	583.5
416.567	593.74
416.776	632.65
416.984	644.94
417.192	642.89
417.4	659.28
417.608	599.88
417.817	757.58
418.025	819.02
418.233	767.82
418.441	667.47
418.649	759.63
418.857	829.26
419.065	902.98
419.273	882.5
419.481	884.55
419.689	972.61
419.897	966.47
420.105	989
420.313	1091.4
420.521	1032.01
420.729	1032.01
420.937	1146.69
421.145	1130.31
421.353	1232.71
421.561	1300.29
421.769	1230.66
421.977	1374.02
422.185	1357.63
422.393	1445.7
422.601	1578.81
422.809	1515.33
423.017	1521.47
423.224	1646.4
423.432	1584.96
423.64	1742.65
423.848	1785.66
424.056	1763.13
424.263	1888.06
424.471	1961.78
424.679	1961.78
424.887	2004.79
425.094	2150.2
425.302	2039.61
425.51	2123.57
425.718	2207.54
425.925	2328.37
426.133	2340.66
426.341	2381.62
426.548	2639.66
426.756	2520.88
426.964	2549.55
427.171	2965.29
427.379	2772.78
427.586	2924.33
427.794	3122.98
428.001	3069.73
428.209	3321.63
428.417	3129.13
428.624	3342.11
428.832	3446.56
429.039	3383.07
429.247	3292.96
429.454	3706.65
429.662	4001.56
429.869	3794.72
430.076	4060.95
430.284	3737.37
430.491	4144.92
430.699	4337.43
430.906	4241.17
431.114	4470.55
431.321	4484.88
431.528	4568.85
431.736	4904.71
431.943	5113.61
432.15	5086.98
432.358	4978.44
432.565	5322.5
432.772	5342.98
432.979	5603.07
433.187	5633.79
433.394	5873.4
433.601	6147.83
433.808	5951.23
434.016	6115.06
434.223	6283
434.43	6831.85
434.637	6567.67
434.844	7167.72
435.052	7100.14
435.259	7212.78
435.466	7159.53
435.673	7141.1
435.88	7626.46
436.087	8103.64
436.294	7921.37
436.501	7796.45
436.708	8175.32
436.915	8208.09
437.122	8642.26
437.329	8636.11
437.537	8867.53
437.743	8916.69
437.95	8957.64
438.157	9287.37
438.364	9643.71
438.571	9563.84
438.778	9733.82
438.985	10546.87
439.192	10208.95
439.399	10661.55
439.606	10409.65
439.813	11005.61
440.02	11458.21
440.227	11499.17
440.433	11036.33
440.64	11669.16
440.847	11660.96
441.054	12095.13
441.261	12818.07
441.467	12523.16
441.674	12807.83
441.881	13252.24
442.088	13219.47
442.294	13029.01
442.501	13313.67
442.708	13844.1
442.914	14329.47
443.121	14845.55
443.328	14505.59
443.534	15640.17
443.741	15083.12
443.948	14839.41
444.154	16164.45
444.361	16121.44
444.568	16019.04
444.774	15912.55
444.981	16158.3
445.187	16658.01
445.394	17358.41
445.6	17102.42
445.807	18837.05
446.013	17790.53
446.22	18263.61
446.426	19203.63
446.633	19058.23
446.839	19893.8
447.046	19107.38
447.252	20012.58
447.459	20221.47
447.665	19975.72
447.871	21055
448.078	22212.1
448.284	20975.13
448.491	21515.79
448.697	22515.2
448.903	22783.48
449.11	22902.26
449.316	22812.15
449.522	22748.67
449.728	23612.91
449.935	23666.16
450.141	23838.19
450.347	24278.5
450.553	23524.85
450.76	23643.63
450.966	24579.55
451.172	24247.78
451.378	24903.13
451.584	24808.92
451.791	25023.96
451.997	24907.23
452.203	25521.62
452.409	25400.79
452.615	25341.39
452.821	24456.67
453.027	24382.95
453.233	25554.38
453.44	24542.69
453.646	24892.89
453.852	24980.95
454.058	25341.39
454.264	24589.79
454.47	25112.02
454.676	24655.33
454.882	25282
455.088	23365.1
455.294	23807.47
455.5	23940.58
455.705	24079.85
455.911	23150.07
456.117	22814.2
456.323	22672.89
456.529	21333.52
456.735	22169.09
456.941	21650.95
457.147	21411.34
457.352	20745.75
457.558	20491.8
457.764	20790.81
457.97	20278.82
458.176	19873.32
458.381	19760.68
458.587	18943.54
458.793	18908.72
458.999	17751.62
459.204	19064.37
459.41	18736.7
459.616	17315.41
459.821	17219.15
460.027	17219.15
460.233	16858.71
460.438	16154.21
460.644	16393.82
460.85	15642.21
461.055	15466.09
461.261	15287.92
461.466	14085.76
461.672	13758.08
461.878	14728.82
462.083	13768.32
462.289	13444.74
462.494	13487.75
462.7	12879.5
462.905	12586.65
463.111	12852.88
463.316	12797.59
463.522	12584.6
463.727	12570.26
463.932	12555.93
464.138	12703.38
464.343	12732.05
464.549	12287.64
464.754	12562.07
464.959	12451.48
465.165	12480.15
465.37	12013.21
465.575	11701.92
465.781	12207.77
465.986	12146.33
466.191	11832.99
466.397	11601.57
466.602	10948.27
466.807	11521.7
467.012	11607.72
467.218	11464.36
467.423	11308.71
467.628	11351.72
467.833	11943.58
468.038	11083.44
468.244	11114.16
468.449	11531.94
468.654	10950.32
468.859	10923.69
469.064	11134.64
469.269	10794.67
469.474	10708.66
469.679	10880.69
469.885	10720.95
470.09	10780.34
470.295	10469.05
470.5	10460.85
470.705	10303.16
470.91	10254.01
471.115	10141.37
471.32	10294.97
471.525	10260.15
471.73	9903.81
471.935	10073.79
472.139	9744.06
472.344	9576.13
472.549	9610.95
472.754	9647.81
472.959	9205.45
473.164	9098.95
473.369	8994.51
473.574	9277.13
473.778	9248.46
473.983	9150.15
474.188	8980.17
474.393	8625.87
474.598	8793.81
474.802	8646.35
475.007	8701.65
475.212	8670.93
475.417	8341.21
475.621	8234.71
475.826	8326.87
476.031	8040.15
476.235	8015.58
476.44	7999.2
476.645	7802.59
476.849	7974.62
477.054	7778.01
477.259	7667.42
477.463	7640.8
477.668	7565.03
477.872	7700.19
478.077	7280.36
478.282	7165.67
478.486	7294.69
478.691	7096.04
478.895	7214.82
479.1	7032.55
479.304	7231.21
479.509	6792.94
479.713	7087.85
479.918	6924.01
480.122	6815.47
480.326	6913.77
480.531	6928.11
480.735	6819.57
480.94	6614.77
481.144	6950.64
481.348	6625.01
481.553	6766.32
481.757	6586.1
481.961	6817.52
482.166	6708.97
482.37	6555.38
482.574	6514.42
482.778	6674.16
482.983	6586.1
483.187	6725.36
483.391	6731.5
483.595	6594.29
483.8	6569.71
484.004	6567.67
484.208	6508.27
484.412	6672.11
484.616	6573.81
484.821	6713.07
485.025	6579.95
485.229	6835.95
485.433	6625.01
485.637	6838
485.841	6530.8
486.045	6555.38
486.249	6874.86
486.453	6633.2
486.657	6559.47
486.861	6756.08
487.065	6715.12
487.269	6684.4
487.473	6708.97
487.677	6776.56
487.881	6678.26
488.085	6723.31
488.289	6778.61
488.493	6680.3
488.697	6846.19
488.901	6883.05
489.105	6854.38
489.309	6991.59
489.512	6860.52
489.716	6725.36
489.92	6907.63
490.124	6936.3
490.328	6885.1
490.531	6983.4
490.735	6960.88
490.939	6872.81
491.143	7206.63
491.346	7208.68
491.55	7237.35
491.754	7083.75
491.958	7198.44
492.161	7321.32
492.365	7171.82
492.569	7335.65
492.772	7261.93
492.976	7347.94
493.18	7393
493.383	7390.95
493.587	7692
493.79	7689.95
493.994	7655.14
494.197	7673.57
494.401	7694.05
494.605	7831.26
494.808	7870.17
495.012	7878.37
495.215	8228.57
495.419	7999.2
495.622	8132.31
495.825	8302.29
496.029	8203.99
496.232	8656.59
496.436	8459.99
496.639	8785.62
496.843	8752.85
497.046	8685.26
497.249	9000.65
497.453	8931.02
497.656	9082.57
497.859	9152.2
498.063	9238.22
498.266	9404.1
498.469	9615.04
498.673	9713.35
498.876	9721.54
499.079	9961.15
499.282	9760.45
499.485	9967.29
499.689	10301.11
499.892	10131.13
500.095	10249.91
500.298	10772.14
500.501	10684.08
500.705	10976.94
500.908	11118.25
501.111	11140.78
501.314	11220.65
501.517	11370.15
501.72	11714.21
501.923	11577
502.126	11939.49
502.329	12056.22
502.532	11914.91
502.735	12148.38
502.938	12203.68
503.141	12730
503.344	13026.96
503.547	13026.96
503.75	12930.7
503.953	13276.81
504.156	13282.95
504.359	13465.22
504.562	13645.45
504.765	13921.92
504.968	14124.67
505.17	14247.55
505.373	14216.83
505.576	14493.3
505.779	14868.08
505.982	14915.19
506.185	15271.53
506.387	15322.73
506.59	15351.4
506.793	15781.48
506.996	15777.38
507.198	16053.86
507.401	16270.94
507.604	16615
507.807	16758.36
508.009	16860.76
508.212	17024.59
508.415	17217.1
508.617	17438.28
508.82	17659.46
509.022	17827.4
509.225	18243.13
509.428	18298.43
509.63	18732.6
509.833	18343.49
510.035	19023.41
510.238	18943.54
510.44	19318.32
510.643	19295.79
510.845	19901.99
511.048	19869.22
511.25	20299.3
511.453	20180.51
511.655	21112.34
511.858	20766.23
512.06	20932.12
512.262	21081.62
512.465	21390.86
512.667	21612.04
512.87	21970.44
513.072	21796.36
513.274	22482.43
513.477	22908.41
513.679	22773.24
513.881	23102.96
514.084	23256.56
514.286	23584.24
514.488	23533.04
514.69	24260.07
514.893	24542.69
515.095	24350.18
515.297	24724.96
515.499	25048.54
515.701	25365.97
515.904	25671.12
516.106	25519.57
516.308	26033.61
516.51	26404.29
516.712	26240.45
516.914	26508.74
517.116	27225.53
517.318	27325.88
517.52	27432.37
517.722	27751.85
517.925	28186.02
518.127	28040.62
518.329	28198.31
518.531	28167.59
518.733	29101.47
518.935	29330.84
519.136	29035.93
519.338	29609.36
519.54	29765.01
519.742	29945.23
519.944	30518.66
520.146	30938.49
520.348	30670.21
520.55	30913.92
520.752	31169.91
520.954	31784.3
521.155	31812.98
521.357	31950.19
521.559	32386.41
521.761	32796
521.963	33000.8
522.164	33015.13
522.366	32941.41
522.568	33379.67
522.77	33439.06
522.971	34360.65
523.173	33424.73
523.375	34528.58
523.576	34356.55
523.778	34458.95
523.98	34616.65
524.181	35022.14
524.383	34741.57
524.584	35511.61
524.786	35523.9
524.988	35454.26
525.189	36054.32
525.391	36076.85
525.592	36291.88
525.794	36326.7
525.995	36562.22
526.197	36789.54
526.398	36945.19
526.6	37385.5
526.801	37307.68
527.003	37352.73
527.204	37375.26
527.406	37491.99
527.607	37557.53
527.808	38147.34
528.01	37502.23
528.211	38284.56
528.412	38800.65
528.614	38485.26
528.815	38612.23
529.016	39048.45
529.218	38624.52
529.419	38571.27
529.62	38753.54
529.822	38896.9
530.023	39101.7
530.224	39107.84
530.425	39312.64
530.626	39206.14
530.828	38933.76
531.029	39914.74
531.23	39341.31
531.431	39519.48
531.632	39542.01
531.833	39765.24
532.035	39603.45
532.236	39953.65
532.437	40164.59
532.638	40101.11
532.839	40484.08
533.04	40477.93
533.241	39816.44
533.442	40633.58
533.643	40221.94
533.844	40150.26
534.045	40760.55
534.246	40146.16
534.447	40512.75
534.648	40086.77
534.849	40570.09
535.05	40473.84
535.251	40807.65
535.451	40721.64
535.652	40668.39
535.853	40666.34
536.054	40701.16
536.255	41110.75
536.456	40375.53
536.657	41061.6
536.857	40828.13
537.058	40889.57
537.259	41301.22
537.46	41116.9
537.66	41012.45
537.861	41143.52
538.062	40643.82
538.263	41262.3
538.463	40877.29
538.664	41393.37
538.865	41077.99
539.065	41581.79
539.266	40971.49
539.466	41618.65
539.667	40869.09
539.868	41585.88
540.068	41340.13
540.269	41102.56
540.469	41684.19
540.67	41348.32
540.87	41213.15
541.071	41399.52
541.271	41204.96
541.472	41286.88
541.672	41250.02
541.873	40772.84
542.073	41080.03
542.274	41413.85
542.474	41518.3
542.675	41338.08
542.875	41784.54
543.075	41266.4
543.276	41376.99
543.476	41651.42
543.676	41329.89
543.877	41800.92
544.077	41526.49
544.277	41207.01
544.478	41391.33
544.678	41786.58
544.878	41456.86
545.078	41743.58
545.279	41252.06
545.479	41196.77
545.679	41571.55
545.879	41876.69
546.079	41487.58
546.28	41549.02
546.48	41639.13
546.68	41491.68
546.88	41948.37
547.08	41524.44
547.28	41450.72
547.48	41338.08
547.68	41653.47
547.88	41546.97
548.081	41667.8
548.281	42071.25
548.481	41483.48
548.681	42034.39
548.881	41680.09
549.081	41731.29
549.28	41303.26
549.48	41893.08
549.68	41757.91
549.88	41981.14
550.08	41657.56
550.28	41579.74
550.48	41610.46
550.68	42140.88
550.88	41452.76
551.08	41807.06
551.279	41782.49
551.479	41557.21
551.679	41704.66
551.879	41944.28
552.079	41589.98
552.278	41503.96
552.478	41348.32
552.678	41477.34
552.878	42157.27
553.077	41401.57
553.277	41166.05
553.477	42448.08
553.676	41807.06
553.876	41594.07
554.076	41704.66
554.275	41934.04
554.475	41225.44
554.674	41624.79
554.874	41694.43
555.074	41792.73
555.273	41489.63
555.473	41725.14
555.672	41049.31
555.872	41444.57
556.071	41209.06
556.271	41475.29
556.47	41413.85
556.67	41034.98
556.869	40944.87
557.068	41350.37
557.268	40860.9
557.467	41051.36
557.667	41133.28
557.866	41483.48
558.065	41325.79
558.265	40922.34
558.464	41250.02
558.663	41555.16
558.863	40342.77
559.062	41514.2
559.261	40506.6
559.461	41370.85
559.66	40434.92
559.859	41467.1
560.058	40756.46
560.258	41213.15
560.457	40387.82
560.656	41092.32
560.855	40869.09
561.054	40854.76
561.253	40901.86
561.453	40991.97
561.652	40770.79
561.851	40586.47
562.05	40772.84
562.249	40645.87
562.448	41014.5
562.647	40570.09
562.846	40811.75
563.045	40512.75
563.244	40293.61
563.443	41153.76
563.642	40195.31
563.841	40232.18
564.04	40342.77
564.239	40887.53
564.438	40385.77
564.637	40506.6
564.836	40652.01
565.035	40195.31
565.234	40189.17
565.432	40391.92
565.631	40312.05
565.83	40410.35
566.029	40336.62
566.228	40176.88
566.427	40183.02
566.625	40103.15
566.824	39859.45
567.023	40266.99
567.222	39308.54
567.42	40008.95
567.619	40092.91
567.818	39980.28
568.016	40164.59
568.215	40013.04
568.414	39775.48
568.612	40414.44
568.811	39972.08
569.01	39886.07
569.208	39435.52
569.407	39601.4
569.605	39267.58
569.804	39832.82
570.002	39503.1
570.201	39965.94
570.4	39267.58
570.598	39462.14
570.797	39279.87
570.995	39480.57
571.193	39052.55
571.392	39404.8
571.59	39156.99
571.789	38995.2
571.987	39075.07
572.186	39208.19
572.384	38995.2
572.582	39261.44
572.781	38944
572.979	38378.76
573.177	38794.5
573.376	38784.26
573.574	38397.2
573.772	38511.88
573.971	38487.31
574.169	37846.29
574.367	38014.23
574.565	38438.15
574.763	38210.83
574.962	37917.97
575.16	37965.07
575.358	37967.12
575.556	37367.07
575.754	38274.32
575.952	37381.4
576.151	37909.78
576.349	37219.61
576.547	37836.05
576.745	37608.73
576.943	37518.62
577.141	37461.27
577.339	37309.72
577.537	37086.5
577.735	37104.93
577.933	37367.07
578.131	36908.32
578.329	36887.84
578.527	36707.62
578.725	37027.1
578.923	36594.98
579.121	36687.14
579.319	36566.31
579.516	36547.88
579.714	36474.15
579.912	36549.93
580.11	36082.99
580.308	36279.6
580.506	35847.47
580.704	35720.5
580.901	36173.1
581.099	36373.8
581.297	35804.47
581.495	35800.37
581.692	36336.94
581.89	35564.85
582.088	36001.07
582.285	35130.69
582.483	35462.46
582.681	35355.96
582.878	35083.58
583.076	35116.35
583.274	35337.53
583.471	34913.6
583.669	34864.45
583.866	34739.52
584.064	35149.12
584.262	34305.35
584.459	34762.05
584.657	34608.45
584.854	34915.65
585.052	34211.15
585.249	34356.55
585.447	34538.82
585.644	33975.63
585.841	34241.87
586.039	34514.25
586.236	33844.56
586.434	34317.64
586.631	33906
586.828	33629.52
587.026	33803.6
587.223	33672.53
587.42	33195.35
587.618	33568.09
587.815	33351
588.012	32671.07
588.21	33111.39
588.407	33215.83
588.604	33252.7
588.801	32687.46
588.999	33041.76
589.196	32388.46
589.393	32900.45
589.59	32697.7
589.787	32361.83
589.984	32294.25
590.182	32298.34
590.379	32433.51
590.576	31894.89
590.773	32443.75
590.97	32179.56
591.167	32218.47
591.364	31675.76
591.561	31956.33
591.758	31673.71
591.955	31595.89
592.152	32267.62
592.349	31227.26
592.546	31704.43
592.743	31544.69
592.94	30883.2
593.137	31174.01
593.334	31270.26
593.531	30569.86
593.727	30981.5
593.924	30643.59
594.121	30702.98
594.318	31071.61
594.515	30344.58
594.712	30555.52
594.908	30397.83
595.105	30662.02
595.302	30107.02
595.499	30410.12
595.696	30229.9
595.892	30295.43
596.089	30190.98
596.286	29930.89
596.482	29887.89
596.679	29644.18
596.876	29582.74
597.072	29437.33
597.269	29793.68
597.466	29320.6
597.662	29443.48
597.859	29375.89
598.055	28956.06
598.252	29273.49
598.448	29269.4
598.645	28827.04
598.841	28634.53
599.038	28671.39
599.234	28554.66
599.431	28239.27
599.627	28335.52
599.824	28493.22
600.02	28249.51
600.217	28280.23
600.413	28186.02
600.609	28325.29
600.806	27735.47
601.002	28392.87
601.198	27999.66
601.395	27573.68
601.591	27655.6
601.787	27409.84
601.984	27549.1
602.18	27729.33
602.376	27184.57
602.572	27086.26
602.769	27563.44
602.965	26865.08
603.161	27119.03
603.357	26844.6
603.553	26897.85
603.75	26713.53
603.946	26408.39
604.142	26817.98
604.338	26453.44
604.534	26713.53
604.73	26365.38
604.926	26422.72
605.122	26498.5
605.318	26256.84
605.514	26146.25
605.71	26207.69
605.906	25832.91
606.102	25951.69
606.298	25998.79
606.494	25548.24
606.69	25685.45
606.886	25906.63
607.082	25312.72
607.278	25898.44
607.474	25263.57
607.67	25654.73
607.866	24956.38
608.062	25347.54
608.257	25275.86
608.453	25171.41
608.649	25146.84
608.845	25087.45
609.041	25142.74
609.236	24909.27
609.432	24792.54
609.628	25081.3
609.824	25050.58
610.019	24724.96
610.215	24722.91
610.411	25015.77
610.606	24673.76
610.802	24722.91
610.998	24583.65
611.193	24493.54
611.389	24292.83
611.584	24296.93
611.78	24253.92
611.976	24286.69
612.171	24405.47
612.367	24192.48
612.562	24192.48
612.758	23571.95
612.953	23967.21
613.149	23969.26
613.344	23455.22
613.539	24462.82
613.735	23670.25
613.93	23750.12
614.126	23434.74
614.321	23782.89
614.517	23674.35
614.712	23320.05
614.907	23387.63
615.103	23614.96
615.298	23262.71
615.493	23567.85
615.688	23377.39
615.884	23852.52
616.079	22801.91
616.274	23289.33
616.47	23166.45
616.665	22820.35
616.86	23117.3
617.055	23133.68
617.25	23123.44
617.445	23053.81
617.641	22662.65
617.836	22787.58
618.031	22509.05
618.226	22619.64
618.421	22355.46
618.616	22519.29
618.811	22140.42
619.006	22474.24
619.201	21886.47
619.396	22238.72
619.591	21659.15
619.786	21732.87
619.981	21634.57
620.176	21593.61
620.371	21757.45
620.566	21634.57
620.761	21687.82
620.956	21542.41
621.151	21081.62
621.346	21474.83
621.541	20885.01
621.735	20977.17
621.93	20657.69
622.125	20885.01
622.32	20534.81
622.515	20332.06
622.709	20315.68
622.904	20430.37
623.099	20200.99
623.294	20409.89
623.488	19838.5
623.683	20063.78
623.878	19598.89
624.072	19897.89
624.267	19541.55
624.462	19592.75
624.656	19502.64
624.851	19211.82
625.046	19131.95
625.24	19017.27
625.435	18892.34
625.629	19007.03
625.824	19043.89
626.018	18843.19
626.213	18361.92
626.407	18535.99
626.602	18460.22
626.796	18597.43
626.991	18384.44
627.185	18099.78
627.38	18003.52
627.574	17972.8
627.768	17462.86
627.963	17757.77
628.157	17542.73
628.352	17714.76
628.546	17337.93
628.74	17481.29
628.935	17684.04
629.129	17256.01
629.323	16983.63
629.517	16836.18
629.712	16895.57
629.906	16711.25
630.1	16653.91
630.294	16449.11
630.489	16528.99
630.683	16903.76
630.877	16393.82
631.071	16385.63
631.265	16301.66
631.459	16166.49
631.653	16080.48
631.848	16049.76
632.042	16051.81
632.236	15988.32
632.43	15687.27
632.624	15978.08
632.818	15433.32
633.012	15349.36
633.206	15513.19
633.4	15435.37
633.594	15111.79
633.788	15447.66
633.982	15187.57
634.176	15224.43
634.369	14913.14
634.563	14915.19
634.757	14843.51
634.951	15044.21
635.145	14669.43
635.339	14829.17
635.533	14573.17
635.726	14753.4
635.92	14270.08
636.114	14427.77
636.308	14282.36
636.501	14251.64
636.695	14200.44
636.889	14024.32
637.083	13770.37
637.276	13831.81
637.47	13829.76
637.664	13932.16
637.857	13547.14
638.051	13651.59
638.244	13479.56
638.438	13375.11
638.632	13080.21
638.825	13274.76
639.019	13164.17
639.212	13432.46
639.406	13301.39
639.599	12869.26
639.793	13354.63
639.986	12750.48
640.18	12852.88
640.373	12871.31
640.567	12664.47
640.76	12504.73
640.954	12539.54
641.147	12492.44
641.34	12238.49
641.534	12451.48
641.727	12283.55
641.92	12134.04
642.114	12093.08
642.307	12109.47
642.5	12162.72
642.694	11871.9
642.887	11900.58
643.08	11947.68
643.273	11716.26
643.467	11556.52
643.66	11763.36
643.853	11638.44
644.046	11345.58
644.239	11458.21
644.432	11323.05
644.626	11335.34
644.819	11353.77
645.012	11019.95
645.205	11189.93
645.398	11019.95
645.591	10997.42
645.784	10899.12
645.977	10768.05
646.17	10866.35
646.363	10647.22
646.556	10528.44
646.749	10716.85
646.942	10553.01
647.135	10383.03
647.328	10344.12
647.521	10485.43
647.714	10145.47
647.907	10313.4
648.099	10122.94
648.292	10211
648.485	9967.29
648.678	9885.37
648.871	10063.55
649.064	9780.93
649.256	9971.39
649.449	9658.05
649.642	9473.73
649.835	9680.58
650.027	9440.97
650.22	9481.92
650.413	9494.21
650.605	9545.41
650.798	9348.81
650.991	9486.02
651.183	9289.42
651.376	9111.24
651.568	9045.71
651.761	9076.43
651.954	8976.08
652.146	9131.72
652.339	8865.49
652.531	8826.57
652.724	8842.96
652.916	8394.45
653.109	8574.67
653.301	8615.63
653.494	8552.15
653.686	8439.51
653.879	8672.98
654.071	8392.41
654.263	8275.67
654.456	8472.28
654.648	8269.53
654.84	8027.87
655.033	8103.64
655.225	8218.33
655.417	8120.03
655.61	8101.59
655.802	8001.24
655.994	7882.46
656.186	7931.61
656.379	7878.37
656.571	7794.4
656.763	7671.52
656.955	7546.59
657.148	7755.49
657.34	7499.49
657.532	7413.48
657.724	7640.8
657.916	7431.91
658.108	7433.96
658.3	7329.51
658.492	7296.74
658.684	7288.55
658.876	7237.35
659.068	7239.4
659.26	7096.04
659.452	7290.6
659.644	6823.66
659.836	6946.54
660.028	6973.16
660.22	6774.51
660.412	6715.12
660.604	6635.25
660.796	6702.83
660.988	6557.43
661.18	6631.15
661.372	6555.38
661.563	6442.74
661.755	6424.31
661.947	6495.99
662.139	6289.14
662.331	6438.64
662.522	6278.9
662.714	6268.66
662.906	6213.37
663.097	6090.49
663.289	6051.58
663.481	5953.27
663.673	6031.1
663.864	5979.9
664.056	5908.22
664.247	5773.05
664.439	5775.1
664.631	5893.88
664.822	5801.72
665.014	5723.9
665.205	5650.18
665.397	5609.22
665.588	5543.68
665.78	5492.48
665.971	5539.58
666.163	5480.19
666.354	5488.39
666.546	5242.63
666.737	5297.92
666.929	5254.92
667.12	5156.61
667.311	5316.36
667.503	5207.81
667.694	5259.01
667.885	5074.7
668.077	5201.67
668.268	5062.41
668.459	5140.23
668.651	4990.73
668.842	5043.98
669.033	4886.28
669.224	4796.17
669.416	4871.95
669.607	4773.64
669.798	4736.78
669.989	4787.98
670.18	4923.15
670.371	4777.74
670.563	4697.87
670.754	4603.66
670.945	4572.94
671.136	4697.87
671.327	4585.23
671.518	4560.66
671.709	4558.61
671.9	4515.6
672.091	4558.61
672.282	4458.26
672.473	4374.29
672.664	4402.96
672.855	4321.04
673.046	4454.16
673.237	4359.95
673.428	4218.64
673.619	4288.28
673.809	4187.93
674	4267.8
674.191	4253.46
674.382	4194.07
674.573	4265.75
674.764	4101.91
674.954	4206.36
675.145	4204.31
675.336	4052.76
675.527	4136.73
675.717	4026.14
675.908	4030.23
676.099	3829.53
676.289	3921.69
676.48	3987.22
676.671	3899.16
676.861	4067.1
677.052	3884.83
677.243	3852.06
677.433	3714.84
677.624	3667.74
677.814	3888.92
678.005	3720.99
678.195	3819.29
678.386	3743.52
678.576	3870.49
678.767	3813.15
678.957	3807
679.148	3714.84
679.338	3817.24
679.529	3661.6
679.719	3809.05
679.909	3589.92
680.1	3538.72
680.29	3682.08
680.481	3424.03
680.671	3667.74
680.861	3643.17
681.052	3489.57
681.242	3444.51
681.432	3610.4
681.622	3338.02
681.813	3438.37
682.003	3372.83
682.193	3475.23
682.383	3471.14
682.573	3497.76
682.764	3503.9
682.954	3542.82
683.144	3510.05
683.334	3454.75
683.524	3471.14
683.714	3331.87
683.904	3378.98
684.094	3387.17
684.284	3444.51
684.474	3452.7
684.664	3471.14
684.854	3467.04
685.044	3292.96
685.234	3290.92
685.424	3378.98
685.614	3309.35
685.804	3315.49
685.994	3354.4
686.184	3247.91
686.374	3333.92
686.564	3292.96
686.753	3309.35
686.943	3376.93
687.133	3292.96
687.323	3426.08
687.513	3321.63
687.702	3331.87
687.892	3299.11
688.082	3342.11
688.272	3249.96
688.461	3223.33
688.651	3295.01
688.841	3239.72
689.03	3196.71
689.22	3141.41
689.41	3295.01
689.599	3145.51
689.789	3311.39
689.979	3192.61
690.168	3241.76
690.358	3241.76
690.547	3252
690.737	3245.86
690.926	3215.14
691.116	3118.89
691.305	3192.61
691.495	3174.18
691.684	3249.96
691.874	3194.66
692.063	3211.04
692.252	3182.37
692.442	3198.76
692.631	3141.41
692.82	3137.32
693.01	3147.56
693.199	3217.19
693.388	3053.35
693.578	3161.89
693.767	3235.62
693.956	3215.14
694.146	3174.18
694.335	3028.78
694.524	3131.17
694.713	3102.5
694.902	2953
695.092	3057.45
695.281	3114.79
695.47	3049.25
695.659	2998.06
695.848	2987.82
696.037	3034.92
696.226	2950.95
696.415	2977.58
696.604	2936.62
696.793	2936.62
696.982	2858.79
697.171	2971.43
697.36	3010.34
697.549	2895.66
697.738	2834.22
697.927	2901.8
698.116	2899.75
698.305	2893.61
698.494	2846.51
698.683	2819.88
698.872	2895.66
699.061	2809.64
699.25	2830.12
699.438	2785.07
699.627	2840.36
699.816	2817.83
700.005	2916.14
700.193	2848.55
700.382	2830.12
700.571	2740.01
700.76	2701.1
700.948	2733.87
701.137	2742.06
701.326	2668.33
701.514	2602.8
701.703	2694.96
701.892	2746.16
702.08	2580.27
702.269	2690.86
702.457	2596.65
702.646	2580.27
702.834	2686.76
703.023	2567.98
703.212	2434.86
703.4	2545.45
703.589	2563.89
703.777	2529.07
703.965	2555.69
704.154	2484.02
704.342	2529.07
704.531	2447.15
704.719	2516.78
704.907	2494.26
705.096	2381.62
705.284	2490.16
705.472	2387.76
705.661	2342.71
705.849	2293.55
706.037	2398
706.226	2412.34
706.414	2328.37
706.602	2395.95
706.79	2271.03
706.979	2365.23
707.167	2297.65
707.355	2375.47
707.543	2273.07
707.731	2318.13
707.919	2258.74
708.107	2322.23
708.296	2309.94
708.484	2215.73
708.672	2234.16
708.86	2260.79
709.048	2303.79
709.236	2289.46
709.424	2164.53
709.612	2150.2
709.8	2250.55
709.988	2125.62
710.176	2228.02
710.364	2078.52
710.551	2084.66
710.739	2103.09
710.927	2039.61
711.115	2037.56
711.303	1998.65
711.491	2137.91
711.679	2015.03
711.866	2031.41
712.054	2125.62
712.242	1984.31
712.43	2037.56
712.617	2058.04
712.805	1871.67
712.993	2008.89
713.181	1883.96
713.368	1902.39
713.556	1955.64
713.744	1986.36
713.931	1922.87
714.119	1879.86
714.306	1881.91
714.494	1914.68
714.682	1929.02
714.869	1922.87
715.057	1808.19
715.244	1797.95
715.432	1900.34
715.619	1826.62
715.807	1773.37
715.994	1871.67
716.182	1742.65
716.369	1763.13
716.556	1773.37
716.744	1793.85
716.931	1697.6
717.119	1750.84
717.306	1759.03
717.493	1709.88
717.681	1642.3
717.868	1759.03
718.055	1812.28
718.242	1724.22
718.43	1728.31
718.617	1769.27
718.804	1642.3
718.991	1699.64
719.179	1666.88
719.366	1621.82
719.553	1560.38
719.74	1574.72
719.927	1607.48
720.114	1505.09
720.301	1492.8
720.488	1632.06
720.676	1582.91
720.863	1537.85
721.05	1537.85
721.237	1523.52
721.424	1503.04
721.611	1490.75
721.798	1554.24
721.985	1441.6
722.172	1300.29
722.358	1505.09
722.545	1404.74
722.732	1570.62
722.919	1488.7
723.106	1548.09
723.293	1392.45
723.48	1402.69
723.667	1498.94
723.853	1384.26
724.04	1404.74
724.227	1363.78
724.414	1322.82
724.6	1380.16
724.787	1402.69
724.974	1392.45
725.161	1412.93
725.347	1275.71
725.534	1343.3
725.72	1328.96
725.907	1292.1
726.094	1275.71
726.28	1328.96
726.467	1232.71
726.653	1179.46
726.84	1259.33
727.027	1269.57
727.213	1308.48
727.4	1376.06
727.586	1294.15
727.773	1271.62
727.959	1251.14
728.145	1165.12
728.332	1212.23
728.518	1265.47
728.705	1259.33
728.891	1236.8
729.077	1214.27
729.264	1208.13
729.45	1201.99
729.636	1099.59
729.823	1230.66
730.009	1158.98
730.195	1218.37
730.382	1232.71
730.568	1105.73
730.754	1173.32
730.94	1120.07
731.126	1120.07
731.313	1154.88
731.499	1158.98
731.685	1107.78
731.871	1109.83
732.057	1165.12
732.243	1081.16
732.429	1077.06
732.615	1101.64
732.801	1068.87
732.987	1044.29
733.173	1060.68
733.359	1097.54
733.545	1064.77
733.731	1050.44
733.917	1056.58
734.103	1029.96
734.289	1044.29
734.475	1087.3
734.661	1036.1
734.847	945.99
735.033	1087.3
735.219	888.65
735.404	956.23
735.59	954.18
735.776	1003.33
735.962	1021.77
736.148	1023.81
736.333	1036.1
736.519	939.85
736.705	1023.81
736.89	974.66
737.076	986.95
737.262	974.66
737.447	870.22
737.633	919.37
737.819	978.76
738.004	894.79
738.19	964.42
738.375	884.55
738.561	1032.01
738.747	841.54
738.932	872.26
739.118	798.54
739.303	941.89
739.489	890.7
739.674	896.84
739.859	864.07
740.045	833.35
740.23	868.17
740.416	841.54
740.601	784.2
740.786	829.26
740.972	896.84
741.157	878.41
741.342	831.3
741.528	753.48
741.713	837.45
741.898	831.3
742.084	819.02
742.269	769.87
742.454	806.73
742.639	802.63
742.824	751.43
743.01	790.35
743.195	802.63
743.38	859.98
743.565	814.92
743.75	802.63
743.935	726.86
744.12	786.25
744.305	757.58
744.49	692.04
744.675	708.43
744.86	665.42
745.045	778.06
745.23	724.81
745.415	769.87
745.6	714.57
745.785	708.43
745.97	771.91
746.155	708.43
746.34	669.52
746.525	743.24
746.71	696.14
746.895	718.67
747.079	634.7
747.264	714.57
747.449	751.43
747.634	735.05
747.819	673.61
748.003	687.95
748.188	730.95
748.373	741.19
748.557	577.36
748.742	712.52
748.927	700.23
749.111	644.94
749.296	700.23
749.481	677.71
749.665	585.55
749.85	735.05
750.034	620.36
750.219	573.26
750.404	671.56
750.588	638.8
750.773	591.69
750.957	581.45
751.141	542.54
751.326	601.93
751.51	556.88
751.695	546.64
751.879	534.35
752.064	569.16
752.248	532.3
752.432	560.97
752.617	571.21
752.801	560.97
752.985	581.45
753.17	657.23
753.354	575.31
753.538	642.89
753.722	517.97
753.907	628.56
754.091	491.34
754.275	546.64
754.459	536.4
754.643	489.29
754.828	601.93
755.012	520.01
755.196	462.67
755.38	528.21
755.564	536.4
755.748	606.03
755.932	493.39
756.116	540.49
756.3	622.41
756.484	495.44
756.668	378.7
756.852	526.16
757.036	489.29
757.22	485.2
757.404	472.91
757.588	513.87
757.772	454.48
757.956	517.97
758.14	468.81
758.323	448.33
758.507	472.91
758.691	470.86
758.875	460.62
759.059	419.66
759.242	481.1
759.426	493.39
759.61	419.66
759.794	485.2
759.977	479.05
760.161	503.63
760.345	448.33
760.528	436.05
760.712	477.01
760.895	503.63
761.079	317.26
761.263	501.58
761.446	425.81
761.63	483.15
761.813	546.64
761.997	401.23
762.18	407.38
762.364	522.06
762.547	403.28
762.731	458.57
762.914	442.19
763.098	425.81
763.281	405.33
763.464	360.27
763.648	442.19
763.831	313.17
764.015	382.8
764.198	397.14
764.381	427.85
764.564	487.25
764.748	331.6
764.931	372.56
765.114	358.22
765.297	423.76
765.481	431.95
765.664	456.53
765.847	372.56
766.03	446.29
766.213	425.81
766.397	421.71
766.58	401.23
766.763	423.76
766.946	431.95
767.129	372.56
767.312	335.7
767.495	393.04
767.678	356.18
767.861	403.28
768.044	354.13
768.227	350.03
768.41	423.76
768.593	390.99
768.776	386.9
768.959	374.61
769.142	442.19
769.324	356.18
769.507	442.19
769.69	440.14
769.873	309.07
770.056	411.47
770.239	401.23
770.421	423.76
770.604	329.55
770.787	364.37
770.97	347.98
771.152	358.22
771.335	331.6
771.518	331.6
771.7	352.08
771.883	343.89
772.066	374.61
772.248	362.32
772.431	335.7
772.613	323.41
772.796	405.33
772.978	274.26
773.161	362.32
773.343	399.18
773.526	360.27
773.708	327.5
773.891	339.79
774.073	364.37
774.256	294.74
774.438	313.17
774.621	368.46
774.803	268.11
774.985	251.73
775.168	288.59
775.35	354.13
775.532	315.22
775.715	315.22
775.897	339.79
776.079	251.73
776.261	288.59
776.444	229.2
776.626	288.59
776.808	343.89
776.99	347.98
777.173	335.7
777.355	255.83
777.537	255.83
777.719	304.98
777.901	317.26
778.083	347.98
778.265	311.12
778.447	304.98
778.629	335.7
778.811	229.2
778.993	270.16
779.175	323.41
779.357	249.68
779.539	319.31
779.721	343.89
779.903	309.07
780.085	296.78
780.267	282.45
780.449	235.35
780.631	300.88
780.812	264.02
780.994	233.3
781.176	280.4
781.358	319.31
781.54	251.73
781.721	264.02
781.903	243.54
782.085	245.59
782.267	208.72
782.448	294.74
782.63	245.59
782.812	356.18
782.993	214.87
783.175	325.46
783.357	253.78
783.538	202.58
783.72	231.25
783.901	229.2
784.083	302.93
784.264	241.49
784.446	173.91
784.627	292.69
784.809	221.01
784.99	223.06
785.172	182.1
785.353	249.68
785.535	247.63
785.716	212.82
785.897	200.53
786.079	268.11
786.26	227.15
786.441	214.87
786.623	143.19
786.804	272.21
786.985	249.68
787.167	290.64
787.348	288.59
787.529	153.43
787.71	276.31
787.891	202.58
788.073	216.91
788.254	214.87
788.435	210.77
788.616	161.62
788.797	159.57
788.978	212.82
789.159	151.38
789.34	184.15
789.522	204.63
789.703	212.82
789.884	167.76
790.065	233.3
790.246	208.72
790.427	212.82
790.607	173.91
790.788	257.87
790.969	151.38
791.15	192.34
791.331	163.67
791.512	139.09
791.693	141.14
791.874	151.38
792.054	182.1
792.235	182.1
792.416	141.14
792.597	186.19
792.778	143.19
792.958	188.24
793.139	212.82
793.32	132.95
793.5	141.14
793.681	198.48
793.862	157.52
794.042	186.19
794.223	194.39
794.404	143.19
794.584	161.62
794.765	141.14
794.945	71.51
795.126	55.12
795.306	188.24
795.487	135
795.667	122.71
795.848	120.66
796.028	169.81
796.209	81.75
796.389	141.14
796.57	120.66
796.75	143.19
796.93	112.47
797.111	83.8
797.291	190.29
797.471	114.52
797.652	104.28
797.832	96.08
798.012	175.95
798.192	139.09
798.373	71.51
798.553	73.56
798.733	98.13
798.913	89.94
799.093	143.19
799.274	120.66
799.454	91.99
799.634	128.85
799.814	210.77
799.994	98.13
800.174	149.33
800.354	94.04
800.534	98.13
800.714	83.8
800.894	110.42
801.074	116.56
801.254	94.04
801.434	114.52
801.614	155.47
801.794	122.71
801.974	397.14
802.154	94.04
802.334	214.87
802.514	114.52
802.693	91.99
802.873	122.71
803.053	104.28
803.233	161.62
803.413	132.95
803.592	71.51
803.772	204.63
803.952	208.72
804.131	153.43
804.311	83.8
804.491	173.91
804.67	106.32
804.85	89.94
805.03	155.47
805.209	108.37
805.389	108.37
805.568	18.26
805.748	114.52
805.928	167.76
806.107	102.23
806.287	122.71
806.466	5.97
806.646	32.6
806.825	73.56
807.004	94.04
807.184	137.04
807.363	67.41
807.543	100.18
807.722	159.57
807.901	102.23
808.081	106.32
808.26	159.57
808.439	151.38
808.619	159.57
808.798	81.75
808.977	141.14
809.156	118.61
809.336	67.41
809.515	130.9
809.694	46.93
809.873	102.23
810.052	75.6
810.231	30.55
810.411	59.22
810.59	87.89
810.769	55.12
810.948	94.04
811.127	87.89
811.306	69.46
811.485	155.47
811.664	61.27
811.843	51.03
812.022	108.37
812.201	118.61
812.38	44.88
812.559	63.32
812.737	81.75
812.916	57.17
813.095	106.32
813.274	73.56
813.453	48.98
813.632	67.41
813.811	171.86
813.989	81.75
814.168	114.52
814.347	63.32
814.526	120.66
814.704	61.27
814.883	143.19
815.062	-32.94
815.24	73.56
815.419	106.32
815.598	18.26
815.776	110.42
815.955	51.03
816.133	26.45
816.312	26.45
816.49	112.47
816.669	61.27
816.847	157.52
817.026	77.65
817.204	94.04
817.383	122.71
817.561	57.17
817.74	137.04
817.918	32.6
818.097	69.46
818.275	151.38
818.453	69.46
818.632	73.56
818.81	3.93
818.988	28.5
819.167	36.69
819.345	12.12
819.523	53.08
819.701	79.7
819.879	83.8
820.058	94.04
820.236	57.17
820.414	44.88
820.592	22.36
820.77	98.13
820.948	46.93
821.127	30.55
821.305	89.94
821.483	89.94
821.661	77.65
821.839	61.27
822.017	-43.18
822.195	-26.79
822.373	-14.51
822.551	114.52
822.729	51.03
822.907	96.08
823.085	102.23
823.262	16.21
823.44	94.04
823.618	40.79
823.796	-2.22
823.974	69.46
824.152	53.08
824.329	22.36
824.507	26.45
824.685	44.88
824.863	118.61
825.04	-34.99
825.218	108.37
825.396	26.45
825.574	110.42
825.751	100.18
825.929	12.12
826.107	42.84
826.284	5.97
826.462	79.7
826.639	53.08
826.817	16.21
826.994	12.12
827.172	-6.31
827.349	65.36
827.527	12.12
827.704	69.46
827.882	24.4
828.059	73.56
828.237	-16.55
828.414	36.69
828.591	61.27
828.769	118.61
828.946	55.12
829.124	20.31
829.301	44.88
829.478	38.74
829.655	87.89
829.833	34.64
830.01	-14.51
830.187	3.93
830.364	122.71
830.542	-69.8
830.719	3.93
830.896	61.27
831.073	32.6
831.25	77.65
831.427	34.64
831.604	89.94
831.782	20.31
831.959	-4.27
832.136	61.27
832.313	44.88
832.49	51.03
832.667	79.7
832.844	38.74
833.021	-28.84
833.198	94.04
833.374	24.4
833.551	77.65
833.728	85.84
833.905	-16.55
834.082	36.69
834.259	3.93
834.436	51.03
834.612	85.84
834.789	44.88
834.966	57.17
835.143	12.12
835.319	53.08
835.496	81.75
835.673	71.51
835.85	26.45
836.026	51.03
836.203	26.45
836.38	8.02
836.556	53.08
836.733	28.5
836.909	32.6
837.086	5.97
837.262	48.98
837.439	59.22
837.616	61.27
837.792	34.64
837.968	46.93
838.145	67.41
838.321	51.03
838.498	69.46
838.674	22.36
838.851	63.32
839.027	20.31
839.203	3.93
839.38	32.6
839.556	-2.22
839.732	16.21
839.909	38.74
840.085	91.99
840.261	26.45
840.437	-24.75
840.614	55.12
840.79	30.55
840.966	1.88
841.142	3.93
841.318	51.03
841.494	8.02
841.671	40.79
841.847	22.36
842.023	55.12
842.199	53.08
842.375	89.94
842.551	30.55
842.727	28.5
842.903	-8.36
843.079	87.89
843.255	42.84
843.431	5.97
843.607	44.88
843.783	-12.46
843.959	34.64
844.134	28.5
844.31	12.12
844.486	48.98
844.662	-14.51
844.838	38.74
845.013	44.88
845.189	65.36
845.365	24.4
845.541	96.08
845.716	-4.27
845.892	36.69
846.068	63.32
846.244	24.4
846.419	48.98
846.595	24.4
846.77	12.12
846.946	5.97
847.122	46.93
847.297	14.17
847.473	69.46
847.648	44.88
847.824	14.17
847.999	51.03
848.175	38.74
848.35	53.08
848.526	53.08
848.701	36.69
848.876	81.75
849.052	30.55
849.227	36.69
849.403	38.74
849.578	12.12
849.753	24.4
849.929	20.31
850.104	44.88
850.279	110.42
850.454	38.74
850.63	104.28
850.805	12.12
850.98	51.03
851.155	-49.32
851.33	30.55
851.505	26.45
851.681	26.45
851.856	65.36
852.031	48.98
852.206	63.32
852.381	8.02
852.556	-16.55
852.731	-14.51
852.906	3.93
853.081	57.17
853.256	-0.17
853.431	20.31
853.606	-55.47
853.781	46.93
853.956	67.41
854.131	-14.51
854.305	-37.03
854.48	28.5
854.655	14.17
854.83	-53.42
855.005	12.12
855.18	1.88
855.354	22.36
855.529	61.27
855.704	77.65
855.879	81.75
856.053	-8.36
856.228	14.17
856.403	53.08
856.577	1.88
856.752	83.8
856.926	34.64
857.101	46.93
857.276	28.5
857.45	-4.27
857.625	3.93
857.799	-4.27
857.974	18.26
858.148	-0.17
858.323	14.17
858.497	73.56
858.672	-6.31
858.846	20.31
859.02	118.61
859.195	44.88
859.369	-45.23
859.543	-4.27
859.718	-22.7
859.892	-18.6
860.066	12.12
860.241	28.5
860.415	46.93
860.589	61.27
860.763	-32.94
860.938	-4.27
861.112	-4.27
861.286	32.6
861.46	-14.51
861.634	5.97
861.808	-32.94
861.982	32.6
862.157	24.4
862.331	-47.27
862.505	44.88
862.679	79.7
862.853	-37.03
863.027	46.93
863.201	-47.27
863.375	16.21
863.549	18.26
863.722	83.8
863.896	3.93
864.07	16.21
864.244	85.84
864.418	69.46
864.592	-43.18
864.766	-49.32
864.939	12.12
865.113	-0.17
865.287	-18.6
865.461	-22.7
865.634	10.07
865.808	14.17
865.982	48.98
866.156	1.88
866.329	-45.23
866.503	22.36
866.676	36.69
866.85	-57.51
867.024	1.88
867.197	24.4
867.371	-2.22
867.544	-6.31
867.718	3.93
867.891	-12.46
868.065	32.6
868.238	46.93
868.412	77.65
868.585	57.17
868.759	22.36
868.932	1.88
869.105	36.69
869.279	40.79
869.452	1.88
869.625	57.17
869.799	-22.7
869.972	-18.6
870.145	36.69
870.319	32.6
870.492	16.21
870.665	-59.56
870.838	59.22
871.011	14.17
871.185	-20.65
871.358	46.93
871.531	-53.42
871.704	3.93
871.877	-2.22
872.05	8.02
872.223	8.02
872.396	-10.41
872.569	36.69
872.742	8.02
872.915	83.8
873.088	100.18
873.261	34.64
873.434	12.12
873.607	1.88
873.78	55.12
873.953	-0.17
874.126	38.74
874.299	26.45
874.471	-10.41
874.644	81.75
874.817	91.99
874.99	-12.46
875.163	-24.75
875.335	-2.22
875.508	5.97
875.681	46.93
875.853	-12.46
876.026	83.8
876.199	14.17
876.371	-37.03
876.544	53.08
876.717	24.4
876.889	20.31
877.062	-26.79
877.234	-10.41
877.407	-6.31
877.579	63.32
877.752	42.84
877.924	67.41
878.097	-22.7
878.269	-18.6
878.442	24.4
878.614	-2.22
878.786	-10.41
878.959	30.55
879.131	65.36
879.303	-4.27
879.476	1.88
879.648	-20.65
879.82	53.08
879.993	-18.6
880.165	-20.65
880.337	-4.27
880.509	10.07
880.681	-14.51
880.854	28.5
881.026	79.7
881.198	108.37
881.37	32.6
881.542	-22.7
881.714	12.12
881.886	5.97
882.058	-18.6
882.23	10.07
882.402	-14.51
882.574	24.4
882.746	-16.55
882.918	-10.41
883.09	63.32
883.262	51.03
883.434	-30.89
883.606	28.5
883.778	24.4
883.95	77.65
884.122	-8.36
884.293	42.84
884.465	14.17
884.637	53.08
884.809	12.12
884.98	40.79
885.152	38.74
885.324	12.12
885.496	5.97
885.667	16.21
885.839	24.4
886.011	22.36
886.182	-69.8
886.354	-10.41
886.525	32.6
886.697	5.97
886.869	-55.47
887.04	63.32
887.212	20.31
887.383	5.97
887.555	-12.46
887.726	38.74
887.897	-18.6
888.069	28.5
888.24	81.75
888.412	55.12
888.583	8.02
888.754	14.17
888.926	-57.51
889.097	-6.31
889.268	-6.31
889.44	-2.22
889.611	-43.18
889.782	55.12
889.953	20.31
890.125	-61.61
890.296	10.07
890.467	-67.75
890.638	42.84
890.809	-73.9
890.98	51.03
891.151	57.17
891.323	-2.22
891.494	-20.65
891.665	61.27
891.836	34.64
892.007	-22.7
892.178	32.6
892.349	3.93
892.52	-32.94
892.691	-34.99
892.862	22.36
893.032	-51.37
893.203	34.64
893.374	75.6
893.545	-14.51
893.716	75.6
893.887	20.31
894.057	-2.22
894.228	-18.6
894.399	-0.17
894.57	5.97
894.74	63.32
894.911	-12.46
895.082	-0.17
895.253	-14.51
895.423	10.07
895.594	18.26
895.764	42.84
895.935	3.93
896.106	42.84
896.276	-14.51
896.447	36.69
896.617	-16.55
896.788	-65.71
896.958	-8.36
897.129	-22.7
897.299	59.22
897.47	44.88
897.64	48.98
897.81	3.93
897.981	-30.89
898.151	48.98
898.322	89.94
898.492	-30.89
898.662	12.12
898.832	18.26
899.003	10.07
899.173	3.93
899.343	40.79
899.513	-16.55
