Data from USB4F104151__78__12-54-43-098.txt Node

Date: Fri Mar 14 12:54:43 EDT 2025
User: louis
Spectrometer: USB4F10415
Trigger mode: 4
Integration Time (sec): 1.000000E-2
Scans to average: 1
Electric dark correction enabled: true
Nonlinearity correction enabled: false
Boxcar width: 0
XAxis mode: Wavelengths
Number of Pixels in Spectrum: 3648
>>>>>Begin Spectral Data<<<<<
178.204	-89.26
178.424	-89.26
178.644	-89.26
178.864	-27.82
179.084	-56.49
179.304	0.85
179.524	-7.34
179.744	-36.01
179.964	-9.39
180.184	-13.48
180.404	41.81
180.624	25.43
180.844	17.24
181.064	-87.21
181.283	90.96
181.503	-5.29
181.723	-17.58
181.943	-44.2
182.163	-36.01
182.383	-15.53
182.602	4.95
182.822	17.24
183.042	56.15
183.262	-31.91
183.482	33.62
183.701	-11.43
183.921	13.14
184.141	64.34
184.361	39.76
184.58	-40.11
184.8	15.19
185.02	15.19
185.239	27.48
185.459	-15.53
185.679	76.63
185.898	-124.07
186.118	31.57
186.338	-13.48
186.557	43.86
186.777	13.14
186.997	-36.01
187.216	-33.96
187.436	-44.2
187.655	9.05
187.875	-31.91
188.095	31.57
188.314	-33.96
188.534	-1.19
188.753	50
188.973	54.1
189.192	9.05
189.412	0.85
189.631	-11.43
189.851	-36.01
190.07	70.48
190.29	4.95
190.509	-7.34
190.729	52.05
190.948	41.81
191.168	78.68
191.387	11.09
191.607	-7.34
191.826	11.09
192.045	2.9
192.265	39.76
192.484	-40.11
192.704	37.72
192.923	-42.15
193.142	84.82
193.362	-19.63
193.581	11.09
193.8	105.3
194.02	35.67
194.239	64.34
194.458	19.29
194.678	-46.25
194.897	37.72
195.116	60.24
195.335	31.57
195.555	-25.77
195.774	25.43
195.993	-23.72
196.212	0.85
196.432	-9.39
196.651	-1.19
196.87	-48.3
197.089	74.58
197.308	2.9
197.528	-17.58
197.747	27.48
197.966	11.09
198.185	-62.63
198.404	-64.68
198.623	56.15
198.842	11.09
199.062	27.48
199.281	39.76
199.5	-31.91
199.719	50
199.938	2.9
200.157	50
200.376	-25.77
200.595	80.72
200.814	-29.87
201.033	58.2
201.252	4.95
201.471	62.29
201.69	11.09
201.909	23.38
202.128	35.67
202.347	-40.11
202.566	-17.58
202.785	-33.96
203.004	-33.96
203.223	-1.19
203.442	-40.11
203.661	-17.58
203.879	4.95
204.098	-33.96
204.317	-9.39
204.536	-93.35
204.755	52.05
204.974	47.96
205.193	4.95
205.411	80.72
205.63	-25.77
205.849	54.1
206.068	-33.96
206.287	-17.58
206.505	4.95
206.724	0.85
206.943	64.34
207.162	-17.58
207.381	-76.97
207.599	47.96
207.818	-15.53
208.037	62.29
208.255	4.95
208.474	2.9
208.693	2.9
208.911	47.96
209.13	33.62
209.349	23.38
209.567	41.81
209.786	35.67
210.005	7
210.223	4.95
210.442	-42.15
210.661	56.15
210.879	47.96
211.098	13.14
211.316	2.9
211.535	58.2
211.753	-7.34
211.972	-31.91
212.191	-36.01
212.409	37.72
212.628	47.96
212.846	-23.72
213.065	35.67
213.283	39.76
213.502	39.76
213.72	7
213.938	-7.34
214.157	15.19
214.375	45.91
214.594	4.95
214.812	17.24
215.031	15.19
215.249	-66.73
215.467	41.81
215.686	7
215.904	0.85
216.122	95.06
216.341	-21.67
216.559	19.29
216.778	0.85
216.996	39.76
217.214	7
217.432	-60.59
217.651	0.85
217.869	15.19
218.087	15.19
218.306	-1.19
218.524	11.09
218.742	-25.77
218.96	109.4
219.179	0.85
219.397	-25.77
219.615	58.2
219.833	52.05
220.051	-3.24
220.27	-44.2
220.488	11.09
220.706	-27.82
220.924	-3.24
221.142	-46.25
221.36	39.76
221.578	-81.07
221.796	62.29
222.015	-42.15
222.233	58.2
222.451	-46.25
222.669	-15.53
222.887	66.39
223.105	11.09
223.323	45.91
223.541	-9.39
223.759	19.29
223.977	-27.82
224.195	68.44
224.413	-33.96
224.631	0.85
224.849	31.57
225.067	58.2
225.285	17.24
225.503	84.82
225.721	-83.11
225.939	47.96
226.157	-3.24
226.375	31.57
226.592	29.52
226.81	9.05
227.028	138.07
227.246	41.81
227.464	2.9
227.682	72.53
227.9	7
228.117	47.96
228.335	7
228.553	11.09
228.771	7
228.989	54.1
229.206	-9.39
229.424	-11.43
229.642	-48.3
229.86	31.57
230.077	-21.67
230.295	62.29
230.513	64.34
230.731	23.38
230.948	56.15
231.166	-13.48
231.384	33.62
231.601	-66.73
231.819	-31.91
232.037	-13.48
232.254	35.67
232.472	25.43
232.689	-48.3
232.907	66.39
233.125	-48.3
233.342	52.05
233.56	-15.53
233.777	37.72
233.995	35.67
234.213	47.96
234.43	9.05
234.648	35.67
234.865	-15.53
235.083	11.09
235.3	9.05
235.518	33.62
235.735	2.9
235.953	-1.19
236.17	9.05
236.388	-83.11
236.605	72.53
236.822	-29.87
237.04	-5.29
237.257	39.76
237.475	-29.87
237.692	-36.01
237.909	13.14
238.127	-25.77
238.344	-31.91
238.562	0.85
238.779	4.95
238.996	-33.96
239.214	15.19
239.431	66.39
239.648	-62.63
239.865	33.62
240.083	105.3
240.3	19.29
240.517	17.24
240.735	66.39
240.952	23.38
241.169	2.9
241.386	-33.96
241.603	-11.43
241.821	21.33
242.038	27.48
242.255	56.15
242.472	29.52
242.689	-7.34
242.907	66.39
243.124	4.95
243.341	76.63
243.558	-48.3
243.775	9.05
243.992	17.24
244.209	52.05
244.426	-9.39
244.643	7
244.86	23.38
245.078	76.63
245.295	25.43
245.512	-19.63
245.729	25.43
245.946	-48.3
246.163	-1.19
246.38	-58.54
246.597	-11.43
246.814	-52.39
247.031	-38.06
247.248	13.14
247.464	58.2
247.681	33.62
247.898	52.05
248.115	-3.24
248.332	-52.39
248.549	-36.01
248.766	11.09
248.983	13.14
249.2	23.38
249.417	-9.39
249.633	-13.48
249.85	62.29
250.067	-15.53
250.284	-25.77
250.501	50
250.717	-25.77
250.934	-25.77
251.151	-21.67
251.368	31.57
251.585	41.81
251.801	56.15
252.018	-17.58
252.235	33.62
252.451	13.14
252.668	66.39
252.885	-11.43
253.102	60.24
253.318	35.67
253.535	7
253.752	-87.21
253.968	-42.15
254.185	-56.49
254.401	52.05
254.618	66.39
254.835	-46.25
255.051	62.29
255.268	2.9
255.484	17.24
255.701	23.38
255.917	52.05
256.134	-17.58
256.351	31.57
256.567	0.85
256.784	-5.29
257	23.38
257.217	-3.24
257.433	2.9
257.65	-31.91
257.866	47.96
258.082	43.86
258.299	39.76
258.515	27.48
258.732	-44.2
258.948	76.63
259.165	56.15
259.381	-15.53
259.597	25.43
259.814	-9.39
260.03	-72.87
260.246	15.19
260.463	-62.63
260.679	-23.72
260.895	-21.67
261.112	-48.3
261.328	-36.01
261.544	-25.77
261.761	76.63
261.977	-1.19
262.193	-1.19
262.409	-56.49
262.626	-29.87
262.842	-11.43
263.058	-13.48
263.274	-9.39
263.49	-15.53
263.707	78.68
263.923	-29.87
264.139	-38.06
264.355	39.76
264.571	31.57
264.787	29.52
265.004	-3.24
265.22	-15.53
265.436	-33.96
265.652	41.81
265.868	-9.39
266.084	93.01
266.3	25.43
266.516	35.67
266.732	25.43
266.948	-46.25
267.164	-1.19
267.38	43.86
267.596	-23.72
267.812	21.33
268.028	27.48
268.244	-7.34
268.46	27.48
268.676	39.76
268.892	-33.96
269.108	23.38
269.324	88.92
269.54	23.38
269.756	62.29
269.972	-72.87
270.188	84.82
270.403	88.92
270.619	72.53
270.835	-11.43
271.051	15.19
271.267	50
271.483	-38.06
271.698	19.29
271.914	-1.19
272.13	64.34
272.346	50
272.562	-42.15
272.777	11.09
272.993	15.19
273.209	-27.82
273.425	4.95
273.64	-7.34
273.856	-48.3
274.072	25.43
274.287	62.29
274.503	-58.54
274.719	-1.19
274.934	2.9
275.15	-15.53
275.366	7
275.581	7
275.797	35.67
276.012	50
276.228	37.72
276.444	31.57
276.659	-1.19
276.875	45.91
277.09	-48.3
277.306	66.39
277.521	17.24
277.737	-79.02
277.952	-7.34
278.168	37.72
278.383	2.9
278.599	-21.67
278.814	64.34
279.03	-25.77
279.245	54.1
279.461	37.72
279.676	47.96
279.892	25.43
280.107	52.05
280.322	-15.53
280.538	-46.25
280.753	41.81
280.969	-21.67
281.184	7
281.399	-5.29
281.615	19.29
281.83	62.29
282.045	15.19
282.26	7
282.476	9.05
282.691	29.52
282.906	84.82
283.122	27.48
283.337	-42.15
283.552	9.05
283.767	84.82
283.983	17.24
284.198	31.57
284.413	-7.34
284.628	-1.19
284.843	11.09
285.058	23.38
285.274	4.95
285.489	-40.11
285.704	13.14
285.919	15.19
286.134	56.15
286.349	66.39
286.564	-1.19
286.779	-1.19
286.995	56.15
287.21	-9.39
287.425	74.58
287.64	-19.63
287.855	60.24
288.07	29.52
288.285	-74.92
288.5	27.48
288.715	-1.19
288.93	-1.19
289.145	33.62
289.36	21.33
289.575	-42.15
289.79	0.85
290.004	39.76
290.219	2.9
290.434	21.33
290.649	-117.93
290.864	21.33
291.079	35.67
291.294	31.57
291.509	0.85
291.724	19.29
291.938	31.57
292.153	47.96
292.368	68.44
292.583	-7.34
292.798	72.53
293.012	17.24
293.227	27.48
293.442	37.72
293.657	39.76
293.871	58.2
294.086	-21.67
294.301	84.82
294.516	25.43
294.73	15.19
294.945	9.05
295.16	39.76
295.374	-3.24
295.589	47.96
295.804	-1.19
296.018	-27.82
296.233	9.05
296.447	-17.58
296.662	15.19
296.877	31.57
297.091	58.2
297.306	33.62
297.52	-19.63
297.735	-5.29
297.949	-36.01
298.164	9.05
298.378	-19.63
298.593	-25.77
298.807	35.67
299.022	2.9
299.236	19.29
299.451	-5.29
299.665	27.48
299.88	-1.19
300.094	47.96
300.309	-33.96
300.523	43.86
300.737	80.72
300.952	11.09
301.166	25.43
301.381	13.14
301.595	-17.58
301.809	41.81
302.024	50
302.238	-23.72
302.452	60.24
302.667	19.29
302.881	58.2
303.095	11.09
303.309	-17.58
303.524	41.81
303.738	-29.87
303.952	-31.91
304.166	-7.34
304.381	-40.11
304.595	17.24
304.809	27.48
305.023	70.48
305.237	-25.77
305.452	-21.67
305.666	66.39
305.88	90.96
306.094	33.62
306.308	74.58
306.522	19.29
306.736	45.91
306.95	58.2
307.164	13.14
307.379	-9.39
307.593	7
307.807	-5.29
308.021	-7.34
308.235	-5.29
308.449	-52.39
308.663	-15.53
308.877	101.2
309.091	2.9
309.305	-21.67
309.519	-33.96
309.733	17.24
309.947	37.72
310.161	-70.83
310.374	47.96
310.588	9.05
310.802	21.33
311.016	82.77
311.23	9.05
311.444	-21.67
311.658	45.91
311.872	41.81
312.085	-1.19
312.299	37.72
312.513	17.24
312.727	17.24
312.941	37.72
313.154	66.39
313.368	4.95
313.582	9.05
313.796	7
314.009	-3.24
314.223	7
314.437	2.9
314.651	23.38
314.864	47.96
315.078	-79.02
315.292	17.24
315.505	-15.53
315.719	-15.53
315.933	7
316.146	-9.39
316.36	-5.29
316.573	23.38
316.787	86.87
317.001	-3.24
317.214	-1.19
317.428	56.15
317.641	-40.11
317.855	58.2
318.068	35.67
318.282	84.82
318.495	9.05
318.709	-1.19
318.922	31.57
319.136	109.4
319.349	7
319.563	17.24
319.776	33.62
319.99	45.91
320.203	54.1
320.417	37.72
320.63	35.67
320.843	43.86
321.057	-5.29
321.27	80.72
321.483	15.19
321.697	-15.53
321.91	17.24
322.124	7
322.337	41.81
322.55	-33.96
322.763	-3.24
322.977	39.76
323.19	-54.44
323.403	9.05
323.617	66.39
323.83	52.05
324.043	11.09
324.256	13.14
324.469	70.48
324.683	70.48
324.896	-17.58
325.109	13.14
325.322	-62.63
325.535	103.25
325.748	-38.06
325.962	0.85
326.175	-19.63
326.388	54.1
326.601	82.77
326.814	31.57
327.027	88.92
327.24	-15.53
327.453	-9.39
327.666	45.91
327.879	35.67
328.092	29.52
328.305	-19.63
328.518	-58.54
328.731	-13.48
328.944	33.62
329.157	31.57
329.37	-29.87
329.583	31.57
329.796	117.59
330.009	17.24
330.222	76.63
330.435	41.81
330.648	41.81
330.861	41.81
331.073	23.38
331.286	-60.59
331.499	9.05
331.712	-7.34
331.925	25.43
332.138	11.09
332.35	17.24
332.563	-38.06
332.776	9.05
332.989	37.72
333.202	2.9
333.414	-5.29
333.627	52.05
333.84	0.85
334.053	47.96
334.265	25.43
334.478	27.48
334.691	15.19
334.903	11.09
335.116	33.62
335.329	56.15
335.541	25.43
335.754	21.33
335.966	-44.2
336.179	13.14
336.392	11.09
336.604	45.91
336.817	41.81
337.029	90.96
337.242	66.39
337.454	47.96
337.667	-27.82
337.88	72.53
338.092	-21.67
338.305	66.39
338.517	47.96
338.729	47.96
338.942	37.72
339.154	7
339.367	-105.64
339.579	0.85
339.792	41.81
340.004	-19.63
340.217	13.14
340.429	45.91
340.641	-9.39
340.854	-17.58
341.066	-36.01
341.278	-1.19
341.491	17.24
341.703	19.29
341.915	7
342.128	-9.39
342.34	15.19
342.552	-5.29
342.764	11.09
342.977	7
343.189	2.9
343.401	-23.72
343.613	7
343.826	-31.91
344.038	9.05
344.25	37.72
344.462	-5.29
344.674	-29.87
344.886	-25.77
345.099	13.14
345.311	72.53
345.523	-44.2
345.735	-33.96
345.947	33.62
346.159	11.09
346.371	74.58
346.583	13.14
346.795	-19.63
347.007	4.95
347.219	0.85
347.431	54.1
347.643	33.62
347.855	4.95
348.067	62.29
348.279	-33.96
348.491	15.19
348.703	56.15
348.915	-23.72
349.127	2.9
349.339	25.43
349.551	4.95
349.763	29.52
349.975	47.96
350.187	41.81
350.399	62.29
350.61	31.57
350.822	39.76
351.034	23.38
351.246	-81.07
351.458	33.62
351.669	39.76
351.881	78.68
352.093	62.29
352.305	-29.87
352.517	-36.01
352.728	2.9
352.94	39.76
353.152	29.52
353.363	15.19
353.575	74.58
353.787	-25.77
353.999	43.86
354.21	68.44
354.422	37.72
354.633	62.29
354.845	74.58
355.057	31.57
355.268	66.39
355.48	-21.67
355.692	58.2
355.903	-29.87
356.115	47.96
356.326	47.96
356.538	21.33
356.749	58.2
356.961	31.57
357.172	37.72
357.384	13.14
357.595	27.48
357.807	-9.39
358.018	39.76
358.23	4.95
358.441	37.72
358.653	7
358.864	-36.01
359.075	-81.07
359.287	7
359.498	2.9
359.709	39.76
359.921	23.38
360.132	56.15
360.344	9.05
360.555	68.44
360.766	-3.24
360.977	52.05
361.189	56.15
361.4	54.1
361.611	37.72
361.823	4.95
362.034	-19.63
362.245	19.29
362.456	-58.54
362.667	29.52
362.879	-17.58
363.09	62.29
363.301	88.92
363.512	-29.87
363.723	80.72
363.935	11.09
364.146	21.33
364.357	33.62
364.568	50
364.779	47.96
364.99	68.44
365.201	27.48
365.412	56.15
365.623	56.15
365.834	15.19
366.045	17.24
366.256	62.29
366.467	37.72
366.678	15.19
366.889	-31.91
367.1	-27.82
367.311	27.48
367.522	56.15
367.733	41.81
367.944	23.38
368.155	19.29
368.366	58.2
368.577	103.25
368.788	23.38
368.999	-31.91
369.209	60.24
369.42	97.11
369.631	15.19
369.842	45.91
370.053	70.48
370.264	-58.54
370.474	17.24
370.685	23.38
370.896	21.33
371.107	17.24
371.317	21.33
371.528	4.95
371.739	-9.39
371.95	-21.67
372.16	47.96
372.371	-3.24
372.582	-27.82
372.792	33.62
373.003	39.76
373.214	27.48
373.424	97.11
373.635	2.9
373.846	37.72
374.056	0.85
374.267	31.57
374.477	-7.34
374.688	23.38
374.898	15.19
375.109	66.39
375.319	19.29
375.53	19.29
375.74	17.24
375.951	37.72
376.161	27.48
376.372	31.57
376.582	-3.24
376.793	47.96
377.003	-74.92
377.214	25.43
377.424	33.62
377.635	45.91
377.845	-33.96
378.055	78.68
378.266	4.95
378.476	31.57
378.686	27.48
378.897	0.85
379.107	-3.24
379.317	64.34
379.528	-36.01
379.738	7
379.948	13.14
380.158	74.58
380.369	4.95
380.579	39.76
380.789	-40.11
380.999	47.96
381.21	47.96
381.42	90.96
381.63	-50.35
381.84	97.11
382.05	64.34
382.261	90.96
382.471	15.19
382.681	-3.24
382.891	29.52
383.101	15.19
383.311	-17.58
383.521	-23.72
383.731	27.48
383.941	15.19
384.151	41.81
384.361	-56.49
384.571	82.77
384.781	27.48
384.991	68.44
385.201	74.58
385.411	119.64
385.621	19.29
385.831	39.76
386.041	9.05
386.251	17.24
386.461	72.53
386.671	29.52
386.881	70.48
387.091	-23.72
387.301	47.96
387.511	-13.48
387.72	76.63
387.93	21.33
388.14	25.43
388.35	41.81
388.56	19.29
388.769	-21.67
388.979	33.62
389.189	64.34
389.399	101.2
389.609	41.81
389.818	72.53
390.028	-15.53
390.238	39.76
390.447	-9.39
390.657	25.43
390.867	70.48
391.076	107.35
391.286	29.52
391.496	33.62
391.705	21.33
391.915	-44.2
392.125	-25.77
392.334	64.34
392.544	2.9
392.753	39.76
392.963	-1.19
393.172	-9.39
393.382	64.34
393.591	93.01
393.801	47.96
394.01	43.86
394.22	35.67
394.429	58.2
394.639	74.58
394.848	99.16
395.058	23.38
395.267	84.82
395.477	-17.58
395.686	-3.24
395.895	50
396.105	60.24
396.314	33.62
396.524	105.3
396.733	72.53
396.942	23.38
397.152	78.68
397.361	62.29
397.57	-31.91
397.78	111.44
397.989	95.06
398.198	60.24
398.407	2.9
398.617	72.53
398.826	-5.29
399.035	7
399.244	25.43
399.453	70.48
399.663	29.52
399.872	88.92
400.081	99.16
400.29	86.87
400.499	119.64
400.708	54.1
400.917	56.15
401.127	88.92
401.336	-9.39
401.545	29.52
401.754	115.54
401.963	127.83
402.172	-3.24
402.381	-1.19
402.59	156.5
402.799	31.57
403.008	25.43
403.217	88.92
403.426	17.24
403.635	25.43
403.844	121.68
404.053	101.2
404.262	86.87
404.471	84.82
404.68	25.43
404.888	95.06
405.097	84.82
405.306	82.77
405.515	43.86
405.724	68.44
405.933	101.2
406.142	111.44
406.35	72.53
406.559	113.49
406.768	113.49
406.977	152.4
407.185	-9.39
407.394	111.44
407.603	97.11
407.812	105.3
408.02	148.31
408.229	97.11
408.438	45.91
408.646	156.5
408.855	150.36
409.064	76.63
409.272	105.3
409.481	142.16
409.69	115.54
409.898	183.12
410.107	127.83
410.315	209.75
410.524	203.6
410.733	250.71
410.941	205.65
411.15	205.65
411.358	213.84
411.567	144.21
411.775	242.51
411.984	228.18
412.192	252.75
412.401	226.13
412.609	279.38
412.818	330.58
413.026	215.89
413.234	265.04
413.443	277.33
413.651	228.18
413.86	295.76
414.068	295.76
414.276	334.67
414.485	318.29
414.693	289.62
414.901	383.82
415.11	353.1
415.318	351.06
415.526	351.06
415.734	426.83
415.943	383.82
416.151	353.1
416.359	486.22
416.567	406.35
416.776	478.03
416.984	521.04
417.192	498.51
417.4	518.99
417.608	492.37
417.817	584.52
418.025	637.77
418.233	643.92
418.441	570.19
418.649	635.72
418.857	611.15
419.065	607.05
419.273	625.48
419.481	805.71
419.689	744.27
419.897	791.37
420.105	768.84
420.313	809.8
420.521	838.47
420.729	768.84
420.937	883.53
421.145	940.87
421.353	1022.79
421.561	1055.56
421.769	1084.23
421.977	1198.92
422.185	1039.17
422.393	1108.8
422.601	1235.78
422.809	1137.48
423.017	1252.16
423.224	1325.89
423.432	1311.55
423.64	1327.94
423.848	1399.62
424.056	1391.42
424.263	1518.4
424.471	1481.53
424.679	1497.92
424.887	1618.75
425.094	1690.43
425.302	1639.23
425.51	1768.25
425.718	1762.11
425.925	1798.97
426.133	1925.94
426.341	1979.19
426.548	2036.53
426.756	2036.53
426.964	2087.73
427.171	2249.52
427.379	2315.06
427.586	2263.86
427.794	2417.46
428.001	2439.98
428.209	2644.78
428.417	2521.9
428.624	2669.36
428.832	2796.33
429.039	2777.9
429.247	2673.45
429.454	3048.23
429.662	3181.35
429.869	3035.94
430.076	3093.29
430.284	3201.83
430.491	3164.97
430.699	3361.57
430.906	3443.49
431.114	3398.43
431.321	3511.07
431.528	3687.2
431.736	3851.03
431.943	3945.24
432.15	3760.92
432.358	3982.1
432.565	4266.77
432.772	4252.44
432.979	4440.85
433.187	4596.5
433.394	4481.81
433.601	4838.16
433.808	4928.27
434.016	4666.13
434.223	4901.64
434.43	5337.86
434.637	5165.83
434.844	5677.82
435.052	5589.76
435.259	5696.25
435.466	5774.08
435.673	5636.86
435.88	5880.57
436.087	6253.3
436.294	6411
436.501	6124.28
436.708	6183.67
436.915	6454
437.122	6849.26
437.329	6785.77
437.537	6935.28
437.743	7213.8
437.95	6992.62
438.157	7459.56
438.364	7791.33
438.571	7658.21
438.778	7785.18
438.985	8331.99
439.192	8219.35
439.399	8456.92
439.606	8149.72
439.813	8786.64
440.02	9063.12
440.227	9018.06
440.433	9018.06
440.64	9298.63
440.847	9110.22
441.054	9405.13
441.261	10132.15
441.467	9870.01
441.674	10214.07
441.881	10625.72
442.088	10541.75
442.294	10488.5
442.501	10816.18
442.708	10861.23
442.914	11203.24
443.121	11958.94
443.328	11500.2
443.534	12313.24
443.741	12182.17
443.948	12024.48
444.154	12661.4
444.361	12780.18
444.568	12753.55
444.774	12868.24
444.981	12825.23
445.187	13269.64
445.394	13511.3
445.6	13560.45
445.807	14973.55
446.013	14463.61
446.22	14604.92
446.426	15145.58
446.633	15473.26
446.839	15989.35
447.046	15178.35
447.252	15968.87
447.459	16124.51
447.665	16198.24
447.871	16611.93
448.078	17576.52
448.284	16665.18
448.491	16986.71
448.697	17687.11
448.903	18340.41
449.11	18344.51
449.316	17994.31
449.522	18391.61
449.728	18790.97
449.935	18911.8
450.141	18924.08
450.347	19169.84
450.553	18489.92
450.76	18766.39
450.966	19556.91
451.172	19327.53
451.378	20056.61
451.584	19710.5
451.791	20027.94
451.997	20152.87
452.203	20593.18
452.409	20269.6
452.615	20138.53
452.821	19495.47
453.027	19208.75
453.233	20527.64
453.44	19382.83
453.646	19860.01
453.852	19939.88
454.058	20257.31
454.264	19397.17
454.47	20003.36
454.676	19507.76
454.882	20128.29
455.088	18555.45
455.294	18663.99
455.5	18973.24
455.705	19159.6
455.911	18328.13
456.117	17945.16
456.323	17877.57
456.529	16915.03
456.735	17590.86
456.941	17246.8
457.147	16765.53
457.352	16276.06
457.558	16325.21
457.764	16198.24
457.97	15817.32
458.176	15493.74
458.381	15334
458.587	14869.11
458.793	14836.34
458.999	14056.06
459.204	14959.22
459.41	14533.24
459.616	13662.85
459.821	13642.37
460.027	13507.21
460.233	13245.07
460.438	12747.41
460.644	12810.9
460.85	12182.17
461.055	12069.53
461.261	11883.17
461.466	11094.7
461.672	10543.8
461.878	11578.02
462.083	10728.11
462.289	10533.56
462.494	10533.56
462.7	10037.95
462.905	9689.79
463.111	10171.07
463.316	10107.58
463.522	10060.48
463.727	9810.62
463.932	9753.28
464.138	9882.3
464.343	9835.2
464.549	9425.61
464.754	10003.13
464.959	9779.9
465.165	9693.89
465.37	9286.34
465.575	9116.36
465.781	9343.69
465.986	9575.11
466.191	9132.75
466.397	8975.05
466.602	8657.62
466.807	8729.3
467.012	8790.74
467.218	8886.99
467.423	8805.07
467.628	8858.32
467.833	8979.15
468.038	8788.69
468.244	8678.1
468.449	8837.84
468.654	8506.07
468.859	8532.69
469.064	8520.4
469.269	8252.12
469.474	8049.37
469.679	8440.53
469.885	8073.95
470.09	8288.98
470.295	8258.26
470.5	8168.15
470.705	8143.58
470.91	7875.29
471.115	7840.48
471.32	8133.34
471.525	8032.99
471.73	7776.99
471.935	7748.32
472.139	7369.44
472.344	7641.82
472.549	7404.26
472.754	7500.51
472.959	7322.34
473.164	7027.43
473.369	7088.87
473.574	7277.29
473.778	7273.19
473.983	6996.71
474.188	7099.11
474.393	6927.08
474.598	6787.82
474.802	6789.87
475.007	6605.55
475.212	6726.38
475.417	6363.89
475.621	6361.84
475.826	6259.45
476.031	6224.63
476.235	6130.42
476.44	6365.94
476.645	6359.8
476.849	6093.56
477.054	6146.81
477.259	6009.59
477.463	5888.76
477.668	5939.96
477.872	5962.49
478.077	5804.8
478.282	5710.59
478.486	5579.52
478.691	5638.91
478.895	5552.9
479.1	5610.24
479.304	5569.28
479.509	5374.72
479.713	5489.41
479.918	5389.06
480.122	5239.56
480.326	5427.97
480.531	5495.55
480.735	5339.91
480.94	5298.95
481.144	5505.79
481.348	5118.73
481.553	5212.93
481.757	5208.84
481.961	5356.29
482.166	5270.28
482.37	5225.22
482.574	5237.51
482.778	5180.17
482.983	5362.44
483.187	5341.96
483.391	5077.77
483.595	5233.41
483.8	5049.1
484.004	5182.21
484.208	5120.78
484.412	5206.79
484.616	5243.65
484.821	5094.15
485.025	5262.09
485.229	5319.43
485.433	5243.65
485.637	5200.65
485.841	5227.27
486.045	5141.25
486.249	5243.65
486.453	5135.11
486.657	5217.03
486.861	5305.09
487.065	5088.01
487.269	5110.54
487.473	5184.26
487.677	5088.01
487.881	5223.17
488.085	5163.78
488.289	5178.12
488.493	5167.88
488.697	5395.2
488.901	5061.38
489.105	5147.4
489.309	5206.79
489.512	5260.04
489.716	5395.2
489.92	5286.66
490.124	5372.68
490.328	5454.59
490.531	5235.46
490.735	5522.18
490.939	5415.68
491.143	5356.29
491.346	5307.14
491.55	5475.07
491.754	5399.3
491.958	5489.41
492.161	5550.85
492.365	5528.32
492.569	5526.27
492.772	5495.55
492.976	5507.84
493.18	5477.12
493.383	5798.65
493.587	5704.45
493.79	5761.79
493.994	5608.19
494.197	5817.08
494.401	5933.82
494.605	5890.81
494.808	5997.31
495.012	6050.55
495.215	6015.74
495.419	6064.89
495.622	6038.27
495.825	6198.01
496.029	6062.84
496.232	6243.06
496.436	6314.74
496.639	6443.76
496.843	6236.92
497.046	6365.94
497.249	6515.44
497.453	6480.63
497.656	6892.27
497.859	6716.14
498.063	6642.42
498.266	7013.1
498.469	6966
498.673	7025.39
498.876	7027.43
499.079	7103.21
499.282	7338.73
499.485	7396.07
499.689	7445.22
499.892	7508.71
500.095	7496.42
500.298	7604.96
500.501	7695.07
500.705	7848.67
500.908	7983.84
501.111	8133.34
501.314	8041.18
501.517	8340.18
501.72	8334.04
501.923	8344.28
502.126	8508.12
502.329	8485.59
502.532	8680.14
502.735	8841.93
502.938	8841.93
503.141	8870.61
503.344	9061.07
503.547	9282.25
503.75	9335.49
503.953	9333.45
504.156	9519.81
504.359	9648.83
504.562	9607.87
504.765	9800.38
504.968	10001.08
505.17	10074.81
505.373	10027.71
505.576	10326.71
505.779	10451.64
505.982	10541.75
506.185	10764.98
506.387	10857.14
506.59	10971.82
506.793	11127.47
506.996	11008.69
507.198	11246.25
507.401	11098.8
507.604	11438.76
507.807	11702.95
508.009	11766.43
508.212	11934.37
508.415	11827.87
508.617	11979.42
508.82	12157.6
509.022	12278.43
509.225	12515.99
509.428	12475.03
509.63	12800.66
509.833	12800.66
510.035	13154.96
510.238	12874.38
510.44	13132.43
510.643	13345.42
510.845	13666.95
511.048	13580.93
511.25	13408.9
511.453	13945.47
511.655	14232.19
511.858	14074.49
512.06	14310.01
512.262	14633.59
512.465	14422.65
512.667	14887.54
512.87	14709.36
513.072	15053.42
513.274	15307.37
513.477	15463.02
513.679	15802.98
513.881	15755.88
514.084	15850.08
514.286	15915.62
514.488	15913.57
514.69	16325.21
514.893	16437.85
515.095	16566.87
515.297	16706.13
515.499	16640.6
515.701	16935.51
515.904	17189.46
516.106	17318.48
516.308	17373.77
516.51	17601.1
516.712	17908.29
516.914	17863.24
517.116	18344.51
517.318	18254.4
517.52	18424.38
517.722	18201.15
517.925	18895.41
518.127	18944.56
518.329	18991.67
518.531	18995.76
518.733	19370.54
518.935	19206.7
519.136	19288.62
519.338	19946.02
519.54	19931.69
519.742	20128.29
519.944	20187.68
520.146	20394.53
520.348	20797.98
520.55	21008.92
520.752	20996.63
520.954	20845.08
521.155	21150.23
521.357	21408.27
521.559	21668.36
521.761	21813.77
521.963	21854.73
522.164	21987.85
522.366	21918.21
522.568	22139.4
522.77	22301.19
522.971	22684.16
523.173	22587.9
523.375	22708.73
523.576	22579.71
523.778	22440.45
523.98	23380.46
524.181	23228.91
524.383	23480.82
524.584	23652.84
524.786	23564.78
524.988	23542.25
525.189	23646.7
525.391	23896.55
525.592	24324.58
525.794	24175.08
525.995	24476.13
526.197	24496.61
526.398	24381.92
526.6	24234.47
526.801	24687.07
527.003	24625.63
527.204	24873.43
527.406	24750.56
527.607	24912.35
527.808	24955.35
528.01	24689.12
528.211	25027.03
528.412	25491.92
528.614	25233.88
528.815	25215.44
529.016	25356.75
529.218	25100.76
529.419	25504.21
529.62	25471.44
529.822	25582.03
530.023	25586.13
530.224	25467.34
530.425	25262.55
530.626	25512.4
530.828	25737.68
531.029	25768.4
531.23	25813.45
531.431	25829.84
531.632	25731.53
531.833	25792.97
532.035	25989.58
532.236	25946.57
532.437	25885.13
532.638	25827.79
532.839	25995.72
533.04	26053.06
533.241	25733.58
533.442	26634.69
533.643	25934.28
533.844	26245.57
534.045	26122.69
534.246	25829.84
534.447	26261.96
534.648	26096.07
534.849	26075.59
535.05	26055.11
535.251	26233.29
535.451	26212.81
535.652	26053.06
535.853	26282.44
536.054	25895.37
536.255	26177.99
536.456	26044.87
536.657	26487.23
536.857	26202.57
537.058	25776.59
537.259	26466.75
537.46	26261.96
537.66	26169.8
537.861	25954.76
538.062	26376.64
538.263	26186.18
538.463	26204.61
538.664	26032.58
538.865	26231.24
539.065	26223.05
539.266	25553.36
539.466	25921.99
539.667	25704.91
539.868	26489.28
540.068	26114.5
540.269	25725.39
540.469	26126.79
540.67	25958.86
540.87	26145.22
541.071	26008.01
541.271	25641.42
541.472	26159.56
541.672	26026.44
541.873	26200.52
542.073	25737.68
542.274	25934.28
542.474	25625.04
542.675	25600.46
542.875	26089.93
543.075	25909.71
543.276	25749.96
543.476	26175.94
543.676	25600.46
543.877	26237.38
544.077	25934.28
544.277	25887.18
544.478	25727.44
544.678	26042.82
544.878	25655.76
545.078	25997.77
545.279	25467.34
545.479	25819.6
545.679	26001.86
545.879	25795.02
546.079	25934.28
546.28	25842.12
546.48	25506.26
546.68	25846.22
546.88	25848.27
547.08	25631.18
547.28	25893.32
547.48	25493.97
547.68	25885.13
547.88	25811.4
548.081	25907.66
548.281	25563.6
548.481	25590.22
548.681	26077.64
548.881	25635.28
549.081	25924.04
549.28	25475.54
549.48	25917.9
549.68	25354.71
549.88	26091.98
550.08	25586.13
550.28	26061.26
550.48	25459.15
550.68	25749.96
550.88	25412.05
551.08	25534.93
551.279	25729.48
551.479	25334.23
551.679	25598.41
551.879	25330.13
552.079	25405.91
552.278	25430.48
552.478	25418.19
552.678	25600.46
552.878	25850.31
553.077	25383.38
553.277	25366.99
553.477	25745.87
553.676	25598.41
553.876	25403.86
554.076	25299.41
554.275	25502.16
554.475	25258.45
554.674	25266.64
554.874	25237.97
555.074	25350.61
555.273	25252.31
555.473	25463.25
555.672	25434.58
555.872	25121.24
556.071	25559.5
556.271	25125.33
556.47	25098.71
556.67	25229.78
556.869	24881.63
557.068	25211.35
557.268	24947.16
557.467	25237.97
557.667	25119.19
557.866	24941.02
558.065	24867.29
558.265	24603.1
558.464	25207.25
558.663	25035.22
558.863	24525.28
559.062	25760.2
559.261	24771.04
559.461	25244.12
559.66	24926.68
559.859	25067.99
560.058	24603.1
560.258	24687.07
560.457	24510.94
560.656	24816.09
560.855	24809.95
561.054	24474.08
561.253	24637.92
561.453	24578.53
561.652	24803.8
561.851	24416.74
562.05	24506.85
562.249	24136.17
562.448	24670.68
562.647	24609.25
562.846	24377.83
563.045	24179.17
563.244	24113.64
563.443	24406.5
563.642	24031.72
563.841	23931.37
564.04	24271.33
564.239	24375.78
564.438	23658.99
564.637	24101.35
564.836	24469.98
565.035	23718.38
565.234	24044.01
565.432	23603.69
565.631	23849.45
565.83	24084.97
566.029	23757.29
566.228	23751.15
566.427	23863.79
566.625	23575.02
566.824	23284.21
567.023	23656.94
567.222	23271.92
567.42	23540.21
567.619	23476.72
567.818	23126.52
568.016	23364.08
568.215	23462.38
568.414	23239.15
568.612	23687.66
568.811	23288.31
569.01	23384.56
569.208	22725.11
569.407	23120.37
569.605	23083.51
569.804	23198.2
570.002	22823.42
570.201	23081.46
570.4	22727.16
570.598	22989.3
570.797	22483.45
570.995	22614.52
571.193	22553.09
571.392	23116.28
571.59	22583.8
571.789	22749.69
571.987	22305.28
572.186	22417.92
572.384	22626.81
572.582	22415.87
572.781	22483.45
572.979	22039.05
573.177	22219.27
573.376	22532.61
573.574	21832.2
573.772	22260.23
573.971	22123.01
574.169	21799.43
574.367	21963.27
574.565	22053.38
574.763	21910.02
574.962	21760.52
575.16	21629.45
575.358	21692.94
575.556	21549.58
575.754	21996.04
575.952	21502.48
576.151	21713.42
576.349	21205.52
576.547	21373.46
576.745	21443.09
576.943	21340.69
577.141	21387.79
577.339	20963.86
577.537	21133.84
577.735	21142.03
577.933	21385.74
578.131	21121.56
578.329	21029.4
578.527	20797.98
578.725	20992.53
578.923	21019.16
579.121	20556.32
579.319	20877.85
579.516	20957.72
579.714	20759.06
579.912	20783.64
580.11	20761.11
580.308	20607.51
580.506	20445.73
580.704	20351.52
580.901	20781.59
581.099	20584.99
581.297	20435.49
581.495	20314.66
581.692	20134.43
581.89	20081.19
582.088	20279.84
582.285	19964.45
582.483	20077.09
582.681	19917.35
582.878	19814.95
583.076	19837.48
583.274	19956.26
583.471	19520.04
583.669	19481.13
583.866	19763.75
584.064	19804.71
584.262	19468.84
584.459	19487.28
584.657	19354.16
584.854	19391.02
585.052	19038.77
585.249	19427.88
585.447	19563.05
585.644	19089.97
585.841	19194.42
586.039	19479.08
586.236	18844.21
586.434	18856.5
586.631	18700.86
586.828	19118.64
587.026	18707
587.223	18750.01
587.42	18692.66
587.618	18666.04
587.815	18483.77
588.012	18444.86
588.21	18588.22
588.407	18606.65
588.604	18287.17
588.801	18221.63
588.999	18461.24
589.196	18250.3
589.393	18344.51
589.59	18139.71
589.787	18235.97
589.984	18059.84
590.182	17871.43
590.379	18035.27
590.576	17773.13
590.773	17844.81
590.97	17750.6
591.167	17777.22
591.364	17543.75
591.561	17891.91
591.758	17390.16
591.955	17285.71
592.152	17779.27
592.349	17353.29
592.546	17621.58
592.743	17601.1
592.94	17168.98
593.137	17275.47
593.334	17341
593.531	17144.4
593.727	17269.33
593.924	17039.95
594.121	17085.01
594.318	17046.1
594.515	16704.09
594.712	17162.83
594.908	16847.44
595.105	16972.37
595.302	16706.13
595.499	16886.36
595.696	16620.12
595.892	16507.48
596.089	16708.18
596.286	16599.64
596.482	16495.19
596.679	16308.83
596.876	16640.6
597.072	16390.75
597.269	16509.53
597.466	16124.51
597.662	16394.84
597.859	16108.13
598.055	15999.59
598.252	15915.62
598.448	16124.51
598.645	16026.21
598.841	15987.3
599.038	15940.19
599.234	15934.05
599.431	15948.39
599.627	15686.25
599.824	16007.78
600.02	15526.5
600.217	15487.59
600.413	15655.53
600.609	15719.01
600.806	15469.16
601.002	15686.25
601.198	15346.28
601.395	15317.61
601.591	15301.23
601.787	15098.48
601.984	14969.46
602.18	15260.27
602.376	15078
602.572	14959.22
602.769	15250.03
602.965	14875.25
603.161	14897.78
603.357	14934.64
603.553	14869.11
603.75	15032.94
603.946	14817.91
604.142	14742.13
604.338	14471.8
604.534	14639.73
604.73	14492.28
604.926	14295.68
605.122	14434.94
605.318	14221.95
605.514	14289.53
605.71	14361.21
605.906	14203.52
606.102	14408.31
606.298	14277.24
606.494	14166.65
606.69	14088.83
606.886	14287.48
607.082	13830.79
607.278	14133.89
607.474	13955.71
607.67	13908.61
607.866	13818.5
608.062	14150.27
608.257	13763.2
608.453	13945.47
608.649	13920.9
608.845	13894.27
609.041	13765.25
609.236	13759.11
609.432	13714.05
609.628	13611.65
609.824	13525.64
610.019	13425.29
610.215	13521.54
610.411	13437.58
610.606	13533.83
610.802	13472.39
610.998	13441.67
611.193	13367.95
611.389	13431.43
611.584	13210.25
611.78	13335.18
611.976	13224.59
612.171	13335.18
612.367	13482.63
612.562	13154.96
612.758	12921.49
612.953	13171.34
613.149	13177.48
613.344	13269.64
613.539	13394.57
613.735	13091.47
613.93	12944.02
614.126	12993.17
614.321	13109.9
614.517	12933.78
614.712	12624.53
614.907	12872.34
615.103	12898.96
615.298	12851.86
615.493	13030.03
615.688	12774.03
615.884	12966.54
616.079	12489.37
616.274	12548.76
616.47	12515.99
616.665	12661.4
616.86	12597.91
617.055	12368.54
617.25	12501.65
617.445	12630.68
617.641	12534.42
617.836	12446.36
618.031	12425.88
618.226	12268.19
618.421	12317.34
618.616	12462.74
618.811	12274.33
619.006	12274.33
619.201	12124.83
619.396	12413.59
619.591	11936.42
619.786	12120.73
619.981	11819.68
620.176	12008.09
620.371	11920.03
620.566	11811.49
620.761	11762.34
620.956	11915.94
621.151	11702.95
621.346	11913.89
621.541	11575.97
621.735	11553.45
621.93	11311.78
622.125	11451.05
622.32	11379.37
622.515	11475.62
622.709	11150
622.904	11152.04
623.099	11139.76
623.294	11000.49
623.488	11100.84
623.683	11023.02
623.878	10836.66
624.072	11014.83
624.267	10734.26
624.462	10627.76
624.656	10748.59
624.851	10615.48
625.046	10621.62
625.24	10420.92
625.435	10410.68
625.629	10314.42
625.824	10216.12
626.018	10322.62
626.213	10171.07
626.407	10255.03
626.602	10050.24
626.796	10332.86
626.991	10140.35
627.185	9929.41
627.38	9734.85
627.574	9902.78
627.768	9691.84
627.963	9702.08
628.157	9415.37
628.352	9765.57
628.546	9587.4
628.74	9642.69
628.935	9335.49
629.129	9472.71
629.323	9204.42
629.517	9208.52
629.712	9298.63
629.906	9226.95
630.1	9181.9
630.294	9044.68
630.489	9253.58
630.683	8987.34
630.877	9151.18
631.071	8979.15
631.265	8913.61
631.459	8880.85
631.653	8764.11
631.848	8891.09
632.042	8747.73
632.236	8909.52
632.43	8583.89
632.624	8604.37
632.818	8766.16
633.012	8405.72
633.206	8377.05
633.4	8616.66
633.594	8360.66
633.788	8362.71
633.982	8381.14
634.176	8344.28
634.369	8166.1
634.563	8043.23
634.757	8129.24
634.951	8270.55
635.145	8157.91
635.339	8231.64
635.533	7979.74
635.726	7805.66
635.92	7887.58
636.114	7865.05
636.308	7832.29
636.501	7781.09
636.695	7717.6
636.889	7682.78
637.083	7658.21
637.276	7680.74
637.47	7578.34
637.664	7629.54
637.857	7740.13
638.051	7326.44
638.244	7551.71
638.438	7535.33
638.632	7369.44
638.825	7346.92
639.019	7221.99
639.212	7176.94
639.406	7170.79
639.599	7260.9
639.793	7258.85
639.986	7080.68
640.18	7170.79
640.373	6830.83
640.567	6920.94
640.76	6906.6
640.954	7031.53
641.147	6753.01
641.34	6894.32
641.534	6798.06
641.727	6707.95
641.92	6710
642.114	6652.66
642.307	6812.4
642.5	6703.86
642.694	6587.12
642.887	6509.3
643.08	6628.08
643.273	6415.09
643.467	6331.12
643.66	6486.77
643.853	6421.24
644.046	6138.62
644.239	6267.64
644.432	6189.81
644.626	6025.98
644.819	6335.22
645.012	6245.11
645.205	6181.62
645.398	5884.67
645.591	5919.48
645.784	6132.47
645.977	5901.05
646.17	5925.63
646.363	5931.77
646.556	5909.24
646.749	5958.39
646.942	6034.17
647.135	5745.41
647.328	5739.26
647.521	5702.4
647.714	5735.17
647.907	5724.93
648.099	5634.82
648.292	5405.44
648.485	5669.63
648.678	5634.82
648.871	5483.27
649.064	5378.82
649.256	5483.27
649.449	5409.54
649.642	5327.62
649.835	5389.06
650.027	5483.27
650.22	5280.52
650.413	5264.13
650.605	5219.08
650.798	5149.45
650.991	5126.92
651.183	5274.37
651.376	4961.03
651.568	5137.16
651.761	5030.66
651.954	5012.23
652.146	5088.01
652.339	4993.8
652.531	5131.02
652.724	4868.88
652.916	4932.36
653.109	4799.24
653.301	4895.5
653.494	4844.3
653.686	4801.29
653.879	4758.28
654.071	4717.33
654.263	4748.04
654.456	4504.34
654.648	4619.02
654.84	4641.55
655.033	4490
655.225	4549.39
655.417	4354.83
655.61	4496.14
655.802	4387.6
655.994	4354.83
656.186	4387.6
656.379	4389.65
656.571	4537.1
656.763	4336.4
656.955	4416.27
657.148	4383.51
657.34	4219.67
657.532	4137.75
657.724	4311.83
657.916	4147.99
658.108	4195.09
658.3	4184.85
658.492	4184.85
658.684	4027.16
658.876	4086.55
659.068	4137.75
659.26	3896.09
659.452	4002.58
659.644	4064.02
659.836	3838.75
660.028	3937.05
660.22	3822.36
660.412	3853.08
660.604	3887.9
660.796	3930.91
660.988	3988.25
661.18	3889.95
661.372	3805.98
661.563	3812.12
661.755	3691.29
661.947	3586.85
662.139	3650.33
662.331	3670.81
662.522	3687.2
662.714	3662.62
662.906	3617.57
663.097	3597.09
663.289	3566.37
663.481	3554.08
663.673	3521.31
663.864	3531.55
664.056	3500.83
664.247	3533.6
664.439	3482.4
664.631	3404.58
664.822	3390.24
665.014	3439.39
665.205	3330.85
665.397	3427.11
665.588	3400.48
665.78	3271.46
665.971	3351.33
666.163	3199.78
666.354	3267.36
666.546	3277.6
666.737	3183.4
666.929	3091.24
667.12	3189.54
667.311	3169.06
667.503	3152.68
667.694	3218.21
667.885	3130.15
668.077	3117.86
668.268	3005.22
668.459	3173.16
668.651	2954.02
668.842	3128.1
669.033	3134.25
669.224	3081
669.416	2984.74
669.607	2917.16
669.798	2966.31
669.989	2941.74
670.18	2941.74
670.371	2935.59
670.563	2820.91
670.754	2810.67
670.945	2738.99
671.136	2990.89
671.327	2855.72
671.518	2853.67
671.709	2870.06
671.9	2652.97
672.091	2886.44
672.282	2714.41
672.473	2747.18
672.664	2681.64
672.855	2704.17
673.046	2650.92
673.237	2806.57
673.428	2644.78
673.619	2706.22
673.809	2810.67
674	2659.12
674.191	2755.37
674.382	2687.79
674.573	2579.25
674.764	2751.28
674.954	2540.33
675.145	2609.97
675.336	2470.7
675.527	2700.08
675.717	2597.68
675.908	2495.28
676.099	2497.33
676.289	2552.62
676.48	2579.25
676.671	2671.4
676.861	2433.84
677.052	2351.92
677.243	2540.33
677.433	2499.38
677.624	2495.28
677.814	2468.66
678.005	2419.5
678.195	2458.42
678.386	2368.31
678.576	2388.78
678.767	2310.96
678.957	2482.99
679.148	2439.98
679.338	2427.7
679.529	2292.53
679.719	2429.74
679.909	2394.93
680.1	2415.41
680.29	2380.59
680.481	2251.57
680.671	2294.58
680.861	2401.07
681.052	2458.42
681.242	2345.78
681.432	2358.07
681.622	2313.01
681.813	2251.57
682.003	2292.53
682.193	2235.19
682.383	2335.54
682.573	2290.48
682.764	2251.57
682.954	2308.91
683.144	2315.06
683.334	2308.91
683.524	2272.05
683.714	2237.24
683.904	2308.91
684.094	2237.24
684.284	2302.77
684.474	2284.34
684.664	2229.04
684.854	2091.83
685.044	2310.96
685.234	2198.32
685.424	2249.52
685.614	2216.76
685.804	2288.43
685.994	2192.18
686.184	2183.99
686.374	2118.45
686.564	2097.97
686.753	2136.88
686.943	2128.69
687.133	2165.56
687.323	2196.28
687.513	2200.37
687.702	2077.49
687.892	2165.56
688.082	2065.21
688.272	1987.38
688.461	2143.03
688.651	2116.41
688.841	2057.01
689.03	2061.11
689.22	2063.16
689.41	2069.3
689.599	2044.73
689.789	2093.88
689.979	2054.97
690.168	2030.39
690.358	2081.59
690.547	2024.25
690.737	2052.92
690.926	2032.44
691.116	2104.12
691.305	2040.63
691.495	1889.08
691.684	1915.7
691.874	2057.01
692.063	2024.25
692.252	2132.79
692.442	1975.1
692.631	2038.58
692.82	1964.86
693.01	1889.08
693.199	1934.14
693.388	1868.6
693.578	1927.99
693.767	1930.04
693.956	1932.09
694.146	1932.09
694.335	1915.7
694.524	1850.17
694.713	1794.87
694.902	1854.27
695.092	1813.31
695.281	1895.22
695.47	1854.27
695.659	1913.66
695.848	1858.36
696.037	1856.31
696.226	1796.92
696.415	1764.15
696.604	1712.96
696.793	1831.74
696.982	1856.31
697.171	1854.27
697.36	1803.07
697.549	1745.72
697.738	1745.72
697.927	1803.07
698.116	1737.53
698.305	1827.64
698.494	1651.52
698.683	1778.49
698.872	1848.12
699.061	1702.72
699.25	1809.21
699.438	1739.58
699.627	1682.24
699.816	1858.36
700.005	1755.96
700.193	1729.34
700.382	1645.37
700.571	1801.02
700.76	1698.62
700.948	1739.58
701.137	1520.45
701.326	1764.15
701.514	1747.77
701.703	1639.23
701.892	1649.47
702.08	1598.27
702.269	1600.32
702.457	1649.47
702.646	1690.43
702.834	1631.04
703.023	1702.72
703.212	1639.23
703.4	1692.48
703.589	1620.8
703.777	1612.6
703.965	1655.61
704.154	1651.52
704.342	1663.8
704.531	1655.61
704.719	1483.58
704.907	1567.55
705.096	1682.24
705.284	1588.03
705.472	1538.88
705.661	1592.13
705.849	1477.44
706.037	1592.13
706.226	1542.97
706.414	1590.08
706.602	1524.54
706.79	1516.35
706.979	1565.5
707.167	1540.93
707.355	1489.73
707.543	1528.64
707.731	1512.25
707.919	1538.88
708.107	1450.82
708.296	1483.58
708.484	1471.29
708.672	1559.36
708.86	1526.59
709.048	1448.77
709.236	1512.25
709.424	1481.53
709.612	1471.29
709.8	1471.29
709.988	1438.53
710.176	1542.97
710.364	1413.95
710.551	1401.66
710.739	1344.32
710.927	1416
711.115	1422.14
711.303	1383.23
711.491	1405.76
711.679	1342.27
711.866	1362.75
712.054	1383.23
712.242	1325.89
712.43	1514.3
712.617	1352.51
712.805	1411.9
712.993	1416
713.181	1456.96
713.368	1436.48
713.556	1381.18
713.744	1336.13
713.931	1407.81
714.119	1344.32
714.306	1389.38
714.494	1409.86
714.682	1334.08
714.869	1266.5
715.057	1248.07
715.244	1348.42
715.432	1241.92
715.619	1413.95
715.807	1375.04
715.994	1321.79
716.182	1186.63
716.369	1354.56
716.556	1299.27
716.744	1344.32
716.931	1293.12
717.119	1270.59
717.306	1266.5
717.493	1321.79
717.681	1282.88
717.868	1334.08
718.055	1250.11
718.242	1227.59
718.43	1338.18
718.617	1225.54
718.804	1278.79
718.991	1268.55
719.179	1143.62
719.366	1207.11
719.553	1338.18
719.74	1227.59
719.927	1250.11
720.114	1284.93
720.301	1198.92
720.488	1213.25
720.676	1180.48
720.863	1319.75
721.05	1295.17
721.237	1264.45
721.424	1133.38
721.611	1192.77
721.798	1192.77
721.985	1217.35
722.172	1219.39
722.358	1145.67
722.545	1112.9
722.732	1151.81
722.919	1305.41
723.106	1223.49
723.293	1164.1
723.48	1209.15
723.667	1248.07
723.853	1166.15
724.04	1073.99
724.227	1102.66
724.414	1104.71
724.6	1127.24
724.787	1100.61
724.974	1231.68
725.161	1213.25
725.347	1117
725.534	1123.14
725.72	1119.04
725.907	1198.92
726.094	1162.05
726.28	1184.58
726.467	1047.37
726.653	1149.76
726.84	1170.24
727.027	1104.71
727.213	1131.33
727.4	1135.43
727.586	1073.99
727.773	1170.24
727.959	1135.43
728.145	1176.39
728.332	1155.91
728.518	1166.15
728.705	1133.38
728.891	1094.47
729.077	1155.91
729.264	1129.28
729.45	1110.85
729.636	1035.08
729.823	987.97
730.009	1078.08
730.195	1127.24
730.382	1022.79
730.568	1035.08
730.754	1200.96
730.94	1084.23
731.126	1078.08
731.313	1057.61
731.499	1119.04
731.685	1045.32
731.871	1026.89
732.057	1088.32
732.243	1028.93
732.429	1053.51
732.615	1047.37
732.801	1098.56
732.987	1020.74
733.173	1041.22
733.359	1137.48
733.545	1024.84
733.731	1055.56
733.917	975.69
734.103	1004.36
734.289	1119.04
734.475	992.07
734.661	1030.98
734.847	998.21
735.033	1063.75
735.219	1055.56
735.404	1020.74
735.59	1043.27
735.776	998.21
735.962	1055.56
736.148	1033.03
736.333	1026.89
736.519	1000.26
736.705	992.07
736.89	1000.26
737.076	1084.23
737.262	1043.27
737.447	967.49
737.633	965.45
737.819	1002.31
738.004	922.44
738.19	953.16
738.375	1026.89
738.561	1053.51
738.747	973.64
738.932	1012.55
739.118	1076.04
739.303	971.59
739.489	1039.17
739.674	926.54
739.859	940.87
740.045	1004.36
740.23	875.34
740.416	985.93
740.601	963.4
740.786	908.1
740.972	969.54
741.157	981.83
741.342	1008.45
741.528	926.54
741.713	975.69
741.898	951.11
742.084	959.3
742.269	1002.31
742.454	938.82
742.639	928.58
742.824	861
743.01	998.21
743.195	985.93
743.38	940.87
743.565	916.3
743.75	944.97
743.935	947.01
744.12	996.17
744.305	820.04
744.49	1022.79
744.675	879.43
744.86	910.15
745.045	959.3
745.23	887.62
745.415	967.49
745.6	836.42
745.785	901.96
745.97	932.68
746.155	910.15
746.34	899.91
746.525	820.04
746.71	856.9
746.895	953.16
747.079	809.8
747.264	824.14
747.449	774.99
747.634	840.52
747.819	844.62
748.003	863.05
748.188	824.14
748.373	856.9
748.557	768.84
748.742	783.18
748.927	797.51
749.111	840.52
749.296	817.99
749.481	750.41
749.665	785.23
749.85	752.46
750.034	762.7
750.219	774.99
750.404	731.98
750.588	785.23
750.773	797.51
750.957	822.09
751.141	807.75
751.326	703.31
751.51	672.59
751.695	752.46
751.879	723.79
752.064	820.04
752.248	811.85
752.432	744.27
752.617	697.16
752.801	754.51
752.985	723.79
753.17	785.23
753.354	676.68
753.538	727.88
753.722	734.03
753.907	723.79
754.091	639.82
754.275	774.99
754.459	729.93
754.643	721.74
754.828	650.06
755.012	668.49
755.196	648.01
755.38	662.35
755.564	656.2
755.748	650.06
755.932	670.54
756.116	582.48
756.3	615.24
756.484	611.15
756.668	545.61
756.852	559.95
757.036	529.23
757.22	674.64
757.404	584.52
757.588	613.2
757.772	596.81
757.956	684.87
758.14	621.39
758.323	568.14
758.507	553.8
758.691	598.86
758.875	529.23
759.059	609.1
759.242	549.71
759.426	660.3
759.61	543.57
759.794	564.04
759.977	494.41
760.161	596.81
760.345	615.24
760.528	535.37
760.712	568.14
760.895	607.05
761.079	525.13
761.263	551.76
761.446	469.84
761.63	582.48
761.813	555.85
761.997	473.93
762.18	518.99
762.364	541.52
762.547	545.61
762.731	582.48
762.914	512.85
763.098	461.65
763.281	578.38
763.464	437.07
763.648	514.89
763.831	537.42
764.015	512.85
764.198	568.14
764.381	490.32
764.564	504.65
764.748	547.66
764.931	478.03
765.114	484.17
765.297	504.65
765.481	502.61
765.664	463.69
765.847	473.93
766.03	455.5
766.213	418.64
766.397	473.93
766.58	478.03
766.763	527.18
766.946	516.94
767.129	453.45
767.312	523.09
767.495	471.89
767.678	467.79
767.861	482.13
768.044	432.97
768.227	389.97
768.41	467.79
768.593	404.3
768.776	435.02
768.959	506.7
769.142	424.78
769.324	383.82
769.507	451.41
769.69	455.5
769.873	478.03
770.056	498.51
770.239	402.26
770.421	486.22
770.604	480.08
770.787	490.32
770.97	516.94
771.152	416.59
771.335	478.03
771.518	465.74
771.7	502.61
771.883	445.26
772.066	424.78
772.248	404.3
772.431	439.12
772.613	414.54
772.796	373.58
772.978	387.92
773.161	394.06
773.343	338.77
773.526	418.64
773.708	412.5
773.891	394.06
774.073	420.69
774.256	385.87
774.438	428.88
774.621	262.99
774.803	375.63
774.985	342.86
775.168	367.44
775.35	394.06
775.532	465.74
775.715	457.55
775.897	422.73
776.079	400.21
776.261	392.02
776.444	287.57
776.626	256.85
776.808	385.87
776.99	336.72
777.173	400.21
777.355	312.14
777.537	346.96
777.719	410.45
777.901	248.66
778.083	353.1
778.265	355.15
778.447	365.39
778.629	355.15
778.811	273.23
778.993	303.95
779.175	318.29
779.357	299.86
779.539	414.54
779.721	336.72
779.903	342.86
780.085	303.95
780.267	258.9
780.449	308.05
780.631	297.81
780.812	303.95
780.994	293.71
781.176	293.71
781.358	279.38
781.54	258.9
781.721	244.56
781.903	273.23
782.085	238.42
782.267	312.14
782.448	277.33
782.63	293.71
782.812	275.28
782.993	260.95
783.175	211.79
783.357	293.71
783.538	265.04
783.72	265.04
783.901	293.71
784.083	279.38
784.264	277.33
784.446	279.38
784.627	242.51
784.809	303.95
784.99	256.85
785.172	209.75
785.353	291.66
785.535	260.95
785.716	230.23
785.897	174.93
786.079	254.8
786.26	197.46
786.441	170.83
786.623	179.03
786.804	269.14
786.985	205.65
787.167	203.6
787.348	297.81
787.529	183.12
787.71	230.23
787.891	230.23
788.073	248.66
788.254	158.55
788.435	172.88
788.616	248.66
788.797	211.79
788.978	217.94
789.159	207.7
789.34	187.22
789.522	160.59
789.703	172.88
789.884	162.64
790.065	224.08
790.246	195.41
790.427	232.27
790.607	166.74
790.788	174.93
790.969	142.16
791.15	203.6
791.331	246.61
791.512	142.16
791.693	148.31
791.874	197.46
792.054	158.55
792.235	162.64
792.416	232.27
792.597	176.98
792.778	185.17
792.958	176.98
793.139	164.69
793.32	195.41
793.5	162.64
793.681	172.88
793.862	209.75
794.042	127.83
794.223	181.07
794.404	119.64
794.584	232.27
794.765	121.68
794.945	158.55
795.126	166.74
795.306	152.4
795.487	209.75
795.667	189.27
795.848	205.65
796.028	115.54
796.209	162.64
796.389	136.02
796.57	172.88
796.75	164.69
796.93	144.21
797.111	142.16
797.291	140.12
797.471	123.73
797.652	156.5
797.832	52.05
798.012	148.31
798.192	164.69
798.373	123.73
798.553	115.54
798.733	127.83
798.913	117.59
799.093	154.45
799.274	109.4
799.454	138.07
799.634	189.27
799.814	101.2
799.994	154.45
800.174	88.92
800.354	119.64
800.534	84.82
800.714	146.26
800.894	164.69
801.074	160.59
801.254	70.48
801.434	162.64
801.614	150.36
801.794	78.68
801.974	373.58
802.154	45.91
802.334	138.07
802.514	109.4
802.693	88.92
802.873	56.15
803.053	152.4
803.233	97.11
803.413	90.96
803.592	93.01
803.772	115.54
803.952	84.82
804.131	101.2
804.311	109.4
804.491	93.01
804.67	21.33
804.85	86.87
805.03	152.4
805.209	90.96
805.389	146.26
805.568	117.59
805.748	47.96
805.928	201.55
806.107	21.33
806.287	90.96
806.466	78.68
806.646	105.3
806.825	103.25
807.004	62.29
807.184	78.68
807.363	127.83
807.543	133.97
807.722	58.2
807.901	101.2
808.081	54.1
808.26	111.44
808.439	154.45
808.619	70.48
808.798	39.76
808.977	129.88
809.156	41.81
809.336	56.15
809.515	109.4
809.694	133.97
809.873	25.43
810.052	90.96
810.231	95.06
810.411	84.82
810.59	78.68
810.769	78.68
810.948	64.34
811.127	88.92
811.306	97.11
811.485	133.97
811.664	76.63
811.843	86.87
812.022	84.82
812.201	115.54
812.38	88.92
812.559	97.11
812.737	56.15
812.916	70.48
813.095	31.57
813.274	103.25
813.453	80.72
813.632	121.68
813.811	70.48
813.989	113.49
814.168	129.88
814.347	-31.91
814.526	99.16
814.704	66.39
814.883	9.05
815.062	68.44
815.24	60.24
815.419	103.25
815.598	58.2
815.776	35.67
815.955	113.49
816.133	-1.19
816.312	101.2
816.49	52.05
816.669	37.72
816.847	60.24
817.026	80.72
817.204	82.77
817.383	97.11
817.561	90.96
817.74	60.24
817.918	60.24
818.097	76.63
818.275	78.68
818.453	68.44
818.632	90.96
818.81	82.77
818.988	74.58
819.167	68.44
819.345	72.53
819.523	125.78
819.701	88.92
819.879	131.92
820.058	90.96
820.236	74.58
820.414	74.58
820.592	47.96
820.77	0.85
820.948	31.57
821.127	97.11
821.305	-25.77
821.483	35.67
821.661	-9.39
821.839	68.44
822.017	119.64
822.195	56.15
822.373	41.81
822.551	70.48
822.729	70.48
822.907	45.91
823.085	107.35
823.262	101.2
823.44	17.24
823.618	-9.39
823.796	31.57
823.974	23.38
824.152	-15.53
824.329	50
824.507	80.72
824.685	72.53
824.863	95.06
825.04	21.33
825.218	119.64
825.396	47.96
825.574	97.11
825.751	31.57
825.929	0.85
826.107	13.14
826.284	99.16
826.462	39.76
826.639	21.33
826.817	66.39
826.994	74.58
827.172	-33.96
827.349	31.57
827.527	25.43
827.704	50
827.882	-29.87
828.059	56.15
828.237	62.29
828.414	90.96
828.591	31.57
828.769	2.9
828.946	127.83
829.124	88.92
829.301	-36.01
829.478	76.63
829.655	64.34
829.833	125.78
830.01	99.16
830.187	68.44
830.364	29.52
830.542	-9.39
830.719	47.96
830.896	-11.43
831.073	113.49
831.25	64.34
831.427	29.52
831.604	107.35
831.782	31.57
831.959	50
832.136	70.48
832.313	2.9
832.49	-17.58
832.667	29.52
832.844	37.72
833.021	33.62
833.198	39.76
833.374	19.29
833.551	74.58
833.728	15.19
833.905	68.44
834.082	43.86
834.259	37.72
834.436	47.96
834.612	-23.72
834.789	88.92
834.966	74.58
835.143	72.53
835.319	-50.35
835.496	25.43
835.673	47.96
835.85	-5.29
836.026	37.72
836.203	50
836.38	82.77
836.556	-17.58
836.733	13.14
836.909	82.77
837.086	35.67
837.262	-29.87
837.439	-31.91
837.616	7
837.792	56.15
837.968	9.05
838.145	-1.19
838.321	37.72
838.498	-42.15
838.674	70.48
838.851	-15.53
839.027	47.96
839.203	-1.19
839.38	-52.39
839.556	2.9
839.732	62.29
839.909	27.48
840.085	64.34
840.261	2.9
840.437	2.9
840.614	11.09
840.79	119.64
840.966	29.52
841.142	-29.87
841.318	13.14
841.494	23.38
841.671	29.52
841.847	74.58
842.023	-13.48
842.199	78.68
842.375	7
842.551	-11.43
842.727	52.05
842.903	-5.29
843.079	4.95
843.255	56.15
843.431	56.15
843.607	56.15
843.783	2.9
843.959	-13.48
844.134	90.96
844.31	4.95
844.486	27.48
844.662	54.1
844.838	25.43
845.013	56.15
845.189	45.91
845.365	56.15
845.541	4.95
845.716	33.62
845.892	-60.59
846.068	50
846.244	37.72
846.419	-13.48
846.595	37.72
846.77	33.62
846.946	-25.77
847.122	7
847.297	-9.39
847.473	-5.29
847.648	-7.34
847.824	-1.19
847.999	54.1
848.175	-15.53
848.35	-23.72
848.526	17.24
848.701	27.48
848.876	11.09
849.052	37.72
849.227	56.15
849.403	43.86
849.578	21.33
849.753	31.57
849.929	-3.24
850.104	-9.39
850.279	62.29
850.454	27.48
850.63	-9.39
850.805	21.33
850.98	-29.87
851.155	-29.87
851.33	27.48
851.505	29.52
851.681	9.05
851.856	-13.48
852.031	-33.96
852.206	0.85
852.381	43.86
852.556	-25.77
852.731	90.96
852.906	43.86
853.081	-31.91
853.256	47.96
853.431	72.53
853.606	-76.97
853.781	23.38
853.956	4.95
854.131	9.05
854.305	0.85
854.48	33.62
854.655	-5.29
854.83	-50.35
855.005	11.09
855.18	33.62
855.354	-25.77
855.529	45.91
855.704	-25.77
855.879	23.38
856.053	23.38
856.228	39.76
856.403	-46.25
856.577	4.95
856.752	35.67
856.926	-1.19
857.101	23.38
857.276	-31.91
857.45	0.85
857.625	43.86
857.799	9.05
857.974	13.14
858.148	21.33
858.323	33.62
858.497	52.05
858.672	39.76
858.846	13.14
859.02	23.38
859.195	74.58
859.369	15.19
859.543	-7.34
859.718	0.85
859.892	-17.58
860.066	-25.77
860.241	11.09
860.415	41.81
860.589	-7.34
860.763	76.63
860.938	-29.87
861.112	-25.77
861.286	-38.06
861.46	29.52
861.634	17.24
861.808	64.34
861.982	-66.73
862.157	29.52
862.331	-42.15
862.505	4.95
862.679	-79.02
862.853	47.96
863.027	-79.02
863.201	35.67
863.375	-7.34
863.549	-21.67
863.722	-11.43
863.896	13.14
864.07	21.33
864.244	23.38
864.418	-46.25
864.592	15.19
864.766	-83.11
864.939	37.72
865.113	7
865.287	11.09
865.461	-7.34
865.634	-23.72
865.808	-40.11
865.982	-50.35
866.156	-72.87
866.329	-19.63
866.503	-1.19
866.676	23.38
866.85	25.43
867.024	47.96
867.197	-17.58
867.371	19.29
867.544	68.44
867.718	9.05
867.891	23.38
868.065	88.92
868.238	17.24
868.412	13.14
868.585	-21.67
868.759	58.2
868.932	-38.06
869.105	25.43
869.279	27.48
869.452	7
869.625	0.85
869.799	50
869.972	54.1
870.145	-13.48
870.319	11.09
870.492	-11.43
870.665	-38.06
870.838	43.86
871.011	-29.87
871.185	2.9
871.358	47.96
871.531	-38.06
871.704	47.96
871.877	0.85
872.05	-11.43
872.223	0.85
872.396	-33.96
872.569	58.2
872.742	-23.72
872.915	17.24
873.088	2.9
873.261	-27.82
873.434	-15.53
873.607	-3.24
873.78	-21.67
873.953	-1.19
874.126	7
874.299	-11.43
874.471	-40.11
874.644	-46.25
874.817	17.24
874.99	15.19
875.163	-56.49
875.335	23.38
875.508	-25.77
875.681	86.87
875.853	-15.53
876.026	56.15
876.199	-15.53
876.371	138.07
876.544	-5.29
876.717	45.91
876.889	-9.39
877.062	37.72
877.234	-13.48
877.407	11.09
877.579	-58.54
877.752	-1.19
877.924	-5.29
878.097	-23.72
878.269	19.29
878.442	-48.3
878.614	50
878.786	31.57
878.959	27.48
879.131	-50.35
879.303	41.81
879.476	113.49
879.648	-11.43
879.82	39.76
879.993	47.96
880.165	-19.63
880.337	29.52
880.509	25.43
880.681	-1.19
880.854	-19.63
881.026	11.09
881.198	70.48
881.37	-74.92
881.542	9.05
881.714	-62.63
881.886	86.87
882.058	7
882.23	7
882.402	33.62
882.574	-5.29
882.746	2.9
882.918	93.01
883.09	37.72
883.262	-3.24
883.434	21.33
883.606	-58.54
883.778	-9.39
883.95	-9.39
884.122	-62.63
884.293	41.81
884.465	2.9
884.637	-40.11
884.809	-19.63
884.98	-66.73
885.152	15.19
885.324	4.95
885.496	-33.96
885.667	-50.35
885.839	37.72
886.011	54.1
886.182	21.33
886.354	13.14
886.525	-15.53
886.697	2.9
886.869	-3.24
887.04	31.57
887.212	19.29
887.383	72.53
887.555	17.24
887.726	11.09
887.897	-38.06
888.069	70.48
888.24	31.57
888.412	-44.2
888.583	-46.25
888.754	17.24
888.926	-115.88
889.097	66.39
889.268	-72.87
889.44	7
889.611	39.76
889.782	-25.77
889.953	41.81
890.125	-38.06
890.296	7
890.467	-11.43
890.638	-7.34
890.809	21.33
890.98	25.43
891.151	-44.2
891.323	41.81
891.494	7
891.665	-68.78
891.836	45.91
892.007	-54.44
892.178	68.44
892.349	-21.67
892.52	35.67
892.691	-13.48
892.862	-31.91
893.032	-68.78
893.203	-11.43
893.374	-19.63
893.545	41.81
893.716	-7.34
893.887	25.43
894.057	-21.67
894.228	-46.25
894.399	-50.35
894.57	41.81
894.74	-1.19
894.911	2.9
895.082	-27.82
895.253	52.05
895.423	39.76
895.594	31.57
895.764	25.43
895.935	47.96
896.106	-38.06
896.276	-15.53
896.447	-68.78
896.617	25.43
896.788	-40.11
896.958	-1.19
897.129	56.15
897.299	21.33
897.47	-56.49
897.64	33.62
897.81	37.72
897.981	15.19
898.151	19.29
898.322	17.24
898.492	74.58
898.662	-13.48
898.832	-3.24
899.003	56.15
899.173	-11.43
899.343	4.95
899.513	-48.3
