Data from USB4F104151__20__12-53-23-148.txt Node

Date: Fri Mar 14 12:53:23 EDT 2025
User: louis
Spectrometer: USB4F10415
Trigger mode: 4
Integration Time (sec): 1.000000E-2
Scans to average: 1
Electric dark correction enabled: true
Nonlinearity correction enabled: false
Boxcar width: 0
XAxis mode: Wavelengths
Number of Pixels in Spectrum: 3648
>>>>>Begin Spectral Data<<<<<
178.204	-27.14
178.424	-27.14
178.644	-27.14
178.864	-86.53
179.084	-33.28
179.304	-8.7
179.524	30.21
179.744	-41.47
179.964	62.98
180.184	-18.94
180.404	22.02
180.624	-23.04
180.844	-37.38
181.064	-41.47
181.283	-0.51
181.503	15.87
181.723	40.45
181.943	-4.61
182.163	24.06
182.383	19.97
182.602	30.21
182.822	15.87
183.042	46.59
183.262	-49.66
183.482	24.06
183.701	-20.99
183.921	1.54
184.141	-74.24
184.361	24.06
184.58	-57.86
184.8	9.73
185.02	-12.8
185.239	24.06
185.459	-76.29
185.679	34.3
185.898	30.21
186.118	44.54
186.338	-31.23
186.557	-25.09
186.777	1.54
186.997	13.82
187.216	-33.28
187.436	116.22
187.655	-8.7
187.875	73.21
188.095	-2.56
188.314	24.06
188.534	34.3
188.753	73.21
188.973	26.11
189.192	-0.51
189.412	17.92
189.631	34.3
189.851	-25.09
190.07	44.54
190.29	-0.51
190.509	19.97
190.729	3.58
190.948	-14.85
191.168	48.64
191.387	-70.14
191.607	69.12
191.826	13.82
192.045	36.35
192.265	26.11
192.484	34.3
192.704	-78.33
192.923	1.54
193.142	89.6
193.362	44.54
193.581	-10.75
193.8	-39.42
194.02	-16.9
194.239	-6.66
194.458	-0.51
194.678	15.87
194.897	52.74
195.116	-4.61
195.335	22.02
195.555	11.78
195.774	-2.56
195.993	11.78
196.212	-8.7
196.432	-55.81
196.651	1.54
196.87	56.83
197.089	24.06
197.308	-0.51
197.528	-55.81
197.747	-2.56
197.966	-4.61
198.185	-55.81
198.404	22.02
198.623	13.82
198.842	-59.9
199.062	38.4
199.281	28.16
199.5	-8.7
199.719	30.21
199.938	48.64
200.157	9.73
200.376	36.35
200.595	50.69
200.814	-2.56
201.033	52.74
201.252	40.45
201.471	32.26
201.69	56.83
201.909	15.87
202.128	-0.51
202.347	-4.61
202.566	24.06
202.785	38.4
203.004	15.87
203.223	108.03
203.442	1.54
203.661	9.73
203.879	9.73
204.098	65.02
204.317	-23.04
204.536	-10.75
204.755	-53.76
204.974	17.92
205.193	-8.7
205.411	15.87
205.63	-18.94
205.849	-59.9
206.068	32.26
206.287	26.11
206.505	56.83
206.724	83.45
206.943	-0.51
207.162	48.64
207.381	-35.33
207.599	28.16
207.818	1.54
208.037	36.35
208.255	-0.51
208.474	-31.23
208.693	-45.57
208.911	-49.66
209.13	-74.24
209.349	24.06
209.567	-29.18
209.786	-8.7
210.005	-35.33
210.223	87.55
210.442	44.54
210.661	44.54
210.879	-53.76
211.098	3.58
211.316	-10.75
211.535	83.45
211.753	50.69
211.972	34.3
212.191	22.02
212.409	-14.85
212.628	11.78
212.846	17.92
213.065	42.5
213.283	65.02
213.502	50.69
213.72	54.78
213.938	13.82
214.157	-33.28
214.375	13.82
214.594	11.78
214.812	48.64
215.031	-6.66
215.249	11.78
215.467	40.45
215.686	60.93
215.904	48.64
216.122	46.59
216.341	26.11
216.559	22.02
216.778	-55.81
216.996	-23.04
217.214	17.92
217.432	-37.38
217.651	36.35
217.869	36.35
218.087	67.07
218.306	22.02
218.524	44.54
218.742	-27.14
218.96	50.69
219.179	5.63
219.397	5.63
219.615	22.02
219.833	56.83
220.051	54.78
220.27	-37.38
220.488	34.3
220.706	11.78
220.924	24.06
221.142	17.92
221.36	9.73
221.578	30.21
221.796	40.45
222.015	32.26
222.233	-18.94
222.451	-25.09
222.669	-47.62
222.887	44.54
223.105	-39.42
223.323	50.69
223.541	-29.18
223.759	-27.14
223.977	52.74
224.195	-0.51
224.413	13.82
224.631	30.21
224.849	-43.52
225.067	42.5
225.285	24.06
225.503	46.59
225.721	-37.38
225.939	73.21
226.157	7.68
226.375	30.21
226.592	13.82
226.81	87.55
227.028	-10.75
227.246	7.68
227.464	-10.75
227.682	-18.94
227.9	13.82
228.117	112.13
228.335	7.68
228.553	15.87
228.771	-53.76
228.989	-20.99
229.206	81.41
229.424	58.88
229.642	3.58
229.86	56.83
230.077	-68.09
230.295	-0.51
230.513	34.3
230.731	46.59
230.948	67.07
231.166	30.21
231.384	9.73
231.601	-84.48
231.819	-20.99
232.037	-8.7
232.254	42.5
232.472	69.12
232.689	-6.66
232.907	-2.56
233.125	26.11
233.342	-25.09
233.56	-16.9
233.777	15.87
233.995	9.73
234.213	56.83
234.43	28.16
234.648	-25.09
234.865	81.41
235.083	26.11
235.3	58.88
235.518	50.69
235.735	-29.18
235.953	11.78
236.17	15.87
236.388	1.54
236.605	17.92
236.822	-35.33
237.04	-29.18
237.257	24.06
237.475	17.92
237.692	48.64
237.909	48.64
238.127	-23.04
238.344	24.06
238.562	7.68
238.779	62.98
238.996	-16.9
239.214	-23.04
239.431	73.21
239.648	54.78
239.865	-33.28
240.083	46.59
240.3	13.82
240.517	7.68
240.735	79.36
240.952	1.54
241.169	15.87
241.386	-10.75
241.603	-12.8
241.821	-10.75
242.038	30.21
242.255	30.21
242.472	60.93
242.689	17.92
242.907	17.92
243.124	38.4
243.341	-8.7
243.558	36.35
243.775	85.5
243.992	-76.29
244.209	-4.61
244.426	11.78
244.643	24.06
244.86	-4.61
245.078	-31.23
245.295	17.92
245.512	73.21
245.729	-57.86
245.946	-10.75
246.163	24.06
246.38	40.45
246.597	1.54
246.814	65.02
247.031	36.35
247.248	3.58
247.464	52.74
247.681	-23.04
247.898	-31.23
248.115	3.58
248.332	-18.94
248.549	-12.8
248.766	-0.51
248.983	46.59
249.2	-55.81
249.417	7.68
249.633	-55.81
249.85	46.59
250.067	52.74
250.284	34.3
250.501	-10.75
250.717	79.36
250.934	36.35
251.151	-49.66
251.368	-27.14
251.585	24.06
251.801	30.21
252.018	-25.09
252.235	48.64
252.451	15.87
252.668	65.02
252.885	9.73
253.102	3.58
253.318	-25.09
253.535	13.82
253.752	52.74
253.968	9.73
254.185	-39.42
254.401	97.79
254.618	-23.04
254.835	9.73
255.051	-6.66
255.268	-53.76
255.484	60.93
255.701	13.82
255.917	-23.04
256.134	-59.9
256.351	73.21
256.567	9.73
256.784	-14.85
257	40.45
257.217	50.69
257.433	36.35
257.65	24.06
257.866	81.41
258.082	-41.47
258.299	-12.8
258.515	34.3
258.732	46.59
258.948	7.68
259.165	-20.99
259.381	38.4
259.597	-29.18
259.814	69.12
260.03	58.88
260.246	-4.61
260.463	11.78
260.679	44.54
260.895	67.07
261.112	1.54
261.328	19.97
261.544	7.68
261.761	44.54
261.977	13.82
262.193	40.45
262.409	-10.75
262.626	5.63
262.842	34.3
263.058	38.4
263.274	-29.18
263.49	13.82
263.707	-20.99
263.923	-55.81
264.139	-0.51
264.355	62.98
264.571	48.64
264.787	11.78
265.004	52.74
265.22	7.68
265.436	44.54
265.652	7.68
265.868	50.69
266.084	3.58
266.3	34.3
266.516	-29.18
266.732	26.11
266.948	32.26
267.164	42.5
267.38	38.4
267.596	-4.61
267.812	15.87
268.028	48.64
268.244	-49.66
268.46	58.88
268.676	26.11
268.892	50.69
269.108	-4.61
269.324	3.58
269.54	13.82
269.756	7.68
269.972	19.97
270.188	-55.81
270.403	1.54
270.619	58.88
270.835	28.16
271.051	-20.99
271.267	-47.62
271.483	65.02
271.698	62.98
271.914	112.13
272.13	54.78
272.346	32.26
272.562	28.16
272.777	17.92
272.993	24.06
273.209	24.06
273.425	-14.85
273.64	-80.38
273.856	60.93
274.072	44.54
274.287	26.11
274.503	97.79
274.719	15.87
274.934	-6.66
275.15	-49.66
275.366	34.3
275.581	-53.76
275.797	-8.7
276.012	62.98
276.228	3.58
276.444	-23.04
276.659	58.88
276.875	-14.85
277.09	13.82
277.306	89.6
277.521	24.06
277.737	-41.47
277.952	48.64
278.168	108.03
278.383	7.68
278.599	48.64
278.814	24.06
279.03	-10.75
279.245	38.4
279.461	-0.51
279.676	32.26
279.892	19.97
280.107	-20.99
280.322	3.58
280.538	-23.04
280.753	-8.7
280.969	42.5
281.184	3.58
281.399	65.02
281.615	-2.56
281.83	73.21
282.045	3.58
282.26	40.45
282.476	-45.57
282.691	58.88
282.906	38.4
283.122	9.73
283.337	-2.56
283.552	9.73
283.767	5.63
283.983	5.63
284.198	44.54
284.413	-6.66
284.628	15.87
284.843	17.92
285.058	-57.86
285.274	36.35
285.489	-45.57
285.704	99.84
285.919	-47.62
286.134	58.88
286.349	3.58
286.564	15.87
286.779	32.26
286.995	-12.8
287.21	-4.61
287.425	28.16
287.64	15.87
287.855	81.41
288.07	-12.8
288.285	36.35
288.5	1.54
288.715	28.16
288.93	11.78
289.145	85.5
289.36	73.21
289.575	-8.7
289.79	62.98
290.004	-35.33
290.219	52.74
290.434	-16.9
290.649	-53.76
290.864	11.78
291.079	-6.66
291.294	34.3
291.509	-25.09
291.724	44.54
291.938	32.26
292.153	5.63
292.368	-35.33
292.583	69.12
292.798	50.69
293.012	108.03
293.227	42.5
293.442	5.63
293.657	42.5
293.871	-14.85
294.086	-20.99
294.301	-27.14
294.516	32.26
294.73	46.59
294.945	-31.23
295.16	30.21
295.374	-2.56
295.589	1.54
295.804	-6.66
296.018	40.45
296.233	34.3
296.447	7.68
296.662	42.5
296.877	71.17
297.091	-41.47
297.306	110.08
297.52	77.31
297.735	116.22
297.949	11.78
298.164	75.26
298.378	-14.85
298.593	9.73
298.807	-27.14
299.022	28.16
299.236	-29.18
299.451	54.78
299.665	-20.99
299.88	26.11
300.094	-14.85
300.309	-16.9
300.523	99.84
300.737	50.69
300.952	-12.8
301.166	7.68
301.381	9.73
301.595	-8.7
301.809	5.63
302.024	3.58
302.238	62.98
302.452	3.58
302.667	-80.38
302.881	54.78
303.095	44.54
303.309	50.69
303.524	15.87
303.738	24.06
303.952	28.16
304.166	69.12
304.381	36.35
304.595	89.6
304.809	-16.9
305.023	-8.7
305.237	-12.8
305.452	62.98
305.666	-98.81
305.88	44.54
306.094	69.12
306.308	75.26
306.522	32.26
306.736	30.21
306.95	54.78
307.164	48.64
307.379	-10.75
307.593	17.92
307.807	71.17
308.021	-51.71
308.235	22.02
308.449	-10.75
308.663	40.45
308.877	19.97
309.091	34.3
309.305	15.87
309.519	50.69
309.733	44.54
309.947	15.87
310.161	71.17
310.374	40.45
310.588	-18.94
310.802	42.5
311.016	-53.76
311.23	-14.85
311.444	73.21
311.658	24.06
311.872	13.82
312.085	34.3
312.299	79.36
312.513	34.3
312.727	7.68
312.941	32.26
313.154	81.41
313.368	-43.52
313.582	9.73
313.796	28.16
314.009	-23.04
314.223	-53.76
314.437	60.93
314.651	-25.09
314.864	65.02
315.078	46.59
315.292	60.93
315.505	-18.94
315.719	-20.99
315.933	-41.47
316.146	-47.62
316.36	-43.52
316.573	-33.28
316.787	-68.09
317.001	56.83
317.214	-12.8
317.428	42.5
317.641	-18.94
317.855	-4.61
318.068	15.87
318.282	46.59
318.495	56.83
318.709	40.45
318.922	24.06
319.136	7.68
319.349	-41.47
319.563	9.73
319.776	-4.61
319.99	42.5
320.203	81.41
320.417	-0.51
320.63	5.63
320.843	89.6
321.057	-23.04
321.27	52.74
321.483	-6.66
321.697	58.88
321.91	52.74
322.124	26.11
322.337	36.35
322.55	87.55
322.763	15.87
322.977	85.5
323.19	-12.8
323.403	38.4
323.617	42.5
323.83	-12.8
324.043	36.35
324.256	-41.47
324.469	-27.14
324.683	19.97
324.896	-29.18
325.109	13.82
325.322	28.16
325.535	17.92
325.748	-47.62
325.962	30.21
326.175	65.02
326.388	-4.61
326.601	50.69
326.814	-8.7
327.027	44.54
327.24	69.12
327.453	34.3
327.666	91.65
327.879	-14.85
328.092	-82.43
328.305	-10.75
328.518	1.54
328.731	1.54
328.944	15.87
329.157	36.35
329.37	11.78
329.583	38.4
329.796	81.41
330.009	-86.53
330.222	-12.8
330.435	-8.7
330.648	50.69
330.861	28.16
331.073	34.3
331.286	83.45
331.499	40.45
331.712	-6.66
331.925	40.45
332.138	1.54
332.35	19.97
332.563	-8.7
332.776	56.83
332.989	11.78
333.202	-45.57
333.414	9.73
333.627	54.78
333.84	-18.94
334.053	-86.53
334.265	-33.28
334.478	36.35
334.691	-2.56
334.903	36.35
335.116	-53.76
335.329	58.88
335.541	42.5
335.754	62.98
335.966	36.35
336.179	24.06
336.392	15.87
336.604	28.16
336.817	116.22
337.029	-14.85
337.242	32.26
337.454	17.92
337.667	28.16
337.88	50.69
338.092	-4.61
338.305	15.87
338.517	-70.14
338.729	-18.94
338.942	28.16
339.154	7.68
339.367	-10.75
339.579	7.68
339.792	71.17
340.004	48.64
340.217	-27.14
340.429	44.54
340.641	-31.23
340.854	-0.51
341.066	-41.47
341.278	7.68
341.491	40.45
341.703	-16.9
341.915	-29.18
342.128	42.5
342.34	-23.04
342.552	-47.62
342.764	-8.7
342.977	17.92
343.189	38.4
343.401	5.63
343.613	-10.75
343.826	-4.61
344.038	-49.66
344.25	19.97
344.462	52.74
344.674	71.17
344.886	50.69
345.099	7.68
345.311	67.07
345.523	81.41
345.735	65.02
345.947	1.54
346.159	62.98
346.371	32.26
346.583	7.68
346.795	44.54
347.007	-49.66
347.219	114.17
347.431	-31.23
347.643	-41.47
347.855	-10.75
348.067	9.73
348.279	-37.38
348.491	-10.75
348.703	28.16
348.915	32.26
349.127	54.78
349.339	-20.99
349.551	-6.66
349.763	7.68
349.975	24.06
350.187	36.35
350.399	-18.94
350.61	-12.8
350.822	-25.09
351.034	60.93
351.246	48.64
351.458	7.68
351.669	75.26
351.881	110.08
352.093	26.11
352.305	62.98
352.517	7.68
352.728	17.92
352.94	17.92
353.152	-0.51
353.363	-18.94
353.575	11.78
353.787	5.63
353.999	32.26
354.21	-6.66
354.422	69.12
354.633	38.4
354.845	-61.95
355.057	52.74
355.268	108.03
355.48	1.54
355.692	85.5
355.903	46.59
356.115	15.87
356.326	19.97
356.538	-8.7
356.749	-20.99
356.961	28.16
357.172	-12.8
357.384	-20.99
357.595	30.21
357.807	-33.28
358.018	24.06
358.23	34.3
358.441	9.73
358.653	13.82
358.864	38.4
359.075	26.11
359.287	1.54
359.498	34.3
359.709	-23.04
359.921	77.31
360.132	-41.47
360.344	34.3
360.555	-64
360.766	50.69
360.977	1.54
361.189	93.69
361.4	44.54
361.611	62.98
361.823	99.84
362.034	50.69
362.245	7.68
362.456	28.16
362.667	38.4
362.879	46.59
363.09	-0.51
363.301	17.92
363.512	11.78
363.723	26.11
363.935	22.02
364.146	24.06
364.357	26.11
364.568	112.13
364.779	-10.75
364.99	15.87
365.201	54.78
365.412	40.45
365.623	36.35
365.834	-33.28
366.045	65.02
366.256	36.35
366.467	11.78
366.678	60.93
366.889	-47.62
367.1	32.26
367.311	-8.7
367.522	46.59
367.733	32.26
367.944	56.83
368.155	22.02
368.366	19.97
368.577	-57.86
368.788	42.5
368.999	-2.56
369.209	52.74
369.42	22.02
369.631	17.92
369.842	-20.99
370.053	7.68
370.264	105.98
370.474	42.5
370.685	28.16
370.896	24.06
371.107	69.12
371.317	-2.56
371.528	73.21
371.739	-27.14
371.95	17.92
372.16	3.58
372.371	5.63
372.582	77.31
372.792	15.87
373.003	83.45
373.214	-12.8
373.424	44.54
373.635	50.69
373.846	36.35
374.056	13.82
374.267	24.06
374.477	11.78
374.688	62.98
374.898	-20.99
375.109	32.26
375.319	-20.99
375.53	69.12
375.74	75.26
375.951	52.74
376.161	17.92
376.372	75.26
376.582	26.11
376.793	15.87
377.003	-29.18
377.214	-16.9
377.424	40.45
377.635	40.45
377.845	58.88
378.055	60.93
378.266	-27.14
378.476	50.69
378.686	30.21
378.897	-0.51
379.107	28.16
379.317	-20.99
379.528	-25.09
379.738	54.78
379.948	-31.23
380.158	24.06
380.369	58.88
380.579	60.93
380.789	32.26
380.999	13.82
381.21	99.84
381.42	91.65
381.63	-18.94
381.84	73.21
382.05	-35.33
382.261	67.07
382.471	-6.66
382.681	-12.8
382.891	126.46
383.101	-23.04
383.311	-72.19
383.521	83.45
383.731	-8.7
383.941	24.06
384.151	7.68
384.361	77.31
384.571	38.4
384.781	32.26
384.991	77.31
385.201	65.02
385.411	79.36
385.621	32.26
385.831	34.3
386.041	62.98
386.251	-4.61
386.461	65.02
386.671	-43.52
386.881	24.06
387.091	-45.57
387.301	22.02
387.511	11.78
387.72	13.82
387.93	28.16
388.14	77.31
388.35	48.64
388.56	11.78
388.769	50.69
388.979	44.54
389.189	5.63
389.399	46.59
389.609	13.82
389.818	65.02
390.028	7.68
390.238	-23.04
390.447	-31.23
390.657	26.11
390.867	-49.66
391.076	95.74
391.286	15.87
391.496	69.12
391.705	-76.29
391.915	40.45
392.125	99.84
392.334	101.89
392.544	11.78
392.753	-10.75
392.963	7.68
393.172	-18.94
393.382	-2.56
393.591	40.45
393.801	83.45
394.01	7.68
394.22	38.4
394.429	3.58
394.639	-6.66
394.848	105.98
395.058	48.64
395.267	28.16
395.477	-35.33
395.686	52.74
395.895	54.78
396.105	19.97
396.314	65.02
396.524	95.74
396.733	34.3
396.942	44.54
397.152	15.87
397.361	-6.66
397.57	42.5
397.78	40.45
397.989	22.02
398.198	126.46
398.407	40.45
398.617	-16.9
398.826	132.61
399.035	42.5
399.244	83.45
399.453	24.06
399.663	81.41
399.872	62.98
400.081	40.45
400.29	50.69
400.499	73.21
400.708	85.5
400.917	13.82
401.127	38.4
401.336	7.68
401.545	97.79
401.754	75.26
401.963	-41.47
402.172	42.5
402.381	30.21
402.59	30.21
402.799	19.97
403.008	101.89
403.217	71.17
403.426	32.26
403.635	52.74
403.844	7.68
404.053	138.75
404.262	122.37
404.471	48.64
404.68	105.98
404.888	44.54
405.097	65.02
405.306	40.45
405.515	1.54
405.724	-2.56
405.933	91.65
406.142	93.69
406.35	52.74
406.559	-0.51
406.768	85.5
406.977	140.8
407.185	83.45
407.394	132.61
407.603	93.69
407.812	97.79
408.02	126.46
408.229	97.79
408.438	97.79
408.646	89.6
408.855	73.21
409.064	120.32
409.272	73.21
409.481	85.5
409.69	105.98
409.898	159.23
410.107	159.23
410.315	114.17
410.524	130.56
410.733	112.13
410.941	140.8
411.15	118.27
411.358	138.75
411.567	155.13
411.775	85.5
411.984	200.19
412.192	200.19
412.401	280.06
412.609	220.67
412.818	232.96
413.026	157.18
413.234	204.28
413.443	192
413.651	208.38
413.86	204.28
414.068	198.14
414.276	267.77
414.485	278.01
414.693	306.68
414.901	306.68
415.11	249.34
415.318	247.29
415.526	245.24
415.734	325.12
415.943	263.68
416.151	335.35
416.359	370.17
416.567	376.31
416.776	284.16
416.984	407.03
417.192	361.98
417.4	450.04
417.608	368.12
417.817	392.7
418.025	404.99
418.233	382.46
418.441	452.09
418.649	454.14
418.857	482.81
419.065	491
419.273	466.42
419.481	499.19
419.689	484.86
419.897	495.1
420.105	527.86
420.313	574.97
420.521	660.98
420.729	609.78
420.937	617.97
421.145	638.45
421.353	710.13
421.561	708.09
421.769	640.5
421.977	845.3
422.185	722.42
422.393	824.82
422.601	851.44
422.809	892.4
423.017	833.01
423.224	927.22
423.432	916.98
423.64	962.03
423.848	925.17
424.056	919.03
424.263	1101.3
424.471	1066.48
424.679	1172.97
424.887	1113.58
425.094	1207.79
425.302	1220.08
425.51	1207.79
425.718	1291.76
425.925	1271.28
426.133	1402.35
426.341	1424.87
426.548	1492.46
426.756	1484.27
426.964	1541.61
427.171	1566.18
427.379	1592.81
427.586	1603.05
427.794	1584.62
428.001	1801.7
428.209	1922.53
428.417	1779.17
428.624	2057.7
428.832	1979.87
429.039	1916.39
429.247	2020.83
429.454	2280.93
429.662	2223.58
429.869	2174.43
430.076	2336.22
430.284	2336.22
430.491	2297.31
430.699	2332.12
430.906	2522.59
431.114	2614.74
431.321	2678.23
431.528	2743.77
431.736	2835.92
431.943	3167.7
432.15	2885.08
432.358	2917.84
432.565	3110.35
432.772	3061.2
432.979	3132.88
433.187	3272.14
433.394	3206.61
433.601	3489.23
433.808	3444.17
434.016	3433.93
434.223	3597.77
434.43	3927.49
434.637	3802.57
434.844	4134.34
435.052	4169.15
435.259	4120
435.466	4191.68
435.673	4138.43
435.88	4337.09
436.087	4660.66
436.294	4494.78
436.501	4529.59
436.708	4601.27
436.915	4754.87
437.122	4941.24
437.329	4974
437.537	5012.92
437.743	5244.34
437.95	5176.75
438.157	5498.28
438.364	5483.95
438.571	5565.87
438.778	5539.24
438.985	6325.66
439.192	5823.91
439.399	5967.27
439.606	5946.79
439.813	6233.5
440.02	6837.66
440.227	6630.81
440.433	6540.7
440.64	6655.39
440.847	6735.26
441.054	6931.86
441.261	7427.47
441.467	7165.33
441.674	7505.29
441.881	7640.46
442.088	7710.09
442.294	7464.33
442.501	7785.87
442.708	7961.99
442.914	8265.09
443.121	8670.59
443.328	8314.24
443.534	8971.64
443.741	8879.48
443.948	8617.34
444.154	9096.57
444.361	9176.44
444.568	9031.03
444.774	9225.59
444.981	9385.33
445.187	9637.23
445.394	10012.01
445.6	9895.27
445.807	10773.85
446.013	10358.11
446.22	10450.27
446.426	11083.09
446.633	11173.21
446.839	11341.14
447.046	10956.12
447.252	11580.75
447.459	11455.83
447.665	11343.19
447.871	11951.43
448.078	12574.02
448.284	12086.6
448.491	12481.86
448.697	12948.79
448.903	12922.17
449.11	13124.92
449.316	12907.84
449.522	13184.31
449.728	13614.38
449.935	13552.95
450.141	13460.79
450.347	14112.04
450.553	13731.12
450.76	13690.16
450.966	14155.05
451.172	13962.54
451.378	14470.44
451.584	13821.23
451.791	14331.17
451.997	14404.9
452.203	14675.23
452.409	14699.81
452.615	14480.68
452.821	14023.98
453.027	14136.62
453.233	14685.47
453.44	14017.83
453.646	14038.31
453.852	14331.17
454.058	14523.68
454.264	14062.89
454.47	14335.27
454.676	13976.87
454.882	14495.01
455.088	13368.63
455.294	13411.64
455.5	13899.05
455.705	13700.4
455.911	13090.1
456.117	12993.85
456.323	12838.2
456.529	12389.7
456.735	12784.96
456.941	12488
457.147	12180.81
457.352	11738.44
457.558	11683.15
457.764	11429.2
457.97	11427.15
458.176	11251.03
458.381	11208.02
458.587	10823
458.793	10775.9
458.999	10089.83
459.204	10818.91
459.41	10462.56
459.616	10032.49
459.821	9960.81
460.027	9692.52
460.233	9510.25
460.438	9284.98
460.644	9340.27
460.85	9024.89
461.055	8695.16
461.261	8904.06
461.466	8197.51
461.672	7912.84
461.878	8347.01
462.083	7882.12
462.289	7746.95
462.494	7796.11
462.7	7394.7
462.905	7077.27
463.111	7388.56
463.316	7632.27
463.522	7308.69
463.727	7355.79
463.932	7263.63
464.138	7196.05
464.343	7378.32
464.549	7161.23
464.754	7130.52
464.959	7310.74
465.165	7142.8
465.37	6989.21
465.575	6751.64
465.781	7003.54
465.986	7062.93
466.191	6854.04
466.397	6770.07
466.602	6331.81
466.807	6802.84
467.012	6636.95
467.218	6542.75
467.423	6624.67
467.628	6673.82
467.833	6851.99
468.038	6577.56
468.244	6452.64
468.449	6616.48
468.654	6251.94
468.859	6358.43
469.064	6448.54
469.269	6296.99
469.474	6210.98
469.679	6124.96
469.885	6147.49
470.09	6311.33
470.295	6192.55
470.5	6051.24
470.705	6092.2
470.91	5793.19
471.115	5940.65
471.32	6053.28
471.525	5944.74
471.73	5989.8
471.935	5893.54
472.139	5408.17
472.344	5670.31
472.549	5551.53
472.754	5533.1
472.959	5399.98
473.164	5281.2
473.369	5111.22
473.574	5529
473.778	5467.56
473.983	5293.49
474.188	5242.29
474.393	5139.89
474.598	5160.37
474.802	4982.2
475.007	4885.94
475.212	4996.53
475.417	4842.93
475.621	4806.07
475.826	4808.12
476.031	4732.34
476.235	4636.09
476.44	4773.3
476.645	4523.45
476.849	4631.99
477.054	4435.39
477.259	4545.98
477.463	4472.25
477.668	4347.33
477.872	4484.54
478.077	4390.33
478.282	4289.98
478.486	4324.8
478.691	4103.62
478.895	4212.16
479.1	4265.41
479.304	4122.05
479.509	4027.84
479.713	4146.62
479.918	4031.94
480.122	4021.7
480.326	4068.8
480.531	4062.66
480.735	3935.68
480.94	3980.74
481.144	4083.14
481.348	3900.87
481.553	4048.32
481.757	3808.71
481.961	3812.81
482.166	4009.41
482.37	3806.66
482.574	3952.07
482.778	3810.76
482.983	3962.31
483.187	3798.47
483.391	3886.53
483.595	3743.17
483.8	3788.23
484.004	3988.93
484.208	4007.36
484.412	3810.76
484.616	3812.81
484.821	3788.23
485.025	3847.62
485.229	3894.72
485.433	3954.12
485.637	4062.66
485.841	4001.22
486.045	3884.48
486.249	3818.95
486.453	3913.16
486.657	4036.03
486.861	3857.86
487.065	3771.85
487.269	4023.75
487.473	3769.8
487.677	3993.03
487.881	3939.78
488.085	3960.26
488.289	3966.4
488.493	3855.81
488.697	3999.17
488.901	4052.42
489.105	4150.72
489.309	4079.04
489.512	4033.99
489.716	4144.58
489.92	3995.08
490.124	4064.71
490.328	4079.04
490.531	3984.84
490.735	4083.14
490.939	4093.38
491.143	4316.61
491.346	4107.71
491.55	4187.58
491.754	4234.69
491.958	4369.85
492.161	4259.26
492.365	4451.77
492.569	4199.87
492.772	4271.55
492.976	4382.14
493.18	4445.63
493.383	4664.76
493.587	4429.24
493.79	4562.36
493.994	4498.88
494.197	4484.54
494.401	4613.56
494.605	4670.9
494.808	4844.98
495.012	4746.68
495.215	4758.97
495.419	4820.41
495.622	4810.17
495.825	4713.91
496.029	4818.36
496.232	5117.36
496.436	4937.14
496.639	5092.79
496.843	5170.61
497.046	5223.86
497.249	5236.14
497.453	5303.73
497.656	5469.61
497.859	5371.31
498.063	5391.79
498.266	5733.8
498.469	5600.68
498.673	5623.21
498.876	5696.94
499.079	5868.97
499.282	5997.99
499.485	6041
499.689	6143.39
499.892	6161.83
500.095	6225.31
500.298	6311.33
500.501	6299.04
500.705	6497.69
500.908	6618.52
501.111	6808.98
501.314	6806.94
501.517	6841.75
501.72	6901.14
501.923	6780.31
502.126	7294.35
502.329	7237.01
502.532	7312.78
502.735	7431.57
502.938	7636.36
503.141	7511.44
503.344	7943.56
503.547	7749
503.75	7843.21
503.953	8031.62
504.156	8172.93
504.359	8193.41
504.562	8281.47
504.765	8535.42
504.968	8365.44
505.17	8584.57
505.373	8930.68
505.576	8805.75
505.779	8940.92
505.982	8932.73
506.185	9244.02
506.387	9291.12
506.59	9440.62
506.793	9692.52
506.996	9614.7
507.198	9876.84
507.401	9985.38
507.604	10161.51
507.807	10128.74
508.009	10390.88
508.212	10272.1
508.415	10534.24
508.617	10603.87
508.82	10863.96
509.022	10734.94
509.225	11134.29
509.428	11031.9
509.63	11404.63
509.833	11421.01
510.035	11738.44
510.238	11668.81
510.44	11867.47
510.643	12090.7
510.845	11994.44
511.048	12170.57
511.25	12436.8
511.453	12510.53
511.655	12711.23
511.858	12825.92
512.06	12973.37
512.262	13040.95
512.465	13172.02
512.667	13442.35
512.87	13585.71
513.072	13731.12
513.274	13679.92
513.477	14179.62
513.679	14165.29
513.881	14243.11
514.084	14277.93
514.286	14566.69
514.488	14763.29
514.69	15271.19
514.893	15152.41
515.095	14980.38
515.297	15328.53
515.499	15521.04
515.701	15795.47
515.904	15686.93
516.106	15916.3
516.308	16354.57
516.51	16188.68
516.712	16424.2
516.914	16784.64
517.116	16891.13
517.318	16639.23
517.52	17124.6
517.722	17143.03
517.925	17216.76
518.127	17650.93
518.329	17593.59
518.531	17677.55
518.733	18113.77
518.935	18279.66
519.136	18093.29
519.338	18609.38
519.54	18695.39
519.742	18691.3
519.944	18672.87
520.146	19563.73
520.348	19559.64
520.55	19506.39
520.752	19696.85
520.954	19967.18
521.155	19926.22
521.357	20278.47
521.559	20270.28
521.761	20673.73
521.963	20559.05
522.164	20942.02
522.366	20876.48
522.568	20882.63
522.77	21040.32
522.971	21294.27
523.173	21355.71
523.375	21580.98
523.576	21775.54
523.778	21673.14
523.98	21896.37
524.181	22047.92
524.383	22174.89
524.584	22521
524.786	22203.57
524.988	22076.59
525.189	22940.83
525.391	22791.33
525.592	23035.04
525.794	22963.36
525.995	23116.96
526.197	23248.03
526.398	23155.87
526.6	23749.78
526.801	23452.83
527.003	23501.98
527.204	23712.92
527.406	24097.94
527.607	23970.96
527.808	24013.97
528.01	23817.36
528.211	24016.02
528.412	24487.05
528.614	24351.88
528.815	24345.74
529.016	24521.87
529.218	24693.9
529.419	24685.7
529.62	24497.29
529.822	24532.11
530.023	24757.38
530.224	24831.11
530.425	24929.41
530.626	24886.4
530.828	24767.62
531.029	25592.95
531.23	24992.9
531.431	25013.38
531.632	25068.67
531.833	25230.46
532.035	25234.56
532.236	25508.99
532.437	25531.51
532.638	25074.82
532.839	25433.21
533.04	25515.13
533.241	25300.09
533.442	25830.52
533.643	25717.88
533.844	25805.94
534.045	25558.14
534.246	25781.37
534.447	25889.91
534.648	25738.36
534.849	25635.96
535.05	25558.14
535.251	25965.68
535.451	25736.31
535.652	26147.95
535.853	25807.99
536.054	26289.26
536.255	26188.91
536.456	25805.94
536.657	26379.37
536.857	26158.19
537.058	25891.96
537.259	26352.75
537.46	26328.17
537.66	26086.51
537.861	26287.21
538.062	26043.51
538.263	26420.33
538.463	25812.09
538.664	26381.42
538.865	26481.77
539.065	26160.24
539.266	26080.37
539.466	26326.13
539.667	25928.82
539.868	26449
540.068	26410.09
540.269	26182.77
540.469	26352.75
540.67	26508.4
540.87	26227.82
541.071	26360.94
541.271	26334.32
541.472	26256.5
541.672	26272.88
541.873	26086.51
542.073	25752.7
542.274	26537.07
542.474	26043.51
542.675	26061.94
542.875	26537.07
543.075	26354.8
543.276	26303.6
543.476	26702.95
543.676	26451.05
543.877	26647.66
544.077	26483.82
544.277	26340.46
544.478	26391.66
544.678	26457.2
544.878	26659.95
545.078	26625.13
545.279	26403.95
545.479	26487.92
545.679	26516.59
545.879	26377.33
546.079	26248.3
546.28	26410.09
546.48	26287.21
546.68	26649.71
546.88	26483.82
547.08	26348.65
547.28	26537.07
547.48	26078.32
547.68	26729.58
547.88	26250.35
548.081	26430.57
548.281	26647.66
548.481	26588.27
548.681	26418.28
548.881	26549.35
549.081	26387.57
549.28	26123.38
549.48	26487.92
549.68	26344.56
549.88	26836.07
550.08	26461.29
550.28	26793.06
550.48	26504.3
550.68	26471.53
550.88	26369.13
551.08	26625.13
551.279	26633.32
551.479	26303.6
551.679	26403.95
551.879	26516.59
552.079	26643.56
552.278	26399.85
552.478	26307.69
552.678	26522.73
552.878	26737.77
553.077	26379.37
553.277	26246.26
553.477	26436.72
553.676	26156.14
553.876	26283.12
554.076	26242.16
554.275	26338.41
554.475	26133.62
554.674	26455.15
554.874	26518.64
555.074	26082.42
555.273	26434.67
555.473	26573.93
555.672	26344.56
555.872	26252.4
556.071	26313.84
556.271	26164.34
556.47	26086.51
556.67	25623.67
556.869	26152.05
557.068	26170.48
557.268	26442.86
557.467	26186.86
557.667	26072.18
557.866	26211.44
558.065	25650.3
558.265	25894
558.464	25785.46
558.663	26252.4
558.863	25443.45
559.062	26350.7
559.261	25574.52
559.461	26084.47
559.66	25789.56
559.859	25937.01
560.058	26084.47
560.258	25969.78
560.457	25703.54
560.656	25957.49
560.855	25621.63
561.054	26104.95
561.253	25549.95
561.453	25590.91
561.652	26049.65
561.851	25832.57
562.05	25836.66
562.249	25955.44
562.448	25930.87
562.647	25441.4
562.846	25767.03
563.045	25427.07
563.244	25353.34
563.443	25468.03
563.642	25326.72
563.841	25812.09
564.04	25300.09
564.239	25988.21
564.438	25400.44
564.637	25578.62
564.836	25695.35
565.035	25232.51
565.234	25476.22
565.432	25531.51
565.631	25277.57
565.83	25357.44
566.029	25220.22
566.228	25386.11
566.427	25105.54
566.625	25316.48
566.824	25017.47
567.023	25250.94
567.222	24738.95
567.42	25062.53
567.619	25126.02
567.818	24892.55
568.016	25109.63
568.215	24710.28
568.414	24886.4
568.612	24972.42
568.811	25091.2
569.01	24888.45
569.208	24908.93
569.407	24906.88
569.605	24327.31
569.804	25050.24
570.002	24573.07
570.201	24765.57
570.4	24640.65
570.598	24626.31
570.797	24249.49
570.995	24337.55
571.193	24319.12
571.392	24564.87
571.59	24265.87
571.789	24521.87
571.987	24319.12
572.186	24515.72
572.384	24306.83
572.582	24478.86
572.781	24525.96
572.979	23921.81
573.177	24001.68
573.376	24009.87
573.574	23927.95
573.772	24165.52
573.971	23794.84
574.169	23606.42
574.367	23504.03
574.565	24216.72
574.763	23778.45
574.962	23479.45
575.16	23616.66
575.358	23669.91
575.556	23493.79
575.754	23622.81
575.952	23270.56
576.151	23712.92
576.349	23352.48
576.547	23116.96
576.745	23440.54
576.943	23487.64
577.141	23061.66
577.339	23131.3
577.537	22985.89
577.735	22889.63
577.933	22920.35
578.131	23002.27
578.329	22647.97
578.527	22598.82
578.725	22799.52
578.923	22525.1
579.121	22461.61
579.319	22469.8
579.516	22731.94
579.714	22576.3
579.912	22320.3
580.11	22502.57
580.308	22629.54
580.506	22514.86
580.704	21648.57
580.901	22150.32
581.099	22277.29
581.297	22086.83
581.495	21912.75
581.692	21796.02
581.89	22127.79
582.088	22103.21
582.285	21744.82
582.483	21935.28
582.681	21574.84
582.878	21691.57
583.076	21769.4
583.274	21652.66
583.471	21431.48
583.669	21529.78
583.866	21384.38
584.064	21476.54
584.262	21195.96
584.459	21365.95
584.657	21247.16
584.854	21437.62
585.052	20757.7
585.249	21028.03
585.447	21093.57
585.644	20796.61
585.841	21044.41
586.039	21124.29
586.236	20632.77
586.434	20880.58
586.631	20737.22
586.828	20458.7
587.026	20413.64
587.223	20417.74
587.42	20315.34
587.618	20587.72
587.815	20356.3
588.012	20354.25
588.21	20184.27
588.407	20427.98
588.604	20128.97
588.801	19993.81
588.999	20333.77
589.196	20094.16
589.393	20196.56
589.59	19875.02
589.787	19920.08
589.984	19870.93
590.182	19754.19
590.379	19793.11
590.576	19600.6
590.773	19727.57
590.97	19594.45
591.167	19631.32
591.364	19158.24
591.561	19522.77
591.758	19350.74
591.955	19305.69
592.152	19760.34
592.349	19221.72
592.546	19215.58
592.743	19391.7
592.94	19070.17
593.137	18879.71
593.334	19188.96
593.531	18498.79
593.727	19000.54
593.924	18959.58
594.121	18478.31
594.318	18994.4
594.515	18533.61
594.712	18529.51
594.908	18574.56
595.105	18681.06
595.302	18455.78
595.499	18402.54
595.696	18398.44
595.892	18029.8
596.089	18169.07
596.286	18392.3
596.482	18199.79
596.679	18042.09
596.876	18001.13
597.072	17757.43
597.269	18001.13
597.466	17845.49
597.662	17937.65
597.859	17845.49
598.055	17941.74
598.252	17495.29
598.448	17779.95
598.645	17493.24
598.841	17349.88
599.038	17472.76
599.234	17587.44
599.431	17317.11
599.627	17061.12
599.824	17509.62
600.02	16995.58
600.217	17071.36
600.413	17257.72
600.609	17175.8
600.806	17059.07
601.002	17095.93
601.198	16624.9
601.395	16628.99
601.591	16715.01
601.787	16919.81
601.984	16815.36
602.18	16579.84
602.376	16366.85
602.572	16272.65
602.769	16710.91
602.965	16368.9
603.161	16637.19
603.357	16420.1
603.553	16252.17
603.75	16440.58
603.946	16137.48
604.142	16276.74
604.338	16129.29
604.534	16258.31
604.73	15856.91
604.926	15944.97
605.122	16100.62
605.318	16012.56
605.514	15777.04
605.71	15707.41
605.906	15619.35
606.102	15506.71
606.298	15777.04
606.494	15826.19
606.69	15332.63
606.886	15562
607.082	15271.19
607.278	15439.12
607.474	15179.03
607.67	15592.72
607.866	15133.98
608.062	15355.16
608.257	15064.35
608.453	15007
608.649	15191.32
608.845	15158.55
609.041	15144.22
609.236	14949.66
609.432	14906.65
609.628	14982.43
609.824	14935.32
610.019	15029.53
610.215	14722.34
610.411	14894.36
610.606	14761.25
610.802	14685.47
610.998	14937.37
611.193	14761.25
611.389	14796.06
611.584	14751.01
611.78	14527.78
611.976	14540.07
612.171	14681.38
612.367	14656.8
612.562	14597.41
612.758	14189.86
612.953	14028.07
613.149	14419.24
613.344	14370.08
613.539	14513.44
613.735	14308.65
613.93	14216.49
614.126	14140.71
614.321	14228.77
614.517	14054.7
614.712	13983.02
614.907	14095.66
615.103	14093.61
615.298	14064.94
615.493	13974.83
615.688	13950.25
615.884	14208.3
616.079	13972.78
616.274	14077.23
616.47	13874.48
616.665	13843.76
616.86	13657.39
617.055	13921.58
617.25	13716.78
617.445	13860.14
617.641	13661.49
617.836	13600.05
618.031	13301.05
618.226	13724.97
618.421	13489.46
618.616	13417.78
618.811	13460.79
619.006	13522.23
619.201	13198.65
619.396	13247.8
619.591	13018.43
619.786	13348.15
619.981	12825.92
620.176	13047.1
620.371	12817.72
620.566	12944.7
620.761	12838.2
620.956	12924.22
621.151	12641.6
621.346	12686.65
621.541	12434.75
621.735	12653.89
621.93	12361.03
622.125	12625.22
622.32	12150.09
622.515	12412.23
622.709	12307.78
622.904	12068.17
623.099	12076.36
623.294	12037.45
623.488	12041.54
623.683	12098.89
623.878	11785.55
624.072	11748.68
624.267	11803.98
624.462	11621.71
624.656	11404.63
624.851	11359.57
625.046	11625.81
625.24	11580.75
625.435	11324.76
625.629	11412.82
625.824	11105.62
626.018	11246.93
626.213	11048.28
626.407	11038.04
626.602	10874.2
626.796	10890.59
626.991	10870.11
627.185	11056.47
627.38	10616.16
627.574	10691.93
627.768	10612.06
627.963	10595.68
628.157	10466.66
628.352	10487.14
628.546	10509.66
628.74	10325.35
628.935	10294.63
629.129	10460.51
629.323	10255.72
629.517	10110.31
629.712	10292.58
629.906	10198.37
630.1	9934.18
630.294	9882.99
630.489	9858.41
630.683	9882.99
630.877	9670
631.071	9766.25
631.265	9706.86
631.459	9457.01
631.653	9659.76
631.848	9534.83
632.042	9485.68
632.236	9504.11
632.43	9536.88
632.624	9481.58
632.818	9348.47
633.012	9151.86
633.206	9485.68
633.4	9301.36
633.594	9168.24
633.788	9203.06
633.982	9127.28
634.176	8906.1
634.369	9026.93
634.563	8965.5
634.757	8834.43
634.951	8959.35
635.145	8879.48
635.339	8676.73
635.533	8899.96
635.726	8492.41
635.92	8564.09
636.114	8740.22
636.308	8394.11
636.501	8662.4
636.695	8428.93
636.889	8394.11
637.083	8381.82
637.276	8414.59
637.47	8334.72
637.664	8160.64
637.857	8242.56
638.051	8301.95
638.244	8113.54
638.438	8031.62
638.632	8011.14
638.825	7908.74
639.019	7943.56
639.212	7884.17
639.406	7931.27
639.599	7675.27
639.793	7937.41
639.986	7638.41
640.18	7724.43
640.373	7611.79
640.567	7638.41
640.76	7558.54
640.954	7409.04
641.147	7540.11
641.34	7355.79
641.534	7286.16
641.727	7290.26
641.92	7296.4
642.114	7343.5
642.307	7155.09
642.5	7280.02
642.694	7071.12
642.887	7202.19
643.08	7118.23
643.273	6964.63
643.467	6874.52
643.66	6811.03
643.853	6974.87
644.046	6735.26
644.239	6720.92
644.432	6786.46
644.626	6653.34
644.819	6792.6
645.012	6634.91
645.205	6487.45
645.398	6532.51
645.591	6462.88
645.784	6417.82
645.977	6438.3
646.17	6421.92
646.363	6346.14
646.556	6323.62
646.749	6387.1
646.942	6370.72
647.135	6225.31
647.328	6192.55
647.521	6178.21
647.714	6004.13
647.907	6049.19
648.099	6038.95
648.292	6028.71
648.485	5899.69
648.678	5930.41
648.871	5965.22
649.064	5811.62
649.256	5811.62
649.449	5895.59
649.642	5856.68
649.835	5651.88
650.027	5612.97
650.22	5539.24
650.413	5486
650.605	5647.79
650.798	5602.73
650.991	5496.24
651.183	5465.52
651.376	5408.17
651.568	5338.54
651.761	5469.61
651.954	5273.01
652.146	5182.9
652.339	5137.84
652.531	5320.11
652.724	5254.58
652.916	5115.31
653.109	5051.83
653.301	5103.03
653.494	5195.18
653.686	4947.38
653.879	5109.17
654.071	5017.01
654.263	4908.47
654.456	5019.06
654.648	4890.04
654.84	4922.8
655.033	4947.38
655.225	4826.55
655.417	4763.06
655.61	4857.27
655.802	4869.56
655.994	4648.38
656.186	4781.5
656.379	4650.43
656.571	4664.76
656.763	4576.7
656.955	4566.46
657.148	4410.81
657.34	4427.2
657.532	4425.15
657.724	4378.05
657.916	4419
658.108	4343.23
658.3	4390.33
658.492	4324.8
658.684	4246.98
658.876	4046.27
659.068	4257.22
659.26	4363.71
659.452	4249.02
659.644	4203.97
659.836	4029.89
660.028	4005.31
660.22	4013.51
660.412	4062.66
660.604	3984.84
660.796	3984.84
660.988	3945.92
661.18	3710.41
661.372	3790.28
661.563	3743.17
661.755	3814.85
661.947	3829.19
662.139	3786.18
662.331	3782.09
662.522	3702.22
662.714	3651.02
662.906	3513.8
663.097	3565
663.289	3569.1
663.481	3567.05
663.673	3583.43
663.864	3626.44
664.056	3487.18
664.247	3446.22
664.439	3392.97
664.631	3413.45
664.822	3374.54
665.014	3390.92
665.205	3239.37
665.397	3319.25
665.588	3192.27
665.78	3225.04
665.971	3241.42
666.163	3300.81
666.354	3096.02
666.546	3100.11
666.737	3167.7
666.929	3126.74
667.12	3210.7
667.311	3030.48
667.503	3128.78
667.694	3104.21
667.885	3016.15
668.077	3087.82
668.268	2895.32
668.459	2872.79
668.651	2794.97
668.842	2936.28
669.033	2942.42
669.224	2846.16
669.416	2817.49
669.607	2799.06
669.798	2827.73
669.989	2837.97
670.18	2758.1
670.371	2815.45
670.563	2760.15
670.754	2727.38
670.945	2704.85
671.136	2821.59
671.327	2686.42
671.518	2715.09
671.709	2651.61
671.9	2672.09
672.091	2729.43
672.282	2665.94
672.473	2541.02
672.664	2624.98
672.855	2541.02
673.046	2559.45
673.237	2567.64
673.428	2469.34
673.619	2596.31
673.809	2561.5
674	2555.35
674.191	2522.59
674.382	2412
674.573	2506.2
674.764	2354.65
674.954	2416.09
675.145	2350.56
675.336	2405.85
675.527	2364.89
675.717	2426.33
675.908	2356.7
676.099	2405.85
676.289	2420.19
676.48	2321.88
676.671	2215.39
676.861	2387.42
677.052	2352.6
677.243	2211.29
677.433	2285.02
677.624	2246.11
677.814	2278.88
678.005	2223.58
678.195	2203.1
678.386	2186.72
678.576	2145.76
678.767	2139.62
678.957	2194.91
679.148	2076.13
679.338	2213.34
679.529	2182.62
679.719	2018.79
679.909	2125.28
680.1	2158.05
680.29	2158.05
680.481	1981.92
680.671	2194.91
680.861	2053.6
681.052	1961.44
681.242	2104.8
681.432	2098.66
681.622	2094.56
681.813	2115.04
682.003	2006.5
682.193	2074.08
682.383	2055.65
682.573	2053.6
682.764	2053.6
682.954	2022.88
683.144	2057.7
683.334	2067.94
683.524	2047.46
683.714	1936.87
683.904	2069.98
684.094	2016.74
684.284	2033.12
684.474	2082.27
684.664	1926.63
684.854	1947.11
685.044	2029.03
685.234	1994.21
685.424	1969.63
685.614	2088.42
685.804	1992.16
685.994	1992.16
686.184	2010.59
686.374	1957.35
686.564	1914.34
686.753	1986.02
686.943	1998.31
687.133	1910.24
687.323	1981.92
687.513	1928.67
687.702	1943.01
687.892	2047.46
688.082	1965.54
688.272	1998.31
688.461	1955.3
688.651	1918.43
688.841	1981.92
689.03	1910.24
689.22	1885.67
689.41	1977.83
689.599	1893.86
689.789	1977.83
689.979	1959.39
690.168	1922.53
690.358	2014.69
690.547	1881.57
690.737	1889.76
690.926	1914.34
691.116	1863.14
691.305	2057.7
691.495	1951.2
691.684	2020.83
691.874	1998.31
692.063	1908.19
692.252	2096.61
692.442	1994.21
692.631	1795.56
692.82	1928.67
693.01	1953.25
693.199	1877.48
693.388	1852.9
693.578	1877.48
693.767	1910.24
693.956	1883.62
694.146	1879.52
694.335	1912.29
694.524	1891.81
694.713	1852.9
694.902	1867.24
695.092	1885.67
695.281	1764.84
695.47	1832.42
695.659	1852.9
695.848	1834.47
696.037	1803.75
696.226	1834.47
696.415	1773.03
696.604	1811.94
696.793	1875.43
696.982	1789.41
697.171	1742.31
697.36	1705.45
697.549	1865.19
697.738	1711.59
697.927	1818.08
698.116	1838.56
698.305	1734.12
698.494	1760.74
698.683	1723.88
698.872	1703.4
699.061	1744.36
699.25	1781.22
699.438	1748.45
699.627	1633.77
699.816	1682.92
700.005	1824.23
700.193	1666.53
700.382	1607.14
700.571	1641.96
700.76	1744.36
700.948	1687.01
701.137	1693.16
701.326	1568.23
701.514	1658.34
701.703	1732.07
701.892	1633.77
702.08	1666.53
702.269	1664.49
702.457	1641.96
702.646	1744.36
702.834	1629.67
703.023	1650.15
703.212	1682.92
703.4	1525.22
703.589	1590.76
703.777	1549.8
703.965	1596.9
704.154	1517.03
704.342	1609.19
704.531	1496.55
704.719	1570.28
704.907	1551.85
705.096	1588.71
705.284	1519.08
705.472	1492.46
705.661	1484.27
705.849	1510.89
706.037	1506.79
706.226	1471.98
706.414	1514.98
706.602	1601
706.79	1469.93
706.979	1551.85
707.167	1541.61
707.355	1476.07
707.543	1457.64
707.731	1517.03
707.919	1465.83
708.107	1435.11
708.296	1406.44
708.484	1500.65
708.672	1385.96
708.86	1459.69
709.048	1361.39
709.236	1334.76
709.424	1304.04
709.612	1414.63
709.8	1365.48
709.988	1357.29
710.176	1496.55
710.364	1361.39
710.551	1316.33
710.739	1418.73
710.927	1248.75
711.115	1404.39
711.303	1299.95
711.491	1359.34
711.679	1349.1
711.866	1410.54
712.054	1318.38
712.242	1385.96
712.43	1347.05
712.617	1377.77
712.805	1359.34
712.993	1220.08
713.181	1263.08
713.368	1246.7
713.556	1256.94
713.744	1277.42
713.931	1308.14
714.119	1285.61
714.306	1308.14
714.494	1347.05
714.682	1158.64
714.869	1246.7
715.057	1242.61
715.244	1242.61
715.432	1205.74
715.619	1236.46
715.807	1154.54
715.994	1201.65
716.182	1250.8
716.369	1261.04
716.556	1201.65
716.744	1172.97
716.931	1082.86
717.119	1170.93
717.306	1218.03
717.493	1158.64
717.681	1140.21
717.868	1236.46
718.055	1070.58
718.242	1164.78
718.43	1195.5
718.617	1158.64
718.804	1084.91
718.991	1107.44
719.179	1076.72
719.366	1072.62
719.553	1107.44
719.74	1123.82
719.927	945.65
720.114	1052.14
720.301	1017.33
720.488	1123.82
720.676	1091.06
720.863	1125.87
721.05	1093.1
721.237	1027.57
721.424	1086.96
721.611	1080.82
721.798	929.27
721.985	1054.19
722.172	959.99
722.358	998.9
722.545	1021.42
722.732	1033.71
722.919	1005.04
723.106	943.6
723.293	1025.52
723.48	974.32
723.667	1007.09
723.853	927.22
724.04	1015.28
724.227	978.42
724.414	982.51
724.6	925.17
724.787	970.23
724.974	1007.09
725.161	957.94
725.347	955.89
725.534	966.13
725.72	996.85
725.907	886.26
726.094	902.64
726.28	882.16
726.467	984.56
726.653	837.11
726.84	925.17
727.027	810.48
727.213	949.75
727.4	929.27
727.586	898.55
727.773	830.96
727.959	888.31
728.145	863.73
728.332	878.07
728.518	828.92
728.705	851.44
728.891	900.59
729.077	843.25
729.264	851.44
729.45	904.69
729.636	869.87
729.823	824.82
730.009	781.81
730.195	810.48
730.382	808.44
730.568	802.29
730.754	835.06
730.94	781.81
731.126	810.48
731.313	814.58
731.499	800.24
731.685	785.91
731.871	865.78
732.057	814.58
732.243	777.72
732.429	779.76
732.615	792.05
732.801	816.63
732.987	833.01
733.173	826.87
733.359	773.62
733.545	738.8
733.731	787.96
733.917	757.24
734.103	835.06
734.289	753.14
734.475	665.08
734.661	800.24
734.847	777.72
735.033	724.47
735.219	818.68
735.404	732.66
735.59	755.19
735.776	650.74
735.962	773.62
736.148	769.52
736.333	691.7
736.519	693.75
736.705	751.09
736.89	722.42
737.076	761.33
737.262	751.09
737.447	673.27
737.633	658.93
737.819	728.56
738.004	675.32
738.19	728.56
738.375	716.28
738.561	765.43
738.747	714.23
738.932	636.41
739.118	759.28
739.303	714.23
739.489	650.74
739.674	654.84
739.859	687.61
740.045	701.94
740.23	706.04
740.416	568.82
740.601	703.99
740.786	609.78
740.972	691.7
741.157	613.88
741.342	687.61
741.528	652.79
741.713	593.4
741.898	630.26
742.084	622.07
742.269	605.69
742.454	669.17
742.639	648.69
742.824	628.21
743.01	579.06
743.195	646.65
743.38	568.82
743.565	648.69
743.75	615.93
743.935	615.93
744.12	607.73
744.305	638.45
744.49	521.72
744.675	564.73
744.86	560.63
745.045	654.84
745.23	622.07
745.415	538.1
745.6	574.97
745.785	587.26
745.97	665.08
746.155	499.19
746.34	548.34
746.525	556.54
746.71	519.67
746.895	550.39
747.079	517.62
747.264	560.63
747.449	603.64
747.634	556.54
747.819	509.43
748.003	577.02
748.188	515.58
748.373	566.78
748.557	491
748.742	525.82
748.927	493.05
749.111	517.62
749.296	497.14
749.481	509.43
749.665	503.29
749.85	466.42
750.034	450.04
750.219	505.34
750.404	515.58
750.588	474.62
750.773	505.34
750.957	503.29
751.141	417.27
751.326	454.14
751.51	447.99
751.695	521.72
751.879	505.34
752.064	447.99
752.248	499.19
752.432	409.08
752.617	519.67
752.801	417.27
752.985	501.24
753.17	447.99
753.354	417.27
753.538	386.55
753.722	398.84
753.907	495.1
754.091	425.47
754.275	493.05
754.459	491
754.643	413.18
754.828	366.07
755.012	378.36
755.196	482.81
755.38	445.95
755.564	411.13
755.748	431.61
755.932	409.08
756.116	372.22
756.3	351.74
756.484	388.6
756.668	472.57
756.852	460.28
757.036	429.56
757.22	302.59
757.404	372.22
757.588	404.99
757.772	472.57
757.956	372.22
758.14	361.98
758.323	372.22
758.507	357.88
758.691	374.27
758.875	407.03
759.059	443.9
759.242	409.08
759.426	321.02
759.61	343.55
759.794	392.7
759.977	429.56
760.161	368.12
760.345	335.35
760.528	349.69
760.712	353.79
760.895	341.5
761.079	325.12
761.263	278.01
761.446	361.98
761.63	329.21
761.813	390.65
761.997	364.03
762.18	284.16
762.364	345.59
762.547	374.27
762.731	278.01
762.914	243.2
763.098	292.35
763.281	271.87
763.464	278.01
763.648	374.27
763.831	280.06
764.015	333.31
764.198	372.22
764.381	269.82
764.564	372.22
764.748	345.59
764.931	325.12
765.114	407.03
765.297	255.48
765.481	302.59
765.664	267.77
765.847	278.01
766.03	314.88
766.213	323.07
766.397	396.79
766.58	357.88
766.763	286.2
766.946	269.82
767.129	302.59
767.312	329.21
767.495	339.45
767.678	323.07
767.861	341.5
768.044	280.06
768.227	368.12
768.41	267.77
768.593	325.12
768.776	249.34
768.959	261.63
769.142	284.16
769.324	304.64
769.507	282.11
769.69	292.35
769.873	306.68
770.056	329.21
770.239	294.4
770.421	384.51
770.604	292.35
770.787	267.77
770.97	290.3
771.152	321.02
771.335	226.81
771.518	228.86
771.7	312.83
771.883	278.01
772.066	247.29
772.248	253.44
772.431	269.82
772.613	327.16
772.796	171.52
772.978	294.4
773.161	273.92
773.343	245.24
773.526	222.72
773.708	286.2
773.891	210.43
774.073	304.64
774.256	243.2
774.438	249.34
774.621	235
774.803	235
774.985	192
775.168	271.87
775.35	155.13
775.532	247.29
775.715	230.91
775.897	275.96
776.079	212.48
776.261	337.4
776.444	222.72
776.626	200.19
776.808	280.06
776.99	232.96
777.173	196.09
777.355	230.91
777.537	312.83
777.719	222.72
777.901	267.77
778.083	218.62
778.265	163.33
778.447	265.72
778.629	163.33
778.811	341.5
778.993	269.82
779.175	232.96
779.357	165.37
779.539	224.76
779.721	212.48
779.903	202.24
780.085	288.25
780.267	296.44
780.449	165.37
780.631	183.81
780.812	167.42
780.994	171.52
781.176	235
781.358	202.24
781.54	181.76
781.721	175.61
781.903	187.9
782.085	257.53
782.267	220.67
782.448	228.86
782.63	181.76
782.812	226.81
782.993	222.72
783.175	245.24
783.357	122.37
783.538	132.61
783.72	118.27
783.901	114.17
784.083	214.52
784.264	161.28
784.446	220.67
784.627	146.94
784.809	189.95
784.99	181.76
785.172	124.41
785.353	183.81
785.535	222.72
785.716	138.75
785.897	151.04
786.079	165.37
786.26	224.76
786.441	185.85
786.623	181.76
786.804	153.09
786.985	157.18
787.167	134.65
787.348	161.28
787.529	114.17
787.71	132.61
787.891	136.7
788.073	157.18
788.254	134.65
788.435	187.9
788.616	249.34
788.797	138.75
788.978	151.04
789.159	116.22
789.34	134.65
789.522	173.57
789.703	155.13
789.884	151.04
790.065	177.66
790.246	122.37
790.427	148.99
790.607	67.07
790.788	224.76
790.969	126.46
791.15	183.81
791.331	112.13
791.512	101.89
791.693	140.8
791.874	140.8
792.054	175.61
792.235	138.75
792.416	146.94
792.597	132.61
792.778	99.84
792.958	146.94
793.139	179.71
793.32	122.37
793.5	110.08
793.681	95.74
793.862	165.37
794.042	1.54
794.223	105.98
794.404	83.45
794.584	103.93
794.765	105.98
794.945	171.52
795.126	103.93
795.306	146.94
795.487	126.46
795.667	171.52
795.848	103.93
796.028	142.85
796.209	153.09
796.389	38.4
796.57	89.6
796.75	144.89
796.93	56.83
797.111	79.36
797.291	97.79
797.471	151.04
797.652	17.92
797.832	67.07
798.012	93.69
798.192	118.27
798.373	79.36
798.553	110.08
798.733	128.51
798.913	128.51
799.093	91.65
799.274	97.79
799.454	97.79
799.634	81.41
799.814	75.26
799.994	105.98
800.174	58.88
800.354	120.32
800.534	58.88
800.714	118.27
800.894	73.21
801.074	46.59
801.254	71.17
801.434	85.5
801.614	42.5
801.794	69.12
801.974	349.69
802.154	83.45
802.334	118.27
802.514	44.54
802.693	81.41
802.873	46.59
803.053	1.54
803.233	44.54
803.413	83.45
803.592	22.02
803.772	97.79
803.952	81.41
804.131	95.74
804.311	95.74
804.491	112.13
804.67	114.17
804.85	85.5
805.03	108.03
805.209	42.5
805.389	132.61
805.568	50.69
805.748	26.11
805.928	157.18
806.107	89.6
806.287	73.21
806.466	87.55
806.646	99.84
806.825	46.59
807.004	124.41
807.184	112.13
807.363	81.41
807.543	67.07
807.722	83.45
807.901	52.74
808.081	58.88
808.26	34.3
808.439	97.79
808.619	56.83
808.798	97.79
808.977	40.45
809.156	50.69
809.336	136.7
809.515	95.74
809.694	50.69
809.873	36.35
810.052	13.82
810.231	124.41
810.411	-4.61
810.59	48.64
810.769	48.64
810.948	50.69
811.127	-8.7
811.306	44.54
811.485	81.41
811.664	60.93
811.843	97.79
812.022	11.78
812.201	28.16
812.38	114.17
812.559	105.98
812.737	7.68
812.916	24.06
813.095	81.41
813.274	28.16
813.453	91.65
813.632	126.46
813.811	85.5
813.989	34.3
814.168	65.02
814.347	50.69
814.526	50.69
814.704	103.93
814.883	81.41
815.062	19.97
815.24	128.51
815.419	73.21
815.598	15.87
815.776	83.45
815.955	87.55
816.133	89.6
816.312	97.79
816.49	77.31
816.669	87.55
816.847	-70.14
817.026	165.37
817.204	50.69
817.383	134.65
817.561	-35.33
817.74	42.5
817.918	50.69
818.097	67.07
818.275	-27.14
818.453	75.26
818.632	101.89
818.81	73.21
818.988	62.98
819.167	60.93
819.345	73.21
819.523	28.16
819.701	101.89
819.879	105.98
820.058	110.08
820.236	62.98
820.414	3.58
820.592	48.64
820.77	42.5
820.948	58.88
821.127	26.11
821.305	116.22
821.483	-0.51
821.661	9.73
821.839	105.98
822.017	38.4
822.195	7.68
822.373	60.93
822.551	83.45
822.729	50.69
822.907	-33.28
823.085	22.02
823.262	40.45
823.44	36.35
823.618	13.82
823.796	32.26
823.974	81.41
824.152	11.78
824.329	15.87
824.507	56.83
824.685	19.97
824.863	62.98
825.04	50.69
825.218	-53.76
825.396	85.5
825.574	11.78
825.751	50.69
825.929	91.65
826.107	48.64
826.284	34.3
826.462	32.26
826.639	93.69
826.817	-0.51
826.994	50.69
827.172	17.92
827.349	89.6
827.527	-33.28
827.704	15.87
827.882	34.3
828.059	28.16
828.237	17.92
828.414	22.02
828.591	-31.23
828.769	-14.85
828.946	93.69
829.124	44.54
829.301	17.92
829.478	17.92
829.655	19.97
829.833	40.45
830.01	83.45
830.187	19.97
830.364	77.31
830.542	36.35
830.719	50.69
830.896	77.31
831.073	97.79
831.25	50.69
831.427	-14.85
831.604	22.02
831.782	11.78
831.959	-49.66
832.136	24.06
832.313	75.26
832.49	28.16
832.667	15.87
832.844	75.26
833.021	60.93
833.198	52.74
833.374	77.31
833.551	85.5
833.728	65.02
833.905	87.55
834.082	36.35
834.259	-29.18
834.436	58.88
834.612	-6.66
834.789	-0.51
834.966	32.26
835.143	95.74
835.319	-6.66
835.496	165.37
835.673	1.54
835.85	54.78
836.026	-14.85
836.203	32.26
836.38	24.06
836.556	17.92
836.733	-45.57
836.909	56.83
837.086	-4.61
837.262	17.92
837.439	5.63
837.616	-6.66
837.792	-25.09
837.968	-35.33
838.145	-4.61
838.321	-23.04
838.498	42.5
838.674	73.21
838.851	73.21
839.027	83.45
839.203	-12.8
839.38	32.26
839.556	32.26
839.732	-0.51
839.909	-27.14
840.085	32.26
840.261	34.3
840.437	75.26
840.614	42.5
840.79	60.93
840.966	-33.28
841.142	46.59
841.318	42.5
841.494	7.68
841.671	52.74
841.847	15.87
842.023	-70.14
842.199	65.02
842.375	7.68
842.551	-33.28
842.727	-4.61
842.903	32.26
843.079	-23.04
843.255	34.3
843.431	26.11
843.607	-14.85
843.783	-25.09
843.959	73.21
844.134	1.54
844.31	-25.09
844.486	-53.76
844.662	114.17
844.838	83.45
845.013	56.83
845.189	81.41
845.365	48.64
845.541	52.74
845.716	-0.51
845.892	-2.56
846.068	-14.85
846.244	83.45
846.419	52.74
846.595	-53.76
846.77	28.16
846.946	-14.85
847.122	34.3
847.297	22.02
847.473	97.79
847.648	-23.04
847.824	38.4
847.999	7.68
848.175	19.97
848.35	56.83
848.526	-2.56
848.701	19.97
848.876	87.55
849.052	22.02
849.227	19.97
849.403	-23.04
849.578	58.88
849.753	-29.18
849.929	58.88
850.104	28.16
850.279	-2.56
850.454	-35.33
850.63	38.4
850.805	17.92
850.98	17.92
851.155	46.59
851.33	-0.51
851.505	-20.99
851.681	93.69
851.856	67.07
852.031	54.78
852.206	-20.99
852.381	3.58
852.556	91.65
852.731	97.79
852.906	58.88
853.081	24.06
853.256	-37.38
853.431	-33.28
853.606	-43.52
853.781	60.93
853.956	11.78
854.131	19.97
854.305	-27.14
854.48	9.73
854.655	40.45
854.83	-33.28
855.005	15.87
855.18	32.26
855.354	24.06
855.529	1.54
855.704	54.78
855.879	75.26
856.053	-0.51
856.228	75.26
856.403	-51.71
856.577	32.26
856.752	-12.8
856.926	36.35
857.101	-18.94
857.276	26.11
857.45	7.68
857.625	-8.7
857.799	-49.66
857.974	19.97
858.148	67.07
858.323	-20.99
858.497	-90.62
858.672	-43.52
858.846	36.35
859.02	-12.8
859.195	40.45
859.369	17.92
859.543	11.78
859.718	-8.7
859.892	-4.61
860.066	50.69
860.241	15.87
860.415	28.16
860.589	85.5
860.763	60.93
860.938	-86.53
861.112	1.54
861.286	1.54
861.46	17.92
861.634	22.02
861.808	56.83
861.982	-45.57
862.157	32.26
862.331	42.5
862.505	3.58
862.679	-16.9
862.853	11.78
863.027	13.82
863.201	75.26
863.375	22.02
863.549	-31.23
863.722	-10.75
863.896	38.4
864.07	-92.67
864.244	-33.28
864.418	65.02
864.592	48.64
864.766	-51.71
864.939	36.35
865.113	26.11
865.287	-25.09
865.461	-10.75
865.634	28.16
865.808	-37.38
865.982	-72.19
866.156	9.73
866.329	15.87
866.503	-43.52
866.676	48.64
866.85	1.54
867.024	9.73
867.197	67.07
867.371	17.92
867.544	-70.14
867.718	-33.28
867.891	1.54
868.065	-16.9
868.238	-25.09
868.412	105.98
868.585	13.82
868.759	-14.85
868.932	-10.75
869.105	34.3
869.279	38.4
869.452	-35.33
869.625	46.59
869.799	56.83
869.972	-39.42
870.145	15.87
870.319	22.02
870.492	-0.51
870.665	3.58
870.838	58.88
871.011	-4.61
871.185	-25.09
871.358	-35.33
871.531	91.65
871.704	15.87
871.877	5.63
872.05	-61.95
872.223	-33.28
872.396	26.11
872.569	-6.66
872.742	19.97
872.915	50.69
873.088	-31.23
873.261	-20.99
873.434	26.11
873.607	-12.8
873.78	40.45
873.953	81.41
874.126	13.82
874.299	60.93
874.471	19.97
874.644	7.68
874.817	50.69
874.99	22.02
875.163	-14.85
875.335	32.26
875.508	22.02
875.681	26.11
875.853	58.88
876.026	5.63
876.199	-10.75
876.371	13.82
876.544	-14.85
876.717	83.45
876.889	-20.99
877.062	42.5
877.234	-80.38
877.407	-4.61
877.579	50.69
877.752	24.06
877.924	-37.38
878.097	-55.81
878.269	26.11
878.442	7.68
878.614	1.54
878.786	26.11
878.959	9.73
879.131	28.16
879.303	-49.66
879.476	-2.56
879.648	52.74
879.82	26.11
879.993	-14.85
880.165	-6.66
880.337	-49.66
880.509	-10.75
880.681	7.68
880.854	5.63
881.026	42.5
881.198	-23.04
881.37	-35.33
881.542	-57.86
881.714	-61.95
881.886	19.97
882.058	-68.09
882.23	9.73
882.402	46.59
882.574	-16.9
882.746	32.26
882.918	-41.47
883.09	-45.57
883.262	9.73
883.434	-35.33
883.606	13.82
883.778	32.26
883.95	65.02
884.122	-39.42
884.293	-14.85
884.465	-2.56
884.637	30.21
884.809	5.63
884.98	22.02
885.152	-8.7
885.324	-16.9
885.496	-0.51
885.667	-12.8
885.839	3.58
886.011	-2.56
886.182	5.63
886.354	54.78
886.525	89.6
886.697	42.5
886.869	3.58
887.04	7.68
887.212	42.5
887.383	42.5
887.555	-117.25
887.726	5.63
887.897	-14.85
888.069	-0.51
888.24	44.54
888.412	-33.28
888.583	-0.51
888.754	24.06
888.926	67.07
889.097	-25.09
889.268	3.58
889.44	-61.95
889.611	-12.8
889.782	50.69
889.953	30.21
890.125	22.02
890.296	-25.09
890.467	17.92
890.638	-20.99
890.809	-51.71
890.98	38.4
891.151	13.82
891.323	28.16
891.494	-23.04
891.665	26.11
891.836	-49.66
892.007	30.21
892.178	36.35
892.349	-57.86
892.52	-2.56
892.691	77.31
892.862	-51.71
893.032	30.21
893.203	-25.09
893.374	-74.24
893.545	58.88
893.716	26.11
893.887	19.97
894.057	-68.09
894.228	-23.04
894.399	-14.85
894.57	17.92
894.74	28.16
894.911	17.92
895.082	62.98
895.253	58.88
895.423	-0.51
895.594	34.3
895.764	-27.14
895.935	65.02
896.106	1.54
896.276	50.69
896.447	7.68
896.617	46.59
896.788	40.45
896.958	24.06
897.129	-49.66
897.299	17.92
897.47	30.21
897.64	9.73
897.81	1.54
897.981	7.68
898.151	11.78
898.322	-8.7
898.492	15.87
898.662	-20.99
898.832	-23.04
899.003	9.73
899.173	-55.81
899.343	1.54
899.513	52.74
