Data from USB4F104151__80__12-54-43-639.txt Node

Date: Fri Mar 14 12:54:43 EDT 2025
User: louis
Spectrometer: USB4F10415
Trigger mode: 4
Integration Time (sec): 1.000000E-2
Scans to average: 1
Electric dark correction enabled: true
Nonlinearity correction enabled: false
Boxcar width: 0
XAxis mode: Wavelengths
Number of Pixels in Spectrum: 3648
>>>>>Begin Spectral Data<<<<<
178.204	-52.39
178.424	-52.39
178.644	-52.39
178.864	-44.2
179.084	-38.06
179.304	25.43
179.524	4.95
179.744	-29.87
179.964	-27.82
180.184	2.9
180.404	-19.63
180.624	0.85
180.844	2.9
181.064	-54.44
181.283	23.38
181.503	17.24
181.723	54.1
181.943	-38.06
182.163	11.09
182.383	-33.96
182.602	29.52
182.822	2.9
183.042	54.1
183.262	-21.67
183.482	17.24
183.701	27.48
183.921	17.24
184.141	-17.58
184.361	90.96
184.58	-11.43
184.8	-17.58
185.02	-54.44
185.239	15.19
185.459	7
185.679	-15.53
185.898	-23.72
186.118	60.24
186.338	17.24
186.557	50
186.777	39.76
186.997	25.43
187.216	-36.01
187.436	45.91
187.655	45.91
187.875	31.57
188.095	0.85
188.314	9.05
188.534	-21.67
188.753	31.57
188.973	4.95
189.192	17.24
189.412	37.72
189.631	-1.19
189.851	-1.19
190.07	-40.11
190.29	43.86
190.509	93.01
190.729	-38.06
190.948	-15.53
191.168	62.29
191.387	21.33
191.607	-17.58
191.826	31.57
192.045	21.33
192.265	68.44
192.484	27.48
192.704	-7.34
192.923	-79.02
193.142	74.58
193.362	9.05
193.581	41.81
193.8	-3.24
194.02	-15.53
194.239	60.24
194.458	9.05
194.678	13.14
194.897	-15.53
195.116	4.95
195.335	39.76
195.555	21.33
195.774	54.1
195.993	27.48
196.212	9.05
196.432	17.24
196.651	41.81
196.87	7
197.089	50
197.308	23.38
197.528	56.15
197.747	35.67
197.966	-33.96
198.185	23.38
198.404	-46.25
198.623	23.38
198.842	4.95
199.062	2.9
199.281	33.62
199.5	58.2
199.719	-9.39
199.938	43.86
200.157	76.63
200.376	62.29
200.595	-38.06
200.814	21.33
201.033	88.92
201.252	-7.34
201.471	25.43
201.69	56.15
201.909	70.48
202.128	7
202.347	23.38
202.566	0.85
202.785	-11.43
203.004	-25.77
203.223	-38.06
203.442	78.68
203.661	52.05
203.879	29.52
204.098	41.81
204.317	-19.63
204.536	50
204.755	21.33
204.974	9.05
205.193	35.67
205.411	-9.39
205.63	72.53
205.849	29.52
206.068	37.72
206.287	-42.15
206.505	23.38
206.724	0.85
206.943	9.05
207.162	45.91
207.381	47.96
207.599	27.48
207.818	2.9
208.037	115.54
208.255	-7.34
208.474	101.2
208.693	33.62
208.911	-13.48
209.13	25.43
209.349	-7.34
209.567	-9.39
209.786	7
210.005	15.19
210.223	23.38
210.442	-21.67
210.661	-13.48
210.879	72.53
211.098	64.34
211.316	13.14
211.535	90.96
211.753	56.15
211.972	45.91
212.191	27.48
212.409	7
212.628	15.19
212.846	15.19
213.065	35.67
213.283	-7.34
213.502	52.05
213.72	68.44
213.938	21.33
214.157	62.29
214.375	45.91
214.594	-33.96
214.812	-9.39
215.031	29.52
215.249	-19.63
215.467	45.91
215.686	60.24
215.904	35.67
216.122	27.48
216.341	33.62
216.559	-13.48
216.778	21.33
216.996	13.14
217.214	-85.16
217.432	-27.82
217.651	-31.91
217.869	-5.29
218.087	29.52
218.306	72.53
218.524	-31.91
218.742	4.95
218.96	84.82
219.179	-7.34
219.397	7
219.615	7
219.833	35.67
220.051	9.05
220.27	41.81
220.488	-29.87
220.706	35.67
220.924	4.95
221.142	23.38
221.36	-46.25
221.578	54.1
221.796	47.96
222.015	97.11
222.233	-7.34
222.451	68.44
222.669	31.57
222.887	23.38
223.105	-17.58
223.323	-44.2
223.541	-25.77
223.759	47.96
223.977	-66.73
224.195	9.05
224.413	99.16
224.631	27.48
224.849	52.05
225.067	74.58
225.285	-9.39
225.503	29.52
225.721	-40.11
225.939	2.9
226.157	76.63
226.375	37.72
226.592	9.05
226.81	58.2
227.028	-58.54
227.246	37.72
227.464	-7.34
227.682	64.34
227.9	31.57
228.117	13.14
228.335	76.63
228.553	60.24
228.771	37.72
228.989	72.53
229.206	-15.53
229.424	37.72
229.642	15.19
229.86	95.06
230.077	37.72
230.295	-9.39
230.513	17.24
230.731	-7.34
230.948	99.16
231.166	23.38
231.384	97.11
231.601	-11.43
231.819	-33.96
232.037	-25.77
232.254	4.95
232.472	-17.58
232.689	29.52
232.907	27.48
233.125	25.43
233.342	-3.24
233.56	27.48
233.777	27.48
233.995	-27.82
234.213	74.58
234.43	-27.82
234.648	41.81
234.865	21.33
235.083	-15.53
235.3	37.72
235.518	-7.34
235.735	13.14
235.953	86.87
236.17	-9.39
236.388	43.86
236.605	25.43
236.822	58.2
237.04	47.96
237.257	62.29
237.475	56.15
237.692	9.05
237.909	97.11
238.127	4.95
238.344	33.62
238.562	129.88
238.779	43.86
238.996	17.24
239.214	41.81
239.431	13.14
239.648	-1.19
239.865	56.15
240.083	-33.96
240.3	-27.82
240.517	-31.91
240.735	-21.67
240.952	74.58
241.169	7
241.386	23.38
241.603	25.43
241.821	-42.15
242.038	43.86
242.255	37.72
242.472	-25.77
242.689	62.29
242.907	37.72
243.124	43.86
243.341	7
243.558	7
243.775	39.76
243.992	45.91
244.209	50
244.426	15.19
244.643	-9.39
244.86	0.85
245.078	58.2
245.295	-3.24
245.512	-56.49
245.729	7
245.946	31.57
246.163	9.05
246.38	11.09
246.597	52.05
246.814	-27.82
247.031	-62.63
247.248	17.24
247.464	35.67
247.681	39.76
247.898	33.62
248.115	27.48
248.332	19.29
248.549	17.24
248.766	13.14
248.983	15.19
249.2	47.96
249.417	64.34
249.633	103.25
249.85	27.48
250.067	-27.82
250.284	25.43
250.501	45.91
250.717	9.05
250.934	-1.19
251.151	-7.34
251.368	-23.72
251.585	66.39
251.801	-5.29
252.018	27.48
252.235	-36.01
252.451	23.38
252.668	-38.06
252.885	31.57
253.102	33.62
253.318	82.77
253.535	17.24
253.752	-42.15
253.968	-33.96
254.185	39.76
254.401	11.09
254.618	37.72
254.835	35.67
255.051	35.67
255.268	-15.53
255.484	25.43
255.701	-19.63
255.917	50
256.134	29.52
256.351	0.85
256.567	-21.67
256.784	4.95
257	7
257.217	25.43
257.433	13.14
257.65	4.95
257.866	52.05
258.082	-56.49
258.299	-11.43
258.515	13.14
258.732	-27.82
258.948	76.63
259.165	50
259.381	2.9
259.597	54.1
259.814	2.9
260.03	-52.39
260.246	0.85
260.463	70.48
260.679	21.33
260.895	-13.48
261.112	23.38
261.328	-44.2
261.544	-11.43
261.761	107.35
261.977	15.19
262.193	-21.67
262.409	64.34
262.626	47.96
262.842	80.72
263.058	-29.87
263.274	-1.19
263.49	13.14
263.707	31.57
263.923	13.14
264.139	2.9
264.355	88.92
264.571	68.44
264.787	15.19
265.004	131.92
265.22	-27.82
265.436	9.05
265.652	21.33
265.868	41.81
266.084	23.38
266.3	93.01
266.516	-33.96
266.732	-1.19
266.948	11.09
267.164	9.05
267.38	35.67
267.596	-19.63
267.812	31.57
268.028	15.19
268.244	15.19
268.46	43.86
268.676	-9.39
268.892	-1.19
269.108	-54.44
269.324	15.19
269.54	39.76
269.756	47.96
269.972	33.62
270.188	39.76
270.403	2.9
270.619	9.05
270.835	-31.91
271.051	17.24
271.267	17.24
271.483	-48.3
271.698	-1.19
271.914	43.86
272.13	58.2
272.346	-3.24
272.562	-9.39
272.777	72.53
272.993	-31.91
273.209	43.86
273.425	-33.96
273.64	19.29
273.856	-36.01
274.072	107.35
274.287	19.29
274.503	-1.19
274.719	64.34
274.934	29.52
275.15	37.72
275.366	97.11
275.581	-29.87
275.797	15.19
276.012	-15.53
276.228	17.24
276.444	86.87
276.659	15.19
276.875	-17.58
277.09	52.05
277.306	7
277.521	39.76
277.737	4.95
277.952	25.43
278.168	-9.39
278.383	23.38
278.599	-48.3
278.814	19.29
279.03	76.63
279.245	-3.24
279.461	9.05
279.676	-36.01
279.892	-29.87
280.107	-15.53
280.322	54.1
280.538	25.43
280.753	25.43
280.969	52.05
281.184	19.29
281.399	97.11
281.615	90.96
281.83	68.44
282.045	31.57
282.26	25.43
282.476	0.85
282.691	7
282.906	2.9
283.122	0.85
283.337	11.09
283.552	23.38
283.767	25.43
283.983	2.9
284.198	21.33
284.413	56.15
284.628	-11.43
284.843	76.63
285.058	-17.58
285.274	-27.82
285.489	23.38
285.704	64.34
285.919	43.86
286.134	41.81
286.349	4.95
286.564	43.86
286.779	-7.34
286.995	39.76
287.21	41.81
287.425	27.48
287.64	-40.11
287.855	56.15
288.07	15.19
288.285	2.9
288.5	29.52
288.715	-21.67
288.93	-31.91
289.145	-29.87
289.36	54.1
289.575	-17.58
289.79	62.29
290.004	35.67
290.219	2.9
290.434	-23.72
290.649	33.62
290.864	25.43
291.079	-23.72
291.294	43.86
291.509	-33.96
291.724	15.19
291.938	25.43
292.153	37.72
292.368	-13.48
292.583	103.25
292.798	47.96
293.012	43.86
293.227	39.76
293.442	-17.58
293.657	56.15
293.871	15.19
294.086	-1.19
294.301	7
294.516	66.39
294.73	29.52
294.945	21.33
295.16	72.53
295.374	21.33
295.589	-70.83
295.804	17.24
296.018	4.95
296.233	72.53
296.447	-29.87
296.662	74.58
296.877	107.35
297.091	115.54
297.306	-19.63
297.52	56.15
297.735	-13.48
297.949	84.82
298.164	90.96
298.378	68.44
298.593	0.85
298.807	33.62
299.022	31.57
299.236	41.81
299.451	17.24
299.665	50
299.88	-54.44
300.094	43.86
300.309	19.29
300.523	-19.63
300.737	-31.91
300.952	-7.34
301.166	-19.63
301.381	19.29
301.595	31.57
301.809	-58.54
302.024	23.38
302.238	-3.24
302.452	9.05
302.667	56.15
302.881	66.39
303.095	47.96
303.309	-7.34
303.524	88.92
303.738	0.85
303.952	23.38
304.166	54.1
304.381	-15.53
304.595	31.57
304.809	50
305.023	7
305.237	-52.39
305.452	-5.29
305.666	-13.48
305.88	88.92
306.094	74.58
306.308	50
306.522	45.91
306.736	93.01
306.95	43.86
307.164	39.76
307.379	19.29
307.593	-1.19
307.807	-25.77
308.021	47.96
308.235	-31.91
308.449	-3.24
308.663	43.86
308.877	41.81
309.091	45.91
309.305	64.34
309.519	39.76
309.733	27.48
309.947	-7.34
310.161	37.72
310.374	50
310.588	0.85
310.802	21.33
311.016	17.24
311.23	43.86
311.444	74.58
311.658	52.05
311.872	86.87
312.085	25.43
312.299	47.96
312.513	56.15
312.727	90.96
312.941	-11.43
313.154	39.76
313.368	82.77
313.582	101.2
313.796	68.44
314.009	80.72
314.223	39.76
314.437	93.01
314.651	7
314.864	-11.43
315.078	-50.35
315.292	45.91
315.505	-7.34
315.719	-3.24
315.933	-1.19
316.146	52.05
316.36	-36.01
316.573	-9.39
316.787	47.96
317.001	64.34
317.214	-25.77
317.428	62.29
317.641	-9.39
317.855	66.39
318.068	43.86
318.282	23.38
318.495	47.96
318.709	64.34
318.922	37.72
319.136	31.57
319.349	82.77
319.563	-33.96
319.776	50
319.99	15.19
320.203	23.38
320.417	25.43
320.63	2.9
320.843	9.05
321.057	7
321.27	9.05
321.483	27.48
321.697	86.87
321.91	39.76
322.124	41.81
322.337	15.19
322.55	33.62
322.763	4.95
322.977	7
323.19	35.67
323.403	41.81
323.617	-13.48
323.83	15.19
324.043	-38.06
324.256	25.43
324.469	11.09
324.683	31.57
324.896	-17.58
325.109	11.09
325.322	9.05
325.535	0.85
325.748	-38.06
325.962	-15.53
326.175	70.48
326.388	109.4
326.601	27.48
326.814	39.76
327.027	183.12
327.24	0.85
327.453	-36.01
327.666	7
327.879	-21.67
328.092	58.2
328.305	66.39
328.518	27.48
328.731	23.38
328.944	27.48
329.157	33.62
329.37	56.15
329.583	21.33
329.796	-50.35
330.009	29.52
330.222	23.38
330.435	25.43
330.648	50
330.861	7
331.073	41.81
331.286	-36.01
331.499	39.76
331.712	2.9
331.925	-5.29
332.138	64.34
332.35	105.3
332.563	58.2
332.776	27.48
332.989	60.24
333.202	47.96
333.414	23.38
333.627	50
333.84	86.87
334.053	33.62
334.265	-54.44
334.478	21.33
334.691	0.85
334.903	60.24
335.116	-40.11
335.329	-11.43
335.541	-17.58
335.754	39.76
335.966	107.35
336.179	15.19
336.392	58.2
336.604	27.48
336.817	43.86
337.029	15.19
337.242	31.57
337.454	99.16
337.667	56.15
337.88	-7.34
338.092	47.96
338.305	-9.39
338.517	-40.11
338.729	39.76
338.942	15.19
339.154	62.29
339.367	-31.91
339.579	60.24
339.792	7
340.004	64.34
340.217	52.05
340.429	93.01
340.641	-15.53
340.854	23.38
341.066	43.86
341.278	93.01
341.491	62.29
341.703	29.52
341.915	-33.96
342.128	66.39
342.34	70.48
342.552	56.15
342.764	25.43
342.977	93.01
343.189	76.63
343.401	70.48
343.613	39.76
343.826	31.57
344.038	86.87
344.25	64.34
344.462	-9.39
344.674	33.62
344.886	2.9
345.099	43.86
345.311	11.09
345.523	50
345.735	25.43
345.947	-9.39
346.159	62.29
346.371	68.44
346.583	25.43
346.795	70.48
347.007	105.3
347.219	45.91
347.431	15.19
347.643	70.48
347.855	76.63
348.067	-7.34
348.279	25.43
348.491	-1.19
348.703	41.81
348.915	72.53
349.127	-7.34
349.339	43.86
349.551	47.96
349.763	107.35
349.975	68.44
350.187	60.24
350.399	15.19
350.61	33.62
350.822	-52.39
351.034	47.96
351.246	11.09
351.458	-17.58
351.669	35.67
351.881	82.77
352.093	58.2
352.305	60.24
352.517	37.72
352.728	-21.67
352.94	-54.44
353.152	13.14
353.363	58.2
353.575	0.85
353.787	52.05
353.999	62.29
354.21	0.85
354.422	-11.43
354.633	88.92
354.845	-21.67
355.057	50
355.268	9.05
355.48	58.2
355.692	7
355.903	-29.87
356.115	27.48
356.326	31.57
356.538	41.81
356.749	15.19
356.961	68.44
357.172	43.86
357.384	-7.34
357.595	66.39
357.807	41.81
358.018	-21.67
358.23	-46.25
358.441	99.16
358.653	64.34
358.864	13.14
359.075	50
359.287	74.58
359.498	56.15
359.709	0.85
359.921	90.96
360.132	70.48
360.344	41.81
360.555	68.44
360.766	88.92
360.977	-42.15
361.189	33.62
361.4	-46.25
361.611	13.14
361.823	33.62
362.034	-7.34
362.245	43.86
362.456	39.76
362.667	37.72
362.879	52.05
363.09	-9.39
363.301	35.67
363.512	62.29
363.723	29.52
363.935	13.14
364.146	19.29
364.357	90.96
364.568	25.43
364.779	-17.58
364.99	17.24
365.201	-15.53
365.412	58.2
365.623	47.96
365.834	50
366.045	-9.39
366.256	7
366.467	27.48
366.678	7
366.889	-13.48
367.1	50
367.311	50
367.522	33.62
367.733	47.96
367.944	90.96
368.155	35.67
368.366	39.76
368.577	41.81
368.788	2.9
368.999	82.77
369.209	72.53
369.42	4.95
369.631	109.4
369.842	-7.34
370.053	64.34
370.264	105.3
370.474	72.53
370.685	68.44
370.896	86.87
371.107	62.29
371.317	-31.91
371.528	41.81
371.739	-23.72
371.95	9.05
372.16	60.24
372.371	45.91
372.582	33.62
372.792	-42.15
373.003	25.43
373.214	70.48
373.424	111.44
373.635	-11.43
373.846	-19.63
374.056	0.85
374.267	-17.58
374.477	-19.63
374.688	2.9
374.898	47.96
375.109	72.53
375.319	52.05
375.53	45.91
375.74	-21.67
375.951	60.24
376.161	-19.63
376.372	33.62
376.582	-3.24
376.793	37.72
377.003	17.24
377.214	-1.19
377.424	11.09
377.635	29.52
377.845	17.24
378.055	29.52
378.266	19.29
378.476	-1.19
378.686	-56.49
378.897	-5.29
379.107	39.76
379.317	-21.67
379.528	17.24
379.738	101.2
379.948	-7.34
380.158	21.33
380.369	47.96
380.579	29.52
380.789	66.39
380.999	35.67
381.21	72.53
381.42	64.34
381.63	52.05
381.84	27.48
382.05	-5.29
382.261	56.15
382.471	9.05
382.681	56.15
382.891	-9.39
383.101	68.44
383.311	25.43
383.521	-13.48
383.731	27.48
383.941	52.05
384.151	17.24
384.361	45.91
384.571	39.76
384.781	82.77
384.991	15.19
385.201	23.38
385.411	39.76
385.621	76.63
385.831	33.62
386.041	50
386.251	29.52
386.461	33.62
386.671	-7.34
386.881	109.4
387.091	17.24
387.301	58.2
387.511	56.15
387.72	72.53
387.93	-15.53
388.14	109.4
388.35	43.86
388.56	84.82
388.769	25.43
388.979	64.34
389.189	43.86
389.399	25.43
389.609	58.2
389.818	80.72
390.028	52.05
390.238	58.2
390.447	11.09
390.657	76.63
390.867	74.58
391.076	43.86
391.286	66.39
391.496	60.24
391.705	29.52
391.915	47.96
392.125	78.68
392.334	41.81
392.544	-38.06
392.753	80.72
392.963	-27.82
393.172	56.15
393.382	41.81
393.591	68.44
393.801	88.92
394.01	76.63
394.22	-19.63
394.429	41.81
394.639	21.33
394.848	107.35
395.058	60.24
395.267	70.48
395.477	74.58
395.686	-36.01
395.895	31.57
396.105	117.59
396.314	-7.34
396.524	37.72
396.733	27.48
396.942	133.97
397.152	0.85
397.361	72.53
397.57	39.76
397.78	23.38
397.989	62.29
398.198	62.29
398.407	88.92
398.617	47.96
398.826	56.15
399.035	119.64
399.244	97.11
399.453	45.91
399.663	-11.43
399.872	111.44
400.081	43.86
400.29	101.2
400.499	52.05
400.708	131.92
400.917	27.48
401.127	31.57
401.336	-23.72
401.545	41.81
401.754	58.2
401.963	72.53
402.172	97.11
402.381	52.05
402.59	-1.19
402.799	113.49
403.008	111.44
403.217	80.72
403.426	95.06
403.635	68.44
403.844	76.63
404.053	43.86
404.262	43.86
404.471	54.1
404.68	33.62
404.888	60.24
405.097	62.29
405.306	115.54
405.515	74.58
405.724	162.64
405.933	176.98
406.142	90.96
406.35	142.16
406.559	125.78
406.768	109.4
406.977	138.07
407.185	125.78
407.394	56.15
407.603	88.92
407.812	43.86
408.02	105.3
408.229	138.07
408.438	156.5
408.646	127.83
408.855	142.16
409.064	181.07
409.272	146.26
409.481	152.4
409.69	176.98
409.898	176.98
410.107	189.27
410.315	187.22
410.524	213.84
410.733	201.55
410.941	179.03
411.15	199.51
411.358	213.84
411.567	174.93
411.775	152.4
411.984	217.94
412.192	189.27
412.401	262.99
412.609	211.79
412.818	312.14
413.026	281.43
413.234	211.79
413.443	287.57
413.651	287.57
413.86	283.47
414.068	234.32
414.276	322.38
414.485	297.81
414.693	297.81
414.901	412.5
415.11	375.63
415.318	428.88
415.526	400.21
415.734	392.02
415.943	475.98
416.151	439.12
416.359	394.06
416.567	463.69
416.776	443.21
416.984	629.58
417.192	562
417.4	449.36
417.608	484.17
417.817	572.24
418.025	570.19
418.233	615.24
418.441	670.54
418.649	566.09
418.857	691.02
419.065	688.97
419.273	693.07
419.481	639.82
419.689	760.65
419.897	817.99
420.105	834.38
420.313	848.71
420.521	848.71
420.729	824.14
420.937	846.66
421.145	1016.65
421.353	1055.56
421.561	1026.89
421.769	961.35
421.977	973.64
422.185	1080.13
422.393	1086.28
422.601	1168.2
422.809	1237.83
423.017	1272.64
423.224	1327.94
423.432	1307.46
423.64	1413.95
423.848	1440.58
424.056	1319.75
424.263	1395.52
424.471	1485.63
424.679	1538.88
424.887	1563.45
425.094	1633.08
425.302	1624.89
425.51	1669.95
425.718	1694.52
425.925	1839.93
426.133	1891.13
426.341	1987.38
426.548	2052.92
426.756	2106.17
426.964	2169.65
427.171	2171.7
427.379	2292.53
427.586	2333.49
427.794	2263.86
428.001	2480.94
428.209	2616.11
428.417	2648.88
428.624	2759.47
428.832	2769.71
429.039	2704.17
429.247	2663.21
429.454	2984.74
429.662	3142.44
429.869	2978.6
430.076	3228.45
430.284	3085.09
430.491	3203.88
430.699	3384.1
430.906	3384.1
431.114	3650.33
431.321	3513.12
431.528	3617.57
431.736	3930.91
431.943	3971.86
432.15	3869.47
432.358	3908.38
432.565	4102.93
432.772	4324.12
432.979	4434.71
433.187	4498.19
433.394	4457.23
433.601	4758.28
433.808	4903.69
434.016	4793.1
434.223	4866.83
434.43	5266.18
434.637	5270.28
434.844	5577.47
435.052	5610.24
435.259	5597.95
435.466	5667.58
435.673	5634.82
435.88	5864.19
436.087	6337.27
436.294	6345.46
436.501	6185.72
436.708	6351.6
436.915	6621.94
437.122	6834.93
437.329	6824.69
437.537	7086.83
437.743	7076.59
437.95	7123.69
438.157	7344.87
438.364	7572.19
438.571	7621.35
438.778	7863.01
438.985	8432.34
439.192	7979.74
439.399	8452.82
439.606	8254.17
439.813	8745.68
440.02	9210.57
440.227	9110.22
440.433	8938.19
440.64	9255.62
440.847	9212.62
441.054	9505.48
441.261	10011.32
441.467	9968.32
441.674	10257.08
441.881	10533.56
442.088	10523.32
442.294	10324.66
442.501	10521.27
442.708	10797.74
442.914	11473.57
443.121	11567.78
443.328	11383.46
443.534	12382.87
443.741	11907.74
443.948	11823.78
444.154	12796.56
444.361	12700.31
444.568	12716.69
444.774	12806.8
444.981	12929.68
445.187	13126.29
445.394	13785.73
445.6	13490.82
445.807	14826.1
446.013	14201.47
446.22	14492.28
446.426	15106.67
446.633	15348.33
446.839	15741.54
447.046	15157.87
447.252	15831.65
447.459	15827.56
447.665	16210.53
447.871	16599.64
448.078	17392.2
448.284	16681.56
448.491	17353.29
448.697	17762.89
448.903	17936.96
449.11	18184.77
449.316	17726.02
449.522	18145.86
449.728	18856.5
449.935	18979.38
450.141	18926.13
450.347	19212.85
450.553	18874.93
450.76	18774.58
450.966	19569.19
451.172	19378.73
451.378	19769.9
451.584	19489.32
451.791	19864.1
451.997	19911.21
452.203	20214.3
452.409	20406.81
452.615	20040.23
452.821	19438.12
453.027	19106.35
453.233	20328.99
453.44	19468.84
453.646	19313.2
453.852	19599.91
454.058	20185.63
454.264	19456.56
454.47	19976.74
454.676	19413.55
454.882	20011.56
455.088	18424.38
455.294	18661.94
455.5	18868.79
455.705	18938.42
455.911	18111.04
456.117	18106.95
456.323	17826.37
456.529	16722.52
456.735	17480.27
456.941	17326.67
457.147	16609.88
457.352	16253.53
457.558	15989.35
457.764	16441.95
457.97	15888.99
458.176	15299.18
458.381	15575.66
458.587	14914.16
458.793	14785.14
458.999	13722.24
459.204	15028.85
459.41	14846.58
459.616	13578.89
459.821	13542.02
460.027	13392.52
460.233	13206.16
460.438	12401.3
460.644	12839.57
460.85	12169.88
461.055	11829.92
461.261	11920.03
461.466	11213.48
461.672	10951.34
461.878	11704.99
462.083	10810.03
462.289	10654.39
462.494	10506.93
462.7	9956.03
462.905	10027.71
463.111	9888.45
463.316	10031.8
463.522	10029.76
463.727	9906.88
463.932	9896.64
464.138	9790.14
464.343	9931.45
464.549	9654.98
464.754	9822.91
464.959	9921.21
465.165	9708.23
465.37	9370.31
465.575	8925.9
465.781	9181.9
465.986	9542.34
466.191	9038.54
466.397	9128.65
466.602	8401.62
466.807	9073.35
467.012	8774.35
467.218	8805.07
467.423	8886.99
467.628	8790.74
467.833	9075.4
468.038	8798.93
468.244	8624.85
468.449	8970.96
468.654	8600.27
468.859	8446.68
469.064	8420.05
469.269	8162.01
469.474	8172.25
469.679	8489.68
469.885	8114.91
470.09	8356.57
470.295	8399.57
470.5	7858.91
470.705	8012.51
470.91	7938.78
471.115	7697.12
471.32	7985.88
471.525	7918.3
471.73	7633.63
471.935	7594.72
472.139	7594.72
472.344	7459.56
472.549	7428.84
472.754	7326.44
472.959	7516.9
473.164	7172.84
473.369	6986.47
473.574	7252.71
473.778	7193.32
473.983	7068.39
474.188	7066.35
474.393	6773.49
474.598	6662.9
474.802	6712.05
475.007	6767.34
475.212	6716.14
475.417	6429.43
475.621	6425.33
475.826	6396.66
476.031	6261.49
476.235	6333.17
476.44	6208.25
476.645	6138.62
476.849	6298.36
477.054	6138.62
477.259	6136.57
477.463	6099.7
477.668	5933.82
477.872	5982.97
478.077	5860.09
478.282	5712.64
478.486	5554.94
478.691	5561.09
478.895	5595.9
479.1	5470.98
479.304	5485.31
479.509	5417.73
479.713	5585.66
479.918	5430.02
480.122	5415.68
480.326	5458.69
480.531	5483.27
480.735	5286.66
480.94	5329.67
481.144	5393.16
481.348	5143.3
481.553	5221.13
481.757	5020.42
481.961	5272.32
482.166	5155.59
482.37	5155.59
482.574	5126.92
482.778	5118.73
482.983	5301
483.187	5108.49
483.391	5208.84
483.595	5214.98
483.8	5145.35
484.004	5210.89
484.208	5268.23
484.412	5223.17
484.616	5313.28
484.821	5329.67
485.025	5305.09
485.229	5321.48
485.433	5131.02
485.637	5190.41
485.841	5180.17
486.045	5108.49
486.249	5225.22
486.453	5186.31
486.657	5264.13
486.861	5247.75
487.065	4952.84
487.269	5141.25
487.473	5126.92
487.677	4985.61
487.881	5356.29
488.085	5249.8
488.289	5309.19
488.493	5104.39
488.697	5321.48
488.901	5163.78
489.105	5196.55
489.309	5278.47
489.512	5407.49
489.716	5376.77
489.92	5243.65
490.124	5239.56
490.328	5176.07
490.531	5253.89
490.735	5313.28
490.939	5397.25
491.143	5378.82
491.346	5184.26
491.55	5403.39
491.754	5659.39
491.958	5473.03
492.161	5526.27
492.365	5516.03
492.569	5440.26
492.772	5520.13
492.976	5583.62
493.18	5669.63
493.383	5722.88
493.587	5810.94
493.79	5856
493.994	5681.92
494.197	5776.13
494.401	5858.04
494.605	5856
494.808	5876.48
495.012	5921.53
495.215	6003.45
495.419	5960.44
495.622	6009.59
495.825	6324.98
496.029	6068.98
496.232	6224.63
496.436	6062.84
496.639	6355.7
496.843	6482.67
497.046	6576.88
497.249	6505.2
497.453	6726.38
497.656	6699.76
497.859	6566.64
498.063	6697.71
498.266	6939.37
498.469	6988.52
498.673	6990.57
498.876	7103.21
499.079	7088.87
499.282	7060.2
499.485	7346.92
499.689	7373.54
499.892	7457.51
500.095	7455.46
500.298	7647.97
500.501	7658.21
500.705	7871.2
500.908	7844.57
501.111	8149.72
501.314	8069.85
501.517	8069.85
501.72	8248.02
501.923	8186.58
502.126	8461.01
502.329	8590.03
502.532	8563.41
502.735	8788.69
502.938	8837.84
503.141	8987.34
503.344	9114.31
503.547	8868.56
503.75	9272.01
503.953	9300.68
504.156	9466.56
504.359	9632.45
504.562	9540.29
504.765	9794.24
504.968	9908.93
505.17	10205.88
505.373	9999.04
505.576	10212.03
505.779	10486.45
505.982	10623.67
506.185	10595
506.387	10580.66
506.59	10750.64
506.793	11066.03
506.996	10875.57
507.198	11389.61
507.401	11199.15
507.604	11276.97
507.807	11600.55
508.009	11821.73
508.212	11596.45
508.415	11770.53
508.617	12018.33
508.82	12124.83
509.022	12290.71
509.225	12468.89
509.428	12501.65
509.63	12507.8
509.833	12753.55
510.035	13046.41
510.238	12997.26
510.44	12960.4
510.643	13611.65
510.845	13642.37
511.048	13437.58
511.25	13779.59
511.453	13785.73
511.655	14377.59
511.858	14033.54
512.06	14338.68
512.262	14283.39
512.465	14236.28
512.667	14742.13
512.87	14989.94
513.072	14908.02
513.274	15143.53
513.477	15268.46
513.679	15424.11
513.881	15499.88
514.084	15852.13
514.286	15813.22
514.488	15981.15
514.69	16376.41
514.893	16400.99
515.095	16396.89
515.297	16738.9
515.499	16792.15
515.701	16898.64
515.904	16970.32
516.106	17273.42
516.308	17211.98
516.51	17642.06
516.712	17629.77
516.914	17787.46
517.116	18176.58
517.318	17918.53
517.52	18256.45
517.722	18618.94
517.925	18426.43
518.127	19024.44
518.329	19094.07
518.531	19006
518.733	19231.28
518.935	19477.04
519.136	19493.42
519.338	19649.07
519.54	19847.72
519.742	20009.51
519.944	19903.01
520.146	20460.06
520.348	20609.56
520.55	20744.73
520.752	20879.89
520.954	21269.01
521.155	21031.44
521.357	21627.4
521.559	21418.51
521.761	21877.26
521.963	21682.7
522.164	21815.82
522.366	22084.1
522.568	22051.33
522.77	22100.48
522.971	22710.78
523.173	22655.48
523.375	22606.33
523.576	22954.49
523.778	22815.23
523.98	22708.73
524.181	23402.99
524.383	23198.2
524.584	23427.57
524.786	23454.19
524.988	23613.93
525.189	23722.48
525.391	23738.86
525.592	23763.43
525.794	24025.57
525.995	24185.32
526.197	24291.81
526.398	24322.53
526.6	24295.91
526.801	24330.72
527.003	24304.1
527.204	24771.04
527.406	25020.89
527.607	24797.66
527.808	24801.75
528.01	24369.63
528.211	24699.36
528.412	25397.71
528.614	25012.7
528.815	25172.44
529.016	25358.8
529.218	25156.05
529.419	25397.71
529.62	25354.71
529.822	25459.15
530.023	25149.91
530.224	25596.37
530.425	25317.84
530.626	25440.72
530.828	25416.15
531.029	25571.79
531.23	25588.17
531.431	25680.33
531.632	25260.5
531.833	25895.37
532.035	25674.19
532.236	25754.06
532.437	26102.22
532.638	26048.97
532.839	25891.27
533.04	26073.54
533.241	25717.2
533.442	26180.04
533.643	25901.51
533.844	25987.53
534.045	26098.12
534.246	25645.52
534.447	26139.08
534.648	26003.91
534.849	26094.02
535.05	25792.97
535.251	26085.83
535.451	25758.16
535.652	26212.81
535.853	26182.09
536.054	26360.26
536.255	26249.67
536.456	25868.75
536.657	26388.93
536.857	26153.41
537.058	25731.53
537.259	26307.01
537.46	25960.91
537.66	26155.46
537.861	26118.6
538.062	26126.79
538.263	25952.71
538.463	26180.04
538.664	26024.39
538.865	25930.19
539.065	26196.42
539.266	25854.41
539.466	26241.48
539.667	25647.57
539.868	26282.44
540.068	26134.98
540.269	25776.59
540.469	26145.22
540.67	25977.29
540.87	25717.2
541.071	25813.45
541.271	26423.75
541.472	25676.24
541.672	25782.73
541.873	25885.13
542.073	25541.07
542.274	25965
542.474	26261.96
542.675	25688.53
542.875	26128.84
543.075	25684.43
543.276	25215.44
543.476	25911.75
543.676	25811.4
543.877	25831.88
544.077	25868.75
544.277	25688.53
544.478	25823.69
544.678	25790.92
544.878	25948.62
545.078	25991.62
545.279	25645.52
545.479	25700.81
545.679	25600.46
545.879	25717.2
546.079	25760.2
546.28	25915.85
546.48	25668.05
546.68	25864.65
546.88	25424.34
547.08	25883.08
547.28	25670.09
547.48	25713.1
547.68	25434.58
547.88	25340.37
548.081	25823.69
548.281	25946.57
548.481	25536.98
548.681	25758.16
548.881	25563.6
549.081	25483.73
549.28	25559.5
549.48	25631.18
549.68	25598.41
549.88	25739.72
550.08	25467.34
550.28	25393.62
550.48	25610.7
550.68	26214.85
550.88	25737.68
551.08	25199.06
551.279	25567.7
551.479	25180.63
551.679	25639.37
551.879	25461.2
552.079	25723.34
552.278	25412.05
552.478	25283.03
552.678	25475.54
552.878	25450.96
553.077	25575.89
553.277	25024.98
553.477	25604.56
553.676	25180.63
553.876	25412.05
554.076	25303.51
554.275	25547.22
554.475	24893.91
554.674	25305.56
554.874	25213.4
555.074	25115.09
555.273	25299.41
555.473	25250.26
555.672	25264.6
555.872	25076.18
556.071	25328.08
556.271	25258.45
556.47	25082.33
556.67	25125.33
556.869	24844.76
557.068	25313.75
557.268	24949.21
557.467	24918.49
557.667	25082.33
557.866	25129.43
558.065	25074.13
558.265	25106.9
558.464	24951.26
558.663	25074.13
558.863	24746.46
559.062	25080.28
559.261	24699.36
559.461	24715.74
559.66	24320.48
559.859	24580.57
560.058	24568.29
560.258	24717.79
560.457	24390.11
560.656	24838.62
560.855	24580.57
561.054	24801.75
561.253	24388.07
561.453	24642.01
561.652	24435.17
561.851	24795.61
562.05	24246.76
562.249	24091.11
562.448	24568.29
562.647	24588.77
562.846	24252.9
563.045	24377.83
563.244	24019.43
563.443	24070.63
563.642	23511.53
563.841	24291.81
564.04	24013.29
564.239	24383.97
564.438	23804.39
564.637	24103.4
564.836	24355.3
565.035	23710.19
565.234	23964.14
565.432	23652.84
565.631	23808.49
565.83	23751.15
566.029	23822.83
566.228	23312.88
566.427	23781.87
566.625	23484.91
566.824	23607.79
567.023	23869.93
567.222	23077.37
567.42	23728.62
567.619	23319.03
567.818	23347.7
568.016	23452.14
568.215	23515.63
568.414	23284.21
568.612	23888.36
568.811	23030.26
569.01	23314.93
569.208	22792.7
569.407	23069.17
569.605	22845.94
569.804	23190
570.002	22833.66
570.201	23190
570.4	22977.01
570.598	22186.5
570.797	22637.05
570.995	22653.44
571.193	22610.43
571.392	22622.72
571.59	22381.06
571.789	22602.24
571.987	22417.92
572.186	22628.86
572.384	22168.07
572.582	22350.34
572.781	22499.84
572.979	22028.81
573.177	22264.32
573.376	22217.22
573.574	21895.69
573.772	22102.53
573.971	21938.69
574.169	21678.6
574.367	21711.37
574.565	22303.23
574.763	21953.03
574.962	21760.52
575.16	21576.2
575.358	21803.53
575.556	21377.55
575.754	21541.39
575.952	21391.89
576.151	21537.29
576.349	21391.89
576.547	21176.85
576.745	21477.9
576.943	21236.24
577.141	21455.37
577.339	21359.12
577.537	21150.23
577.735	21080.6
577.933	21068.31
578.131	21086.74
578.329	20959.77
578.527	21031.44
578.725	21146.13
578.923	20972.05
579.121	20707.87
579.319	20556.32
579.516	20412.96
579.714	20767.26
579.912	20838.94
580.11	20421.15
580.308	20357.66
580.506	20707.87
580.704	20206.11
580.901	20300.32
581.099	20529.69
581.297	19892.77
581.495	20283.94
581.692	20392.48
581.89	20017.7
582.088	20079.14
582.285	19935.78
582.483	20017.7
582.681	19958.31
582.878	19677.74
583.076	19763.75
583.274	19714.6
583.471	19628.59
583.669	19757.61
583.866	19395.12
584.064	19663.4
584.262	19255.86
584.459	19565.1
584.657	19149.36
584.854	19378.73
585.052	19112.5
585.249	19542.57
585.447	19257.9
585.644	19167.79
585.841	19178.03
586.039	19190.32
586.236	18952.76
586.434	18623.03
586.631	18733.62
586.828	18678.33
587.026	18786.87
587.223	18670.14
587.42	18668.09
587.618	18735.67
587.815	18516.54
588.012	18481.72
588.21	18559.55
588.407	18684.47
588.604	18465.34
588.801	18231.87
588.999	18469.44
589.196	18160.19
589.393	18428.48
589.59	18086.47
589.787	17963.59
589.984	18182.72
590.182	17922.63
590.379	17930.82
590.576	17885.76
590.773	17758.79
590.97	17680.97
591.167	17859.14
591.364	17685.06
591.561	17848.9
591.758	17328.72
591.955	17410.64
592.152	17672.78
592.349	17545.8
592.546	17607.24
592.743	17267.28
592.94	17279.57
593.137	16994.9
593.334	17365.58
593.531	16853.59
593.727	16843.35
593.924	17246.8
594.121	17027.67
594.318	16855.64
594.515	16693.85
594.712	16927.32
594.908	16730.71
595.105	16890.45
595.302	16597.59
595.499	16925.27
595.696	16634.46
595.892	16699.99
596.089	16560.73
596.286	16675.41
596.482	16378.46
596.679	16394.84
596.876	16386.65
597.072	16433.75
597.269	16364.12
597.466	16220.77
597.662	16210.53
597.859	16136.8
598.055	16214.62
598.252	16161.37
598.448	16280.16
598.645	15929.95
598.841	15915.62
599.038	15551.08
599.234	15942.24
599.431	15571.56
599.627	15794.79
599.824	15698.53
600.02	15477.35
600.217	15538.79
600.413	15858.28
600.609	15407.72
600.806	15377
601.002	15178.35
601.198	15209.07
601.395	15217.26
601.591	15247.98
601.787	15356.52
601.984	15153.77
602.18	15166.06
602.376	15010.42
602.572	15026.8
602.769	14918.26
602.965	14758.52
603.161	15125.1
603.357	14854.77
603.553	14822
603.75	14860.91
603.946	14535.29
604.142	14551.67
604.338	14654.07
604.534	14664.31
604.73	14461.56
604.926	14398.07
605.122	14529.14
605.318	14303.87
605.514	14187.13
605.71	14391.93
605.906	14144.13
606.102	14301.82
606.298	14240.38
606.494	13965.95
606.69	14180.99
606.886	14254.72
607.082	14008.96
607.278	14080.64
607.474	13826.69
607.67	13941.38
607.866	13578.89
608.062	13832.83
608.257	13818.5
608.453	14041.73
608.649	14027.39
608.845	13662.85
609.041	13705.86
609.236	13812.35
609.432	13560.45
609.628	13638.28
609.824	13644.42
610.019	13517.45
610.215	13675.14
610.411	13646.47
610.606	13253.26
610.802	13484.68
610.998	13408.9
611.193	13271.69
611.389	13165.2
611.584	13232.78
611.78	13220.49
611.976	13216.4
612.171	13189.77
612.367	13247.12
612.562	13195.92
612.758	13007.5
612.953	13144.72
613.149	13120.14
613.344	13187.72
613.539	12976.78
613.735	13007.5
613.93	13214.35
614.126	12782.23
614.321	13175.44
614.517	12792.47
614.712	12950.16
614.907	12833.43
615.103	12896.91
615.298	12771.99
615.493	12735.12
615.688	12645.01
615.884	12823.19
616.079	12872.34
616.274	12688.02
616.47	12751.51
616.665	12712.6
616.86	12370.58
617.055	12524.18
617.25	12413.59
617.445	12491.41
617.641	12206.75
617.836	12520.09
618.031	12374.68
618.226	12257.95
618.421	12464.79
618.616	12331.67
618.811	12362.39
619.006	12366.49
619.201	12026.53
619.396	12182.17
619.591	11981.47
619.786	11981.47
619.981	11762.34
620.176	12171.93
620.371	11797.15
620.566	11885.22
620.761	11692.71
620.956	11803.3
621.151	11496.1
621.346	11778.72
621.541	11590.31
621.735	11655.84
621.93	11338.41
622.125	11281.07
622.32	11207.34
622.515	11360.94
622.709	11047.6
622.904	11209.39
623.099	11250.35
623.294	11250.35
623.488	10984.11
623.683	10877.62
623.878	10715.83
624.072	10912.43
624.267	10830.51
624.462	10795.7
624.656	10459.83
624.851	10496.69
625.046	10416.82
625.24	10642.1
625.435	10353.34
625.629	10443.45
625.824	10132.15
626.018	10230.46
626.213	9953.98
626.407	10117.82
626.602	9994.94
626.796	10074.81
626.991	9919.17
627.185	9921.21
627.38	9888.45
627.574	9790.14
627.768	9796.29
627.963	9804.48
628.157	9700.03
628.352	9743.04
628.546	9403.08
628.74	9710.27
628.935	9487.04
629.129	9417.41
629.323	9126.6
629.517	9288.39
629.712	9394.89
629.906	9290.44
630.1	9110.22
630.294	9124.55
630.489	8981.2
630.683	9206.47
630.877	9183.95
631.071	9001.68
631.265	9106.12
631.459	8798.93
631.653	8676.05
631.848	8547.03
632.042	8569.55
632.236	8778.45
632.43	8674
632.624	8633.04
632.818	8536.79
633.012	8278.74
633.206	8477.4
633.4	8364.76
633.594	8444.63
633.788	8229.59
633.982	8245.98
634.176	8383.19
634.369	8100.57
634.563	8291.03
634.757	8131.29
634.951	8063.71
635.145	8190.68
635.339	8061.66
635.533	7985.88
635.726	7971.55
635.92	7746.27
636.114	7817.95
636.308	7650.02
636.501	7645.92
636.695	7676.64
636.889	7557.86
637.083	7619.3
637.276	7535.33
637.47	7586.53
637.664	7748.32
637.857	7451.36
638.051	7398.12
638.244	7412.45
638.438	7381.73
638.632	7224.04
638.825	7344.87
639.019	7277.29
639.212	7105.26
639.406	7203.56
639.599	7049.96
639.793	7060.2
639.986	6927.08
640.18	7029.48
640.373	7121.64
640.567	6906.6
640.76	6863.6
640.954	6951.66
641.147	6654.7
641.34	6687.47
641.534	6900.46
641.727	6836.97
641.92	6609.65
642.114	6685.42
642.307	6636.27
642.5	6750.96
642.694	6605.55
642.887	6437.62
643.08	6718.19
643.273	6439.67
643.467	6335.22
643.66	6281.97
643.853	6519.54
644.046	6265.59
644.239	6179.58
644.432	6140.66
644.626	6193.91
644.819	6142.71
645.012	6331.12
645.205	6032.12
645.398	5974.78
645.591	5866.24
645.784	6056.7
645.977	5894.91
646.17	5876.48
646.363	5976.83
646.556	5884.67
646.749	5905.15
646.942	5790.46
647.135	5700.35
647.328	5749.5
647.521	5532.42
647.714	5663.49
647.907	5612.29
648.099	5602.05
648.292	5430.02
648.485	5522.18
648.678	5493.51
648.871	5374.72
649.064	5534.46
649.256	5565.18
649.449	5341.96
649.642	5272.32
649.835	5227.27
650.027	5219.08
650.22	5301
650.413	5100.3
650.605	5276.42
650.798	5120.78
650.991	5122.82
651.183	5151.49
651.376	5133.06
651.568	5059.34
651.761	5188.36
651.954	5135.11
652.146	5030.66
652.339	5012.23
652.531	5083.91
652.724	4956.94
652.916	4776.72
653.109	4836.11
653.301	4834.06
653.494	4836.11
653.686	4731.66
653.879	4690.7
654.071	4662.03
654.263	4725.52
654.456	4678.41
654.648	4690.7
654.84	4651.79
655.033	4479.76
655.225	4621.07
655.417	4508.43
655.61	4471.57
655.802	4569.87
655.994	4479.76
656.186	4344.6
656.379	4346.64
656.571	4418.32
656.763	4305.68
656.955	4238.1
657.148	4260.63
657.34	4324.12
657.532	4145.94
657.724	4162.33
657.916	4254.48
658.108	4119.32
658.3	4205.33
658.492	4082.46
658.684	4064.02
658.876	3998.49
659.068	4109.08
659.26	3957.53
659.452	3900.19
659.644	3865.37
659.836	3838.75
660.028	3945.24
660.22	3904.28
660.412	3814.17
660.604	3871.51
660.796	3719.96
660.988	3889.95
661.18	3838.75
661.372	3808.03
661.563	3865.37
661.755	3556.13
661.947	3793.69
662.139	3789.6
662.331	3648.29
662.522	3672.86
662.714	3572.51
662.906	3468.06
663.097	3648.29
663.289	3533.6
663.481	3504.93
663.673	3486.5
663.864	3451.68
664.056	3457.82
664.247	3463.97
664.439	3390.24
664.631	3506.98
664.822	3506.98
665.014	3345.19
665.205	3433.25
665.397	3298.08
665.588	3322.66
665.78	3283.75
665.971	3253.03
666.163	3380
666.354	3388.19
666.546	3062.57
666.737	3093.29
666.929	3136.29
667.12	3142.44
667.311	3162.92
667.503	3283.75
667.694	3271.46
667.885	3119.91
668.077	2960.17
668.268	3011.37
668.459	3015.46
668.651	3236.64
668.842	3021.61
669.033	2982.7
669.224	3027.75
669.416	3035.94
669.607	2978.6
669.798	2876.2
669.989	2841.39
670.18	2988.84
670.371	2743.08
670.563	2896.68
670.754	2880.3
670.945	2804.52
671.136	2898.73
671.327	2872.11
671.518	2843.43
671.709	2827.05
671.9	2896.68
672.091	2730.8
672.282	2751.28
672.473	2841.39
672.664	2712.36
672.855	2628.4
673.046	2829.1
673.237	2591.53
673.428	2839.34
673.619	2786.09
673.809	2669.36
674	2562.86
674.191	2657.07
674.382	2650.92
674.573	2646.83
674.764	2648.88
674.954	2589.49
675.145	2575.15
675.336	2663.21
675.527	2519.85
675.717	2544.43
675.908	2650.92
676.099	2587.44
676.289	2538.29
676.48	2487.09
676.671	2386.74
676.861	2421.55
677.052	2403.12
677.243	2458.42
677.433	2534.19
677.624	2351.92
677.814	2339.63
678.005	2499.38
678.195	2425.65
678.386	2378.55
678.576	2374.45
678.767	2407.22
678.957	2493.23
679.148	2376.5
679.338	2456.37
679.529	2472.75
679.719	2247.48
679.909	2493.23
680.1	2417.46
680.29	2317.11
680.481	2329.39
680.671	2310.96
680.861	2294.58
681.052	2343.73
681.242	2366.26
681.432	2317.11
681.622	2386.74
681.813	2272.05
682.003	2253.62
682.193	2327.35
682.383	2255.67
682.573	2300.72
682.764	2267.95
682.954	2280.24
683.144	2181.94
683.334	2261.81
683.524	2356.02
683.714	2202.42
683.904	2247.48
684.094	2235.19
684.284	2282.29
684.474	2267.95
684.664	2245.43
684.854	2175.8
685.044	2212.66
685.234	2304.82
685.424	2136.88
685.614	2161.46
685.804	2128.69
685.994	2227
686.184	2179.89
686.374	2292.53
686.564	2116.41
686.753	2218.8
686.943	2118.45
687.133	2122.55
687.323	2028.34
687.513	2104.12
687.702	2077.49
687.892	2179.89
688.082	2138.93
688.272	2114.36
688.461	2134.84
688.651	2153.27
688.841	2024.25
689.03	2030.39
689.22	2046.77
689.41	2067.25
689.599	2067.25
689.789	2073.4
689.979	2157.36
690.168	2011.96
690.358	1985.34
690.547	1985.34
690.737	2046.77
690.926	2022.2
691.116	1966.9
691.305	2057.01
691.495	1987.38
691.684	1956.66
691.874	2036.53
692.063	2032.44
692.252	2104.12
692.442	1936.18
692.631	1880.89
692.82	1973.05
693.01	1952.57
693.199	1884.98
693.388	1870.65
693.578	1850.17
693.767	1915.7
693.956	1876.79
694.146	1895.22
694.335	1952.57
694.524	1874.74
694.713	1860.41
694.902	1872.7
695.092	1866.55
695.281	1788.73
695.47	1778.49
695.659	1856.31
695.848	1784.63
696.037	1854.27
696.226	1856.31
696.415	1854.27
696.604	1801.02
696.793	1837.88
696.982	1803.07
697.171	1835.83
697.36	1821.5
697.549	1694.52
697.738	1758.01
697.927	1725.24
698.116	1782.59
698.305	1784.63
698.494	1794.87
698.683	1678.14
698.872	1760.06
699.061	1690.43
699.25	1739.58
699.438	1768.25
699.627	1768.25
699.816	1760.06
700.005	1743.67
700.193	1704.76
700.382	1690.43
700.571	1710.91
700.76	1708.86
700.948	1674.04
701.137	1686.33
701.326	1633.08
701.514	1635.13
701.703	1639.23
701.892	1696.57
702.08	1729.34
702.269	1680.19
702.457	1680.19
702.646	1672
702.834	1600.32
703.023	1579.84
703.212	1588.03
703.4	1579.84
703.589	1647.42
703.777	1682.24
703.965	1661.76
704.154	1592.13
704.342	1571.65
704.531	1528.64
704.719	1637.18
704.907	1596.22
705.096	1559.36
705.284	1592.13
705.472	1573.69
705.661	1510.21
705.849	1579.84
706.037	1579.84
706.226	1493.82
706.414	1534.78
706.602	1604.41
706.79	1512.25
706.979	1569.6
707.167	1536.83
707.355	1454.91
707.543	1502.01
707.731	1571.65
707.919	1411.9
708.107	1573.69
708.296	1479.49
708.484	1438.53
708.672	1504.06
708.86	1516.35
709.048	1475.39
709.236	1499.97
709.424	1528.64
709.612	1360.7
709.8	1497.92
709.988	1485.63
710.176	1411.9
710.364	1557.31
710.551	1510.21
710.739	1385.28
710.927	1416
711.115	1520.45
711.303	1483.58
711.491	1370.94
711.679	1375.04
711.866	1327.94
712.054	1430.34
712.242	1381.18
712.43	1356.61
712.617	1305.41
712.805	1280.83
712.993	1407.81
713.181	1375.04
713.368	1434.43
713.556	1346.37
713.744	1370.94
713.931	1424.19
714.119	1280.83
714.306	1297.22
714.494	1366.85
714.682	1291.07
714.869	1385.28
715.057	1360.7
715.244	1221.44
715.432	1286.98
715.619	1284.93
715.807	1264.45
715.994	1344.32
716.182	1248.07
716.369	1246.02
716.556	1323.84
716.744	1207.11
716.931	1200.96
717.119	1329.99
717.306	1297.22
717.493	1200.96
717.681	1231.68
717.868	1235.78
718.055	1213.25
718.242	1403.71
718.43	1264.45
718.617	1209.15
718.804	1299.27
718.991	1225.54
719.179	1237.83
719.366	1188.68
719.553	1235.78
719.74	1301.31
719.927	1237.83
720.114	1276.74
720.301	1229.63
720.488	1207.11
720.676	1164.1
720.863	1264.45
721.05	1264.45
721.237	1102.66
721.424	1182.53
721.611	1207.11
721.798	1162.05
721.985	1125.19
722.172	1188.68
722.358	1180.48
722.545	1182.53
722.732	1112.9
722.919	1246.02
723.106	1223.49
723.293	1221.44
723.48	1192.77
723.667	1098.56
723.853	1186.63
724.04	1260.35
724.227	1147.72
724.414	1141.57
724.6	1164.1
724.787	1121.09
724.974	1223.49
725.161	1145.67
725.347	1127.24
725.534	1174.34
725.72	1096.52
725.907	1145.67
726.094	1196.87
726.28	1121.09
726.467	1133.38
726.653	1033.03
726.84	1073.99
727.027	1192.77
727.213	1168.2
727.4	1182.53
727.586	1092.42
727.773	1184.58
727.959	1223.49
728.145	1098.56
728.332	1178.44
728.518	1135.43
728.705	1123.14
728.891	1096.52
729.077	1055.56
729.264	1071.94
729.45	1164.1
729.636	1090.37
729.823	1127.24
730.009	1047.37
730.195	912.2
730.382	1043.27
730.568	1055.56
730.754	1071.94
730.94	1094.47
731.126	1133.38
731.313	1104.71
731.499	1090.37
731.685	1149.76
731.871	983.88
732.057	1090.37
732.243	949.06
732.429	1051.46
732.615	961.35
732.801	1141.57
732.987	990.02
733.173	1051.46
733.359	1055.56
733.545	1102.66
733.731	938.82
733.917	957.25
734.103	1090.37
734.289	1059.65
734.475	987.97
734.661	994.12
734.847	951.11
735.033	1045.32
735.219	1108.8
735.404	1137.48
735.59	1033.03
735.776	1100.61
735.962	1088.32
736.148	1080.13
736.333	1012.55
736.519	973.64
736.705	998.21
736.89	1018.69
737.076	994.12
737.262	944.97
737.447	1043.27
737.633	1022.79
737.819	975.69
738.004	1000.26
738.19	949.06
738.375	1045.32
738.561	944.97
738.747	981.83
738.932	922.44
739.118	1016.65
739.303	965.45
739.489	983.88
739.674	949.06
739.859	983.88
740.045	914.25
740.23	936.78
740.416	1018.69
740.601	953.16
740.786	975.69
740.972	938.82
741.157	867.14
741.342	1026.89
741.528	975.69
741.713	1006.41
741.898	940.87
742.084	961.35
742.269	938.82
742.454	1002.31
742.639	926.54
742.824	826.18
743.01	879.43
743.195	951.11
743.38	1006.41
743.565	973.64
743.75	846.66
743.935	869.19
744.12	959.3
744.305	865.1
744.49	856.9
744.675	842.57
744.86	912.2
745.045	975.69
745.23	863.05
745.415	852.81
745.6	863.05
745.785	887.62
745.97	957.25
746.155	867.14
746.34	881.48
746.525	809.8
746.71	924.49
746.895	881.48
747.079	936.78
747.264	852.81
747.449	817.99
747.634	858.95
747.819	762.7
748.003	842.57
748.188	838.47
748.373	836.42
748.557	865.1
748.742	830.28
748.927	822.09
749.111	854.86
749.296	779.08
749.481	774.99
749.665	791.37
749.85	695.11
750.034	777.03
750.219	703.31
750.404	850.76
750.588	795.47
750.773	779.08
750.957	777.03
751.141	734.03
751.326	731.98
751.51	762.7
751.695	727.88
751.879	717.64
752.064	828.23
752.248	744.27
752.432	639.82
752.617	721.74
752.801	715.59
752.985	684.87
753.17	684.87
753.354	666.44
753.538	699.21
753.722	652.11
753.907	703.31
754.091	645.96
754.275	697.16
754.459	688.97
754.643	713.55
754.828	678.73
755.012	678.73
755.196	660.3
755.38	664.4
755.564	617.29
755.748	684.87
755.932	719.69
756.116	639.82
756.3	672.59
756.484	650.06
756.668	625.48
756.852	660.3
757.036	615.24
757.22	594.76
757.404	596.81
757.588	588.62
757.772	557.9
757.956	602.96
758.14	590.67
758.323	605
758.507	574.28
758.691	598.86
758.875	553.8
759.059	582.48
759.242	562
759.426	500.56
759.61	658.25
759.794	582.48
759.977	475.98
760.161	521.04
760.345	580.43
760.528	535.37
760.712	547.66
760.895	578.38
761.079	572.24
761.263	537.42
761.446	609.1
761.63	508.75
761.813	518.99
761.997	482.13
762.18	559.95
762.364	492.37
762.547	514.89
762.731	533.33
762.914	531.28
763.098	465.74
763.281	484.17
763.464	455.5
763.648	457.55
763.831	521.04
764.015	424.78
764.198	543.57
764.381	523.09
764.564	478.03
764.748	455.5
764.931	562
765.114	510.8
765.297	459.6
765.481	482.13
765.664	543.57
765.847	435.02
766.03	523.09
766.213	506.7
766.397	518.99
766.58	430.93
766.763	475.98
766.946	437.07
767.129	486.22
767.312	478.03
767.495	441.17
767.678	449.36
767.861	373.58
768.044	459.6
768.227	482.13
768.41	455.5
768.593	514.89
768.776	504.65
768.959	508.75
769.142	379.73
769.324	404.3
769.507	463.69
769.69	457.55
769.873	412.5
770.056	349.01
770.239	410.45
770.421	435.02
770.604	383.82
770.787	473.93
770.97	463.69
771.152	465.74
771.335	371.54
771.518	418.64
771.7	437.07
771.883	428.88
772.066	394.06
772.248	445.26
772.431	455.5
772.613	383.82
772.796	402.26
772.978	482.13
773.161	404.3
773.343	379.73
773.526	320.34
773.708	430.93
773.891	381.78
774.073	381.78
774.256	377.68
774.438	416.59
774.621	420.69
774.803	385.87
774.985	385.87
775.168	367.44
775.35	351.06
775.532	361.3
775.715	310.1
775.897	353.1
776.079	330.58
776.261	293.71
776.444	424.78
776.626	377.68
776.808	396.11
776.99	369.49
777.173	363.34
777.355	334.67
777.537	381.78
777.719	328.53
777.901	316.24
778.083	396.11
778.265	308.05
778.447	299.86
778.629	308.05
778.811	320.34
778.993	318.29
779.175	359.25
779.357	295.76
779.539	359.25
779.721	258.9
779.903	377.68
780.085	174.93
780.267	359.25
780.449	285.52
780.631	314.19
780.812	269.14
780.994	312.14
781.176	303.95
781.358	256.85
781.54	271.19
781.721	342.86
781.903	334.67
782.085	303.95
782.267	228.18
782.448	303.95
782.63	306
782.812	250.71
782.993	258.9
783.175	279.38
783.357	209.75
783.538	215.89
783.72	154.45
783.901	269.14
784.083	232.27
784.264	299.86
784.446	219.99
784.627	303.95
784.809	176.98
784.99	285.52
785.172	252.75
785.353	293.71
785.535	267.09
785.716	144.21
785.897	160.59
786.079	217.94
786.26	265.04
786.441	211.79
786.623	209.75
786.804	209.75
786.985	248.66
787.167	201.55
787.348	224.08
787.529	250.71
787.71	265.04
787.891	256.85
788.073	269.14
788.254	179.03
788.435	187.22
788.616	209.75
788.797	152.4
788.978	127.83
789.159	125.78
789.34	228.18
789.522	236.37
789.703	164.69
789.884	215.89
790.065	205.65
790.246	193.36
790.427	197.46
790.607	203.6
790.788	162.64
790.969	189.27
791.15	189.27
791.331	146.26
791.512	232.27
791.693	174.93
791.874	199.51
792.054	183.12
792.235	217.94
792.416	152.4
792.597	166.74
792.778	113.49
792.958	203.6
793.139	217.94
793.32	199.51
793.5	187.22
793.681	219.99
793.862	207.7
794.042	140.12
794.223	117.59
794.404	234.32
794.584	203.6
794.765	162.64
794.945	181.07
795.126	168.79
795.306	148.31
795.487	240.47
795.667	136.02
795.848	156.5
796.028	179.03
796.209	209.75
796.389	109.4
796.57	176.98
796.75	144.21
796.93	170.83
797.111	125.78
797.291	88.92
797.471	103.25
797.652	189.27
797.832	133.97
798.012	236.37
798.192	113.49
798.373	187.22
798.553	181.07
798.733	115.54
798.913	123.73
799.093	162.64
799.274	60.24
799.454	191.31
799.634	156.5
799.814	174.93
799.994	131.92
800.174	148.31
800.354	162.64
800.534	50
800.714	150.36
800.894	228.18
801.074	144.21
801.254	101.2
801.434	133.97
801.614	88.92
801.794	138.07
801.974	322.38
802.154	119.64
802.334	111.44
802.514	111.44
802.693	80.72
802.873	86.87
803.053	170.83
803.233	162.64
803.413	39.76
803.592	125.78
803.772	162.64
803.952	170.83
804.131	105.3
804.311	129.88
804.491	123.73
804.67	191.31
804.85	191.31
805.03	125.78
805.209	93.01
805.389	78.68
805.568	121.68
805.748	31.57
805.928	136.02
806.107	156.5
806.287	121.68
806.466	80.72
806.646	156.5
806.825	82.77
807.004	156.5
807.184	84.82
807.363	90.96
807.543	111.44
807.722	76.63
807.901	101.2
808.081	138.07
808.26	86.87
808.439	117.59
808.619	23.38
808.798	88.92
808.977	90.96
809.156	119.64
809.336	189.27
809.515	176.98
809.694	107.35
809.873	76.63
810.052	72.53
810.231	56.15
810.411	88.92
810.59	107.35
810.769	117.59
810.948	99.16
811.127	78.68
811.306	113.49
811.485	138.07
811.664	109.4
811.843	43.86
812.022	99.16
812.201	62.29
812.38	109.4
812.559	-1.19
812.737	60.24
812.916	97.11
813.095	31.57
813.274	23.38
813.453	138.07
813.632	41.81
813.811	62.29
813.989	66.39
814.168	158.55
814.347	58.2
814.526	117.59
814.704	88.92
814.883	41.81
815.062	84.82
815.24	93.01
815.419	74.58
815.598	99.16
815.776	47.96
815.955	68.44
816.133	39.76
816.312	82.77
816.49	90.96
816.669	35.67
816.847	80.72
817.026	72.53
817.204	35.67
817.383	146.26
817.561	101.2
817.74	103.25
817.918	45.91
818.097	109.4
818.275	144.21
818.453	107.35
818.632	86.87
818.81	2.9
818.988	88.92
819.167	105.3
819.345	33.62
819.523	39.76
819.701	-21.67
819.879	56.15
820.058	80.72
820.236	50
820.414	15.19
820.592	43.86
820.77	45.91
820.948	129.88
821.127	64.34
821.305	64.34
821.483	97.11
821.661	21.33
821.839	95.06
822.017	60.24
822.195	80.72
822.373	64.34
822.551	103.25
822.729	164.69
822.907	27.48
823.085	107.35
823.262	31.57
823.44	113.49
823.618	31.57
823.796	111.44
823.974	23.38
824.152	35.67
824.329	23.38
824.507	47.96
824.685	70.48
824.863	47.96
825.04	78.68
825.218	82.77
825.396	97.11
825.574	15.19
825.751	41.81
825.929	25.43
826.107	-9.39
826.284	60.24
826.462	-5.29
826.639	15.19
826.817	72.53
826.994	39.76
827.172	-25.77
827.349	72.53
827.527	33.62
827.704	99.16
827.882	52.05
828.059	7
828.237	17.24
828.414	62.29
828.591	82.77
828.769	82.77
828.946	29.52
829.124	107.35
829.301	105.3
829.478	117.59
829.655	47.96
829.833	13.14
830.01	47.96
830.187	52.05
830.364	58.2
830.542	39.76
830.719	45.91
830.896	101.2
831.073	4.95
831.25	70.48
831.427	27.48
831.604	72.53
831.782	58.2
831.959	60.24
832.136	56.15
832.313	86.87
832.49	25.43
832.667	146.26
832.844	4.95
833.021	50
833.198	58.2
833.374	52.05
833.551	103.25
833.728	82.77
833.905	64.34
834.082	39.76
834.259	52.05
834.436	58.2
834.612	9.05
834.789	23.38
834.966	47.96
835.143	50
835.319	-7.34
835.496	47.96
835.673	56.15
835.85	43.86
836.026	35.67
836.203	43.86
836.38	86.87
836.556	33.62
836.733	31.57
836.909	76.63
837.086	11.09
837.262	56.15
837.439	37.72
837.616	9.05
837.792	76.63
837.968	-46.25
838.145	60.24
838.321	23.38
838.498	-1.19
838.674	45.91
838.851	-25.77
839.027	43.86
839.203	15.19
839.38	39.76
839.556	88.92
839.732	29.52
839.909	-1.19
840.085	68.44
840.261	19.29
840.437	11.09
840.614	-7.34
840.79	60.24
840.966	-1.19
841.142	62.29
841.318	107.35
841.494	9.05
841.671	33.62
841.847	33.62
842.023	90.96
842.199	117.59
842.375	37.72
842.551	-7.34
842.727	27.48
842.903	39.76
843.079	-36.01
843.255	47.96
843.431	-46.25
843.607	72.53
843.783	35.67
843.959	138.07
844.134	41.81
844.31	0.85
844.486	11.09
844.662	-9.39
844.838	80.72
845.013	33.62
845.189	31.57
845.365	-17.58
845.541	39.76
845.716	-13.48
845.892	37.72
846.068	41.81
846.244	-17.58
846.419	4.95
846.595	0.85
846.77	31.57
846.946	15.19
847.122	13.14
847.297	31.57
847.473	19.29
847.648	-85.16
847.824	76.63
847.999	-50.35
848.175	15.19
848.35	33.62
848.526	64.34
848.701	35.67
848.876	37.72
849.052	21.33
849.227	23.38
849.403	-7.34
849.578	15.19
849.753	31.57
849.929	84.82
850.104	-48.3
850.279	86.87
850.454	31.57
850.63	41.81
850.805	58.2
850.98	33.62
851.155	37.72
851.33	45.91
851.505	58.2
851.681	95.06
851.856	74.58
852.031	99.16
852.206	72.53
852.381	-40.11
852.556	23.38
852.731	0.85
852.906	41.81
853.081	64.34
853.256	43.86
853.431	31.57
853.606	31.57
853.781	0.85
853.956	43.86
854.131	11.09
854.305	-1.19
854.48	52.05
854.655	43.86
854.83	-42.15
855.005	80.72
855.18	-1.19
855.354	-52.39
855.529	-19.63
855.704	60.24
855.879	129.88
856.053	-3.24
856.228	47.96
856.403	0.85
856.577	25.43
856.752	-5.29
856.926	45.91
857.101	25.43
857.276	41.81
857.45	-9.39
857.625	76.63
857.799	-42.15
857.974	76.63
858.148	27.48
858.323	35.67
858.497	31.57
858.672	41.81
858.846	-40.11
859.02	66.39
859.195	-13.48
859.369	15.19
859.543	-31.91
859.718	72.53
859.892	15.19
860.066	9.05
860.241	74.58
860.415	-5.29
860.589	13.14
860.763	9.05
860.938	15.19
861.112	25.43
861.286	13.14
861.46	27.48
861.634	23.38
861.808	64.34
861.982	-13.48
862.157	62.29
862.331	-60.59
862.505	0.85
862.679	43.86
862.853	50
863.027	47.96
863.201	29.52
863.375	41.81
863.549	70.48
863.722	-40.11
863.896	-1.19
864.07	-44.2
864.244	45.91
864.418	56.15
864.592	37.72
864.766	39.76
864.939	50
865.113	-38.06
865.287	9.05
865.461	35.67
865.634	97.11
865.808	60.24
865.982	84.82
866.156	19.29
866.329	-29.87
866.503	93.01
866.676	29.52
866.85	33.62
867.024	107.35
867.197	-1.19
867.371	52.05
867.544	-15.53
867.718	50
867.891	-48.3
868.065	-23.72
868.238	-9.39
868.412	19.29
868.585	21.33
868.759	78.68
868.932	17.24
869.105	2.9
869.279	-19.63
869.452	-81.07
869.625	-23.72
869.799	45.91
869.972	43.86
870.145	39.76
870.319	7
870.492	-40.11
870.665	13.14
870.838	78.68
871.011	0.85
871.185	-74.92
871.358	43.86
871.531	-7.34
871.704	-21.67
871.877	29.52
872.05	-15.53
872.223	52.05
872.396	15.19
872.569	17.24
872.742	-3.24
872.915	76.63
873.088	-11.43
873.261	-70.83
873.434	35.67
873.607	33.62
873.78	-9.39
873.953	-9.39
874.126	13.14
874.299	-1.19
874.471	125.78
874.644	54.1
874.817	25.43
874.99	47.96
875.163	-1.19
875.335	25.43
875.508	-11.43
875.681	9.05
875.853	-19.63
876.026	50
876.199	31.57
876.371	25.43
876.544	-7.34
876.717	13.14
876.889	-11.43
877.062	76.63
877.234	47.96
877.407	58.2
877.579	72.53
877.752	-27.82
877.924	86.87
878.097	27.48
878.269	-21.67
878.442	68.44
878.614	45.91
878.786	-9.39
878.959	23.38
879.131	47.96
879.303	19.29
879.476	62.29
879.648	23.38
879.82	39.76
879.993	-27.82
880.165	31.57
880.337	47.96
880.509	29.52
880.681	-13.48
880.854	25.43
881.026	19.29
881.198	35.67
881.37	-9.39
881.542	-15.53
881.714	-7.34
881.886	2.9
882.058	-13.48
882.23	-1.19
882.402	56.15
882.574	39.76
882.746	-36.01
882.918	-9.39
883.09	31.57
883.262	-42.15
883.434	-52.39
883.606	-13.48
883.778	-13.48
883.95	99.16
884.122	13.14
884.293	23.38
884.465	58.2
884.637	2.9
884.809	-33.96
884.98	-54.44
885.152	-9.39
885.324	25.43
885.496	7
885.667	31.57
885.839	-29.87
886.011	68.44
886.182	-3.24
886.354	58.2
886.525	-58.54
886.697	25.43
886.869	109.4
887.04	2.9
887.212	-21.67
887.383	29.52
887.555	4.95
887.726	47.96
887.897	-29.87
888.069	2.9
888.24	4.95
888.412	-74.92
888.583	35.67
888.754	-54.44
888.926	-3.24
889.097	-50.35
889.268	33.62
889.44	54.1
889.611	-70.83
889.782	35.67
889.953	-17.58
890.125	88.92
890.296	37.72
890.467	4.95
890.638	-38.06
890.809	23.38
890.98	0.85
891.151	-19.63
891.323	39.76
891.494	29.52
891.665	33.62
891.836	-29.87
892.007	25.43
892.178	21.33
892.349	-58.54
892.52	72.53
892.691	-31.91
892.862	-9.39
893.032	-70.83
893.203	76.63
893.374	21.33
893.545	15.19
893.716	21.33
893.887	-1.19
894.057	-50.35
894.228	-21.67
894.399	-17.58
894.57	41.81
894.74	-81.07
894.911	2.9
895.082	-21.67
895.253	15.19
895.423	31.57
895.594	19.29
895.764	-48.3
895.935	-48.3
896.106	74.58
896.276	76.63
896.447	-11.43
896.617	-31.91
896.788	23.38
896.958	7
897.129	-17.58
897.299	23.38
897.47	0.85
897.64	4.95
897.81	4.95
897.981	-21.67
898.151	-62.63
898.322	29.52
898.492	-9.39
898.662	13.14
898.832	-21.67
899.003	-9.39
899.173	74.58
899.343	-46.25
899.513	-38.06
