Data from USB4F104151__12__12-53-12-948.txt Node

Date: Fri Mar 14 12:53:12 EDT 2025
User: louis
Spectrometer: USB4F10415
Trigger mode: 4
Integration Time (sec): 1.000000E-2
Scans to average: 1
Electric dark correction enabled: true
Nonlinearity correction enabled: false
Boxcar width: 0
XAxis mode: Wavelengths
Number of Pixels in Spectrum: 3648
>>>>>Begin Spectral Data<<<<<
178.204	-11.95
178.424	-11.95
178.644	-11.95
178.864	14.68
179.084	22.87
179.304	16.73
179.524	8.53
179.744	-11.95
179.964	-20.14
180.184	8.53
180.404	24.92
180.624	0.34
180.844	16.73
181.064	-16.04
181.283	-54.95
181.503	39.25
181.723	-11.95
181.943	18.77
182.163	-16.04
182.383	-36.52
182.602	41.3
182.822	-11.95
183.042	14.68
183.262	-24.23
183.482	53.59
183.701	20.82
183.921	18.77
184.141	80.21
184.361	-36.52
184.58	-24.23
184.8	-5.8
185.02	-5.8
185.239	4.44
185.459	-26.28
185.679	49.49
185.898	-24.23
186.118	31.06
186.338	-11.95
186.557	49.49
186.777	8.53
186.997	76.12
187.216	67.92
187.436	39.25
187.655	-50.86
187.875	51.54
188.095	55.64
188.314	4.44
188.534	51.54
188.753	29.01
188.973	18.77
189.192	47.44
189.412	26.96
189.631	65.88
189.851	47.44
190.07	69.97
190.29	12.63
190.509	-5.8
190.729	18.77
190.948	22.87
191.168	88.4
191.387	4.44
191.607	18.77
191.826	26.96
192.045	-13.99
192.265	82.26
192.484	43.35
192.704	18.77
192.923	69.97
193.142	-54.95
193.362	33.11
193.581	4.44
193.8	12.63
194.02	37.2
194.239	45.4
194.458	92.5
194.678	-57
194.897	10.58
195.116	-3.75
195.335	-13.99
195.555	20.82
195.774	26.96
195.993	10.58
196.212	-3.75
196.432	-13.99
196.651	-3.75
196.87	-18.09
197.089	0.34
197.308	-3.75
197.528	-5.8
197.747	-5.8
197.966	39.25
198.185	104.79
198.404	-38.57
198.623	-7.85
198.842	-3.75
199.062	51.54
199.281	10.58
199.5	57.68
199.719	67.92
199.938	31.06
200.157	49.49
200.376	-30.38
200.595	-18.09
200.814	-50.86
201.033	-1.71
201.252	57.68
201.471	43.35
201.69	24.92
201.909	-26.28
202.128	-9.9
202.347	14.68
202.566	22.87
202.785	24.92
203.004	16.73
203.223	88.4
203.442	43.35
203.661	39.25
203.879	43.35
204.098	55.64
204.317	53.59
204.536	57.68
204.755	-9.9
204.974	37.2
205.193	51.54
205.411	43.35
205.63	-85.67
205.849	26.96
206.068	-18.09
206.287	59.73
206.505	-77.48
206.724	4.44
206.943	-3.75
207.162	49.49
207.381	6.49
207.599	10.58
207.818	-34.47
208.037	26.96
208.255	51.54
208.474	-18.09
208.693	-5.8
208.911	59.73
209.13	-9.9
209.349	10.58
209.567	6.49
209.786	92.5
210.005	-9.9
210.223	2.39
210.442	0.34
210.661	69.97
210.879	-18.09
211.098	80.21
211.316	-9.9
211.535	31.06
211.753	-3.75
211.972	74.07
212.191	-1.71
212.409	-13.99
212.628	53.59
212.846	26.96
213.065	69.97
213.283	125.27
213.502	4.44
213.72	-5.8
213.938	4.44
214.157	-22.19
214.375	14.68
214.594	35.16
214.812	-34.47
215.031	35.16
215.249	65.88
215.467	61.78
215.686	-3.75
215.904	26.96
216.122	33.11
216.341	20.82
216.559	-54.95
216.778	-13.99
216.996	8.53
217.214	26.96
217.432	47.44
217.651	-32.43
217.869	2.39
218.087	65.88
218.306	20.82
218.524	-9.9
218.742	51.54
218.96	-7.85
219.179	-42.67
219.397	-20.14
219.615	-22.19
219.833	61.78
220.051	-77.48
220.27	10.58
220.488	51.54
220.706	39.25
220.924	45.4
221.142	29.01
221.36	53.59
221.578	47.44
221.796	41.3
222.015	29.01
222.233	-32.43
222.451	63.83
222.669	22.87
222.887	51.54
223.105	-95.91
223.323	-3.75
223.541	22.87
223.759	-5.8
223.977	14.68
224.195	86.36
224.413	100.69
224.631	-1.71
224.849	31.06
225.067	-1.71
225.285	16.73
225.503	29.01
225.721	10.58
225.939	-5.8
226.157	51.54
226.375	41.3
226.592	-38.57
226.81	51.54
227.028	57.68
227.246	55.64
227.464	69.97
227.682	18.77
227.9	-79.53
228.117	31.06
228.335	67.92
228.553	100.69
228.771	88.4
228.989	67.92
229.206	-28.33
229.424	18.77
229.642	-24.23
229.86	-13.99
230.077	39.25
230.295	43.35
230.513	53.59
230.731	49.49
230.948	51.54
231.166	55.64
231.384	6.49
231.601	-5.8
231.819	18.77
232.037	-40.62
232.254	59.73
232.472	-20.14
232.689	-18.09
232.907	41.3
233.125	4.44
233.342	22.87
233.56	16.73
233.777	-50.86
233.995	4.44
234.213	-16.04
234.43	-13.99
234.648	-77.48
234.865	67.92
235.083	-1.71
235.3	47.44
235.518	35.16
235.735	55.64
235.953	29.01
236.17	12.63
236.388	41.3
236.605	45.4
236.822	47.44
237.04	104.79
237.257	16.73
237.475	-77.48
237.692	31.06
237.909	-1.71
238.127	16.73
238.344	-13.99
238.562	100.69
238.779	12.63
238.996	20.82
239.214	16.73
239.431	39.25
239.648	49.49
239.865	10.58
240.083	76.12
240.3	47.44
240.517	37.2
240.735	-38.57
240.952	37.2
241.169	84.31
241.386	39.25
241.603	-48.81
241.821	26.96
242.038	-7.85
242.255	67.92
242.472	14.68
242.689	49.49
242.907	2.39
243.124	35.16
243.341	16.73
243.558	16.73
243.775	-52.91
243.992	-28.33
244.209	-18.09
244.426	59.73
244.643	141.65
244.86	2.39
245.078	2.39
245.295	59.73
245.512	78.16
245.729	6.49
245.946	57.68
246.163	47.44
246.38	84.31
246.597	4.44
246.814	61.78
247.031	-7.85
247.248	18.77
247.464	29.01
247.681	98.64
247.898	31.06
248.115	47.44
248.332	37.2
248.549	47.44
248.766	-5.8
248.983	2.39
249.2	72.02
249.417	53.59
249.633	63.83
249.85	-26.28
250.067	-1.71
250.284	-34.47
250.501	59.73
250.717	35.16
250.934	29.01
251.151	-24.23
251.368	-18.09
251.585	-16.04
251.801	-24.23
252.018	16.73
252.235	92.5
252.451	-24.23
252.668	37.2
252.885	-7.85
253.102	6.49
253.318	47.44
253.535	41.3
253.752	-3.75
253.968	8.53
254.185	-9.9
254.401	2.39
254.618	88.4
254.835	76.12
255.051	102.74
255.268	20.82
255.484	2.39
255.701	-30.38
255.917	20.82
256.134	10.58
256.351	8.53
256.567	-7.85
256.784	-5.8
257	6.49
257.217	4.44
257.433	-22.19
257.65	61.78
257.866	10.58
258.082	-28.33
258.299	26.96
258.515	-32.43
258.732	43.35
258.948	-11.95
259.165	29.01
259.381	108.88
259.597	10.58
259.814	24.92
260.03	74.07
260.246	-61.1
260.463	63.83
260.679	74.07
260.895	-3.75
261.112	39.25
261.328	-40.62
261.544	82.26
261.761	-95.91
261.977	-59.05
262.193	59.73
262.409	61.78
262.626	-28.33
262.842	43.35
263.058	-42.67
263.274	10.58
263.49	61.78
263.707	29.01
263.923	-24.23
264.139	-32.43
264.355	-63.15
264.571	61.78
264.787	47.44
265.004	10.58
265.22	8.53
265.436	20.82
265.652	39.25
265.868	2.39
266.084	12.63
266.3	33.11
266.516	51.54
266.732	24.92
266.948	43.35
267.164	61.78
267.38	49.49
267.596	41.3
267.812	37.2
268.028	61.78
268.244	2.39
268.46	-1.71
268.676	4.44
268.892	35.16
269.108	39.25
269.324	31.06
269.54	8.53
269.756	45.4
269.972	-50.86
270.188	67.92
270.403	53.59
270.619	-5.8
270.835	-5.8
271.051	41.3
271.267	14.68
271.483	53.59
271.698	-22.19
271.914	65.88
272.13	-18.09
272.346	53.59
272.562	31.06
272.777	26.96
272.993	-42.67
273.209	31.06
273.425	12.63
273.64	43.35
273.856	-28.33
274.072	61.78
274.287	22.87
274.503	-11.95
274.719	29.01
274.934	112.98
275.15	4.44
275.366	49.49
275.581	4.44
275.797	51.54
276.012	84.31
276.228	29.01
276.444	108.88
276.659	24.92
276.875	8.53
277.09	55.64
277.306	-38.57
277.521	47.44
277.737	22.87
277.952	-36.52
278.168	2.39
278.383	86.36
278.599	-11.95
278.814	78.16
279.03	55.64
279.245	82.26
279.461	45.4
279.676	10.58
279.892	0.34
280.107	-16.04
280.322	4.44
280.538	26.96
280.753	0.34
280.969	51.54
281.184	57.68
281.399	168.27
281.615	12.63
281.83	35.16
282.045	78.16
282.26	59.73
282.476	-13.99
282.691	69.97
282.906	-18.09
283.122	-5.8
283.337	-11.95
283.552	-9.9
283.767	-7.85
283.983	45.4
284.198	18.77
284.413	-20.14
284.628	22.87
284.843	-16.04
285.058	41.3
285.274	-5.8
285.489	41.3
285.704	51.54
285.919	-28.33
286.134	4.44
286.349	43.35
286.564	45.4
286.779	26.96
286.995	14.68
287.21	-30.38
287.425	51.54
287.64	37.2
287.855	26.96
288.07	76.12
288.285	14.68
288.5	26.96
288.715	106.84
288.93	14.68
289.145	39.25
289.36	35.16
289.575	92.5
289.79	69.97
290.004	-18.09
290.219	67.92
290.434	6.49
290.649	16.73
290.864	-18.09
291.079	4.44
291.294	115.03
291.509	37.2
291.724	0.34
291.938	-7.85
292.153	35.16
292.368	-13.99
292.583	-13.99
292.798	61.78
293.012	31.06
293.227	45.4
293.442	-13.99
293.657	-3.75
293.871	-34.47
294.086	16.73
294.301	125.27
294.516	-1.71
294.73	-28.33
294.945	22.87
295.16	41.3
295.374	43.35
295.589	-34.47
295.804	51.54
296.018	18.77
296.233	84.31
296.447	0.34
296.662	12.63
296.877	41.3
297.091	53.59
297.306	20.82
297.52	92.5
297.735	-30.38
297.949	37.2
298.164	43.35
298.378	59.73
298.593	49.49
298.807	18.77
299.022	18.77
299.236	18.77
299.451	45.4
299.665	18.77
299.88	24.92
300.094	8.53
300.309	35.16
300.523	-30.38
300.737	39.25
300.952	67.92
301.166	22.87
301.381	31.06
301.595	-30.38
301.809	12.63
302.024	-5.8
302.238	33.11
302.452	39.25
302.667	43.35
302.881	-20.14
303.095	43.35
303.309	49.49
303.524	65.88
303.738	-5.8
303.952	22.87
304.166	76.12
304.381	-7.85
304.595	65.88
304.809	121.17
305.023	-59.05
305.237	-24.23
305.452	-1.71
305.666	-7.85
305.88	63.83
306.094	-28.33
306.308	-20.14
306.522	-28.33
306.736	37.2
306.95	59.73
307.164	18.77
307.379	55.64
307.593	61.78
307.807	53.59
308.021	14.68
308.235	20.82
308.449	117.08
308.663	-13.99
308.877	59.73
309.091	-3.75
309.305	-13.99
309.519	55.64
309.733	108.88
309.947	-1.71
310.161	35.16
310.374	-18.09
310.588	-3.75
310.802	16.73
311.016	49.49
311.23	20.82
311.444	-48.81
311.658	51.54
311.872	10.58
312.085	-1.71
312.299	-1.71
312.513	100.69
312.727	80.21
312.941	12.63
313.154	108.88
313.368	26.96
313.582	33.11
313.796	6.49
314.009	41.3
314.223	14.68
314.437	-13.99
314.651	-11.95
314.864	22.87
315.078	-100.01
315.292	22.87
315.505	16.73
315.719	10.58
315.933	51.54
316.146	-5.8
316.36	-9.9
316.573	-24.23
316.787	-16.04
317.001	61.78
317.214	-57
317.428	43.35
317.641	69.97
317.855	-34.47
318.068	10.58
318.282	26.96
318.495	35.16
318.709	-5.8
318.922	45.4
319.136	94.55
319.349	43.35
319.563	14.68
319.776	22.87
319.99	8.53
320.203	90.45
320.417	53.59
320.63	-61.1
320.843	47.44
321.057	78.16
321.27	-11.95
321.483	43.35
321.697	53.59
321.91	59.73
322.124	61.78
322.337	35.16
322.55	31.06
322.763	35.16
322.977	33.11
323.19	22.87
323.403	41.3
323.617	29.01
323.83	45.4
324.043	-38.57
324.256	20.82
324.469	18.77
324.683	59.73
324.896	37.2
325.109	0.34
325.322	-54.95
325.535	35.16
325.748	-11.95
325.962	26.96
326.175	39.25
326.388	35.16
326.601	-26.28
326.814	88.4
327.027	98.64
327.24	12.63
327.453	0.34
327.666	53.59
327.879	16.73
328.092	-30.38
328.305	33.11
328.518	35.16
328.731	-50.86
328.944	-22.19
329.157	10.58
329.37	-22.19
329.583	16.73
329.796	69.97
330.009	53.59
330.222	100.69
330.435	14.68
330.648	53.59
330.861	37.2
331.073	-22.19
331.286	14.68
331.499	47.44
331.712	61.78
331.925	-20.14
332.138	-11.95
332.35	24.92
332.563	49.49
332.776	-11.95
332.989	35.16
333.202	43.35
333.414	26.96
333.627	57.68
333.84	-16.04
334.053	39.25
334.265	-67.24
334.478	16.73
334.691	74.07
334.903	59.73
335.116	14.68
335.329	39.25
335.541	26.96
335.754	10.58
335.966	65.88
336.179	-11.95
336.392	49.49
336.604	43.35
336.817	41.3
337.029	-22.19
337.242	61.78
337.454	43.35
337.667	4.44
337.88	45.4
338.092	8.53
338.305	18.77
338.517	0.34
338.729	45.4
338.942	119.12
339.154	31.06
339.367	24.92
339.579	84.31
339.792	16.73
340.004	31.06
340.217	74.07
340.429	33.11
340.641	12.63
340.854	-1.71
341.066	-7.85
341.278	35.16
341.491	47.44
341.703	-20.14
341.915	16.73
342.128	37.2
342.34	-16.04
342.552	-20.14
342.764	-40.62
342.977	12.63
343.189	47.44
343.401	47.44
343.613	-44.71
343.826	49.49
344.038	69.97
344.25	22.87
344.462	39.25
344.674	22.87
344.886	0.34
345.099	72.02
345.311	37.2
345.523	90.45
345.735	-1.71
345.947	12.63
346.159	37.2
346.371	20.82
346.583	-30.38
346.795	29.01
347.007	-16.04
347.219	53.59
347.431	18.77
347.643	53.59
347.855	-5.8
348.067	53.59
348.279	16.73
348.491	41.3
348.703	8.53
348.915	-38.57
349.127	-36.52
349.339	63.83
349.551	14.68
349.763	26.96
349.975	74.07
350.187	84.31
350.399	49.49
350.61	6.49
350.822	33.11
351.034	4.44
351.246	14.68
351.458	4.44
351.669	35.16
351.881	35.16
352.093	6.49
352.305	37.2
352.517	12.63
352.728	10.58
352.94	22.87
353.152	43.35
353.363	143.7
353.575	84.31
353.787	92.5
353.999	88.4
354.21	51.54
354.422	4.44
354.633	-36.52
354.845	12.63
355.057	-13.99
355.268	16.73
355.48	-11.95
355.692	-28.33
355.903	61.78
356.115	112.98
356.326	-42.67
356.538	35.16
356.749	88.4
356.961	29.01
357.172	-5.8
357.384	-11.95
357.595	12.63
357.807	45.4
358.018	188.75
358.23	51.54
358.441	35.16
358.653	29.01
358.864	41.3
359.075	57.68
359.287	18.77
359.498	33.11
359.709	53.59
359.921	26.96
360.132	-36.52
360.344	35.16
360.555	-34.47
360.766	45.4
360.977	39.25
361.189	53.59
361.4	37.2
361.611	24.92
361.823	-3.75
362.034	26.96
362.245	22.87
362.456	80.21
362.667	-5.8
362.879	-11.95
363.09	57.68
363.301	-36.52
363.512	10.58
363.723	63.83
363.935	100.69
364.146	-11.95
364.357	26.96
364.568	18.77
364.779	37.2
364.99	43.35
365.201	14.68
365.412	12.63
365.623	8.53
365.834	26.96
366.045	39.25
366.256	6.49
366.467	-20.14
366.678	-3.75
366.889	18.77
367.1	39.25
367.311	39.25
367.522	92.5
367.733	49.49
367.944	26.96
368.155	49.49
368.366	80.21
368.577	18.77
368.788	90.45
368.999	29.01
369.209	45.4
369.42	57.68
369.631	65.88
369.842	-52.91
370.053	-26.28
370.264	16.73
370.474	10.58
370.685	-18.09
370.896	63.83
371.107	37.2
371.317	51.54
371.528	37.2
371.739	22.87
371.95	110.93
372.16	29.01
372.371	-7.85
372.582	29.01
372.792	88.4
373.003	-1.71
373.214	45.4
373.424	4.44
373.635	37.2
373.846	86.36
374.056	37.2
374.267	39.25
374.477	106.84
374.688	43.35
374.898	43.35
375.109	41.3
375.319	90.45
375.53	39.25
375.74	37.2
375.951	65.88
376.161	22.87
376.372	14.68
376.582	-59.05
376.793	88.4
377.003	-7.85
377.214	102.74
377.424	10.58
377.635	2.39
377.845	-3.75
378.055	12.63
378.266	-11.95
378.476	43.35
378.686	26.96
378.897	35.16
379.107	29.01
379.317	18.77
379.528	-13.99
379.738	35.16
379.948	-61.1
380.158	8.53
380.369	29.01
380.579	65.88
380.789	-30.38
380.999	57.68
381.21	51.54
381.42	-20.14
381.63	24.92
381.84	147.8
382.05	37.2
382.261	26.96
382.471	53.59
382.681	26.96
382.891	31.06
383.101	96.6
383.311	41.3
383.521	74.07
383.731	55.64
383.941	47.44
384.151	31.06
384.361	76.12
384.571	47.44
384.781	41.3
384.991	26.96
385.201	55.64
385.411	53.59
385.621	39.25
385.831	-22.19
386.041	100.69
386.251	-1.71
386.461	65.88
386.671	-5.8
386.881	86.36
387.091	-11.95
387.301	-32.43
387.511	-1.71
387.72	4.44
387.93	16.73
388.14	102.74
388.35	51.54
388.56	76.12
388.769	12.63
388.979	76.12
389.189	-36.52
389.399	80.21
389.609	-5.8
389.818	8.53
390.028	69.97
390.238	84.31
390.447	-18.09
390.657	43.35
390.867	18.77
391.076	47.44
391.286	51.54
391.496	69.97
391.705	6.49
391.915	80.21
392.125	31.06
392.334	51.54
392.544	57.68
392.753	49.49
392.963	-1.71
393.172	49.49
393.382	24.92
393.591	67.92
393.801	20.82
394.01	26.96
394.22	-1.71
394.429	-22.19
394.639	47.44
394.848	59.73
395.058	33.11
395.267	37.2
395.477	90.45
395.686	65.88
395.895	98.64
396.105	82.26
396.314	-13.99
396.524	0.34
396.733	67.92
396.942	84.31
397.152	29.01
397.361	43.35
397.57	102.74
397.78	26.96
397.989	94.55
398.198	76.12
398.407	37.2
398.617	139.6
398.826	65.88
399.035	57.68
399.244	41.3
399.453	51.54
399.663	82.26
399.872	123.22
400.081	98.64
400.29	57.68
400.499	29.01
400.708	49.49
400.917	98.64
401.127	47.44
401.336	26.96
401.545	137.56
401.754	133.46
401.963	92.5
402.172	10.58
402.381	67.92
402.59	102.74
402.799	76.12
403.008	100.69
403.217	8.53
403.426	41.3
403.635	47.44
403.844	59.73
404.053	29.01
404.262	22.87
404.471	129.36
404.68	115.03
404.888	84.31
405.097	78.16
405.306	121.17
405.515	78.16
405.724	55.64
405.933	67.92
406.142	127.32
406.35	112.98
406.559	90.45
406.768	108.88
406.977	112.98
407.185	94.55
407.394	158.03
407.603	92.5
407.812	125.27
408.02	223.57
408.229	190.8
408.438	184.66
408.646	147.8
408.855	155.99
409.064	201.04
409.272	147.8
409.481	205.14
409.69	123.22
409.898	196.95
410.107	117.08
410.315	149.84
410.524	194.9
410.733	192.85
410.941	227.67
411.15	239.95
411.358	244.05
411.567	192.85
411.775	168.27
411.984	250.19
412.192	203.09
412.401	221.52
412.609	178.51
412.818	239.95
413.026	239.95
413.234	348.5
413.443	293.2
413.651	328.02
413.86	352.59
414.068	397.65
414.276	371.02
414.485	305.49
414.693	379.22
414.901	409.94
415.11	407.89
415.318	356.69
415.526	389.46
415.734	498
415.943	395.6
416.151	495.95
416.359	512.33
416.567	493.9
416.776	530.77
416.984	588.11
417.192	543.05
417.4	516.43
417.608	602.44
417.817	643.4
418.025	528.72
418.233	641.36
418.441	575.82
418.649	661.84
418.857	706.89
419.065	827.72
419.273	762.19
419.481	778.57
419.689	887.11
419.897	819.53
420.105	799.05
420.313	860.49
420.521	899.4
420.729	831.82
420.937	987.46
421.145	1014.09
421.353	1009.99
421.561	1098.05
421.769	1104.2
421.977	1198.4
422.185	1188.16
422.393	1210.69
422.601	1290.56
422.809	1186.12
423.017	1274.18
423.224	1370.43
423.432	1337.66
423.64	1395.01
423.848	1499.45
424.056	1526.08
424.263	1540.41
424.471	1599.8
424.679	1546.56
424.887	1636.67
425.094	1761.59
425.302	1773.88
425.51	1829.18
425.718	1921.34
425.925	1947.96
426.133	1902.9
426.341	2076.98
426.548	2238.77
426.756	2234.68
426.964	2275.63
427.171	2386.22
427.379	2445.62
427.586	2447.66
427.794	2509.1
428.001	2582.83
428.209	2842.92
428.417	2812.2
428.624	2746.67
428.832	2947.37
429.039	2818.35
429.247	2922.79
429.454	3143.97
429.662	3305.76
429.869	3162.41
430.076	3432.74
430.284	3201.32
430.491	3316
430.699	3770.65
430.906	3610.91
431.114	3864.86
431.321	3715.36
431.528	3907.87
431.736	4083.99
431.943	4231.44
432.15	4286.74
432.358	4286.74
432.565	4567.31
432.772	4532.5
432.979	4696.33
433.187	5015.82
433.394	4671.76
433.601	5200.13
433.808	5095.69
434.016	5093.64
434.223	5433.6
434.43	5671.17
434.637	5630.21
434.844	5957.88
435.052	6023.42
435.259	6146.3
435.466	6107.38
435.673	6088.95
435.88	6537.46
436.087	6602.99
436.294	6742.25
436.501	6719.73
436.708	6793.45
436.915	6934.76
437.122	7356.65
437.329	7407.84
437.537	7510.24
437.743	7715.04
437.95	7481.57
438.157	8009.95
438.364	8319.19
438.571	8327.38
438.778	8214.74
438.985	9128.14
439.192	8698.06
439.399	8958.16
439.606	8829.13
439.813	9410.76
440.02	9801.92
440.227	9965.76
440.433	9535.68
440.64	9873.6
440.847	9908.41
441.054	10172.6
441.261	10725.55
441.467	10760.37
441.674	11049.13
441.881	11495.59
442.088	11190.44
442.294	11251.88
442.501	11385
442.708	11597.99
442.914	12234.91
443.121	12615.83
443.328	12142.75
443.534	13138.06
443.741	12820.63
443.948	12695.7
444.154	13750.4
444.361	13758.6
444.568	13592.71
444.774	13521.03
444.981	13760.64
445.187	13963.39
445.394	14526.58
445.6	14616.69
445.807	16089.18
446.013	15284.33
446.22	15589.48
446.426	16273.5
446.633	16373.85
446.839	16787.54
447.046	16148.57
447.252	17172.56
447.459	17289.29
447.665	17227.85
447.871	17969.22
448.078	18638.9
448.284	17686.6
448.491	18239.55
448.697	18882.61
448.903	19183.66
449.11	19540.01
449.316	19064.88
449.522	19410.99
449.728	19908.65
449.935	19980.32
450.141	20064.29
450.347	20723.74
450.553	19800.1
450.76	20285.47
450.966	20459.55
451.172	20658.2
451.378	21162
451.584	20594.72
451.791	21387.28
451.997	21141.52
452.203	21563.4
452.409	21747.72
452.615	21501.97
452.821	20701.21
453.027	20492.32
453.233	21483.53
453.44	20590.62
453.646	21133.33
453.852	21334.03
454.058	21286.93
454.264	20725.79
454.47	21217.3
454.676	20813.85
454.882	21215.25
455.088	19589.16
455.294	19943.46
455.5	20295.71
455.705	20389.92
455.911	19748.9
456.117	19132.47
456.323	18958.39
456.529	18206.78
456.735	18784.31
456.941	18309.18
457.147	17987.65
457.352	17328.2
457.558	17330.25
457.764	17154.13
457.97	16777.3
458.176	16380
458.381	16646.23
458.587	15825
458.793	15781.99
458.999	15059.06
459.204	16029.79
459.41	15745.13
459.616	14248.06
459.821	14751.86
460.027	14633.08
460.233	14372.99
460.438	13578.37
460.644	13490.31
460.85	13267.08
461.055	13140.11
461.261	12955.79
461.466	11847.84
461.672	11649.19
461.878	12492.95
462.083	11681.96
462.289	11540.65
462.494	11440.29
462.7	10873.01
462.905	10592.44
463.111	10832.05
463.316	10961.07
463.522	10625.2
463.727	10862.77
463.932	10543.28
464.138	10594.48
464.343	10717.36
464.549	10363.06
464.754	10877.1
464.959	10856.62
465.165	10520.76
465.37	10227.9
465.575	9967.81
465.781	10266.81
465.986	10082.49
466.191	10109.12
466.397	9777.34
466.602	9384.13
466.807	9849.02
467.012	9588.93
467.218	9785.54
467.423	9486.53
467.628	9533.64
467.833	10186.94
468.038	9767.1
468.244	9169.1
468.449	9709.76
468.654	9474.24
468.859	9488.58
469.064	9443.53
469.269	8765.65
469.474	8982.73
469.679	9255.11
469.885	8974.54
470.09	9076.94
470.295	8884.43
470.5	8720.59
470.705	8761.55
470.91	8622.29
471.115	8610
471.32	8724.69
471.525	8528.08
471.73	8384.73
471.935	8378.58
472.139	8198.36
472.344	8243.42
472.549	8186.07
472.754	8290.52
472.959	7778.53
473.164	7559.39
473.369	7696.61
473.574	8038.62
473.778	7801.05
473.983	7665.89
474.188	7864.54
474.393	7172.33
474.598	7368.93
474.802	7139.56
475.007	7180.52
475.212	7086.31
475.417	6928.62
475.621	6797.55
475.826	7123.18
476.031	6918.38
476.235	6777.07
476.44	6951.15
476.645	6623.47
476.849	6707.44
477.054	6519.03
477.259	6396.15
477.463	6492.4
477.668	6406.39
477.872	6525.17
478.077	6220.02
478.282	6140.15
478.486	6197.49
478.691	6289.65
478.895	5968.12
479.1	5914.88
479.304	6170.87
479.509	5857.53
479.713	5986.55
479.918	5841.15
480.122	5699.84
480.326	5800.19
480.531	5916.92
480.735	5705.98
480.94	5730.56
481.144	5816.57
481.348	5603.58
481.553	5710.08
481.757	5515.52
481.961	5636.35
482.166	5869.82
482.37	5591.3
482.574	5595.39
482.778	5470.47
482.983	5755.13
483.187	5642.5
483.391	5781.76
483.595	5470.47
483.8	5488.9
484.004	5460.23
484.208	5712.13
484.412	5660.93
484.616	5742.85
484.821	5691.65
485.025	5638.4
485.229	5761.28
485.433	5654.78
485.637	5550.34
485.841	5521.67
486.045	5564.67
486.249	5538.05
486.453	5677.31
486.657	5673.21
486.861	5689.6
487.065	5716.22
487.269	5744.89
487.473	5523.71
487.677	5658.88
487.881	5767.42
488.085	5523.71
488.289	5734.65
488.493	5763.33
488.697	5710.08
488.901	5826.81
489.105	5738.75
489.309	5859.58
489.512	5974.27
489.716	5837.05
489.92	5869.82
490.124	5884.16
490.328	6009.08
490.531	5921.02
490.735	5929.21
490.939	5855.48
491.143	6054.14
491.346	5871.87
491.55	6084.86
491.754	6099.19
491.958	6004.99
492.161	6043.9
492.365	6068.47
492.569	6099.19
492.772	6172.92
492.976	6107.38
493.18	6336.76
493.383	6336.76
493.587	6355.19
493.79	6398.2
493.994	6545.65
494.197	6537.46
494.401	6652.14
494.605	6695.15
494.808	6697.2
495.012	6711.53
495.215	6760.69
495.419	6969.58
495.622	6895.85
495.825	6803.69
496.029	6930.67
496.232	7215.34
496.436	7166.18
496.639	7399.65
496.843	7119.08
497.046	7561.44
497.249	7547.11
497.453	7704.8
497.656	7803.1
497.859	7682.27
498.063	7915.74
498.266	8159.45
498.469	7983.32
498.673	7952.6
498.876	8335.57
499.079	8284.37
499.282	8315.09
499.485	8474.84
499.689	8530.13
499.892	8884.43
500.095	8796.37
500.298	8939.72
500.501	9023.69
500.705	9175.24
500.908	9275.59
501.111	9359.56
501.314	9484.48
501.517	9660.61
501.72	9748.67
501.923	9734.34
502.126	9851.07
502.329	10037.44
502.532	10246.33
502.735	10244.28
502.938	10678.45
503.141	10612.92
503.344	10977.45
503.547	10731.7
503.75	10975.41
503.953	11024.56
504.156	11268.27
504.359	11516.07
504.562	11649.19
504.765	11841.7
504.968	11907.23
505.17	11929.76
505.373	12234.91
505.576	12216.47
505.779	12603.54
505.982	12474.52
506.185	13062.29
506.387	12933.26
506.59	13203.6
506.793	13338.76
506.996	13475.98
507.198	13779.08
507.401	13617.29
507.604	14000.26
507.807	14006.4
508.009	14096.51
508.212	14381.18
508.415	14737.52
508.617	14839.92
508.82	14831.73
509.022	14958.71
509.225	15300.72
509.428	15474.79
509.63	15544.42
509.833	15779.94
510.035	16101.47
510.238	16205.92
510.44	16459.87
510.643	16457.82
510.845	16928.85
511.048	16568.41
511.25	17014.87
511.453	17158.22
511.655	17733.7
511.858	17586.25
512.06	17811.53
512.262	18010.18
512.465	18090.05
512.667	18264.13
512.87	18575.42
513.072	18638.9
513.274	18663.48
513.477	19198
513.679	19370.03
513.881	19542.06
514.084	19671.08
514.286	19882.02
514.488	19965.99
514.69	20496.41
514.893	20727.83
515.095	20940.82
515.297	20770.84
515.499	21024.79
515.701	21567.5
515.904	21368.85
516.106	21841.93
516.308	21913.61
516.51	22437.89
516.712	22470.65
516.914	22411.26
517.116	23029.75
517.318	22886.39
517.52	23068.66
517.722	23205.88
517.925	23554.03
518.127	24012.77
518.329	24061.93
518.531	23832.55
518.733	24426.46
518.935	24694.75
519.136	24842.2
519.338	25130.97
519.54	25522.13
519.742	25597.9
519.944	25698.25
520.146	25939.91
520.348	26394.56
520.55	26023.88
520.752	26259.4
520.954	27170.74
521.155	26658.75
521.357	27262.9
521.559	27582.38
521.761	27873.2
521.963	27781.04
522.164	28071.85
522.366	28016.55
522.568	28141.48
522.77	28442.53
522.971	29001.63
523.173	29018.01
523.375	29271.96
523.576	29167.51
523.778	28989.34
523.98	29630.35
524.181	30078.86
524.383	29947.79
524.584	29878.16
524.786	30275.46
524.988	30218.12
525.189	30513.03
525.391	30871.42
525.592	30855.04
525.794	31010.68
525.995	31342.46
526.197	31213.43
526.398	31106.94
526.6	31858.54
526.801	31651.7
527.003	31725.43
527.204	31684.47
527.406	31823.73
527.607	32079.72
527.808	32597.86
528.01	31891.31
528.211	32288.62
528.412	32640.87
528.614	32720.74
528.815	32716.64
529.016	33140.57
529.218	33058.65
529.419	33097.56
529.62	33548.12
529.822	33417.05
530.023	32894.82
530.224	33519.45
530.425	33525.59
530.626	33277.79
530.828	32954.21
531.029	33914.7
531.23	33378.14
531.431	33619.8
531.632	33998.67
531.833	33908.56
532.035	33881.94
532.236	34248.52
532.437	34187.08
532.638	33949.52
532.839	34164.56
533.04	34334.54
533.241	33892.18
533.442	34709.32
533.643	33994.57
533.844	34498.37
534.045	34576.2
534.246	34334.54
534.447	34672.45
534.648	34236.23
534.849	34443.08
535.05	34369.35
535.251	34559.81
535.451	34475.85
535.652	34772.8
535.853	34469.7
536.054	34461.51
536.255	34658.12
536.456	34467.66
536.657	35227.45
536.857	34555.72
537.058	34725.7
537.259	34875.2
537.46	34897.73
537.66	34805.57
537.861	35024.7
538.062	34787.14
538.263	35206.97
538.463	34944.83
538.664	34690.88
538.865	35172.16
539.065	35262.27
539.266	34953.02
539.466	35591.99
539.667	34932.54
539.868	35168.06
540.068	35143.49
540.269	34887.49
540.469	35041.09
540.67	35141.44
540.87	35290.94
541.071	35303.23
541.271	35166.01
541.472	35231.55
541.672	34891.58
541.873	35069.76
542.073	34862.91
542.274	35731.25
542.474	35432.25
542.675	35151.68
542.875	35680.05
543.075	35436.34
543.276	34783.04
543.476	35303.23
543.676	35159.87
543.877	35456.82
544.077	35448.63
544.277	35163.96
544.478	35413.82
544.678	35415.86
544.878	35526.46
545.078	35698.48
545.279	34965.31
545.479	35047.23
545.679	35571.51
545.879	35295.03
546.079	35379
546.28	35004.22
546.48	34967.36
546.68	35518.26
546.88	35508.02
547.08	35581.75
547.28	35260.22
547.48	35182.4
547.68	35411.77
547.88	35215.16
548.081	35540.79
548.281	35512.12
548.481	35643.19
548.681	35788.6
548.881	35753.78
549.081	35409.72
549.28	35247.93
549.48	35751.73
549.68	35462.97
549.88	35802.93
550.08	35039.04
550.28	35721.01
550.48	34940.74
550.68	35888.95
550.88	35319.61
551.08	35546.93
551.279	35512.12
551.479	35161.92
551.679	35323.71
551.879	35123.01
552.079	35675.96
552.278	35284.79
552.478	35153.72
552.678	35387.19
552.878	35419.96
553.077	35344.19
553.277	35284.79
553.477	35585.85
553.676	35168.06
553.876	35495.74
554.076	35473.21
554.275	35157.82
554.475	34932.54
554.674	34932.54
554.874	35329.85
555.074	34932.54
555.273	35299.13
555.473	35563.32
555.672	34932.54
555.872	35219.26
556.071	35211.07
556.271	35647.29
556.47	34938.69
556.67	34719.56
556.869	35274.56
557.068	34942.78
557.268	34787.14
557.467	34821.95
557.667	34787.14
557.866	34901.82
558.065	35149.63
558.265	34883.39
558.464	34711.36
558.663	35166.01
558.863	34336.59
559.062	35465.02
559.261	34289.48
559.461	34795.33
559.66	34318.15
559.859	34965.31
560.058	34137.93
560.258	34668.36
560.457	34414.41
560.656	34824
560.855	34576.2
561.054	34848.58
561.253	34422.6
561.453	34608.97
561.652	34312.01
561.851	34649.92
562.05	34580.29
562.249	34330.44
562.448	35168.06
562.647	34662.21
562.846	34226
563.045	34258.76
563.244	34060.11
563.443	34547.53
563.642	33795.92
563.841	34516.81
564.04	33992.53
564.239	34578.25
564.438	34299.72
564.637	34092.88
564.836	34246.47
565.035	33859.41
565.234	34230.09
565.432	33900.37
565.631	33716.05
565.83	33984.33
566.029	33916.75
566.228	33804.11
566.427	33644.37
566.625	33601.36
566.824	33613.65
567.023	33828.69
567.222	33417.05
567.42	34070.35
567.619	33685.33
567.818	33750.87
568.016	33425.24
568.215	34023.25
568.414	33531.73
568.612	33916.75
568.811	33333.08
569.01	33834.83
569.208	33165.15
569.407	33410.9
569.605	32974.69
569.804	33683.28
570.002	33255.26
570.201	33568.6
570.4	32976.73
570.598	32747.36
570.797	32755.55
570.995	33544.02
571.193	32851.81
571.392	33146.72
571.59	32546.66
571.789	32898.91
571.987	32663.39
572.186	32999.26
572.384	32608.1
572.582	32745.31
572.781	32747.36
572.979	32524.13
573.177	32438.12
573.376	32778.08
573.574	32241.51
573.772	32440.17
573.971	32415.59
574.169	32300.9
574.367	32112.49
574.565	32573.28
574.763	32069.48
574.962	31989.61
575.16	32165.74
575.358	32081.77
575.556	31422.33
575.754	32343.91
575.952	31711.09
576.151	32092.01
576.349	31565.68
576.547	31489.91
576.745	31663.99
576.943	31893.36
577.141	31352.69
577.339	31453.05
577.537	31209.34
577.735	31285.11
577.933	30693.25
578.131	30924.67
578.329	30865.28
578.527	30947.2
578.725	30734.21
578.923	31113.08
579.121	30674.82
579.319	30740.35
579.516	30951.29
579.714	30576.51
579.912	30746.5
580.11	30519.17
580.308	30773.12
580.506	30224.26
580.704	29689.74
580.901	30357.38
581.099	30199.69
581.297	30183.3
581.495	29884.3
581.692	30066.57
581.89	29841.29
582.088	30164.87
582.285	29589.39
582.483	29665.17
582.681	29613.97
582.878	29564.82
583.076	29581.2
583.274	29468.56
583.471	29204.38
583.669	29415.32
583.866	29202.33
584.064	29282.2
584.262	29003.67
584.459	29183.9
584.657	28821.41
584.854	29290.39
585.052	28415.91
585.249	29022.11
585.447	29046.68
585.644	28526.5
585.841	28630.94
586.039	28497.83
586.236	28346.28
586.434	28250.02
586.631	28014.51
586.828	28311.46
587.026	28088.23
587.223	28059.56
587.42	27889.58
587.618	28125.1
587.815	27719.6
588.012	27856.81
588.21	27772.85
588.407	28116.9
588.604	27330.48
588.801	27623.34
588.999	27522.99
589.196	27187.13
589.393	27580.34
589.59	27238.33
589.787	27197.37
589.984	26884.03
590.182	26693.57
590.379	26798.01
590.576	26804.16
590.773	26795.96
590.97	26787.77
591.167	26896.31
591.364	26474.43
591.561	26924.99
591.758	26443.71
591.955	26589.12
592.152	26521.54
592.349	26308.55
592.546	26107.85
592.743	26351.56
592.94	25745.36
593.137	26011.59
593.334	26140.61
593.531	25675.73
593.727	25984.97
593.924	25798.6
594.121	25548.75
594.318	25823.18
594.515	25298.9
594.712	25583.57
594.908	25216.98
595.105	25622.48
595.302	24963.03
595.499	25173.97
595.696	25104.34
595.892	25096.15
596.089	25186.26
596.286	25014.23
596.482	24842.2
596.679	24844.25
596.876	24766.43
597.072	24979.42
597.269	24846.3
597.466	24463.33
597.662	24680.41
597.859	24367.07
598.055	24240.1
598.252	24268.77
598.448	24279.01
598.645	24125.41
598.841	23871.47
599.038	23928.81
599.234	23949.29
599.431	23816.17
599.627	23529.45
599.824	24225.76
600.02	23570.41
600.217	23461.87
600.413	23365.62
600.609	23631.85
600.806	23148.53
601.002	23427.06
601.198	23136.24
601.395	23246.83
601.591	23140.34
601.787	23123.96
601.984	22786.04
602.18	23087.09
602.376	22857.72
602.572	22552.57
602.769	22818.81
602.965	22577.15
603.161	22534.14
603.357	22636.54
603.553	22437.89
603.75	22249.47
603.946	22237.19
604.142	22310.91
604.338	22224.9
604.534	21942.28
604.73	22149.12
604.926	21776.39
605.122	22341.63
605.318	21714.95
605.514	21604.36
605.71	21903.37
605.906	21461.01
606.102	21530.64
606.298	21547.02
606.494	21530.64
606.69	21653.51
606.886	21461.01
607.082	21139.47
607.278	21112.85
607.474	20967.45
607.67	21372.94
607.866	20928.53
608.062	21207.06
608.257	21121.04
608.453	21084.18
608.649	20858.9
608.845	20957.21
609.041	20377.63
609.236	20979.73
609.432	20752.41
609.628	20543.52
609.824	20764.7
610.019	20369.44
610.215	20611.1
610.411	20615.19
610.606	20508.7
610.802	20375.58
610.998	20449.31
611.193	20412.45
611.389	20492.32
611.584	20060.2
611.78	20279.33
611.976	19941.41
612.171	20203.55
612.367	20041.76
612.562	19753
612.758	19855.4
612.953	19640.36
613.149	19929.13
613.344	19650.6
613.539	20273.18
613.735	19568.68
613.93	19877.93
614.126	19644.46
614.321	19767.34
614.517	19632.17
614.712	19685.42
614.907	19558.44
615.103	19634.22
615.298	19454
615.493	19410.99
615.688	19279.92
615.884	19423.28
616.079	19339.31
616.274	19234.86
616.47	18812.98
616.665	19058.74
616.86	19064.88
617.055	19095.6
617.25	19054.64
617.445	19048.5
617.641	19019.83
617.836	18960.44
618.031	18706.49
618.226	18882.61
618.421	18712.63
618.616	18675.77
618.811	18274.37
619.006	18638.9
619.201	18344
619.396	18333.76
619.591	18094.15
619.786	18389.05
619.981	18331.71
620.176	18432.06
620.371	17852.48
620.566	18059.33
620.761	17633.35
620.956	17885.25
621.151	17684.55
621.346	17834.05
621.541	17129.55
621.735	17438.8
621.93	17135.7
622.125	17211.47
622.32	16973.91
622.515	17389.64
622.709	16978
622.904	16728.15
623.099	16722.01
623.294	16681.05
623.488	16621.66
623.683	16695.38
623.878	16236.64
624.072	16488.54
624.267	16519.26
624.462	16339.04
624.656	16099.42
624.851	16066.66
625.046	16048.22
625.24	15949.92
625.435	15734.89
625.629	15741.03
625.824	15560.81
626.018	15685.73
626.213	15104.11
626.407	15536.23
626.602	15169.65
626.796	15020.14
626.991	15151.21
627.185	14942.32
627.38	15036.53
627.574	14999.66
627.768	14706.8
627.963	14528.63
628.157	14569.59
628.352	14706.8
628.546	14358.65
628.74	14575.73
628.935	14526.58
629.129	14229.63
629.323	14018.69
629.517	13977.73
629.712	14024.83
629.906	14164.09
630.1	13797.51
630.294	13830.27
630.489	13914.24
630.683	13860.99
630.877	13457.54
631.071	13621.38
631.265	13711.49
631.459	13283.47
631.653	13375.63
631.848	13541.51
632.042	13101.2
632.236	13283.47
632.43	13023.37
632.624	12855.44
632.818	13113.49
633.012	12742.8
633.206	12660.88
633.4	12937.36
633.594	12519.57
633.788	12619.92
633.982	12767.38
634.176	12495
634.369	12531.86
634.563	12337.31
634.757	12294.3
634.951	12220.57
635.145	12198.04
635.339	12398.74
635.533	12128.41
635.726	12038.3
635.92	11940
636.114	11712.67
636.308	11735.2
636.501	11759.78
636.695	11792.55
636.889	11577.51
637.083	11628.71
637.276	11606.18
637.47	11501.73
637.664	11491.49
637.857	11677.86
638.051	11382.95
638.244	11258.03
638.438	11077.8
638.632	11102.38
638.825	11182.25
639.019	10893.49
639.212	10817.71
639.406	10797.23
639.599	10893.49
639.793	10842.29
639.986	10737.84
640.18	10610.87
640.373	10625.2
640.567	10457.27
640.76	10381.49
640.954	10356.92
641.147	10299.58
641.34	10277.05
641.534	10174.65
641.727	10107.07
641.92	10152.12
642.114	10127.55
642.307	9980.09
642.5	9855.17
642.694	10002.62
642.887	10004.67
643.08	9644.23
643.273	9824.45
643.467	9652.42
643.66	9515.2
643.853	9537.73
644.046	9357.51
644.239	9406.66
644.432	9371.85
644.626	9392.33
644.819	9212.1
645.012	9341.13
645.205	9289.93
645.398	9156.81
645.591	9103.56
645.784	9003.21
645.977	8972.49
646.17	8820.94
646.363	8753.36
646.556	8779.98
646.749	8833.23
646.942	8777.94
647.135	8722.64
647.328	8601.81
647.521	8483.03
647.714	8722.64
647.907	8409.3
648.099	8364.25
648.292	8644.82
648.485	8544.47
648.678	8210.65
648.871	8313.05
649.064	8052.95
649.256	8145.11
649.449	8020.19
649.642	7891.16
649.835	8001.76
650.027	7973.08
650.22	7938.27
650.413	7616.74
650.605	7905.5
650.798	7858.4
650.991	7653.6
651.183	7659.74
651.376	7684.32
651.568	7495.91
651.761	7366.88
651.954	7491.81
652.146	7342.31
652.339	7522.53
652.531	7284.97
652.724	7356.65
652.916	7282.92
653.109	7303.4
653.301	7106.79
653.494	7211.24
653.686	6920.43
653.879	7098.6
654.071	7092.46
654.263	7160.04
654.456	6809.84
654.648	6881.52
654.84	6686.96
655.033	6863.08
655.225	6684.91
655.417	6658.29
655.61	6639.86
655.802	6639.86
655.994	6594.8
656.186	6465.78
656.379	6502.64
656.571	6426.87
656.763	6449.39
656.955	6416.63
657.148	6426.87
657.34	6336.76
657.532	6232.31
657.724	6144.25
657.916	6164.73
658.108	6148.34
658.3	6007.03
658.492	6099.19
658.684	5949.69
658.876	5933.31
659.068	5896.44
659.26	5818.62
659.452	5783.81
659.644	5765.37
659.836	5714.17
660.028	5822.72
660.22	5792
660.412	5746.94
660.604	5658.88
660.796	5601.54
660.988	5503.23
661.18	5351.68
661.372	5275.91
661.563	5415.17
661.755	5462.27
661.947	5361.92
662.139	5366.02
662.331	5308.68
662.522	5177.61
662.714	5140.74
662.906	5226.76
663.097	5275.91
663.289	4993.29
663.481	5085.45
663.673	4987.15
663.864	5050.63
664.056	4983.05
664.247	4937.99
664.439	4884.75
664.631	4778.25
664.822	4792.59
665.014	4806.92
665.205	4739.34
665.397	4421.91
665.588	4727.05
665.78	4663.57
665.971	4522.26
666.163	4606.22
666.354	4622.61
666.546	4436.24
666.737	4448.53
666.929	4436.24
667.12	4376.85
667.311	4493.58
667.503	4352.27
667.694	4331.8
667.885	4315.41
668.077	4151.57
668.268	4286.74
668.459	4196.63
668.651	4225.3
668.842	4272.4
669.033	4106.52
669.224	3991.83
669.416	4049.18
669.607	4268.31
669.798	3946.78
669.989	3985.69
670.18	4096.28
670.371	3991.83
670.563	3914.01
670.754	3817.76
670.945	3934.49
671.136	3807.52
671.327	3803.42
671.518	3864.86
671.709	3815.71
671.9	3799.32
672.091	3838.23
672.282	3725.6
672.473	3682.59
672.664	3692.83
672.855	3768.6
673.046	3647.77
673.237	3701.02
673.428	3590.43
673.619	3649.82
673.809	3592.48
674	3434.78
674.191	3590.43
674.382	3510.56
674.573	3447.07
674.764	3518.75
674.954	3467.55
675.145	3416.35
675.336	3385.63
675.527	3418.4
675.717	3369.25
675.908	3426.59
676.099	3432.74
676.289	3350.82
676.48	3393.83
676.671	3203.36
676.861	3203.36
677.052	3240.23
677.243	3150.12
677.433	3182.88
677.624	3100.97
677.814	3227.94
678.005	3238.18
678.195	3117.35
678.386	3117.35
678.576	3186.98
678.767	3060.01
678.957	3082.53
679.148	3111.21
679.338	3258.66
679.529	2949.42
679.719	3088.68
679.909	3066.15
680.1	3168.55
680.29	2976.04
680.481	2957.61
680.671	3012.9
680.861	2943.27
681.052	2912.55
681.242	2898.22
681.432	3074.34
681.622	2967.85
681.813	2930.98
682.003	2949.42
682.193	2971.94
682.383	2965.8
682.573	2902.31
682.764	2879.79
682.954	2955.56
683.144	2826.54
683.334	2904.36
683.524	2797.87
683.714	2804.01
683.904	2840.87
684.094	2791.72
684.284	2795.82
684.474	2902.31
684.664	2853.16
684.854	2775.34
685.044	2771.24
685.234	2668.84
685.424	2855.21
685.614	2646.32
685.804	2799.91
685.994	2871.59
686.184	2795.82
686.374	2761
686.564	2763.05
686.753	2836.78
686.943	2793.77
687.133	2724.14
687.323	2834.73
687.513	2767.15
687.702	2668.84
687.892	2777.39
688.082	2738.48
688.272	2711.85
688.461	2697.52
688.651	2816.3
688.841	2648.36
689.03	2715.95
689.22	2656.56
689.41	2754.86
689.599	2763.05
689.789	2771.24
689.979	2736.43
690.168	2726.19
690.358	2662.7
690.547	2550.06
690.737	2697.52
690.926	2722.09
691.116	2697.52
691.305	2699.56
691.495	2611.5
691.684	2578.73
691.874	2613.55
692.063	2605.36
692.252	2683.18
692.442	2685.23
692.631	2601.26
692.82	2574.64
693.01	2560.3
693.199	2492.72
693.388	2548.01
693.578	2670.89
693.767	2560.3
693.956	2488.62
694.146	2459.95
694.335	2455.86
694.524	2548.01
694.713	2418.99
694.902	2593.07
695.092	2474.29
695.281	2441.52
695.47	2533.68
695.659	2556.21
695.848	2431.28
696.037	2548.01
696.226	2500.91
696.415	2492.72
696.604	2388.27
696.793	2384.18
696.982	2396.46
697.171	2478.38
697.36	2431.28
697.549	2367.79
697.738	2382.13
697.927	2380.08
698.116	2441.52
698.305	2365.75
698.494	2406.7
698.683	2326.83
698.872	2365.75
699.061	2406.7
699.25	2324.79
699.438	2332.98
699.627	2462
699.816	2234.68
700.005	2275.63
700.193	2330.93
700.382	2369.84
700.571	2320.69
700.76	2275.63
700.948	2175.28
701.137	2210.1
701.326	2119.99
701.514	2165.04
701.703	2236.72
701.892	2122.04
702.08	2210.1
702.269	2185.52
702.457	2294.07
702.646	2117.94
702.834	2111.8
703.023	2175.28
703.212	2249.01
703.4	2140.47
703.589	2148.66
703.777	2144.56
703.965	1995.06
704.154	2109.75
704.342	2124.08
704.531	1933.62
704.719	2027.83
704.907	2122.04
705.096	2050.36
705.284	2025.78
705.472	2089.27
705.661	2011.45
705.849	2101.56
706.037	2017.59
706.226	1980.73
706.414	2029.88
706.602	1935.67
706.79	2007.35
706.979	1919.29
707.167	1933.62
707.355	1954.1
707.543	1976.63
707.731	1902.9
707.919	1943.86
708.107	1968.44
708.296	1911.1
708.484	1919.29
708.672	1933.62
708.86	1825.08
709.048	1929.53
709.236	1880.38
709.424	1743.16
709.612	1886.52
709.8	1794.36
709.988	1755.45
710.176	1878.33
710.364	1732.92
710.551	1814.84
710.739	1724.73
710.927	1777.98
711.115	1706.3
711.303	1730.87
711.491	1749.31
711.679	1665.34
711.866	1788.22
712.054	1739.07
712.242	1640.76
712.43	1743.16
712.617	1644.86
712.805	1646.91
712.993	1651
713.181	1675.58
713.368	1700.16
713.556	1655.1
713.744	1540.41
713.931	1665.34
714.119	1556.8
714.306	1601.85
714.494	1538.37
714.682	1562.94
714.869	1642.81
715.057	1528.13
715.244	1583.42
715.432	1567.04
715.619	1546.56
715.807	1485.12
715.994	1577.28
716.182	1540.41
716.369	1538.37
716.556	1517.89
716.744	1478.97
716.931	1466.69
717.119	1505.6
717.306	1376.58
717.493	1472.83
717.681	1380.67
717.868	1429.82
718.055	1411.39
718.242	1546.56
718.43	1450.3
718.617	1419.58
718.804	1507.65
718.991	1423.68
719.179	1460.54
719.366	1399.1
719.553	1304.9
719.74	1345.86
719.927	1444.16
720.114	1345.86
720.301	1435.97
720.488	1362.24
720.676	1392.96
720.863	1370.43
721.05	1313.09
721.237	1409.34
721.424	1247.55
721.611	1294.66
721.798	1347.9
721.985	1200.45
722.172	1339.71
722.358	1157.44
722.545	1251.65
722.732	1247.55
722.919	1335.62
723.106	1186.12
723.293	1179.97
723.48	1210.69
723.667	1206.59
723.853	1276.23
724.04	1263.94
724.227	1298.75
724.414	1270.08
724.6	1196.36
724.787	1194.31
724.974	1268.03
725.161	1073.48
725.347	1149.25
725.534	1126.72
725.72	1124.68
725.907	1118.53
726.094	1192.26
726.28	1120.58
726.467	1157.44
726.653	1163.59
726.84	1143.11
727.027	1190.21
727.213	1065.29
727.4	1177.92
727.586	1130.82
727.773	1096
727.959	1055.05
728.145	1143.11
728.332	1210.69
728.518	1075.52
728.705	1020.23
728.891	1102.15
729.077	1067.33
729.264	977.22
729.45	1077.57
729.636	1075.52
729.823	1042.76
730.009	880.97
730.195	944.45
730.382	1003.85
730.568	997.7
730.754	1044.81
730.94	1001.8
731.126	1046.85
731.313	1003.85
731.499	946.5
731.685	936.26
731.871	979.27
732.057	934.22
732.243	930.12
732.429	960.84
732.615	901.45
732.801	997.7
732.987	928.07
733.173	962.89
733.359	975.17
733.545	1026.37
733.731	919.88
733.917	948.55
734.103	948.55
734.289	919.88
734.475	909.64
734.661	1001.8
734.847	856.39
735.033	919.88
735.219	948.55
735.404	915.78
735.59	874.82
735.776	848.2
735.962	837.96
736.148	848.2
736.333	917.83
736.519	774.47
736.705	833.86
736.89	817.48
737.076	817.48
737.262	911.69
737.447	807.24
737.633	803.15
737.819	852.3
738.004	792.91
738.19	803.15
738.375	747.85
738.561	735.56
738.747	817.48
738.932	809.29
739.118	790.86
739.303	782.67
739.489	797
739.674	858.44
739.859	747.85
740.045	741.71
740.23	715.08
740.416	749.9
740.601	721.23
740.786	756.04
740.972	762.19
741.157	731.47
741.342	780.62
741.528	706.89
741.713	807.24
741.898	670.03
742.084	774.47
742.269	670.03
742.454	737.61
742.639	721.23
742.824	702.79
743.01	719.18
743.195	753.99
743.38	690.51
743.565	653.64
743.75	715.08
743.935	633.16
744.12	751.95
744.305	733.51
744.49	618.83
744.675	676.17
744.86	659.79
745.045	758.09
745.23	747.85
745.415	659.79
745.6	665.93
745.785	608.59
745.97	690.51
746.155	688.46
746.34	680.27
746.525	682.31
746.71	594.25
746.895	698.7
747.079	618.83
747.264	596.3
747.449	667.98
747.634	641.36
747.819	565.58
748.003	555.34
748.188	493.9
748.373	577.87
748.557	606.54
748.742	573.77
748.927	610.64
749.111	557.39
749.296	661.84
749.481	612.68
749.665	563.53
749.85	620.88
750.034	575.82
750.219	672.08
750.404	573.77
750.588	653.64
750.773	532.81
750.957	547.15
751.141	491.85
751.326	581.96
751.51	551.24
751.695	485.71
751.879	549.2
752.064	586.06
752.248	569.68
752.432	551.24
752.617	518.48
752.801	506.19
752.985	543.05
753.17	508.24
753.354	483.66
753.538	432.46
753.722	526.67
753.907	481.61
754.091	498
754.275	534.86
754.459	418.13
754.643	493.9
754.828	530.77
755.012	543.05
755.196	438.61
755.38	536.91
755.564	403.79
755.748	432.46
755.932	512.33
756.116	520.53
756.3	397.65
756.484	440.65
756.668	446.8
756.852	471.37
757.036	344.4
757.22	381.26
757.404	371.02
757.588	438.61
757.772	475.47
757.956	452.94
758.14	440.65
758.323	348.5
758.507	387.41
758.691	454.99
758.875	442.7
759.059	397.65
759.242	377.17
759.426	411.98
759.61	420.17
759.794	409.94
759.977	403.79
760.161	508.24
760.345	405.84
760.528	385.36
760.712	442.7
760.895	387.41
761.079	385.36
761.263	344.4
761.446	313.68
761.63	368.98
761.813	338.26
761.997	340.3
762.18	330.06
762.364	420.17
762.547	416.08
762.731	342.35
762.914	354.64
763.098	368.98
763.281	332.11
763.464	362.83
763.648	360.78
763.831	420.17
764.015	362.83
764.198	395.6
764.381	368.98
764.564	407.89
764.748	362.83
764.931	377.17
765.114	368.98
765.297	373.07
765.481	244.05
765.664	377.17
765.847	315.73
766.03	473.42
766.213	438.61
766.397	397.65
766.58	323.92
766.763	342.35
766.946	356.69
767.129	356.69
767.312	348.5
767.495	407.89
767.678	336.21
767.861	414.03
768.044	280.91
768.227	411.98
768.41	422.22
768.593	338.26
768.776	297.3
768.959	289.1
769.142	383.31
769.324	248.15
769.507	344.4
769.69	278.87
769.873	315.73
770.056	356.69
770.239	332.11
770.421	342.35
770.604	274.77
770.787	323.92
770.97	403.79
771.152	379.22
771.335	332.11
771.518	248.15
771.7	346.45
771.883	340.3
772.066	315.73
772.248	307.54
772.431	299.34
772.613	282.96
772.796	289.1
772.978	373.07
773.161	321.87
773.343	289.1
773.526	262.48
773.708	287.06
773.891	235.86
774.073	342.35
774.256	221.52
774.438	274.77
774.621	332.11
774.803	274.77
774.985	348.5
775.168	293.2
775.35	307.54
775.532	399.7
775.715	305.49
775.897	313.68
776.079	254.29
776.261	305.49
776.444	338.26
776.626	217.43
776.808	250.19
776.99	260.43
777.173	315.73
777.355	309.58
777.537	276.82
777.719	344.4
777.901	262.48
778.083	246.1
778.265	256.34
778.447	266.58
778.629	266.58
778.811	235.86
778.993	297.3
779.175	291.15
779.357	248.15
779.539	248.15
779.721	252.24
779.903	276.82
780.085	256.34
780.267	260.43
780.449	254.29
780.631	280.91
780.812	266.58
780.994	319.82
781.176	166.23
781.358	246.1
781.54	244.05
781.721	252.24
781.903	231.76
782.085	215.38
782.267	164.18
782.448	229.71
782.63	225.62
782.812	299.34
782.993	209.23
783.175	196.95
783.357	215.38
783.538	180.56
783.72	178.51
783.901	151.89
784.083	178.51
784.264	176.47
784.446	250.19
784.627	213.33
784.809	213.33
784.99	239.95
785.172	217.43
785.353	174.42
785.535	229.71
785.716	207.19
785.897	223.57
786.079	215.38
786.26	190.8
786.441	219.47
786.623	198.99
786.804	168.27
786.985	166.23
787.167	207.19
787.348	151.89
787.529	137.56
787.71	231.76
787.891	182.61
788.073	190.8
788.254	186.71
788.435	153.94
788.616	172.37
788.797	190.8
788.978	233.81
789.159	166.23
789.34	135.51
789.522	86.36
789.703	223.57
789.884	133.46
790.065	166.23
790.246	151.89
790.427	174.42
790.607	129.36
790.788	174.42
790.969	135.51
791.15	153.94
791.331	131.41
791.512	194.9
791.693	131.41
791.874	78.16
792.054	153.94
792.235	112.98
792.416	135.51
792.597	158.03
792.778	123.22
792.958	141.65
793.139	174.42
793.32	174.42
793.5	162.13
793.681	235.86
793.862	53.59
794.042	110.93
794.223	67.92
794.404	151.89
794.584	117.08
794.765	84.31
794.945	188.75
795.126	162.13
795.306	133.46
795.487	108.88
795.667	127.32
795.848	137.56
796.028	110.93
796.209	131.41
796.389	98.64
796.57	102.74
796.75	72.02
796.93	74.07
797.111	137.56
797.291	129.36
797.471	92.5
797.652	57.68
797.832	33.11
798.012	186.71
798.192	104.79
798.373	92.5
798.553	59.73
798.733	96.6
798.913	106.84
799.093	96.6
799.274	129.36
799.454	80.21
799.634	49.49
799.814	127.32
799.994	80.21
800.174	117.08
800.354	94.55
800.534	170.32
800.714	12.63
800.894	117.08
801.074	106.84
801.254	16.73
801.434	61.78
801.614	80.21
801.794	129.36
801.974	323.92
802.154	112.98
802.334	119.12
802.514	98.64
802.693	112.98
802.873	143.7
803.053	192.85
803.233	86.36
803.413	135.51
803.592	45.4
803.772	92.5
803.952	102.74
804.131	84.31
804.311	147.8
804.491	100.69
804.67	121.17
804.85	65.88
805.03	51.54
805.209	190.8
805.389	74.07
805.568	151.89
805.748	92.5
805.928	110.93
806.107	43.35
806.287	102.74
806.466	112.98
806.646	102.74
806.825	106.84
807.004	-5.8
807.184	67.92
807.363	61.78
807.543	180.56
807.722	22.87
807.901	82.26
808.081	76.12
808.26	168.27
808.439	49.49
808.619	92.5
808.798	59.73
808.977	63.83
809.156	72.02
809.336	90.45
809.515	78.16
809.694	84.31
809.873	18.77
810.052	88.4
810.231	65.88
810.411	84.31
810.59	10.58
810.769	26.96
810.948	72.02
811.127	86.36
811.306	108.88
811.485	82.26
811.664	69.97
811.843	74.07
812.022	125.27
812.201	39.25
812.38	94.55
812.559	86.36
812.737	35.16
812.916	45.4
813.095	18.77
813.274	76.12
813.453	100.69
813.632	59.73
813.811	55.64
813.989	96.6
814.168	16.73
814.347	37.2
814.526	53.59
814.704	26.96
814.883	51.54
815.062	31.06
815.24	76.12
815.419	-7.85
815.598	108.88
815.776	18.77
815.955	80.21
816.133	33.11
816.312	-3.75
816.49	82.26
816.669	65.88
816.847	92.5
817.026	45.4
817.204	37.2
817.383	61.78
817.561	20.82
817.74	37.2
817.918	67.92
818.097	-40.62
818.275	39.25
818.453	76.12
818.632	49.49
818.81	26.96
818.988	31.06
819.167	57.68
819.345	104.79
819.523	-16.04
819.701	102.74
819.879	6.49
820.058	6.49
820.236	65.88
820.414	63.83
820.592	20.82
820.77	26.96
820.948	-18.09
821.127	80.21
821.305	72.02
821.483	108.88
821.661	65.88
821.839	33.11
822.017	26.96
822.195	-7.85
822.373	4.44
822.551	92.5
822.729	39.25
822.907	-3.75
823.085	82.26
823.262	47.44
823.44	10.58
823.618	61.78
823.796	61.78
823.974	43.35
824.152	67.92
824.329	16.73
824.507	127.32
824.685	18.77
824.863	-3.75
825.04	-13.99
825.218	24.92
825.396	-20.14
825.574	72.02
825.751	29.01
825.929	-13.99
826.107	-44.71
826.284	53.59
826.462	-5.8
826.639	63.83
826.817	-20.14
826.994	80.21
827.172	-18.09
827.349	59.73
827.527	14.68
827.704	59.73
827.882	84.31
828.059	47.44
828.237	55.64
828.414	47.44
828.591	18.77
828.769	10.58
828.946	-9.9
829.124	96.6
829.301	90.45
829.478	-13.99
829.655	18.77
829.833	92.5
830.01	16.73
830.187	43.35
830.364	12.63
830.542	57.68
830.719	67.92
830.896	12.63
831.073	76.12
831.25	43.35
831.427	2.39
831.604	-1.71
831.782	-9.9
831.959	-11.95
832.136	-9.9
832.313	145.75
832.49	88.4
832.667	88.4
832.844	6.49
833.021	8.53
833.198	16.73
833.374	37.2
833.551	82.26
833.728	-5.8
833.905	57.68
834.082	24.92
834.259	-52.91
834.436	98.64
834.612	-38.57
834.789	92.5
834.966	59.73
835.143	-9.9
835.319	74.07
835.496	80.21
835.673	31.06
835.85	45.4
836.026	67.92
836.203	39.25
836.38	39.25
836.556	16.73
836.733	35.16
836.909	24.92
837.086	45.4
837.262	12.63
837.439	26.96
837.616	18.77
837.792	-28.33
837.968	84.31
838.145	57.68
838.321	53.59
838.498	37.2
838.674	39.25
838.851	12.63
839.027	47.44
839.203	-3.75
839.38	41.3
839.556	10.58
839.732	33.11
839.909	31.06
840.085	-22.19
840.261	37.2
840.437	43.35
840.614	37.2
840.79	10.58
840.966	61.78
841.142	45.4
841.318	43.35
841.494	80.21
841.671	14.68
841.847	18.77
842.023	76.12
842.199	16.73
842.375	63.83
842.551	35.16
842.727	6.49
842.903	61.78
843.079	8.53
843.255	104.79
843.431	12.63
843.607	-1.71
843.783	-7.85
843.959	63.83
844.134	43.35
844.31	72.02
844.486	12.63
844.662	35.16
844.838	39.25
845.013	57.68
845.189	-26.28
845.365	14.68
845.541	16.73
845.716	22.87
845.892	8.53
846.068	-3.75
846.244	-24.23
846.419	26.96
846.595	8.53
846.77	2.39
846.946	14.68
847.122	43.35
847.297	-7.85
847.473	4.44
847.648	-1.71
847.824	-13.99
847.999	-40.62
848.175	35.16
848.35	12.63
848.526	2.39
848.701	-28.33
848.876	-44.71
849.052	35.16
849.227	59.73
849.403	33.11
849.578	-5.8
849.753	4.44
849.929	0.34
850.104	-7.85
850.279	18.77
850.454	-11.95
850.63	61.78
850.805	-7.85
850.98	16.73
851.155	31.06
851.33	102.74
851.505	-36.52
851.681	41.3
851.856	90.45
852.031	82.26
852.206	-5.8
852.381	22.87
852.556	55.64
852.731	24.92
852.906	-20.14
853.081	-24.23
853.256	100.69
853.431	24.92
853.606	-9.9
853.781	-38.57
853.956	4.44
854.131	47.44
854.305	-1.71
854.48	-18.09
854.655	35.16
854.83	-16.04
855.005	6.49
855.18	45.4
855.354	26.96
855.529	86.36
855.704	-18.09
855.879	20.82
856.053	24.92
856.228	8.53
856.403	10.58
856.577	45.4
856.752	2.39
856.926	43.35
857.101	-54.95
857.276	29.01
857.45	45.4
857.625	43.35
857.799	26.96
857.974	35.16
858.148	-5.8
858.323	-7.85
858.497	-24.23
858.672	-28.33
858.846	-1.71
859.02	41.3
859.195	14.68
859.369	-11.95
859.543	-28.33
859.718	2.39
859.892	39.25
860.066	49.49
860.241	-30.38
860.415	22.87
860.589	-67.24
860.763	10.58
860.938	-22.19
861.112	18.77
861.286	20.82
861.46	51.54
861.634	-32.43
861.808	45.4
861.982	18.77
862.157	86.36
862.331	-18.09
862.505	-24.23
862.679	-28.33
862.853	-18.09
863.027	20.82
863.201	26.96
863.375	35.16
863.549	33.11
863.722	39.25
863.896	-13.99
864.07	-26.28
864.244	-7.85
864.418	65.88
864.592	4.44
864.766	33.11
864.939	-13.99
865.113	67.92
865.287	100.69
865.461	37.2
865.634	61.78
865.808	4.44
865.982	20.82
866.156	-16.04
866.329	18.77
866.503	-22.19
866.676	12.63
866.85	-20.14
867.024	12.63
867.197	-1.71
867.371	10.58
867.544	51.54
867.718	-13.99
867.891	67.92
868.065	10.58
868.238	6.49
868.412	31.06
868.585	22.87
868.759	8.53
868.932	65.88
869.105	-22.19
869.279	33.11
869.452	-3.75
869.625	33.11
869.799	20.82
869.972	24.92
870.145	-13.99
870.319	6.49
870.492	-38.57
870.665	-28.33
870.838	-7.85
871.011	-63.15
871.185	-36.52
871.358	-13.99
871.531	-32.43
871.704	10.58
871.877	61.78
872.05	-20.14
872.223	96.6
872.396	-30.38
872.569	-11.95
872.742	-44.71
872.915	41.3
873.088	33.11
873.261	65.88
873.434	-65.19
873.607	6.49
873.78	-13.99
873.953	-11.95
874.126	10.58
874.299	-30.38
874.471	10.58
874.644	-22.19
874.817	59.73
874.99	12.63
875.163	-24.23
875.335	67.92
875.508	16.73
875.681	-42.67
875.853	-32.43
876.026	39.25
876.199	-22.19
876.371	-22.19
876.544	-34.47
876.717	49.49
876.889	12.63
877.062	47.44
877.234	14.68
877.407	-5.8
877.579	4.44
877.752	47.44
877.924	0.34
878.097	55.64
878.269	18.77
878.442	-22.19
878.614	69.97
878.786	18.77
878.959	-7.85
879.131	-46.76
879.303	29.01
879.476	2.39
879.648	84.31
879.82	-1.71
879.993	-22.19
880.165	41.3
880.337	-52.91
880.509	69.97
880.681	-3.75
880.854	22.87
881.026	41.3
881.198	-20.14
881.37	88.4
881.542	-26.28
881.714	14.68
881.886	2.39
882.058	4.44
882.23	2.39
882.402	-50.86
882.574	18.77
882.746	-7.85
882.918	29.01
883.09	-20.14
883.262	24.92
883.434	47.44
883.606	51.54
883.778	8.53
883.95	-3.75
884.122	-7.85
884.293	24.92
884.465	-26.28
884.637	20.82
884.809	20.82
884.98	31.06
885.152	53.59
885.324	55.64
885.496	18.77
885.667	63.83
885.839	-3.75
886.011	86.36
886.182	2.39
886.354	33.11
886.525	0.34
886.697	8.53
886.869	-3.75
887.04	22.87
887.212	2.39
887.383	106.84
887.555	26.96
887.726	-36.52
887.897	31.06
888.069	-9.9
888.24	-5.8
888.412	-54.95
888.583	-13.99
888.754	51.54
888.926	16.73
889.097	22.87
889.268	-32.43
889.44	-7.85
889.611	-5.8
889.782	0.34
889.953	-87.72
890.125	51.54
890.296	-7.85
890.467	-24.23
890.638	51.54
890.809	20.82
890.98	-11.95
891.151	-13.99
891.323	45.4
891.494	55.64
891.665	10.58
891.836	6.49
892.007	-22.19
892.178	65.88
892.349	-9.9
892.52	-59.05
892.691	-9.9
892.862	8.53
893.032	8.53
893.203	10.58
893.374	8.53
893.545	53.59
893.716	-69.29
893.887	37.2
894.057	14.68
894.228	-22.19
894.399	-24.23
894.57	43.35
894.74	-54.95
894.911	14.68
895.082	24.92
895.253	-1.71
895.423	-75.43
895.594	-7.85
895.764	31.06
895.935	16.73
896.106	22.87
896.276	26.96
896.447	-20.14
896.617	65.88
896.788	-32.43
896.958	-11.95
897.129	61.78
897.299	16.73
897.47	53.59
897.64	8.53
897.81	4.44
897.981	-13.99
898.151	-11.95
898.322	59.73
898.492	26.96
898.662	59.73
898.832	10.58
899.003	-11.95
899.173	-69.29
899.343	37.2
899.513	-24.23
