Data from USB4F104151__29__12-53-36-786.txt Node

Date: Fri Mar 14 12:53:36 EDT 2025
User: louis
Spectrometer: USB4F10415
Trigger mode: 4
Integration Time (sec): 1.000000E-2
Scans to average: 1
Electric dark correction enabled: true
Nonlinearity correction enabled: false
Boxcar width: 0
XAxis mode: Wavelengths
Number of Pixels in Spectrum: 3648
>>>>>Begin Spectral Data<<<<<
178.204	-105.13
178.424	-105.13
178.644	-105.13
178.864	-33.45
179.084	-37.55
179.304	3.41
179.524	3.41
179.744	-27.31
179.964	-29.35
180.184	-12.97
180.404	-27.31
180.624	36.18
180.844	15.7
181.064	-10.92
181.283	-4.78
181.503	30.04
181.723	23.89
181.943	21.84
182.163	42.32
182.383	30.04
182.602	17.75
182.822	-64.17
183.042	36.18
183.262	-29.35
183.482	21.84
183.701	-12.97
183.921	38.23
184.141	-94.89
184.361	19.8
184.58	-43.69
184.8	-90.79
185.02	83.28
185.239	-6.83
185.459	-19.11
185.679	-25.26
185.898	-43.69
186.118	46.42
186.338	13.65
186.557	-27.31
186.777	-41.64
186.997	11.61
187.216	17.75
187.436	1.37
187.655	11.61
187.875	-25.26
188.095	-68.27
188.314	-25.26
188.534	17.75
188.753	-45.74
188.973	17.75
189.192	23.89
189.412	23.89
189.631	-0.68
189.851	11.61
190.07	46.42
190.29	-101.03
190.509	58.71
190.729	-4.78
190.948	3.41
191.168	40.28
191.387	3.41
191.607	30.04
191.826	-6.83
192.045	-10.92
192.265	-6.83
192.484	-29.35
192.704	34.13
192.923	-72.36
193.142	-21.16
193.362	-37.55
193.581	-8.87
193.8	-25.26
194.02	13.65
194.239	-58.03
194.458	46.42
194.678	46.42
194.897	15.7
195.116	15.7
195.335	-80.55
195.555	36.18
195.774	17.75
195.993	15.7
196.212	-45.74
196.432	1.37
196.651	-10.92
196.87	3.41
197.089	-74.41
197.308	93.52
197.528	-0.68
197.747	7.51
197.966	-17.07
198.185	-10.92
198.404	27.99
198.623	9.56
198.842	32.08
199.062	32.08
199.281	-4.78
199.5	-33.45
199.719	73.04
199.938	17.75
200.157	-6.83
200.376	58.71
200.595	71
200.814	-39.59
201.033	-8.87
201.252	3.41
201.471	-10.92
201.69	-2.73
201.909	-2.73
202.128	42.32
202.347	25.94
202.566	-72.36
202.785	32.08
203.004	56.66
203.223	38.23
203.442	-10.92
203.661	64.85
203.879	-80.55
204.098	52.56
204.317	42.32
204.536	9.56
204.755	36.18
204.974	56.66
205.193	-0.68
205.411	13.65
205.63	62.8
205.849	60.76
206.068	42.32
206.287	11.61
206.505	54.61
206.724	3.41
206.943	50.52
207.162	52.56
207.381	-8.87
207.599	9.56
207.818	23.89
208.037	66.9
208.255	-53.93
208.474	-33.45
208.693	9.56
208.911	-8.87
209.13	11.61
209.349	97.62
209.567	54.61
209.786	17.75
210.005	-41.64
210.223	77.14
210.442	-51.88
210.661	-45.74
210.879	-37.55
211.098	5.46
211.316	-15.02
211.535	21.84
211.753	5.46
211.972	-29.35
212.191	-25.26
212.409	7.51
212.628	1.37
212.846	7.51
213.065	-39.59
213.283	23.89
213.502	-60.07
213.72	7.51
213.938	-29.35
214.157	13.65
214.375	71
214.594	15.7
214.812	-37.55
215.031	-33.45
215.249	-25.26
215.467	5.46
215.686	13.65
215.904	27.99
216.122	25.94
216.341	27.99
216.559	-15.02
216.778	9.56
216.996	19.8
217.214	30.04
217.432	-68.27
217.651	-31.4
217.869	-107.18
218.087	-10.92
218.306	-2.73
218.524	9.56
218.742	7.51
218.96	-37.55
219.179	17.75
219.397	7.51
219.615	11.61
219.833	-68.27
220.051	52.56
220.27	-17.07
220.488	3.41
220.706	32.08
220.924	-37.55
221.142	75.09
221.36	-17.07
221.578	-37.55
221.796	13.65
222.015	3.41
222.233	-23.21
222.451	23.89
222.669	15.7
222.887	38.23
223.105	-47.79
223.323	32.08
223.541	-62.12
223.759	30.04
223.977	36.18
224.195	87.38
224.413	1.37
224.631	19.8
224.849	11.61
225.067	3.41
225.285	56.66
225.503	-43.69
225.721	-55.98
225.939	1.37
226.157	27.99
226.375	36.18
226.592	-55.98
226.81	40.28
227.028	-60.07
227.246	83.28
227.464	-68.27
227.682	-4.78
227.9	11.61
228.117	-41.64
228.335	36.18
228.553	9.56
228.771	-2.73
228.989	30.04
229.206	-2.73
229.424	-146.09
229.642	7.51
229.86	-51.88
230.077	-8.87
230.295	-41.64
230.513	11.61
230.731	40.28
230.948	-2.73
231.166	46.42
231.384	1.37
231.601	-2.73
231.819	93.52
232.037	-96.94
232.254	19.8
232.472	15.7
232.689	7.51
232.907	-8.87
233.125	-23.21
233.342	32.08
233.56	-8.87
233.777	-0.68
233.995	-53.93
234.213	-43.69
234.43	36.18
234.648	-15.02
234.865	7.51
235.083	-27.31
235.3	5.46
235.518	15.7
235.735	56.66
235.953	40.28
236.17	-62.12
236.388	52.56
236.605	75.09
236.822	75.09
237.04	25.94
237.257	-23.21
237.475	-21.16
237.692	-12.97
237.909	5.46
238.127	30.04
238.344	-37.55
238.562	-27.31
238.779	17.75
238.996	-0.68
239.214	15.7
239.431	-0.68
239.648	-35.5
239.865	9.56
240.083	-43.69
240.3	-2.73
240.517	17.75
240.735	-15.02
240.952	3.41
241.169	101.72
241.386	40.28
241.603	23.89
241.821	-23.21
242.038	68.95
242.255	48.47
242.472	25.94
242.689	40.28
242.907	-31.4
243.124	11.61
243.341	13.65
243.558	-90.79
243.775	-10.92
243.992	64.85
244.209	56.66
244.426	34.13
244.643	-15.02
244.86	-33.45
245.078	-33.45
245.295	-25.26
245.512	46.42
245.729	-43.69
245.946	-49.83
246.163	7.51
246.38	42.32
246.597	-6.83
246.814	-6.83
247.031	-10.92
247.248	11.61
247.464	87.38
247.681	40.28
247.898	1.37
248.115	-39.59
248.332	-39.59
248.549	-25.26
248.766	42.32
248.983	36.18
249.2	-0.68
249.417	-35.5
249.633	-39.59
249.85	58.71
250.067	36.18
250.284	19.8
250.501	79.19
250.717	-15.02
250.934	34.13
251.151	5.46
251.368	-27.31
251.585	50.52
251.801	3.41
252.018	21.84
252.235	17.75
252.451	64.85
252.668	-10.92
252.885	60.76
253.102	13.65
253.318	23.89
253.535	7.51
253.752	-12.97
253.968	19.8
254.185	7.51
254.401	-23.21
254.618	19.8
254.835	-37.55
255.051	97.62
255.268	38.23
255.484	-12.97
255.701	11.61
255.917	23.89
256.134	5.46
256.351	73.04
256.567	-6.83
256.784	85.33
257	9.56
257.217	27.99
257.433	1.37
257.65	17.75
257.866	34.13
258.082	-2.73
258.299	13.65
258.515	27.99
258.732	-31.4
258.948	-2.73
259.165	-19.11
259.381	-47.79
259.597	-23.21
259.814	64.85
260.03	-45.74
260.246	-58.03
260.463	40.28
260.679	-10.92
260.895	34.13
261.112	-0.68
261.328	21.84
261.544	38.23
261.761	13.65
261.977	-8.87
262.193	15.7
262.409	25.94
262.626	64.85
262.842	111.96
263.058	56.66
263.274	17.75
263.49	23.89
263.707	-0.68
263.923	44.37
264.139	-25.26
264.355	-39.59
264.571	42.32
264.787	5.46
265.004	-37.55
265.22	23.89
265.436	40.28
265.652	11.61
265.868	93.52
266.084	-12.97
266.3	7.51
266.516	19.8
266.732	25.94
266.948	-35.5
267.164	-39.59
267.38	-27.31
267.596	17.75
267.812	-47.79
268.028	-23.21
268.244	-10.92
268.46	40.28
268.676	-33.45
268.892	-43.69
269.108	7.51
269.324	-82.6
269.54	-33.45
269.756	-6.83
269.972	-53.93
270.188	-43.69
270.403	23.89
270.619	3.41
270.835	30.04
271.051	46.42
271.267	42.32
271.483	-39.59
271.698	11.61
271.914	42.32
272.13	-12.97
272.346	5.46
272.562	-10.92
272.777	-31.4
272.993	34.13
273.209	19.8
273.425	21.84
273.64	7.51
273.856	58.71
274.072	-4.78
274.287	36.18
274.503	42.32
274.719	-19.11
274.934	1.37
275.15	-2.73
275.366	-10.92
275.581	-27.31
275.797	15.7
276.012	60.76
276.228	-2.73
276.444	-66.22
276.659	-17.07
276.875	38.23
277.09	40.28
277.306	17.75
277.521	40.28
277.737	-15.02
277.952	99.67
278.168	25.94
278.383	7.51
278.599	-43.69
278.814	7.51
279.03	79.19
279.245	23.89
279.461	46.42
279.676	7.51
279.892	-21.16
280.107	66.9
280.322	75.09
280.538	40.28
280.753	-29.35
280.969	81.24
281.184	25.94
281.399	-6.83
281.615	23.89
281.83	21.84
282.045	36.18
282.26	-31.4
282.476	-51.88
282.691	21.84
282.906	5.46
283.122	85.33
283.337	1.37
283.552	64.85
283.767	-0.68
283.983	-21.16
284.198	36.18
284.413	-10.92
284.628	23.89
284.843	36.18
285.058	21.84
285.274	-47.79
285.489	-12.97
285.704	-10.92
285.919	30.04
286.134	118.1
286.349	21.84
286.564	27.99
286.779	21.84
286.995	-53.93
287.21	11.61
287.425	-6.83
287.64	-37.55
287.855	50.52
288.07	15.7
288.285	19.8
288.5	-23.21
288.715	7.51
288.93	-0.68
289.145	44.37
289.36	34.13
289.575	23.89
289.79	99.67
290.004	52.56
290.219	73.04
290.434	21.84
290.649	-33.45
290.864	-12.97
291.079	66.9
291.294	-21.16
291.509	-64.17
291.724	23.89
291.938	-0.68
292.153	46.42
292.368	-35.5
292.583	52.56
292.798	-29.35
293.012	23.89
293.227	-17.07
293.442	-17.07
293.657	66.9
293.871	15.7
294.086	-15.02
294.301	95.57
294.516	46.42
294.73	85.33
294.945	3.41
295.16	-37.55
295.374	-17.07
295.589	56.66
295.804	-17.07
296.018	48.47
296.233	32.08
296.447	1.37
296.662	-2.73
296.877	-12.97
297.091	1.37
297.306	21.84
297.52	-10.92
297.735	-0.68
297.949	17.75
298.164	-23.21
298.378	11.61
298.593	15.7
298.807	-33.45
299.022	15.7
299.236	9.56
299.451	-29.35
299.665	36.18
299.88	-39.59
300.094	23.89
300.309	-0.68
300.523	9.56
300.737	105.81
300.952	34.13
301.166	52.56
301.381	11.61
301.595	-33.45
301.809	-60.07
302.024	-23.21
302.238	38.23
302.452	21.84
302.667	48.47
302.881	-37.55
303.095	-60.07
303.309	17.75
303.524	-23.21
303.738	1.37
303.952	-8.87
304.166	30.04
304.381	-55.98
304.595	40.28
304.809	17.75
305.023	30.04
305.237	-10.92
305.452	-19.11
305.666	-35.5
305.88	40.28
306.094	21.84
306.308	-4.78
306.522	-29.35
306.736	-39.59
306.95	56.66
307.164	30.04
307.379	36.18
307.593	50.52
307.807	-82.6
308.021	-39.59
308.235	-80.55
308.449	56.66
308.663	-66.22
308.877	62.8
309.091	21.84
309.305	-25.26
309.519	5.46
309.733	50.52
309.947	-47.79
310.161	32.08
310.374	-25.26
310.588	46.42
310.802	13.65
311.016	-0.68
311.23	7.51
311.444	-23.21
311.658	-23.21
311.872	30.04
312.085	11.61
312.299	40.28
312.513	32.08
312.727	-10.92
312.941	-15.02
313.154	19.8
313.368	-8.87
313.582	-96.94
313.796	-2.73
314.009	79.19
314.223	-4.78
314.437	56.66
314.651	-12.97
314.864	25.94
315.078	11.61
315.292	60.76
315.505	-37.55
315.719	-19.11
315.933	-4.78
316.146	-21.16
316.36	9.56
316.573	38.23
316.787	-0.68
317.001	-17.07
317.214	73.04
317.428	42.32
317.641	34.13
317.855	-19.11
318.068	11.61
318.282	15.7
318.495	-0.68
318.709	-23.21
318.922	21.84
319.136	17.75
319.349	11.61
319.563	9.56
319.776	-6.83
319.99	23.89
320.203	32.08
320.417	-70.31
320.63	-43.69
320.843	-4.78
321.057	52.56
321.27	36.18
321.483	23.89
321.697	42.32
321.91	44.37
322.124	15.7
322.337	-29.35
322.55	-6.83
322.763	79.19
322.977	54.61
323.19	64.85
323.403	-33.45
323.617	-10.92
323.83	56.66
324.043	71
324.256	32.08
324.469	7.51
324.683	21.84
324.896	17.75
325.109	38.23
325.322	-98.99
325.535	-68.27
325.748	-60.07
325.962	-29.35
326.175	5.46
326.388	38.23
326.601	21.84
326.814	36.18
327.027	46.42
327.24	75.09
327.453	11.61
327.666	-8.87
327.879	-51.88
328.092	36.18
328.305	30.04
328.518	19.8
328.731	44.37
328.944	58.71
329.157	30.04
329.37	-27.31
329.583	40.28
329.796	-27.31
330.009	44.37
330.222	71
330.435	42.32
330.648	-25.26
330.861	-47.79
331.073	-15.02
331.286	-47.79
331.499	105.81
331.712	-25.26
331.925	13.65
332.138	36.18
332.35	66.9
332.563	-49.83
332.776	13.65
332.989	38.23
333.202	-21.16
333.414	21.84
333.627	-19.11
333.84	-8.87
334.053	-31.4
334.265	7.51
334.478	40.28
334.691	-66.22
334.903	105.81
335.116	19.8
335.329	46.42
335.541	21.84
335.754	38.23
335.966	-0.68
336.179	48.47
336.392	23.89
336.604	-12.97
336.817	-10.92
337.029	-25.26
337.242	1.37
337.454	32.08
337.667	21.84
337.88	-2.73
338.092	-35.5
338.305	23.89
338.517	-0.68
338.729	21.84
338.942	-47.79
339.154	15.7
339.367	56.66
339.579	38.23
339.792	17.75
340.004	66.9
340.217	48.47
340.429	-8.87
340.641	111.96
340.854	3.41
341.066	21.84
341.278	23.89
341.491	-21.16
341.703	-51.88
341.915	-12.97
342.128	-47.79
342.34	23.89
342.552	23.89
342.764	11.61
342.977	-19.11
343.189	-33.45
343.401	13.65
343.613	-31.4
343.826	-19.11
344.038	44.37
344.25	46.42
344.462	-58.03
344.674	-8.87
344.886	83.28
345.099	71
345.311	50.52
345.523	38.23
345.735	13.65
345.947	44.37
346.159	5.46
346.371	52.56
346.583	50.52
346.795	32.08
347.007	23.89
347.219	5.46
347.431	71
347.643	23.89
347.855	36.18
348.067	60.76
348.279	-2.73
348.491	7.51
348.703	34.13
348.915	-15.02
349.127	-4.78
349.339	-8.87
349.551	5.46
349.763	5.46
349.975	-12.97
350.187	89.43
350.399	7.51
350.61	101.72
350.822	27.99
351.034	21.84
351.246	71
351.458	66.9
351.669	-37.55
351.881	-31.4
352.093	-23.21
352.305	60.76
352.517	62.8
352.728	27.99
352.94	-29.35
353.152	19.8
353.363	-2.73
353.575	30.04
353.787	-51.88
353.999	-49.83
354.21	5.46
354.422	-23.21
354.633	-35.5
354.845	71
355.057	38.23
355.268	-19.11
355.48	9.56
355.692	34.13
355.903	1.37
356.115	7.51
356.326	-2.73
356.538	75.09
356.749	52.56
356.961	30.04
357.172	34.13
357.384	-19.11
357.595	64.85
357.807	1.37
358.018	-19.11
358.23	19.8
358.441	85.33
358.653	40.28
358.864	27.99
359.075	97.62
359.287	-25.26
359.498	38.23
359.709	48.47
359.921	-49.83
360.132	17.75
360.344	75.09
360.555	-21.16
360.766	17.75
360.977	64.85
361.189	73.04
361.4	25.94
361.611	13.65
361.823	-17.07
362.034	38.23
362.245	-74.41
362.456	11.61
362.667	7.51
362.879	23.89
363.09	5.46
363.301	-8.87
363.512	1.37
363.723	21.84
363.935	13.65
364.146	11.61
364.357	38.23
364.568	-19.11
364.779	48.47
364.99	30.04
365.201	25.94
365.412	83.28
365.623	-31.4
365.834	50.52
366.045	-31.4
366.256	54.61
366.467	64.85
366.678	-12.97
366.889	27.99
367.1	58.71
367.311	32.08
367.522	56.66
367.733	36.18
367.944	-8.87
368.155	23.89
368.366	50.52
368.577	60.76
368.788	-8.87
368.999	38.23
369.209	5.46
369.42	42.32
369.631	73.04
369.842	-17.07
370.053	-78.51
370.264	56.66
370.474	25.94
370.685	-60.07
370.896	-35.5
371.107	19.8
371.317	-4.78
371.528	25.94
371.739	25.94
371.95	75.09
372.16	60.76
372.371	27.99
372.582	95.57
372.792	-41.64
373.003	46.42
373.214	56.66
373.424	36.18
373.635	44.37
373.846	17.75
374.056	50.52
374.267	34.13
374.477	11.61
374.688	-2.73
374.898	-12.97
375.109	36.18
375.319	32.08
375.53	73.04
375.74	-8.87
375.951	-17.07
376.161	36.18
376.372	30.04
376.582	9.56
376.793	30.04
377.003	-12.97
377.214	48.47
377.424	-10.92
377.635	5.46
377.845	-12.97
378.055	-23.21
378.266	23.89
378.476	-15.02
378.686	83.28
378.897	89.43
379.107	-2.73
379.317	1.37
379.528	-70.31
379.738	9.56
379.948	-72.36
380.158	-2.73
380.369	58.71
380.579	13.65
380.789	-35.5
380.999	87.38
381.21	9.56
381.42	34.13
381.63	5.46
381.84	68.95
382.05	25.94
382.261	50.52
382.471	83.28
382.681	60.76
382.891	71
383.101	32.08
383.311	-60.07
383.521	40.28
383.731	21.84
383.941	54.61
384.151	7.51
384.361	50.52
384.571	-23.21
384.781	-6.83
384.991	66.9
385.201	38.23
385.411	30.04
385.621	36.18
385.831	-37.55
386.041	81.24
386.251	25.94
386.461	68.95
386.671	17.75
386.881	-2.73
387.091	13.65
387.301	52.56
387.511	-10.92
387.72	73.04
387.93	81.24
388.14	68.95
388.35	-19.11
388.56	5.46
388.769	46.42
388.979	21.84
389.189	40.28
389.399	-17.07
389.609	-31.4
389.818	58.71
390.028	30.04
390.238	-4.78
390.447	21.84
390.657	54.61
390.867	71
391.076	-21.16
391.286	58.71
391.496	30.04
391.705	-2.73
391.915	66.9
392.125	46.42
392.334	13.65
392.544	114
392.753	79.19
392.963	-70.31
393.172	46.42
393.382	40.28
393.591	30.04
393.801	21.84
394.01	48.47
394.22	73.04
394.429	50.52
394.639	118.1
394.848	64.85
395.058	1.37
395.267	36.18
395.477	1.37
395.686	30.04
395.895	73.04
396.105	60.76
396.314	-10.92
396.524	79.19
396.733	3.41
396.942	111.96
397.152	9.56
397.361	103.76
397.57	48.47
397.78	71
397.989	64.85
398.198	109.91
398.407	30.04
398.617	36.18
398.826	56.66
399.035	66.9
399.244	77.14
399.453	87.38
399.663	103.76
399.872	79.19
400.081	-2.73
400.29	87.38
400.499	105.81
400.708	107.86
400.917	-2.73
401.127	-25.26
401.336	54.61
401.545	79.19
401.754	68.95
401.963	38.23
402.172	85.33
402.381	3.41
402.59	75.09
402.799	5.46
403.008	132.44
403.217	132.44
403.426	17.75
403.635	48.47
403.844	89.43
404.053	89.43
404.262	99.67
404.471	81.24
404.68	91.48
404.888	44.37
405.097	75.09
405.306	116.05
405.515	93.52
405.724	126.29
405.933	111.96
406.142	73.04
406.35	83.28
406.559	134.48
406.768	38.23
406.977	136.53
407.185	50.52
407.394	130.39
407.603	93.52
407.812	36.18
408.02	132.44
408.229	97.62
408.438	177.49
408.646	118.1
408.855	95.57
409.064	64.85
409.272	124.24
409.481	191.83
409.69	136.53
409.898	210.26
410.107	154.96
410.315	167.25
410.524	212.31
410.733	128.34
410.941	175.44
411.15	167.25
411.358	175.44
411.567	261.46
411.775	169.3
411.984	238.93
412.192	216.4
412.401	304.46
412.609	234.83
412.818	333.14
413.026	261.46
413.234	249.17
413.443	333.14
413.651	279.89
413.86	355.66
414.068	374.1
414.276	300.37
414.485	286.03
414.693	304.46
414.901	488.78
415.11	437.58
415.318	345.42
415.526	415.05
415.734	433.49
415.943	458.06
416.151	464.21
416.359	390.48
416.567	468.3
416.776	441.68
416.984	593.23
417.192	537.93
417.4	499.02
417.608	507.21
417.817	574.8
418.025	642.38
418.233	642.38
418.441	630.09
418.649	662.86
418.857	765.26
419.065	752.97
419.273	695.63
419.481	791.88
419.689	720.2
419.897	744.78
420.105	828.74
420.313	896.33
420.521	869.7
420.729	916.81
420.937	892.23
421.145	972.1
421.353	961.86
421.561	1142.08
421.769	1078.6
421.977	1168.71
422.185	1121.6
422.393	1267.01
422.601	1312.07
422.809	1226.05
423.017	1248.58
423.224	1301.83
423.432	1400.13
423.64	1316.16
423.848	1508.67
424.056	1457.47
424.263	1572.16
424.471	1613.12
424.679	1563.97
424.887	1631.55
425.094	1674.56
425.302	1740.09
425.51	1846.59
425.718	1854.78
425.925	1871.16
426.133	1924.41
426.341	2049.33
426.548	2137.4
426.756	2196.79
426.964	2219.32
427.171	2290.99
427.379	2379.06
427.586	2493.74
427.794	2610.48
428.001	2641.2
428.209	2749.74
428.417	2680.11
428.624	2909.48
428.832	2927.91
429.039	2938.15
429.247	2848.04
429.454	3159.33
429.662	3347.75
429.869	3134.76
430.076	3265.83
430.284	3241.25
430.491	3489.06
430.699	3663.13
430.906	3622.17
431.114	3609.89
431.321	3792.16
431.528	3798.3
431.736	4125.97
431.943	4357.39
432.15	4132.12
432.358	4271.38
432.565	4394.26
432.772	4508.94
432.979	4713.74
433.187	4801.8
433.394	4883.72
433.601	5248.26
433.808	5014.79
434.016	5119.24
434.223	5391.62
434.43	5848.32
434.637	5436.67
434.844	5876.99
435.052	5963
435.259	5893.37
435.466	6016.25
435.673	6046.97
435.88	6378.74
436.087	6681.84
436.294	6642.93
436.501	6587.63
436.708	6745.33
436.915	7062.76
437.122	7107.82
437.329	7214.31
437.537	7494.88
437.743	7533.79
437.95	7656.67
438.157	7877.85
438.364	8307.93
438.571	8236.25
438.778	8363.22
438.985	9123.02
439.192	8742.1
439.399	8828.11
439.606	8809.68
439.813	9092.3
440.02	9671.87
440.227	9532.61
440.433	9401.54
440.64	10054.84
440.847	9829.57
441.054	10200.25
441.261	10599.6
441.467	10570.93
441.674	10783.92
441.881	11044.01
442.088	11087.02
442.294	11005.1
442.501	11134.12
442.708	11527.33
442.914	11941.02
443.121	12522.65
443.328	12176.54
443.534	13051.02
443.741	12747.92
443.948	12510.36
444.154	13616.26
444.361	13497.48
444.568	13575.3
444.774	13552.77
444.981	13624.45
445.187	14029.95
445.394	14783.6
445.6	14480.5
445.807	16043.1
446.013	15135.85
446.22	15412.33
446.426	16039.01
446.633	16208.99
446.839	16915.54
447.046	16143.45
447.252	17437.77
447.459	17202.25
447.665	16852.05
447.871	17835.08
448.078	18519.1
448.284	17691.72
448.491	18095.17
448.697	18631.74
448.903	19344.43
449.11	19231.79
449.316	18988.08
449.522	19137.59
449.728	19825.7
449.935	19917.86
450.141	19850.28
450.347	20511.77
450.553	19868.71
450.76	20053.03
450.966	20851.74
451.172	20605.98
451.378	20952.09
451.584	20698.14
451.791	21038.1
451.997	20976.66
452.203	21523.47
452.409	21369.87
452.615	21183.51
452.821	20519.96
453.027	20497.44
453.233	21185.55
453.44	20741.14
453.646	20689.95
453.852	20859.93
454.058	21185.55
454.264	20456.48
454.47	21197.84
454.676	20634.65
454.882	21437.45
455.088	19690.54
455.294	19395.63
455.5	19844.13
455.705	20245.54
455.911	19547.18
456.117	18797.62
456.323	18848.82
456.529	18119.74
456.735	18652.22
456.941	18297.92
457.147	17847.36
457.352	17312.85
457.558	17081.42
457.764	16956.5
457.97	16774.23
458.176	16624.73
458.381	16571.48
458.587	15524.97
458.793	15768.68
458.999	14791.8
459.204	15899.75
459.41	15539.3
459.616	14513.27
459.821	14673.01
460.027	14560.38
460.233	14115.97
460.438	13624.45
460.644	13741.19
460.85	12956.82
461.055	12747.92
461.261	13065.36
461.466	12092.57
461.672	11416.74
461.878	12416.15
462.083	11752.61
462.289	11553.96
462.494	11164.84
462.7	10796.21
462.905	10605.75
463.111	10955.95
463.316	10943.66
463.522	10681.52
463.727	10755.25
463.932	10605.75
464.138	10421.43
464.343	10724.53
464.549	10263.74
464.754	10568.88
464.959	10482.87
465.165	10529.97
465.37	10024.12
465.575	9702.59
465.781	10210.49
465.986	10310.84
466.191	9876.67
466.397	9796.8
466.602	9192.65
466.807	9794.75
467.012	9503.94
467.218	9645.25
467.423	9667.78
467.628	9565.38
467.833	9915.58
468.038	9387.21
468.244	9399.49
468.449	9843.9
468.654	9419.97
468.859	9241.8
469.064	9340.1
469.269	8940.75
469.474	8873.17
469.679	9188.55
469.885	8891.6
470.09	9041.1
470.295	9059.53
470.5	8776.91
470.705	8740.05
470.91	8654.03
471.115	8582.35
471.32	8815.82
471.525	8590.55
471.73	8453.33
471.935	8336.6
472.139	8072.41
472.344	8129.75
472.549	8156.38
472.754	8037.59
472.959	7908.57
473.164	7838.94
473.369	7548.13
473.574	7812.32
473.778	7687.39
473.983	7451.88
474.188	7728.35
474.393	7406.82
474.598	7402.72
474.802	7259.37
475.007	7163.11
475.212	7294.18
475.417	6825.2
475.621	6808.81
475.826	7120.1
476.031	6765.81
476.235	6872.3
476.44	6728.94
476.645	6784.24
476.849	6806.77
477.054	6474.99
477.259	6407.41
477.463	6511.86
477.668	6370.55
477.872	6388.98
478.077	6264.05
478.282	6163.7
478.486	5989.63
478.691	6034.68
478.895	6018.3
479.1	5965.05
479.304	5885.18
479.509	5668.09
479.713	5825.79
479.918	5864.7
480.122	5858.56
480.326	5895.42
480.531	5760.25
480.735	5915.9
480.94	5690.62
481.144	5926.14
481.348	5575.94
481.553	5639.42
481.757	5471.49
481.961	5606.66
482.166	5627.14
482.37	5588.22
482.574	5604.61
482.778	5623.04
482.983	5616.9
483.187	5553.41
483.391	5485.83
483.595	5580.03
483.8	5481.73
484.004	5543.17
484.208	5577.98
484.412	5532.93
484.616	5610.75
484.821	5649.66
485.025	5350.66
485.229	5727.49
485.433	5512.45
485.637	5616.9
485.841	5543.17
486.045	5668.09
486.249	5635.33
486.453	5465.35
486.657	5455.11
486.861	5580.03
487.065	5532.93
487.269	5592.32
487.473	5563.65
487.677	5522.69
487.881	5731.58
488.085	5614.85
488.289	5764.35
488.493	5684.48
488.697	5694.72
488.901	5846.27
489.105	5825.79
489.309	5823.74
489.512	5848.32
489.716	5721.34
489.92	5971.19
490.124	5782.78
490.328	5952.76
490.531	5922.04
490.735	5872.89
490.939	5852.41
491.143	5827.84
491.346	5874.94
491.55	6120.7
491.754	6120.7
491.958	6014.2
492.161	6008.06
492.365	5952.76
492.569	6053.11
492.772	6079.74
492.976	6235.38
493.18	6241.53
493.383	6270.2
493.587	6536.43
493.79	6546.67
493.994	6376.69
494.197	6452.47
494.401	6427.89
494.605	6642.93
494.808	6778.09
495.012	6581.49
495.215	6737.13
495.419	6827.25
495.622	6993.13
495.825	6958.32
496.029	6960.36
496.232	7171.3
496.436	7118.06
496.639	7285.99
496.843	7222.5
497.046	7288.04
497.249	7423.2
497.453	7552.23
497.656	7472.36
497.859	7576.8
498.063	7584.99
498.266	7847.13
498.469	7822.56
498.673	8178.9
498.876	8195.29
499.079	8223.96
499.282	8373.46
499.485	8754.38
499.689	8557.78
499.892	8627.41
500.095	8543.44
500.298	8924.37
500.501	8760.53
500.705	9051.34
500.908	9102.54
501.111	9485.51
501.314	9516.23
501.517	9649.35
501.72	9516.23
501.923	9675.97
502.126	10048.7
502.329	10124.47
502.532	10263.74
502.735	10247.35
502.938	10517.68
503.141	10634.42
503.344	10839.22
503.547	10804.4
503.75	10763.44
503.953	11297.96
504.156	11177.13
504.359	11332.78
504.562	11562.15
504.765	11879.58
504.968	11832.48
505.17	11981.98
505.373	12162.2
505.576	12573.85
505.779	12582.04
505.982	12579.99
506.185	12833.94
506.387	12950.67
506.59	13085.84
506.793	13399.18
506.996	13204.62
507.198	13632.65
507.401	13583.49
507.604	13776
507.807	14263.42
508.009	14371.96
508.212	14435.45
508.415	14621.81
508.617	15058.03
508.82	15127.66
509.022	14951.54
509.225	15330.41
509.428	15725.67
509.63	15692.9
509.833	15850.6
510.035	16254.05
510.238	16325.72
510.44	16512.09
510.643	16825.43
510.845	16774.23
511.048	16833.62
511.25	17259.6
511.453	17392.72
511.655	17759.3
511.858	17771.59
512.06	17992.77
512.262	18162.75
512.465	18158.66
512.667	18627.64
512.87	18666.55
513.072	18938.93
513.274	19285.04
513.477	19522.6
513.679	19700.78
513.881	20065.32
514.084	20077.6
514.286	20020.26
514.488	20485.15
514.69	20794.39
514.893	20864.02
515.095	21001.24
515.297	21175.31
515.499	21644.3
515.701	21828.62
515.904	22133.76
516.106	22289.41
516.308	22502.4
516.51	22737.91
516.712	22782.97
516.914	23219.19
517.116	23407.6
517.318	23501.81
517.52	23745.51
517.722	23722.99
517.925	23886.82
518.127	24368.1
518.329	24540.13
518.531	24826.84
518.733	25144.28
518.935	25019.35
519.136	25457.62
519.338	25775.05
519.54	26106.82
519.742	26319.81
519.944	26289.09
520.146	26690.49
520.348	26661.82
520.55	26811.32
520.752	27225.01
520.954	27454.39
521.155	27579.31
521.357	27990.95
521.559	28122.02
521.761	28703.65
521.963	28521.38
522.164	28566.43
522.366	28838.81
522.568	28894.11
522.77	29318.04
522.971	29643.66
523.173	29586.32
523.375	29524.88
523.576	29715.34
523.778	29885.33
523.98	30557.06
524.181	30415.75
524.383	30280.58
524.584	31191.93
524.786	31052.67
524.988	30897.02
525.189	31173.5
525.391	31531.89
525.592	31832.94
525.794	32000.88
525.995	32105.32
526.197	32062.32
526.398	31966.06
526.6	32623.46
526.801	32789.35
527.003	33074.01
527.204	32695.14
527.406	33239.9
527.607	33135.45
527.808	33358.68
528.01	32588.64
528.211	33389.4
528.412	33837.9
528.614	33434.46
528.815	33477.46
529.016	34063.18
529.218	33821.52
529.419	34036.56
529.62	33999.69
529.822	34020.17
530.023	33829.71
530.224	34304.84
530.425	34448.2
530.626	34437.96
530.828	34081.61
531.029	34935.62
531.23	34483.02
531.431	34259.79
531.632	34777.92
531.833	34986.82
532.035	34906.94
532.236	34931.52
532.437	35156.8
532.638	35162.94
532.839	35535.67
533.04	35316.54
533.241	35078.97
533.442	35771.19
533.643	35248.96
533.844	35124.03
534.045	35951.41
534.246	35060.54
534.447	36117.29
534.648	35296.06
534.849	35658.55
535.05	35347.26
535.251	35670.84
535.451	35633.97
535.652	36191.02
535.853	35414.84
536.054	36223.79
536.255	36062
536.456	35556.15
536.657	36348.71
536.857	36225.84
537.058	36031.28
537.259	36430.63
537.46	36277.04
537.66	36463.4
537.861	36240.17
538.062	36387.63
538.263	35937.07
538.463	35980.08
538.664	35916.59
538.865	36487.98
539.065	35992.37
539.266	35760.95
539.466	36516.65
539.667	35906.35
539.868	36641.57
540.068	36397.87
540.269	36426.54
540.469	36793.12
540.67	36318
540.87	36225.84
541.071	36557.61
541.271	36451.11
541.472	36274.99
541.672	36350.76
541.873	36297.52
542.073	35926.83
542.274	36500.26
542.474	36211.5
542.675	35844.91
542.875	36696.87
543.075	36387.63
543.276	35984.18
543.476	36856.61
543.676	36197.17
543.877	36477.74
544.077	36653.86
544.277	36412.2
544.478	36420.39
544.678	36897.57
544.878	36404.01
545.078	36766.5
545.279	36676.39
545.479	36406.06
545.679	36645.67
545.879	36514.6
546.079	36850.47
546.28	36430.63
546.48	36594.47
546.68	36490.02
546.88	36686.63
547.08	36592.42
547.28	36772.64
547.48	36453.16
547.68	36657.96
547.88	36457.26
548.081	37081.89
548.281	36602.66
548.481	36502.31
548.681	36805.41
548.881	36825.89
549.081	36676.39
549.28	36354.86
549.48	36868.9
549.68	36748.07
549.88	37159.71
550.08	36766.5
550.28	36635.43
550.48	36621.09
550.68	36600.61
550.88	36444.97
551.08	36651.81
551.279	36836.13
551.479	36303.66
551.679	36700.97
551.879	36959.01
552.079	37208.86
552.278	36686.63
552.478	36420.39
552.678	36647.72
552.878	36838.18
553.077	36602.66
553.277	36391.72
553.477	36647.72
553.676	36494.12
553.876	36643.62
554.076	36326.19
554.275	36416.3
554.475	36512.55
554.674	36942.63
554.874	36696.87
555.074	36340.52
555.273	36608.81
555.473	36401.96
555.672	36311.85
555.872	36336.43
556.071	36428.59
556.271	36973.35
556.47	35961.65
556.67	36557.61
556.869	36320.04
557.068	36565.8
557.268	36436.78
557.467	36418.35
557.667	36408.11
557.866	36225.84
558.065	35939.12
558.265	36436.78
558.464	35660.6
558.663	36666.15
558.863	35951.41
559.062	36221.74
559.261	36279.08
559.461	36649.77
559.66	35887.92
559.859	36047.66
560.058	36141.87
560.258	36365.1
560.457	35676.98
560.656	36268.84
560.855	36154.16
561.054	35988.27
561.253	35533.62
561.453	36039.47
561.652	36213.55
561.851	36481.83
562.05	35722.04
562.249	35726.13
562.448	36133.68
562.647	35830.58
562.846	35810.1
563.045	36068.14
563.244	35609.4
563.443	36016.94
563.642	35605.3
563.841	35658.55
564.04	35844.91
564.239	36088.62
564.438	35371.83
564.637	35496.76
564.836	36033.33
565.035	35994.42
565.234	35965.74
565.432	35414.84
565.631	35781.43
565.83	35638.07
566.029	35552.05
566.228	35431.22
566.427	35775.28
566.625	35400.51
566.824	35169.08
567.023	35488.57
567.222	34878.27
567.42	35537.72
567.619	35672.89
567.818	34898.75
568.016	34913.09
568.215	35306.3
568.414	35384.12
568.612	35302.2
568.811	34806.59
569.01	35183.42
569.208	35050.3
569.407	34949.95
569.605	34556.74
569.804	34751.3
570.002	34583.37
570.201	34837.31
570.4	34976.58
570.598	34779.97
570.797	34702.15
570.995	34448.2
571.193	34466.63
571.392	34665.28
571.59	34167.63
571.789	34659.14
571.987	34321.23
572.186	34247.5
572.384	34349.9
572.582	34618.18
572.781	34495.3
572.979	33780.56
573.177	34327.37
573.376	34198.35
573.574	33743.7
573.772	33903.44
573.971	33993.55
574.169	33622.87
574.367	33698.64
574.565	33815.38
574.763	33485.65
574.962	33604.44
575.16	33131.36
575.358	33586
575.556	33006.43
575.754	33583.96
575.952	33291.1
576.151	33250.14
576.349	33051.49
576.547	32742.24
576.745	32938.85
576.943	33133.4
577.141	33162.08
577.339	32623.46
577.537	32670.56
577.735	32854.88
577.933	32596.84
578.131	32553.83
578.329	32365.42
578.527	32398.18
578.725	32467.81
578.923	32562.02
579.121	32265.06
579.319	32148.33
579.516	32306.02
579.714	32123.76
579.912	31974.25
580.11	31781.74
580.308	32252.78
580.506	31837.04
580.704	31148.92
580.901	31923.05
581.099	32123.76
581.297	31576.95
581.495	31396.73
581.692	31574.9
581.89	31153.02
582.088	31650.67
582.285	31214.46
582.483	31275.9
582.681	31359.86
582.878	30976.89
583.076	30804.86
583.274	31019.9
583.471	30653.31
583.669	31312.76
583.866	30518.15
584.064	30813.06
584.262	30253.96
584.459	30382.98
584.657	30274.44
584.854	30595.97
585.052	30043.02
585.249	30311.3
585.447	30376.84
585.644	29948.81
585.841	30010.25
586.039	29963.15
586.236	29787.02
586.434	29821.84
586.631	29633.43
586.828	29684.62
587.026	29668.24
587.223	29451.16
587.42	29496.21
587.618	29506.45
587.815	29174.68
588.012	28947.36
588.21	29209.5
588.407	29352.85
588.604	28765.09
588.801	28461.99
588.999	28824.48
589.196	28691.36
589.393	28685.22
589.59	28375.97
589.787	28703.65
589.984	28629.92
590.182	28195.75
590.379	28552.1
590.576	28113.83
590.773	28519.33
590.97	28271.53
591.167	28255.14
591.364	28081.06
591.561	27833.26
591.758	27597.74
591.955	27704.24
592.152	27927.47
592.349	27300.79
592.546	27870.12
592.743	27558.83
592.94	27087.8
593.137	27231.16
593.334	27784.11
593.531	26774.46
593.727	27214.77
593.924	27098.04
594.121	26913.72
594.318	26928.06
594.515	26561.47
594.712	26569.66
594.908	26375.11
595.105	26522.56
595.302	26549.18
595.499	26680.25
595.696	26649.53
595.892	26336.2
596.089	26217.41
596.286	26532.8
596.482	25988.04
596.679	25873.35
596.876	26473.41
597.072	25992.14
597.269	25588.69
597.466	25625.55
597.662	25492.43
597.859	25811.92
598.055	25885.64
598.252	25332.69
598.448	25465.81
598.645	25293.78
598.841	25072.6
599.038	25101.27
599.234	25299.92
599.431	24656.86
599.627	25043.93
599.824	24910.81
600.02	24558.56
600.217	24636.38
600.413	24796.12
600.609	24390.63
600.806	24316.9
601.002	24632.29
601.198	24132.58
601.395	24388.58
601.591	23933.93
601.787	24101.86
601.984	23956.46
602.18	24302.56
602.376	24212.45
602.572	23702.51
602.769	23858.15
602.965	23546.86
603.161	23712.75
603.357	23630.83
603.553	23473.14
603.75	23462.9
603.946	23303.15
604.142	23346.16
604.338	22873.08
604.534	23309.3
604.73	23051.25
604.926	22891.51
605.122	23163.89
605.318	23167.99
605.514	22891.51
605.71	22518.78
605.906	22418.43
606.102	22584.32
606.298	22686.72
606.494	22473.73
606.69	22381.57
606.886	22725.63
607.082	22127.62
607.278	22383.62
607.474	21937.16
607.67	21990.41
607.866	21974.02
608.062	22080.52
608.257	21998.6
608.453	21873.67
608.649	22125.57
608.845	21906.44
609.041	21832.71
609.236	21795.85
609.432	21687.31
609.628	21761.03
609.824	21849.1
610.019	21619.72
610.215	21496.85
610.411	21529.61
610.606	21292.05
610.802	21287.95
610.998	21396.49
611.193	21283.86
611.389	21361.68
611.584	21398.54
611.78	21066.77
611.976	21439.5
612.171	20970.52
612.367	21023.76
612.562	20915.22
612.758	20929.56
612.953	20704.28
613.149	21148.69
613.344	20438.05
613.539	20956.18
613.735	20827.16
613.93	20591.64
614.126	20751.38
614.321	20876.31
614.517	20567.07
614.712	20708.38
614.907	20274.21
615.103	20540.44
615.298	20349.98
615.493	20468.76
615.688	19913.77
615.884	20687.9
616.079	19860.52
616.274	20065.32
616.47	20165.67
616.665	20227.1
616.86	19985.44
617.055	20012.07
617.25	20005.92
617.445	20155.43
617.641	19698.73
617.836	19837.99
618.031	19375.15
618.226	19844.13
618.421	19586.09
618.616	19694.63
618.811	19244.08
619.006	19684.39
619.201	19293.23
619.396	19434.54
619.591	19002.42
619.786	19153.97
619.981	18734.14
620.176	18805.81
620.371	18662.46
620.566	18725.94
620.761	18693.18
620.956	18762.81
621.151	18187.33
621.346	18086.98
621.541	18064.45
621.735	18496.57
621.93	17941.57
622.125	18064.45
622.32	18150.46
622.515	17902.66
622.709	17939.52
622.904	17669.19
623.099	17742.92
623.294	17468.49
623.488	17378.38
623.683	17454.15
623.878	17200.21
624.072	17122.38
624.267	17175.63
624.462	17144.91
624.656	17116.24
624.851	16714.84
625.046	16761.94
625.24	16727.13
625.435	16446.55
625.629	16448.6
625.824	16243.81
626.018	16399.45
626.213	16020.58
626.407	16151.65
626.602	15881.31
626.796	16100.45
626.991	15944.8
627.185	15787.11
627.38	15592.55
627.574	15473.77
627.768	15570.02
627.963	15459.43
628.157	15264.88
628.352	15303.79
628.546	15098.99
628.74	15268.97
628.935	14969.97
629.129	15101.04
629.323	14965.87
629.517	14953.59
629.712	14697.59
629.906	14810.23
630.1	14513.27
630.294	14816.37
630.489	14435.45
630.683	14277.76
630.877	14271.61
631.071	14148.73
631.265	14464.12
631.459	14081.15
631.653	14017.66
631.848	13976.7
632.042	13724.8
632.236	13798.53
632.43	13722.76
632.624	13882.5
632.818	13489.29
633.012	13532.29
633.206	13431.94
633.4	13352.07
633.594	13503.62
633.788	13323.4
633.982	13042.83
634.176	13091.98
634.369	13036.69
634.563	12971.15
634.757	12731.54
634.951	12895.38
635.145	12821.65
635.339	12698.77
635.533	12749.97
635.726	12725.4
635.92	12616.85
636.114	12467.35
636.308	12500.12
636.501	12489.88
636.695	12350.62
636.889	12246.17
637.083	12182.68
637.276	12063.9
637.47	12117.15
637.664	11914.4
637.857	11986.08
638.051	11861.15
638.244	11812
638.438	11803.81
638.632	11682.98
638.825	11480.23
639.019	11472.04
639.212	11570.34
639.406	11263.15
639.599	11418.79
639.793	11437.22
639.986	11351.21
640.18	11140.27
640.373	11095.21
640.567	11003.05
640.76	10925.23
640.954	10824.88
641.147	11152.56
641.34	10859.7
641.534	10828.98
641.727	10656.95
641.92	10790.06
642.114	10607.8
642.307	10298.55
642.5	10284.22
642.694	10394.81
642.887	10175.67
643.08	10325.18
643.273	10075.32
643.467	10151.1
643.66	10032.32
643.853	9874.62
644.046	9974.97
644.239	9888.96
644.432	9848
644.626	9987.26
644.819	9745.6
645.012	9647.3
645.205	9618.63
645.398	9432.26
645.591	9379.01
645.784	9407.69
645.977	9225.42
646.17	9430.21
646.363	9278.66
646.556	8985.8
646.749	9014.48
646.942	9084.11
647.135	9045.2
647.328	9032.91
647.521	8926.41
647.714	8699.09
647.907	9004.24
648.099	8725.71
648.292	8821.97
648.485	8439
648.678	8697.04
648.871	8418.52
649.064	8525.01
649.256	8502.48
649.449	8254.68
649.642	8197.34
649.835	8266.97
650.027	8228.06
650.22	7970.01
650.413	8162.52
650.605	8006.88
650.798	8131.8
650.991	7898.33
651.183	7826.65
651.376	7986.4
651.568	7750.88
651.761	7685.34
651.954	7816.41
652.146	7609.57
652.339	7720.16
652.531	7638.24
652.724	7560.42
652.916	7447.78
653.109	7636.19
653.301	7478.5
653.494	7312.61
653.686	7316.71
653.879	7365.86
654.071	7132.39
654.263	7091.43
654.456	7175.4
654.648	7073
654.84	7113.96
655.033	7122.15
655.225	6970.6
655.417	6970.6
655.61	6919.4
655.802	6954.22
655.994	6839.53
656.186	6792.43
656.379	6653.17
656.571	6739.18
656.763	6468.85
656.955	6685.94
657.148	6550.77
657.34	6343.92
657.532	6403.32
657.724	6464.75
657.916	6298.87
658.108	6268.15
658.3	6157.56
658.492	6245.62
658.684	6249.72
658.876	6268.15
659.068	6243.57
659.26	5917.95
659.452	6386.93
659.644	6178.04
659.836	6055.16
660.028	6065.4
660.22	5868.8
660.412	5895.42
660.604	5750.01
660.796	5803.26
660.988	5690.62
661.18	5633.28
661.372	5651.71
661.563	5672.19
661.755	5477.63
661.947	5518.59
662.139	5436.67
662.331	5461.25
662.522	5299.46
662.714	5340.42
662.906	5158.15
663.097	5082.38
663.289	5115.14
663.481	5082.38
663.673	5188.87
663.864	4973.83
664.056	4957.45
664.247	5065.99
664.439	4914.44
664.631	5080.33
664.822	4994.31
665.014	4904.2
665.205	4760.84
665.397	4857.1
665.588	4928.78
665.78	4556.05
665.971	4683.02
666.163	4599.06
666.354	4670.73
666.546	4599.06
666.737	4470.03
666.929	4568.34
667.12	4652.3
667.311	4478.22
667.503	4377.87
667.694	4463.89
667.885	4330.77
668.077	4306.2
668.268	4388.11
668.459	4222.23
668.651	4341.01
668.842	4183.32
669.033	4097.3
669.224	3988.76
669.416	4060.44
669.607	4146.45
669.798	3980.57
669.989	4091.16
670.18	4048.15
670.371	4001.05
670.563	3970.33
670.754	3994.9
670.945	3999
671.136	3929.37
671.327	3837.21
671.518	3902.75
671.709	3859.74
671.9	3790.11
672.091	3796.25
672.282	3652.89
672.473	3745.05
672.664	3681.57
672.855	3577.12
673.046	3757.34
673.237	3648.8
673.428	3683.61
673.619	3663.13
673.809	3636.51
674	3495.2
674.191	3519.78
674.382	3482.91
674.573	3396.9
674.764	3437.86
674.954	3527.97
675.145	3466.53
675.336	3513.63
675.527	3548.45
675.717	3337.51
675.908	3353.89
676.099	3441.95
676.289	3405.09
676.48	3243.3
676.671	3312.93
676.861	3417.38
677.052	3239.2
677.243	3077.41
677.433	3224.87
677.624	3298.6
677.814	3142.95
678.005	3265.83
678.195	3296.55
678.386	3101.99
678.576	3173.67
678.767	3116.33
678.957	3079.46
679.148	3126.57
679.338	2919.72
679.529	3108.13
679.719	3058.98
679.909	3147.05
680.1	3124.52
680.29	3048.74
680.481	3079.46
680.671	3093.8
680.861	3024.17
681.052	3083.56
681.242	2921.77
681.432	3079.46
681.622	3005.74
681.813	2891.05
682.003	2989.35
682.193	2979.11
682.383	2940.2
682.573	2983.21
682.764	2843.95
682.954	2940.2
683.144	2934.06
683.334	2792.75
683.524	2970.92
683.714	2802.99
683.904	2956.58
684.094	2860.33
684.284	2882.86
684.474	2954.54
684.664	2915.62
684.854	2876.71
685.044	2848.04
685.234	2880.81
685.424	2858.28
685.614	2864.43
685.804	2792.75
685.994	2762.03
686.184	2903.34
686.374	2786.6
686.564	2909.48
686.753	2897.19
686.943	2884.91
687.133	2843.95
687.323	2790.7
687.513	2868.52
687.702	2977.06
687.892	2889
688.082	2805.03
688.272	2819.37
688.461	2741.55
688.651	2782.51
688.841	2682.16
689.03	2735.4
689.22	2862.38
689.41	2731.31
689.599	2958.63
689.789	2886.95
689.979	2778.41
690.168	2827.56
690.358	2745.64
690.547	2796.84
690.737	2802.99
690.926	2839.85
691.116	2833.71
691.305	2835.75
691.495	2688.3
691.684	2823.47
691.874	2790.7
692.063	2790.7
692.252	2684.2
692.442	2739.5
692.631	2723.12
692.82	2862.38
693.01	2800.94
693.199	2749.74
693.388	2731.31
693.578	2682.16
693.767	2817.32
693.956	2729.26
694.146	2745.64
694.335	2667.82
694.524	2567.47
694.713	2856.23
694.902	2676.01
695.092	2673.96
695.281	2657.58
695.47	2755.88
695.659	2700.59
695.848	2659.63
696.037	2669.87
696.226	2544.94
696.415	2618.67
696.604	2571.57
696.793	2592.05
696.982	2657.58
697.171	2522.41
697.36	2495.79
697.549	2622.77
697.738	2534.7
697.927	2491.7
698.116	2463.02
698.305	2553.13
698.494	2481.46
698.683	2489.65
698.872	2538.8
699.061	2432.3
699.25	2481.46
699.438	2499.89
699.627	2481.46
699.816	2473.26
700.005	2481.46
700.193	2471.22
700.382	2475.31
700.571	2393.39
700.76	2428.21
700.948	2526.51
701.137	2338.1
701.326	2293.04
701.514	2323.76
701.703	2368.82
701.892	2237.75
702.08	2407.73
702.269	2317.62
702.457	2430.26
702.646	2305.33
702.834	2331.95
703.023	2188.6
703.212	2307.38
703.4	2258.23
703.589	2254.13
703.777	2235.7
703.965	2149.68
704.154	2221.36
704.342	2084.15
704.531	2198.84
704.719	2106.68
704.907	2196.79
705.096	2143.54
705.284	2155.83
705.472	2260.27
705.661	2133.3
705.849	2092.34
706.037	2116.92
706.226	2153.78
706.414	2030.9
706.602	2020.66
706.79	2096.44
706.979	2098.49
707.167	2057.53
707.355	2073.91
707.543	1957.18
707.731	1957.18
707.919	2014.52
708.107	1985.85
708.296	1973.56
708.484	1996.09
708.672	1955.13
708.86	1934.65
709.048	2012.47
709.236	1938.74
709.424	1981.75
709.612	1832.25
709.8	2080.05
709.988	1951.03
710.176	1842.49
710.364	1801.53
710.551	1848.63
710.739	1836.35
710.927	1838.39
711.115	1799.48
711.303	1850.68
711.491	1905.98
711.679	1795.39
711.866	1797.43
712.054	1881.4
712.242	1752.38
712.43	1813.82
712.617	1789.24
712.805	1803.58
712.993	1754.43
713.181	1766.71
713.368	1799.48
713.556	1692.99
713.744	1615.16
713.931	1797.43
714.119	1711.42
714.306	1686.84
714.494	1731.9
714.682	1662.27
714.869	1776.95
715.057	1596.73
715.244	1621.31
715.432	1613.12
715.619	1619.26
715.807	1621.31
715.994	1545.53
716.182	1590.59
716.369	1609.02
716.556	1523.01
716.744	1635.64
716.931	1623.36
717.119	1535.29
717.306	1467.71
717.493	1439.04
717.681	1520.96
717.868	1480
718.055	1381.7
718.242	1498.43
718.43	1486.14
718.617	1467.71
718.804	1406.27
718.991	1379.65
719.179	1439.04
719.366	1488.19
719.553	1377.6
719.74	1398.08
719.927	1357.12
720.114	1396.03
720.301	1396.03
720.488	1404.22
720.676	1398.08
720.863	1312.07
721.05	1416.51
721.237	1256.77
721.424	1408.32
721.611	1359.17
721.798	1267.01
721.985	1361.22
722.172	1373.5
722.358	1273.15
722.545	1310.02
722.732	1252.67
722.919	1246.53
723.106	1289.54
723.293	1396.03
723.48	1236.29
723.667	1283.39
723.853	1234.24
724.04	1283.39
724.227	1205.57
724.414	1271.11
724.6	1250.63
724.787	1193.28
724.974	1205.57
725.161	1217.86
725.347	1160.52
725.534	1119.56
725.72	1181
725.907	1254.72
726.094	1144.13
726.28	1213.76
726.467	1135.94
726.653	1230.15
726.84	1097.03
727.027	1170.76
727.213	1054.02
727.4	1129.8
727.586	1129.8
727.773	1133.89
727.959	1080.64
728.145	1060.17
728.332	1135.94
728.518	1181
728.705	1090.88
728.891	998.73
729.077	1070.4
729.264	998.73
729.45	1013.06
729.636	1129.8
729.823	1117.51
730.009	1056.07
730.195	1008.97
730.382	1017.16
730.568	1033.54
730.754	1002.82
730.94	976.2
731.126	945.48
731.313	974.15
731.499	990.53
731.685	1056.07
731.871	922.95
732.057	1002.82
732.243	953.67
732.429	1037.64
732.615	1043.78
732.801	970.05
732.987	914.76
733.173	1008.97
733.359	1006.92
733.545	963.91
733.731	900.42
733.917	931.14
734.103	873.8
734.289	888.14
734.475	937.29
734.661	965.96
734.847	849.22
735.033	1047.88
735.219	933.19
735.404	908.62
735.59	898.38
735.776	818.5
735.962	925
736.148	830.79
736.333	910.66
736.519	896.33
736.705	849.22
736.89	812.36
737.076	818.5
737.262	847.18
737.447	857.42
737.633	798.03
737.819	838.98
738.004	818.5
738.19	808.26
738.375	793.93
738.561	814.41
738.747	767.31
738.932	816.46
739.118	826.7
739.303	779.59
739.489	800.07
739.674	748.87
739.859	818.5
740.045	849.22
740.23	806.22
740.416	777.55
740.601	759.11
740.786	730.44
740.972	744.78
741.157	664.91
741.342	685.39
741.528	707.91
741.713	736.59
741.898	757.07
742.084	658.76
742.269	757.07
742.454	712.01
742.639	775.5
742.824	709.96
743.01	595.28
743.195	732.49
743.38	720.2
743.565	673.1
743.75	689.48
743.935	664.91
744.12	652.62
744.305	658.76
744.49	707.91
744.675	699.72
744.86	599.37
745.045	611.66
745.23	613.71
745.415	566.6
745.6	626
745.785	675.15
745.97	585.04
746.155	617.8
746.34	578.89
746.525	660.81
746.71	597.32
746.895	527.69
747.079	615.76
747.264	701.77
747.449	619.85
747.634	609.61
747.819	619.85
748.003	587.08
748.188	630.09
748.373	638.28
748.557	619.85
748.742	527.69
748.927	597.32
749.111	533.84
749.296	595.28
749.481	533.84
749.665	535.89
749.85	499.02
750.034	533.84
750.219	531.79
750.404	537.93
750.588	562.51
750.773	529.74
750.957	644.43
751.141	576.84
751.326	533.84
751.51	429.39
751.695	531.79
751.879	484.69
752.064	554.32
752.248	537.93
752.432	505.17
752.617	488.78
752.801	470.35
752.985	462.16
753.17	515.41
753.354	552.27
753.538	494.93
753.722	456.01
753.907	505.17
754.091	492.88
754.275	537.93
754.459	486.73
754.643	441.68
754.828	378.19
755.012	435.53
755.196	445.77
755.38	445.77
755.564	431.44
755.748	447.82
755.932	462.16
756.116	390.48
756.3	505.17
756.484	490.83
756.668	439.63
756.852	476.49
757.036	472.4
757.22	480.59
757.404	390.48
757.588	376.14
757.772	400.72
757.956	468.3
758.14	402.77
758.323	392.53
758.507	390.48
758.691	378.19
758.875	337.23
759.059	406.86
759.242	404.82
759.426	372.05
759.61	349.52
759.794	322.9
759.977	349.52
760.161	445.77
760.345	429.39
760.528	374.1
760.712	367.95
760.895	378.19
761.079	357.71
761.263	431.44
761.446	367.95
761.63	439.63
761.813	333.14
761.997	273.75
762.18	374.1
762.364	345.42
762.547	421.2
762.731	314.7
762.914	374.1
763.098	392.53
763.281	281.94
763.464	445.77
763.648	367.95
763.831	378.19
764.015	439.63
764.198	402.77
764.381	331.09
764.564	421.2
764.748	357.71
764.931	367.95
765.114	337.23
765.297	435.53
765.481	302.42
765.664	281.94
765.847	410.96
766.03	390.48
766.213	419.15
766.397	355.66
766.58	306.51
766.763	351.57
766.946	324.94
767.129	306.51
767.312	351.57
767.495	294.22
767.678	351.57
767.861	298.32
768.044	318.8
768.227	247.12
768.41	261.46
768.593	351.57
768.776	329.04
768.959	335.18
769.142	281.94
769.324	421.2
769.507	367.95
769.69	333.14
769.873	234.83
770.056	279.89
770.239	306.51
770.421	294.22
770.604	335.18
770.787	372.05
770.97	263.51
771.152	302.42
771.335	339.28
771.518	286.03
771.7	316.75
771.883	363.86
772.066	253.27
772.248	292.18
772.431	283.98
772.613	322.9
772.796	283.98
772.978	335.18
773.161	288.08
773.343	269.65
773.526	253.27
773.708	271.7
773.891	353.62
774.073	296.27
774.256	243.03
774.438	222.55
774.621	222.55
774.803	286.03
774.985	310.61
775.168	259.41
775.35	279.89
775.532	300.37
775.715	331.09
775.897	261.46
776.079	279.89
776.261	296.27
776.444	318.8
776.626	204.11
776.808	281.94
776.99	308.56
777.173	265.55
777.355	322.9
777.537	261.46
777.719	331.09
777.901	277.84
778.083	308.56
778.265	218.45
778.447	226.64
778.629	228.69
778.811	275.79
778.993	245.07
779.175	230.74
779.357	236.88
779.539	185.68
779.721	238.93
779.903	286.03
780.085	214.35
780.267	286.03
780.449	208.21
780.631	212.31
780.812	220.5
780.994	214.35
781.176	240.98
781.358	150.87
781.54	267.6
781.721	255.31
781.903	304.46
782.085	245.07
782.267	208.21
782.448	130.39
782.63	175.44
782.812	134.48
782.993	222.55
783.175	234.83
783.357	138.58
783.538	154.96
783.72	255.31
783.901	146.77
784.083	261.46
784.264	177.49
784.446	202.07
784.627	193.87
784.809	222.55
784.99	234.83
785.172	218.45
785.353	169.3
785.535	89.43
785.716	220.5
785.897	187.73
786.079	179.54
786.26	185.68
786.441	161.11
786.623	159.06
786.804	218.45
786.985	177.49
787.167	93.52
787.348	154.96
787.529	191.83
787.71	191.83
787.891	124.24
788.073	157.01
788.254	95.57
788.435	243.03
788.616	97.62
788.797	150.87
788.978	177.49
789.159	193.87
789.34	202.07
789.522	148.82
789.703	191.83
789.884	138.58
790.065	138.58
790.246	60.76
790.427	157.01
790.607	134.48
790.788	111.96
790.969	148.82
791.15	122.2
791.331	97.62
791.512	81.24
791.693	107.86
791.874	159.06
792.054	238.93
792.235	109.91
792.416	142.68
792.597	165.2
792.778	132.44
792.958	173.39
793.139	126.29
793.32	144.72
793.5	124.24
793.681	232.79
793.862	77.14
794.042	212.31
794.223	64.85
794.404	140.63
794.584	109.91
794.765	73.04
794.945	175.44
795.126	130.39
795.306	152.91
795.487	144.72
795.667	95.57
795.848	101.72
796.028	138.58
796.209	81.24
796.389	85.33
796.57	189.78
796.75	171.35
796.93	140.63
797.111	157.01
797.291	148.82
797.471	122.2
797.652	163.15
797.832	101.72
798.012	91.48
798.192	11.61
798.373	81.24
798.553	136.53
798.733	42.32
798.913	91.48
799.093	175.44
799.274	68.95
799.454	56.66
799.634	169.3
799.814	132.44
799.994	66.9
800.174	79.19
800.354	128.34
800.534	185.68
800.714	116.05
800.894	116.05
801.074	54.61
801.254	79.19
801.434	109.91
801.614	87.38
801.794	52.56
801.974	308.56
802.154	126.29
802.334	152.91
802.514	107.86
802.693	95.57
802.873	124.24
803.053	169.3
803.233	146.77
803.413	85.33
803.592	66.9
803.772	62.8
803.952	-6.83
804.131	-21.16
804.311	75.09
804.491	107.86
804.67	40.28
804.85	11.61
805.03	44.37
805.209	128.34
805.389	138.58
805.568	71
805.748	52.56
805.928	154.96
806.107	71
806.287	48.47
806.466	30.04
806.646	54.61
806.825	21.84
807.004	87.38
807.184	83.28
807.363	62.8
807.543	30.04
807.722	58.71
807.901	126.29
808.081	107.86
808.26	5.46
808.439	54.61
808.619	111.96
808.798	103.76
808.977	87.38
809.156	93.52
809.336	157.01
809.515	77.14
809.694	19.8
809.873	19.8
810.052	101.72
810.231	32.08
810.411	3.41
810.59	60.76
810.769	30.04
810.948	83.28
811.127	3.41
811.306	19.8
811.485	-25.26
811.664	21.84
811.843	46.42
812.022	66.9
812.201	95.57
812.38	34.13
812.559	38.23
812.737	73.04
812.916	128.34
813.095	17.75
813.274	25.94
813.453	73.04
813.632	105.81
813.811	48.47
813.989	-49.83
814.168	48.47
814.347	-12.97
814.526	87.38
814.704	27.99
814.883	34.13
815.062	79.19
815.24	101.72
815.419	46.42
815.598	83.28
815.776	21.84
815.955	120.15
816.133	23.89
816.312	15.7
816.49	27.99
816.669	93.52
816.847	42.32
817.026	23.89
817.204	87.38
817.383	64.85
817.561	-17.07
817.74	91.48
817.918	1.37
818.097	36.18
818.275	77.14
818.453	13.65
818.632	48.47
818.81	95.57
818.988	13.65
819.167	25.94
819.345	-17.07
819.523	116.05
819.701	58.71
819.879	64.85
820.058	46.42
820.236	25.94
820.414	42.32
820.592	56.66
820.77	75.09
820.948	64.85
821.127	34.13
821.305	-10.92
821.483	40.28
821.661	19.8
821.839	-2.73
822.017	36.18
822.195	60.76
822.373	73.04
822.551	79.19
822.729	44.37
822.907	103.76
823.085	38.23
823.262	95.57
823.44	27.99
823.618	19.8
823.796	5.46
823.974	40.28
824.152	60.76
824.329	23.89
824.507	13.65
824.685	81.24
824.863	71
825.04	-21.16
825.218	83.28
825.396	19.8
825.574	23.89
825.751	9.56
825.929	56.66
826.107	40.28
826.284	99.67
826.462	-12.97
826.639	38.23
826.817	36.18
826.994	50.52
827.172	-4.78
827.349	23.89
827.527	79.19
827.704	54.61
827.882	-25.26
828.059	48.47
828.237	5.46
828.414	-0.68
828.591	81.24
828.769	44.37
828.946	1.37
829.124	48.47
829.301	-31.4
829.478	-19.11
829.655	-31.4
829.833	27.99
830.01	-101.03
830.187	21.84
830.364	1.37
830.542	48.47
830.719	34.13
830.896	9.56
831.073	19.8
831.25	1.37
831.427	-29.35
831.604	-4.78
831.782	36.18
831.959	95.57
832.136	-21.16
832.313	93.52
832.49	19.8
832.667	15.7
832.844	21.84
833.021	-6.83
833.198	48.47
833.374	75.09
833.551	34.13
833.728	38.23
833.905	15.7
834.082	-27.31
834.259	62.8
834.436	-23.21
834.612	-41.64
834.789	50.52
834.966	32.08
835.143	17.75
835.319	9.56
835.496	56.66
835.673	-17.07
835.85	79.19
836.026	58.71
836.203	23.89
836.38	13.65
836.556	-25.26
836.733	23.89
836.909	-23.21
837.086	-25.26
837.262	-4.78
837.439	44.37
837.616	40.28
837.792	-4.78
837.968	27.99
838.145	-31.4
838.321	23.89
838.498	-4.78
838.674	-8.87
838.851	46.42
839.027	-0.68
839.203	-39.59
839.38	-15.02
839.556	34.13
839.732	-51.88
839.909	-23.21
840.085	-15.02
840.261	-4.78
840.437	46.42
840.614	38.23
840.79	15.7
840.966	-12.97
841.142	17.75
841.318	52.56
841.494	36.18
841.671	54.61
841.847	7.51
842.023	32.08
842.199	7.51
842.375	-10.92
842.551	32.08
842.727	11.61
842.903	56.66
843.079	50.52
843.255	-8.87
843.431	25.94
843.607	-15.02
843.783	38.23
843.959	46.42
844.134	-8.87
844.31	25.94
844.486	15.7
844.662	-49.83
844.838	-15.02
845.013	9.56
845.189	-31.4
845.365	58.71
845.541	-10.92
845.716	13.65
845.892	19.8
846.068	-33.45
846.244	-12.97
846.419	25.94
846.595	38.23
846.77	15.7
846.946	68.95
847.122	-27.31
847.297	81.24
847.473	34.13
847.648	11.61
847.824	30.04
847.999	-51.88
848.175	15.7
848.35	7.51
848.526	34.13
848.701	-37.55
848.876	73.04
849.052	21.84
849.227	50.52
849.403	30.04
849.578	-27.31
849.753	17.75
849.929	1.37
850.104	25.94
850.279	-49.83
850.454	-4.78
850.63	1.37
850.805	-15.02
850.98	13.65
851.155	25.94
851.33	79.19
851.505	3.41
851.681	11.61
851.856	42.32
852.031	-21.16
852.206	15.7
852.381	-39.59
852.556	44.37
852.731	56.66
852.906	9.56
853.081	27.99
853.256	3.41
853.431	42.32
853.606	-72.36
853.781	-23.21
853.956	25.94
854.131	-8.87
854.305	-6.83
854.48	11.61
854.655	-4.78
854.83	25.94
855.005	-6.83
855.18	-8.87
855.354	-35.5
855.529	-2.73
855.704	-17.07
855.879	7.51
856.053	44.37
856.228	9.56
856.403	-41.64
856.577	15.7
856.752	21.84
856.926	48.47
857.101	-64.17
857.276	9.56
857.45	-15.02
857.625	46.42
857.799	32.08
857.974	19.8
858.148	-10.92
858.323	48.47
858.497	38.23
858.672	-15.02
858.846	5.46
859.02	62.8
859.195	-15.02
859.369	-17.07
859.543	-8.87
859.718	-6.83
859.892	-39.59
860.066	-23.21
860.241	-29.35
860.415	56.66
860.589	11.61
860.763	32.08
860.938	11.61
861.112	36.18
861.286	-10.92
861.46	-0.68
861.634	-27.31
861.808	36.18
861.982	-55.98
862.157	99.67
862.331	30.04
862.505	130.39
862.679	-27.31
862.853	-8.87
863.027	-25.26
863.201	11.61
863.375	-39.59
863.549	58.71
863.722	-15.02
863.896	5.46
864.07	-98.99
864.244	44.37
864.418	-27.31
864.592	-0.68
864.766	-23.21
864.939	-0.68
865.113	-10.92
865.287	7.51
865.461	-17.07
865.634	87.38
865.808	27.99
865.982	9.56
866.156	27.99
866.329	-76.46
866.503	42.32
866.676	1.37
866.85	-15.02
867.024	60.76
867.197	-4.78
867.371	-41.64
867.544	-23.21
867.718	-60.07
867.891	-33.45
868.065	13.65
868.238	-47.79
868.412	21.84
868.585	34.13
868.759	27.99
868.932	-25.26
869.105	7.51
869.279	1.37
869.452	-0.68
869.625	34.13
869.799	23.89
869.972	-21.16
870.145	-82.6
870.319	-62.12
870.492	-8.87
870.665	-35.5
870.838	-37.55
871.011	-27.31
871.185	9.56
871.358	-2.73
871.531	21.84
871.704	-49.83
871.877	17.75
872.05	11.61
872.223	64.85
872.396	3.41
872.569	-21.16
872.742	-10.92
872.915	7.51
873.088	-29.35
873.261	-2.73
873.434	7.51
873.607	68.95
873.78	-12.97
873.953	-45.74
874.126	-4.78
874.299	-8.87
874.471	-78.51
874.644	-27.31
874.817	-4.78
874.99	-10.92
875.163	25.94
875.335	-23.21
875.508	40.28
875.681	-27.31
875.853	-41.64
876.026	-31.4
876.199	-27.31
876.371	30.04
876.544	-31.4
876.717	-76.46
876.889	34.13
877.062	42.32
877.234	-25.26
877.407	-4.78
877.579	-6.83
877.752	-19.11
877.924	36.18
878.097	-35.5
878.269	21.84
878.442	-4.78
878.614	-37.55
878.786	101.72
878.959	62.8
879.131	40.28
879.303	5.46
879.476	13.65
879.648	-19.11
879.82	42.32
879.993	-27.31
880.165	40.28
880.337	5.46
880.509	-6.83
880.681	-21.16
880.854	-12.97
881.026	25.94
881.198	-25.26
881.37	3.41
881.542	40.28
881.714	-8.87
881.886	-15.02
882.058	-23.21
882.23	-43.69
882.402	-31.4
882.574	-8.87
882.746	21.84
882.918	46.42
883.09	-39.59
883.262	-82.6
883.434	25.94
883.606	-35.5
883.778	7.51
883.95	-6.83
884.122	-47.79
884.293	-51.88
884.465	-0.68
884.637	21.84
884.809	-17.07
884.98	23.89
885.152	44.37
885.324	-33.45
885.496	-10.92
885.667	75.09
885.839	17.75
886.011	-27.31
886.182	-15.02
886.354	-35.5
886.525	36.18
886.697	-31.4
886.869	21.84
887.04	-68.27
887.212	-60.07
887.383	87.38
887.555	-6.83
887.726	25.94
887.897	-19.11
888.069	-25.26
888.24	23.89
888.412	23.89
888.583	-74.41
888.754	11.61
888.926	-92.84
889.097	-68.27
889.268	19.8
889.44	32.08
889.611	-21.16
889.782	54.61
889.953	-68.27
890.125	-19.11
890.296	-66.22
890.467	-47.79
890.638	32.08
890.809	5.46
890.98	-45.74
891.151	-19.11
891.323	19.8
891.494	19.8
891.665	-35.5
891.836	-43.69
892.007	15.7
892.178	-31.4
892.349	-15.02
892.52	-2.73
892.691	-58.03
892.862	15.7
893.032	-39.59
893.203	40.28
893.374	-12.97
893.545	32.08
893.716	60.76
893.887	13.65
894.057	34.13
894.228	-49.83
894.399	-23.21
894.57	-76.46
894.74	-53.93
894.911	7.51
895.082	-43.69
895.253	1.37
895.423	1.37
895.594	3.41
895.764	19.8
895.935	13.65
896.106	38.23
896.276	-35.5
896.447	1.37
896.617	-19.11
896.788	11.61
896.958	-68.27
897.129	13.65
897.299	-0.68
897.47	-4.78
897.64	-4.78
897.81	-12.97
897.981	-19.11
898.151	68.95
898.322	7.51
898.492	-33.45
898.662	23.89
898.832	-41.64
899.003	-29.35
899.173	42.32
899.343	-8.87
899.513	5.46
