Data from USB4F104151__67__12-54-13-561.txt Node

Date: Fri Mar 14 12:54:13 EDT 2025
User: louis
Spectrometer: USB4F10415
Trigger mode: 4
Integration Time (sec): 1.000000E-2
Scans to average: 1
Electric dark correction enabled: true
Nonlinearity correction enabled: false
Boxcar width: 0
XAxis mode: Wavelengths
Number of Pixels in Spectrum: 3648
>>>>>Begin Spectral Data<<<<<
178.204	-30.21
178.424	-30.21
178.644	-30.21
178.864	-108.03
179.084	-15.87
179.304	61.95
179.524	20.99
179.744	-36.35
179.964	12.8
180.184	-28.16
180.404	-9.73
180.624	23.04
180.844	-19.97
181.064	-22.02
181.283	-54.78
181.503	-34.3
181.723	86.53
181.943	-7.68
182.163	-46.59
182.383	-69.12
182.602	-22.02
182.822	-17.92
183.042	-67.07
183.262	72.19
183.482	45.57
183.701	-15.87
183.921	-118.27
184.141	-62.98
184.361	-1.54
184.58	-19.97
184.8	-40.45
185.02	-7.68
185.239	18.94
185.459	25.09
185.679	-81.41
185.898	-11.78
186.118	4.61
186.338	-58.88
186.557	-42.5
186.777	-3.58
186.997	10.75
187.216	23.04
187.436	6.66
187.655	14.85
187.875	100.86
188.095	-24.06
188.314	6.66
188.534	-7.68
188.753	-38.4
188.973	-7.68
189.192	-28.16
189.412	-34.3
189.631	-5.63
189.851	4.61
190.07	25.09
190.29	-60.93
190.509	-81.41
190.729	-26.11
190.948	-24.06
191.168	27.14
191.387	-38.4
191.607	-3.58
191.826	31.23
192.045	-52.74
192.265	14.85
192.484	-30.21
192.704	-38.4
192.923	-56.83
193.142	45.57
193.362	-40.45
193.581	31.23
193.8	-13.82
194.02	51.71
194.239	12.8
194.458	-19.97
194.678	29.18
194.897	-58.88
195.116	-5.63
195.335	-93.69
195.555	18.94
195.774	4.61
195.993	8.7
196.212	-54.78
196.432	-44.54
196.651	12.8
196.87	-36.35
197.089	49.66
197.308	-9.73
197.528	31.23
197.747	-69.12
197.966	-56.83
198.185	84.48
198.404	-17.92
198.623	-1.54
198.842	-48.64
199.062	31.23
199.281	35.33
199.5	-11.78
199.719	20.99
199.938	0.51
200.157	45.57
200.376	-19.97
200.595	10.75
200.814	29.18
201.033	-52.74
201.252	-54.78
201.471	-30.21
201.69	20.99
201.909	31.23
202.128	-34.3
202.347	-32.26
202.566	72.19
202.785	-30.21
203.004	-5.63
203.223	47.62
203.442	-9.73
203.661	10.75
203.879	35.33
204.098	-22.02
204.317	-13.82
204.536	-3.58
204.755	-44.54
204.974	16.9
205.193	25.09
205.411	-15.87
205.63	-15.87
205.849	76.29
206.068	16.9
206.287	4.61
206.505	35.33
206.724	-30.21
206.943	0.51
207.162	59.9
207.381	0.51
207.599	18.94
207.818	-46.59
208.037	-17.92
208.255	47.62
208.474	72.19
208.693	-22.02
208.911	39.42
209.13	-15.87
209.349	-26.11
209.567	-38.4
209.786	23.04
210.005	-32.26
210.223	4.61
210.442	-19.97
210.661	-11.78
210.879	16.9
211.098	76.29
211.316	45.57
211.535	-13.82
211.753	27.14
211.972	23.04
212.191	29.18
212.409	-3.58
212.628	-1.54
212.846	-5.63
213.065	23.04
213.283	-46.59
213.502	37.38
213.72	14.85
213.938	-42.5
214.157	-60.93
214.375	6.66
214.594	-91.65
214.812	-69.12
215.031	16.9
215.249	14.85
215.467	-28.16
215.686	-28.16
215.904	10.75
216.122	-34.3
216.341	20.99
216.559	-26.11
216.778	-9.73
216.996	33.28
217.214	20.99
217.432	-9.73
217.651	-9.73
217.869	-13.82
218.087	59.9
218.306	-71.17
218.524	-19.97
218.742	27.14
218.96	-30.21
219.179	35.33
219.397	-46.59
219.615	29.18
219.833	23.04
220.051	-36.35
220.27	2.56
220.488	-40.45
220.706	-19.97
220.924	41.47
221.142	2.56
221.36	-9.73
221.578	-22.02
221.796	78.33
222.015	-3.58
222.233	-67.07
222.451	-13.82
222.669	18.94
222.887	-15.87
223.105	-36.35
223.323	-5.63
223.541	-11.78
223.759	117.25
223.977	-19.97
224.195	57.86
224.413	-65.02
224.631	4.61
224.849	-13.82
225.067	0.51
225.285	25.09
225.503	-110.08
225.721	-28.16
225.939	-3.58
226.157	-17.92
226.375	-1.54
226.592	29.18
226.81	29.18
227.028	20.99
227.246	16.9
227.464	33.28
227.682	-3.58
227.9	49.66
228.117	61.95
228.335	-50.69
228.553	-40.45
228.771	-69.12
228.989	2.56
229.206	-3.58
229.424	-44.54
229.642	-22.02
229.86	-22.02
230.077	8.7
230.295	-62.98
230.513	-62.98
230.731	29.18
230.948	-9.73
231.166	16.9
231.384	-48.64
231.601	18.94
231.819	-17.92
232.037	23.04
232.254	-48.64
232.472	16.9
232.689	-7.68
232.907	25.09
233.125	39.42
233.342	-24.06
233.56	-28.16
233.777	20.99
233.995	-9.73
234.213	64
234.43	45.57
234.648	-7.68
234.865	8.7
235.083	10.75
235.3	-58.88
235.518	35.33
235.735	-85.5
235.953	2.56
236.17	-42.5
236.388	41.47
236.605	-83.45
236.822	8.7
237.04	25.09
237.257	59.9
237.475	31.23
237.692	-9.73
237.909	-44.54
238.127	-19.97
238.344	14.85
238.562	12.8
238.779	18.94
238.996	-15.87
239.214	-32.26
239.431	-38.4
239.648	20.99
239.865	37.38
240.083	0.51
240.3	-3.58
240.517	-34.3
240.735	59.9
240.952	-22.02
241.169	55.81
241.386	-9.73
241.603	70.14
241.821	-42.5
242.038	41.47
242.255	0.51
242.472	-3.58
242.689	41.47
242.907	12.8
243.124	-28.16
243.341	0.51
243.558	92.67
243.775	-22.02
243.992	-75.26
244.209	29.18
244.426	76.29
244.643	35.33
244.86	-54.78
245.078	12.8
245.295	-50.69
245.512	18.94
245.729	-17.92
245.946	-52.74
246.163	-32.26
246.38	92.67
246.597	64
246.814	31.23
247.031	18.94
247.248	74.24
247.464	-1.54
247.681	4.61
247.898	-5.63
248.115	-52.74
248.332	6.66
248.549	-26.11
248.766	70.14
248.983	18.94
249.2	-11.78
249.417	-54.78
249.633	14.85
249.85	37.38
250.067	-54.78
250.284	-22.02
250.501	-28.16
250.717	-17.92
250.934	-26.11
251.151	12.8
251.368	-9.73
251.585	-24.06
251.801	6.66
252.018	25.09
252.235	0.51
252.451	31.23
252.668	-9.73
252.885	20.99
253.102	10.75
253.318	57.86
253.535	-9.73
253.752	-13.82
253.968	-62.98
254.185	-15.87
254.401	-52.74
254.618	-44.54
254.835	-48.64
255.051	20.99
255.268	33.28
255.484	-52.74
255.701	-46.59
255.917	-26.11
256.134	-62.98
256.351	18.94
256.567	-17.92
256.784	10.75
257	-44.54
257.217	2.56
257.433	-7.68
257.65	-7.68
257.866	25.09
258.082	-46.59
258.299	-22.02
258.515	39.42
258.732	-42.5
258.948	10.75
259.165	-24.06
259.381	6.66
259.597	41.47
259.814	41.47
260.03	-30.21
260.246	14.85
260.463	-5.63
260.679	-1.54
260.895	14.85
261.112	33.28
261.328	12.8
261.544	20.99
261.761	37.38
261.977	-28.16
262.193	-17.92
262.409	6.66
262.626	-67.07
262.842	64
263.058	-9.73
263.274	-56.83
263.49	-9.73
263.707	-32.26
263.923	-5.63
264.139	0.51
264.355	-22.02
264.571	-5.63
264.787	23.04
265.004	57.86
265.22	12.8
265.436	-9.73
265.652	55.81
265.868	-50.69
266.084	47.62
266.3	12.8
266.516	2.56
266.732	6.66
266.948	-32.26
267.164	29.18
267.38	-11.78
267.596	-9.73
267.812	2.56
268.028	4.61
268.244	53.76
268.46	29.18
268.676	8.7
268.892	0.51
269.108	-40.45
269.324	-112.13
269.54	57.86
269.756	-13.82
269.972	-30.21
270.188	-3.58
270.403	8.7
270.619	-54.78
270.835	-9.73
271.051	29.18
271.267	-112.13
271.483	18.94
271.698	-34.3
271.914	25.09
272.13	33.28
272.346	14.85
272.562	43.52
272.777	10.75
272.993	0.51
273.209	-40.45
273.425	-62.98
273.64	-108.03
273.856	80.38
274.072	-69.12
274.287	23.04
274.503	-28.16
274.719	-1.54
274.934	-26.11
275.15	-26.11
275.366	72.19
275.581	14.85
275.797	29.18
276.012	4.61
276.228	18.94
276.444	14.85
276.659	23.04
276.875	-32.26
277.09	41.47
277.306	20.99
277.521	68.09
277.737	-13.82
277.952	-1.54
278.168	12.8
278.383	-19.97
278.599	25.09
278.814	-26.11
279.03	12.8
279.245	68.09
279.461	18.94
279.676	8.7
279.892	-13.82
280.107	-17.92
280.322	-15.87
280.538	29.18
280.753	-34.3
280.969	35.33
281.184	-40.45
281.399	-19.97
281.615	29.18
281.83	-81.41
282.045	-19.97
282.26	-26.11
282.476	-46.59
282.691	-17.92
282.906	8.7
283.122	23.04
283.337	-77.31
283.552	8.7
283.767	10.75
283.983	57.86
284.198	-105.98
284.413	45.57
284.628	-75.26
284.843	31.23
285.058	-77.31
285.274	-75.26
285.489	-13.82
285.704	18.94
285.919	-50.69
286.134	-52.74
286.349	-1.54
286.564	-26.11
286.779	-19.97
286.995	61.95
287.21	-22.02
287.425	41.47
287.64	-7.68
287.855	25.09
288.07	66.05
288.285	8.7
288.5	-54.78
288.715	6.66
288.93	27.14
289.145	-28.16
289.36	-26.11
289.575	-11.78
289.79	16.9
290.004	-56.83
290.219	-9.73
290.434	53.76
290.649	43.52
290.864	-34.3
291.079	-54.78
291.294	-11.78
291.509	-7.68
291.724	-28.16
291.938	27.14
292.153	76.29
292.368	-30.21
292.583	18.94
292.798	-36.35
293.012	0.51
293.227	27.14
293.442	-46.59
293.657	-58.88
293.871	-7.68
294.086	-5.63
294.301	12.8
294.516	64
294.73	2.56
294.945	-58.88
295.16	25.09
295.374	33.28
295.589	37.38
295.804	-60.93
296.018	-3.58
296.233	-9.73
296.447	-26.11
296.662	27.14
296.877	-60.93
297.091	-54.78
297.306	2.56
297.52	-58.88
297.735	37.38
297.949	-54.78
298.164	-38.4
298.378	-24.06
298.593	53.76
298.807	-83.45
299.022	47.62
299.236	20.99
299.451	4.61
299.665	23.04
299.88	-11.78
300.094	-9.73
300.309	35.33
300.523	-38.4
300.737	4.61
300.952	-22.02
301.166	-19.97
301.381	-22.02
301.595	-62.98
301.809	-24.06
302.024	51.71
302.238	-30.21
302.452	37.38
302.667	35.33
302.881	10.75
303.095	-40.45
303.309	14.85
303.524	6.66
303.738	31.23
303.952	-38.4
304.166	-1.54
304.381	-34.3
304.595	43.52
304.809	51.71
305.023	-5.63
305.237	43.52
305.452	31.23
305.666	61.95
305.88	-36.35
306.094	35.33
306.308	-17.92
306.522	31.23
306.736	23.04
306.95	-22.02
307.164	-13.82
307.379	-3.58
307.593	10.75
307.807	-26.11
308.021	18.94
308.235	4.61
308.449	23.04
308.663	-60.93
308.877	78.33
309.091	-28.16
309.305	-34.3
309.519	-15.87
309.733	-15.87
309.947	20.99
310.161	4.61
310.374	20.99
310.588	43.52
310.802	-62.98
311.016	59.9
311.23	-40.45
311.444	31.23
311.658	-56.83
311.872	18.94
312.085	41.47
312.299	23.04
312.513	-13.82
312.727	4.61
312.941	-9.73
313.154	-15.87
313.368	16.9
313.582	-7.68
313.796	16.9
314.009	27.14
314.223	25.09
314.437	-17.92
314.651	-44.54
314.864	-34.3
315.078	10.75
315.292	10.75
315.505	-52.74
315.719	6.66
315.933	31.23
316.146	39.42
316.36	-65.02
316.573	35.33
316.787	8.7
317.001	14.85
317.214	16.9
317.428	10.75
317.641	27.14
317.855	49.66
318.068	-15.87
318.282	25.09
318.495	-30.21
318.709	23.04
318.922	35.33
319.136	-19.97
319.349	27.14
319.563	12.8
319.776	29.18
319.99	-15.87
320.203	-24.06
320.417	12.8
320.63	-13.82
320.843	51.71
321.057	25.09
321.27	-15.87
321.483	8.7
321.697	37.38
321.91	25.09
322.124	-13.82
322.337	2.56
322.55	-22.02
322.763	4.61
322.977	35.33
323.19	49.66
323.403	-24.06
323.617	-26.11
323.83	61.95
324.043	33.28
324.256	43.52
324.469	-58.88
324.683	-24.06
324.896	-22.02
325.109	-26.11
325.322	-42.5
325.535	10.75
325.748	57.86
325.962	10.75
326.175	66.05
326.388	43.52
326.601	18.94
326.814	8.7
327.027	47.62
327.24	-11.78
327.453	-40.45
327.666	16.9
327.879	23.04
328.092	68.09
328.305	-38.4
328.518	18.94
328.731	27.14
328.944	6.66
329.157	-19.97
329.37	-58.88
329.583	-22.02
329.796	-9.73
330.009	-15.87
330.222	14.85
330.435	-54.78
330.648	10.75
330.861	-54.78
331.073	-7.68
331.286	-22.02
331.499	37.38
331.712	53.76
331.925	0.51
332.138	2.56
332.35	51.71
332.563	-22.02
332.776	104.96
332.989	6.66
333.202	-40.45
333.414	37.38
333.627	61.95
333.84	-52.74
334.053	-19.97
334.265	37.38
334.478	-48.64
334.691	-54.78
334.903	-1.54
335.116	8.7
335.329	4.61
335.541	6.66
335.754	14.85
335.966	-13.82
336.179	6.66
336.392	49.66
336.604	41.47
336.817	-38.4
337.029	8.7
337.242	-15.87
337.454	53.76
337.667	-81.41
337.88	25.09
338.092	25.09
338.305	16.9
338.517	-19.97
338.729	76.29
338.942	59.9
339.154	-36.35
339.367	-42.5
339.579	-30.21
339.792	18.94
340.004	31.23
340.217	-48.64
340.429	66.05
340.641	10.75
340.854	29.18
341.066	-54.78
341.278	8.7
341.491	41.47
341.703	-110.08
341.915	100.86
342.128	104.96
342.34	-56.83
342.552	-93.69
342.764	35.33
342.977	-36.35
343.189	12.8
343.401	-1.54
343.613	-34.3
343.826	6.66
344.038	20.99
344.25	-15.87
344.462	-48.64
344.674	23.04
344.886	0.51
345.099	-7.68
345.311	-28.16
345.523	-13.82
345.735	-40.45
345.947	12.8
346.159	8.7
346.371	-22.02
346.583	8.7
346.795	-30.21
347.007	-30.21
347.219	20.99
347.431	-79.36
347.643	29.18
347.855	41.47
348.067	45.57
348.279	-26.11
348.491	-15.87
348.703	-19.97
348.915	-42.5
349.127	33.28
349.339	4.61
349.551	-32.26
349.763	68.09
349.975	35.33
350.187	-56.83
350.399	-7.68
350.61	-5.63
350.822	64
351.034	-32.26
351.246	-24.06
351.458	68.09
351.669	20.99
351.881	59.9
352.093	-15.87
352.305	20.99
352.517	-17.92
352.728	-15.87
352.94	27.14
353.152	-11.78
353.363	10.75
353.575	-1.54
353.787	61.95
353.999	18.94
354.21	-22.02
354.422	-13.82
354.633	-1.54
354.845	27.14
355.057	33.28
355.268	-17.92
355.48	12.8
355.692	-3.58
355.903	37.38
356.115	6.66
356.326	-28.16
356.538	25.09
356.749	-73.21
356.961	10.75
357.172	43.52
357.384	-28.16
357.595	2.56
357.807	29.18
358.018	-46.59
358.23	14.85
358.441	25.09
358.653	-7.68
358.864	4.61
359.075	-3.58
359.287	41.47
359.498	8.7
359.709	59.9
359.921	12.8
360.132	61.95
360.344	39.42
360.555	-22.02
360.766	31.23
360.977	-28.16
361.189	6.66
361.4	-7.68
361.611	-17.92
361.823	74.24
362.034	8.7
362.245	-42.5
362.456	2.56
362.667	55.81
362.879	-15.87
363.09	-85.5
363.301	-19.97
363.512	-5.63
363.723	-17.92
363.935	-38.4
364.146	135.68
364.357	47.62
364.568	45.57
364.779	39.42
364.99	2.56
365.201	2.56
365.412	37.38
365.623	-22.02
365.834	25.09
366.045	-73.21
366.256	20.99
366.467	20.99
366.678	47.62
366.889	-32.26
367.1	84.48
367.311	-52.74
367.522	-3.58
367.733	0.51
367.944	45.57
368.155	18.94
368.366	76.29
368.577	-1.54
368.788	-42.5
368.999	23.04
369.209	20.99
369.42	-46.59
369.631	-17.92
369.842	57.86
370.053	-75.26
370.264	-1.54
370.474	37.38
370.685	27.14
370.896	-9.73
371.107	14.85
371.317	31.23
371.528	41.47
371.739	59.9
371.95	-17.92
372.16	23.04
372.371	4.61
372.582	20.99
372.792	16.9
373.003	-5.63
373.214	-9.73
373.424	-13.82
373.635	41.47
373.846	-11.78
374.056	10.75
374.267	12.8
374.477	-11.78
374.688	0.51
374.898	4.61
375.109	53.76
375.319	-5.63
375.53	-1.54
375.74	31.23
375.951	27.14
376.161	55.81
376.372	-85.5
376.582	6.66
376.793	51.71
377.003	-17.92
377.214	-46.59
377.424	-5.63
377.635	66.05
377.845	-9.73
378.055	18.94
378.266	-54.78
378.476	27.14
378.686	23.04
378.897	27.14
379.107	55.81
379.317	-28.16
379.528	12.8
379.738	23.04
379.948	10.75
380.158	23.04
380.369	39.42
380.579	16.9
380.789	-62.98
380.999	0.51
381.21	74.24
381.42	10.75
381.63	-17.92
381.84	6.66
382.05	-9.73
382.261	-46.59
382.471	18.94
382.681	-60.93
382.891	16.9
383.101	27.14
383.311	-46.59
383.521	-26.11
383.731	80.38
383.941	10.75
384.151	-32.26
384.361	55.81
384.571	41.47
384.781	-17.92
384.991	37.38
385.201	61.95
385.411	-52.74
385.621	-5.63
385.831	12.8
386.041	43.52
386.251	49.66
386.461	16.9
386.671	-5.63
386.881	-11.78
387.091	10.75
387.301	23.04
387.511	-22.02
387.72	41.47
387.93	-54.78
388.14	53.76
388.35	59.9
388.56	51.71
388.769	2.56
388.979	18.94
389.189	-52.74
389.399	-50.69
389.609	20.99
389.818	-38.4
390.028	10.75
390.238	14.85
390.447	27.14
390.657	-1.54
390.867	-22.02
391.076	-9.73
391.286	6.66
391.496	72.19
391.705	25.09
391.915	51.71
392.125	-28.16
392.334	-7.68
392.544	-44.54
392.753	39.42
392.963	39.42
393.172	-22.02
393.382	64
393.591	29.18
393.801	92.67
394.01	76.29
394.22	80.38
394.429	29.18
394.639	47.62
394.848	27.14
395.058	47.62
395.267	-17.92
395.477	39.42
395.686	-17.92
395.895	57.86
396.105	18.94
396.314	-32.26
396.524	43.52
396.733	-30.21
396.942	37.38
397.152	47.62
397.361	20.99
397.57	49.66
397.78	80.38
397.989	-24.06
398.198	66.05
398.407	-3.58
398.617	90.62
398.826	80.38
399.035	64
399.244	20.99
399.453	35.33
399.663	27.14
399.872	76.29
400.081	8.7
400.29	139.77
400.499	33.28
400.708	-44.54
400.917	4.61
401.127	86.53
401.336	-7.68
401.545	-3.58
401.754	47.62
401.963	74.24
402.172	59.9
402.381	23.04
402.59	41.47
402.799	-9.73
403.008	59.9
403.217	39.42
403.426	43.52
403.635	35.33
403.844	0.51
404.053	-3.58
404.262	66.05
404.471	51.71
404.68	59.9
404.888	29.18
405.097	78.33
405.306	23.04
405.515	47.62
405.724	66.05
405.933	88.57
406.142	68.09
406.35	86.53
406.559	35.33
406.768	143.87
406.977	117.25
407.185	88.57
407.394	104.96
407.603	51.71
407.812	78.33
408.02	61.95
408.229	123.39
408.438	12.8
408.646	86.53
408.855	100.86
409.064	125.44
409.272	129.53
409.481	94.72
409.69	64
409.898	172.54
410.107	119.29
410.315	186.88
410.524	109.05
410.733	197.12
410.941	170.49
411.15	119.29
411.358	164.35
411.567	256.51
411.775	199.16
411.984	176.64
412.192	172.54
412.401	231.93
412.609	213.5
412.818	150.01
413.026	266.75
413.234	236.03
413.443	258.56
413.651	213.5
413.86	240.12
414.068	274.94
414.276	326.14
414.485	358.91
414.693	352.76
414.901	266.75
415.11	242.17
415.318	311.8
415.526	393.72
415.734	401.91
415.943	418.3
416.151	430.59
416.359	313.85
416.567	301.56
416.776	461.3
416.984	502.26
417.192	442.87
417.4	444.92
417.608	403.96
417.817	545.27
418.025	446.97
418.233	610.81
418.441	522.74
418.649	524.79
418.857	602.61
419.065	692.73
419.273	582.14
419.481	770.55
419.689	686.58
419.897	764.4
420.105	698.87
420.313	694.77
420.521	723.44
420.729	758.26
420.937	733.68
421.145	877.04
421.353	844.28
421.561	862.71
421.769	954.87
421.977	1006.06
422.185	913.91
422.393	944.63
422.601	1112.56
422.809	1141.23
423.017	1036.78
423.224	1165.81
423.432	1159.66
423.64	1251.82
423.848	1219.05
424.056	1280.49
424.263	1303.02
424.471	1389.03
424.679	1511.91
424.887	1505.77
425.094	1534.44
425.302	1454.57
425.51	1579.5
425.718	1659.37
425.925	1579.5
426.133	1640.93
426.341	1845.73
426.548	1855.97
426.756	1808.87
426.964	1946.08
427.171	1974.75
427.379	2007.52
427.586	2144.74
427.794	2150.88
428.001	2251.23
428.209	2376.16
428.417	2449.88
428.624	2451.93
428.832	2464.22
429.039	2443.74
429.247	2458.07
429.454	2726.36
429.662	2910.68
429.869	2669.02
430.076	2951.63
430.284	2734.55
430.491	3017.17
430.699	3097.04
430.906	3109.33
431.114	3117.52
431.321	3189.2
431.528	3361.23
431.736	3510.73
431.943	3682.76
432.15	3674.57
432.358	3889.6
432.565	3752.39
432.772	3946.95
432.979	4110.79
433.187	4016.58
433.394	4139.46
433.601	4444.6
433.808	4448.7
434.016	4358.59
434.223	4669.88
434.43	5052.85
434.637	4794.81
434.844	5040.56
435.052	5011.89
435.259	5128.63
435.466	5257.65
435.673	5269.94
435.88	5454.25
436.087	5976.48
436.294	5835.17
436.501	5560.75
436.708	5796.26
436.915	6082.98
437.122	6263.2
437.329	6351.26
437.537	6685.08
437.743	6513.05
437.95	6429.09
438.157	6982.04
438.364	7004.57
438.571	6955.41
438.778	7051.67
438.985	7721.35
439.192	7534.99
439.399	7745.93
439.606	7440.78
439.813	7922.06
440.02	8440.19
440.227	8350.08
440.433	8343.94
440.64	8726.91
440.847	8405.38
441.054	8550.78
441.261	9296.24
441.467	9273.71
441.674	9337.2
441.881	9726.32
442.088	9593.2
442.294	9462.13
442.501	9810.28
442.708	10185.06
442.914	10279.27
443.121	10840.41
443.328	10473.82
443.534	11096.41
443.741	11055.45
443.948	10770.78
444.154	11575.63
444.361	11454.8
444.568	11723.09
444.774	11751.76
444.981	11823.44
445.187	12024.14
445.394	12509.51
445.6	12435.78
445.807	13642.03
446.013	12978.49
446.22	13361.46
446.426	13932.84
446.633	14045.48
446.839	14418.21
447.046	13674.8
447.252	14694.69
447.459	14731.55
447.665	14539.04
447.871	15264.02
448.078	15890.7
448.284	15042.84
448.491	15345.94
448.697	16079.11
448.903	16427.27
449.11	16584.96
449.316	16400.65
449.522	16550.15
449.728	16797.95
449.935	17389.81
450.141	17180.92
450.347	17377.53
450.553	17131.77
450.76	16957.69
450.966	17893.61
451.172	17701.11
451.378	18262.25
451.584	17735.92
451.791	18045.16
451.997	18028.78
452.203	18518.25
452.409	18489.57
452.615	18084.08
452.821	17914.09
453.027	17342.71
453.233	18606.31
453.44	17821.94
453.646	17924.33
453.852	18372.84
454.058	18393.32
454.264	17678.58
454.47	18133.23
454.676	17740.02
454.882	18372.84
455.088	16673.03
455.294	17246.46
455.5	17262.84
455.705	17512.69
455.911	16810.24
456.117	16419.08
456.323	16374.02
456.529	15620.37
456.735	15997.2
456.941	15694.1
457.147	15460.63
457.352	14862.62
457.558	14735.65
457.764	14870.81
457.97	14465.32
458.176	14227.75
458.381	14407.97
458.587	13836.59
458.793	13701.42
458.999	12806.46
459.204	13840.68
459.41	13572.4
459.616	12609.86
459.821	12673.34
460.027	12466.5
460.233	12396.87
460.438	11739.47
460.644	11893.07
460.85	11331.92
461.055	11080.02
461.261	11223.38
461.466	10178.92
461.672	10094.95
461.878	10807.64
462.083	9924.97
462.289	9888.11
462.494	9773.42
462.7	9361.78
462.905	9218.42
463.111	9486.7
463.316	9490.8
463.522	9269.62
463.727	9361.78
463.932	9447.79
464.138	9179.51
464.343	9337.2
464.549	9111.92
464.754	9218.42
464.959	9195.89
465.165	9214.32
465.37	8718.71
465.575	8628.6
465.781	9046.39
465.986	9017.72
466.191	8747.39
466.397	8440.19
466.602	8130.95
466.807	8511.87
467.012	8393.09
467.218	8225.15
467.423	8442.24
467.628	8356.22
467.833	8587.64
468.038	8364.42
468.244	8044.93
468.449	8542.59
468.654	8122.76
468.859	8311.17
469.064	8288.64
469.269	7737.74
469.474	7833.99
469.679	7879.05
469.885	7858.57
470.09	7905.67
470.295	7948.68
470.5	7723.4
470.705	7704.97
470.91	7598.48
471.115	7659.92
471.32	7608.72
471.525	7422.35
471.73	7506.32
471.935	7418.25
472.139	7061.91
472.344	7180.69
472.549	7045.52
472.754	7127.44
472.959	6887.83
473.164	6678.94
473.369	6599.07
473.574	6826.39
473.778	6734.23
473.983	6723.99
474.188	6658.46
474.393	6480.29
474.598	6486.43
474.802	6267.3
475.007	6240.67
475.212	6336.93
475.417	6113.7
475.621	5929.38
475.826	6168.99
476.031	6023.59
476.235	5900.71
476.44	5992.87
476.645	5829.03
476.849	5904.81
477.054	5679.53
477.259	5511.6
477.463	5712.3
477.668	5417.39
477.872	5595.56
478.077	5523.88
478.282	5431.73
478.486	5450.16
478.691	5253.55
478.895	5398.96
479.1	5503.4
479.304	5312.94
479.509	5171.63
479.713	5118.39
479.918	4934.07
480.122	4958.64
480.326	5001.65
480.531	5177.78
480.735	4956.6
480.94	4862.39
481.144	5054.9
481.348	4968.88
481.553	4981.17
481.757	4862.39
481.961	4729.27
482.166	4958.64
482.37	4938.16
482.574	4843.96
482.778	4622.78
482.983	4991.41
483.187	4850.1
483.391	4880.82
483.595	4987.32
483.8	4803
484.004	4919.73
484.208	4878.77
484.412	4866.49
484.616	4919.73
484.821	4884.92
485.025	4893.11
485.229	4901.3
485.433	4923.83
485.637	4835.77
485.841	4841.91
486.045	4852.15
486.249	4899.25
486.453	4925.88
486.657	4968.88
486.861	5020.08
487.065	4901.3
487.269	4929.97
487.473	5022.13
487.677	5108.15
487.881	5032.37
488.085	4999.6
488.289	5034.42
488.493	4921.78
488.697	4929.97
488.901	4991.41
489.105	5108.15
489.309	5099.95
489.512	5102
489.716	5132.72
489.92	5292.46
490.124	5130.67
490.328	5253.55
490.531	5015.99
490.735	5314.99
490.939	5251.5
491.143	5284.27
491.346	5261.74
491.55	5274.03
491.754	5294.51
491.958	5487.02
492.161	5183.92
492.365	5491.12
492.569	5487.02
492.772	5544.36
492.976	5527.98
493.18	5646.76
493.383	5650.86
493.587	5718.44
493.79	5835.17
493.994	5704.1
494.197	5724.58
494.401	5953.96
494.605	5861.8
494.808	6097.31
495.012	6066.6
495.215	6134.18
495.419	6138.27
495.622	6146.47
495.825	6345.12
496.029	6353.31
496.232	6410.65
496.436	6345.12
496.639	6508.96
496.843	6666.65
497.046	6732.19
497.249	6793.62
497.453	6838.68
497.656	7053.72
497.859	7002.52
498.063	7168.4
498.266	7209.36
498.469	7262.61
498.673	7338.38
498.876	7367.06
499.079	7604.62
499.282	7600.52
499.485	7709.07
499.689	7833.99
499.892	7946.63
500.095	7932.29
500.298	8319.36
500.501	8075.65
500.705	8184.2
500.908	8524.16
501.111	8356.22
501.314	8694.14
501.517	8845.69
501.72	9191.8
501.923	8790.39
502.126	9001.33
502.329	9296.24
502.532	9300.34
502.735	9185.65
502.938	9677.16
503.141	9550.19
503.344	9941.35
503.547	10070.37
503.75	9986.41
503.953	10297.7
504.156	10303.84
504.359	10578.27
504.562	10305.89
504.765	10717.53
504.968	10826.07
505.17	11168.09
505.373	10971.48
505.576	11219.28
505.779	11319.64
505.982	11565.39
506.185	11872.59
506.387	11888.97
506.59	11962.7
506.793	12167.49
506.996	12298.56
507.198	12704.06
507.401	12589.38
507.604	12648.77
507.807	13037.88
508.009	13072.7
508.212	13498.67
508.415	13523.25
508.617	13754.67
508.82	13588.78
509.022	13660.46
509.225	14227.75
509.428	14346.53
509.63	14342.44
509.833	14496.03
510.035	14778.65
510.238	15010.07
510.44	15171.86
510.643	15380.76
510.845	15630.61
511.048	15808.78
511.25	15802.64
511.453	15962.38
511.655	16562.44
511.858	16310.54
512.06	16255.24
512.262	16881.92
512.465	16853.25
512.667	16994.56
512.87	17531.12
513.072	17289.46
513.274	17709.3
513.477	18024.68
513.679	18200.81
513.881	18430.18
514.084	18606.31
514.286	18727.14
514.488	18938.08
514.69	19515.61
514.893	19607.76
515.095	19609.81
515.297	19810.51
515.499	20043.98
515.701	20156.62
515.904	20537.54
516.106	20412.62
516.308	20748.48
516.51	21360.83
516.712	21029.06
516.914	21420.22
517.116	21881.01
517.318	21649.59
517.52	21909.68
517.722	22034.61
517.925	22413.48
518.127	22571.18
518.329	23072.93
518.531	22423.72
518.733	23216.29
518.935	23484.57
519.136	23709.85
519.338	23955.6
519.54	23953.55
519.742	24227.98
519.944	24365.2
520.146	24793.22
520.348	24725.64
520.55	25012.35
520.752	25262.21
520.954	25516.15
521.155	25217.15
521.357	25589.88
521.559	26380.4
521.761	26333.29
521.963	26474.6
522.164	26230.9
522.366	26710.12
522.568	27162.72
522.77	27125.86
522.971	27537.5
523.173	27582.56
523.375	27711.58
523.576	27768.92
523.778	27711.58
523.98	28315.73
524.181	28467.28
524.383	28471.37
524.584	28678.22
524.786	28823.62
524.988	28579.92
525.189	29132.87
525.391	29595.71
525.592	29853.75
525.794	29820.98
525.995	29663.29
526.197	30163
526.398	29945.91
526.6	30226.48
526.801	30083.12
527.003	30646.32
527.204	30412.85
527.406	30863.4
527.607	30595.12
527.808	31012.9
528.01	30728.24
528.211	30916.65
528.412	31299.62
528.614	31500.32
528.815	31352.87
529.016	31858.71
529.218	31567.9
529.419	31596.57
529.62	31897.63
529.822	31758.36
530.023	31987.74
530.224	31772.7
530.425	31746.08
530.626	31436.83
530.828	31875.1
531.029	32583.69
531.23	32325.65
531.431	32127
531.632	32458.77
531.833	32317.46
532.035	32213.01
532.236	32641.04
532.437	32479.25
532.638	32552.98
532.839	32796.68
533.04	32954.38
533.241	32440.34
533.442	33159.17
533.643	32849.93
533.844	33075.21
534.045	33073.16
534.246	32577.55
534.447	33351.68
534.648	33189.89
534.849	33314.82
535.05	33069.06
535.251	33255.43
535.451	32937.99
535.652	33357.83
535.853	33413.12
536.054	33638.4
536.255	33372.16
536.456	33163.27
536.657	33722.37
536.857	33425.41
537.058	33363.97
537.259	33605.63
537.46	33443.84
537.66	33538.05
537.861	33775.61
538.062	33613.82
538.263	33810.43
538.463	33318.92
538.664	33638.4
538.865	33871.87
539.065	33996.79
539.266	33208.33
539.466	33841.15
539.667	33351.68
539.868	34336.76
540.068	33611.78
540.269	33703.93
540.469	33933.31
540.67	34002.94
540.87	33648.64
541.071	33904.63
541.271	33802.24
541.472	34283.51
541.672	33468.42
541.873	33861.63
542.073	33474.56
542.274	34195.45
542.474	34043.9
542.675	33878.01
542.875	34371.57
543.075	33998.84
543.276	33468.42
543.476	34658.29
543.676	34054.14
543.877	34074.62
544.077	34027.51
544.277	33822.72
544.478	34019.32
544.678	33976.31
544.878	33796.09
545.078	34269.17
545.279	34025.46
545.479	34142.2
545.679	34023.42
545.879	34052.09
546.079	34318.32
546.28	34127.86
546.48	33869.82
546.68	34127.86
546.88	34172.92
547.08	34177.01
547.28	34220.02
547.48	33656.83
547.68	34340.85
547.88	33966.07
548.081	33959.93
548.281	34400.24
548.481	34338.8
548.681	34457.59
548.881	34519.03
549.081	34318.32
549.28	34150.39
549.48	34392.05
549.68	34672.62
549.88	34858.99
550.08	33990.65
550.28	34480.11
550.48	33765.37
550.68	34740.21
550.88	34236.41
551.08	34367.48
551.279	34344.95
551.479	34007.03
551.679	34295.8
551.879	33910.78
552.079	34584.56
552.278	33990.65
552.478	34375.67
552.678	34351.09
552.878	34334.71
553.077	33931.26
553.277	34140.15
553.477	34170.87
553.676	34007.03
553.876	34355.19
554.076	33679.36
554.275	34154.49
554.475	33652.73
554.674	34250.74
554.874	34154.49
555.074	33814.52
555.273	34189.3
555.473	34017.27
555.672	33658.88
555.872	34238.45
556.071	34129.91
556.271	34187.25
556.47	34017.27
556.67	33398.79
556.869	33978.36
557.068	34383.86
557.268	33804.28
557.467	33550.34
557.667	33888.25
557.866	33865.72
558.065	33693.69
558.265	33849.34
558.464	33634.3
558.663	34074.62
558.863	33523.71
559.062	34125.82
559.261	33642.49
559.461	33525.76
559.66	33398.79
559.859	33908.73
560.058	33495.04
560.258	34043.9
560.457	33441.79
560.656	33525.76
560.855	33241.09
561.054	33478.66
561.253	33773.56
561.453	33415.17
561.652	33435.65
561.851	33415.17
562.05	33929.21
562.249	33447.94
562.448	33736.7
562.647	33609.73
562.846	33751.04
563.045	33572.86
563.244	33349.64
563.443	33849.34
563.642	33400.83
563.841	33501.18
564.04	33558.53
564.239	33660.93
564.438	33554.43
564.637	33230.85
564.836	33284.1
565.035	33257.48
565.234	33689.6
565.432	33675.26
565.631	33290.24
565.83	33437.7
566.029	33499.14
566.228	33617.92
566.427	33376.26
566.625	33247.24
566.824	32663.57
567.023	33280
567.222	32782.35
567.42	33118.21
567.619	32933.9
567.818	32962.57
568.016	33064.97
568.215	33763.32
568.414	33312.77
568.612	33230.85
568.811	33343.49
569.01	33058.82
569.208	32731.15
569.407	33134.6
569.605	32884.75
569.804	32966.66
570.002	32929.8
570.201	32716.81
570.4	32692.24
570.598	32677.9
570.797	32536.59
570.995	32661.52
571.193	32407.57
571.392	32643.09
571.59	32245.78
571.789	32479.25
571.987	31985.69
572.186	32600.08
572.384	32143.38
572.582	32278.55
572.781	32296.98
572.979	31967.26
573.177	32290.84
573.376	32249.88
573.574	32127
573.772	32057.37
573.971	32217.11
574.169	31721.5
574.367	31715.36
574.565	31875.1
574.763	31586.33
574.962	31719.45
575.16	31805.47
575.358	31844.38
575.556	30853.16
575.754	31637.53
575.952	31516.7
576.151	31655.96
576.349	31160.36
576.547	31205.41
576.745	31367.2
576.943	31299.62
577.141	31258.66
577.339	31402.02
577.537	31109.16
577.735	30877.74
577.933	30652.46
578.131	30740.52
578.329	30486.57
578.527	30681.13
578.725	30707.76
578.923	30937.13
579.121	30427.18
579.319	30539.82
579.516	30304.31
579.714	30453.81
579.912	30742.57
580.11	30193.72
580.308	30349.36
580.506	30500.91
580.704	29564.99
580.901	30191.67
581.099	29777.98
581.297	29734.97
581.495	29884.47
581.692	29943.86
581.89	29820.98
582.088	29634.62
582.285	29945.91
582.483	29937.72
582.681	29470.78
582.878	29368.38
583.076	29182.02
583.274	29601.85
583.471	29032.52
583.669	29169.73
583.866	29153.35
584.064	29306.94
584.262	28667.98
584.459	29306.94
584.657	28901.45
584.854	28868.68
585.052	28502.09
585.249	28381.26
585.447	28878.92
585.644	28692.55
585.841	28639.31
586.039	28641.35
586.236	28282.96
586.434	28108.88
586.631	28020.82
586.828	28108.88
587.026	28147.79
587.223	28010.58
587.42	28018.77
587.618	28053.59
587.815	27476.06
588.012	27773.02
588.21	27715.67
588.407	27396.19
588.604	27297.89
588.801	27238.5
588.999	27371.61
589.196	27392.09
589.393	27388
589.59	27361.37
589.787	27175.01
589.984	27045.99
590.182	27099.23
590.379	26996.84
590.576	27101.28
590.773	27115.62
590.97	26876.01
591.167	27228.26
591.364	26552.43
591.561	26937.44
591.758	26450.03
591.955	26439.79
592.152	26384.49
592.349	26206.32
592.546	25989.24
592.743	26255.47
592.94	26005.62
593.137	26300.53
593.334	25958.52
593.531	25587.83
593.727	25886.84
593.924	26073.2
594.121	25688.18
594.318	25854.07
594.515	25143.42
594.712	25370.75
594.908	25686.14
595.105	25614.46
595.302	25440.38
595.499	25593.98
595.696	25174.14
595.892	25258.11
596.089	25059.46
596.286	25077.89
596.482	24869
596.679	24832.13
596.876	24717.45
597.072	24678.54
597.269	25145.47
597.466	24666.25
597.662	24608.9
597.859	24516.75
598.055	24391.82
598.252	24209.55
598.448	24512.65
598.645	24291.47
598.841	24072.34
599.038	24320.14
599.234	24199.31
599.431	23668.89
599.627	23750.81
599.824	23969.94
600.02	23574.68
600.217	23560.34
600.413	23490.71
600.609	23541.91
600.806	23572.63
601.002	23244.96
601.198	23294.11
601.395	23359.64
601.591	23120.03
601.787	23425.18
601.984	23048.35
602.18	23570.58
602.376	22929.57
602.572	22847.65
602.769	22892.71
602.965	22782.12
603.161	22911.14
603.357	22655.14
603.553	22366.38
603.75	22511.78
603.946	22356.14
604.142	22370.47
604.338	22149.29
604.534	22192.3
604.73	22028.46
604.926	22173.87
605.122	22235.31
605.318	21915.83
605.514	21696.69
605.71	21764.28
605.906	22057.14
606.102	21432.5
606.298	21731.51
606.494	21694.64
606.69	21676.21
606.886	21625.01
607.082	21086.4
607.278	21604.53
607.474	21067.97
607.67	21289.15
607.866	20918.46
608.062	21221.56
608.257	21438.65
608.453	20949.18
608.649	20969.66
608.845	20920.51
609.041	20736.2
609.236	20846.79
609.432	21035.2
609.628	20701.38
609.824	20885.7
610.019	20562.12
610.215	20807.87
610.411	20705.48
610.606	20496.58
610.802	20463.82
610.998	20533.45
611.193	20515.01
611.389	20222.16
611.584	20361.42
611.78	20195.53
611.976	20467.91
612.171	20320.46
612.367	20338.89
612.562	20359.37
612.758	19798.23
612.953	19765.46
613.149	20287.69
613.344	19742.93
613.539	20291.79
613.735	19947.73
613.93	20146.38
614.126	19710.16
614.321	19988.69
614.517	19900.62
614.712	19843.28
614.907	19540.18
615.103	19671.25
615.298	19646.68
615.493	19753.17
615.688	19525.85
615.884	19775.7
616.079	19220.7
616.274	19329.24
616.47	19103.96
616.665	19419.35
616.86	19425.5
617.055	19296.47
617.25	19275.99
617.445	19691.73
617.641	18841.82
617.836	19192.03
618.031	18901.22
618.226	19044.57
618.421	18823.39
618.616	19126.49
618.811	18653.41
619.006	18962.65
619.201	18512.1
619.396	18481.38
619.591	18313.45
619.786	18538.73
619.981	18540.77
620.176	18514.15
620.371	18538.73
620.566	18252.01
620.761	17893.61
620.956	18333.93
621.151	18110.7
621.346	17918.19
621.541	17742.07
621.735	17752.31
621.93	17643.76
622.125	17664.24
622.32	17213.69
622.515	17682.67
622.709	17232.12
622.904	17264.89
623.099	17150.2
623.294	17125.63
623.488	16910.59
623.683	16845.05
623.878	16646.4
624.072	16773.38
624.267	16726.27
624.462	16593.15
624.656	16371.97
624.851	16236.81
625.046	16109.83
625.24	16175.37
625.435	15915.28
625.629	16083.21
625.824	15974.67
626.018	15931.66
626.213	15321.37
626.407	15790.35
626.602	15511.83
626.796	15575.31
626.991	15522.07
627.185	15563.03
627.38	15294.74
627.574	15153.43
627.768	15141.14
627.963	14928.16
628.157	14764.32
628.352	14946.59
628.546	14670.11
628.74	14604.58
628.935	14592.29
629.129	14383.4
629.323	14176.55
629.517	14485.79
629.712	14123.3
629.906	14469.41
630.1	14018.86
630.294	14215.46
630.489	13981.99
630.683	14018.86
630.877	13834.54
631.071	13650.22
631.265	13969.71
631.459	13392.18
631.653	13400.37
631.848	13515.06
632.042	13336.88
632.236	13371.7
632.43	13267.25
632.624	13474.1
632.818	13052.22
633.012	12853.56
633.206	12923.19
633.4	13089.08
633.594	12872
633.788	12888.38
633.982	12820.8
634.176	12718.4
634.369	12794.17
634.563	12781.88
634.757	12581.18
634.951	12335.43
635.145	12607.81
635.339	12310.85
635.533	12208.45
635.726	12261.7
635.92	12161.35
636.114	12190.02
636.308	12024.14
636.501	12081.48
636.695	12036.42
636.889	11782.48
637.083	11868.49
637.276	11753.8
637.47	11612.49
637.664	11465.04
637.857	11544.91
638.051	11506
638.244	11497.81
638.438	11520.34
638.632	11374.93
638.825	11280.72
639.019	11061.59
639.212	11086.17
639.406	11082.07
639.599	10955.1
639.793	11145.56
639.986	10733.92
640.18	10826.07
640.373	10877.27
640.567	10619.23
640.76	10641.76
640.954	10553.69
641.147	10584.41
641.34	10396
641.534	10516.83
641.727	10506.59
641.92	10389.86
642.114	10295.65
642.307	10330.47
642.5	10066.28
642.694	10164.58
642.887	9959.78
643.08	10041.7
643.273	9953.64
643.467	9951.59
643.66	9873.77
643.853	9738.6
644.046	9593.2
644.239	9722.22
644.432	9548.14
644.626	9617.77
644.819	9568.62
645.012	9472.37
645.205	9447.79
645.398	9296.24
645.591	9353.59
645.784	9283.95
645.977	9177.46
646.17	8958.33
646.363	9056.63
646.556	8984.95
646.749	8935.8
646.942	8911.22
647.135	8853.88
647.328	8749.43
647.521	8802.68
647.714	8694.14
647.907	8569.21
648.099	8601.98
648.292	8614.27
648.485	8411.52
648.678	8354.18
648.871	8401.28
649.064	8454.53
649.256	8345.98
649.449	8331.65
649.642	8370.56
649.835	7995.78
650.027	8118.66
650.22	8014.21
650.413	8001.93
650.605	7864.71
650.798	7897.48
650.991	7907.72
651.183	7729.55
651.376	7909.77
651.568	7803.27
651.761	7723.4
651.954	7530.89
652.146	7489.93
652.339	7584.14
652.531	7569.8
652.724	7463.31
652.916	7297.42
653.109	7473.55
653.301	7385.49
653.494	7299.47
653.686	7221.65
653.879	7289.23
654.071	7100.82
654.263	7039.38
654.456	7002.52
654.648	7188.88
654.84	6902.17
655.033	6941.08
655.225	6992.28
655.417	6773.14
655.61	6867.35
655.802	6920.6
655.994	6668.7
656.186	6586.78
656.379	6443.42
656.571	6674.84
656.763	6605.21
656.955	6468
657.148	6609.31
657.34	6457.76
657.532	6214.05
657.724	6275.49
657.916	6240.67
658.108	6457.76
658.3	6158.75
658.492	6275.49
658.684	6154.66
658.876	6232.48
659.068	6150.56
659.26	6037.92
659.452	6113.7
659.644	5884.33
659.836	5835.17
660.028	5931.43
660.22	5736.87
660.412	5724.58
660.604	5710.25
660.796	5747.11
660.988	5706.15
661.18	5431.73
661.372	5525.93
661.563	5525.93
661.755	5345.71
661.947	5593.51
662.139	5564.84
662.331	5376.43
662.522	5323.18
662.714	5388.72
662.906	5233.07
663.097	5220.78
663.289	5196.21
663.481	5038.52
663.673	5153.2
663.864	5020.08
664.056	5022.13
664.247	5112.24
664.439	4936.12
664.631	4944.31
664.822	4950.45
665.014	4813.24
665.205	4843.96
665.397	4716.98
665.588	4759.99
665.78	4661.69
665.971	4647.35
666.163	4817.33
666.354	4649.4
666.546	4604.35
666.737	4512.19
666.929	4524.47
667.12	4534.71
667.311	4446.65
667.503	4438.46
667.694	4415.93
667.885	4245.95
668.077	4254.14
668.268	4317.63
668.459	4282.81
668.651	4368.83
668.842	4204.99
669.033	4145.6
669.224	4110.79
669.416	4182.46
669.607	4139.46
669.798	4008.39
669.989	4131.26
670.18	4063.68
670.371	3942.85
670.563	3963.33
670.754	3916.23
670.945	3934.66
671.136	3770.82
671.327	3893.7
671.518	3680.71
671.709	3854.79
671.9	3842.5
672.091	3826.12
672.282	3783.11
672.473	3697.1
672.664	3703.24
672.855	3611.08
673.046	3662.28
673.237	3686.86
673.428	3682.76
673.619	3572.17
673.809	3684.81
674	3570.12
674.191	3492.3
674.382	3584.46
674.573	3523.02
674.764	3500.49
674.954	3535.31
675.145	3412.43
675.336	3373.52
675.527	3391.95
675.717	3463.63
675.908	3410.38
676.099	3240.4
676.289	3301.84
676.48	3367.37
676.671	3213.77
676.861	3236.3
677.052	3181.01
677.243	3133.9
677.433	3275.21
677.624	3355.08
677.814	3191.25
678.005	3238.35
678.195	3164.62
678.386	3066.32
678.576	3015.12
678.767	3111.38
678.957	3115.47
679.148	3197.39
679.338	3111.38
679.529	3064.27
679.719	2929.11
679.909	2965.97
680.1	3062.23
680.29	2976.21
680.481	2931.16
680.671	3006.93
680.861	2894.29
681.052	3008.98
681.242	2970.07
681.432	2853.33
681.622	2943.44
681.813	2849.24
682.003	2992.59
682.193	2873.81
682.383	2927.06
682.573	2927.06
682.764	2939.35
682.954	2879.96
683.144	2937.3
683.334	2851.28
683.524	2890.2
683.714	2939.35
683.904	2836.95
684.094	2865.62
684.284	2861.52
684.474	2812.37
684.664	2787.8
684.854	2775.51
685.044	2851.28
685.234	2851.28
685.424	2904.53
685.614	2787.8
685.804	2857.43
685.994	2718.17
686.184	2816.47
686.374	2918.87
686.564	2761.17
686.753	2820.56
686.943	2845.14
687.133	2734.55
687.323	2759.13
687.513	2757.08
687.702	2875.86
687.892	2650.58
688.082	2705.88
688.272	2896.34
688.461	2677.21
688.651	2656.73
688.841	2718.17
689.03	2705.88
689.22	2767.32
689.41	2742.74
689.599	2771.41
689.789	2759.13
689.979	2707.93
690.168	2673.11
690.358	2773.46
690.547	2638.3
690.737	2695.64
690.926	2722.26
691.116	2650.58
691.305	2656.73
691.495	2626.01
691.684	2615.77
691.874	2531.8
692.063	2615.77
692.252	2652.63
692.442	2777.56
692.631	2542.04
692.82	2517.47
693.01	2628.06
693.199	2527.71
693.388	2617.82
693.578	2548.19
693.767	2550.23
693.956	2607.58
694.146	2591.19
694.335	2511.32
694.524	2486.75
694.713	2537.95
694.902	2478.55
695.092	2480.6
695.281	2560.47
695.47	2453.98
695.659	2496.99
695.848	2466.27
696.037	2603.48
696.226	2476.51
696.415	2480.6
696.604	2474.46
696.793	2402.78
696.982	2494.94
697.171	2453.98
697.36	2464.22
697.549	2445.79
697.738	2408.92
697.927	2513.37
698.116	2298.33
698.305	2402.78
698.494	2339.29
698.683	2308.57
698.872	2288.09
699.061	2238.94
699.25	2460.12
699.438	2431.45
699.627	2277.85
699.816	2318.81
700.005	2228.7
700.193	2267.61
700.382	2259.42
700.571	2277.85
700.76	2271.71
700.948	2333.15
701.137	2218.46
701.326	2134.5
701.514	2204.13
701.703	2243.04
701.892	2222.56
702.08	2185.69
702.269	2177.5
702.457	2148.83
702.646	2214.37
702.834	2230.75
703.023	2218.46
703.212	2185.69
703.4	2185.69
703.589	2122.21
703.777	2114.02
703.965	1995.23
704.154	2101.73
704.342	2019.81
704.531	2009.57
704.719	1995.23
704.907	1984.99
705.096	1980.9
705.284	2107.87
705.472	2028
705.661	1984.99
705.849	2107.87
706.037	1927.65
706.226	1927.65
706.414	1870.31
706.602	1911.27
706.79	1843.68
706.979	1853.92
707.167	1923.55
707.355	1802.72
707.543	1845.73
707.731	1808.87
707.919	1915.36
708.107	1810.92
708.296	1800.68
708.484	1843.68
708.672	1833.44
708.86	1817.06
709.048	1741.29
709.236	1874.4
709.424	1837.54
709.612	1810.92
709.8	1704.42
709.988	1743.33
710.176	1794.53
710.364	1714.66
710.551	1700.33
710.739	1757.67
710.927	1673.7
711.115	1753.57
711.303	1724.9
711.491	1663.46
711.679	1704.42
711.866	1688.04
712.054	1657.32
712.242	1712.61
712.43	1673.7
712.617	1583.59
712.805	1632.74
712.993	1651.17
713.181	1661.41
713.368	1577.45
713.556	1530.34
713.744	1583.59
713.931	1661.41
714.119	1638.89
714.306	1499.63
714.494	1513.96
714.682	1466.86
714.869	1489.39
715.057	1589.74
715.244	1489.39
715.432	1534.44
715.619	1489.39
715.807	1526.25
715.994	1323.5
716.182	1464.81
716.369	1417.71
716.556	1544.68
716.744	1374.7
716.931	1470.95
717.119	1319.4
717.306	1419.75
717.493	1397.23
717.681	1384.94
717.868	1462.76
718.055	1321.45
718.242	1372.65
718.43	1374.7
718.617	1327.6
718.804	1331.69
718.991	1370.6
719.179	1313.26
719.366	1313.26
719.553	1274.35
719.74	1188.33
719.927	1266.16
720.114	1204.72
720.301	1288.68
720.488	1200.62
720.676	1186.29
720.863	1233.39
721.05	1239.53
721.237	1272.3
721.424	1303.02
721.611	1184.24
721.798	1184.24
721.985	1296.88
722.172	1202.67
722.358	1182.19
722.545	1196.53
722.732	1169.9
722.919	1159.66
723.106	1085.94
723.293	1124.85
723.48	1141.23
723.667	1028.59
723.853	1204.72
724.04	1147.37
724.227	1137.13
724.414	1120.75
724.6	1108.46
724.787	1120.75
724.974	1092.08
725.161	1018.35
725.347	1065.46
725.534	1055.22
725.72	1090.03
725.907	1202.67
726.094	948.72
726.28	909.81
726.467	1061.36
726.653	1022.45
726.84	1026.54
727.027	1063.41
727.213	1028.59
727.4	989.68
727.586	1110.51
727.773	1020.4
727.959	866.8
728.145	1028.59
728.332	1069.55
728.518	934.39
728.705	991.73
728.891	1008.11
729.077	1024.5
729.264	864.75
729.45	965.11
729.636	924.15
729.823	938.48
730.009	936.43
730.195	985.58
730.382	999.92
730.568	1004.02
730.754	938.48
730.94	924.15
731.126	913.91
731.313	877.04
731.499	973.3
731.685	932.34
731.871	899.57
732.057	850.42
732.243	786.93
732.429	879.09
732.615	977.39
732.801	911.86
732.987	829.94
733.173	903.67
733.359	858.61
733.545	922.1
733.731	887.28
733.917	850.42
734.103	778.74
734.289	838.13
734.475	829.94
734.661	836.08
734.847	768.5
735.033	846.32
735.219	840.18
735.404	784.88
735.59	713.21
735.776	780.79
735.962	795.12
736.148	858.61
736.333	754.16
736.519	842.23
736.705	739.83
736.89	776.69
737.076	653.81
737.262	731.64
737.447	786.93
737.633	690.68
737.819	713.21
738.004	727.54
738.19	666.1
738.375	707.06
738.561	737.78
738.747	762.36
738.932	670.2
739.118	772.6
739.303	727.54
739.489	731.64
739.674	651.77
739.859	633.33
740.045	610.81
740.23	686.58
740.416	655.86
740.601	653.81
740.786	702.97
740.972	645.62
741.157	692.73
741.342	666.1
741.528	649.72
741.713	786.93
741.898	647.67
742.084	573.94
742.269	682.49
742.454	610.81
742.639	702.97
742.824	696.82
743.01	651.77
743.195	569.85
743.38	602.61
743.565	608.76
743.75	535.03
743.935	596.47
744.12	643.57
744.305	592.37
744.49	608.76
744.675	547.32
744.86	596.47
745.045	535.03
745.23	600.57
745.415	543.22
745.6	561.66
745.785	537.08
745.97	608.76
746.155	567.8
746.34	604.66
746.525	590.33
746.71	547.32
746.895	518.65
747.079	528.89
747.264	512.5
747.449	592.37
747.634	526.84
747.819	555.51
748.003	543.22
748.188	537.08
748.373	522.74
748.557	578.04
748.742	582.14
748.927	492.02
749.111	502.26
749.296	532.98
749.481	485.88
749.665	569.85
749.85	526.84
750.034	522.74
750.219	481.78
750.404	449.02
750.588	432.63
750.773	500.22
750.957	479.74
751.141	434.68
751.326	446.97
751.51	469.5
751.695	379.39
751.879	432.63
752.064	471.54
752.248	498.17
752.432	420.35
752.617	406.01
752.801	406.01
752.985	461.3
753.17	455.16
753.354	442.87
753.538	469.5
753.722	426.49
753.907	373.24
754.091	383.48
754.275	453.11
754.459	422.39
754.643	379.39
754.828	395.77
755.012	354.81
755.196	401.91
755.38	377.34
755.564	367.1
755.748	412.15
755.932	463.35
756.116	449.02
756.3	365.05
756.484	436.73
756.668	328.19
756.852	371.19
757.036	344.57
757.22	330.23
757.404	346.62
757.588	373.24
757.772	387.58
757.956	389.63
758.14	311.8
758.323	393.72
758.507	354.81
758.691	276.99
758.875	344.57
759.059	330.23
759.242	350.71
759.426	279.04
759.61	428.54
759.794	360.95
759.977	352.76
760.161	379.39
760.345	332.28
760.528	408.06
760.712	330.23
760.895	322.04
761.079	317.95
761.263	291.32
761.446	313.85
761.63	365.05
761.813	340.47
761.997	297.47
762.18	348.67
762.364	332.28
762.547	369.15
762.731	260.6
762.914	289.28
763.098	356.86
763.281	326.14
763.464	291.32
763.648	240.12
763.831	281.08
764.015	236.03
764.198	358.91
764.381	317.95
764.564	344.57
764.748	297.47
764.931	270.84
765.114	330.23
765.297	356.86
765.481	326.14
765.664	320
765.847	283.13
766.03	389.63
766.213	260.6
766.397	293.37
766.58	264.7
766.763	324.09
766.946	289.28
767.129	231.93
767.312	276.99
767.495	301.56
767.678	270.84
767.861	309.76
768.044	295.42
768.227	303.61
768.41	295.42
768.593	354.81
768.776	274.94
768.959	299.52
769.142	301.56
769.324	272.89
769.507	281.08
769.69	289.28
769.873	313.85
770.056	315.9
770.239	233.98
770.421	393.72
770.604	281.08
770.787	291.32
770.97	324.09
771.152	223.74
771.335	260.6
771.518	389.63
771.7	281.08
771.883	254.46
772.066	254.46
772.248	313.85
772.431	244.22
772.613	272.89
772.796	266.75
772.978	305.66
773.161	274.94
773.343	256.51
773.526	254.46
773.708	252.41
773.891	168.45
774.073	326.14
774.256	199.16
774.438	283.13
774.621	233.98
774.803	221.69
774.985	233.98
775.168	289.28
775.35	213.5
775.532	256.51
775.715	199.16
775.897	229.88
776.079	289.28
776.261	313.85
776.444	244.22
776.626	260.6
776.808	223.74
776.99	203.26
777.173	209.4
777.355	199.16
777.537	211.45
777.719	258.56
777.901	170.49
778.083	227.84
778.265	215.55
778.447	231.93
778.629	168.45
778.811	207.36
778.993	225.79
779.175	164.35
779.357	150.01
779.539	219.64
779.721	180.73
779.903	141.82
780.085	315.9
780.267	225.79
780.449	150.01
780.631	139.77
780.812	184.83
780.994	250.36
781.176	158.21
781.358	143.87
781.54	207.36
781.721	180.73
781.903	207.36
782.085	162.3
782.267	170.49
782.448	170.49
782.63	137.73
782.812	182.78
782.993	172.54
783.175	143.87
783.357	133.63
783.538	176.64
783.72	225.79
783.901	168.45
784.083	176.64
784.264	162.3
784.446	119.29
784.627	184.83
784.809	160.25
784.99	164.35
785.172	117.25
785.353	199.16
785.535	170.49
785.716	158.21
785.897	184.83
786.079	213.5
786.26	186.88
786.441	170.49
786.623	137.73
786.804	201.21
786.985	94.72
787.167	168.45
787.348	113.15
787.529	145.92
787.71	256.51
787.891	104.96
788.073	137.73
788.254	102.91
788.435	172.54
788.616	147.97
788.797	121.34
788.978	72.19
789.159	18.94
789.34	131.58
789.522	72.19
789.703	137.73
789.884	160.25
790.065	154.11
790.246	100.86
790.427	190.97
790.607	129.53
790.788	92.67
790.969	172.54
791.15	150.01
791.331	92.67
791.512	92.67
791.693	197.12
791.874	168.45
792.054	131.58
792.235	104.96
792.416	98.81
792.597	139.77
792.778	104.96
792.958	162.3
793.139	86.53
793.32	117.25
793.5	92.67
793.681	143.87
793.862	133.63
794.042	119.29
794.223	102.91
794.404	102.91
794.584	104.96
794.765	125.44
794.945	37.38
795.126	137.73
795.306	107.01
795.487	41.47
795.667	109.05
795.848	104.96
796.028	39.42
796.209	121.34
796.389	109.05
796.57	72.19
796.75	92.67
796.93	61.95
797.111	76.29
797.291	55.81
797.471	84.48
797.652	125.44
797.832	37.38
798.012	55.81
798.192	57.86
798.373	72.19
798.553	59.9
798.733	90.62
798.913	43.52
799.093	86.53
799.274	104.96
799.454	96.77
799.634	51.71
799.814	100.86
799.994	160.25
800.174	66.05
800.354	64
800.534	123.39
800.714	111.1
800.894	61.95
801.074	96.77
801.254	53.76
801.434	172.54
801.614	119.29
801.794	23.04
801.974	311.8
802.154	74.24
802.334	111.1
802.514	88.57
802.693	154.11
802.873	123.39
803.053	98.81
803.233	72.19
803.413	51.71
803.592	88.57
803.772	68.09
803.952	109.05
804.131	76.29
804.311	70.14
804.491	55.81
804.67	31.23
804.85	0.51
805.03	82.43
805.209	111.1
805.389	51.71
805.568	29.18
805.748	29.18
805.928	10.75
806.107	70.14
806.287	59.9
806.466	51.71
806.646	53.76
806.825	45.57
807.004	125.44
807.184	78.33
807.363	-3.58
807.543	59.9
807.722	16.9
807.901	102.91
808.081	117.25
808.26	-1.54
808.439	94.72
808.619	41.47
808.798	119.29
808.977	29.18
809.156	66.05
809.336	88.57
809.515	-1.54
809.694	18.94
809.873	-3.58
810.052	43.52
810.231	-1.54
810.411	135.68
810.59	-5.63
810.769	18.94
810.948	72.19
811.127	-11.78
811.306	78.33
811.485	10.75
811.664	51.71
811.843	53.76
812.022	12.8
812.201	76.29
812.38	41.47
812.559	0.51
812.737	39.42
812.916	68.09
813.095	49.66
813.274	35.33
813.453	-19.97
813.632	109.05
813.811	86.53
813.989	-1.54
814.168	51.71
814.347	18.94
814.526	-1.54
814.704	100.86
814.883	74.24
815.062	0.51
815.24	12.8
815.419	125.44
815.598	37.38
815.776	16.9
815.955	78.33
816.133	49.66
816.312	2.56
816.49	12.8
816.669	35.33
816.847	59.9
817.026	55.81
817.204	23.04
817.383	53.76
817.561	-3.58
817.74	49.66
817.918	-19.97
818.097	20.99
818.275	20.99
818.453	-28.16
818.632	51.71
818.81	61.95
818.988	170.49
819.167	-34.3
819.345	39.42
819.523	51.71
819.701	37.38
819.879	25.09
820.058	14.85
820.236	45.57
820.414	64
820.592	29.18
820.77	59.9
820.948	0.51
821.127	-19.97
821.305	18.94
821.483	20.99
821.661	10.75
821.839	27.14
822.017	27.14
822.195	72.19
822.373	25.09
822.551	14.85
822.729	14.85
822.907	8.7
823.085	27.14
823.262	6.66
823.44	8.7
823.618	-38.4
823.796	59.9
823.974	-15.87
824.152	-15.87
824.329	35.33
824.507	47.62
824.685	49.66
824.863	39.42
825.04	8.7
825.218	2.56
825.396	43.52
825.574	-11.78
825.751	-5.63
825.929	76.29
826.107	12.8
826.284	35.33
826.462	43.52
826.639	-3.58
826.817	-22.02
826.994	37.38
827.172	-50.69
827.349	66.05
827.527	-36.35
827.704	12.8
827.882	-9.73
828.059	53.76
828.237	59.9
828.414	57.86
828.591	-44.54
828.769	35.33
828.946	-22.02
829.124	20.99
829.301	-38.4
829.478	16.9
829.655	10.75
829.833	-9.73
830.01	41.47
830.187	-50.69
830.364	53.76
830.542	74.24
830.719	51.71
830.896	45.57
831.073	-34.3
831.25	68.09
831.427	-26.11
831.604	29.18
831.782	-19.97
831.959	18.94
832.136	49.66
832.313	-19.97
832.49	-42.5
832.667	2.56
832.844	-7.68
833.021	33.28
833.198	-9.73
833.374	6.66
833.551	18.94
833.728	-17.92
833.905	27.14
834.082	10.75
834.259	-24.06
834.436	-13.82
834.612	-60.93
834.789	25.09
834.966	23.04
835.143	-28.16
835.319	-95.74
835.496	68.09
835.673	-24.06
835.85	31.23
836.026	-36.35
836.203	18.94
836.38	-26.11
836.556	8.7
836.733	49.66
836.909	45.57
837.086	55.81
837.262	41.47
837.439	-19.97
837.616	-62.98
837.792	0.51
837.968	-38.4
838.145	-36.35
838.321	23.04
838.498	-34.3
838.674	-40.45
838.851	12.8
839.027	18.94
839.203	-30.21
839.38	23.04
839.556	-22.02
839.732	20.99
839.909	-36.35
840.085	-1.54
840.261	10.75
840.437	-28.16
840.614	20.99
840.79	-1.54
840.966	14.85
841.142	-7.68
841.318	4.61
841.494	-60.93
841.671	-1.54
841.847	-30.21
842.023	-30.21
842.199	-42.5
842.375	-24.06
842.551	14.85
842.727	23.04
842.903	43.52
843.079	18.94
843.255	-5.63
843.431	25.09
843.607	90.62
843.783	43.52
843.959	10.75
844.134	8.7
844.31	-3.58
844.486	16.9
844.662	39.42
844.838	8.7
845.013	12.8
845.189	-22.02
845.365	-22.02
845.541	-50.69
845.716	8.7
845.892	0.51
846.068	-36.35
846.244	-7.68
846.419	-9.73
846.595	-40.45
846.77	-17.92
846.946	-19.97
847.122	-48.64
847.297	-44.54
847.473	25.09
847.648	18.94
847.824	-40.45
847.999	2.56
848.175	27.14
848.35	-3.58
848.526	6.66
848.701	35.33
848.876	-7.68
849.052	10.75
849.227	-24.06
849.403	-54.78
849.578	-30.21
849.753	-58.88
849.929	2.56
850.104	18.94
850.279	-112.13
850.454	0.51
850.63	12.8
850.805	0.51
850.98	31.23
851.155	37.38
851.33	-48.64
851.505	-69.12
851.681	-38.4
851.856	35.33
852.031	-52.74
852.206	4.61
852.381	66.05
852.556	64
852.731	51.71
852.906	20.99
853.081	23.04
853.256	-38.4
853.431	-44.54
853.606	35.33
853.781	4.61
853.956	6.66
854.131	-28.16
854.305	4.61
854.48	33.28
854.655	-97.79
854.83	-3.58
855.005	-28.16
855.18	27.14
855.354	-65.02
855.529	-48.64
855.704	-15.87
855.879	-11.78
856.053	4.61
856.228	59.9
856.403	-60.93
856.577	-13.82
856.752	53.76
856.926	-19.97
857.101	27.14
857.276	2.56
857.45	84.48
857.625	117.25
857.799	-1.54
857.974	61.95
858.148	18.94
858.323	45.57
858.497	-17.92
858.672	6.66
858.846	-3.58
859.02	45.57
859.195	20.99
859.369	-13.82
859.543	-13.82
859.718	66.05
859.892	-91.65
860.066	10.75
860.241	-22.02
860.415	-30.21
860.589	-36.35
860.763	31.23
860.938	-30.21
861.112	10.75
861.286	-42.5
861.46	2.56
861.634	-56.83
861.808	-34.3
861.982	10.75
862.157	-3.58
862.331	37.38
862.505	-19.97
862.679	-9.73
862.853	23.04
863.027	0.51
863.201	18.94
863.375	6.66
863.549	-130.56
863.722	-36.35
863.896	-3.58
864.07	29.18
864.244	55.81
864.418	-24.06
864.592	-15.87
864.766	-30.21
864.939	-44.54
865.113	-26.11
865.287	35.33
865.461	-46.59
865.634	-28.16
865.808	29.18
865.982	0.51
866.156	27.14
866.329	-7.68
866.503	-5.63
866.676	-5.63
866.85	49.66
867.024	18.94
867.197	-36.35
867.371	6.66
867.544	-48.64
867.718	-79.36
867.891	-30.21
868.065	14.85
868.238	2.56
868.412	68.09
868.585	-17.92
868.759	-32.26
868.932	-26.11
869.105	-22.02
869.279	0.51
869.452	51.71
869.625	-13.82
869.799	-22.02
869.972	10.75
870.145	-17.92
870.319	4.61
870.492	-46.59
870.665	-30.21
870.838	23.04
871.011	-30.21
871.185	-34.3
871.358	14.85
871.531	-11.78
871.704	4.61
871.877	49.66
872.05	-69.12
872.223	-28.16
872.396	8.7
872.569	-17.92
872.742	-26.11
872.915	41.47
873.088	25.09
873.261	-17.92
873.434	-30.21
873.607	12.8
873.78	-28.16
873.953	-79.36
874.126	6.66
874.299	29.18
874.471	-32.26
874.644	12.8
874.817	27.14
874.99	39.42
875.163	-32.26
875.335	-19.97
875.508	-58.88
875.681	-19.97
875.853	-15.87
876.026	2.56
876.199	-101.89
876.371	18.94
876.544	-34.3
876.717	12.8
876.889	-87.55
877.062	57.86
877.234	-17.92
877.407	18.94
877.579	12.8
877.752	43.52
877.924	-13.82
878.097	57.86
878.269	-36.35
878.442	18.94
878.614	-71.17
878.786	37.38
878.959	-40.45
879.131	-5.63
879.303	-3.58
879.476	-36.35
879.648	2.56
879.82	-11.78
879.993	33.28
880.165	-5.63
880.337	10.75
880.509	23.04
880.681	12.8
880.854	-54.78
881.026	-77.31
881.198	37.38
881.37	66.05
881.542	-28.16
881.714	16.9
881.886	33.28
882.058	14.85
882.23	-105.98
882.402	-5.63
882.574	20.99
882.746	0.51
882.918	10.75
883.09	-5.63
883.262	29.18
883.434	-95.74
883.606	-54.78
883.778	-38.4
883.95	61.95
884.122	12.8
884.293	-7.68
884.465	-48.64
884.637	-13.82
884.809	-5.63
884.98	8.7
885.152	4.61
885.324	-67.07
885.496	4.61
885.667	10.75
885.839	16.9
886.011	-7.68
886.182	4.61
886.354	27.14
886.525	4.61
886.697	61.95
886.869	-62.98
887.04	2.56
887.212	64
887.383	8.7
887.555	-30.21
887.726	-54.78
887.897	-13.82
888.069	-28.16
888.24	-67.07
888.412	-24.06
888.583	-28.16
888.754	-7.68
888.926	-62.98
889.097	-3.58
889.268	102.91
889.44	-75.26
889.611	-28.16
889.782	-44.54
889.953	-13.82
890.125	-26.11
890.296	-5.63
890.467	41.47
890.638	4.61
890.809	-1.54
890.98	33.28
891.151	-40.45
891.323	0.51
891.494	-11.78
891.665	-3.58
891.836	6.66
892.007	-65.02
892.178	-28.16
892.349	-30.21
892.52	0.51
892.691	-5.63
892.862	6.66
893.032	-13.82
893.203	29.18
893.374	-9.73
893.545	-30.21
893.716	12.8
893.887	14.85
894.057	2.56
894.228	6.66
894.399	-75.26
894.57	0.51
894.74	-91.65
894.911	-30.21
895.082	-36.35
895.253	-50.69
895.423	-48.64
895.594	18.94
895.764	-42.5
895.935	2.56
896.106	-44.54
896.276	4.61
896.447	-48.64
896.617	-30.21
896.788	-9.73
896.958	10.75
897.129	4.61
897.299	-50.69
897.47	-38.4
897.64	-17.92
897.81	4.61
897.981	-42.5
898.151	-52.74
898.322	-42.5
898.492	-22.02
898.662	-40.45
898.832	25.09
899.003	-11.78
899.173	-5.63
899.343	-54.78
899.513	-28.16
