Data from USB4F104151__16__12-53-21-788.txt Node

Date: Fri Mar 14 12:53:21 EDT 2025
User: louis
Spectrometer: USB4F10415
Trigger mode: 4
Integration Time (sec): 1.000000E-2
Scans to average: 1
Electric dark correction enabled: true
Nonlinearity correction enabled: false
Boxcar width: 0
XAxis mode: Wavelengths
Number of Pixels in Spectrum: 3648
>>>>>Begin Spectral Data<<<<<
178.204	-56.49
178.424	-56.49
178.644	-56.49
178.864	-25.77
179.084	-52.39
179.304	-58.54
179.524	-11.43
179.744	-23.72
179.964	-3.24
180.184	33.62
180.404	27.48
180.624	45.91
180.844	-50.35
181.064	-15.53
181.283	47.96
181.503	23.38
181.723	-15.53
181.943	11.09
182.163	41.81
182.383	-81.07
182.602	15.19
182.822	-17.58
183.042	-9.39
183.262	33.62
183.482	-46.25
183.701	-9.39
183.921	-76.97
184.141	-44.2
184.361	-17.58
184.58	4.95
184.8	-11.43
185.02	0.85
185.239	58.2
185.459	54.1
185.679	31.57
185.898	19.29
186.118	-50.35
186.338	66.39
186.557	68.44
186.777	74.58
186.997	-13.48
187.216	-21.67
187.436	78.68
187.655	4.95
187.875	56.15
188.095	-93.35
188.314	7
188.534	41.81
188.753	-5.29
188.973	86.87
189.192	11.09
189.412	25.43
189.631	7
189.851	-21.67
190.07	95.06
190.29	47.96
190.509	33.62
190.729	-40.11
190.948	-1.19
191.168	-9.39
191.387	19.29
191.607	41.81
191.826	29.52
192.045	-15.53
192.265	-48.3
192.484	-48.3
192.704	4.95
192.923	-31.91
193.142	-40.11
193.362	-21.67
193.581	62.29
193.8	-40.11
194.02	-21.67
194.239	-38.06
194.458	-36.01
194.678	-5.29
194.897	13.14
195.116	-17.58
195.335	-17.58
195.555	21.33
195.774	-52.39
195.993	-9.39
196.212	52.05
196.432	-11.43
196.651	27.48
196.87	-27.82
197.089	78.68
197.308	-19.63
197.528	56.15
197.747	11.09
197.966	41.81
198.185	76.63
198.404	0.85
198.623	-23.72
198.842	-36.01
199.062	-3.24
199.281	-21.67
199.5	27.48
199.719	39.76
199.938	17.24
200.157	0.85
200.376	-93.35
200.595	0.85
200.814	35.67
201.033	-1.19
201.252	7
201.471	23.38
201.69	-46.25
201.909	-21.67
202.128	62.29
202.347	58.2
202.566	-52.39
202.785	-42.15
203.004	-46.25
203.223	7
203.442	68.44
203.661	27.48
203.879	50
204.098	-40.11
204.317	-19.63
204.536	31.57
204.755	-9.39
204.974	-11.43
205.193	-3.24
205.411	-5.29
205.63	-36.01
205.849	37.72
206.068	-21.67
206.287	23.38
206.505	2.9
206.724	43.86
206.943	15.19
207.162	47.96
207.381	-19.63
207.599	-23.72
207.818	-64.68
208.037	-11.43
208.255	-1.19
208.474	-1.19
208.693	-5.29
208.911	7
209.13	-25.77
209.349	9.05
209.567	19.29
209.786	29.52
210.005	-5.29
210.223	-15.53
210.442	-21.67
210.661	17.24
210.879	9.05
211.098	31.57
211.316	-15.53
211.535	-1.19
211.753	-56.49
211.972	13.14
212.191	0.85
212.409	-7.34
212.628	64.34
212.846	11.09
213.065	-36.01
213.283	-3.24
213.502	60.24
213.72	86.87
213.938	-54.44
214.157	-27.82
214.375	35.67
214.594	-23.72
214.812	-29.87
215.031	17.24
215.249	39.76
215.467	33.62
215.686	23.38
215.904	45.91
216.122	60.24
216.341	62.29
216.559	21.33
216.778	-1.19
216.996	-74.92
217.214	33.62
217.432	15.19
217.651	-36.01
217.869	-1.19
218.087	45.91
218.306	-31.91
218.524	7
218.742	-13.48
218.96	43.86
219.179	50
219.397	33.62
219.615	19.29
219.833	-15.53
220.051	-33.96
220.27	7
220.488	-15.53
220.706	35.67
220.924	27.48
221.142	41.81
221.36	21.33
221.578	17.24
221.796	-23.72
222.015	113.49
222.233	9.05
222.451	11.09
222.669	-25.77
222.887	-3.24
223.105	-3.24
223.323	70.48
223.541	103.25
223.759	19.29
223.977	64.34
224.195	45.91
224.413	-15.53
224.631	62.29
224.849	50
225.067	21.33
225.285	-74.92
225.503	62.29
225.721	23.38
225.939	23.38
226.157	52.05
226.375	33.62
226.592	-33.96
226.81	17.24
227.028	11.09
227.246	25.43
227.464	25.43
227.682	47.96
227.9	41.81
228.117	54.1
228.335	-54.44
228.553	-1.19
228.771	50
228.989	35.67
229.206	-17.58
229.424	23.38
229.642	15.19
229.86	84.82
230.077	-21.67
230.295	52.05
230.513	15.19
230.731	31.57
230.948	-1.19
231.166	45.91
231.384	-27.82
231.601	33.62
231.819	-13.48
232.037	33.62
232.254	13.14
232.472	11.09
232.689	68.44
232.907	-76.97
233.125	-36.01
233.342	-23.72
233.56	-13.48
233.777	4.95
233.995	29.52
234.213	29.52
234.43	15.19
234.648	-11.43
234.865	19.29
235.083	7
235.3	21.33
235.518	47.96
235.735	-15.53
235.953	33.62
236.17	0.85
236.388	2.9
236.605	-31.91
236.822	-13.48
237.04	-25.77
237.257	13.14
237.475	50
237.692	23.38
237.909	-3.24
238.127	7
238.344	76.63
238.562	13.14
238.779	-52.39
238.996	-40.11
239.214	-15.53
239.431	68.44
239.648	-9.39
239.865	15.19
240.083	-87.21
240.3	31.57
240.517	56.15
240.735	-54.44
240.952	-7.34
241.169	21.33
241.386	-5.29
241.603	70.48
241.821	-19.63
242.038	-17.58
242.255	-27.82
242.472	-19.63
242.689	62.29
242.907	-58.54
243.124	31.57
243.341	4.95
243.558	-15.53
243.775	41.81
243.992	-3.24
244.209	60.24
244.426	0.85
244.643	80.72
244.86	-27.82
245.078	-25.77
245.295	4.95
245.512	-60.59
245.729	-13.48
245.946	-13.48
246.163	4.95
246.38	-27.82
246.597	31.57
246.814	47.96
247.031	29.52
247.248	37.72
247.464	54.1
247.681	2.9
247.898	39.76
248.115	7
248.332	-11.43
248.549	47.96
248.766	21.33
248.983	43.86
249.2	13.14
249.417	58.2
249.633	-38.06
249.85	-64.68
250.067	2.9
250.284	-29.87
250.501	64.34
250.717	-23.72
250.934	45.91
251.151	7
251.368	-27.82
251.585	45.91
251.801	45.91
252.018	82.77
252.235	39.76
252.451	4.95
252.668	-15.53
252.885	80.72
253.102	54.1
253.318	-42.15
253.535	50
253.752	-33.96
253.968	50
254.185	-13.48
254.401	39.76
254.618	37.72
254.835	19.29
255.051	29.52
255.268	-13.48
255.484	29.52
255.701	31.57
255.917	-19.63
256.134	-58.54
256.351	21.33
256.567	-5.29
256.784	21.33
257	-25.77
257.217	21.33
257.433	54.1
257.65	29.52
257.866	-33.96
258.082	-25.77
258.299	-38.06
258.515	58.2
258.732	15.19
258.948	-29.87
259.165	17.24
259.381	31.57
259.597	-36.01
259.814	9.05
260.03	-5.29
260.246	68.44
260.463	11.09
260.679	66.39
260.895	-29.87
261.112	27.48
261.328	-25.77
261.544	-36.01
261.761	60.24
261.977	-50.35
262.193	-31.91
262.409	-21.67
262.626	-23.72
262.842	76.63
263.058	-17.58
263.274	-33.96
263.49	-56.49
263.707	-36.01
263.923	-9.39
264.139	-29.87
264.355	9.05
264.571	58.2
264.787	-48.3
265.004	-5.29
265.22	58.2
265.436	-9.39
265.652	21.33
265.868	-19.63
266.084	0.85
266.3	13.14
266.516	31.57
266.732	41.81
266.948	17.24
267.164	31.57
267.38	33.62
267.596	23.38
267.812	-3.24
268.028	-11.43
268.244	-60.59
268.46	25.43
268.676	56.15
268.892	-17.58
269.108	60.24
269.324	-60.59
269.54	-33.96
269.756	37.72
269.972	-31.91
270.188	93.01
270.403	23.38
270.619	7
270.835	64.34
271.051	50
271.267	-1.19
271.483	52.05
271.698	25.43
271.914	7
272.13	29.52
272.346	0.85
272.562	70.48
272.777	47.96
272.993	2.9
273.209	-50.35
273.425	-5.29
273.64	4.95
273.856	-9.39
274.072	21.33
274.287	7
274.503	19.29
274.719	58.2
274.934	-40.11
275.15	56.15
275.366	-1.19
275.581	-7.34
275.797	11.09
276.012	56.15
276.228	-11.43
276.444	-15.53
276.659	47.96
276.875	-9.39
277.09	-7.34
277.306	33.62
277.521	-5.29
277.737	9.05
277.952	37.72
278.168	33.62
278.383	17.24
278.599	7
278.814	23.38
279.03	27.48
279.245	-1.19
279.461	-5.29
279.676	41.81
279.892	45.91
280.107	11.09
280.322	43.86
280.538	17.24
280.753	-74.92
280.969	-31.91
281.184	23.38
281.399	-23.72
281.615	21.33
281.83	25.43
282.045	58.2
282.26	17.24
282.476	-38.06
282.691	-21.67
282.906	43.86
283.122	21.33
283.337	78.68
283.552	-21.67
283.767	35.67
283.983	50
284.198	13.14
284.413	-11.43
284.628	37.72
284.843	25.43
285.058	45.91
285.274	-19.63
285.489	19.29
285.704	11.09
285.919	-52.39
286.134	-1.19
286.349	-21.67
286.564	-54.44
286.779	50
286.995	27.48
287.21	-64.68
287.425	33.62
287.64	27.48
287.855	-21.67
288.07	-1.19
288.285	58.2
288.5	-48.3
288.715	35.67
288.93	-21.67
289.145	-23.72
289.36	17.24
289.575	-1.19
289.79	37.72
290.004	0.85
290.219	13.14
290.434	-5.29
290.649	-17.58
290.864	50
291.079	-21.67
291.294	-11.43
291.509	62.29
291.724	84.82
291.938	64.34
292.153	50
292.368	-33.96
292.583	-19.63
292.798	-27.82
293.012	15.19
293.227	27.48
293.442	21.33
293.657	56.15
293.871	31.57
294.086	17.24
294.301	27.48
294.516	58.2
294.73	-21.67
294.945	2.9
295.16	29.52
295.374	-29.87
295.589	19.29
295.804	15.19
296.018	41.81
296.233	47.96
296.447	29.52
296.662	-7.34
296.877	7
297.091	45.91
297.306	7
297.52	29.52
297.735	-33.96
297.949	41.81
298.164	64.34
298.378	-27.82
298.593	-38.06
298.807	2.9
299.022	7
299.236	-1.19
299.451	-85.16
299.665	4.95
299.88	-23.72
300.094	-3.24
300.309	-31.91
300.523	-38.06
300.737	103.25
300.952	54.1
301.166	64.34
301.381	39.76
301.595	-38.06
301.809	-1.19
302.024	52.05
302.238	-113.83
302.452	62.29
302.667	-19.63
302.881	72.53
303.095	-50.35
303.309	-17.58
303.524	31.57
303.738	9.05
303.952	9.05
304.166	-44.2
304.381	2.9
304.595	2.9
304.809	35.67
305.023	90.96
305.237	76.63
305.452	21.33
305.666	-17.58
305.88	31.57
306.094	31.57
306.308	88.92
306.522	11.09
306.736	78.68
306.95	-13.48
307.164	-11.43
307.379	-31.91
307.593	-66.73
307.807	52.05
308.021	-15.53
308.235	19.29
308.449	54.1
308.663	43.86
308.877	-42.15
309.091	-48.3
309.305	33.62
309.519	-50.35
309.733	13.14
309.947	-38.06
310.161	-27.82
310.374	-44.2
310.588	13.14
310.802	64.34
311.016	-29.87
311.23	4.95
311.444	15.19
311.658	41.81
311.872	23.38
312.085	15.19
312.299	13.14
312.513	21.33
312.727	15.19
312.941	39.76
313.154	-25.77
313.368	-52.39
313.582	88.92
313.796	39.76
314.009	35.67
314.223	11.09
314.437	15.19
314.651	47.96
314.864	-1.19
315.078	52.05
315.292	-15.53
315.505	-5.29
315.719	66.39
315.933	29.52
316.146	80.72
316.36	-72.87
316.573	27.48
316.787	-29.87
317.001	62.29
317.214	4.95
317.428	-11.43
317.641	-29.87
317.855	-3.24
318.068	-1.19
318.282	86.87
318.495	-36.01
318.709	47.96
318.922	39.76
319.136	21.33
319.349	-13.48
319.563	33.62
319.776	50
319.99	17.24
320.203	-40.11
320.417	-36.01
320.63	52.05
320.843	82.77
321.057	21.33
321.27	-13.48
321.483	56.15
321.697	35.67
321.91	-89.26
322.124	101.2
322.337	19.29
322.55	-1.19
322.763	41.81
322.977	45.91
323.19	-9.39
323.403	15.19
323.617	-5.29
323.83	21.33
324.043	15.19
324.256	78.68
324.469	-64.68
324.683	68.44
324.896	-13.48
325.109	-5.29
325.322	-13.48
325.535	-56.49
325.748	27.48
325.962	70.48
326.175	9.05
326.388	-36.01
326.601	35.67
326.814	7
327.027	11.09
327.24	23.38
327.453	-36.01
327.666	-42.15
327.879	39.76
328.092	60.24
328.305	72.53
328.518	43.86
328.731	2.9
328.944	7
329.157	68.44
329.37	-44.2
329.583	-21.67
329.796	129.88
330.009	-15.53
330.222	31.57
330.435	7
330.648	25.43
330.861	-29.87
331.073	25.43
331.286	-21.67
331.499	21.33
331.712	2.9
331.925	33.62
332.138	25.43
332.35	47.96
332.563	-68.78
332.776	29.52
332.989	68.44
333.202	-13.48
333.414	19.29
333.627	33.62
333.84	-1.19
334.053	-3.24
334.265	70.48
334.478	4.95
334.691	39.76
334.903	15.19
335.116	-42.15
335.329	19.29
335.541	31.57
335.754	50
335.966	15.19
336.179	-48.3
336.392	-42.15
336.604	62.29
336.817	-46.25
337.029	7
337.242	39.76
337.454	19.29
337.667	52.05
337.88	23.38
338.092	-19.63
338.305	78.68
338.517	27.48
338.729	-15.53
338.942	9.05
339.154	-44.2
339.367	21.33
339.579	19.29
339.792	-15.53
340.004	29.52
340.217	-21.67
340.429	-1.19
340.641	-21.67
340.854	43.86
341.066	45.91
341.278	45.91
341.491	41.81
341.703	13.14
341.915	-13.48
342.128	-3.24
342.34	2.9
342.552	-42.15
342.764	23.38
342.977	39.76
343.189	-42.15
343.401	50
343.613	-40.11
343.826	47.96
344.038	50
344.25	66.39
344.462	39.76
344.674	-11.43
344.886	15.19
345.099	31.57
345.311	-17.58
345.523	-25.77
345.735	15.19
345.947	50
346.159	23.38
346.371	-44.2
346.583	2.9
346.795	86.87
347.007	19.29
347.219	82.77
347.431	-19.63
347.643	50
347.855	17.24
348.067	47.96
348.279	-56.49
348.491	13.14
348.703	-1.19
348.915	60.24
349.127	-21.67
349.339	-31.91
349.551	-1.19
349.763	45.91
349.975	-11.43
350.187	39.76
350.399	-31.91
350.61	-9.39
350.822	27.48
351.034	78.68
351.246	50
351.458	54.1
351.669	-36.01
351.881	86.87
352.093	74.58
352.305	39.76
352.517	9.05
352.728	62.29
352.94	-60.59
353.152	-11.43
353.363	-1.19
353.575	-31.91
353.787	15.19
353.999	-29.87
354.21	-62.63
354.422	-13.48
354.633	-17.58
354.845	74.58
355.057	52.05
355.268	109.4
355.48	43.86
355.692	-7.34
355.903	-11.43
356.115	-27.82
356.326	13.14
356.538	-19.63
356.749	58.2
356.961	41.81
357.172	103.25
357.384	-11.43
357.595	109.4
357.807	31.57
358.018	0.85
358.23	72.53
358.441	19.29
358.653	17.24
358.864	-7.34
359.075	17.24
359.287	-72.87
359.498	21.33
359.709	19.29
359.921	72.53
360.132	76.63
360.344	-21.67
360.555	52.05
360.766	0.85
360.977	15.19
361.189	-7.34
361.4	45.91
361.611	50
361.823	-15.53
362.034	72.53
362.245	4.95
362.456	76.63
362.667	-11.43
362.879	41.81
363.09	31.57
363.301	72.53
363.512	29.52
363.723	39.76
363.935	86.87
364.146	7
364.357	-17.58
364.568	50
364.779	27.48
364.99	105.3
365.201	-9.39
365.412	9.05
365.623	-3.24
365.834	-7.34
366.045	25.43
366.256	2.9
366.467	-81.07
366.678	25.43
366.889	37.72
367.1	-15.53
367.311	-11.43
367.522	25.43
367.733	21.33
367.944	33.62
368.155	-23.72
368.366	72.53
368.577	68.44
368.788	2.9
368.999	54.1
369.209	43.86
369.42	35.67
369.631	-29.87
369.842	60.24
370.053	-1.19
370.264	13.14
370.474	25.43
370.685	54.1
370.896	-31.91
371.107	62.29
371.317	17.24
371.528	-11.43
371.739	45.91
371.95	15.19
372.16	41.81
372.371	45.91
372.582	17.24
372.792	13.14
373.003	-23.72
373.214	52.05
373.424	-3.24
373.635	-60.59
373.846	158.55
374.056	11.09
374.267	4.95
374.477	-36.01
374.688	86.87
374.898	-27.82
375.109	-33.96
375.319	-23.72
375.53	47.96
375.74	2.9
375.951	31.57
376.161	9.05
376.372	54.1
376.582	-27.82
376.793	21.33
377.003	72.53
377.214	21.33
377.424	0.85
377.635	4.95
377.845	31.57
378.055	103.25
378.266	-36.01
378.476	31.57
378.686	37.72
378.897	35.67
379.107	-9.39
379.317	-29.87
379.528	39.76
379.738	82.77
379.948	47.96
380.158	-1.19
380.369	39.76
380.579	-56.49
380.789	-36.01
380.999	21.33
381.21	37.72
381.42	33.62
381.63	-13.48
381.84	35.67
382.05	-11.43
382.261	31.57
382.471	-19.63
382.681	74.58
382.891	66.39
383.101	15.19
383.311	62.29
383.521	54.1
383.731	-11.43
383.941	29.52
384.151	25.43
384.361	70.48
384.571	-13.48
384.781	39.76
384.991	35.67
385.201	19.29
385.411	45.91
385.621	45.91
385.831	21.33
386.041	7
386.251	11.09
386.461	93.01
386.671	39.76
386.881	39.76
387.091	-7.34
387.301	33.62
387.511	-17.58
387.72	13.14
387.93	-27.82
388.14	-36.01
388.35	37.72
388.56	95.06
388.769	17.24
388.979	21.33
389.189	0.85
389.399	45.91
389.609	-1.19
389.818	23.38
390.028	7
390.238	17.24
390.447	7
390.657	45.91
390.867	7
391.076	9.05
391.286	-58.54
391.496	31.57
391.705	68.44
391.915	74.58
392.125	13.14
392.334	23.38
392.544	13.14
392.753	43.86
392.963	-15.53
393.172	-15.53
393.382	9.05
393.591	82.77
393.801	76.63
394.01	64.34
394.22	78.68
394.429	13.14
394.639	-1.19
394.848	54.1
395.058	-21.67
395.267	76.63
395.477	19.29
395.686	58.2
395.895	4.95
396.105	39.76
396.314	33.62
396.524	64.34
396.733	-11.43
396.942	37.72
397.152	31.57
397.361	80.72
397.57	15.19
397.78	-13.48
397.989	-13.48
398.198	41.81
398.407	74.58
398.617	74.58
398.826	21.33
399.035	70.48
399.244	54.1
399.453	31.57
399.663	54.1
399.872	68.44
400.081	76.63
400.29	58.2
400.499	103.25
400.708	60.24
400.917	-27.82
401.127	-15.53
401.336	4.95
401.545	23.38
401.754	58.2
401.963	80.72
402.172	13.14
402.381	4.95
402.59	99.16
402.799	-1.19
403.008	97.11
403.217	119.64
403.426	88.92
403.635	29.52
403.844	0.85
404.053	17.24
404.262	37.72
404.471	21.33
404.68	45.91
404.888	80.72
405.097	4.95
405.306	103.25
405.515	64.34
405.724	31.57
405.933	72.53
406.142	97.11
406.35	78.68
406.559	101.2
406.768	54.1
406.977	107.35
407.185	80.72
407.394	60.24
407.603	97.11
407.812	54.1
408.02	115.54
408.229	62.29
408.438	86.87
408.646	56.15
408.855	80.72
409.064	86.87
409.272	121.68
409.481	105.3
409.69	74.58
409.898	187.22
410.107	119.64
410.315	70.48
410.524	76.63
410.733	156.5
410.941	107.35
411.15	97.11
411.358	191.31
411.567	189.27
411.775	160.59
411.984	183.12
412.192	111.44
412.401	205.65
412.609	279.38
412.818	189.27
413.026	154.45
413.234	158.55
413.443	187.22
413.651	136.02
413.86	293.71
414.068	299.86
414.276	281.43
414.485	172.88
414.693	303.95
414.901	320.34
415.11	232.27
415.318	262.99
415.526	299.86
415.734	355.15
415.943	279.38
416.151	318.29
416.359	387.92
416.567	365.39
416.776	301.9
416.984	396.11
417.192	351.06
417.4	349.01
417.608	383.82
417.817	355.15
418.025	381.78
418.233	467.79
418.441	455.5
418.649	545.61
418.857	492.37
419.065	525.13
419.273	465.74
419.481	529.23
419.689	512.85
419.897	605
420.105	527.18
420.313	564.04
420.521	678.73
420.729	654.16
420.937	717.64
421.145	660.3
421.353	656.2
421.561	742.22
421.769	680.78
421.977	799.56
422.185	824.14
422.393	924.49
422.601	785.23
422.809	916.3
423.017	856.9
423.224	854.86
423.432	981.83
423.64	914.25
423.848	987.97
424.056	1049.41
424.263	1065.8
424.471	1106.76
424.679	1155.91
424.887	1147.72
425.094	1203.01
425.302	1196.87
425.51	1237.83
425.718	1303.36
425.925	1334.08
426.133	1309.51
426.341	1413.95
426.548	1465.15
426.756	1567.55
426.964	1557.31
427.171	1696.57
427.379	1592.13
427.586	1717.05
427.794	1751.87
428.001	1758.01
428.209	1911.61
428.417	1821.5
428.624	2140.98
428.832	1874.74
429.039	2026.29
429.247	2057.01
429.454	2317.11
429.662	2263.86
429.869	2380.59
430.076	2378.55
430.284	2233.14
430.491	2374.45
430.699	2464.56
430.906	2542.38
431.114	2612.01
431.321	2673.45
431.528	2630.45
431.736	2908.97
431.943	3015.46
432.15	2908.97
432.358	2927.4
432.565	3054.37
432.772	3046.18
432.979	3289.89
433.187	3435.3
433.394	3435.3
433.601	3543.84
433.808	3519.26
434.016	3562.27
434.223	3580.7
434.43	3910.43
434.637	3918.62
434.844	4121.37
435.052	4211.48
435.259	4123.41
435.466	4160.28
435.673	4236.05
435.88	4395.79
436.087	4772.62
436.294	4668.17
436.501	4590.35
436.708	4584.21
436.915	4709.13
437.122	5047.05
437.329	5040.9
437.537	5100.3
437.743	5411.59
437.95	5249.8
438.157	5481.22
438.364	5700.35
438.571	5747.45
438.778	5602.05
438.985	6247.16
439.192	5927.67
439.399	6181.62
439.606	5980.92
439.813	6372.08
440.02	6724.33
440.227	6773.49
440.433	6601.46
440.64	6804.21
440.847	6748.91
441.054	6992.62
441.261	7518.95
441.467	7262.95
441.674	7443.17
441.881	7684.83
442.088	7684.83
442.294	7475.94
442.501	7828.19
442.708	7836.38
442.914	8205.02
443.121	8714.96
443.328	8530.64
443.534	9120.46
443.741	8723.15
443.948	8692.43
444.154	9419.46
444.361	9208.52
444.568	9222.86
444.774	9325.26
444.981	9530.05
445.187	9695.94
445.394	10265.27
445.6	10027.71
445.807	11219.63
446.013	10375.86
446.22	10562.23
446.426	11109.04
446.633	11135.66
446.839	11688.61
447.046	11199.15
447.252	11713.19
447.459	11965.09
447.665	11782.82
447.871	12464.79
448.078	12952.21
448.284	12227.23
448.491	12524.18
448.697	13050.51
448.903	13255.31
449.11	13177.48
449.316	13261.45
449.522	13417.1
449.728	13779.59
449.935	13746.82
450.141	13816.45
450.347	14148.22
450.553	13591.17
450.76	13896.32
450.966	14324.35
451.172	14058.11
451.378	14688.89
451.584	14250.62
451.791	14484.09
451.997	14455.42
452.203	14658.17
452.409	14926.45
452.615	14834.29
452.821	14488.18
453.027	14150.27
453.233	14903.92
453.44	14213.76
453.646	14209.66
453.852	14336.63
454.058	14680.69
454.264	14293.63
454.47	14684.79
454.676	14494.33
454.882	14860.91
455.088	13410.95
455.294	13550.21
455.5	13886.08
455.705	13881.99
455.911	13476.49
456.117	13058.7
456.323	12886.67
456.529	12427.93
456.735	12882.58
456.941	12737.17
457.147	12343.96
457.352	11887.26
457.558	11827.87
457.764	11868.83
457.97	11766.43
458.176	11322.02
458.381	11483.81
458.587	11002.54
458.793	10881.71
458.999	10164.92
459.204	10961.58
459.41	10760.88
459.616	10048.19
459.821	10281.66
460.027	10267.32
460.233	9964.22
460.438	9290.44
460.644	9409.22
460.85	9155.27
461.055	8837.84
461.261	8813.26
461.466	8088.28
461.672	7918.3
461.878	8594.13
462.083	8147.67
462.289	7840.48
462.494	7746.27
462.7	7361.25
462.905	7230.18
463.111	7566.05
463.316	7480.04
463.522	7293.67
463.727	7398.12
463.932	7437.03
464.138	7291.62
464.343	7385.83
464.549	7269.09
464.754	7432.93
464.959	7279.33
465.165	7371.49
465.37	7129.83
465.575	6757.1
465.781	7070.44
465.986	7185.13
466.191	7043.82
466.397	6664.94
466.602	6411
466.807	6748.91
467.012	6818.54
467.218	6693.62
467.423	6630.13
467.628	6710
467.833	6945.52
468.038	6701.81
468.244	6525.68
468.449	6755.05
468.654	6499.06
468.859	6458.1
469.064	6535.92
469.269	6183.67
469.474	6267.64
469.679	6290.17
469.885	6294.26
470.09	6367.99
470.295	6173.43
470.5	6136.57
470.705	6200.05
470.91	5907.2
471.115	5923.58
471.32	6073.08
471.525	6114.04
471.73	5810.94
471.935	5720.83
472.139	5708.54
472.344	5737.21
472.549	5643.01
472.754	5690.11
472.959	5462.79
473.164	5278.47
473.369	5442.31
473.574	5577.47
473.778	5382.92
473.983	5430.02
474.188	5341.96
474.393	5010.18
474.598	5059.34
474.802	4985.61
475.007	4977.42
475.212	5124.87
475.417	4879.11
475.621	4715.28
475.826	4887.31
476.031	4930.31
476.235	4707.09
476.44	4801.29
476.645	4598.54
476.849	4584.21
477.054	4621.07
477.259	4479.76
477.463	4563.73
477.668	4410.13
477.872	4502.29
478.077	4252.44
478.282	4215.57
478.486	4410.13
478.691	4262.68
478.895	4213.53
479.1	4209.43
479.304	4098.84
479.509	4094.74
479.713	4205.33
479.918	4076.31
480.122	3912.47
480.326	4074.26
480.531	4150.04
480.735	3904.28
480.94	4113.17
481.144	4133.65
481.348	3951.39
481.553	4027.16
481.757	4018.97
481.961	3861.27
482.166	4004.63
482.37	3851.03
482.574	3885.85
482.778	3928.86
482.983	3912.47
483.187	3859.23
483.391	3881.75
483.595	3990.3
483.8	3863.32
484.004	3904.28
484.208	3865.37
484.412	3889.95
484.616	3822.36
484.821	4064.02
485.025	3781.4
485.229	3953.43
485.433	3943.19
485.637	3912.47
485.841	3842.84
486.045	3812.12
486.249	3965.72
486.453	3875.61
486.657	3912.47
486.861	3951.39
487.065	3879.71
487.269	4004.63
487.473	3826.46
487.677	3947.29
487.881	4010.78
488.085	4066.07
488.289	3986.2
488.493	3996.44
488.697	4102.93
488.901	3971.86
489.105	4119.32
489.309	4053.78
489.512	4068.12
489.716	4133.65
489.92	4059.93
490.124	4078.36
490.328	4121.37
490.531	4092.69
490.735	4160.28
490.939	4059.93
491.143	4117.27
491.346	4279.06
491.55	4250.39
491.754	4279.06
491.958	4285.2
492.161	4217.62
492.365	4375.31
492.569	4264.72
492.772	4408.08
492.976	4403.99
493.18	4389.65
493.383	4463.38
493.587	4406.03
493.79	4610.83
493.994	4481.81
494.197	4633.36
494.401	4627.21
494.605	4576.02
494.808	4731.66
495.012	4852.49
495.215	4819.72
495.419	4709.13
495.622	4930.31
495.825	5077.77
496.029	4942.6
496.232	5069.58
496.436	4938.51
496.639	5081.86
496.843	5217.03
497.046	5505.79
497.249	5382.92
497.453	5458.69
497.656	5499.65
497.859	5567.23
498.063	5485.31
498.266	5769.98
498.469	5737.21
498.673	5784.32
498.876	5839.61
499.079	6034.17
499.282	5950.2
499.485	6198.01
499.689	6116.09
499.892	6159.1
500.095	6218.49
500.298	6449.91
500.501	6314.74
500.705	6468.34
500.908	6640.37
501.111	6669.04
501.314	6824.69
501.517	6861.55
501.72	6943.47
501.923	6820.59
502.126	7250.66
502.329	7265
502.532	7316.2
502.735	7531.23
502.938	7623.39
503.141	7594.72
503.344	7795.42
503.547	7820
503.75	7914.2
503.953	8127.19
504.156	8071.9
504.359	8207.06
504.562	8434.39
504.765	8657.62
504.968	8657.62
505.17	8753.87
505.373	8764.11
505.576	8966.86
505.779	9181.9
505.982	9134.79
506.185	9331.4
506.387	9327.3
506.59	9568.96
506.793	9708.23
506.996	9603.78
507.198	10023.61
507.401	10121.91
507.604	10156.73
507.807	10351.29
508.009	10357.43
508.212	10515.12
508.415	10771.12
508.617	10889.9
508.82	11016.88
509.022	11012.78
509.225	11203.24
509.428	11532.97
509.63	11262.63
509.833	11530.92
510.035	11565.73
510.238	11844.26
510.44	12032.67
510.643	12047.01
510.845	12010.14
511.048	12460.7
511.25	12464.79
511.453	12565.14
511.655	13036.17
511.858	12802.71
512.06	12972.69
512.262	13173.39
512.465	13298.31
512.667	13509.26
512.87	13724.29
513.072	14013.06
513.274	14060.16
513.477	14080.64
513.679	14424.7
513.881	14561.91
514.084	14502.52
514.286	14543.48
514.488	14664.31
514.69	15250.03
514.893	14971.5
515.095	15538.79
515.297	15448.68
515.499	15661.67
515.701	15870.56
515.904	15864.42
516.106	16157.28
516.308	16183.9
516.51	16218.72
516.712	16585.3
516.914	16751.19
517.116	17273.42
517.318	16923.22
517.52	17478.22
517.722	17429.07
517.925	17365.58
518.127	17613.38
518.329	17775.17
518.531	17842.76
518.733	18430.52
518.935	18385.47
519.136	18258.49
519.338	18686.52
519.54	18823.73
519.742	19092.02
519.944	19143.22
520.146	19778.09
520.348	19343.92
520.55	19802.66
520.752	19505.71
520.954	19935.78
521.155	19790.38
521.357	20351.52
521.559	20560.41
521.761	20769.3
521.963	20675.1
522.164	20855.32
522.366	20953.62
522.568	21041.68
522.77	21101.08
522.971	21623.31
523.173	21395.98
523.375	21762.57
523.576	21574.16
523.778	21766.67
523.98	22016.52
524.181	22118.92
524.383	22417.92
524.584	22442.49
524.786	22684.16
524.988	22655.48
525.189	22835.7
525.391	23163.38
525.592	23144.95
525.794	23183.86
525.995	23323.12
526.197	23202.29
526.398	23480.82
526.6	23654.89
526.801	23683.56
527.003	24023.53
527.204	23796.2
527.406	23908.84
527.607	24203.75
527.808	24314.34
528.01	23867.88
528.211	24132.07
528.412	24742.36
528.614	24631.77
528.815	24818.14
529.016	24850.91
529.218	24723.93
529.419	24697.31
529.62	24689.12
529.822	24762.84
530.023	25059.8
530.224	24615.39
530.425	24973.78
530.626	24957.4
530.828	24994.26
531.029	25481.68
531.23	25147.86
531.431	24992.22
531.632	25334.23
531.833	25618.89
532.035	25602.51
532.236	25547.22
532.437	25723.34
532.638	25678.29
532.839	25727.44
533.04	25666
533.241	25653.71
533.442	26200.52
533.643	25727.44
533.844	26081.74
534.045	26120.65
534.246	25930.19
534.447	26079.69
534.648	25764.3
534.849	25829.84
535.05	26065.35
535.251	25872.84
535.451	25801.16
535.652	26352.07
535.853	26472.9
536.054	26300.87
536.255	26153.41
536.456	26110.41
536.657	26517.95
536.857	26044.87
537.058	26046.92
537.259	26333.64
537.46	26765.76
537.66	26106.31
537.861	26241.48
538.062	26481.09
538.263	26321.35
538.463	25940.43
538.664	26298.82
538.865	26436.03
539.065	26620.35
539.266	26538.43
539.466	26890.68
539.667	26022.34
539.868	26956.22
540.068	26479.04
540.269	26270.15
540.469	26497.47
540.67	26479.04
540.87	26581.44
541.071	26372.55
541.271	26683.84
541.472	26694.08
541.672	26259.91
541.873	26479.04
542.073	26296.77
542.274	26868.16
542.474	26450.37
542.675	26458.56
542.875	26814.91
543.075	26526.14
543.276	26515.9
543.476	26923.45
543.676	26532.29
543.877	26831.29
544.077	26694.08
544.277	26786.24
544.478	26472.9
544.678	26677.69
544.878	26636.73
545.078	26681.79
545.279	27011.51
545.479	26509.76
545.679	26534.34
545.879	26718.65
546.079	26679.74
546.28	26800.57
546.48	26534.34
546.68	26689.98
546.88	26618.3
547.08	26782.14
547.28	26710.46
547.48	26460.61
547.68	26728.89
547.88	26767.8
548.081	26849.72
548.281	26632.64
548.481	26583.49
548.681	27130.3
548.881	26900.92
549.081	26915.26
549.28	26808.76
549.48	27099.58
549.68	26784.19
549.88	26792.38
550.08	26673.6
550.28	26974.65
550.48	26636.73
550.68	26870.2
550.88	26786.24
551.08	26655.17
551.279	26831.29
551.479	26601.92
551.679	26743.23
551.879	26663.36
552.079	26706.37
552.278	26593.73
552.478	26472.9
552.678	26800.57
552.878	26933.69
553.077	26859.96
553.277	26374.59
553.477	26776
553.676	26505.66
553.876	26296.77
554.076	26728.89
554.275	26542.53
554.475	26014.15
554.674	26642.88
554.874	26524.1
555.074	26276.29
555.273	26386.88
555.473	26892.73
555.672	26329.54
555.872	26384.83
556.071	26669.5
556.271	26620.35
556.47	26288.58
556.67	26298.82
556.869	26321.35
557.068	26476.99
557.268	26452.42
557.467	26401.22
557.667	26292.68
557.866	26096.07
558.065	26452.42
558.265	26149.32
558.464	26237.38
558.663	26403.27
558.863	26014.15
559.062	26696.13
559.261	26085.83
559.461	26200.52
559.66	25862.6
559.859	25965
560.058	25795.02
560.258	26044.87
560.457	25958.86
560.656	26102.22
560.855	26061.26
561.054	26302.92
561.253	25493.97
561.453	25807.31
561.652	26210.76
561.851	25874.89
562.05	25975.24
562.249	25977.29
562.448	26173.89
562.647	25979.34
562.846	25756.11
563.045	25741.77
563.244	25792.97
563.443	26108.36
563.642	25631.18
563.841	25809.36
564.04	25416.15
564.239	26048.97
564.438	25754.06
564.637	25739.72
564.836	26010.06
565.035	25397.71
565.234	25661.9
565.432	25457.1
565.631	25571.79
565.83	25733.58
566.029	25244.12
566.228	25397.71
566.427	25514.45
566.625	25371.09
566.824	24955.35
567.023	25635.28
567.222	25106.9
567.42	25426.39
567.619	25168.34
567.818	24984.02
568.016	25158.1
568.215	25420.24
568.414	25407.95
568.612	25018.84
568.811	25020.89
569.01	24936.92
569.208	24840.67
569.407	25027.03
569.605	24779.23
569.804	25237.97
570.002	24848.86
570.201	25270.74
570.4	24562.14
570.598	24914.39
570.797	24936.92
570.995	25094.61
571.193	24295.91
571.392	24898.01
571.59	24480.22
571.789	24500.7
571.987	24404.45
572.186	24492.51
572.384	24234.47
572.582	24666.59
572.781	24375.78
572.979	23917.03
573.177	24639.97
573.376	24302.05
573.574	23951.85
573.772	24271.33
573.971	24078.82
574.169	23712.24
574.367	23974.38
574.565	23951.85
574.763	23779.82
574.962	23947.75
575.16	23466.48
575.358	23890.41
575.556	23462.38
575.754	23622.12
575.952	23630.32
576.151	23855.59
576.349	23540.21
576.547	23699.95
576.745	23611.89
576.943	23480.82
577.141	23284.21
577.339	23491.05
577.537	23282.16
577.735	23175.67
577.933	22858.23
578.131	23269.87
578.329	23069.17
578.527	23026.17
578.725	22788.6
578.923	23028.21
579.121	22628.86
579.319	22753.79
579.516	22598.14
579.714	22614.52
579.912	22682.11
580.11	22510.08
580.308	22802.94
580.506	22673.92
580.704	22067.72
580.901	22346.24
581.099	22268.42
581.297	22297.09
581.495	22403.58
581.692	22178.31
581.89	22118.92
582.088	22172.16
582.285	21969.41
582.483	21901.83
582.681	22090.24
582.878	22018.57
583.076	21944.84
583.274	22129.16
583.471	21611.02
583.669	21912.07
583.866	21672.46
584.064	21674.51
584.262	21465.61
584.459	21574.16
584.657	21395.98
584.854	21336.59
585.052	21135.89
585.249	21223.95
585.447	21285.39
585.644	20957.72
585.841	21080.6
586.039	21203.47
586.236	21062.16
586.434	20761.11
586.631	20871.7
586.828	20826.65
587.026	20793.88
587.223	20904.47
587.42	20683.29
587.618	20787.74
587.815	20556.32
588.012	20498.97
588.21	20394.53
588.407	20451.87
588.604	20351.52
588.801	20527.64
588.999	20052.52
589.196	20429.34
589.393	20034.08
589.59	20202.02
589.787	20050.47
589.984	20029.99
590.182	19896.87
590.379	19821.09
590.576	19935.78
590.773	19950.12
590.97	19837.48
591.167	19567.15
591.364	19458.6
591.561	19624.49
591.758	19485.23
591.955	19501.61
592.152	19546.67
592.349	19409.45
592.546	19403.31
592.743	19139.12
592.94	19087.92
593.137	19313.2
593.334	19223.09
593.531	18827.83
593.727	18993.72
593.924	18919.99
594.121	18922.04
594.318	18844.21
594.515	18713.14
594.712	18928.18
594.908	18758.2
595.105	18790.97
595.302	18565.69
595.499	18727.48
595.696	18317.89
595.892	18532.92
596.089	18412.09
596.286	18215.49
596.482	18430.52
596.679	18215.49
596.876	18500.16
597.072	18227.78
597.269	18221.63
597.466	17963.59
597.662	18049.6
597.859	17908.29
598.055	17818.18
598.252	17687.11
598.448	17891.91
598.645	17775.17
598.841	17592.9
599.038	17826.37
599.234	17617.48
599.431	17709.64
599.627	17373.77
599.824	17400.4
600.02	17334.86
600.217	17388.11
600.413	17306.19
600.609	17101.39
600.806	17068.62
601.002	17187.41
601.198	17087.06
601.395	16921.17
601.591	16853.59
601.787	16984.66
601.984	16831.06
602.18	17060.43
602.376	16663.13
602.572	16599.64
602.769	16505.43
602.965	16231.01
603.161	16636.5
603.357	16370.27
603.553	16233.05
603.75	16413.27
603.946	16087.65
604.142	16472.67
604.338	16136.8
604.534	16196.19
604.73	16095.84
604.926	16067.17
605.122	16349.79
605.318	16058.98
605.514	15723.11
605.71	15841.89
605.906	15856.23
606.102	15845.99
606.298	15811.17
606.494	15546.98
606.69	15596.14
606.886	15489.64
607.082	15577.7
607.278	15538.79
607.474	15334
607.67	15561.32
607.866	15407.72
608.062	15479.4
608.257	15497.83
608.453	15389.29
608.649	15385.19
608.845	15180.4
609.041	15202.93
609.236	15501.93
609.432	15067.76
609.628	15073.9
609.824	15067.76
610.019	15161.97
610.215	15102.57
610.411	14707.32
610.606	14680.69
610.802	14994.03
610.998	14924.4
611.193	14803.57
611.389	14740.08
611.584	14842.48
611.78	14619.25
611.976	14629.49
612.171	14889.59
612.367	14670.45
612.562	14785.14
612.758	14512.76
612.953	14377.59
613.149	14379.64
613.344	14293.63
613.539	14682.74
613.735	14537.34
613.93	14539.38
614.126	14475.9
614.321	14099.07
614.517	14353.02
614.712	14031.49
614.907	14273.15
615.103	14258.81
615.298	14230.14
615.493	14375.55
615.688	13859.46
615.884	14256.76
616.079	14029.44
616.274	14185.08
616.47	14082.69
616.665	14043.78
616.86	13838.98
617.055	13738.63
617.25	13892.23
617.445	13699.72
617.641	13638.28
617.836	13871.75
618.031	13617.8
618.226	13767.3
618.421	13472.39
618.616	13781.64
618.811	13589.13
619.006	13537.93
619.201	13523.59
619.396	13259.4
619.591	13261.45
619.786	13249.16
619.981	13105.81
620.176	13230.73
620.371	12976.78
620.566	13032.08
620.761	12927.63
620.956	12874.38
621.151	12827.28
621.346	12792.47
621.541	12694.16
621.735	12712.6
621.93	12427.93
622.125	12685.97
622.32	12321.43
622.515	12409.5
622.709	12157.6
622.904	12284.57
623.099	12190.36
623.294	12118.68
623.488	12128.92
623.683	12149.4
623.878	11872.93
624.072	12071.58
624.267	11981.47
624.462	11848.35
624.656	11629.22
624.851	11696.8
625.046	11500.2
625.24	11643.56
625.435	11440.81
625.629	11575.97
625.824	11416.23
626.018	11258.54
626.213	11084.46
626.407	11238.06
626.602	10955.44
626.796	11178.67
626.991	11205.29
627.185	10949.29
627.38	10887.86
627.574	10719.92
627.768	10842.8
627.963	10607.28
628.157	10627.76
628.352	10562.23
628.546	10664.63
628.74	10691.25
628.935	10468.02
629.129	10384.05
629.323	10343.1
629.517	10224.31
629.712	10293.94
629.906	10222.27
630.1	10099.39
630.294	10250.94
630.489	10050.24
630.683	10097.34
630.877	9802.43
631.071	9980.61
631.265	9892.54
631.459	9560.77
631.653	9777.86
631.848	9659.07
632.042	9550.53
632.236	9489.09
632.43	9446.09
632.624	9497.28
632.818	9321.16
633.012	9216.71
633.206	9319.11
633.4	9364.17
633.594	9241.29
633.788	9235.14
633.982	9202.38
634.176	9024.2
634.369	9102.03
634.563	9050.83
634.757	9026.25
634.951	8886.99
635.145	8790.74
635.339	8700.62
635.533	8678.1
635.726	8776.4
635.92	8786.64
636.114	8575.7
636.308	8491.73
636.501	8493.78
636.695	8549.07
636.889	8436.44
637.083	8239.83
637.276	8262.36
637.47	8379.09
637.664	8172.25
637.857	8213.21
638.051	8319.7
638.244	8231.64
638.438	8221.4
638.632	8094.43
638.825	7946.97
639.019	7922.4
639.212	8114.91
639.406	7903.96
639.599	7873.25
639.793	7815.9
639.986	7914.2
640.18	7791.33
640.373	7641.82
640.567	7600.87
640.76	7570.15
640.954	7564
641.147	7529.19
641.34	7418.6
641.534	7549.67
641.727	7455.46
641.92	7381.73
642.114	7305.96
642.307	7267.05
642.5	7097.07
642.694	7181.03
642.887	6966
643.08	7193.32
643.273	7129.83
643.467	7097.07
643.66	7033.58
643.853	6914.8
644.046	6886.12
644.239	6871.79
644.432	6697.71
644.626	6871.79
644.819	6669.04
645.012	6560.5
645.205	6828.78
645.398	6628.08
645.591	6415.09
645.784	6619.89
645.977	6456.05
646.17	6501.11
646.363	6236.92
646.556	6271.73
646.749	6294.26
646.942	6376.18
647.135	6114.04
647.328	6355.7
647.521	6191.86
647.714	6034.17
647.907	6208.25
648.099	6134.52
648.292	6079.22
648.485	5851.9
648.678	5833.47
648.871	5831.42
649.064	6058.74
649.256	5958.39
649.449	5864.19
649.642	5800.7
649.835	5868.28
650.027	5593.86
650.22	5663.49
650.413	5702.4
650.605	5532.42
650.798	5477.12
650.991	5554.94
651.183	5493.51
651.376	5528.32
651.568	5454.59
651.761	5444.35
651.954	5368.58
652.146	5298.95
652.339	5382.92
652.531	5245.7
652.724	5124.87
652.916	5174.02
653.109	5235.46
653.301	5266.18
653.494	5112.58
653.686	5049.1
653.879	4918.03
654.071	5008.14
654.263	4842.25
654.456	4995.85
654.648	4817.68
654.84	4801.29
655.033	4909.83
655.225	4903.69
655.417	4791.05
655.61	4987.66
655.802	4774.67
655.994	4684.56
656.186	4733.71
656.379	4811.53
656.571	4682.51
656.763	4612.88
656.955	4459.28
657.148	4475.67
657.34	4490
657.532	4520.72
657.724	4369.17
657.916	4512.53
658.108	4561.68
658.3	4373.27
658.492	4246.29
658.684	4211.48
658.876	4227.86
659.068	4252.44
659.26	4072.22
659.452	4215.57
659.644	4115.22
659.836	3992.34
660.028	4074.26
660.22	3986.2
660.412	4123.41
660.604	3912.47
660.796	4027.16
660.988	4055.83
661.18	3883.8
661.372	3924.76
661.563	3951.39
661.755	3894.04
661.947	3769.12
662.139	3822.36
662.331	3715.87
662.522	3730.2
662.714	3603.23
662.906	3599.13
663.097	3627.81
663.289	3513.12
663.481	3564.32
663.673	3554.08
663.864	3511.07
664.056	3552.03
664.247	3408.67
664.439	3431.2
664.631	3523.36
664.822	3457.82
665.014	3449.63
665.205	3390.24
665.397	3232.55
665.588	3277.6
665.78	3248.93
665.971	3261.22
666.163	3207.97
666.354	3203.88
666.546	3169.06
666.737	3109.67
666.929	3316.51
667.12	3097.38
667.311	3181.35
667.503	3035.94
667.694	3037.99
667.885	3019.56
668.077	3007.27
668.268	3058.47
668.459	3031.85
668.651	2943.78
668.842	2927.4
669.033	2841.39
669.224	2915.11
669.416	2767.66
669.607	2868.01
669.798	2843.43
669.989	2794.28
670.18	2857.77
670.371	2675.5
670.563	2726.7
670.754	2665.26
670.945	2675.5
671.136	2677.55
671.327	2745.13
671.518	2753.32
671.709	2648.88
671.9	2667.31
672.091	2667.31
672.282	2704.17
672.473	2607.92
672.664	2601.77
672.855	2515.76
673.046	2595.63
673.237	2603.82
673.428	2528.05
673.619	2569.01
673.809	2577.2
674	2478.9
674.191	2501.42
674.382	2308.91
674.573	2503.47
674.764	2396.98
674.954	2470.7
675.145	2356.02
675.336	2511.66
675.527	2347.83
675.717	2343.73
675.908	2466.61
676.099	2304.82
676.289	2255.67
676.48	2306.87
676.671	2376.5
676.861	2351.92
677.052	2306.87
677.243	2181.94
677.433	2284.34
677.624	2274.1
677.814	2341.68
678.005	2216.76
678.195	2155.32
678.386	2175.8
678.576	2212.66
678.767	2284.34
678.957	2286.39
679.148	2089.78
679.338	2175.8
679.529	2116.41
679.719	2136.88
679.909	2270
680.1	2120.5
680.29	2050.87
680.481	2065.21
680.671	2126.64
680.861	2147.12
681.052	2106.17
681.242	2165.56
681.432	2075.45
681.622	1964.86
681.813	2120.5
682.003	2018.1
682.193	2093.88
682.383	1979.19
682.573	2059.06
682.764	2069.3
682.954	1995.57
683.144	2036.53
683.334	2075.45
683.524	1997.62
683.714	2024.25
683.904	1995.57
684.094	2011.96
684.284	1870.65
684.474	1989.43
684.664	2024.25
684.854	1870.65
685.044	1987.38
685.234	1989.43
685.424	1927.99
685.614	2003.77
685.804	1934.14
685.994	2106.17
686.184	2046.77
686.374	1944.38
686.564	1971
686.753	1958.71
686.943	1930.04
687.133	1958.71
687.323	1997.62
687.513	1948.47
687.702	1897.27
687.892	1973.05
688.082	2100.02
688.272	1882.94
688.461	2009.91
688.651	1999.67
688.841	1964.86
689.03	1997.62
689.22	1954.62
689.41	2032.44
689.599	1887.03
689.789	2028.34
689.979	1962.81
690.168	1973.05
690.358	2034.49
690.547	1956.66
690.737	1936.18
690.926	1936.18
691.116	1927.99
691.305	1872.7
691.495	1921.85
691.684	1930.04
691.874	1932.09
692.063	1919.8
692.252	2009.91
692.442	1927.99
692.631	1801.02
692.82	1903.42
693.01	1938.23
693.199	1993.53
693.388	1940.28
693.578	1780.54
693.767	1889.08
693.956	1868.6
694.146	1901.37
694.335	1884.98
694.524	1940.28
694.713	1856.31
694.902	1848.12
695.092	1895.22
695.281	1950.52
695.47	1819.45
695.659	1852.22
695.848	1923.9
696.037	1915.7
696.226	1733.43
696.415	1801.02
696.604	1884.98
696.793	1866.55
696.982	1755.96
697.171	1778.49
697.36	1790.78
697.549	1858.36
697.738	1839.93
697.927	1743.67
698.116	1839.93
698.305	1782.59
698.494	1807.16
698.683	1833.79
698.872	1803.07
699.061	1837.88
699.25	1751.87
699.438	1708.86
699.627	1628.99
699.816	1768.25
700.005	1762.11
700.193	1606.46
700.382	1755.96
700.571	1766.2
700.76	1657.66
700.948	1688.38
701.137	1708.86
701.326	1594.17
701.514	1606.46
701.703	1585.98
701.892	1688.38
702.08	1672
702.269	1717.05
702.457	1608.51
702.646	1674.04
702.834	1692.48
703.023	1704.76
703.212	1659.71
703.4	1649.47
703.589	1577.79
703.777	1737.53
703.965	1610.56
704.154	1694.52
704.342	1741.63
704.531	1540.93
704.719	1606.46
704.907	1504.06
705.096	1469.25
705.284	1602.36
705.472	1667.9
705.661	1579.84
705.849	1575.74
706.037	1512.25
706.226	1530.69
706.414	1465.15
706.602	1512.25
706.79	1542.97
706.979	1473.34
707.167	1631.04
707.355	1479.49
707.543	1528.64
707.731	1522.49
707.919	1440.58
708.107	1446.72
708.296	1454.91
708.484	1553.21
708.672	1395.52
708.86	1413.95
709.048	1524.54
709.236	1467.2
709.424	1452.86
709.612	1479.49
709.8	1434.43
709.988	1418.05
710.176	1348.42
710.364	1424.19
710.551	1368.9
710.739	1289.03
710.927	1377.09
711.115	1397.57
711.303	1348.42
711.491	1405.76
711.679	1301.31
711.866	1297.22
712.054	1266.5
712.242	1305.41
712.43	1329.99
712.617	1338.18
712.805	1346.37
712.993	1289.03
713.181	1258.31
713.368	1209.15
713.556	1293.12
713.744	1286.98
713.931	1389.38
714.119	1235.78
714.306	1215.3
714.494	1262.4
714.682	1237.83
714.869	1282.88
715.057	1225.54
715.244	1178.44
715.432	1209.15
715.619	1211.2
715.807	1172.29
715.994	1219.39
716.182	1200.96
716.369	1147.72
716.556	1217.35
716.744	1084.23
716.931	1217.35
717.119	1207.11
717.306	1205.06
717.493	1078.08
717.681	1180.48
717.868	1131.33
718.055	1196.87
718.242	1106.76
718.43	1235.78
718.617	1129.28
718.804	1090.37
718.991	1030.98
719.179	1096.52
719.366	1170.24
719.553	1133.38
719.74	1108.8
719.927	1080.13
720.114	1073.99
720.301	1096.52
720.488	1051.46
720.676	949.06
720.863	1112.9
721.05	1117
721.237	1071.94
721.424	1088.32
721.611	1069.89
721.798	990.02
721.985	1018.69
722.172	953.16
722.358	957.25
722.545	1053.51
722.732	1012.55
722.919	1047.37
723.106	936.78
723.293	893.77
723.48	959.3
723.667	992.07
723.853	1121.09
724.04	938.82
724.227	965.45
724.414	1026.89
724.6	979.78
724.787	981.83
724.974	1024.84
725.161	1000.26
725.347	895.82
725.534	879.43
725.72	992.07
725.907	906.06
726.094	1057.61
726.28	918.34
726.467	875.34
726.653	1002.31
726.84	918.34
727.027	901.96
727.213	928.58
727.4	873.29
727.586	934.73
727.773	959.3
727.959	852.81
728.145	824.14
728.332	813.9
728.518	873.29
728.705	856.9
728.891	850.76
729.077	811.85
729.264	893.77
729.45	865.1
729.636	863.05
729.823	879.43
730.009	813.9
730.195	852.81
730.382	758.6
730.568	768.84
730.754	799.56
730.94	848.71
731.126	848.71
731.313	801.61
731.499	768.84
731.685	836.42
731.871	799.56
732.057	803.66
732.243	865.1
732.429	768.84
732.615	750.41
732.801	863.05
732.987	727.88
733.173	750.41
733.359	820.04
733.545	779.08
733.731	729.93
733.917	844.62
734.103	768.84
734.289	774.99
734.475	740.17
734.661	826.18
734.847	758.6
735.033	838.47
735.219	717.64
735.404	770.89
735.59	721.74
735.776	772.94
735.962	721.74
736.148	781.13
736.333	770.89
736.519	752.46
736.705	701.26
736.89	648.01
737.076	699.21
737.262	709.45
737.447	721.74
737.633	717.64
737.819	746.31
738.004	709.45
738.19	609.1
738.375	688.97
738.561	688.97
738.747	662.35
738.932	602.96
739.118	684.87
739.303	727.88
739.489	652.11
739.674	744.27
739.859	697.16
740.045	695.11
740.23	607.05
740.416	643.92
740.601	656.2
740.786	697.16
740.972	652.11
741.157	611.15
741.342	580.43
741.528	643.92
741.713	572.24
741.898	607.05
742.084	650.06
742.269	598.86
742.454	564.04
742.639	688.97
742.824	656.2
743.01	648.01
743.195	697.16
743.38	627.53
743.565	705.35
743.75	551.76
743.935	617.29
744.12	699.21
744.305	656.2
744.49	592.72
744.675	584.52
744.86	605
745.045	586.57
745.23	623.44
745.415	580.43
745.6	662.35
745.785	615.24
745.97	617.29
746.155	596.81
746.34	523.09
746.525	594.76
746.71	518.99
746.895	521.04
747.079	535.37
747.264	662.35
747.449	539.47
747.634	510.8
747.819	533.33
748.003	521.04
748.188	486.22
748.373	521.04
748.557	494.41
748.742	498.51
748.927	514.89
749.111	549.71
749.296	475.98
749.481	498.51
749.665	547.66
749.85	510.8
750.034	441.17
750.219	508.75
750.404	502.61
750.588	539.47
750.773	523.09
750.957	535.37
751.141	488.27
751.326	471.89
751.51	516.94
751.695	490.32
751.879	394.06
752.064	461.65
752.248	437.07
752.432	418.64
752.617	457.55
752.801	451.41
752.985	422.73
753.17	480.08
753.354	369.49
753.538	471.89
753.722	439.12
753.907	414.54
754.091	463.69
754.275	408.4
754.459	355.15
754.643	443.21
754.828	426.83
755.012	457.55
755.196	412.5
755.38	385.87
755.564	387.92
755.748	480.08
755.932	416.59
756.116	416.59
756.3	375.63
756.484	367.44
756.668	392.02
756.852	394.06
757.036	394.06
757.22	420.69
757.404	342.86
757.588	357.2
757.772	336.72
757.956	416.59
758.14	439.12
758.323	293.71
758.507	269.14
758.691	291.66
758.875	351.06
759.059	318.29
759.242	336.72
759.426	355.15
759.61	344.91
759.794	383.82
759.977	412.5
760.161	373.58
760.345	375.63
760.528	344.91
760.712	418.64
760.895	277.33
761.079	396.11
761.263	242.51
761.446	326.48
761.63	340.82
761.813	353.1
761.997	320.34
762.18	291.66
762.364	383.82
762.547	277.33
762.731	316.24
762.914	369.49
763.098	346.96
763.281	291.66
763.464	265.04
763.648	371.54
763.831	369.49
764.015	340.82
764.198	299.86
764.381	283.47
764.564	330.58
764.748	287.57
764.931	273.23
765.114	357.2
765.297	367.44
765.481	289.62
765.664	275.28
765.847	330.58
766.03	301.9
766.213	318.29
766.397	314.19
766.58	281.43
766.763	271.19
766.946	281.43
767.129	306
767.312	283.47
767.495	332.62
767.678	340.82
767.861	326.48
768.044	258.9
768.227	373.58
768.41	242.51
768.593	299.86
768.776	422.73
768.959	260.95
769.142	322.38
769.324	314.19
769.507	293.71
769.69	197.46
769.873	242.51
770.056	328.53
770.239	217.94
770.421	320.34
770.604	326.48
770.787	260.95
770.97	285.52
771.152	234.32
771.335	320.34
771.518	265.04
771.7	320.34
771.883	275.28
772.066	299.86
772.248	293.71
772.431	342.86
772.613	359.25
772.796	293.71
772.978	312.14
773.161	279.38
773.343	238.42
773.526	234.32
773.708	262.99
773.891	234.32
774.073	365.39
774.256	303.95
774.438	334.67
774.621	185.17
774.803	299.86
774.985	283.47
775.168	303.95
775.35	256.85
775.532	297.81
775.715	215.89
775.897	269.14
776.079	277.33
776.261	250.71
776.444	303.95
776.626	250.71
776.808	205.65
776.99	174.93
777.173	316.24
777.355	189.27
777.537	236.37
777.719	195.41
777.901	226.13
778.083	250.71
778.265	209.75
778.447	289.62
778.629	156.5
778.811	219.99
778.993	207.7
779.175	222.03
779.357	207.7
779.539	215.89
779.721	174.93
779.903	168.79
780.085	267.09
780.267	250.71
780.449	185.17
780.631	238.42
780.812	203.6
780.994	222.03
781.176	109.4
781.358	176.98
781.54	172.88
781.721	254.8
781.903	234.32
782.085	172.88
782.267	189.27
782.448	197.46
782.63	217.94
782.812	195.41
782.993	152.4
783.175	205.65
783.357	166.74
783.538	176.98
783.72	121.68
783.901	148.31
784.083	199.51
784.264	174.93
784.446	164.69
784.627	160.59
784.809	144.21
784.99	226.13
785.172	193.36
785.353	230.23
785.535	131.92
785.716	150.36
785.897	144.21
786.079	95.06
786.26	201.55
786.441	95.06
786.623	140.12
786.804	138.07
786.985	138.07
787.167	146.26
787.348	168.79
787.529	156.5
787.71	152.4
787.891	119.64
788.073	152.4
788.254	148.31
788.435	109.4
788.616	70.48
788.797	185.17
788.978	117.59
789.159	103.25
789.34	174.93
789.522	123.73
789.703	152.4
789.884	95.06
790.065	187.22
790.246	129.88
790.427	127.83
790.607	138.07
790.788	133.97
790.969	189.27
791.15	97.11
791.331	144.21
791.512	136.02
791.693	84.82
791.874	123.73
792.054	107.35
792.235	160.59
792.416	174.93
792.597	105.3
792.778	99.16
792.958	95.06
793.139	156.5
793.32	109.4
793.5	76.63
793.681	138.07
793.862	103.25
794.042	103.25
794.223	131.92
794.404	146.26
794.584	80.72
794.765	121.68
794.945	68.44
795.126	154.45
795.306	125.78
795.487	125.78
795.667	115.54
795.848	140.12
796.028	27.48
796.209	90.96
796.389	70.48
796.57	70.48
796.75	76.63
796.93	136.02
797.111	105.3
797.291	86.87
797.471	115.54
797.652	84.82
797.832	127.83
798.012	127.83
798.192	58.2
798.373	133.97
798.553	72.53
798.733	133.97
798.913	25.43
799.093	111.44
799.274	60.24
799.454	68.44
799.634	72.53
799.814	103.25
799.994	123.73
800.174	127.83
800.354	86.87
800.534	15.19
800.714	21.33
800.894	37.72
801.074	-11.43
801.254	88.92
801.434	56.15
801.614	70.48
801.794	60.24
801.974	254.8
802.154	23.38
802.334	101.2
802.514	54.1
802.693	80.72
802.873	31.57
803.053	84.82
803.233	103.25
803.413	115.54
803.592	58.2
803.772	-3.24
803.952	101.2
804.131	62.29
804.311	64.34
804.491	21.33
804.67	107.35
804.85	52.05
805.03	133.97
805.209	146.26
805.389	43.86
805.568	144.21
805.748	129.88
805.928	11.09
806.107	78.68
806.287	76.63
806.466	64.34
806.646	152.4
806.825	52.05
807.004	66.39
807.184	23.38
807.363	66.39
807.543	45.91
807.722	-1.19
807.901	72.53
808.081	21.33
808.26	11.09
808.439	45.91
808.619	90.96
808.798	80.72
808.977	74.58
809.156	86.87
809.336	37.72
809.515	123.73
809.694	62.29
809.873	93.01
810.052	66.39
810.231	29.52
810.411	-5.29
810.59	39.76
810.769	15.19
810.948	37.72
811.127	70.48
811.306	80.72
811.485	119.64
811.664	88.92
811.843	13.14
812.022	23.38
812.201	68.44
812.38	56.15
812.559	29.52
812.737	72.53
812.916	58.2
813.095	84.82
813.274	9.05
813.453	41.81
813.632	29.52
813.811	68.44
813.989	86.87
814.168	54.1
814.347	-9.39
814.526	97.11
814.704	101.2
814.883	60.24
815.062	7
815.24	101.2
815.419	54.1
815.598	54.1
815.776	78.68
815.955	45.91
816.133	41.81
816.312	25.43
816.49	37.72
816.669	105.3
816.847	35.67
817.026	62.29
817.204	125.78
817.383	9.05
817.561	74.58
817.74	54.1
817.918	23.38
818.097	15.19
818.275	-15.53
818.453	33.62
818.632	9.05
818.81	80.72
818.988	80.72
819.167	31.57
819.345	31.57
819.523	62.29
819.701	64.34
819.879	29.52
820.058	45.91
820.236	19.29
820.414	39.76
820.592	52.05
820.77	41.81
820.948	78.68
821.127	72.53
821.305	-40.11
821.483	31.57
821.661	78.68
821.839	11.09
822.017	45.91
822.195	54.1
822.373	50
822.551	68.44
822.729	84.82
822.907	-1.19
823.085	39.76
823.262	47.96
823.44	-19.63
823.618	15.19
823.796	-3.24
823.974	19.29
824.152	17.24
824.329	-21.67
824.507	78.68
824.685	-15.53
824.863	35.67
825.04	39.76
825.218	37.72
825.396	11.09
825.574	9.05
825.751	-13.48
825.929	74.58
826.107	-9.39
826.284	17.24
826.462	43.86
826.639	62.29
826.817	50
826.994	13.14
827.172	19.29
827.349	19.29
827.527	-15.53
827.704	13.14
827.882	19.29
828.059	-76.97
828.237	-50.35
828.414	72.53
828.591	29.52
828.769	17.24
828.946	-31.91
829.124	121.68
829.301	74.58
829.478	88.92
829.655	11.09
829.833	84.82
830.01	82.77
830.187	119.64
830.364	35.67
830.542	-7.34
830.719	68.44
830.896	29.52
831.073	-21.67
831.25	15.19
831.427	43.86
831.604	50
831.782	-44.2
831.959	62.29
832.136	-7.34
832.313	82.77
832.49	-21.67
832.667	2.9
832.844	78.68
833.021	23.38
833.198	31.57
833.374	31.57
833.551	-3.24
833.728	35.67
833.905	27.48
834.082	-13.48
834.259	-27.82
834.436	62.29
834.612	19.29
834.789	4.95
834.966	50
835.143	-23.72
835.319	70.48
835.496	54.1
835.673	-19.63
835.85	19.29
836.026	93.01
836.203	37.72
836.38	21.33
836.556	-11.43
836.733	-11.43
836.909	31.57
837.086	-9.39
837.262	-13.48
837.439	47.96
837.616	2.9
837.792	27.48
837.968	-5.29
838.145	33.62
838.321	33.62
838.498	-42.15
838.674	76.63
838.851	-19.63
839.027	31.57
839.203	-21.67
839.38	17.24
839.556	11.09
839.732	4.95
839.909	-50.35
840.085	19.29
840.261	-5.29
840.437	39.76
840.614	13.14
840.79	54.1
840.966	-1.19
841.142	37.72
841.318	56.15
841.494	9.05
841.671	17.24
841.847	11.09
842.023	13.14
842.199	78.68
842.375	41.81
842.551	-9.39
842.727	-17.58
842.903	-31.91
843.079	17.24
843.255	37.72
843.431	4.95
843.607	25.43
843.783	27.48
843.959	50
844.134	-13.48
844.31	-1.19
844.486	21.33
844.662	-1.19
844.838	80.72
845.013	29.52
845.189	4.95
845.365	70.48
845.541	23.38
845.716	-48.3
845.892	27.48
846.068	-46.25
846.244	29.52
846.419	15.19
846.595	-11.43
846.77	11.09
846.946	-33.96
847.122	27.48
847.297	7
847.473	68.44
847.648	39.76
847.824	13.14
847.999	45.91
848.175	13.14
848.35	-7.34
848.526	78.68
848.701	47.96
848.876	25.43
849.052	-21.67
849.227	-27.82
849.403	-74.92
849.578	-9.39
849.753	25.43
849.929	35.67
850.104	9.05
850.279	21.33
850.454	25.43
850.63	13.14
850.805	56.15
850.98	-3.24
851.155	15.19
851.33	66.39
851.505	-17.58
851.681	-1.19
851.856	45.91
852.031	-31.91
852.206	19.29
852.381	7
852.556	0.85
852.731	90.96
852.906	54.1
853.081	-5.29
853.256	0.85
853.431	-5.29
853.606	-23.72
853.781	11.09
853.956	50
854.131	21.33
854.305	50
854.48	-40.11
854.655	90.96
854.83	-11.43
855.005	15.19
855.18	31.57
855.354	-23.72
855.529	-3.24
855.704	-19.63
855.879	13.14
856.053	27.48
856.228	-7.34
856.403	23.38
856.577	-50.35
856.752	11.09
856.926	52.05
857.101	-40.11
857.276	-5.29
857.45	54.1
857.625	37.72
857.799	64.34
857.974	66.39
858.148	17.24
858.323	47.96
858.497	-58.54
858.672	-62.63
858.846	-23.72
859.02	0.85
859.195	19.29
859.369	9.05
859.543	17.24
859.718	41.81
859.892	-21.67
860.066	-15.53
860.241	-38.06
860.415	37.72
860.589	27.48
860.763	54.1
860.938	-76.97
861.112	2.9
861.286	4.95
861.46	-21.67
861.634	62.29
861.808	13.14
861.982	19.29
862.157	-48.3
862.331	-52.39
862.505	-25.77
862.679	7
862.853	41.81
863.027	4.95
863.201	9.05
863.375	-31.91
863.549	39.76
863.722	45.91
863.896	13.14
864.07	41.81
864.244	23.38
864.418	33.62
864.592	-3.24
864.766	-23.72
864.939	-11.43
865.113	-44.2
865.287	-17.58
865.461	-87.21
865.634	-33.96
865.808	33.62
865.982	2.9
866.156	-19.63
866.329	-52.39
866.503	21.33
866.676	0.85
866.85	19.29
867.024	-44.2
867.197	-13.48
867.371	-17.58
867.544	-19.63
867.718	-15.53
867.891	-3.24
868.065	19.29
868.238	19.29
868.412	47.96
868.585	7
868.759	9.05
868.932	88.92
869.105	70.48
869.279	-91.31
869.452	-38.06
869.625	4.95
869.799	-19.63
869.972	4.95
870.145	-13.48
870.319	23.38
870.492	58.2
870.665	17.24
870.838	37.72
871.011	-31.91
871.185	11.09
871.358	25.43
871.531	-15.53
871.704	-7.34
871.877	-40.11
872.05	-9.39
872.223	13.14
872.396	-25.77
872.569	17.24
872.742	-21.67
872.915	-3.24
873.088	70.48
873.261	33.62
873.434	-19.63
873.607	-13.48
873.78	0.85
873.953	-17.58
874.126	50
874.299	29.52
874.471	9.05
874.644	23.38
874.817	25.43
874.99	86.87
875.163	-9.39
875.335	-42.15
875.508	-25.77
875.681	-79.02
875.853	7
876.026	-50.35
876.199	-97.45
876.371	66.39
876.544	-27.82
876.717	95.06
876.889	-23.72
877.062	-38.06
877.234	-56.49
877.407	-48.3
877.579	0.85
877.752	4.95
877.924	-17.58
878.097	-13.48
878.269	9.05
878.442	13.14
878.614	15.19
878.786	29.52
878.959	29.52
879.131	-31.91
879.303	-31.91
879.476	23.38
879.648	11.09
879.82	0.85
879.993	-25.77
880.165	4.95
880.337	-58.54
880.509	-42.15
880.681	4.95
880.854	-31.91
881.026	13.14
881.198	-50.35
881.37	-19.63
881.542	25.43
881.714	0.85
881.886	-36.01
882.058	-27.82
882.23	21.33
882.402	-17.58
882.574	29.52
882.746	0.85
882.918	7
883.09	-83.11
883.262	9.05
883.434	37.72
883.606	21.33
883.778	-52.39
883.95	-3.24
884.122	-21.67
884.293	80.72
884.465	35.67
884.637	-9.39
884.809	-5.29
884.98	41.81
885.152	25.43
885.324	19.29
885.496	-21.67
885.667	-33.96
885.839	-60.59
886.011	37.72
886.182	21.33
886.354	39.76
886.525	9.05
886.697	39.76
886.869	-52.39
887.04	-1.19
887.212	13.14
887.383	109.4
887.555	29.52
887.726	4.95
887.897	-9.39
888.069	-23.72
888.24	7
888.412	11.09
888.583	-52.39
888.754	-60.59
888.926	-1.19
889.097	-13.48
889.268	13.14
889.44	29.52
889.611	-76.97
889.782	-11.43
889.953	-21.67
890.125	-31.91
890.296	-3.24
890.467	-21.67
890.638	-19.63
890.809	9.05
890.98	-87.21
891.151	21.33
891.323	39.76
891.494	58.2
891.665	-50.35
891.836	45.91
892.007	-3.24
892.178	-44.2
892.349	39.76
892.52	70.48
892.691	21.33
892.862	-1.19
893.032	-50.35
893.203	9.05
893.374	-68.78
893.545	-1.19
893.716	15.19
893.887	9.05
894.057	15.19
894.228	9.05
894.399	-76.97
894.57	-11.43
894.74	58.2
894.911	-11.43
895.082	-36.01
895.253	47.96
895.423	33.62
895.594	-13.48
895.764	-25.77
895.935	-15.53
896.106	-74.92
896.276	39.76
896.447	-52.39
896.617	37.72
896.788	-85.16
896.958	-15.53
897.129	-27.82
897.299	54.1
897.47	-79.02
897.64	-9.39
897.81	-19.63
897.981	-15.53
898.151	-11.43
898.322	-58.54
898.492	0.85
898.662	-5.29
898.832	-38.06
899.003	-21.67
899.173	41.81
899.343	11.09
899.513	-29.87
