Data from USB4F104151__49__12-53-55-394.txt Node

Date: Fri Mar 14 12:53:55 EDT 2025
User: louis
Spectrometer: USB4F10415
Trigger mode: 4
Integration Time (sec): 1.000000E-2
Scans to average: 1
Electric dark correction enabled: true
Nonlinearity correction enabled: false
Boxcar width: 0
XAxis mode: Wavelengths
Number of Pixels in Spectrum: 3648
>>>>>Begin Spectral Data<<<<<
178.204	-64.68
178.424	-64.68
178.644	-64.68
178.864	-31.91
179.084	-111.78
179.304	9.05
179.524	-58.54
179.744	-13.48
179.964	45.91
180.184	37.72
180.404	21.33
180.624	11.09
180.844	9.05
181.064	-31.91
181.283	37.72
181.503	-38.06
181.723	-29.87
181.943	-11.43
182.163	23.38
182.383	9.05
182.602	-40.11
182.822	-72.87
183.042	33.62
183.262	-19.63
183.482	-31.91
183.701	-29.87
183.921	21.33
184.141	-40.11
184.361	-17.58
184.58	-40.11
184.8	23.38
185.02	-25.77
185.239	7
185.459	13.14
185.679	-40.11
185.898	-36.01
186.118	0.85
186.338	-107.69
186.557	-81.07
186.777	7
186.997	-62.63
187.216	-11.43
187.436	-40.11
187.655	-99.5
187.875	-7.34
188.095	-38.06
188.314	17.24
188.534	-29.87
188.753	-21.67
188.973	37.72
189.192	25.43
189.412	-19.63
189.631	33.62
189.851	2.9
190.07	4.95
190.29	-15.53
190.509	19.29
190.729	-60.59
190.948	43.86
191.168	123.73
191.387	-31.91
191.607	-48.3
191.826	-62.63
192.045	-50.35
192.265	2.9
192.484	31.57
192.704	15.19
192.923	-17.58
193.142	2.9
193.362	-52.39
193.581	27.48
193.8	-36.01
194.02	-56.49
194.239	-31.91
194.458	29.52
194.678	-1.19
194.897	7
195.116	-42.15
195.335	0.85
195.555	50
195.774	-38.06
195.993	-29.87
196.212	-64.68
196.432	0.85
196.651	11.09
196.87	-72.87
197.089	31.57
197.308	-40.11
197.528	17.24
197.747	31.57
197.966	9.05
198.185	31.57
198.404	39.76
198.623	19.29
198.842	-3.24
199.062	-46.25
199.281	33.62
199.5	-23.72
199.719	-1.19
199.938	-29.87
200.157	-25.77
200.376	-31.91
200.595	-38.06
200.814	0.85
201.033	54.1
201.252	-23.72
201.471	-36.01
201.69	-5.29
201.909	11.09
202.128	2.9
202.347	13.14
202.566	-46.25
202.785	0.85
203.004	-44.2
203.223	43.86
203.442	23.38
203.661	-97.45
203.879	-58.54
204.098	-44.2
204.317	-13.48
204.536	-79.02
204.755	25.43
204.974	-29.87
205.193	-27.82
205.411	31.57
205.63	-97.45
205.849	41.81
206.068	-21.67
206.287	-1.19
206.505	43.86
206.724	13.14
206.943	-31.91
207.162	-76.97
207.381	39.76
207.599	4.95
207.818	-38.06
208.037	9.05
208.255	-5.29
208.474	43.86
208.693	9.05
208.911	23.38
209.13	-36.01
209.349	39.76
209.567	27.48
209.786	35.67
210.005	7
210.223	-81.07
210.442	-38.06
210.661	27.48
210.879	-17.58
211.098	7
211.316	-85.16
211.535	11.09
211.753	33.62
211.972	-15.53
212.191	39.76
212.409	-48.3
212.628	-31.91
212.846	11.09
213.065	-42.15
213.283	-29.87
213.502	-7.34
213.72	-60.59
213.938	0.85
214.157	-56.49
214.375	0.85
214.594	-46.25
214.812	-21.67
215.031	9.05
215.249	-60.59
215.467	-23.72
215.686	-46.25
215.904	52.05
216.122	54.1
216.341	-17.58
216.559	-13.48
216.778	72.53
216.996	33.62
217.214	-66.73
217.432	-60.59
217.651	-31.91
217.869	-21.67
218.087	4.95
218.306	-5.29
218.524	15.19
218.742	7
218.96	93.01
219.179	-66.73
219.397	-13.48
219.615	2.9
219.833	17.24
220.051	-54.44
220.27	-19.63
220.488	-11.43
220.706	-44.2
220.924	-15.53
221.142	-11.43
221.36	-3.24
221.578	43.86
221.796	-29.87
222.015	0.85
222.233	-5.29
222.451	-40.11
222.669	-31.91
222.887	-33.96
223.105	-1.19
223.323	64.34
223.541	-23.72
223.759	4.95
223.977	-52.39
224.195	-25.77
224.413	-54.44
224.631	-29.87
224.849	25.43
225.067	17.24
225.285	-13.48
225.503	25.43
225.721	-46.25
225.939	35.67
226.157	-27.82
226.375	37.72
226.592	-56.49
226.81	-38.06
227.028	-36.01
227.246	27.48
227.464	-25.77
227.682	-31.91
227.9	2.9
228.117	-58.54
228.335	-70.83
228.553	11.09
228.771	-44.2
228.989	9.05
229.206	-119.98
229.424	-13.48
229.642	-15.53
229.86	-44.2
230.077	-33.96
230.295	-11.43
230.513	-44.2
230.731	4.95
230.948	-3.24
231.166	35.67
231.384	-38.06
231.601	-42.15
231.819	39.76
232.037	58.2
232.254	62.29
232.472	-19.63
232.689	-7.34
232.907	-23.72
233.125	-19.63
233.342	-31.91
233.56	-70.83
233.777	9.05
233.995	45.91
234.213	2.9
234.43	41.81
234.648	0.85
234.865	-19.63
235.083	-19.63
235.3	23.38
235.518	2.9
235.735	15.19
235.953	-85.16
236.17	-111.78
236.388	-27.82
236.605	-11.43
236.822	27.48
237.04	4.95
237.257	-40.11
237.475	-25.77
237.692	13.14
237.909	-31.91
238.127	-17.58
238.344	9.05
238.562	-23.72
238.779	2.9
238.996	-13.48
239.214	13.14
239.431	33.62
239.648	-7.34
239.865	-15.53
240.083	13.14
240.3	39.76
240.517	-13.48
240.735	-29.87
240.952	-15.53
241.169	-36.01
241.386	-38.06
241.603	-25.77
241.821	-42.15
242.038	-7.34
242.255	9.05
242.472	0.85
242.689	2.9
242.907	66.39
243.124	-19.63
243.341	-81.07
243.558	-48.3
243.775	7
243.992	-19.63
244.209	-9.39
244.426	9.05
244.643	52.05
244.86	-15.53
245.078	11.09
245.295	9.05
245.512	52.05
245.729	-3.24
245.946	-25.77
246.163	4.95
246.38	-21.67
246.597	-50.35
246.814	-54.44
247.031	-31.91
247.248	0.85
247.464	39.76
247.681	-29.87
247.898	52.05
248.115	-7.34
248.332	-93.35
248.549	-7.34
248.766	-9.39
248.983	78.68
249.2	-42.15
249.417	-36.01
249.633	21.33
249.85	7
250.067	-38.06
250.284	-3.24
250.501	11.09
250.717	-1.19
250.934	-83.11
251.151	15.19
251.368	31.57
251.585	-27.82
251.801	-5.29
252.018	-7.34
252.235	17.24
252.451	-36.01
252.668	50
252.885	2.9
253.102	11.09
253.318	-38.06
253.535	0.85
253.752	-7.34
253.968	-54.44
254.185	21.33
254.401	-13.48
254.618	7
254.835	39.76
255.051	35.67
255.268	-23.72
255.484	-23.72
255.701	-42.15
255.917	-7.34
256.134	50
256.351	-60.59
256.567	-31.91
256.784	31.57
257	-113.83
257.217	-25.77
257.433	52.05
257.65	-29.87
257.866	27.48
258.082	-1.19
258.299	0.85
258.515	-23.72
258.732	50
258.948	-13.48
259.165	-3.24
259.381	-15.53
259.597	2.9
259.814	-44.2
260.03	-99.5
260.246	9.05
260.463	33.62
260.679	47.96
260.895	-1.19
261.112	-21.67
261.328	-21.67
261.544	41.81
261.761	41.81
261.977	50
262.193	-54.44
262.409	-48.3
262.626	-11.43
262.842	17.24
263.058	-83.11
263.274	-7.34
263.49	-44.2
263.707	39.76
263.923	-38.06
264.139	15.19
264.355	-9.39
264.571	58.2
264.787	-40.11
265.004	25.43
265.22	-52.39
265.436	-3.24
265.652	-21.67
265.868	-21.67
266.084	-66.73
266.3	-85.16
266.516	-44.2
266.732	23.38
266.948	-72.87
267.164	13.14
267.38	4.95
267.596	2.9
267.812	23.38
268.028	52.05
268.244	-19.63
268.46	-109.74
268.676	-38.06
268.892	4.95
269.108	-21.67
269.324	-21.67
269.54	21.33
269.756	-13.48
269.972	-33.96
270.188	0.85
270.403	-29.87
270.619	25.43
270.835	-76.97
271.051	-11.43
271.267	-21.67
271.483	56.15
271.698	-25.77
271.914	-5.29
272.13	-105.64
272.346	-48.3
272.562	11.09
272.777	41.81
272.993	62.29
273.209	-3.24
273.425	-48.3
273.64	-54.44
273.856	-23.72
274.072	-60.59
274.287	9.05
274.503	-7.34
274.719	58.2
274.934	-56.49
275.15	23.38
275.366	-5.29
275.581	-56.49
275.797	-7.34
276.012	-21.67
276.228	-23.72
276.444	0.85
276.659	43.86
276.875	25.43
277.09	-64.68
277.306	7
277.521	78.68
277.737	-31.91
277.952	60.24
278.168	-87.21
278.383	-11.43
278.599	-9.39
278.814	-7.34
279.03	-31.91
279.245	9.05
279.461	-3.24
279.676	27.48
279.892	-15.53
280.107	7
280.322	-11.43
280.538	70.48
280.753	-103.59
280.969	41.81
281.184	-9.39
281.399	19.29
281.615	-64.68
281.83	43.86
282.045	-44.2
282.26	-31.91
282.476	-15.53
282.691	25.43
282.906	37.72
283.122	-7.34
283.337	2.9
283.552	-48.3
283.767	-17.58
283.983	4.95
284.198	-31.91
284.413	-38.06
284.628	-60.59
284.843	-5.29
285.058	7
285.274	-70.83
285.489	2.9
285.704	0.85
285.919	-11.43
286.134	27.48
286.349	-56.49
286.564	-44.2
286.779	-52.39
286.995	-44.2
287.21	-72.87
287.425	39.76
287.64	-54.44
287.855	-68.78
288.07	-44.2
288.285	15.19
288.5	-33.96
288.715	4.95
288.93	50
289.145	19.29
289.36	-17.58
289.575	25.43
289.79	-21.67
290.004	-13.48
290.219	17.24
290.434	-23.72
290.649	-1.19
290.864	-52.39
291.079	-60.59
291.294	-93.35
291.509	4.95
291.724	-1.19
291.938	-54.44
292.153	-19.63
292.368	-42.15
292.583	-66.73
292.798	13.14
293.012	19.29
293.227	-9.39
293.442	-60.59
293.657	-74.92
293.871	-36.01
294.086	-11.43
294.301	-40.11
294.516	-31.91
294.73	19.29
294.945	-42.15
295.16	-29.87
295.374	2.9
295.589	-50.35
295.804	-42.15
296.018	9.05
296.233	-19.63
296.447	2.9
296.662	2.9
296.877	-7.34
297.091	-13.48
297.306	-25.77
297.52	-54.44
297.735	-5.29
297.949	9.05
298.164	58.2
298.378	-13.48
298.593	-54.44
298.807	11.09
299.022	-68.78
299.236	7
299.451	-5.29
299.665	-48.3
299.88	-13.48
300.094	41.81
300.309	-1.19
300.523	-60.59
300.737	-29.87
300.952	11.09
301.166	-9.39
301.381	-5.29
301.595	-7.34
301.809	33.62
302.024	-11.43
302.238	-19.63
302.452	33.62
302.667	-62.63
302.881	4.95
303.095	21.33
303.309	37.72
303.524	50
303.738	21.33
303.952	52.05
304.166	0.85
304.381	-44.2
304.595	4.95
304.809	45.91
305.023	17.24
305.237	56.15
305.452	-29.87
305.666	45.91
305.88	13.14
306.094	-23.72
306.308	52.05
306.522	17.24
306.736	11.09
306.95	-87.21
307.164	-83.11
307.379	0.85
307.593	-72.87
307.807	-89.26
308.021	-50.35
308.235	-50.35
308.449	39.76
308.663	0.85
308.877	2.9
309.091	-7.34
309.305	2.9
309.519	-38.06
309.733	2.9
309.947	-9.39
310.161	4.95
310.374	9.05
310.588	31.57
310.802	21.33
311.016	25.43
311.23	-27.82
311.444	-60.59
311.658	-21.67
311.872	-17.58
312.085	-38.06
312.299	37.72
312.513	-3.24
312.727	-17.58
312.941	-50.35
313.154	31.57
313.368	25.43
313.582	-72.87
313.796	-36.01
314.009	37.72
314.223	25.43
314.437	-1.19
314.651	-29.87
314.864	-79.02
315.078	-15.53
315.292	-46.25
315.505	50
315.719	-44.2
315.933	-5.29
316.146	-27.82
316.36	-9.39
316.573	72.53
316.787	-48.3
317.001	0.85
317.214	-13.48
317.428	56.15
317.641	-91.31
317.855	27.48
318.068	-68.78
318.282	-21.67
318.495	-17.58
318.709	2.9
318.922	-13.48
319.136	17.24
319.349	-29.87
319.563	-31.91
319.776	-56.49
319.99	-3.24
320.203	4.95
320.417	29.52
320.63	9.05
320.843	27.48
321.057	-19.63
321.27	-72.87
321.483	-25.77
321.697	47.96
321.91	-33.96
322.124	2.9
322.337	27.48
322.55	15.19
322.763	25.43
322.977	-40.11
323.19	-44.2
323.403	72.53
323.617	-11.43
323.83	-36.01
324.043	-9.39
324.256	-44.2
324.469	-9.39
324.683	-52.39
324.896	19.29
325.109	31.57
325.322	9.05
325.535	-46.25
325.748	-46.25
325.962	-29.87
326.175	19.29
326.388	-103.59
326.601	-3.24
326.814	-15.53
327.027	-9.39
327.24	-29.87
327.453	2.9
327.666	-15.53
327.879	47.96
328.092	-46.25
328.305	-29.87
328.518	-7.34
328.731	-70.83
328.944	-29.87
329.157	33.62
329.37	-23.72
329.583	47.96
329.796	-9.39
330.009	33.62
330.222	-5.29
330.435	-60.59
330.648	-15.53
330.861	-54.44
331.073	-1.19
331.286	-7.34
331.499	-33.96
331.712	-1.19
331.925	-68.78
332.138	4.95
332.35	11.09
332.563	-25.77
332.776	-29.87
332.989	19.29
333.202	-48.3
333.414	2.9
333.627	-38.06
333.84	62.29
334.053	-9.39
334.265	4.95
334.478	-54.44
334.691	-17.58
334.903	-21.67
335.116	-13.48
335.329	-31.91
335.541	37.72
335.754	4.95
335.966	-64.68
336.179	84.82
336.392	-72.87
336.604	29.52
336.817	-25.77
337.029	13.14
337.242	56.15
337.454	25.43
337.667	15.19
337.88	-13.48
338.092	13.14
338.305	17.24
338.517	-70.83
338.729	-74.92
338.942	-29.87
339.154	-9.39
339.367	-48.3
339.579	2.9
339.792	-1.19
340.004	4.95
340.217	-60.59
340.429	-27.82
340.641	-58.54
340.854	29.52
341.066	-19.63
341.278	-25.77
341.491	-15.53
341.703	27.48
341.915	-46.25
342.128	-52.39
342.34	-21.67
342.552	37.72
342.764	9.05
342.977	-5.29
343.189	-21.67
343.401	2.9
343.613	-72.87
343.826	33.62
344.038	-15.53
344.25	-17.58
344.462	-3.24
344.674	-13.48
344.886	-42.15
345.099	9.05
345.311	-23.72
345.523	-83.11
345.735	-29.87
345.947	-3.24
346.159	21.33
346.371	17.24
346.583	-52.39
346.795	35.67
347.007	-1.19
347.219	-76.97
347.431	-33.96
347.643	-25.77
347.855	52.05
348.067	58.2
348.279	-38.06
348.491	35.67
348.703	66.39
348.915	4.95
349.127	-13.48
349.339	23.38
349.551	50
349.763	-42.15
349.975	2.9
350.187	-29.87
350.399	9.05
350.61	-21.67
350.822	15.19
351.034	-25.77
351.246	-25.77
351.458	-62.63
351.669	19.29
351.881	19.29
352.093	-38.06
352.305	11.09
352.517	-76.97
352.728	-64.68
352.94	52.05
353.152	-25.77
353.363	-1.19
353.575	97.11
353.787	-1.19
353.999	11.09
354.21	27.48
354.422	4.95
354.633	-3.24
354.845	-31.91
355.057	-33.96
355.268	41.81
355.48	13.14
355.692	-5.29
355.903	-70.83
356.115	-9.39
356.326	-15.53
356.538	-9.39
356.749	-31.91
356.961	-15.53
357.172	-42.15
357.384	-3.24
357.595	-5.29
357.807	82.77
358.018	-62.63
358.23	25.43
358.441	-44.2
358.653	45.91
358.864	-56.49
359.075	-66.73
359.287	-36.01
359.498	0.85
359.709	-44.2
359.921	76.63
360.132	-31.91
360.344	35.67
360.555	23.38
360.766	-46.25
360.977	-79.02
361.189	4.95
361.4	2.9
361.611	-74.92
361.823	47.96
362.034	60.24
362.245	-9.39
362.456	-23.72
362.667	0.85
362.879	-29.87
363.09	-66.73
363.301	17.24
363.512	-52.39
363.723	86.87
363.935	-36.01
364.146	56.15
364.357	-3.24
364.568	-7.34
364.779	-23.72
364.99	-85.16
365.201	-21.67
365.412	-7.34
365.623	-29.87
365.834	-36.01
366.045	-5.29
366.256	125.78
366.467	-25.77
366.678	4.95
366.889	-40.11
367.1	-44.2
367.311	-15.53
367.522	76.63
367.733	-15.53
367.944	-70.83
368.155	-19.63
368.366	-1.19
368.577	19.29
368.788	-1.19
368.999	-15.53
369.209	-23.72
369.42	31.57
369.631	-17.58
369.842	-7.34
370.053	-48.3
370.264	50
370.474	-1.19
370.685	45.91
370.896	-3.24
371.107	13.14
371.317	27.48
371.528	-38.06
371.739	-79.02
371.95	25.43
372.16	17.24
372.371	21.33
372.582	-21.67
372.792	-1.19
373.003	17.24
373.214	-74.92
373.424	78.68
373.635	9.05
373.846	23.38
374.056	56.15
374.267	19.29
374.477	-9.39
374.688	-36.01
374.898	0.85
375.109	-66.73
375.319	-5.29
375.53	-42.15
375.74	-50.35
375.951	-15.53
376.161	-5.29
376.372	39.76
376.582	11.09
376.793	-27.82
377.003	64.34
377.214	-81.07
377.424	11.09
377.635	39.76
377.845	-42.15
378.055	19.29
378.266	-5.29
378.476	4.95
378.686	-70.83
378.897	-44.2
379.107	-15.53
379.317	33.62
379.528	-11.43
379.738	0.85
379.948	-66.73
380.158	35.67
380.369	-5.29
380.579	21.33
380.789	0.85
380.999	-29.87
381.21	-5.29
381.42	80.72
381.63	7
381.84	-42.15
382.05	11.09
382.261	-62.63
382.471	-5.29
382.681	-48.3
382.891	-11.43
383.101	31.57
383.311	-1.19
383.521	-23.72
383.731	-95.4
383.941	-27.82
384.151	-21.67
384.361	-9.39
384.571	-23.72
384.781	15.19
384.991	-13.48
385.201	35.67
385.411	-11.43
385.621	2.9
385.831	-74.92
386.041	-19.63
386.251	15.19
386.461	58.2
386.671	27.48
386.881	-60.59
387.091	-3.24
387.301	33.62
387.511	-7.34
387.72	-33.96
387.93	-44.2
388.14	-40.11
388.35	-7.34
388.56	27.48
388.769	13.14
388.979	0.85
389.189	23.38
389.399	-19.63
389.609	29.52
389.818	9.05
390.028	2.9
390.238	78.68
390.447	-7.34
390.657	-64.68
390.867	19.29
391.076	-29.87
391.286	7
391.496	-36.01
391.705	-13.48
391.915	25.43
392.125	58.2
392.334	43.86
392.544	-29.87
392.753	-23.72
392.963	-52.39
393.172	84.82
393.382	-50.35
393.591	-13.48
393.801	-64.68
394.01	37.72
394.22	-21.67
394.429	-56.49
394.639	-48.3
394.848	13.14
395.058	11.09
395.267	37.72
395.477	37.72
395.686	-29.87
395.895	54.1
396.105	-27.82
396.314	13.14
396.524	50
396.733	-44.2
396.942	-21.67
397.152	-19.63
397.361	54.1
397.57	-15.53
397.78	-46.25
397.989	54.1
398.198	21.33
398.407	-52.39
398.617	-13.48
398.826	-13.48
399.035	17.24
399.244	0.85
399.453	21.33
399.663	-13.48
399.872	11.09
400.081	11.09
400.29	27.48
400.499	-48.3
400.708	-19.63
400.917	-48.3
401.127	17.24
401.336	15.19
401.545	-23.72
401.754	-25.77
401.963	-40.11
402.172	-15.53
402.381	50
402.59	-9.39
402.799	-11.43
403.008	-1.19
403.217	-21.67
403.426	47.96
403.635	-70.83
403.844	-9.39
404.053	-5.29
404.262	-31.91
404.471	2.9
404.68	-9.39
404.888	11.09
405.097	21.33
405.306	-13.48
405.515	27.48
405.724	4.95
405.933	50
406.142	29.52
406.35	68.44
406.559	27.48
406.768	-29.87
406.977	-1.19
407.185	-25.77
407.394	9.05
407.603	56.15
407.812	113.49
408.02	-7.34
408.229	9.05
408.438	33.62
408.646	70.48
408.855	-50.35
409.064	-1.19
409.272	-1.19
409.481	66.39
409.69	-21.67
409.898	39.76
410.107	21.33
410.315	7
410.524	29.52
410.733	27.48
410.941	43.86
411.15	19.29
411.358	39.76
411.567	56.15
411.775	97.11
411.984	31.57
412.192	93.01
412.401	66.39
412.609	97.11
412.818	64.34
413.026	54.1
413.234	166.74
413.443	4.95
413.651	45.91
413.86	131.92
414.068	84.82
414.276	185.17
414.485	84.82
414.693	78.68
414.901	123.73
415.11	95.06
415.318	99.16
415.526	176.98
415.734	121.68
415.943	115.54
416.151	140.12
416.359	133.97
416.567	131.92
416.776	76.63
416.984	115.54
417.192	119.64
417.4	224.08
417.608	156.5
417.817	140.12
418.025	185.17
418.233	254.8
418.441	187.22
418.649	205.65
418.857	238.42
419.065	252.75
419.273	236.37
419.481	205.65
419.689	207.7
419.897	240.47
420.105	346.96
420.313	271.19
420.521	271.19
420.729	224.08
420.937	201.55
421.145	344.91
421.353	283.47
421.561	318.29
421.769	334.67
421.977	316.24
422.185	377.68
422.393	435.02
422.601	404.3
422.809	482.13
423.017	412.5
423.224	400.21
423.432	414.54
423.64	480.08
423.848	430.93
424.056	484.17
424.263	475.98
424.471	453.45
424.679	566.09
424.887	537.42
425.094	525.13
425.302	510.8
425.51	514.89
425.718	643.92
425.925	570.19
426.133	570.19
426.341	664.4
426.548	779.08
426.756	727.88
426.964	674.64
427.171	709.45
427.379	762.7
427.586	811.85
427.794	811.85
428.001	883.53
428.209	897.86
428.417	791.37
428.624	961.35
428.832	893.77
429.039	965.45
429.247	875.34
429.454	987.97
429.662	1209.15
429.869	1053.51
430.076	1041.22
430.284	1055.56
430.491	1100.61
430.699	1121.09
430.906	1170.24
431.114	1174.34
431.321	1252.16
431.528	1289.03
431.736	1389.38
431.943	1291.07
432.15	1418.05
432.358	1397.57
432.565	1495.87
432.772	1467.2
432.979	1393.47
433.187	1536.83
433.394	1483.58
433.601	1655.61
433.808	1631.04
434.016	1667.9
434.223	1692.48
434.43	1790.78
434.637	1809.21
434.844	1872.7
435.052	1852.22
435.259	1936.18
435.466	1917.75
435.673	1940.28
435.88	2024.25
436.087	2163.51
436.294	2245.43
436.501	2181.94
436.708	2091.83
436.915	2220.85
437.122	2351.92
437.329	2409.26
437.537	2394.93
437.743	2517.81
437.95	2442.03
438.157	2556.72
438.364	2517.81
438.571	2677.55
438.778	2726.7
438.985	2839.34
439.192	2767.66
439.399	2825
439.606	2786.09
439.813	3013.42
440.02	3205.92
440.227	3154.73
440.433	3064.61
440.64	3124.01
440.847	3085.09
441.054	3269.41
441.261	3418.91
441.467	3517.22
441.674	3435.3
441.881	3670.81
442.088	3595.04
442.294	3605.28
442.501	3738.4
442.708	3703.58
442.914	3900.19
443.121	4045.59
443.328	4023.06
443.534	4186.9
443.741	4014.87
443.948	4035.35
444.154	4373.27
444.361	4315.92
444.568	4381.46
444.774	4336.4
444.981	4446.99
445.187	4530.96
445.394	4848.4
445.6	4565.78
445.807	5118.73
446.013	4911.88
446.22	4918.03
446.426	5049.1
446.633	5235.46
446.839	5477.12
447.046	5149.45
447.252	5489.41
447.459	5481.22
447.665	5456.64
447.871	5554.94
448.078	5970.68
448.284	5591.81
448.491	5835.52
448.697	5985.02
448.903	6140.66
449.11	6093.56
449.316	6116.09
449.522	6200.05
449.728	6335.22
449.935	6253.3
450.141	6439.67
450.347	6542.07
450.553	6367.99
450.76	6419.19
450.966	6759.15
451.172	6666.99
451.378	6834.93
451.584	6822.64
451.791	6888.17
451.997	6781.68
452.203	6927.08
452.409	6951.66
452.615	6998.76
452.821	6689.52
453.027	6687.47
453.233	6849.26
453.44	6834.93
453.646	6712.05
453.852	6894.32
454.058	6818.54
454.264	6830.83
454.47	7011.05
454.676	6703.86
454.882	6920.94
455.088	6296.31
455.294	6372.08
455.5	6542.07
455.705	6613.74
455.911	6546.16
456.117	6249.21
456.323	6054.65
456.529	5876.48
456.735	6111.99
456.941	5890.81
457.147	5837.56
457.352	5690.11
457.558	5743.36
457.764	5700.35
457.97	5620.48
458.176	5507.84
458.381	5417.73
458.587	5305.09
458.793	5268.23
458.999	4965.13
459.204	5434.11
459.41	5135.11
459.616	4872.97
459.821	4922.12
460.027	4924.17
460.233	4733.71
460.438	4485.9
460.644	4598.54
460.85	4436.75
461.055	4344.6
461.261	4438.8
461.466	4049.69
461.672	3789.6
461.878	4213.53
462.083	3814.17
462.289	3885.85
462.494	3803.93
462.7	3648.29
462.905	3584.8
463.111	3697.44
463.316	3760.92
463.522	3666.72
463.727	3504.93
463.932	3703.58
464.138	3517.22
464.343	3474.21
464.549	3586.85
464.754	3543.84
464.959	3674.91
465.165	3564.32
465.37	3472.16
465.575	3298.08
465.781	3388.19
465.986	3568.41
466.191	3336.99
466.397	3289.89
466.602	3167.01
466.807	3228.45
467.012	3287.84
467.218	3259.17
467.423	3240.74
467.628	3222.31
467.833	3384.1
468.038	3365.67
468.244	3164.97
468.449	3267.36
468.654	3343.14
468.859	3009.32
469.064	3302.18
469.269	3054.37
469.474	3013.42
469.679	3021.61
469.885	3015.46
470.09	2974.5
470.295	3001.13
470.5	2870.06
470.705	3048.23
470.91	2933.54
471.115	2863.91
471.32	2892.59
471.525	2900.78
471.73	2902.83
471.935	2831.15
472.139	2667.31
472.344	2663.21
472.549	2771.76
472.754	2779.95
472.959	2650.92
473.164	2581.29
473.369	2620.21
473.574	2636.59
473.778	2556.72
473.983	2509.62
474.188	2573.1
474.393	2433.84
474.598	2501.42
474.802	2513.71
475.007	2386.74
475.212	2413.36
475.417	2487.09
475.621	2364.21
475.826	2335.54
476.031	2220.85
476.235	2351.92
476.44	2263.86
476.645	2229.04
476.849	2288.43
477.054	2263.86
477.259	2198.32
477.463	2175.8
477.668	2130.74
477.872	2196.28
478.077	2124.6
478.282	2057.01
478.486	2138.93
478.691	2175.8
478.895	1968.95
479.1	2009.91
479.304	1936.18
479.509	1934.14
479.713	1985.34
479.918	1964.86
480.122	1934.14
480.326	2009.91
480.531	1895.22
480.735	1852.22
480.94	1983.29
481.144	2042.68
481.348	1903.42
481.553	1862.46
481.757	1927.99
481.961	1870.65
482.166	1942.33
482.37	1882.94
482.574	1807.16
482.778	1909.56
482.983	1952.57
483.187	1950.52
483.391	1905.46
483.595	1891.13
483.8	1784.63
484.004	1887.03
484.208	1917.75
484.412	1872.7
484.616	1891.13
484.821	1948.47
485.025	1960.76
485.229	1987.38
485.433	1927.99
485.637	1958.71
485.841	1948.47
486.045	1891.13
486.249	1958.71
486.453	1921.85
486.657	1844.03
486.861	1964.86
487.065	1823.55
487.269	1899.32
487.473	1942.33
487.677	1991.48
487.881	2069.3
488.085	2022.2
488.289	2048.82
488.493	1905.46
488.697	2026.29
488.901	1975.1
489.105	1991.48
489.309	1975.1
489.512	2032.44
489.716	2057.01
489.92	2016.05
490.124	2091.83
490.328	2077.49
490.531	2061.11
490.735	2091.83
490.939	2106.17
491.143	2085.69
491.346	2128.69
491.55	2145.08
491.754	2183.99
491.958	2239.28
492.161	2167.6
492.365	2319.15
492.569	2163.51
492.772	2214.71
492.976	2243.38
493.18	2155.32
493.383	2341.68
493.587	2315.06
493.79	2321.2
493.994	2388.78
494.197	2323.25
494.401	2425.65
494.605	2399.02
494.808	2552.62
495.012	2419.5
495.215	2474.8
495.419	2517.81
495.622	2546.48
495.825	2638.64
496.029	2652.97
496.232	2614.06
496.436	2663.21
496.639	2579.25
496.843	2612.01
497.046	2704.17
497.249	2769.71
497.453	2900.78
497.656	2921.26
497.859	2886.44
498.063	2933.54
498.266	2974.5
498.469	2954.02
498.673	2917.16
498.876	3126.05
499.079	3095.33
499.282	3130.15
499.485	3351.33
499.689	3175.2
499.892	3408.67
500.095	3285.8
500.298	3414.82
500.501	3437.34
500.705	3449.63
500.908	3345.19
501.111	3509.02
501.314	3605.28
501.517	3558.18
501.72	3691.29
501.923	3728.16
502.126	3808.03
502.329	3832.6
502.532	3853.08
502.735	3818.27
502.938	4014.87
503.141	4023.06
503.344	3965.72
503.547	4207.38
503.75	4317.97
503.953	4317.97
504.156	4461.33
504.359	4389.65
504.562	4487.95
504.765	4401.94
504.968	4713.23
505.17	4805.39
505.373	4602.64
505.576	4834.06
505.779	4858.64
505.982	4989.71
506.185	5098.25
506.387	5012.23
506.59	5028.62
506.793	5147.4
506.996	5270.28
507.198	5415.68
507.401	5452.55
507.604	5694.21
507.807	5608.19
508.009	5561.09
508.212	5597.95
508.415	5763.84
508.617	5835.52
508.82	6017.79
509.022	5823.23
509.225	6177.53
509.428	6195.96
509.63	6392.56
509.833	6249.21
510.035	6298.36
510.238	6419.19
510.44	6632.18
510.643	6757.1
510.845	6765.29
511.048	6927.08
511.25	6939.37
511.453	7097.07
511.655	7119.59
511.858	6974.19
512.06	7201.51
512.262	7252.71
512.465	7299.81
512.667	7615.2
512.87	7557.86
513.072	7733.98
513.274	7733.98
513.477	7930.59
513.679	7944.92
513.881	7906.01
514.084	8205.02
514.286	8092.38
514.488	8393.43
514.69	8440.53
514.893	8358.61
515.095	8536.79
515.297	8585.94
515.499	8708.82
515.701	8815.31
515.904	8858.32
516.106	8989.39
516.308	9257.67
516.51	9077.45
516.712	9312.97
516.914	9364.17
517.116	9360.07
517.318	9530.05
517.52	9888.45
517.722	9902.78
517.925	9808.58
518.127	10072.76
518.329	9820.86
518.531	9980.61
518.733	10285.75
518.935	10236.6
519.136	10207.93
519.338	10734.26
519.54	10521.27
519.742	10547.89
519.944	10807.98
520.146	11027.12
520.348	11139.76
520.55	11047.6
520.752	11168.43
520.954	11317.93
521.155	11322.02
521.357	11551.4
521.559	11657.89
521.761	11727.52
521.963	11852.45
522.164	11903.65
522.366	12034.72
522.568	11944.61
522.77	12192.41
522.971	12360.34
523.173	12274.33
523.375	12155.55
523.576	12389.02
523.778	12608.15
523.98	12812.95
524.181	12817.04
524.383	12780.18
524.584	12987.02
524.786	13169.29
524.988	12933.78
525.189	13038.22
525.391	13214.35
525.592	13216.4
525.794	13476.49
525.995	13390.47
526.197	13456.01
526.398	13501.06
526.6	13716.1
526.801	13781.64
527.003	13957.76
527.204	13777.54
527.406	14019.2
527.607	14043.78
527.808	14156.41
528.01	13908.61
528.211	14135.93
528.412	14369.4
528.614	14154.37
528.815	14150.27
529.016	14418.55
529.218	14338.68
529.419	14467.7
529.62	14645.88
529.822	14424.7
530.023	14746.23
530.224	14606.97
530.425	14537.34
530.626	14598.77
530.828	14512.76
531.029	15028.85
531.23	14660.21
531.431	14785.14
531.632	14967.41
531.833	14854.77
532.035	14953.07
532.236	14877.3
532.437	15088.24
532.638	15026.8
532.839	15131.25
533.04	15184.49
533.241	15014.51
533.442	15286.89
533.643	15116.91
533.844	15266.41
534.045	15338.09
534.246	15108.72
534.447	15411.82
534.648	15209.07
534.849	15348.33
535.05	15350.38
535.251	15571.56
535.451	15325.8
535.652	15581.8
535.853	15471.21
536.054	15700.58
536.255	15577.7
536.456	15409.77
536.657	15559.27
536.857	15886.95
537.058	15676.01
537.259	15735.4
537.46	15917.67
537.66	15536.74
537.861	15475.31
538.062	15704.68
538.263	15753.83
538.463	15557.22
538.664	15798.88
538.865	15731.3
539.065	15559.27
539.266	15723.11
539.466	15831.65
539.667	15741.54
539.868	16228.96
540.068	15929.95
540.269	15782.5
540.469	15737.45
540.67	15700.58
540.87	15759.97
541.071	15626.85
541.271	16099.94
541.472	16106.08
541.672	16052.83
541.873	15854.18
542.073	15886.95
542.274	16181.85
542.474	15788.64
542.675	15751.78
542.875	16044.64
543.075	16061.02
543.276	15995.49
543.476	16099.94
543.676	16005.73
543.877	16214.62
544.077	16222.81
544.277	16132.7
544.478	15970.91
544.678	16140.9
544.878	16032.35
545.078	16185.95
545.279	15956.58
545.479	16159.33
545.679	16079.46
545.879	16337.5
546.079	16095.84
546.28	16235.1
546.48	16169.57
546.68	16482.91
546.88	16421.47
547.08	15993.44
547.28	16142.94
547.48	16069.22
547.68	16396.89
547.88	16071.26
548.081	15975.01
548.281	16237.15
548.481	16136.8
548.681	16429.66
548.881	16269.92
549.081	16396.89
549.28	16179.81
549.48	16239.2
549.68	16259.68
549.88	16405.08
550.08	16294.49
550.28	16343.64
550.48	16226.91
550.68	16173.66
550.88	16382.56
551.08	16300.64
551.279	16292.44
551.479	16419.42
551.679	16388.7
551.879	16257.63
552.079	16560.73
552.278	16378.46
552.478	16386.65
552.678	16321.12
552.878	16435.8
553.077	16470.62
553.277	16155.23
553.477	16626.26
553.676	16304.73
553.876	16476.76
554.076	16116.32
554.275	16173.66
554.475	15958.63
554.674	16198.24
554.874	16284.25
555.074	16274.01
555.273	16165.47
555.473	16407.13
555.672	16329.31
555.872	16284.25
556.071	16237.15
556.271	16081.5
556.47	16177.76
556.67	16116.32
556.869	16075.36
557.068	16267.87
557.268	16243.29
557.467	15913.57
557.667	16151.13
557.866	16161.37
558.065	16095.84
558.265	15997.54
558.464	15684.2
558.663	16310.88
558.863	15872.61
559.062	16126.56
559.261	15819.36
559.461	16071.26
559.66	15934.05
559.859	15999.59
560.058	15905.38
560.258	16028.26
560.457	15680.1
560.656	16173.66
560.855	16091.74
561.054	16165.47
561.253	15987.3
561.453	15923.81
561.652	15940.19
561.851	16024.16
562.05	16159.33
562.249	16093.79
562.448	16077.41
562.647	15878.76
562.846	15919.71
563.045	16018.02
563.244	15786.6
563.443	15858.28
563.642	15719.01
563.841	15854.18
564.04	15841.89
564.239	16034.4
564.438	15802.98
564.637	16034.4
564.836	15948.39
565.035	16018.02
565.234	16177.76
565.432	15764.07
565.631	15884.9
565.83	15878.76
566.029	15843.94
566.228	15688.29
566.427	15682.15
566.625	15647.33
566.824	15854.18
567.023	16091.74
567.222	15727.21
567.42	15833.7
567.619	15856.23
567.818	15813.22
568.016	15821.41
568.215	15905.38
568.414	15678.05
568.612	15985.25
568.811	15725.16
569.01	15815.27
569.208	15737.45
569.407	15694.44
569.605	15610.47
569.804	15794.79
570.002	15684.2
570.201	15493.74
570.4	15532.65
570.598	15379.05
570.797	15217.26
570.995	15618.66
571.193	15221.36
571.392	15708.77
571.59	15360.62
571.789	15395.43
571.987	15364.71
572.186	15217.26
572.384	15469.16
572.582	15383.15
572.781	15546.98
572.979	15383.15
573.177	15311.47
573.376	15336.04
573.574	15192.69
573.772	15219.31
573.971	15172.21
574.169	14946.93
574.367	14951.03
574.565	15262.32
574.763	14928.5
574.962	15168.11
575.16	15071.86
575.358	14819.96
575.556	14910.07
575.754	15166.06
575.952	14647.93
576.151	14842.48
576.349	14697.08
576.547	14750.32
576.745	14908.02
576.943	14828.15
577.141	14596.73
577.339	14776.95
577.537	14875.25
577.735	14877.3
577.933	14600.82
578.131	14615.16
578.329	14703.22
578.527	14393.98
578.725	14551.67
578.923	14510.71
579.121	14393.98
579.319	14416.51
579.516	14486.14
579.714	14664.31
579.912	14357.11
580.11	14224
580.308	14500.47
580.506	14209.66
580.704	14121.6
580.901	14172.8
581.099	14291.58
581.297	14140.03
581.495	14267
581.692	14391.93
581.89	13881.99
582.088	14154.37
582.285	13865.6
582.483	14025.34
582.681	13961.86
582.878	13953.66
583.076	13951.62
583.274	13935.23
583.471	13644.42
583.669	13791.87
583.866	13707.91
584.064	13716.1
584.262	13560.45
584.459	13814.4
584.657	13591.17
584.854	13822.59
585.052	13548.17
585.249	13480.58
585.447	13550.21
585.644	13417.1
585.841	13386.38
586.039	13529.73
586.236	13298.31
586.434	13410.95
586.631	13306.51
586.828	13460.1
587.026	13415.05
587.223	13165.2
587.42	13089.42
587.618	13183.63
587.815	13068.94
588.012	13023.89
588.21	13023.89
588.407	12931.73
588.604	12823.19
588.801	12968.59
588.999	12642.96
589.196	13013.65
589.393	12698.26
589.59	12796.56
589.787	12858
589.984	12739.22
590.182	12741.27
590.379	12858
590.576	12530.33
590.773	12786.32
590.97	12491.41
591.167	12511.89
591.364	12448.41
591.561	12313.24
591.758	12622.48
591.955	12501.65
592.152	12335.77
592.349	12356.25
592.546	12520.09
592.743	12456.6
592.94	12241.56
593.137	12280.47
593.334	12298.91
593.531	12227.23
593.727	12341.91
593.924	12221.08
594.121	12067.49
594.318	11887.26
594.515	11979.42
594.712	11915.94
594.908	12018.33
595.105	11897.5
595.302	11823.78
595.499	12114.59
595.696	12016.29
595.892	11731.62
596.089	11731.62
596.286	11797.15
596.482	11983.52
596.679	11489.96
596.876	11629.22
597.072	11729.57
597.269	11596.45
597.466	11504.29
597.662	11543.21
597.859	11512.49
598.055	11639.46
598.252	11410.09
598.448	11461.29
598.645	11498.15
598.841	11496.1
599.038	11459.24
599.234	11270.83
599.431	11217.58
599.627	11199.15
599.824	11176.62
600.02	10963.63
600.217	11244.2
600.413	11059.88
600.609	11027.12
600.806	11047.6
601.002	11143.85
601.198	10859.18
601.395	10824.37
601.591	10760.88
601.787	10846.9
601.984	10879.66
602.18	10889.9
602.376	10769.07
602.572	10705.59
602.769	10693.3
602.965	10615.48
603.161	10740.4
603.357	10506.93
603.553	10537.65
603.75	10394.29
603.946	10472.12
604.142	10392.25
604.338	10474.17
604.534	10705.59
604.73	10322.62
604.926	10394.29
605.122	10220.22
605.318	10318.52
605.514	10072.76
605.71	10205.88
605.906	10087.1
606.102	10103.48
606.298	10072.76
606.494	10003.13
606.69	10128.06
606.886	10156.73
607.082	9951.93
607.278	9968.32
607.474	9880.25
607.67	10013.37
607.866	9882.3
608.062	10187.45
608.257	10181.31
608.453	10046.14
608.649	9788.1
608.845	9573.06
609.041	9814.72
609.236	9771.71
609.432	9861.82
609.628	9697.99
609.824	9751.23
610.019	9700.03
610.215	9718.47
610.411	9564.87
610.606	9718.47
610.802	9603.78
610.998	9456.33
611.193	9478.85
611.389	9491.14
611.584	9695.94
611.78	9388.74
611.976	9599.68
612.171	9601.73
612.367	9446.09
612.562	9460.42
612.758	9251.53
612.953	9302.73
613.149	9556.68
613.344	9298.63
613.539	9640.64
613.735	9396.93
613.93	9403.08
614.126	9097.93
614.321	9235.14
614.517	9237.19
614.712	9249.48
614.907	9104.07
615.103	9018.06
615.298	9214.66
615.493	9196.23
615.688	9192.14
615.884	9155.27
616.079	9118.41
616.274	9061.07
616.47	8936.14
616.665	8864.46
616.86	8983.24
617.055	8966.86
617.25	8913.61
617.445	9016.01
617.641	8678.1
617.836	8790.74
618.031	8733.39
618.226	8723.15
618.421	8803.02
618.616	8837.84
618.811	8516.31
619.006	8622.8
619.201	8645.33
619.396	8786.64
619.591	8379.09
619.786	8436.44
619.981	8452.82
620.176	8602.32
620.371	8248.02
620.566	8377.05
620.761	8338.13
620.956	8264.41
621.151	8288.98
621.346	8342.23
621.541	8155.86
621.735	8256.22
621.93	7895.77
622.125	8114.91
622.32	8172.25
622.515	7967.45
622.709	7932.64
622.904	8082.14
623.099	7865.05
623.294	7903.96
623.488	7871.2
623.683	7813.85
623.878	7586.53
624.072	7748.32
624.267	7813.85
624.462	7523.04
624.656	7557.86
624.851	7680.74
625.046	7529.19
625.24	7449.32
625.435	7543.52
625.629	7408.36
625.824	7469.8
626.018	7355.11
626.213	7193.32
626.407	7236.33
626.602	7181.03
626.796	7117.54
626.991	7181.03
627.185	6976.23
627.38	6916.84
627.574	6963.95
627.768	6757.1
627.963	6902.51
628.157	6644.46
628.352	6873.84
628.546	6888.17
628.74	6691.57
628.935	6599.41
629.129	6705.9
629.323	6542.07
629.517	6433.52
629.712	6681.33
629.906	6660.85
630.1	6535.92
630.294	6454
630.489	6642.42
630.683	6613.74
630.877	6439.67
631.071	6367.99
631.265	6492.91
631.459	6200.05
631.653	6234.87
631.848	6198.01
632.042	6271.73
632.236	6202.1
632.43	6034.17
632.624	6099.7
632.818	6148.86
633.012	6007.55
633.206	6019.83
633.4	5829.37
633.594	6015.74
633.788	6099.7
633.982	5860.09
634.176	5952.25
634.369	5753.6
634.563	5833.47
634.757	5856
634.951	5718.78
635.145	5724.93
635.339	5686.01
635.533	5681.92
635.726	5604.1
635.92	5620.48
636.114	5651.2
636.308	5622.53
636.501	5548.8
636.695	5507.84
636.889	5395.2
637.083	5475.07
637.276	5319.43
637.47	5321.48
637.664	5399.3
637.857	5436.16
638.051	5315.33
638.244	5397.25
638.438	5137.16
638.632	5233.41
638.825	5157.64
639.019	5202.69
639.212	5241.61
639.406	5194.5
639.599	5122.82
639.793	5194.5
639.986	4934.41
640.18	4936.46
640.373	4899.59
640.567	4950.79
640.76	4928.27
640.954	4811.53
641.147	4872.97
641.34	4901.64
641.534	4694.8
641.727	4723.47
641.92	4694.8
642.114	4647.69
642.307	4588.3
642.5	4631.31
642.694	4530.96
642.887	4670.22
643.08	4533.01
643.273	4619.02
643.467	4655.89
643.66	4541.2
643.853	4436.75
644.046	4330.26
644.239	4360.98
644.432	4504.34
644.626	4426.51
644.819	4455.19
645.012	4270.87
645.205	4297.49
645.398	4301.59
645.591	4322.07
645.784	4086.55
645.977	4227.86
646.17	4186.9
646.363	4117.27
646.556	4289.3
646.749	4162.33
646.942	3996.44
647.135	3932.95
647.328	3998.49
647.521	4047.64
647.714	3935
647.907	3969.82
648.099	3760.92
648.292	3867.42
648.485	3844.89
648.678	3842.84
648.871	3789.6
649.064	3736.35
649.256	3640.09
649.449	3719.96
649.642	3679.01
649.835	3609.37
650.027	3771.16
650.22	3590.94
650.413	3676.96
650.605	3599.13
650.798	3588.89
650.991	3572.51
651.183	3617.57
651.376	3359.52
651.568	3466.02
651.761	3484.45
651.954	3498.78
652.146	3332.9
652.339	3388.19
652.531	3506.98
652.724	3334.95
652.916	3105.57
653.109	3269.41
653.301	3181.35
653.494	3289.89
653.686	3246.88
653.879	3207.97
654.071	3214.12
654.263	3197.73
654.456	3216.16
654.648	3126.05
654.84	3124.01
655.033	2960.17
655.225	3179.3
655.417	3124.01
655.61	3091.24
655.802	3015.46
655.994	2992.94
656.186	3052.33
656.379	3089.19
656.571	2984.74
656.763	3093.29
656.955	3003.18
657.148	2921.26
657.34	2915.11
657.532	2902.83
657.724	2917.16
657.916	2814.76
658.108	2734.89
658.3	2835.24
658.492	2808.62
658.684	2681.64
658.876	2698.03
659.068	2775.85
659.26	2757.42
659.452	2749.23
659.644	2712.36
659.836	2532.14
660.028	2669.36
660.22	2491.18
660.412	2538.29
660.604	2474.8
660.796	2460.46
660.988	2517.81
661.18	2439.98
661.372	2370.35
661.563	2427.7
661.755	2480.94
661.947	2448.18
662.139	2403.12
662.331	2384.69
662.522	2218.8
662.714	2364.21
662.906	2247.48
663.097	2227
663.289	2265.91
663.481	2198.32
663.673	2112.31
663.864	2126.64
664.056	2204.47
664.247	2151.22
664.439	2032.44
664.631	2138.93
664.822	2167.6
665.014	2018.1
665.205	1987.38
665.397	2085.69
665.588	2034.49
665.78	1983.29
665.971	2100.02
666.163	2018.1
666.354	2077.49
666.546	2059.06
666.737	1889.08
666.929	1938.23
667.12	1829.69
667.311	1870.65
667.503	1874.74
667.694	1889.08
667.885	1909.56
668.077	1801.02
668.268	1807.16
668.459	1856.31
668.651	1809.21
668.842	1780.54
669.033	1643.32
669.224	1696.57
669.416	1796.92
669.607	1819.45
669.798	1723.2
669.989	1792.83
670.18	1727.29
670.371	1786.68
670.563	1706.81
670.754	1684.28
670.945	1684.28
671.136	1696.57
671.327	1704.76
671.518	1561.41
671.709	1616.7
671.9	1653.56
672.091	1588.03
672.282	1573.69
672.473	1555.26
672.664	1504.06
672.855	1555.26
673.046	1508.16
673.237	1663.8
673.428	1493.82
673.619	1489.73
673.809	1452.86
674	1534.78
674.191	1346.37
674.382	1483.58
674.573	1528.64
674.764	1461.06
674.954	1549.12
675.145	1475.39
675.336	1459.01
675.527	1405.76
675.717	1428.29
675.908	1334.08
676.099	1381.18
676.289	1352.51
676.48	1403.71
676.671	1489.73
676.861	1409.86
677.052	1348.42
677.243	1260.35
677.433	1313.6
677.624	1381.18
677.814	1360.7
678.005	1368.9
678.195	1332.03
678.386	1311.55
678.576	1278.79
678.767	1348.42
678.957	1239.87
679.148	1237.83
679.338	1282.88
679.529	1274.69
679.719	1262.4
679.909	1305.41
680.1	1237.83
680.29	1372.99
680.481	1352.51
680.671	1286.98
680.861	1295.17
681.052	1221.44
681.242	1196.87
681.432	1379.14
681.622	1176.39
681.813	1250.11
682.003	1186.63
682.193	1180.48
682.383	1303.36
682.573	1131.33
682.764	1166.15
682.954	1264.45
683.144	1231.68
683.334	1182.53
683.524	1256.26
683.714	1196.87
683.904	1227.59
684.094	1131.33
684.284	1190.72
684.474	1299.27
684.664	1237.83
684.854	1092.42
685.044	1289.03
685.234	1227.59
685.424	1215.3
685.614	1229.63
685.804	1182.53
685.994	1110.85
686.184	1213.25
686.374	1176.39
686.564	1215.3
686.753	1207.11
686.943	1168.2
687.133	1129.28
687.323	1188.68
687.513	1131.33
687.702	1200.96
687.892	1276.74
688.082	1211.2
688.272	1153.86
688.461	1190.72
688.651	1248.07
688.841	1168.2
689.03	1104.71
689.22	1196.87
689.41	1233.73
689.599	1129.28
689.789	1260.35
689.979	1219.39
690.168	1139.52
690.358	1155.91
690.547	1217.35
690.737	1282.88
690.926	1248.07
691.116	1166.15
691.305	1286.98
691.495	1194.82
691.684	1160
691.874	1241.92
692.063	1129.28
692.252	1241.92
692.442	1280.83
692.631	1147.72
692.82	1256.26
693.01	1207.11
693.199	1184.58
693.388	1319.75
693.578	1160
693.767	1186.63
693.956	1200.96
694.146	1192.77
694.335	1127.24
694.524	1246.02
694.713	1280.83
694.902	1200.96
695.092	1231.68
695.281	1164.1
695.47	1055.56
695.659	1172.29
695.848	1186.63
696.037	1131.33
696.226	1194.82
696.415	1229.63
696.604	1286.98
696.793	1166.15
696.982	1151.81
697.171	1114.95
697.36	1127.24
697.549	1080.13
697.738	1135.43
697.927	1073.99
698.116	1127.24
698.305	1139.52
698.494	1252.16
698.683	1155.91
698.872	1133.38
699.061	1106.76
699.25	1203.01
699.438	1147.72
699.627	1088.32
699.816	1119.04
700.005	1039.17
700.193	1069.89
700.382	1047.37
700.571	947.01
700.76	1076.04
700.948	1135.43
701.137	1082.18
701.326	1096.52
701.514	1073.99
701.703	1090.37
701.892	1059.65
702.08	1065.8
702.269	1002.31
702.457	1020.74
702.646	1098.56
702.834	1049.41
703.023	1004.36
703.212	1061.7
703.4	979.78
703.589	981.83
703.777	1039.17
703.965	977.73
704.154	994.12
704.342	916.3
704.531	944.97
704.719	1041.22
704.907	895.82
705.096	1041.22
705.284	949.06
705.472	985.93
705.661	955.21
705.849	934.73
706.037	1020.74
706.226	985.93
706.414	885.58
706.602	820.04
706.79	977.73
706.979	879.43
707.167	899.91
707.355	834.38
707.543	936.78
707.731	987.97
707.919	883.53
708.107	910.15
708.296	897.86
708.484	828.23
708.672	858.95
708.86	975.69
709.048	848.71
709.236	836.42
709.424	834.38
709.612	832.33
709.8	873.29
709.988	897.86
710.176	920.39
710.364	838.47
710.551	883.53
710.739	936.78
710.927	883.53
711.115	772.94
711.303	901.96
711.491	885.58
711.679	881.48
711.866	738.12
712.054	770.89
712.242	885.58
712.43	820.04
712.617	766.79
712.805	754.51
712.993	740.17
713.181	748.36
713.368	713.55
713.556	717.64
713.744	703.31
713.931	781.13
714.119	836.42
714.306	709.45
714.494	750.41
714.682	754.51
714.869	772.94
715.057	811.85
715.244	758.6
715.432	762.7
715.619	725.83
715.807	699.21
715.994	713.55
716.182	713.55
716.369	672.59
716.556	740.17
716.744	652.11
716.931	731.98
717.119	652.11
717.306	660.3
717.493	674.64
717.681	693.07
717.868	770.89
718.055	676.68
718.242	678.73
718.43	691.02
718.617	697.16
718.804	645.96
718.991	691.02
719.179	594.76
719.366	639.82
719.553	676.68
719.74	682.83
719.927	654.16
720.114	592.72
720.301	582.48
720.488	600.91
720.676	631.63
720.863	666.44
721.05	576.33
721.237	580.43
721.424	617.29
721.611	547.66
721.798	480.08
721.985	639.82
722.172	590.67
722.358	566.09
722.545	578.38
722.732	562
722.919	580.43
723.106	578.38
723.293	600.91
723.48	568.14
723.667	582.48
723.853	594.76
724.04	637.77
724.227	549.71
724.414	594.76
724.6	523.09
724.787	584.52
724.974	555.85
725.161	596.81
725.347	500.56
725.534	529.23
725.72	553.8
725.907	512.85
726.094	496.46
726.28	543.57
726.467	539.47
726.653	510.8
726.84	576.33
727.027	551.76
727.213	574.28
727.4	469.84
727.586	514.89
727.773	496.46
727.959	430.93
728.145	480.08
728.332	480.08
728.518	424.78
728.705	463.69
728.891	473.93
729.077	422.73
729.264	478.03
729.45	541.52
729.636	510.8
729.823	449.36
730.009	453.45
730.195	508.75
730.382	435.02
730.568	385.87
730.754	381.78
730.94	430.93
731.126	439.12
731.313	422.73
731.499	383.82
731.685	502.61
731.871	398.16
732.057	414.54
732.243	355.15
732.429	412.5
732.615	451.41
732.801	441.17
732.987	394.06
733.173	402.26
733.359	369.49
733.545	410.45
733.731	420.69
733.917	414.54
734.103	445.26
734.289	379.73
734.475	402.26
734.661	447.31
734.847	412.5
735.033	381.78
735.219	385.87
735.404	381.78
735.59	340.82
735.776	381.78
735.962	396.11
736.148	379.73
736.333	373.58
736.519	387.92
736.705	306
736.89	392.02
737.076	408.4
737.262	349.01
737.447	406.35
737.633	349.01
737.819	367.44
738.004	373.58
738.19	367.44
738.375	363.34
738.561	338.77
738.747	359.25
738.932	396.11
739.118	342.86
739.303	396.11
739.489	420.69
739.674	283.47
739.859	314.19
740.045	326.48
740.23	387.92
740.416	332.62
740.601	271.19
740.786	373.58
740.972	369.49
741.157	353.1
741.342	248.66
741.528	344.91
741.713	242.51
741.898	322.38
742.084	299.86
742.269	308.05
742.454	318.29
742.639	375.63
742.824	349.01
743.01	285.52
743.195	265.04
743.38	287.57
743.565	271.19
743.75	285.52
743.935	295.76
744.12	312.14
744.305	332.62
744.49	271.19
744.675	265.04
744.86	269.14
745.045	240.47
745.23	230.23
745.415	279.38
745.6	283.47
745.785	285.52
745.97	248.66
746.155	349.01
746.34	269.14
746.525	252.75
746.71	195.41
746.895	217.94
747.079	250.71
747.264	262.99
747.449	271.19
747.634	265.04
747.819	285.52
748.003	299.86
748.188	265.04
748.373	238.42
748.557	230.23
748.742	164.69
748.927	265.04
749.111	267.09
749.296	260.95
749.481	234.32
749.665	299.86
749.85	256.85
750.034	246.61
750.219	250.71
750.404	316.24
750.588	213.84
750.773	232.27
750.957	203.6
751.141	246.61
751.326	228.18
751.51	250.71
751.695	99.16
751.879	205.65
752.064	234.32
752.248	285.52
752.432	162.64
752.617	222.03
752.801	156.5
752.985	162.64
753.17	256.85
753.354	219.99
753.538	207.7
753.722	156.5
753.907	158.55
754.091	174.93
754.275	133.97
754.459	211.79
754.643	164.69
754.828	121.68
755.012	252.75
755.196	203.6
755.38	170.83
755.564	127.83
755.748	160.59
755.932	213.84
756.116	252.75
756.3	195.41
756.484	168.79
756.668	144.21
756.852	219.99
757.036	150.36
757.22	150.36
757.404	88.92
757.588	193.36
757.772	101.2
757.956	146.26
758.14	168.79
758.323	90.96
758.507	172.88
758.691	197.46
758.875	101.2
759.059	142.16
759.242	199.51
759.426	129.88
759.61	150.36
759.794	101.2
759.977	146.26
760.161	166.74
760.345	207.7
760.528	176.98
760.712	146.26
760.895	148.31
761.079	123.73
761.263	162.64
761.446	174.93
761.63	156.5
761.813	148.31
761.997	101.2
762.18	127.83
762.364	254.8
762.547	129.88
762.731	152.4
762.914	152.4
763.098	74.58
763.281	240.47
763.464	158.55
763.648	125.78
763.831	162.64
764.015	113.49
764.198	179.03
764.381	146.26
764.564	129.88
764.748	140.12
764.931	107.35
765.114	144.21
765.297	170.83
765.481	142.16
765.664	156.5
765.847	121.68
766.03	193.36
766.213	136.02
766.397	174.93
766.58	103.25
766.763	146.26
766.946	90.96
767.129	99.16
767.312	95.06
767.495	121.68
767.678	174.93
767.861	197.46
768.044	148.31
768.227	146.26
768.41	109.4
768.593	187.22
768.776	136.02
768.959	101.2
769.142	205.65
769.324	76.63
769.507	152.4
769.69	174.93
769.873	78.68
770.056	170.83
770.239	103.25
770.421	172.88
770.604	140.12
770.787	152.4
770.97	138.07
771.152	181.07
771.335	78.68
771.518	121.68
771.7	119.64
771.883	93.01
772.066	154.45
772.248	62.29
772.431	99.16
772.613	64.34
772.796	103.25
772.978	133.97
773.161	54.1
773.343	60.24
773.526	107.35
773.708	201.55
773.891	31.57
774.073	93.01
774.256	95.06
774.438	156.5
774.621	181.07
774.803	41.81
774.985	35.67
775.168	121.68
775.35	105.3
775.532	150.36
775.715	140.12
775.897	107.35
776.079	60.24
776.261	68.44
776.444	144.21
776.626	74.58
776.808	93.01
776.99	82.77
777.173	115.54
777.355	84.82
777.537	86.87
777.719	109.4
777.901	103.25
778.083	156.5
778.265	84.82
778.447	105.3
778.629	39.76
778.811	17.24
778.993	140.12
779.175	97.11
779.357	111.44
779.539	27.48
779.721	56.15
779.903	158.55
780.085	99.16
780.267	207.7
780.449	99.16
780.631	105.3
780.812	95.06
780.994	107.35
781.176	97.11
781.358	117.59
781.54	33.62
781.721	146.26
781.903	43.86
782.085	115.54
782.267	80.72
782.448	56.15
782.63	68.44
782.812	90.96
782.993	33.62
783.175	107.35
783.357	86.87
783.538	115.54
783.72	107.35
783.901	66.39
784.083	117.59
784.264	35.67
784.446	50
784.627	84.82
784.809	99.16
784.99	121.68
785.172	115.54
785.353	11.09
785.535	68.44
785.716	121.68
785.897	129.88
786.079	50
786.26	39.76
786.441	68.44
786.623	45.91
786.804	54.1
786.985	101.2
787.167	41.81
787.348	-1.19
787.529	62.29
787.71	74.58
787.891	58.2
788.073	47.96
788.254	60.24
788.435	39.76
788.616	39.76
788.797	76.63
788.978	50
789.159	62.29
789.34	66.39
789.522	58.2
789.703	50
789.884	23.38
790.065	82.77
790.246	31.57
790.427	37.72
790.607	43.86
790.788	45.91
790.969	-15.53
791.15	37.72
791.331	66.39
791.512	82.77
791.693	25.43
791.874	66.39
792.054	27.48
792.235	52.05
792.416	31.57
792.597	17.24
792.778	93.01
792.958	33.62
793.139	0.85
793.32	84.82
793.5	4.95
793.681	15.19
793.862	-42.15
794.042	9.05
794.223	68.44
794.404	90.96
794.584	60.24
794.765	52.05
794.945	54.1
795.126	58.2
795.306	62.29
795.487	43.86
795.667	25.43
795.848	11.09
796.028	97.11
796.209	-19.63
796.389	33.62
796.57	56.15
796.75	58.2
796.93	-3.24
797.111	23.38
797.291	-13.48
797.471	19.29
797.652	-15.53
797.832	-21.67
798.012	64.34
798.192	21.33
798.373	41.81
798.553	-5.29
798.733	-21.67
798.913	41.81
799.093	2.9
799.274	72.53
799.454	0.85
799.634	25.43
799.814	15.19
799.994	25.43
800.174	68.44
800.354	84.82
800.534	76.63
800.714	-11.43
800.894	21.33
801.074	11.09
801.254	72.53
801.434	33.62
801.614	-27.82
801.794	-27.82
801.974	258.9
802.154	-7.34
802.334	90.96
802.514	-15.53
802.693	-19.63
802.873	-21.67
803.053	-1.19
803.233	13.14
803.413	-38.06
803.592	-25.77
803.772	33.62
803.952	54.1
804.131	-36.01
804.311	9.05
804.491	52.05
804.67	33.62
804.85	41.81
805.03	45.91
805.209	58.2
805.389	23.38
805.568	9.05
805.748	7
805.928	27.48
806.107	33.62
806.287	19.29
806.466	76.63
806.646	-29.87
806.825	15.19
807.004	17.24
807.184	50
807.363	56.15
807.543	29.52
807.722	52.05
807.901	-5.29
808.081	11.09
808.26	11.09
808.439	11.09
808.619	39.76
808.798	39.76
808.977	7
809.156	15.19
809.336	-13.48
809.515	0.85
809.694	-27.82
809.873	-27.82
810.052	-15.53
810.231	58.2
810.411	2.9
810.59	80.72
810.769	15.19
810.948	7
811.127	-33.96
811.306	4.95
811.485	-48.3
811.664	45.91
811.843	27.48
812.022	9.05
812.201	-36.01
812.38	66.39
812.559	-36.01
812.737	4.95
812.916	-21.67
813.095	-21.67
813.274	54.1
813.453	58.2
813.632	-42.15
813.811	-25.77
813.989	37.72
814.168	15.19
814.347	-48.3
814.526	-21.67
814.704	-5.29
814.883	35.67
815.062	4.95
815.24	43.86
815.419	-5.29
815.598	33.62
815.776	-3.24
815.955	27.48
816.133	-1.19
816.312	62.29
816.49	-21.67
816.669	-21.67
816.847	39.76
817.026	54.1
817.204	-44.2
817.383	86.87
817.561	54.1
817.74	88.92
817.918	50
818.097	-40.11
818.275	19.29
818.453	50
818.632	-40.11
818.81	-72.87
818.988	50
819.167	25.43
819.345	7
819.523	47.96
819.701	-23.72
819.879	60.24
820.058	9.05
820.236	37.72
820.414	0.85
820.592	-31.91
820.77	-17.58
820.948	-31.91
821.127	-9.39
821.305	-25.77
821.483	-50.35
821.661	-29.87
821.839	-13.48
822.017	-1.19
822.195	29.52
822.373	31.57
822.551	-44.2
822.729	-23.72
822.907	35.67
823.085	2.9
823.262	-42.15
823.44	0.85
823.618	19.29
823.796	35.67
823.974	47.96
824.152	35.67
824.329	-13.48
824.507	74.58
824.685	58.2
824.863	29.52
825.04	-81.07
825.218	-15.53
825.396	29.52
825.574	4.95
825.751	7
825.929	-21.67
826.107	-54.44
826.284	-31.91
826.462	-31.91
826.639	76.63
826.817	9.05
826.994	-40.11
827.172	-76.97
827.349	-40.11
827.527	-52.39
827.704	47.96
827.882	-5.29
828.059	-62.63
828.237	35.67
828.414	27.48
828.591	25.43
828.769	-44.2
828.946	-25.77
829.124	-25.77
829.301	-11.43
829.478	-21.67
829.655	-54.44
829.833	27.48
830.01	13.14
830.187	0.85
830.364	29.52
830.542	-19.63
830.719	-17.58
830.896	47.96
831.073	23.38
831.25	37.72
831.427	-1.19
831.604	95.06
831.782	-70.83
831.959	29.52
832.136	-11.43
832.313	-40.11
832.49	-3.24
832.667	15.19
832.844	-56.49
833.021	13.14
833.198	25.43
833.374	0.85
833.551	-19.63
833.728	-36.01
833.905	-64.68
834.082	-68.78
834.259	45.91
834.436	-33.96
834.612	0.85
834.789	9.05
834.966	-91.31
835.143	-1.19
835.319	15.19
835.496	60.24
835.673	-42.15
835.85	-44.2
836.026	-3.24
836.203	54.1
836.38	-52.39
836.556	13.14
836.733	21.33
836.909	7
837.086	54.1
837.262	21.33
837.439	7
837.616	-38.06
837.792	9.05
837.968	9.05
838.145	-70.83
838.321	-17.58
838.498	-81.07
838.674	29.52
838.851	-46.25
839.027	25.43
839.203	-29.87
839.38	-36.01
839.556	-23.72
839.732	-58.54
839.909	7
840.085	17.24
840.261	-36.01
840.437	-29.87
840.614	-13.48
840.79	-11.43
840.966	0.85
841.142	33.62
841.318	-99.5
841.494	45.91
841.671	-21.67
841.847	11.09
842.023	-58.54
842.199	-31.91
842.375	11.09
842.551	35.67
842.727	-74.92
842.903	50
843.079	-17.58
843.255	-48.3
843.431	-107.69
843.607	41.81
843.783	-11.43
843.959	37.72
844.134	-97.45
844.31	-25.77
844.486	13.14
844.662	-29.87
844.838	-76.97
845.013	29.52
845.189	41.81
845.365	41.81
845.541	7
845.716	25.43
845.892	19.29
846.068	-58.54
846.244	-5.29
846.419	-33.96
846.595	-83.11
846.77	-5.29
846.946	-27.82
847.122	-107.69
847.297	-31.91
847.473	-29.87
847.648	-1.19
847.824	-70.83
847.999	-21.67
848.175	56.15
848.35	-31.91
848.526	97.11
848.701	-7.34
848.876	0.85
849.052	9.05
849.227	-9.39
849.403	-5.29
849.578	27.48
849.753	-27.82
849.929	47.96
850.104	-46.25
850.279	50
850.454	23.38
850.63	-11.43
850.805	-52.39
850.98	-68.78
851.155	-40.11
851.33	-21.67
851.505	-74.92
851.681	-25.77
851.856	-25.77
852.031	15.19
852.206	-36.01
852.381	41.81
852.556	-1.19
852.731	-42.15
852.906	-109.74
853.081	-17.58
853.256	-1.19
853.431	-33.96
853.606	-3.24
853.781	-13.48
853.956	13.14
854.131	-36.01
854.305	-23.72
854.48	-5.29
854.655	-17.58
854.83	-15.53
855.005	-52.39
855.18	-46.25
855.354	21.33
855.529	19.29
855.704	-3.24
855.879	-52.39
856.053	21.33
856.228	2.9
856.403	-64.68
856.577	-9.39
856.752	-54.44
856.926	-36.01
857.101	23.38
857.276	-44.2
857.45	-21.67
857.625	-44.2
857.799	-52.39
857.974	23.38
858.148	-48.3
858.323	7
858.497	-64.68
858.672	33.62
858.846	-13.48
859.02	27.48
859.195	-29.87
859.369	-9.39
859.543	-19.63
859.718	29.52
859.892	39.76
860.066	-15.53
860.241	-21.67
860.415	19.29
860.589	-44.2
860.763	-48.3
860.938	-40.11
861.112	-56.49
861.286	-21.67
861.46	-9.39
861.634	-62.63
861.808	-5.29
861.982	62.29
862.157	-50.35
862.331	-23.72
862.505	25.43
862.679	-11.43
862.853	15.19
863.027	-27.82
863.201	50
863.375	-27.82
863.549	15.19
863.722	-95.4
863.896	9.05
864.07	27.48
864.244	-56.49
864.418	9.05
864.592	-38.06
864.766	-38.06
864.939	37.72
865.113	-50.35
865.287	-58.54
865.461	-7.34
865.634	21.33
865.808	64.34
865.982	-54.44
866.156	-5.29
866.329	-40.11
866.503	109.4
866.676	-36.01
866.85	-93.35
867.024	-64.68
867.197	-29.87
867.371	-29.87
867.544	25.43
867.718	-42.15
867.891	-66.73
868.065	-3.24
868.238	-46.25
868.412	17.24
868.585	-62.63
868.759	-13.48
868.932	58.2
869.105	-15.53
869.279	-29.87
869.452	39.76
869.625	-1.19
869.799	-13.48
869.972	23.38
870.145	-36.01
870.319	-46.25
870.492	50
870.665	-5.29
870.838	-15.53
871.011	-56.49
871.185	-60.59
871.358	-42.15
871.531	86.87
871.704	-48.3
871.877	33.62
872.05	31.57
872.223	-23.72
872.396	-15.53
872.569	-56.49
872.742	-38.06
872.915	-54.44
873.088	-68.78
873.261	-60.59
873.434	-9.39
873.607	-9.39
873.78	-11.43
873.953	-5.29
874.126	-42.15
874.299	-38.06
874.471	0.85
874.644	-23.72
874.817	-27.82
874.99	-21.67
875.163	-1.19
875.335	-19.63
875.508	-21.67
875.681	-29.87
875.853	-23.72
876.026	-9.39
876.199	17.24
876.371	11.09
876.544	-74.92
876.717	9.05
876.889	-42.15
877.062	-48.3
877.234	-7.34
877.407	74.58
877.579	-113.83
877.752	50
877.924	-21.67
878.097	-19.63
878.269	-60.59
878.442	58.2
878.614	-9.39
878.786	-38.06
878.959	45.91
879.131	-19.63
879.303	-70.83
879.476	-50.35
879.648	-21.67
879.82	29.52
879.993	-48.3
880.165	-11.43
880.337	-29.87
880.509	0.85
880.681	15.19
880.854	-48.3
881.026	-58.54
881.198	33.62
881.37	0.85
881.542	-70.83
881.714	-21.67
881.886	-15.53
882.058	-62.63
882.23	23.38
882.402	-19.63
882.574	-13.48
882.746	-40.11
882.918	25.43
883.09	-50.35
883.262	19.29
883.434	-7.34
883.606	-27.82
883.778	-64.68
883.95	-48.3
884.122	-89.26
884.293	60.24
884.465	-36.01
884.637	-7.34
884.809	-40.11
884.98	4.95
885.152	-33.96
885.324	74.58
885.496	-87.21
885.667	-7.34
885.839	-56.49
886.011	-15.53
886.182	-66.73
886.354	29.52
886.525	-11.43
886.697	-50.35
886.869	-46.25
887.04	-87.21
887.212	41.81
887.383	-17.58
887.555	-62.63
887.726	-38.06
887.897	-48.3
888.069	-60.59
888.24	-3.24
888.412	-72.87
888.583	-31.91
888.754	7
888.926	17.24
889.097	-72.87
889.268	-19.63
889.44	-72.87
889.611	-40.11
889.782	23.38
889.953	-46.25
890.125	-42.15
890.296	-19.63
890.467	-1.19
890.638	-33.96
890.809	15.19
890.98	-36.01
891.151	-38.06
891.323	27.48
891.494	4.95
891.665	-72.87
891.836	-31.91
892.007	0.85
892.178	-17.58
892.349	-31.91
892.52	0.85
892.691	-27.82
892.862	-70.83
893.032	-1.19
893.203	-48.3
893.374	-38.06
893.545	-7.34
893.716	-42.15
893.887	-27.82
894.057	21.33
894.228	70.48
894.399	-62.63
894.57	-31.91
894.74	23.38
894.911	0.85
895.082	-27.82
895.253	-56.49
895.423	-9.39
895.594	4.95
895.764	-44.2
895.935	-40.11
896.106	-15.53
896.276	-68.78
896.447	11.09
896.617	31.57
896.788	-64.68
896.958	-23.72
897.129	-33.96
897.299	0.85
897.47	84.82
897.64	-54.44
897.81	-66.73
897.981	-64.68
898.151	-79.02
898.322	-21.67
898.492	17.24
898.662	29.52
898.832	27.48
899.003	13.14
899.173	-5.29
899.343	-31.91
899.513	-21.67
