Data from USB4F104151__101__12-55-00-047.txt Node

Date: Fri Mar 14 12:55:00 EDT 2025
User: louis
Spectrometer: USB4F10415
Trigger mode: 4
Integration Time (sec): 1.000000E-2
Scans to average: 1
Electric dark correction enabled: true
Nonlinearity correction enabled: false
Boxcar width: 0
XAxis mode: Wavelengths
Number of Pixels in Spectrum: 3648
>>>>>Begin Spectral Data<<<<<
178.204	-16.9
178.424	-16.9
178.644	-16.9
178.864	-90.62
179.084	-107.01
179.304	13.82
179.524	30.21
179.744	-23.04
179.964	-35.33
180.184	-14.85
180.404	81.41
180.624	-37.38
180.844	5.63
181.064	-25.09
181.283	1.54
181.503	-45.57
181.723	48.64
181.943	-59.9
182.163	-2.56
182.383	-35.33
182.602	-43.52
182.822	-4.61
183.042	75.26
183.262	-117.25
183.482	1.54
183.701	-47.62
183.921	28.16
184.141	-8.7
184.361	-53.76
184.58	-16.9
184.8	-6.66
185.02	32.26
185.239	46.59
185.459	-29.18
185.679	-25.09
185.898	19.97
186.118	-25.09
186.338	-6.66
186.557	15.87
186.777	-57.86
186.997	-14.85
187.216	-94.72
187.436	-25.09
187.655	-12.8
187.875	11.78
188.095	-14.85
188.314	-6.66
188.534	-35.33
188.753	-66.05
188.973	-45.57
189.192	3.58
189.412	-51.71
189.631	-14.85
189.851	-8.7
190.07	-47.62
190.29	5.63
190.509	54.78
190.729	9.73
190.948	-41.47
191.168	-25.09
191.387	-25.09
191.607	-59.9
191.826	112.13
192.045	-10.75
192.265	-31.23
192.484	-27.14
192.704	26.11
192.923	-88.57
193.142	60.93
193.362	46.59
193.581	1.54
193.8	19.97
194.02	24.06
194.239	56.83
194.458	-12.8
194.678	3.58
194.897	-25.09
195.116	30.21
195.335	-57.86
195.555	-23.04
195.774	60.93
195.993	22.02
196.212	-4.61
196.432	-39.42
196.651	7.68
196.87	-47.62
197.089	30.21
197.308	9.73
197.528	-74.24
197.747	-33.28
197.966	30.21
198.185	-18.94
198.404	-12.8
198.623	-37.38
198.842	7.68
199.062	-82.43
199.281	30.21
199.5	-35.33
199.719	32.26
199.938	-49.66
200.157	28.16
200.376	-2.56
200.595	19.97
200.814	-6.66
201.033	30.21
201.252	-55.81
201.471	32.26
201.69	3.58
201.909	38.4
202.128	-90.62
202.347	-68.09
202.566	-35.33
202.785	38.4
203.004	-27.14
203.223	22.02
203.442	-27.14
203.661	-8.7
203.879	-76.29
204.098	24.06
204.317	-64
204.536	34.3
204.755	46.59
204.974	91.65
205.193	-12.8
205.411	-4.61
205.63	89.6
205.849	38.4
206.068	32.26
206.287	-43.52
206.505	-94.72
206.724	-27.14
206.943	1.54
207.162	-59.9
207.381	9.73
207.599	3.58
207.818	-12.8
208.037	42.5
208.255	9.73
208.474	40.45
208.693	24.06
208.911	67.07
209.13	15.87
209.349	-18.94
209.567	-16.9
209.786	-41.47
210.005	-2.56
210.223	24.06
210.442	-14.85
210.661	-18.94
210.879	-39.42
211.098	-2.56
211.316	42.5
211.535	73.21
211.753	-53.76
211.972	-39.42
212.191	-33.28
212.409	-80.38
212.628	-8.7
212.846	-41.47
213.065	-6.66
213.283	19.97
213.502	3.58
213.72	-27.14
213.938	-31.23
214.157	9.73
214.375	-55.81
214.594	-59.9
214.812	-74.24
215.031	7.68
215.249	-8.7
215.467	-16.9
215.686	-18.94
215.904	62.98
216.122	-4.61
216.341	30.21
216.559	11.78
216.778	30.21
216.996	-45.57
217.214	-10.75
217.432	-4.61
217.651	19.97
217.869	-41.47
218.087	-8.7
218.306	-18.94
218.524	54.78
218.742	-59.9
218.96	-92.67
219.179	-74.24
219.397	1.54
219.615	30.21
219.833	71.17
220.051	54.78
220.27	38.4
220.488	-25.09
220.706	1.54
220.924	56.83
221.142	15.87
221.36	-37.38
221.578	-45.57
221.796	46.59
222.015	24.06
222.233	19.97
222.451	52.74
222.669	-29.18
222.887	44.54
223.105	-12.8
223.323	69.12
223.541	-25.09
223.759	24.06
223.977	-12.8
224.195	17.92
224.413	-49.66
224.631	28.16
224.849	-0.51
225.067	32.26
225.285	-43.52
225.503	-41.47
225.721	-16.9
225.939	-25.09
226.157	5.63
226.375	24.06
226.592	-35.33
226.81	-41.47
227.028	-16.9
227.246	-39.42
227.464	-55.81
227.682	-2.56
227.9	30.21
228.117	54.78
228.335	24.06
228.553	-10.75
228.771	-25.09
228.989	7.68
229.206	1.54
229.424	-10.75
229.642	44.54
229.86	11.78
230.077	-23.04
230.295	11.78
230.513	15.87
230.731	-10.75
230.948	26.11
231.166	56.83
231.384	-64
231.601	-57.86
231.819	-29.18
232.037	79.36
232.254	-27.14
232.472	-4.61
232.689	3.58
232.907	22.02
233.125	-10.75
233.342	24.06
233.56	75.26
233.777	-10.75
233.995	40.45
234.213	5.63
234.43	46.59
234.648	-41.47
234.865	-23.04
235.083	-18.94
235.3	-45.57
235.518	-100.86
235.735	40.45
235.953	15.87
236.17	24.06
236.388	-27.14
236.605	67.07
236.822	-27.14
237.04	-43.52
237.257	13.82
237.475	-57.86
237.692	-27.14
237.909	-51.71
238.127	32.26
238.344	-47.62
238.562	-2.56
238.779	-41.47
238.996	1.54
239.214	13.82
239.431	-74.24
239.648	-49.66
239.865	30.21
240.083	3.58
240.3	17.92
240.517	19.97
240.735	9.73
240.952	-20.99
241.169	-43.52
241.386	-10.75
241.603	34.3
241.821	-31.23
242.038	40.45
242.255	-16.9
242.472	-49.66
242.689	-18.94
242.907	-12.8
243.124	15.87
243.341	24.06
243.558	-41.47
243.775	-10.75
243.992	-57.86
244.209	1.54
244.426	-2.56
244.643	-37.38
244.86	-31.23
245.078	5.63
245.295	7.68
245.512	-8.7
245.729	-23.04
245.946	5.63
246.163	-20.99
246.38	46.59
246.597	-16.9
246.814	-49.66
247.031	-29.18
247.248	13.82
247.464	81.41
247.681	65.02
247.898	11.78
248.115	-59.9
248.332	9.73
248.549	-41.47
248.766	9.73
248.983	-53.76
249.2	69.12
249.417	-80.38
249.633	3.58
249.85	22.02
250.067	-20.99
250.284	9.73
250.501	30.21
250.717	40.45
250.934	-27.14
251.151	-49.66
251.368	54.78
251.585	38.4
251.801	5.63
252.018	-31.23
252.235	9.73
252.451	48.64
252.668	32.26
252.885	5.63
253.102	5.63
253.318	11.78
253.535	5.63
253.752	-25.09
253.968	-31.23
254.185	46.59
254.401	-6.66
254.618	-8.7
254.835	22.02
255.051	95.74
255.268	-25.09
255.484	9.73
255.701	-33.28
255.917	-31.23
256.134	15.87
256.351	-66.05
256.567	-35.33
256.784	32.26
257	-61.95
257.217	26.11
257.433	38.4
257.65	9.73
257.866	-29.18
258.082	-39.42
258.299	-29.18
258.515	19.97
258.732	-57.86
258.948	-16.9
259.165	-64
259.381	-98.81
259.597	30.21
259.814	11.78
260.03	-37.38
260.246	-35.33
260.463	28.16
260.679	-10.75
260.895	-8.7
261.112	-2.56
261.328	-8.7
261.544	-23.04
261.761	15.87
261.977	7.68
262.193	-33.28
262.409	26.11
262.626	-59.9
262.842	-14.85
263.058	42.5
263.274	15.87
263.49	44.54
263.707	24.06
263.923	38.4
264.139	-0.51
264.355	-66.05
264.571	-18.94
264.787	-82.43
265.004	32.26
265.22	-16.9
265.436	54.78
265.652	7.68
265.868	13.82
266.084	-8.7
266.3	42.5
266.516	26.11
266.732	42.5
266.948	-18.94
267.164	75.26
267.38	9.73
267.596	3.58
267.812	-61.95
268.028	-0.51
268.244	-72.19
268.46	15.87
268.676	-4.61
268.892	-39.42
269.108	-64
269.324	-33.28
269.54	-33.28
269.756	-2.56
269.972	-10.75
270.188	93.69
270.403	-25.09
270.619	5.63
270.835	11.78
271.051	75.26
271.267	17.92
271.483	30.21
271.698	-29.18
271.914	5.63
272.13	-6.66
272.346	-4.61
272.562	1.54
272.777	7.68
272.993	58.88
273.209	19.97
273.425	48.64
273.64	19.97
273.856	-10.75
274.072	1.54
274.287	-25.09
274.503	1.54
274.719	11.78
274.934	32.26
275.15	-4.61
275.366	-31.23
275.581	-64
275.797	-10.75
276.012	7.68
276.228	-27.14
276.444	5.63
276.659	54.78
276.875	-2.56
277.09	-6.66
277.306	38.4
277.521	-18.94
277.737	-35.33
277.952	83.45
278.168	-66.05
278.383	67.07
278.599	-47.62
278.814	-2.56
279.03	-10.75
279.245	32.26
279.461	17.92
279.676	-8.7
279.892	40.45
280.107	-14.85
280.322	-47.62
280.538	-55.81
280.753	-29.18
280.969	-29.18
281.184	46.59
281.399	13.82
281.615	38.4
281.83	17.92
282.045	1.54
282.26	-49.66
282.476	-23.04
282.691	-2.56
282.906	-10.75
283.122	32.26
283.337	-55.81
283.552	22.02
283.767	-53.76
283.983	13.82
284.198	7.68
284.413	-8.7
284.628	34.3
284.843	34.3
285.058	-23.04
285.274	-10.75
285.489	-113.15
285.704	46.59
285.919	15.87
286.134	32.26
286.349	-43.52
286.564	22.02
286.779	-29.18
286.995	-10.75
287.21	-39.42
287.425	3.58
287.64	-51.71
287.855	38.4
288.07	42.5
288.285	-23.04
288.5	7.68
288.715	42.5
288.93	38.4
289.145	42.5
289.36	30.21
289.575	-39.42
289.79	-37.38
290.004	-25.09
290.219	-29.18
290.434	-61.95
290.649	-8.7
290.864	-39.42
291.079	-29.18
291.294	19.97
291.509	-37.38
291.724	-61.95
291.938	9.73
292.153	-6.66
292.368	1.54
292.583	17.92
292.798	-27.14
293.012	-0.51
293.227	-31.23
293.442	-10.75
293.657	24.06
293.871	19.97
294.086	-18.94
294.301	42.5
294.516	-18.94
294.73	-25.09
294.945	-14.85
295.16	-49.66
295.374	-64
295.589	71.17
295.804	-25.09
296.018	46.59
296.233	32.26
296.447	-41.47
296.662	-12.8
296.877	28.16
297.091	7.68
297.306	36.35
297.52	34.3
297.735	67.07
297.949	-8.7
298.164	-35.33
298.378	-43.52
298.593	-90.62
298.807	-92.67
299.022	-8.7
299.236	-14.85
299.451	44.54
299.665	1.54
299.88	7.68
300.094	34.3
300.309	-25.09
300.523	-74.24
300.737	67.07
300.952	-51.71
301.166	-27.14
301.381	42.5
301.595	65.02
301.809	-20.99
302.024	-2.56
302.238	24.06
302.452	19.97
302.667	-27.14
302.881	-59.9
303.095	-14.85
303.309	58.88
303.524	17.92
303.738	-68.09
303.952	-2.56
304.166	-78.33
304.381	-10.75
304.595	22.02
304.809	-37.38
305.023	32.26
305.237	22.02
305.452	95.74
305.666	-0.51
305.88	5.63
306.094	-14.85
306.308	1.54
306.522	34.3
306.736	-66.05
306.95	-6.66
307.164	-20.99
307.379	-59.9
307.593	15.87
307.807	13.82
308.021	34.3
308.235	-29.18
308.449	-25.09
308.663	-45.57
308.877	-2.56
309.091	-80.38
309.305	-8.7
309.519	26.11
309.733	56.83
309.947	-41.47
310.161	-4.61
310.374	-53.76
310.588	-59.9
310.802	-66.05
311.016	13.82
311.23	22.02
311.444	-20.99
311.658	-4.61
311.872	24.06
312.085	-29.18
312.299	48.64
312.513	5.63
312.727	9.73
312.941	11.78
313.154	-43.52
313.368	-16.9
313.582	-8.7
313.796	13.82
314.009	54.78
314.223	9.73
314.437	52.74
314.651	19.97
314.864	9.73
315.078	-104.96
315.292	-80.38
315.505	-39.42
315.719	38.4
315.933	-49.66
316.146	-33.28
316.36	1.54
316.573	22.02
316.787	-25.09
317.001	-25.09
317.214	11.78
317.428	13.82
317.641	34.3
317.855	-0.51
318.068	1.54
318.282	40.45
318.495	11.78
318.709	-35.33
318.922	-16.9
319.136	-14.85
319.349	54.78
319.563	5.63
319.776	15.87
319.99	-33.28
320.203	-45.57
320.417	-29.18
320.63	-31.23
320.843	-39.42
321.057	36.35
321.27	32.26
321.483	40.45
321.697	38.4
321.91	-57.86
322.124	-37.38
322.337	26.11
322.55	9.73
322.763	-90.62
322.977	9.73
323.19	42.5
323.403	-53.76
323.617	-8.7
323.83	-23.04
324.043	75.26
324.256	32.26
324.469	-18.94
324.683	17.92
324.896	-6.66
325.109	-57.86
325.322	17.92
325.535	48.64
325.748	38.4
325.962	38.4
326.175	-53.76
326.388	-33.28
326.601	40.45
326.814	-0.51
327.027	-12.8
327.24	30.21
327.453	-66.05
327.666	3.58
327.879	-14.85
328.092	105.98
328.305	-25.09
328.518	24.06
328.731	-27.14
328.944	19.97
329.157	-2.56
329.37	34.3
329.583	13.82
329.796	15.87
330.009	-25.09
330.222	5.63
330.435	-23.04
330.648	22.02
330.861	-14.85
331.073	11.78
331.286	-14.85
331.499	5.63
331.712	-2.56
331.925	46.59
332.138	-18.94
332.35	-10.75
332.563	-8.7
332.776	22.02
332.989	-49.66
333.202	-12.8
333.414	5.63
333.627	11.78
333.84	-0.51
334.053	-47.62
334.265	11.78
334.478	34.3
334.691	24.06
334.903	-14.85
335.116	-10.75
335.329	-39.42
335.541	52.74
335.754	-20.99
335.966	-29.18
336.179	69.12
336.392	-10.75
336.604	-16.9
336.817	22.02
337.029	-68.09
337.242	-12.8
337.454	-61.95
337.667	-0.51
337.88	5.63
338.092	-39.42
338.305	15.87
338.517	-29.18
338.729	24.06
338.942	3.58
339.154	-29.18
339.367	5.63
339.579	-16.9
339.792	-27.14
340.004	26.11
340.217	54.78
340.429	24.06
340.641	17.92
340.854	-74.24
341.066	-47.62
341.278	-12.8
341.491	-8.7
341.703	13.82
341.915	32.26
342.128	50.69
342.34	-53.76
342.552	-25.09
342.764	3.58
342.977	-53.76
343.189	-14.85
343.401	15.87
343.613	54.78
343.826	-10.75
344.038	46.59
344.25	3.58
344.462	-72.19
344.674	52.74
344.886	15.87
345.099	-2.56
345.311	-41.47
345.523	-33.28
345.735	17.92
345.947	-18.94
346.159	75.26
346.371	-6.66
346.583	1.54
346.795	9.73
347.007	-33.28
347.219	24.06
347.431	3.58
347.643	9.73
347.855	-37.38
348.067	13.82
348.279	50.69
348.491	101.89
348.703	-47.62
348.915	30.21
349.127	-68.09
349.339	11.78
349.551	-14.85
349.763	-27.14
349.975	5.63
350.187	-37.38
350.399	-0.51
350.61	62.98
350.822	-84.48
351.034	34.3
351.246	7.68
351.458	30.21
351.669	-20.99
351.881	73.21
352.093	-10.75
352.305	54.78
352.517	15.87
352.728	44.54
352.94	19.97
353.152	-0.51
353.363	-2.56
353.575	-55.81
353.787	52.74
353.999	15.87
354.21	40.45
354.422	54.78
354.633	26.11
354.845	-27.14
355.057	1.54
355.268	19.97
355.48	40.45
355.692	-25.09
355.903	46.59
356.115	15.87
356.326	5.63
356.538	81.41
356.749	5.63
356.961	1.54
357.172	-14.85
357.384	-33.28
357.595	-0.51
357.807	5.63
358.018	24.06
358.23	5.63
358.441	-16.9
358.653	7.68
358.864	-31.23
359.075	-2.56
359.287	50.69
359.498	-53.76
359.709	-23.04
359.921	22.02
360.132	-37.38
360.344	15.87
360.555	-53.76
360.766	5.63
360.977	-12.8
361.189	1.54
361.4	56.83
361.611	62.98
361.823	-16.9
362.034	48.64
362.245	32.26
362.456	-45.57
362.667	24.06
362.879	-35.33
363.09	62.98
363.301	-0.51
363.512	5.63
363.723	-84.48
363.935	71.17
364.146	46.59
364.357	-31.23
364.568	-6.66
364.779	-39.42
364.99	-16.9
365.201	-18.94
365.412	-4.61
365.623	24.06
365.834	17.92
366.045	32.26
366.256	28.16
366.467	24.06
366.678	-49.66
366.889	-45.57
367.1	-47.62
367.311	24.06
367.522	-0.51
367.733	-90.62
367.944	-6.66
368.155	28.16
368.366	-31.23
368.577	71.17
368.788	-16.9
368.999	-6.66
369.209	79.36
369.42	24.06
369.631	65.02
369.842	-53.76
370.053	32.26
370.264	1.54
370.474	-39.42
370.685	48.64
370.896	-64
371.107	38.4
371.317	3.58
371.528	7.68
371.739	62.98
371.95	40.45
372.16	30.21
372.371	-64
372.582	-0.51
372.792	-41.47
373.003	24.06
373.214	11.78
373.424	-6.66
373.635	-10.75
373.846	50.69
374.056	9.73
374.267	-51.71
374.477	19.97
374.688	-8.7
374.898	91.65
375.109	69.12
375.319	48.64
375.53	-16.9
375.74	-35.33
375.951	-14.85
376.161	-6.66
376.372	3.58
376.582	-35.33
376.793	3.58
377.003	-10.75
377.214	50.69
377.424	24.06
377.635	15.87
377.845	-12.8
378.055	34.3
378.266	-33.28
378.476	-10.75
378.686	50.69
378.897	28.16
379.107	5.63
379.317	103.93
379.528	-10.75
379.738	-29.18
379.948	-6.66
380.158	32.26
380.369	50.69
380.579	-39.42
380.789	58.88
380.999	65.02
381.21	30.21
381.42	46.59
381.63	-27.14
381.84	-6.66
382.05	30.21
382.261	87.55
382.471	5.63
382.681	38.4
382.891	-39.42
383.101	15.87
383.311	-6.66
383.521	22.02
383.731	36.35
383.941	-14.85
384.151	-25.09
384.361	24.06
384.571	38.4
384.781	58.88
384.991	54.78
385.201	13.82
385.411	-35.33
385.621	26.11
385.831	15.87
386.041	79.36
386.251	-43.52
386.461	-27.14
386.671	75.26
386.881	48.64
387.091	1.54
387.301	17.92
387.511	73.21
387.72	-72.19
387.93	52.74
388.14	77.31
388.35	24.06
388.56	-2.56
388.769	13.82
388.979	-4.61
389.189	-33.28
389.399	24.06
389.609	-49.66
389.818	40.45
390.028	-41.47
390.238	38.4
390.447	-16.9
390.657	15.87
390.867	-2.56
391.076	-64
391.286	15.87
391.496	32.26
391.705	-6.66
391.915	-2.56
392.125	17.92
392.334	-4.61
392.544	-27.14
392.753	46.59
392.963	26.11
393.172	26.11
393.382	-37.38
393.591	26.11
393.801	38.4
394.01	-4.61
394.22	5.63
394.429	30.21
394.639	-23.04
394.848	-25.09
395.058	36.35
395.267	34.3
395.477	9.73
395.686	-25.09
395.895	22.02
396.105	-0.51
396.314	60.93
396.524	19.97
396.733	3.58
396.942	54.78
397.152	30.21
397.361	44.54
397.57	50.69
397.78	22.02
397.989	-31.23
398.198	11.78
398.407	-6.66
398.617	52.74
398.826	65.02
399.035	-0.51
399.244	58.88
399.453	7.68
399.663	36.35
399.872	93.69
400.081	58.88
400.29	46.59
400.499	-35.33
400.708	77.31
400.917	65.02
401.127	7.68
401.336	13.82
401.545	-6.66
401.754	-51.71
401.963	11.78
402.172	40.45
402.381	67.07
402.59	69.12
402.799	-51.71
403.008	7.68
403.217	58.88
403.426	5.63
403.635	26.11
403.844	42.5
404.053	28.16
404.262	19.97
404.471	30.21
404.68	40.45
404.888	34.3
405.097	-27.14
405.306	81.41
405.515	54.78
405.724	38.4
405.933	79.36
406.142	38.4
406.35	46.59
406.559	73.21
406.768	81.41
406.977	83.45
407.185	17.92
407.394	81.41
407.603	79.36
407.812	54.78
408.02	40.45
408.229	85.5
408.438	132.61
408.646	65.02
408.855	110.08
409.064	30.21
409.272	30.21
409.481	144.89
409.69	46.59
409.898	91.65
410.107	122.37
410.315	140.8
410.524	62.98
410.733	91.65
410.941	132.61
411.15	79.36
411.358	122.37
411.567	120.32
411.775	50.69
411.984	118.27
412.192	144.89
412.401	138.75
412.609	179.71
412.818	189.95
413.026	128.51
413.234	177.66
413.443	91.65
413.651	153.09
413.86	148.99
414.068	214.52
414.276	228.86
414.485	179.71
414.693	187.9
414.901	171.52
415.11	192
415.318	239.1
415.526	189.95
415.734	200.19
415.943	202.24
416.151	349.69
416.359	239.1
416.567	253.44
416.776	226.81
416.984	261.63
417.192	241.15
417.4	275.96
417.608	282.11
417.817	339.45
418.025	329.21
418.233	327.16
418.441	312.83
418.649	357.88
418.857	425.47
419.065	359.93
419.273	386.55
419.481	423.42
419.689	388.6
419.897	458.23
420.105	421.37
420.313	476.66
420.521	534.01
420.729	495.1
420.937	423.42
421.145	503.29
421.353	419.32
421.561	642.55
421.769	622.07
421.977	636.41
422.185	583.16
422.393	673.27
422.601	761.33
422.809	699.89
423.017	787.96
423.224	708.09
423.432	843.25
423.64	775.67
423.848	941.55
424.056	814.58
424.263	845.3
424.471	962.03
424.679	894.45
424.887	955.89
425.094	974.32
425.302	1005.04
425.51	941.55
425.718	1138.16
425.925	1039.86
426.133	1158.64
426.341	1136.11
426.548	1218.03
426.756	1215.98
426.964	1215.98
427.171	1275.37
427.379	1291.76
427.586	1394.15
427.794	1414.63
428.001	1420.78
428.209	1480.17
428.417	1551.85
428.624	1676.77
428.832	1629.67
429.039	1560.04
429.247	1547.75
429.454	1697.25
429.662	1922.53
429.869	1795.56
430.076	1965.54
430.284	1781.22
430.491	1897.96
430.699	1914.34
430.906	1955.3
431.114	1988.07
431.321	2104.8
431.528	2184.67
431.736	2280.93
431.943	2387.42
432.15	2422.24
432.358	2317.79
432.565	2434.52
432.772	2463.19
432.979	2653.66
433.187	2563.54
433.394	2590.17
433.601	2807.25
433.808	2860.5
434.016	2747.86
434.223	3003.86
434.43	3268.05
434.637	2966.99
434.844	3239.37
435.052	3304.91
435.259	3339.73
435.466	3364.3
435.673	3374.54
435.88	3438.03
436.087	3648.97
436.294	3737.03
436.501	3620.3
436.708	3724.74
436.915	3792.33
437.122	3888.58
437.329	3982.79
437.537	4126.15
437.743	4201.92
437.95	4150.72
438.157	4492.73
438.364	4570.55
438.571	4455.87
438.778	4570.55
438.985	5004.72
439.192	4574.65
439.399	4834.74
439.606	4728.25
439.813	5141.94
440.02	5273.01
440.227	5285.3
440.433	5176.75
440.64	5447.08
440.847	5303.73
441.054	5639.59
441.261	5819.82
441.467	5741.99
441.674	5680.55
441.881	6124.96
442.088	6034.85
442.294	6139.3
442.501	6219.17
442.708	6415.77
442.914	6636.95
443.121	6903.19
443.328	6696.35
443.534	7214.48
443.741	7083.41
443.948	7001.49
444.154	7480.72
444.361	7290.26
444.568	7486.86
444.774	7611.79
444.981	7396.75
445.187	7640.46
445.394	8168.84
445.6	7957.89
445.807	8734.07
446.013	8256.9
446.22	8521.09
446.426	8789.37
446.633	8902.01
446.839	9358.71
447.046	8852.86
447.252	9356.66
447.459	9297.27
447.665	9373.04
447.871	9749.87
448.078	10149.22
448.284	9645.42
448.491	10036.58
448.697	10237.28
448.903	10556.77
449.11	10675.55
449.316	10528.1
449.522	10497.38
449.728	11050.33
449.935	11015.51
450.141	11134.29
450.347	11216.21
450.553	10917.21
450.76	11009.37
450.966	11255.12
451.172	11609.42
451.378	11662.67
451.584	11488.59
451.791	11547.98
451.997	11384.15
452.203	11885.9
452.409	11844.94
452.615	11662.67
452.821	11248.98
453.027	11326.8
453.233	11580.75
453.44	11425.11
453.646	11388.24
453.852	11636.05
454.058	11607.37
454.264	11265.36
454.47	11588.94
454.676	11136.34
454.882	11664.72
455.088	10689.88
455.294	10872.15
455.5	10970.46
455.705	11025.75
455.911	10562.91
456.117	10714.46
456.323	10364.26
456.529	9674.09
456.735	10153.32
456.941	9844.07
457.147	9559.41
457.352	9430.38
457.558	9381.23
457.764	9545.07
457.97	9350.51
458.176	9129.33
458.381	8859
458.587	8488.32
458.793	8721.79
458.999	8093.06
459.204	8815.99
459.41	8453.5
459.616	8068.48
459.821	7888.26
460.027	7722.38
460.233	7835.02
460.438	7503.25
460.644	7372.18
460.85	7075.22
461.055	7116.18
461.261	6882.71
461.466	6552.99
461.672	6086.05
461.878	6790.55
462.083	6253.98
462.289	6096.29
462.494	6045.09
462.7	5752.23
462.905	5586.35
463.111	5848.49
463.316	5791.14
463.522	5645.74
463.727	5647.79
463.932	5774.76
464.138	5631.4
464.343	5856.68
464.549	5531.05
464.754	5756.33
464.959	5694.89
465.165	5750.18
465.37	5371.31
465.575	5195.18
465.781	5447.08
465.986	5406.13
466.191	5240.24
466.397	5139.89
466.602	5039.54
466.807	5141.94
467.012	5088.69
467.218	5131.7
467.423	5049.78
467.628	5043.64
467.833	5303.73
468.038	4996.53
468.244	4865.46
468.449	5154.23
468.654	5031.35
468.859	4867.51
469.064	4982.2
469.269	4660.66
469.474	4779.45
469.679	4644.28
469.885	4687.29
470.09	4779.45
470.295	4875.7
470.5	4685.24
470.705	4814.26
470.91	4666.81
471.115	4494.78
471.32	4486.59
471.525	4552.12
471.73	4316.61
471.935	4345.28
472.139	4408.76
472.344	4216.26
472.549	4289.98
472.754	4193.73
472.959	4220.35
473.164	4240.83
473.369	3976.64
473.574	4156.86
473.778	4251.07
473.983	4038.08
474.188	4056.51
474.393	3876.29
474.598	3947.97
474.802	4001.22
475.007	3706.31
475.212	3958.21
475.417	3673.54
475.621	3730.89
475.826	3708.36
476.031	3767.75
476.235	3675.59
476.44	3722.7
476.645	3526.09
476.849	3524.04
477.054	3550.67
477.259	3548.62
477.463	3401.16
477.668	3413.45
477.872	3460.56
478.077	3331.53
478.282	3249.61
478.486	3362.25
478.691	3245.52
478.895	3255.76
479.1	3280.33
479.304	3298.77
479.509	3089.87
479.713	3241.42
479.918	3196.37
480.122	3112.4
480.326	3153.36
480.531	3134.93
480.735	3053.01
480.94	3053.01
481.144	3106.26
481.348	3065.3
481.553	3083.73
481.757	3010
481.961	3042.77
482.166	3102.16
482.37	3014.1
482.574	3063.25
482.778	3077.59
482.983	3104.21
483.187	2876.88
483.391	3020.24
483.595	2991.57
483.8	2928.08
484.004	2938.32
484.208	3085.78
484.412	3087.82
484.616	2934.23
484.821	3012.05
485.025	3073.49
485.229	3057.11
485.433	2995.67
485.637	2997.71
485.841	2913.75
486.045	2991.57
486.249	3077.59
486.453	3016.15
486.657	2983.38
486.861	2983.38
487.065	2950.61
487.269	3018.19
487.473	3012.05
487.677	3106.26
487.881	3110.35
488.085	3087.82
488.289	3079.63
488.493	2979.28
488.697	3075.54
488.901	3020.24
489.105	3081.68
489.309	2946.52
489.512	3010
489.716	2987.47
489.92	3048.91
490.124	3132.88
490.328	3112.4
490.531	3091.92
490.735	3096.02
490.939	3055.06
491.143	3053.01
491.346	3075.54
491.55	3345.87
491.754	3167.7
491.958	3085.78
492.161	3114.45
492.365	3110.35
492.569	3222.99
492.772	3179.98
492.976	3278.29
493.18	3253.71
493.383	3259.85
493.587	3343.82
493.79	3345.87
493.994	3249.61
494.197	3327.44
494.401	3417.55
494.605	3358.16
494.808	3503.56
495.012	3390.92
495.215	3409.36
495.419	3538.38
495.622	3405.26
495.825	3505.61
496.029	3603.91
496.232	3734.98
496.436	3505.61
496.639	3796.42
496.843	3628.49
497.046	3634.63
497.249	3626.44
497.453	3937.73
497.656	3915.2
497.859	3902.92
498.063	3855.81
498.266	3947.97
498.469	3923.4
498.673	3921.35
498.876	4109.76
499.079	4115.91
499.282	4036.03
499.485	4074.95
499.689	4316.61
499.892	4292.03
500.095	4394.43
500.298	4390.33
500.501	4363.71
500.705	4464.06
500.908	4398.52
501.111	4558.27
501.314	4613.56
501.517	4439.48
501.72	4734.39
501.923	4648.38
502.126	4875.7
502.329	5021.11
502.532	4826.55
502.735	4955.57
502.938	5027.25
503.141	5057.97
503.344	5143.99
503.547	5156.27
503.75	5266.86
503.953	5264.82
504.156	5383.6
504.359	5524.91
504.562	5436.85
504.765	5653.93
504.968	5748.14
505.17	5666.22
505.373	5797.29
505.576	5828.01
505.779	5832.1
505.982	5838.25
506.185	5959.08
506.387	5930.41
506.59	6165.92
506.793	6202.79
506.996	6217.12
507.198	6469.02
507.401	6278.56
507.604	6370.72
507.807	6395.29
508.009	6589.85
508.212	6612.38
508.415	6813.08
508.617	6790.55
508.82	6921.62
509.022	6772.12
509.225	7007.64
509.428	7054.74
509.63	7183.76
509.833	7116.18
510.035	7253.39
510.238	7343.5
510.44	7456.14
510.643	7536.01
510.845	7615.88
511.048	7611.79
511.25	7607.69
511.453	7904.65
511.655	8129.92
511.858	7994.76
512.06	7925.13
512.262	8242.56
512.465	7961.99
512.667	8402.3
512.87	8254.85
513.072	8297.86
513.274	8400.26
513.477	8480.13
513.679	8791.42
513.881	8666.49
514.084	8777.08
514.286	8803.71
514.488	8699.26
514.69	9201.01
514.893	9233.78
515.095	9137.52
515.297	9334.13
515.499	9409.9
515.701	9405.81
515.904	9598.32
516.106	9618.8
516.308	9649.52
516.51	9835.88
516.712	9770.35
516.914	10102.12
517.116	9928.04
517.318	10108.26
517.52	10075.49
517.722	10124.65
517.925	10351.97
518.127	10435.94
518.329	10685.79
518.531	10423.65
518.733	10732.89
518.935	10603.87
519.136	10960.22
519.338	11007.32
519.54	11072.86
519.742	11181.4
519.944	11320.66
520.146	11357.52
520.348	11496.78
520.55	11631.95
520.752	11449.68
520.954	11726.16
521.155	11668.81
521.357	12004.68
521.559	11687.25
521.761	12121.42
521.963	11961.67
522.164	11963.72
522.366	12166.47
522.568	12348.74
522.77	12467.52
522.971	12451.14
523.173	12385.6
523.375	12569.92
523.576	12576.06
523.778	12680.51
523.98	12938.55
524.181	12715.33
524.383	12956.99
524.584	12862.78
524.786	13057.34
524.988	13163.83
525.189	13329.72
525.391	13233.46
525.592	13219.13
525.794	13260.09
525.995	13192.5
526.197	13350.2
526.398	13278.52
526.6	13352.24
526.801	13729.07
527.003	13788.46
527.204	13704.49
527.406	13710.64
527.607	13696.3
527.808	13919.53
528.01	13634.86
528.211	13624.62
528.412	14011.69
528.614	13731.12
528.815	14023.98
529.016	14021.93
529.218	13710.64
529.419	14138.66
529.62	13966.63
529.822	14132.52
530.023	14169.38
530.224	14060.84
530.425	14161.19
530.626	14095.66
530.828	13716.78
531.029	14425.38
531.23	14148.9
531.431	14138.66
531.632	14257.45
531.833	14292.26
532.035	14071.08
532.236	14243.11
532.437	14503.2
532.638	14064.94
532.839	14185.77
533.04	14234.92
533.241	14114.09
533.442	14284.07
533.643	14398.76
533.844	14630.18
534.045	14365.99
534.246	14222.63
534.447	14568.74
534.648	14361.89
534.849	14226.73
535.05	14126.38
535.251	14445.86
535.451	14439.72
535.652	14394.66
535.853	14239.01
536.054	14470.44
536.255	14699.81
536.456	14185.77
536.657	14640.42
536.857	14415.14
537.058	14251.3
537.259	14527.78
537.46	14275.88
537.66	14196.01
537.861	14478.63
538.062	14224.68
538.263	14402.85
538.463	14505.25
538.664	14353.7
538.865	14495.01
539.065	14597.41
539.266	14294.31
539.466	14406.95
539.667	14224.68
539.868	14419.24
540.068	14519.59
540.269	14359.84
540.469	14452
540.67	14277.93
540.87	14257.45
541.071	14601.51
541.271	14454.05
541.472	14484.77
541.672	14085.42
541.873	14277.93
542.073	14095.66
542.274	14646.56
542.474	14488.87
542.675	14279.97
542.875	14435.62
543.075	14187.82
543.276	14279.97
543.476	14296.36
543.676	14490.91
543.877	14609.7
544.077	14124.33
544.277	14155.05
544.478	14302.5
544.678	14562.59
544.878	14294.31
545.078	14267.69
545.279	14239.01
545.479	14208.3
545.679	14220.58
545.879	14169.38
546.079	14482.72
546.28	14206.25
546.48	14241.06
546.68	14327.08
546.88	14056.75
547.08	14329.13
547.28	14032.17
547.48	14144.81
547.68	14167.34
547.88	14122.28
548.081	14316.84
548.281	14253.35
548.481	14202.15
548.681	14363.94
548.881	14079.27
549.081	13966.63
549.28	14208.3
549.48	14218.54
549.68	14138.66
549.88	14255.4
550.08	14007.59
550.28	14198.06
550.48	13956.4
550.68	14505.25
550.88	14353.7
551.08	14136.62
551.279	14087.47
551.479	13962.54
551.679	14075.18
551.879	14030.12
552.079	14304.55
552.278	14083.37
552.478	14306.6
552.678	14130.47
552.878	14353.7
553.077	14177.58
553.277	13923.63
553.477	13985.07
553.676	14112.04
553.876	13759.79
554.076	13843.76
554.275	13966.63
554.475	13645.1
554.674	13870.38
554.874	13909.29
555.074	13847.85
555.273	14161.19
555.473	13874.48
555.672	13907.24
555.872	13892.91
556.071	13964.59
556.271	14130.47
556.47	13878.57
556.67	13800.75
556.869	13802.8
557.068	13858.09
557.268	13696.3
557.467	13827.37
557.667	13700.4
557.866	13724.97
558.065	13827.37
558.265	13827.37
558.464	13708.59
558.663	13686.06
558.863	13552.95
559.062	13929.77
559.261	13575.47
559.461	13935.92
559.66	13327.67
559.859	13813.04
560.058	13606.19
560.258	13790.51
560.457	13532.47
560.656	13614.38
560.855	13346.1
561.054	13651.25
561.253	13647.15
561.453	13557.04
561.652	13550.9
561.851	13598
562.05	13532.47
562.249	13342
562.448	13299
562.647	13348.15
562.846	13288.76
563.045	13339.96
563.244	13255.99
563.443	13434.16
563.642	13368.63
563.841	13405.49
564.04	13118.78
564.239	13360.44
564.438	13249.85
564.637	13266.23
564.836	13151.54
565.035	13210.93
565.234	13245.75
565.432	13073.72
565.631	12963.13
565.83	13215.03
566.029	12907.84
566.228	12956.99
566.427	12959.03
566.625	13055.29
566.824	12836.16
567.023	12985.66
567.222	12825.92
567.42	12821.82
567.619	12815.68
567.818	12719.42
568.016	12897.6
568.215	12873.02
568.414	12756.29
568.612	13092.15
568.811	12709.18
569.01	12754.24
569.208	12426.56
569.407	12600.64
569.605	12641.6
569.804	12895.55
570.002	12535.1
570.201	12494.15
570.4	12395.84
570.598	12657.98
570.797	12594.5
570.995	12651.84
571.193	12193.09
571.392	12324.16
571.59	12528.96
571.789	12227.91
571.987	12463.43
572.186	12373.32
572.384	12180.81
572.582	12119.37
572.781	12105.03
572.979	12074.31
573.177	12000.58
573.376	12236.1
573.574	12236.1
573.772	12168.52
573.971	11859.28
574.169	12064.07
574.367	11707.73
574.565	12182.85
574.763	11967.82
574.962	11961.67
575.16	11953.48
575.358	11922.76
575.556	11867.47
575.754	11935.05
575.952	11732.3
576.151	11965.77
576.349	11636.05
576.547	11918.67
576.745	11726.16
576.943	11836.75
577.141	11775.31
577.339	11746.64
577.537	11523.41
577.735	11539.79
577.933	11375.95
578.131	11588.94
578.329	11410.77
578.527	11369.81
578.725	11459.92
578.923	11566.42
579.121	11468.11
579.319	11457.87
579.516	11236.69
579.714	11396.43
579.912	11423.06
580.11	11308.37
580.308	11255.12
580.506	11093.33
580.704	10814.81
580.901	11144.53
581.099	11130.2
581.297	10974.55
581.495	11027.8
581.692	10992.98
581.89	10972.5
582.088	10861.91
582.285	10976.6
582.483	11050.33
582.681	10777.95
582.878	10997.08
583.076	10859.87
583.274	10952.02
583.471	10902.87
583.669	10753.37
583.866	10786.14
584.064	10874.2
584.262	10532.19
584.459	10640.73
584.657	10763.61
584.854	10687.84
585.052	10446.18
585.249	10540.38
585.447	10526.05
585.644	10583.39
585.841	10390.88
586.039	10636.64
586.236	10450.27
586.434	10255.72
586.631	10378.59
586.828	10403.17
587.026	10065.25
587.223	10323.3
587.42	10313.06
587.618	10270.05
587.815	10120.55
588.012	9989.48
588.21	10218.85
588.407	10202.47
588.604	10100.07
588.801	9975.14
588.999	10020.2
589.196	9905.51
589.393	9893.23
589.59	10095.97
589.787	9629.04
589.984	9815.4
590.182	9739.63
590.379	9971.05
590.576	9725.29
590.773	9928.04
590.97	9782.63
591.167	9721.2
591.364	9772.39
591.561	9678.19
591.758	9516.4
591.955	9602.41
592.152	9741.68
592.349	9526.64
592.546	9450.86
592.743	9500.02
592.94	9272.69
593.137	9522.54
593.334	9581.93
593.531	9594.22
593.727	9495.92
593.924	9395.57
594.121	9336.18
594.318	9370.99
594.515	9020.79
594.712	9289.07
594.908	9295.22
595.105	9162.1
595.302	9393.52
595.499	9336.18
595.696	9139.57
595.892	9108.85
596.089	9176.44
596.286	9000.31
596.482	9057.65
596.679	9139.57
596.876	8977.78
597.072	9035.13
597.269	8975.74
597.466	8949.11
597.662	8971.64
597.859	8924.54
598.055	8922.49
598.252	8680.83
598.448	8680.83
598.645	8824.19
598.841	8607.1
599.038	8650.11
599.234	8768.89
599.431	8615.29
599.627	8709.5
599.824	8500.61
600.02	8512.89
600.217	8574.33
600.413	8508.8
600.609	8363.39
600.806	8560
601.002	8451.46
601.198	8256.9
601.395	8306.05
601.591	8418.69
601.787	8328.58
601.984	8347.01
602.18	8463.74
602.376	8156.55
602.572	8248.71
602.769	8304
602.965	8095.11
603.161	8185.22
603.357	8076.68
603.553	8113.54
603.75	8224.13
603.946	7984.52
604.142	7939.46
604.338	7931.27
604.534	7896.46
604.73	7925.13
604.926	7671.18
605.122	7898.5
605.318	7916.94
605.514	7800.2
605.71	7892.36
605.906	7822.73
606.102	7933.32
606.298	7994.76
606.494	7777.67
606.69	7757.19
606.886	7683.47
607.082	7787.91
607.278	7603.6
607.474	7615.88
607.67	7691.66
607.866	7372.18
608.062	7564.68
608.257	7601.55
608.453	7685.51
608.649	7572.88
608.845	7650.7
609.041	7533.97
609.236	7587.21
609.432	7484.81
609.628	7493.01
609.824	7509.39
610.019	7361.94
610.215	7355.79
610.411	7355.79
610.606	7390.61
610.802	7398.8
610.998	7427.47
611.193	7398.8
611.389	7325.07
611.584	7484.81
611.78	7257.49
611.976	7196.05
612.171	7325.07
612.367	7349.65
612.562	7134.61
612.758	6919.57
612.953	7148.95
613.149	7241.11
613.344	7032.21
613.539	7327.12
613.735	7087.51
613.93	7142.8
614.126	7048.6
614.321	7069.08
614.517	7175.57
614.712	7165.33
614.907	7087.51
615.103	7087.51
615.298	7083.41
615.493	7095.7
615.688	6999.45
615.884	7220.63
616.079	6899.09
616.274	6811.03
616.47	6989.21
616.665	6905.24
616.86	6935.96
617.055	6847.9
617.25	6811.03
617.445	7007.64
617.641	6913.43
617.836	6897.05
618.031	6843.8
618.226	6829.46
618.421	6712.73
618.616	6817.18
618.811	6665.63
619.006	6720.92
619.201	6774.17
619.396	6673.82
619.591	6512.03
619.786	6751.64
619.981	6479.26
620.176	6667.67
620.371	6698.39
620.566	6598.04
620.761	6600.09
620.956	6548.89
621.151	6477.21
621.346	6366.62
621.541	6337.95
621.735	6415.77
621.93	6065.57
622.125	6280.61
622.32	6141.35
622.515	6323.62
622.709	6221.22
622.904	6163.87
623.099	6235.55
623.294	6041
623.488	6069.67
623.683	6086.05
623.878	5954.98
624.072	6063.52
624.267	6038.95
624.462	5932.45
624.656	6002.08
624.851	5885.35
625.046	5793.19
625.24	5828.01
625.435	5756.33
625.629	5533.1
625.824	5719.46
626.018	5510.57
626.213	5477.8
626.407	5502.38
626.602	5637.55
626.796	5633.45
626.991	5481.9
627.185	5604.78
627.38	5561.77
627.574	5332.4
627.768	5494.19
627.963	5223.86
628.157	5352.88
628.352	5244.34
628.546	5156.27
628.74	5236.14
628.935	5209.52
629.129	5352.88
629.323	5090.74
629.517	5186.99
629.712	5004.72
629.906	5027.25
630.1	5006.77
630.294	4908.47
630.489	5094.83
630.683	4896.18
630.877	4840.89
631.071	4937.14
631.265	4996.53
631.459	4832.69
631.653	4715.96
631.848	4910.52
632.042	4881.85
632.236	4812.21
632.43	4756.92
632.624	4859.32
632.818	4826.55
633.012	4709.82
633.206	4734.39
633.4	4586.94
633.594	4597.18
633.788	4548.03
633.982	4662.71
634.176	4406.72
634.369	4588.99
634.563	4427.2
634.757	4435.39
634.951	4470.2
635.145	4414.91
635.339	4578.75
635.533	4357.57
635.726	4308.41
635.92	4494.78
636.114	4255.17
636.308	4296.13
636.501	4220.35
636.695	4203.97
636.889	4144.58
637.083	4146.62
637.276	4132.29
637.47	4087.23
637.664	4072.9
637.857	4089.28
638.051	4140.48
638.244	4156.86
638.438	4042.18
638.632	3941.83
638.825	3896.77
639.019	4038.08
639.212	3968.45
639.406	3968.45
639.599	3933.64
639.793	3939.78
639.986	3900.87
640.18	3941.83
640.373	3773.89
640.567	3835.33
640.76	3767.75
640.954	3851.72
641.147	3773.89
641.34	3646.92
641.534	3702.22
641.727	3720.65
641.92	3679.69
642.114	3671.5
642.307	3696.07
642.5	3591.63
642.694	3503.56
642.887	3630.54
643.08	3683.78
643.273	3560.91
643.467	3392.97
643.66	3448.27
643.853	3526.09
644.046	3487.18
644.239	3546.57
644.432	3466.7
644.626	3483.08
644.819	3251.66
645.012	3358.16
645.205	3407.31
645.398	3311.05
645.591	3182.03
645.784	3343.82
645.977	3323.34
646.17	3282.38
646.363	3286.48
646.556	3276.24
646.749	3167.7
646.942	3296.72
647.135	3143.12
647.328	3253.71
647.521	3124.69
647.714	3042.77
647.907	3179.98
648.099	3087.82
648.292	3251.66
648.485	3079.63
648.678	3081.68
648.871	3055.06
649.064	2995.67
649.256	3059.15
649.449	2993.62
649.642	3014.1
649.835	2948.56
650.027	2983.38
650.22	2842.07
650.413	2997.71
650.605	2962.9
650.798	2790.87
650.991	2874.84
651.183	2829.78
651.376	2758.1
651.568	2850.26
651.761	2733.53
651.954	2801.11
652.146	2801.11
652.339	2725.33
652.531	2778.58
652.724	2711
652.916	2659.8
653.109	2700.76
653.301	2653.66
653.494	2616.79
653.686	2498.01
653.879	2711
654.071	2639.32
654.263	2573.78
654.456	2618.84
654.648	2586.07
654.84	2616.79
655.033	2489.82
655.225	2553.31
655.417	2549.21
655.61	2549.21
655.802	2481.63
655.994	2618.84
656.186	2481.63
656.379	2412
656.571	2465.24
656.763	2426.33
656.955	2317.79
657.148	2407.9
657.34	2340.32
657.532	2358.75
657.724	2278.88
657.916	2403.8
658.108	2319.84
658.3	2293.21
658.492	2278.88
658.684	2182.62
658.876	2252.25
659.068	2309.6
659.26	2192.86
659.452	2366.94
659.644	2209.25
659.836	2209.25
660.028	2233.82
660.22	2090.46
660.412	2215.39
660.604	2106.85
660.796	2069.98
660.988	2088.42
661.18	2178.53
661.372	2178.53
661.563	2205.15
661.755	2102.75
661.947	2143.71
662.139	2063.84
662.331	2110.94
662.522	1977.83
662.714	1981.92
662.906	1988.07
663.097	2076.13
663.289	1977.83
663.481	1990.11
663.673	1953.25
663.864	1945.06
664.056	1938.91
664.247	1844.71
664.439	1906.15
664.631	1926.63
664.822	1852.9
665.014	1869.28
665.205	1857
665.397	1871.33
665.588	1850.85
665.78	1924.58
665.971	1983.97
666.163	1852.9
666.354	1887.72
666.546	1912.29
666.737	1883.62
666.929	1803.75
667.12	1811.94
667.311	1760.74
667.503	1811.94
667.694	1775.08
667.885	1797.6
668.077	1764.84
668.268	1781.22
668.459	1824.23
668.651	1707.49
668.842	1721.83
669.033	1631.72
669.224	1699.3
669.416	1770.98
669.607	1650.15
669.798	1678.82
669.989	1656.29
670.18	1648.1
670.371	1637.86
670.563	1725.93
670.754	1699.3
670.945	1537.51
671.136	1625.58
671.327	1699.3
671.518	1547.75
671.709	1723.88
671.9	1654.25
672.091	1605.1
672.282	1531.37
672.473	1605.1
672.664	1557.99
672.855	1572.33
673.046	1623.53
673.237	1562.09
673.428	1488.36
673.619	1508.84
673.809	1531.37
674	1588.71
674.191	1490.41
674.382	1537.51
674.573	1576.42
674.764	1533.42
674.954	1533.42
675.145	1519.08
675.336	1517.03
675.527	1555.94
675.717	1523.18
675.908	1471.98
676.099	1431.02
676.289	1396.2
676.48	1433.07
676.671	1560.04
676.861	1437.16
677.052	1467.88
677.243	1463.79
677.433	1447.4
677.624	1355.24
677.814	1412.59
678.005	1431.02
678.195	1500.65
678.386	1426.92
678.576	1359.34
678.767	1435.11
678.957	1463.79
679.148	1404.39
679.338	1426.92
679.529	1312.24
679.719	1367.53
679.909	1349.1
680.1	1412.59
680.29	1392.11
680.481	1302
680.671	1351.15
680.861	1406.44
681.052	1302
681.242	1295.85
681.432	1424.87
681.622	1304.04
681.813	1392.11
682.003	1383.91
682.193	1238.51
682.383	1398.25
682.573	1267.18
682.764	1363.44
682.954	1367.53
683.144	1304.04
683.334	1351.15
683.524	1435.11
683.714	1191.41
683.904	1406.44
684.094	1291.76
684.284	1256.94
684.474	1332.72
684.664	1394.15
684.854	1314.28
685.044	1345
685.234	1320.43
685.424	1238.51
685.614	1299.95
685.804	1281.52
685.994	1297.9
686.184	1334.76
686.374	1213.93
686.564	1230.32
686.753	1189.36
686.943	1275.37
687.133	1287.66
687.323	1269.23
687.513	1238.51
687.702	1185.26
687.892	1162.73
688.082	1263.08
688.272	1291.76
688.461	1218.03
688.651	1277.42
688.841	1211.89
689.03	1207.79
689.22	1193.45
689.41	1201.65
689.599	1267.18
689.789	1154.54
689.979	1172.97
690.168	1160.69
690.358	1132.01
690.547	1201.65
690.737	1091.06
690.926	1209.84
691.116	1211.89
691.305	1144.3
691.495	1095.15
691.684	1127.92
691.874	1105.39
692.063	1136.11
692.252	1144.3
692.442	1181.17
692.631	1099.25
692.82	1082.86
693.01	1152.49
693.199	1148.4
693.388	1015.28
693.578	1146.35
693.767	1203.69
693.956	1103.34
694.146	1150.45
694.335	1062.38
694.524	1099.25
694.713	1080.82
694.902	1009.14
695.092	1129.97
695.281	1072.62
695.47	1025.52
695.659	1129.97
695.848	1031.66
696.037	1041.9
696.226	966.13
696.415	1068.53
696.604	1019.38
696.793	1054.19
696.982	955.89
697.171	1039.86
697.36	1050.1
697.549	1080.82
697.738	1031.66
697.927	1000.94
698.116	1005.04
698.305	1033.71
698.494	941.55
698.683	951.79
698.872	1023.47
699.061	1037.81
699.25	910.83
699.438	972.27
699.627	1072.62
699.816	972.27
700.005	951.79
700.193	935.41
700.382	910.83
700.571	1007.09
700.76	941.55
700.948	970.23
701.137	1027.57
701.326	947.7
701.514	943.6
701.703	953.84
701.892	941.55
702.08	941.55
702.269	964.08
702.457	933.36
702.646	988.66
702.834	1031.66
703.023	898.55
703.212	1015.28
703.4	951.79
703.589	947.7
703.777	953.84
703.965	841.2
704.154	902.64
704.342	968.18
704.531	947.7
704.719	949.75
704.907	1002.99
705.096	1025.52
705.284	892.4
705.472	951.79
705.661	878.07
705.849	959.99
706.037	962.03
706.226	839.16
706.414	824.82
706.602	953.84
706.79	906.74
706.979	841.2
707.167	908.79
707.355	976.37
707.543	939.51
707.731	996.85
707.919	865.78
708.107	884.21
708.296	910.83
708.484	904.69
708.672	849.4
708.86	896.5
709.048	933.36
709.236	867.83
709.424	923.12
709.612	904.69
709.8	945.65
709.988	775.67
710.176	896.5
710.364	900.59
710.551	968.18
710.739	878.07
710.927	921.07
711.115	908.79
711.303	900.59
711.491	945.65
711.679	845.3
711.866	849.4
712.054	964.08
712.242	894.45
712.43	916.98
712.617	843.25
712.805	902.64
712.993	878.07
713.181	863.73
713.368	824.82
713.556	871.92
713.744	843.25
713.931	912.88
714.119	841.2
714.306	808.44
714.494	857.59
714.682	810.48
714.869	806.39
715.057	914.93
715.244	888.31
715.432	818.68
715.619	882.16
715.807	806.39
715.994	839.16
716.182	904.69
716.369	869.87
716.556	871.92
716.744	892.4
716.931	867.83
717.119	812.53
717.306	884.21
717.493	833.01
717.681	720.37
717.868	896.5
718.055	833.01
718.242	857.59
718.43	781.81
718.617	865.78
718.804	882.16
718.991	785.91
719.179	828.92
719.366	808.44
719.553	747
719.74	796.15
719.927	785.91
720.114	851.44
720.301	839.16
720.488	841.2
720.676	712.18
720.863	777.72
721.05	849.4
721.237	851.44
721.424	835.06
721.611	802.29
721.798	847.35
721.985	783.86
722.172	777.72
722.358	833.01
722.545	792.05
722.732	880.11
722.919	853.49
723.106	775.67
723.293	796.15
723.48	763.38
723.667	785.91
723.853	814.58
724.04	765.43
724.227	818.68
724.414	753.14
724.6	820.72
724.787	726.52
724.974	710.13
725.161	785.91
725.347	859.63
725.534	728.56
725.72	794.1
725.907	798.2
726.094	749.04
726.28	693.75
726.467	812.53
726.653	839.16
726.84	835.06
727.027	769.52
727.213	783.86
727.4	742.9
727.586	777.72
727.773	718.33
727.959	785.91
728.145	818.68
728.332	851.44
728.518	765.43
728.705	873.97
728.891	732.66
729.077	835.06
729.264	816.63
729.45	794.1
729.636	914.93
729.823	839.16
730.009	841.2
730.195	783.86
730.382	792.05
730.568	808.44
730.754	689.65
730.94	851.44
731.126	812.53
731.313	871.92
731.499	757.24
731.685	886.26
731.871	816.63
732.057	777.72
732.243	867.83
732.429	808.44
732.615	859.63
732.801	857.59
732.987	763.38
733.173	808.44
733.359	755.19
733.545	759.28
733.731	890.35
733.917	759.28
734.103	802.29
734.289	740.85
734.475	751.09
734.661	865.78
734.847	720.37
735.033	753.14
735.219	773.62
735.404	851.44
735.59	744.95
735.776	742.9
735.962	814.58
736.148	763.38
736.333	781.81
736.519	761.33
736.705	810.48
736.89	771.57
737.076	759.28
737.262	701.94
737.447	779.76
737.633	820.72
737.819	759.28
738.004	826.87
738.19	796.15
738.375	687.61
738.561	787.96
738.747	865.78
738.932	816.63
739.118	818.68
739.303	796.15
739.489	798.2
739.674	779.76
739.859	779.76
740.045	798.2
740.23	843.25
740.416	849.4
740.601	853.49
740.786	681.46
740.972	835.06
741.157	736.76
741.342	740.85
741.528	783.86
741.713	818.68
741.898	753.14
742.084	845.3
742.269	771.57
742.454	790
742.639	773.62
742.824	794.1
743.01	816.63
743.195	828.92
743.38	800.24
743.565	892.4
743.75	693.75
743.935	716.28
744.12	749.04
744.305	761.33
744.49	703.99
744.675	755.19
744.86	722.42
745.045	710.13
745.23	652.79
745.415	665.08
745.6	648.69
745.785	728.56
745.97	722.42
746.155	716.28
746.34	761.33
746.525	749.04
746.71	753.14
746.895	693.75
747.079	644.6
747.264	708.09
747.449	728.56
747.634	656.89
747.819	687.61
748.003	753.14
748.188	736.76
748.373	622.07
748.557	695.8
748.742	646.65
748.927	665.08
749.111	628.21
749.296	673.27
749.481	685.56
749.665	665.08
749.85	617.97
750.034	691.7
750.219	577.02
750.404	656.89
750.588	599.54
750.773	601.59
750.957	572.92
751.141	613.88
751.326	570.87
751.51	620.02
751.695	562.68
751.879	624.12
752.064	687.61
752.248	611.83
752.432	658.93
752.617	536.06
752.801	564.73
752.985	581.11
753.17	611.83
753.354	607.73
753.538	648.69
753.722	564.73
753.907	581.11
754.091	491
754.275	577.02
754.459	574.97
754.643	581.11
754.828	634.36
755.012	591.35
755.196	577.02
755.38	538.1
755.564	458.23
755.748	566.78
755.932	534.01
756.116	550.39
756.3	556.54
756.484	488.95
756.668	472.57
756.852	544.25
757.036	507.38
757.22	484.86
757.404	521.72
757.588	585.21
757.772	521.72
757.956	566.78
758.14	517.62
758.323	474.62
758.507	503.29
758.691	470.52
758.875	486.9
759.059	419.32
759.242	421.37
759.426	472.57
759.61	429.56
759.794	404.99
759.977	419.32
760.161	439.8
760.345	493.05
760.528	474.62
760.712	454.14
760.895	458.23
761.079	431.61
761.263	499.19
761.446	452.09
761.63	456.19
761.813	437.75
761.997	439.8
762.18	415.23
762.364	482.81
762.547	409.08
762.731	411.13
762.914	464.38
763.098	331.26
763.281	398.84
763.464	361.98
763.648	437.75
763.831	404.99
764.015	478.71
764.198	445.95
764.381	386.55
764.564	404.99
764.748	316.92
764.931	474.62
765.114	474.62
765.297	382.46
765.481	415.23
765.664	423.42
765.847	415.23
766.03	361.98
766.213	447.99
766.397	390.65
766.58	407.03
766.763	464.38
766.946	431.61
767.129	384.51
767.312	374.27
767.495	353.79
767.678	370.17
767.861	400.89
768.044	327.16
768.227	431.61
768.41	380.41
768.593	386.55
768.776	394.75
768.959	431.61
769.142	349.69
769.324	304.64
769.507	394.75
769.69	318.97
769.873	359.93
770.056	341.5
770.239	300.54
770.421	359.93
770.604	323.07
770.787	341.5
770.97	376.31
771.152	359.93
771.335	378.36
771.518	376.31
771.7	333.31
771.883	394.75
772.066	318.97
772.248	304.64
772.431	261.63
772.613	345.59
772.796	325.12
772.978	280.06
773.161	347.64
773.343	294.4
773.526	280.06
773.708	318.97
773.891	331.26
774.073	278.01
774.256	292.35
774.438	306.68
774.621	327.16
774.803	386.55
774.985	368.12
775.168	351.74
775.35	261.63
775.532	345.59
775.715	366.07
775.897	327.16
776.079	284.16
776.261	318.97
776.444	298.49
776.626	275.96
776.808	312.83
776.99	243.2
777.173	228.86
777.355	269.82
777.537	265.72
777.719	241.15
777.901	185.85
778.083	308.73
778.265	275.96
778.447	296.44
778.629	235
778.811	318.97
778.993	241.15
779.175	278.01
779.357	263.68
779.539	249.34
779.721	222.72
779.903	237.05
780.085	284.16
780.267	239.1
780.449	306.68
780.631	177.66
780.812	249.34
780.994	228.86
781.176	206.33
781.358	245.24
781.54	251.39
781.721	290.3
781.903	237.05
782.085	235
782.267	165.37
782.448	253.44
782.63	202.24
782.812	265.72
782.993	187.9
783.175	265.72
783.357	204.28
783.538	202.24
783.72	198.14
783.901	146.94
784.083	142.85
784.264	239.1
784.446	116.22
784.627	210.43
784.809	171.52
784.99	175.61
785.172	165.37
785.353	155.13
785.535	175.61
785.716	232.96
785.897	155.13
786.079	165.37
786.26	255.48
786.441	185.85
786.623	175.61
786.804	155.13
786.985	220.67
787.167	259.58
787.348	77.31
787.529	187.9
787.71	136.7
787.891	222.72
788.073	157.18
788.254	142.85
788.435	126.46
788.616	138.75
788.797	216.57
788.978	167.42
789.159	99.84
789.34	136.7
789.522	69.12
789.703	118.27
789.884	226.81
790.065	185.85
790.246	171.52
790.427	159.23
790.607	136.7
790.788	136.7
790.969	163.33
791.15	97.79
791.331	146.94
791.512	130.56
791.693	101.89
791.874	146.94
792.054	202.24
792.235	155.13
792.416	196.09
792.597	116.22
792.778	101.89
792.958	77.31
793.139	146.94
793.32	144.89
793.5	73.21
793.681	32.26
793.862	146.94
794.042	124.41
794.223	153.09
794.404	112.13
794.584	136.7
794.765	128.51
794.945	79.36
795.126	177.66
795.306	153.09
795.487	87.55
795.667	110.08
795.848	87.55
796.028	116.22
796.209	89.6
796.389	173.57
796.57	67.07
796.75	85.5
796.93	120.32
797.111	112.13
797.291	62.98
797.471	118.27
797.652	136.7
797.832	91.65
798.012	140.8
798.192	95.74
798.373	67.07
798.553	140.8
798.733	148.99
798.913	71.17
799.093	83.45
799.274	69.12
799.454	144.89
799.634	101.89
799.814	108.03
799.994	93.69
800.174	112.13
800.354	71.17
800.534	24.06
800.714	165.37
800.894	146.94
801.074	128.51
801.254	87.55
801.434	83.45
801.614	146.94
801.794	50.69
801.974	263.68
802.154	134.65
802.334	103.93
802.514	17.92
802.693	95.74
802.873	93.69
803.053	126.46
803.233	93.69
803.413	148.99
803.592	56.83
803.772	95.74
803.952	85.5
804.131	144.89
804.311	101.89
804.491	126.46
804.67	75.26
804.85	89.6
805.03	13.82
805.209	155.13
805.389	30.21
805.568	30.21
805.748	81.41
805.928	15.87
806.107	73.21
806.287	-23.04
806.466	62.98
806.646	93.69
806.825	58.88
807.004	34.3
807.184	48.64
807.363	48.64
807.543	83.45
807.722	52.74
807.901	38.4
808.081	48.64
808.26	38.4
808.439	54.78
808.619	22.02
808.798	132.61
808.977	22.02
809.156	132.61
809.336	38.4
809.515	124.41
809.694	77.31
809.873	89.6
810.052	-8.7
810.231	126.46
810.411	71.17
810.59	79.36
810.769	87.55
810.948	83.45
811.127	-31.23
811.306	19.97
811.485	105.98
811.664	93.69
811.843	30.21
812.022	52.74
812.201	17.92
812.38	105.98
812.559	62.98
812.737	11.78
812.916	22.02
813.095	93.69
813.274	22.02
813.453	28.16
813.632	34.3
813.811	146.94
813.989	1.54
814.168	22.02
814.347	11.78
814.526	69.12
814.704	95.74
814.883	108.03
815.062	48.64
815.24	50.69
815.419	-35.33
815.598	-29.18
815.776	11.78
815.955	83.45
816.133	-51.71
816.312	56.83
816.49	26.11
816.669	81.41
816.847	40.45
817.026	71.17
817.204	13.82
817.383	-8.7
817.561	56.83
817.74	79.36
817.918	77.31
818.097	-25.09
818.275	77.31
818.453	32.26
818.632	71.17
818.81	17.92
818.988	62.98
819.167	52.74
819.345	122.37
819.523	101.89
819.701	32.26
819.879	22.02
820.058	99.84
820.236	-10.75
820.414	24.06
820.592	22.02
820.77	73.21
820.948	36.35
821.127	-23.04
821.305	9.73
821.483	79.36
821.661	5.63
821.839	17.92
822.017	28.16
822.195	32.26
822.373	7.68
822.551	95.74
822.729	-23.04
822.907	67.07
823.085	112.13
823.262	-2.56
823.44	15.87
823.618	-37.38
823.796	54.78
823.974	-18.94
824.152	89.6
824.329	-27.14
824.507	40.45
824.685	124.41
824.863	65.02
825.04	32.26
825.218	22.02
825.396	32.26
825.574	32.26
825.751	56.83
825.929	91.65
826.107	42.5
826.284	24.06
826.462	3.58
826.639	19.97
826.817	30.21
826.994	11.78
827.172	24.06
827.349	36.35
827.527	17.92
827.704	65.02
827.882	50.69
828.059	40.45
828.237	71.17
828.414	-33.28
828.591	38.4
828.769	-29.18
828.946	-12.8
829.124	-39.42
829.301	7.68
829.478	-12.8
829.655	-23.04
829.833	11.78
830.01	19.97
830.187	-0.51
830.364	54.78
830.542	9.73
830.719	-66.05
830.896	56.83
831.073	-14.85
831.25	101.89
831.427	-33.28
831.604	-12.8
831.782	-2.56
831.959	50.69
832.136	52.74
832.313	-27.14
832.49	69.12
832.667	9.73
832.844	-2.56
833.021	46.59
833.198	-6.66
833.374	-16.9
833.551	30.21
833.728	-20.99
833.905	-8.7
834.082	54.78
834.259	13.82
834.436	83.45
834.612	-6.66
834.789	105.98
834.966	-57.86
835.143	32.26
835.319	40.45
835.496	89.6
835.673	-2.56
835.85	58.88
836.026	1.54
836.203	42.5
836.38	-20.99
836.556	69.12
836.733	-37.38
836.909	54.78
837.086	-29.18
837.262	54.78
837.439	62.98
837.616	13.82
837.792	-10.75
837.968	24.06
838.145	-6.66
838.321	-35.33
838.498	9.73
838.674	-49.66
838.851	-35.33
839.027	-18.94
839.203	-68.09
839.38	13.82
839.556	-39.42
839.732	26.11
839.909	-39.42
840.085	-18.94
840.261	38.4
840.437	26.11
840.614	-31.23
840.79	11.78
840.966	71.17
841.142	22.02
841.318	11.78
841.494	5.63
841.671	67.07
841.847	22.02
842.023	-16.9
842.199	-12.8
842.375	-10.75
842.551	-6.66
842.727	9.73
842.903	81.41
843.079	24.06
843.255	-10.75
843.431	3.58
843.607	32.26
843.783	17.92
843.959	-2.56
844.134	48.64
844.31	1.54
844.486	-20.99
844.662	-6.66
844.838	50.69
845.013	17.92
845.189	-2.56
845.365	15.87
845.541	17.92
845.716	85.5
845.892	-25.09
846.068	5.63
846.244	-8.7
846.419	85.5
846.595	5.63
846.77	-0.51
846.946	28.16
847.122	28.16
847.297	19.97
847.473	-10.75
847.648	54.78
847.824	32.26
847.999	9.73
848.175	-10.75
848.35	5.63
848.526	9.73
848.701	19.97
848.876	79.36
849.052	54.78
849.227	-14.85
849.403	-12.8
849.578	-8.7
849.753	28.16
849.929	1.54
850.104	9.73
850.279	-27.14
850.454	-27.14
850.63	58.88
850.805	46.59
850.98	-18.94
851.155	13.82
851.33	-10.75
851.505	24.06
851.681	56.83
851.856	-68.09
852.031	58.88
852.206	30.21
852.381	26.11
852.556	54.78
852.731	26.11
852.906	-51.71
853.081	85.5
853.256	7.68
853.431	-10.75
853.606	-14.85
853.781	-35.33
853.956	-27.14
854.131	9.73
854.305	-59.9
854.48	-10.75
854.655	-76.29
854.83	69.12
855.005	-12.8
855.18	5.63
855.354	-35.33
855.529	48.64
855.704	-23.04
855.879	-0.51
856.053	-53.76
856.228	-68.09
856.403	9.73
856.577	-2.56
856.752	-53.76
856.926	-39.42
857.101	-37.38
857.276	-2.56
857.45	-27.14
857.625	-39.42
857.799	-0.51
857.974	15.87
858.148	46.59
858.323	-8.7
858.497	-51.71
858.672	-6.66
858.846	26.11
859.02	-18.94
859.195	-70.14
859.369	30.21
859.543	1.54
859.718	-10.75
859.892	7.68
860.066	19.97
860.241	15.87
860.415	-37.38
860.589	-12.8
860.763	30.21
860.938	-10.75
861.112	-45.57
861.286	-25.09
861.46	-25.09
861.634	22.02
861.808	-31.23
861.982	11.78
862.157	15.87
862.331	-35.33
862.505	-4.61
862.679	-55.81
862.853	-10.75
863.027	5.63
863.201	-0.51
863.375	-68.09
863.549	-41.47
863.722	-2.56
863.896	-27.14
864.07	46.59
864.244	-10.75
864.418	36.35
864.592	-41.47
864.766	-47.62
864.939	-43.52
865.113	-25.09
865.287	1.54
865.461	-76.29
865.634	71.17
865.808	-51.71
865.982	-14.85
866.156	-76.29
866.329	-68.09
866.503	-61.95
866.676	9.73
866.85	-10.75
867.024	13.82
867.197	-41.47
867.371	42.5
867.544	-55.81
867.718	-18.94
867.891	67.07
868.065	1.54
868.238	-59.9
868.412	38.4
868.585	38.4
868.759	30.21
868.932	-92.67
869.105	50.69
869.279	22.02
869.452	-8.7
869.625	17.92
869.799	-6.66
869.972	-82.43
870.145	79.36
870.319	17.92
870.492	-27.14
870.665	-35.33
870.838	-55.81
871.011	-33.28
871.185	-39.42
871.358	40.45
871.531	-12.8
871.704	-29.18
871.877	9.73
872.05	-66.05
872.223	-10.75
872.396	-61.95
872.569	-29.18
872.742	-37.38
872.915	-16.9
873.088	-16.9
873.261	-2.56
873.434	58.88
873.607	46.59
873.78	-18.94
873.953	7.68
874.126	-23.04
874.299	13.82
874.471	24.06
874.644	-41.47
874.817	-88.57
874.99	24.06
875.163	24.06
875.335	62.98
875.508	-8.7
875.681	17.92
875.853	-4.61
876.026	-18.94
876.199	-41.47
876.371	9.73
876.544	-43.52
876.717	34.3
876.889	-29.18
877.062	5.63
877.234	5.63
877.407	-25.09
877.579	5.63
877.752	-10.75
877.924	24.06
878.097	38.4
878.269	40.45
878.442	26.11
878.614	7.68
878.786	-6.66
878.959	-18.94
879.131	-27.14
879.303	-66.05
879.476	-18.94
879.648	-4.61
879.82	-29.18
879.993	-82.43
880.165	5.63
880.337	-33.28
880.509	17.92
880.681	-29.18
880.854	32.26
881.026	-2.56
881.198	-14.85
881.37	-29.18
881.542	15.87
881.714	3.58
881.886	-70.14
882.058	-12.8
882.23	54.78
882.402	79.36
882.574	56.83
882.746	-8.7
882.918	38.4
883.09	1.54
883.262	-12.8
883.434	-10.75
883.606	-14.85
883.778	-0.51
883.95	-49.66
884.122	-39.42
884.293	-4.61
884.465	26.11
884.637	5.63
884.809	-31.23
884.98	-39.42
885.152	40.45
885.324	28.16
885.496	-18.94
885.667	-51.71
885.839	-39.42
886.011	52.74
886.182	-0.51
886.354	56.83
886.525	3.58
886.697	60.93
886.869	-47.62
887.04	7.68
887.212	-29.18
887.383	-64
887.555	-23.04
887.726	9.73
887.897	-29.18
888.069	-74.24
888.24	1.54
888.412	-43.52
888.583	48.64
888.754	-12.8
888.926	1.54
889.097	-16.9
889.268	26.11
889.44	-59.9
889.611	34.3
889.782	24.06
889.953	-18.94
890.125	-25.09
890.296	-43.52
890.467	-45.57
890.638	-20.99
890.809	-4.61
890.98	-66.05
891.151	22.02
891.323	3.58
891.494	-16.9
891.665	5.63
891.836	-8.7
892.007	-29.18
892.178	-68.09
892.349	-61.95
892.52	-27.14
892.691	71.17
892.862	36.35
893.032	-14.85
893.203	-39.42
893.374	-14.85
893.545	11.78
893.716	-41.47
893.887	7.68
894.057	-41.47
894.228	-59.9
894.399	-8.7
894.57	-2.56
894.74	-39.42
894.911	38.4
895.082	-31.23
895.253	22.02
895.423	5.63
895.594	32.26
895.764	40.45
895.935	5.63
896.106	42.5
896.276	-33.28
896.447	32.26
896.617	-29.18
896.788	-37.38
896.958	-12.8
897.129	34.3
897.299	-23.04
897.47	-27.14
897.64	-49.66
897.81	32.26
897.981	-51.71
898.151	-72.19
898.322	28.16
898.492	-55.81
898.662	-10.75
898.832	-64
899.003	-6.66
899.173	-23.04
899.343	-57.86
899.513	-47.62
