Data from USB4F104151__81__12-54-47-028.txt Node

Date: Fri Mar 14 12:54:47 EDT 2025
User: louis
Spectrometer: USB4F10415
Trigger mode: 4
Integration Time (sec): 1.000000E-2
Scans to average: 1
Electric dark correction enabled: true
Nonlinearity correction enabled: false
Boxcar width: 0
XAxis mode: Wavelengths
Number of Pixels in Spectrum: 3648
>>>>>Begin Spectral Data<<<<<
178.204	-53.08
178.424	-53.08
178.644	-53.08
178.864	-126.8
179.084	14.51
179.304	-1.88
179.524	-69.46
179.744	2.22
179.964	45.23
180.184	-20.31
180.404	-53.08
180.624	-42.84
180.844	10.41
181.064	4.27
181.283	47.27
181.503	73.9
181.723	4.27
181.943	-46.93
182.163	65.71
182.383	-8.02
182.602	-36.69
182.822	45.23
183.042	-32.6
183.262	-8.02
183.482	-79.7
183.701	2.22
183.921	-34.64
184.141	51.37
184.361	-8.02
184.58	-5.97
184.8	-3.93
185.02	-40.79
185.239	-34.64
185.459	59.56
185.679	6.31
185.898	-22.36
186.118	6.31
186.338	10.41
186.557	-10.07
186.777	-30.55
186.997	32.94
187.216	65.71
187.436	26.79
187.655	-16.21
187.875	75.95
188.095	14.51
188.314	0.17
188.534	-3.93
188.753	43.18
188.973	45.23
189.192	57.51
189.412	-16.21
189.631	10.41
189.851	-34.64
190.07	16.55
190.29	-48.98
190.509	2.22
190.729	0.17
190.948	45.23
191.168	100.52
191.387	16.55
191.607	-18.26
191.826	-16.21
192.045	32.94
192.265	63.66
192.484	-1.88
192.704	28.84
192.923	41.13
193.142	110.76
193.362	-26.45
193.581	-18.26
193.8	-59.22
194.02	63.66
194.239	18.6
194.458	26.79
194.678	-48.98
194.897	-26.45
195.116	-32.6
195.335	49.32
195.555	-36.69
195.774	69.8
195.993	-26.45
196.212	-5.97
196.432	-24.4
196.651	-22.36
196.87	14.51
197.089	16.55
197.308	86.19
197.528	-26.45
197.747	-20.31
197.966	2.22
198.185	16.55
198.404	-16.21
198.623	24.75
198.842	-44.88
199.062	4.27
199.281	16.55
199.5	-10.07
199.719	-8.02
199.938	-18.26
200.157	47.27
200.376	30.89
200.595	16.55
200.814	2.22
201.033	6.31
201.252	59.56
201.471	63.66
201.69	-83.8
201.909	-8.02
202.128	32.94
202.347	-18.26
202.566	-67.41
202.785	-22.36
203.004	47.27
203.223	0.17
203.442	57.51
203.661	-12.12
203.879	-61.27
204.098	30.89
204.317	-30.55
204.536	18.6
204.755	-26.45
204.974	-34.64
205.193	-30.55
205.411	57.51
205.63	-44.88
205.849	-87.89
206.068	-42.84
206.287	-34.64
206.505	-48.98
206.724	-20.31
206.943	22.7
207.162	4.27
207.381	18.6
207.599	-51.03
207.818	-30.55
208.037	34.99
208.255	-16.21
208.474	-24.4
208.693	-73.56
208.911	22.7
209.13	-12.12
209.349	-20.31
209.567	-24.4
209.786	2.22
210.005	12.46
210.223	59.56
210.442	-24.4
210.661	-20.31
210.879	37.03
211.098	-40.79
211.316	-1.88
211.535	18.6
211.753	4.27
211.972	30.89
212.191	20.65
212.409	-24.4
212.628	0.17
212.846	10.41
213.065	28.84
213.283	-24.4
213.502	-30.55
213.72	6.31
213.938	-44.88
214.157	2.22
214.375	32.94
214.594	-8.02
214.812	-38.74
215.031	47.27
215.249	-20.31
215.467	20.65
215.686	20.65
215.904	30.89
216.122	8.36
216.341	16.55
216.559	67.75
216.778	73.9
216.996	-36.69
217.214	-10.07
217.432	6.31
217.651	28.84
217.869	0.17
218.087	14.51
218.306	34.99
218.524	14.51
218.742	-1.88
218.96	63.66
219.179	-79.7
219.397	8.36
219.615	4.27
219.833	61.61
220.051	16.55
220.27	10.41
220.488	-57.17
220.706	-8.02
220.924	-46.93
221.142	2.22
221.36	-28.5
221.578	16.55
221.796	0.17
222.015	59.56
222.233	45.23
222.451	47.27
222.669	16.55
222.887	-1.88
223.105	0.17
223.323	-26.45
223.541	14.51
223.759	2.22
223.977	24.75
224.195	30.89
224.413	-18.26
224.631	-1.88
224.849	24.75
225.067	34.99
225.285	2.22
225.503	30.89
225.721	57.51
225.939	-53.08
226.157	14.51
226.375	37.03
226.592	8.36
226.81	14.51
227.028	32.94
227.246	41.13
227.464	-26.45
227.682	90.28
227.9	45.23
228.117	12.46
228.335	2.22
228.553	-40.79
228.771	24.75
228.989	43.18
229.206	67.75
229.424	-3.93
229.642	41.13
229.86	-34.64
230.077	59.56
230.295	41.13
230.513	-1.88
230.731	-8.02
230.948	-30.55
231.166	-8.02
231.384	4.27
231.601	14.51
231.819	24.75
232.037	-18.26
232.254	-1.88
232.472	-18.26
232.689	-26.45
232.907	-36.69
233.125	-32.6
233.342	-26.45
233.56	55.47
233.777	-30.55
233.995	8.36
234.213	-1.88
234.43	24.75
234.648	-18.26
234.865	-38.74
235.083	45.23
235.3	14.51
235.518	6.31
235.735	30.89
235.953	6.31
236.17	-44.88
236.388	-16.21
236.605	-46.93
236.822	80.04
237.04	34.99
237.257	51.37
237.475	41.13
237.692	-18.26
237.909	-1.88
238.127	59.56
238.344	82.09
238.562	12.46
238.779	-36.69
238.996	-30.55
239.214	-10.07
239.431	67.75
239.648	-30.55
239.865	8.36
240.083	-32.6
240.3	-16.21
240.517	43.18
240.735	-22.36
240.952	-12.12
241.169	14.51
241.386	-22.36
241.603	26.79
241.821	-12.12
242.038	-8.02
242.255	-22.36
242.472	-30.55
242.689	32.94
242.907	30.89
243.124	-16.21
243.341	47.27
243.558	-30.55
243.775	8.36
243.992	-40.79
244.209	-65.36
244.426	71.85
244.643	-1.88
244.86	2.22
245.078	-28.5
245.295	39.08
245.512	14.51
245.729	-22.36
245.946	65.71
246.163	20.65
246.38	37.03
246.597	26.79
246.814	34.99
247.031	53.42
247.248	112.81
247.464	16.55
247.681	2.22
247.898	32.94
248.115	53.42
248.332	8.36
248.549	41.13
248.766	90.28
248.983	75.95
249.2	-40.79
249.417	-26.45
249.633	-3.93
249.85	8.36
250.067	-24.4
250.284	28.84
250.501	53.42
250.717	-42.84
250.934	65.71
251.151	34.99
251.368	-16.21
251.585	63.66
251.801	-12.12
252.018	-32.6
252.235	34.99
252.451	30.89
252.668	10.41
252.885	39.08
253.102	-30.55
253.318	16.55
253.535	14.51
253.752	28.84
253.968	45.23
254.185	14.51
254.401	43.18
254.618	-8.02
254.835	-5.97
255.051	51.37
255.268	-59.22
255.484	47.27
255.701	37.03
255.917	37.03
256.134	2.22
256.351	8.36
256.567	20.65
256.784	59.56
257	-34.64
257.217	8.36
257.433	90.28
257.65	24.75
257.866	-22.36
258.082	-22.36
258.299	14.51
258.515	10.41
258.732	57.51
258.948	-46.93
259.165	-16.21
259.381	32.94
259.597	73.9
259.814	86.19
260.03	-1.88
260.246	-16.21
260.463	49.32
260.679	-12.12
260.895	-5.97
261.112	-20.31
261.328	22.7
261.544	8.36
261.761	-55.12
261.977	12.46
262.193	-3.93
262.409	30.89
262.626	4.27
262.842	-3.93
263.058	-55.12
263.274	65.71
263.49	-8.02
263.707	-1.88
263.923	2.22
264.139	16.55
264.355	-10.07
264.571	18.6
264.787	8.36
265.004	-24.4
265.22	-3.93
265.436	-8.02
265.652	-48.98
265.868	-8.02
266.084	-10.07
266.3	-12.12
266.516	-1.88
266.732	-10.07
266.948	-87.89
267.164	-14.17
267.38	47.27
267.596	-24.4
267.812	39.08
268.028	-20.31
268.244	-36.69
268.46	26.79
268.676	53.42
268.892	16.55
269.108	-16.21
269.324	49.32
269.54	2.22
269.756	-18.26
269.972	2.22
270.188	30.89
270.403	-22.36
270.619	12.46
270.835	-53.08
271.051	51.37
271.267	-1.88
271.483	-20.31
271.698	30.89
271.914	39.08
272.13	-22.36
272.346	65.71
272.562	-69.46
272.777	4.27
272.993	-14.17
273.209	-30.55
273.425	28.84
273.64	67.75
273.856	-48.98
274.072	-40.79
274.287	-8.02
274.503	-16.21
274.719	57.51
274.934	45.23
275.15	-5.97
275.366	-26.45
275.581	-51.03
275.797	2.22
276.012	-24.4
276.228	-14.17
276.444	0.17
276.659	49.32
276.875	-59.22
277.09	55.47
277.306	-44.88
277.521	30.89
277.737	0.17
277.952	-5.97
278.168	-38.74
278.383	-30.55
278.599	-24.4
278.814	18.6
279.03	16.55
279.245	22.7
279.461	22.7
279.676	69.8
279.892	41.13
280.107	8.36
280.322	37.03
280.538	-42.84
280.753	8.36
280.969	22.7
281.184	0.17
281.399	-1.88
281.615	32.94
281.83	-55.12
282.045	-30.55
282.26	-24.4
282.476	-10.07
282.691	47.27
282.906	8.36
283.122	-5.97
283.337	16.55
283.552	6.31
283.767	16.55
283.983	30.89
284.198	22.7
284.413	80.04
284.628	-46.93
284.843	-18.26
285.058	8.36
285.274	41.13
285.489	-44.88
285.704	47.27
285.919	30.89
286.134	-26.45
286.349	26.79
286.564	34.99
286.779	16.55
286.995	22.7
287.21	-8.02
287.425	32.94
287.64	-51.03
287.855	0.17
288.07	37.03
288.285	-8.02
288.5	10.41
288.715	-24.4
288.93	18.6
289.145	32.94
289.36	63.66
289.575	47.27
289.79	43.18
290.004	43.18
290.219	12.46
290.434	-20.31
290.649	49.32
290.864	-16.21
291.079	-16.21
291.294	59.56
291.509	14.51
291.724	-20.31
291.938	-30.55
292.153	34.99
292.368	24.75
292.583	41.13
292.798	-16.21
293.012	28.84
293.227	18.6
293.442	12.46
293.657	12.46
293.871	24.75
294.086	6.31
294.301	-44.88
294.516	-12.12
294.73	10.41
294.945	-44.88
295.16	-16.21
295.374	43.18
295.589	-55.12
295.804	14.51
296.018	-1.88
296.233	34.99
296.447	2.22
296.662	6.31
296.877	30.89
297.091	-32.6
297.306	-32.6
297.52	16.55
297.735	51.37
297.949	-36.69
298.164	14.51
298.378	-71.51
298.593	28.84
298.807	-46.93
299.022	-10.07
299.236	24.75
299.451	51.37
299.665	6.31
299.88	6.31
300.094	6.31
300.309	18.6
300.523	8.36
300.737	24.75
300.952	26.79
301.166	6.31
301.381	39.08
301.595	92.33
301.809	43.18
302.024	14.51
302.238	2.22
302.452	18.6
302.667	-38.74
302.881	10.41
303.095	-20.31
303.309	-16.21
303.524	6.31
303.738	12.46
303.952	16.55
304.166	18.6
304.381	8.36
304.595	96.43
304.809	-42.84
305.023	14.51
305.237	34.99
305.452	-34.64
305.666	32.94
305.88	24.75
306.094	39.08
306.308	-36.69
306.522	-3.93
306.736	16.55
306.95	-10.07
307.164	24.75
307.379	32.94
307.593	12.46
307.807	18.6
308.021	37.03
308.235	92.33
308.449	-51.03
308.663	-34.64
308.877	-16.21
309.091	18.6
309.305	22.7
309.519	-30.55
309.733	-14.17
309.947	-59.22
310.161	51.37
310.374	-18.26
310.588	-5.97
310.802	18.6
311.016	47.27
311.23	-12.12
311.444	28.84
311.658	-16.21
311.872	12.46
312.085	73.9
312.299	-16.21
312.513	12.46
312.727	-46.93
312.941	-8.02
313.154	6.31
313.368	4.27
313.582	47.27
313.796	32.94
314.009	-36.69
314.223	-12.12
314.437	22.7
314.651	4.27
314.864	14.51
315.078	-16.21
315.292	30.89
315.505	-36.69
315.719	18.6
315.933	37.03
316.146	18.6
316.36	-16.21
316.573	-28.5
316.787	-18.26
317.001	118.95
317.214	-20.31
317.428	20.65
317.641	-28.5
317.855	14.51
318.068	-77.65
318.282	10.41
318.495	92.33
318.709	-42.84
318.922	12.46
319.136	22.7
319.349	30.89
319.563	32.94
319.776	47.27
319.99	-28.5
320.203	20.65
320.417	26.79
320.63	-40.79
320.843	14.51
321.057	53.42
321.27	10.41
321.483	14.51
321.697	-40.79
321.91	57.51
322.124	24.75
322.337	6.31
322.55	-94.04
322.763	-14.17
322.977	-20.31
323.19	-16.21
323.403	26.79
323.617	41.13
323.83	30.89
324.043	47.27
324.256	39.08
324.469	-28.5
324.683	-65.36
324.896	28.84
325.109	26.79
325.322	0.17
325.535	53.42
325.748	24.75
325.962	20.65
326.175	34.99
326.388	-3.93
326.601	-42.84
326.814	41.13
327.027	14.51
327.24	82.09
327.453	12.46
327.666	57.51
327.879	47.27
328.092	20.65
328.305	-77.65
328.518	-57.17
328.731	14.51
328.944	8.36
329.157	-5.97
329.37	12.46
329.583	88.23
329.796	6.31
330.009	65.71
330.222	65.71
330.435	16.55
330.648	2.22
330.861	-26.45
331.073	-1.88
331.286	57.51
331.499	30.89
331.712	-61.27
331.925	-10.07
332.138	37.03
332.35	8.36
332.563	-30.55
332.776	14.51
332.989	-30.55
333.202	39.08
333.414	22.7
333.627	39.08
333.84	51.37
334.053	8.36
334.265	-18.26
334.478	75.95
334.691	67.75
334.903	-28.5
335.116	-94.04
335.329	0.17
335.541	2.22
335.754	59.56
335.966	32.94
336.179	47.27
336.392	-51.03
336.604	-3.93
336.817	24.75
337.029	41.13
337.242	55.47
337.454	-18.26
337.667	20.65
337.88	55.47
338.092	30.89
338.305	-10.07
338.517	-26.45
338.729	18.6
338.942	22.7
339.154	69.8
339.367	-36.69
339.579	45.23
339.792	0.17
340.004	39.08
340.217	6.31
340.429	14.51
340.641	37.03
340.854	39.08
341.066	-18.26
341.278	-1.88
341.491	26.79
341.703	51.37
341.915	-48.98
342.128	32.94
342.34	-8.02
342.552	53.42
342.764	-28.5
342.977	16.55
343.189	16.55
343.401	-44.88
343.613	14.51
343.826	12.46
344.038	-28.5
344.25	41.13
344.462	55.47
344.674	65.71
344.886	8.36
345.099	20.65
345.311	16.55
345.523	0.17
345.735	-10.07
345.947	-3.93
346.159	12.46
346.371	-69.46
346.583	43.18
346.795	-18.26
347.007	-38.74
347.219	4.27
347.431	41.13
347.643	6.31
347.855	-5.97
348.067	55.47
348.279	6.31
348.491	-16.21
348.703	26.79
348.915	26.79
349.127	-12.12
349.339	14.51
349.551	14.51
349.763	-24.4
349.975	88.23
350.187	-67.41
350.399	12.46
350.61	57.51
350.822	43.18
351.034	-10.07
351.246	18.6
351.458	32.94
351.669	37.03
351.881	49.32
352.093	-12.12
352.305	6.31
352.517	59.56
352.728	-18.26
352.94	24.75
353.152	41.13
353.363	28.84
353.575	-38.74
353.787	41.13
353.999	-18.26
354.21	26.79
354.422	30.89
354.633	16.55
354.845	92.33
355.057	30.89
355.268	-16.21
355.48	20.65
355.692	-40.79
355.903	43.18
356.115	-67.41
356.326	-1.88
356.538	43.18
356.749	80.04
356.961	28.84
357.172	39.08
357.384	18.6
357.595	-24.4
357.807	-59.22
358.018	-22.36
358.23	18.6
358.441	14.51
358.653	49.32
358.864	10.41
359.075	-1.88
359.287	20.65
359.498	24.75
359.709	-8.02
359.921	-102.23
360.132	65.71
360.344	59.56
360.555	71.85
360.766	57.51
360.977	69.8
361.189	32.94
361.4	-96.08
361.611	-18.26
361.823	47.27
362.034	14.51
362.245	-67.41
362.456	-96.08
362.667	10.41
362.879	49.32
363.09	51.37
363.301	22.7
363.512	-63.32
363.723	-42.84
363.935	8.36
364.146	-36.69
364.357	73.9
364.568	-24.4
364.779	-26.45
364.99	-55.12
365.201	24.75
365.412	12.46
365.623	28.84
365.834	22.7
366.045	45.23
366.256	37.03
366.467	14.51
366.678	30.89
366.889	-5.97
367.1	-30.55
367.311	-73.56
367.522	80.04
367.733	-36.69
367.944	10.41
368.155	-12.12
368.366	-18.26
368.577	75.95
368.788	4.27
368.999	-42.84
369.209	-32.6
369.42	45.23
369.631	34.99
369.842	73.9
370.053	41.13
370.264	-34.64
370.474	6.31
370.685	-38.74
370.896	67.75
371.107	-1.88
371.317	-14.17
371.528	45.23
371.739	-12.12
371.95	75.95
372.16	6.31
372.371	-5.97
372.582	104.62
372.792	22.7
373.003	-26.45
373.214	26.79
373.424	14.51
373.635	24.75
373.846	108.71
374.056	75.95
374.267	4.27
374.477	39.08
374.688	-1.88
374.898	-5.97
375.109	6.31
375.319	-12.12
375.53	53.42
375.74	12.46
375.951	61.61
376.161	-3.93
376.372	67.75
376.582	-65.36
376.793	28.84
377.003	-48.98
377.214	104.62
377.424	63.66
377.635	-59.22
377.845	-32.6
378.055	-34.64
378.266	39.08
378.476	-34.64
378.686	16.55
378.897	49.32
379.107	-26.45
379.317	69.8
379.528	-28.5
379.738	26.79
379.948	-32.6
380.158	-16.21
380.369	16.55
380.579	26.79
380.789	-18.26
380.999	-12.12
381.21	47.27
381.42	0.17
381.63	16.55
381.84	10.41
382.05	34.99
382.261	10.41
382.471	-26.45
382.681	-8.02
382.891	-18.26
383.101	37.03
383.311	75.95
383.521	22.7
383.731	8.36
383.941	90.28
384.151	4.27
384.361	0.17
384.571	-40.79
384.781	63.66
384.991	16.55
385.201	34.99
385.411	6.31
385.621	8.36
385.831	16.55
386.041	4.27
386.251	-44.88
386.461	41.13
386.671	63.66
386.881	-42.84
387.091	10.41
387.301	82.09
387.511	37.03
387.72	41.13
387.93	0.17
388.14	-55.12
388.35	32.94
388.56	51.37
388.769	28.84
388.979	61.61
389.189	39.08
389.399	34.99
389.609	92.33
389.818	18.6
390.028	26.79
390.238	59.56
390.447	16.55
390.657	4.27
390.867	24.75
391.076	-8.02
391.286	0.17
391.496	-26.45
391.705	22.7
391.915	-32.6
392.125	45.23
392.334	16.55
392.544	92.33
392.753	18.6
392.963	-63.32
393.172	45.23
393.382	53.42
393.591	53.42
393.801	51.37
394.01	43.18
394.22	39.08
394.429	55.47
394.639	14.51
394.848	26.79
395.058	-59.22
395.267	22.7
395.477	37.03
395.686	55.47
395.895	18.6
396.105	94.38
396.314	57.51
396.524	41.13
396.733	18.6
396.942	16.55
397.152	-18.26
397.361	65.71
397.57	4.27
397.78	-20.31
397.989	65.71
398.198	98.47
398.407	43.18
398.617	22.7
398.826	-18.26
399.035	41.13
399.244	39.08
399.453	108.71
399.663	55.47
399.872	49.32
400.081	104.62
400.29	90.28
400.499	-26.45
400.708	102.57
400.917	2.22
401.127	63.66
401.336	30.89
401.545	133.29
401.754	0.17
401.963	94.38
402.172	0.17
402.381	47.27
402.59	-32.6
402.799	80.04
403.008	-16.21
403.217	69.8
403.426	-30.55
403.635	65.71
403.844	12.46
404.053	28.84
404.262	86.19
404.471	28.84
404.68	49.32
404.888	-14.17
405.097	75.95
405.306	75.95
405.515	75.95
405.724	-22.36
405.933	57.51
406.142	51.37
406.35	14.51
406.559	65.71
406.768	86.19
406.977	121
407.185	112.81
407.394	88.23
407.603	108.71
407.812	92.33
408.02	73.9
408.229	86.19
408.438	112.81
408.646	143.53
408.855	116.9
409.064	125.1
409.272	24.75
409.481	202.92
409.69	125.1
409.898	137.38
410.107	65.71
410.315	143.53
410.524	143.53
410.733	137.38
410.941	69.8
411.15	86.19
411.358	157.86
411.567	243.88
411.775	159.91
411.984	133.29
412.192	131.24
412.401	241.83
412.609	198.82
412.818	174.25
413.026	241.83
413.234	182.44
413.443	254.12
413.651	166.06
413.86	286.89
414.068	254.12
414.276	239.78
414.485	221.35
414.693	264.36
414.901	276.65
415.11	282.79
415.318	305.32
415.526	311.46
415.734	309.41
415.943	278.69
416.151	348.33
416.359	338.09
416.567	327.85
416.776	403.62
416.984	426.15
417.192	501.92
417.4	475.3
417.608	460.96
417.817	420
418.025	465.06
418.233	506.02
418.441	465.06
418.649	499.88
418.857	536.74
419.065	559.27
419.273	637.09
419.481	651.42
419.689	655.52
419.897	669.86
420.105	651.42
420.313	706.72
420.521	667.81
420.729	604.32
420.937	759.97
421.145	766.11
421.353	796.83
421.561	866.46
421.769	903.32
421.977	878.75
422.185	817.31
422.393	915.61
422.601	995.48
422.809	989.34
423.017	958.62
423.224	1050.78
423.432	1118.36
423.64	1132.7
423.848	1136.79
424.056	1233.05
424.263	1282.2
424.471	1245.34
424.679	1263.77
424.887	1396.89
425.094	1362.07
425.302	1355.93
425.51	1575.06
425.718	1456.28
425.925	1509.52
426.133	1609.87
426.341	1630.35
426.548	1769.62
426.756	1747.09
426.964	1630.35
427.171	1802.38
427.379	1960.08
427.586	1898.64
427.794	1974.41
428.001	2031.76
428.209	2201.74
428.417	2056.33
428.624	2201.74
428.832	2220.17
429.039	2349.19
429.247	2254.98
429.454	2515.08
429.662	2615.43
429.869	2390.15
430.076	2689.15
430.284	2459.78
430.491	2726.02
430.699	2859.14
430.906	2834.56
431.114	2928.77
431.321	3045.5
431.528	3111.04
431.736	3256.44
431.943	3358.84
432.15	3231.87
432.358	3334.26
432.565	3455.09
432.772	3547.25
432.979	3653.75
433.187	3874.93
433.394	3942.51
433.601	4063.34
433.808	4051.05
434.016	4096.11
434.223	4112.49
434.43	4380.78
434.637	4499.56
434.844	4655.2
435.052	4687.97
435.259	4722.79
435.466	4649.06
435.673	4591.72
435.88	5013.6
436.087	5326.94
436.294	5271.64
436.501	5183.58
436.708	5263.45
436.915	5541.97
437.122	5558.36
437.329	5636.18
437.537	5867.6
437.743	5920.85
437.95	5793.87
438.157	6180.94
438.364	6299.72
438.571	6469.7
438.778	6471.75
438.985	6965.31
439.192	6813.76
439.399	6955.07
439.606	6807.62
439.813	7295.04
440.02	7725.11
440.227	7555.13
440.433	7297.08
440.64	7827.51
440.847	7753.78
441.054	7925.81
441.261	8345.64
441.467	8099.89
441.674	8429.61
441.881	8589.35
442.088	8755.24
442.294	8736.81
442.501	9003.04
442.708	9025.57
442.914	9443.35
443.121	9801.75
443.328	9545.75
443.534	10231.82
443.741	9850.9
443.948	9750.55
444.154	10514.44
444.361	10401.8
444.568	10528.78
444.774	10563.59
444.981	10745.86
445.187	10960.9
445.394	11421.69
445.6	11393.02
445.807	12476.4
446.013	11737.08
446.22	12091.38
446.426	12795.88
446.633	12668.91
446.839	13223.9
447.046	12673
447.252	13318.11
447.459	13330.4
447.665	13311.97
447.871	13959.13
448.078	14702.54
448.284	13854.68
448.491	14206.93
448.697	14819.27
448.903	15114.18
449.11	15028.17
449.316	14878.66
449.522	15083.46
449.728	15491.01
449.935	15497.15
450.141	15720.38
450.347	15890.36
450.553	15351.74
450.76	15779.77
450.966	16197.56
451.172	15998.9
451.378	16523.18
451.584	16041.91
451.791	16531.37
451.997	16488.37
452.203	16940.97
452.409	16844.71
452.615	16418.74
452.821	16222.13
453.027	15941.56
453.233	16689.07
453.44	16019.38
453.646	16275.38
453.852	16330.67
454.058	16938.92
454.264	16418.74
454.47	16555.95
454.676	15986.61
454.882	16664.49
455.088	15378.37
455.294	15513.53
455.5	15501.25
455.705	15589.31
455.911	15192
456.117	14911.43
456.323	14655.44
456.529	13842.39
456.735	14471.12
456.941	14116.82
457.147	13764.57
457.352	13424.61
457.558	13391.84
457.764	13316.06
457.97	13129.7
458.176	13121.51
458.381	12718.06
458.587	12138.48
458.793	12253.17
458.999	11806.71
459.204	12427.25
459.41	12017.65
459.616	11175.94
459.821	11026.43
460.027	11102.21
460.233	10825.73
460.438	10543.11
460.644	10563.59
460.85	10041.36
461.055	9992.21
461.261	9801.75
461.466	9168.93
461.672	8957.99
461.878	9650.2
462.083	8874.02
462.289	8695.85
462.494	8673.32
462.7	8294.44
462.905	7886.9
463.111	8347.69
463.316	8241.2
463.522	8067.12
463.727	8298.54
463.932	8296.49
464.138	8151.09
464.343	8083.5
464.549	7778.36
464.754	8171.57
464.959	8118.32
465.165	7913.52
465.37	7700.53
465.575	7565.37
465.781	7772.21
465.986	7852.08
466.191	7555.13
466.397	7460.92
466.602	7247.93
466.807	7483.45
467.012	7219.26
467.218	7262.27
467.423	7161.92
467.628	7075.9
467.833	7499.83
468.038	7206.97
468.244	7075.9
468.449	7174.21
468.654	7141.44
468.859	7096.38
469.064	7102.53
469.269	6817.86
469.474	6854.72
469.679	6809.67
469.885	6754.37
470.09	6897.73
470.295	6750.28
470.5	6746.18
470.705	6649.93
470.91	6565.96
471.115	6535.24
471.32	6529.1
471.525	6375.5
471.73	6328.39
471.935	6398.03
472.139	6271.05
472.344	6082.64
472.549	5855.31
472.754	6127.69
472.959	5986.38
473.164	5861.46
473.369	5822.55
473.574	5957.71
473.778	5859.41
473.983	5916.75
474.188	5976.14
474.393	5568.6
474.598	5656.66
474.802	5367.9
475.007	5556.31
475.212	5406.81
475.417	5249.11
475.621	5220.44
475.826	5374.04
476.031	5185.63
476.235	5154.91
476.44	5267.55
476.645	5103.71
476.849	5195.87
477.054	4991.07
477.259	4905.06
477.463	4966.49
477.668	4806.75
477.872	5032.03
478.077	4718.69
478.282	4636.77
478.486	4589.67
478.691	4710.5
478.895	4606.05
479.1	4520.04
479.304	4644.96
479.509	4417.64
479.713	4644.96
479.918	4436.07
480.122	4362.34
480.326	4425.83
480.531	4374.63
480.735	4354.15
480.94	4274.28
481.144	4634.72
481.348	4233.32
481.553	4307.05
481.757	4212.84
481.961	4261.99
482.166	4329.58
482.37	4319.34
482.574	4186.22
482.778	4169.84
482.983	4403.3
483.187	4294.76
483.391	4429.93
483.595	4085.87
483.8	4194.41
484.004	4221.03
484.208	4331.62
484.412	4212.84
484.616	4290.67
484.821	4223.08
485.025	4206.7
485.229	4348.01
485.433	4288.62
485.637	4237.42
485.841	4147.31
486.045	4300.91
486.249	4327.53
486.453	4350.06
486.657	4223.08
486.861	4343.91
487.065	4204.65
487.269	4223.08
487.473	4204.65
487.677	4270.19
487.881	4159.6
488.085	4391.02
488.289	4300.91
488.493	4233.32
488.697	4272.23
488.901	4341.86
489.105	4391.02
489.309	4376.68
489.512	4407.4
489.716	4302.95
489.92	4272.23
490.124	4280.43
490.328	4403.3
490.531	4245.61
490.735	4307.05
490.939	4456.55
491.143	4423.78
491.346	4464.74
491.55	4524.13
491.754	4370.54
491.958	4403.3
492.161	4522.09
492.365	4575.33
492.569	4477.03
492.772	4554.85
492.976	4593.76
493.18	4659.3
493.383	4575.33
493.587	4552.81
493.79	4804.71
493.994	4610.15
494.197	4716.64
494.401	4776.03
494.605	4870.24
494.808	4724.83
495.012	4853.86
495.215	5066.85
495.419	4929.63
495.622	4802.66
495.825	5134.43
496.029	4972.64
496.232	5167.2
496.436	5197.92
496.639	5218.4
496.843	5265.5
497.046	5326.94
497.249	5386.33
497.453	5478.49
497.656	5478.49
497.859	5521.49
498.063	5650.52
498.266	5603.41
498.469	5689.43
498.673	5773.39
498.876	5779.54
499.079	5879.89
499.282	5980.24
499.485	6023.25
499.689	5943.38
499.892	6166.6
500.095	6223.95
500.298	6402.12
500.501	6182.99
500.705	6420.55
500.908	6547.53
501.111	6529.1
501.314	6604.87
501.517	6793.28
501.72	6877.25
501.923	6774.85
502.126	6801.47
502.329	7057.47
502.532	7047.23
502.735	7176.25
502.938	7241.79
503.141	7452.73
503.344	7438.39
503.547	7520.31
503.75	7649.33
503.953	7471.16
504.156	7622.71
504.359	7737.4
504.562	7970.87
504.765	8097.84
504.968	8144.94
505.17	8079.41
505.373	8343.6
505.576	8413.23
505.779	8546.34
505.982	8421.42
506.185	8769.57
506.387	8572.97
506.59	8740.9
506.793	8972.32
506.996	9066.53
507.198	9287.71
507.401	9306.14
507.604	9381.92
507.807	9439.26
508.009	9615.38
508.212	9590.81
508.415	9717.78
508.617	9928.72
508.82	9973.78
509.022	9850.9
509.225	10160.14
509.428	10256.4
509.63	10280.97
509.833	10356.75
510.035	10665.99
510.238	10631.18
510.44	10672.14
510.643	11108.35
510.845	11075.59
511.048	10891.27
511.25	11089.92
511.453	11276.29
511.655	11583.48
511.858	11497.47
512.06	11595.77
512.262	11749.37
512.465	11853.81
512.667	11837.43
512.87	12244.98
513.072	12017.65
513.274	12414.96
513.477	12421.1
513.679	12441.58
513.881	12675.05
514.084	12883.94
514.286	12859.37
514.488	12931.05
514.69	13477.85
514.893	13203.43
515.095	13275.1
515.297	13627.35
515.499	13656.03
515.701	14032.85
515.904	13877.21
516.106	13844.44
516.308	14149.59
516.51	14174.16
516.712	14475.21
516.914	14479.31
517.116	14757.83
517.318	14835.66
517.52	14835.66
517.722	14809.03
517.925	15259.59
518.127	15423.42
518.329	15298.5
518.531	15458.24
518.733	15810.49
518.935	15902.65
519.136	16005.05
519.338	16160.69
519.54	16521.13
519.742	16289.71
519.944	16496.56
520.146	17024.93
520.348	16779.18
520.55	16654.25
520.752	16918.44
520.954	17344.42
521.155	16992.17
521.357	17405.86
521.559	17504.16
521.761	17801.12
521.963	17842.07
522.164	17711
522.366	17928.09
522.568	18055.06
522.77	17985.43
522.971	18378.64
523.173	18425.75
523.375	18632.59
523.576	18642.83
523.778	18567.06
523.98	18788.24
524.181	19117.96
524.383	19087.24
524.584	19175.3
524.786	19453.83
524.988	19265.41
525.189	19292.04
525.391	19421.06
525.592	19435.39
525.794	19550.08
525.995	19634.05
526.197	19935.1
526.398	19758.97
526.6	19705.73
526.801	19967.87
527.003	20002.68
527.204	20037.5
527.406	20303.73
527.607	20207.48
527.808	20512.63
528.01	20037.5
528.211	20373.36
528.412	20778.86
528.614	20496.24
528.815	20686.7
529.016	20887.4
529.218	20389.75
529.419	20737.9
529.62	20578.16
529.822	20946.8
530.023	20655.98
530.224	20944.75
530.425	20596.59
530.626	20565.87
530.828	20578.16
531.029	21170.02
531.23	21030.76
531.431	20725.61
531.632	21167.98
531.833	21108.58
532.035	21137.26
532.236	21176.17
532.437	21223.27
532.638	21124.97
532.839	21143.4
533.04	21157.74
533.241	21253.99
533.442	21780.32
533.643	21378.92
533.844	21401.44
534.045	21368.68
534.246	21358.44
534.447	21389.16
534.648	21303.14
534.849	21077.87
535.05	21327.72
535.251	21466.98
535.451	20959.08
535.652	21571.43
535.853	21278.57
536.054	21456.74
536.255	21372.77
536.456	21084.01
536.657	21464.93
536.857	21090.15
537.058	21133.16
537.259	21559.14
537.46	21307.24
537.66	21139.3
537.861	21284.71
538.062	21200.74
538.263	21550.95
538.463	21419.88
538.664	21153.64
538.865	21370.72
539.065	21340.01
539.266	21358.44
539.466	21348.2
539.667	20985.71
539.868	21217.13
540.068	21313.38
540.269	21354.34
540.469	21135.21
540.67	21139.3
540.87	21297
541.071	21208.94
541.271	21444.45
541.472	21167.98
541.672	21116.78
541.873	21106.54
542.073	20838.25
542.274	21370.72
542.474	21485.41
542.675	20946.8
542.875	21225.32
543.075	21233.51
543.276	20856.68
543.476	21256.04
543.676	21315.43
543.877	21342.05
544.077	21036.91
544.277	20852.59
544.478	21266.28
544.678	21139.3
544.878	21100.39
545.078	21081.96
545.279	20932.46
545.479	20868.97
545.679	21010.28
545.879	20852.59
546.079	21006.19
546.28	20825.96
546.48	20983.66
546.68	21129.06
546.88	21301.09
547.08	21141.35
547.28	21167.98
547.48	21010.28
547.68	20995.95
547.88	21036.91
548.081	21016.43
548.281	20801.39
548.481	20977.51
548.681	21079.91
548.881	20862.83
549.081	20774.77
549.28	20797.29
549.48	20873.07
549.68	21077.87
549.88	21278.57
550.08	20948.84
550.28	20615.02
550.48	20926.32
550.68	21196.65
550.88	20844.4
551.08	20817.77
551.279	20895.6
551.479	20723.57
551.679	20735.85
551.879	20508.53
552.079	20864.88
552.278	20660.08
552.478	20565.87
552.678	20674.42
552.878	21053.29
553.077	20920.17
553.277	20725.61
553.477	20954.99
553.676	20875.12
553.876	20954.99
554.076	20387.7
554.275	20760.43
554.475	20797.29
554.674	20825.96
554.874	20985.71
555.074	20594.54
555.273	20531.06
555.473	20737.9
555.672	20522.87
555.872	20459.38
556.071	20758.38
556.271	20371.32
556.47	20606.83
556.67	20375.41
556.869	20535.15
557.068	20660.08
557.268	20406.13
557.467	20438.9
557.667	20422.52
557.866	20375.41
558.065	20500.34
558.265	20318.07
558.464	20346.74
558.663	20572.02
558.863	19916.67
559.062	20524.91
559.261	20266.87
559.461	20543.35
559.66	20019.07
559.859	20375.41
560.058	20254.58
560.258	20141.94
560.457	19892.09
560.656	20158.33
560.855	20230.01
561.054	20068.22
561.253	19916.67
561.453	19998.59
561.652	19867.52
561.851	19959.67
562.05	19748.73
562.249	19597.18
562.448	20254.58
562.647	19978.11
562.846	19957.63
563.045	20019.07
563.244	19623.81
563.443	19931
563.642	19601.28
563.841	19775.36
564.04	19718.01
564.239	19824.51
564.438	19310.47
564.637	19548.03
564.836	19564.42
565.035	19255.17
565.234	19472.26
565.432	19500.93
565.631	19191.69
565.83	19326.85
566.029	19021.7
566.228	19324.8
566.427	19167.11
566.625	19085.19
566.824	19027.85
567.023	19056.52
567.222	18917.26
567.42	19074.95
567.619	18972.55
567.818	19103.62
568.016	19203.97
568.215	19087.24
568.414	18966.41
568.612	18950.03
568.811	18845.58
569.01	18986.89
569.208	18941.83
569.407	18782.09
569.605	18900.87
569.804	19005.32
570.002	18732.94
570.201	18751.37
570.4	18329.49
570.598	18327.44
570.797	18505.62
570.995	18466.7
571.193	18392.98
571.392	18667.41
571.59	18225.04
571.789	18290.58
571.987	18403.22
572.186	18241.43
572.384	18280.34
572.582	18261.91
572.781	18487.18
572.979	18018.2
573.177	17989.53
573.376	18122.65
573.574	18053.02
573.772	18034.58
573.971	17680.28
574.169	17815.45
574.367	17917.85
574.565	17772.44
574.763	17981.34
574.962	17725.34
575.16	17567.65
575.358	17428.38
575.556	17495.97
575.754	17674.14
575.952	17387.43
576.151	17409.95
576.349	17285.03
576.547	17262.5
576.745	17244.07
576.943	17088.42
577.141	17260.45
577.339	16922.54
577.537	17270.69
577.735	17090.47
577.933	17113
578.131	16879.53
578.329	16832.43
578.527	16838.57
578.725	16736.17
578.923	16809.9
579.121	16850.86
579.319	16709.55
579.516	16707.5
579.714	16881.58
579.912	16588.72
580.11	16465.84
580.308	16416.69
580.506	16576.43
580.704	16111.54
580.901	16465.84
581.099	16379.82
581.297	16406.45
581.495	16250.8
581.692	16134.07
581.89	16197.56
582.088	16359.35
582.285	15812.54
582.483	16099.25
582.681	16142.26
582.878	15847.35
583.076	15931.32
583.274	16146.36
583.471	15966.14
583.669	15857.59
583.866	15632.32
584.064	16011.19
584.262	15552.45
584.459	15867.83
584.657	15663.04
584.854	15884.22
585.052	15220.67
585.249	15458.24
585.447	15503.29
585.644	15300.55
585.841	15656.89
586.039	15740.86
586.236	15404.99
586.434	15282.11
586.631	15380.42
586.828	15245.25
587.026	14995.4
587.223	15167.43
587.42	15175.62
587.618	14987.21
587.815	14976.97
588.012	14778.31
588.21	14743.5
588.407	15003.59
588.604	14786.51
588.801	14770.12
588.999	14763.98
589.196	14782.41
589.393	14856.14
589.59	14608.33
589.787	14391.25
589.984	14483.41
590.182	14589.9
590.379	14426.06
590.576	14493.65
590.773	14331.86
590.97	14383.06
591.167	14354.38
591.364	14231.51
591.561	14376.91
591.758	14057.43
591.955	14196.69
592.152	14245.84
592.349	14094.29
592.546	14034.9
592.743	14208.98
592.94	13883.35
593.137	13987.8
593.334	13957.08
593.531	13490.14
593.727	13742.04
593.924	13766.62
594.121	13555.68
594.318	13844.44
594.515	13613.02
594.712	13907.93
594.908	13572.06
595.105	13588.44
595.302	13377.5
595.499	13656.03
595.696	13184.99
595.892	13275.1
596.089	13490.14
596.286	13281.25
596.482	13019.11
596.679	13471.71
596.876	13316.06
597.072	13041.64
597.269	13256.67
597.466	13160.42
597.662	13064.16
597.859	12845.03
598.055	12986.34
598.252	12916.71
598.448	12670.95
598.645	12744.68
598.841	12763.11
599.038	12750.82
599.234	12906.47
599.431	12517.36
599.627	12767.21
599.824	12734.44
600.02	12609.51
600.217	12658.67
600.413	12537.84
600.609	12521.45
600.806	11986.93
601.002	12429.29
601.198	12431.34
601.395	12083.19
601.591	12492.78
601.787	12251.12
601.984	12283.89
602.18	12267.5
602.376	12062.71
602.572	12025.84
602.769	12011.51
602.965	12023.8
603.161	11892.73
603.357	12169.2
603.553	11931.64
603.75	11892.73
603.946	11685.88
604.142	11884.53
604.338	11608.06
604.534	11716.6
604.73	11509.76
604.926	11702.26
605.122	11802.61
605.318	11741.18
605.514	11524.09
605.71	11440.12
605.906	11436.03
606.102	11464.7
606.298	11603.96
606.494	11278.33
606.69	11642.87
606.886	11304.96
607.082	11223.04
607.278	11186.18
607.474	11235.33
607.67	11491.32
607.866	11186.18
608.062	11139.07
608.257	10952.71
608.453	11309.05
608.649	11245.57
608.845	11237.38
609.041	10928.13
609.236	10979.33
609.432	10887.17
609.628	10915.84
609.824	11044.87
610.019	10704.9
610.215	10782.73
610.411	10924.04
610.606	10870.79
610.802	10729.48
610.998	10817.54
611.193	10706.95
611.389	10717.19
611.584	10678.28
611.78	10596.36
611.976	10733.57
612.171	10479.63
612.367	10541.07
612.562	10553.35
612.758	10453
612.953	10414.09
613.149	10604.55
613.344	10616.84
613.539	10620.94
613.735	10645.51
613.93	10594.31
614.126	10524.68
614.321	10352.65
614.517	10395.66
614.712	10426.38
614.907	10197.01
615.103	10373.13
615.298	10067.99
615.493	10379.28
615.688	10102.8
615.884	10401.8
616.079	10113.04
616.274	10098.7
616.47	10059.79
616.665	10084.37
616.86	10084.37
617.055	10016.79
617.25	10076.18
617.445	10166.29
617.641	9887.76
617.836	9928.72
618.031	9838.61
618.226	9885.72
618.421	9781.27
618.616	9646.1
618.811	9633.82
619.006	9814.04
619.201	9613.34
619.396	9789.46
619.591	9539.61
619.786	9797.65
619.981	9451.55
620.176	9721.88
620.371	9304.09
620.566	9527.32
620.761	9281.57
620.956	9535.51
621.151	9205.79
621.346	9259.04
621.541	9162.78
621.735	9250.85
621.93	9132.06
622.125	9213.98
622.32	9060.38
622.515	8902.69
622.709	9033.76
622.904	8943.65
623.099	8812.58
623.294	8955.94
623.488	8824.87
623.683	8742.95
623.878	8560.68
624.072	8710.18
624.267	8654.89
624.462	8728.61
624.656	8550.44
624.851	8405.03
625.046	8282.16
625.24	8525.86
625.435	8390.7
625.629	8409.13
625.824	8222.77
626.018	8314.92
626.213	8079.41
626.407	8185.9
626.602	7958.58
626.796	8085.55
626.991	8052.78
627.185	7845.94
627.38	7985.2
627.574	7784.5
627.768	7862.32
627.963	7772.21
628.157	7745.59
628.352	7751.73
628.546	7473.21
628.74	7577.66
628.935	7649.33
629.129	7497.78
629.323	7469.11
629.517	7575.61
629.712	7487.54
629.906	7340.09
630.1	7233.6
630.294	7397.43
630.489	7288.89
630.683	7288.89
630.877	7094.33
631.071	7135.29
631.265	7034.94
631.459	7028.8
631.653	7077.95
631.848	6934.59
632.042	7143.49
632.236	6963.26
632.43	6903.87
632.624	6860.87
632.818	6826.05
633.012	6852.67
633.206	6625.35
633.4	6629.45
633.594	6598.73
633.788	6711.36
633.982	6649.93
634.176	6549.57
634.369	6715.46
634.563	6561.86
634.757	6434.89
634.951	6436.94
635.145	6469.7
635.339	6381.64
635.533	6559.81
635.726	6142.03
635.92	6363.21
636.114	6266.96
636.308	6064.21
636.501	6365.26
636.695	6232.14
636.889	6240.33
637.083	6158.41
637.276	5931.09
637.47	6045.77
637.664	6127.69
637.857	6099.02
638.051	5953.62
638.244	6033.49
638.438	6101.07
638.632	5830.74
638.825	5890.13
639.019	5832.79
639.212	5589.08
639.406	5814.35
639.599	5806.16
639.793	5781.59
639.986	5617.75
640.18	5613.65
640.373	5654.61
640.567	5648.47
640.76	5539.93
640.954	5425.24
641.147	5398.62
641.34	5343.32
641.534	5427.29
641.727	5396.57
641.92	5408.86
642.114	5316.7
642.307	5224.54
642.5	5087.33
642.694	5163.1
642.887	5097.56
643.08	5181.53
643.273	5242.97
643.467	5165.15
643.66	5122.14
643.853	4966.49
644.046	5046.37
644.239	5042.27
644.432	4952.16
644.626	4937.82
644.819	4970.59
645.012	4849.76
645.205	4909.15
645.398	4681.83
645.591	4698.21
645.784	4673.64
645.977	4741.22
646.17	4710.5
646.363	4741.22
646.556	4624.48
646.749	4804.71
646.942	4667.49
647.135	4618.34
647.328	4606.05
647.521	4577.38
647.714	4489.32
647.907	4309.1
648.099	4481.13
648.292	4524.13
648.485	4388.97
648.678	4337.77
648.871	4325.48
649.064	4431.98
649.256	4345.96
649.449	4479.08
649.642	4206.7
649.835	4259.95
650.027	4227.18
650.22	4094.06
650.413	4143.21
650.605	4147.31
650.798	4186.22
650.991	4137.07
651.183	4069.48
651.376	4036.72
651.568	4077.68
651.761	3928.17
651.954	4034.67
652.146	3919.98
652.339	3913.84
652.531	3840.11
652.724	3913.84
652.916	3737.71
653.109	3870.83
653.301	3848.3
653.494	3899.5
653.686	3733.62
653.879	3793.01
654.071	3782.77
654.263	3752.05
654.456	3799.15
654.648	3661.94
654.84	3657.84
655.033	3876.98
655.225	3627.12
655.417	3459.19
655.61	3692.66
655.802	3582.07
655.994	3586.16
656.186	3465.33
656.379	3641.46
656.571	3494.01
656.763	3494.01
656.955	3510.39
657.148	3561.59
657.34	3434.61
657.532	3344.5
657.724	3539.06
657.916	3401.85
658.108	3303.54
658.3	3364.98
658.492	3418.23
658.684	3258.49
658.876	3205.24
659.068	3262.58
659.26	3233.91
659.452	3311.74
659.644	3125.37
659.836	3205.24
660.028	3188.86
660.22	3223.67
660.412	3018.88
660.604	3012.73
660.796	3102.84
660.988	3039.36
661.18	2998.4
661.372	2941.05
661.563	2920.57
661.755	3033.21
661.947	3014.78
662.139	2926.72
662.331	2834.56
662.522	3014.78
662.714	2852.99
662.906	2818.18
663.097	2799.74
663.289	2695.3
663.481	2889.85
663.673	2740.35
663.864	2779.26
664.056	2785.41
664.247	2590.85
664.439	2730.11
664.631	2656.39
664.822	2758.78
665.014	2713.73
665.205	2740.35
665.397	2603.14
665.588	2656.39
665.78	2650.24
665.971	2529.41
666.163	2689.15
666.354	2629.76
666.546	2633.86
666.737	2523.27
666.929	2609.28
667.12	2527.36
667.311	2603.14
667.503	2488.45
667.694	2496.64
667.885	2488.45
668.077	2496.64
668.268	2404.49
668.459	2334.86
668.651	2400.39
668.842	2357.38
669.033	2396.29
669.224	2414.73
669.416	2289.8
669.607	2312.33
669.798	2336.9
669.989	2316.42
670.18	2275.46
670.371	2406.53
670.563	2283.66
670.754	2343.05
670.945	2353.29
671.136	2357.38
671.327	2269.32
671.518	2242.7
671.709	2240.65
671.9	2146.44
672.091	2193.55
672.282	2121.87
672.473	2242.7
672.664	2175.11
672.855	2203.79
673.046	2160.78
673.237	2242.7
673.428	2113.67
673.619	2171.02
673.809	2179.21
674	2097.29
674.191	2074.76
674.382	2033.8
674.573	2058.38
674.764	2052.24
674.954	2128.01
675.145	1996.94
675.336	2054.28
675.527	2117.77
675.717	2046.09
675.908	2076.81
676.099	2070.67
676.289	2060.43
676.48	2015.37
676.671	2082.95
676.861	2037.9
677.052	1953.93
677.243	1984.65
677.433	2033.8
677.624	1998.99
677.814	1962.12
678.005	2109.58
678.195	2029.71
678.386	1931.41
678.576	2009.23
678.767	2011.28
678.957	1998.99
679.148	2013.32
679.338	1912.97
679.529	1966.22
679.719	1968.27
679.909	1919.12
680.1	1874.06
680.29	1886.35
680.481	1833.1
680.671	1935.5
680.861	1960.08
681.052	1882.25
681.242	1986.7
681.432	1845.39
681.622	1937.55
681.813	1880.21
682.003	1855.63
682.193	1861.77
682.383	1931.41
682.573	1843.34
682.764	1927.31
682.954	1886.35
683.144	1792.14
683.334	1841.29
683.524	1890.45
683.714	1853.58
683.904	1882.25
684.094	1849.49
684.284	1812.62
684.474	1933.45
684.664	1810.58
684.854	1745.04
685.044	1824.91
685.234	1826.96
685.424	1779.86
685.614	1859.73
685.804	1826.96
685.994	1816.72
686.184	1874.06
686.374	1775.76
686.564	1720.46
686.753	1892.49
686.943	1831.05
687.133	1734.8
687.323	1740.94
687.513	1763.47
687.702	1812.62
687.892	1773.71
688.082	1751.18
688.272	1783.95
688.461	1687.7
688.651	1792.14
688.841	1656.98
689.03	1732.75
689.22	1691.79
689.41	1646.74
689.599	1654.93
689.789	1689.74
689.979	1691.79
690.168	1837.2
690.358	1642.64
690.547	1652.88
690.737	1609.87
690.926	1697.94
691.116	1564.82
691.305	1734.8
691.495	1640.59
691.684	1581.2
691.874	1669.27
692.063	1689.74
692.252	1710.22
692.442	1628.31
692.631	1628.31
692.82	1685.65
693.01	1570.96
693.199	1644.69
693.388	1605.78
693.578	1538.2
693.767	1546.39
693.956	1515.67
694.146	1564.82
694.335	1509.52
694.524	1552.53
694.713	1607.83
694.902	1515.67
695.092	1527.96
695.281	1583.25
695.47	1562.77
695.659	1487
695.848	1523.86
696.037	1546.39
696.226	1454.23
696.415	1458.32
696.604	1452.18
696.793	1464.47
696.982	1566.87
697.171	1495.19
697.36	1525.91
697.549	1507.48
697.738	1513.62
697.927	1429.65
698.116	1499.28
698.305	1484.95
698.494	1570.96
698.683	1523.86
698.872	1376.41
699.061	1482.9
699.25	1472.66
699.438	1421.46
699.627	1413.27
699.816	1460.37
700.005	1407.13
700.193	1345.69
700.382	1407.13
700.571	1417.37
700.76	1366.17
700.948	1386.65
701.137	1423.51
701.326	1419.41
701.514	1489.04
701.703	1409.17
701.892	1378.45
702.08	1413.27
702.269	1360.02
702.457	1349.78
702.646	1417.37
702.834	1374.36
703.023	1319.06
703.212	1368.21
703.4	1466.52
703.589	1292.44
703.777	1357.97
703.965	1310.87
704.154	1388.69
704.342	1372.31
704.531	1304.73
704.719	1396.89
704.907	1384.6
705.096	1390.74
705.284	1349.78
705.472	1407.13
705.661	1323.16
705.849	1335.45
706.037	1388.69
706.226	1233.05
706.414	1196.18
706.602	1243.29
706.79	1282.2
706.979	1233.05
707.167	1241.24
707.355	1276.06
707.543	1206.42
707.731	1312.92
707.919	1335.45
708.107	1370.26
708.296	1233.05
708.484	1269.91
708.672	1253.53
708.86	1257.62
709.048	1192.09
709.236	1310.87
709.424	1300.63
709.612	1294.49
709.8	1257.62
709.988	1196.18
710.176	1218.71
710.364	1308.82
710.551	1241.24
710.739	1161.37
710.927	1290.39
711.115	1185.94
711.303	1204.38
711.491	1257.62
711.679	1360.02
711.866	1222.81
712.054	1185.94
712.242	1226.9
712.43	1177.75
712.617	1161.37
712.805	1142.94
712.993	1308.82
713.181	1235.1
713.368	1163.42
713.556	1196.18
713.744	1206.42
713.931	1073.31
714.119	1144.99
714.306	1091.74
714.494	1187.99
714.682	1220.76
714.869	1276.06
715.057	1204.38
715.244	1122.46
715.432	1095.83
715.619	1179.8
715.807	1167.51
715.994	1312.92
716.182	1083.55
716.369	1177.75
716.556	1185.94
716.744	1267.86
716.931	1155.23
717.119	1091.74
717.306	1157.27
717.493	1106.07
717.681	1192.09
717.868	1065.11
718.055	1163.42
718.242	1071.26
718.43	1091.74
718.617	1118.36
718.804	1087.64
718.991	1192.09
719.179	1108.12
719.366	1104.03
719.553	1177.75
719.74	1138.84
719.927	1153.18
720.114	1120.41
720.301	1110.17
720.488	1065.11
720.676	1124.51
720.863	1030.3
721.05	1073.31
721.237	1175.7
721.424	1061.02
721.611	1022.11
721.798	1044.63
721.985	1089.69
722.172	1038.49
722.358	1116.31
722.545	1101.98
722.732	962.72
722.919	1202.33
723.106	1165.46
723.293	1204.38
723.48	999.58
723.667	1018.01
723.853	1005.72
724.04	1087.64
724.227	1005.72
724.414	1050.78
724.6	1091.74
724.787	1056.92
724.974	1083.55
725.161	954.52
725.347	1042.59
725.534	1122.46
725.72	1015.96
725.907	1003.68
726.094	1130.65
726.28	936.09
726.467	1050.78
726.653	1085.59
726.84	1138.84
727.027	1106.07
727.213	989.34
727.4	1003.68
727.586	1128.6
727.773	1032.35
727.959	1056.92
728.145	1018.01
728.332	1079.45
728.518	1067.16
728.705	1073.31
728.891	1042.59
729.077	1046.68
729.264	966.81
729.45	1009.82
729.636	1095.83
729.823	1065.11
730.009	1030.3
730.195	1050.78
730.382	1034.39
730.568	1009.82
730.754	1013.92
730.94	1020.06
731.126	1005.72
731.313	999.58
731.499	968.86
731.685	1093.79
731.871	999.58
732.057	964.76
732.243	1034.39
732.429	1108.12
732.615	1034.39
732.801	925.85
732.987	977.05
733.173	1058.97
733.359	989.34
733.545	1026.2
733.731	997.53
733.917	991.39
734.103	995.48
734.289	972.96
734.475	1028.25
734.661	1003.68
734.847	954.52
735.033	1005.72
735.219	1022.11
735.404	1013.92
735.59	1046.68
735.776	895.13
735.962	983.2
736.148	1032.35
736.333	997.53
736.519	970.91
736.705	1069.21
736.89	1024.16
737.076	958.62
737.262	932
737.447	991.39
737.633	1030.3
737.819	966.81
738.004	964.76
738.19	1011.87
738.375	1040.54
738.561	1018.01
738.747	958.62
738.932	915.61
739.118	907.42
739.303	878.75
739.489	1071.26
739.674	966.81
739.859	1013.92
740.045	999.58
740.23	964.76
740.416	1020.06
740.601	909.47
740.786	991.39
740.972	915.61
741.157	960.67
741.342	968.86
741.528	1009.82
741.713	868.51
741.898	962.72
742.084	946.33
742.269	989.34
742.454	895.13
742.639	878.75
742.824	987.29
743.01	927.9
743.195	948.38
743.38	888.99
743.565	905.37
743.75	878.75
743.935	923.8
744.12	934.04
744.305	878.75
744.49	964.76
744.675	825.5
744.86	909.47
745.045	929.95
745.23	845.98
745.415	989.34
745.6	850.08
745.785	880.8
745.97	888.99
746.155	907.42
746.34	815.26
746.525	923.8
746.71	800.93
746.895	895.13
747.079	891.04
747.264	807.07
747.449	862.37
747.634	837.79
747.819	905.37
748.003	905.37
748.188	880.8
748.373	809.12
748.557	884.89
748.742	827.55
748.927	837.79
749.111	864.41
749.296	805.02
749.481	874.65
749.665	815.26
749.85	770.21
750.034	762.02
750.219	792.73
750.404	825.5
750.588	766.11
750.773	770.21
750.957	712.86
751.141	725.15
751.326	676
751.51	743.58
751.695	770.21
751.879	821.41
752.064	759.97
752.248	747.68
752.432	706.72
752.617	764.06
752.801	680.1
752.985	659.62
753.17	657.57
753.354	723.1
753.538	757.92
753.722	671.9
753.907	663.71
754.091	641.18
754.275	676
754.459	632.99
754.643	747.68
754.828	731.3
755.012	667.81
755.196	698.53
755.38	678.05
755.564	667.81
755.748	643.23
755.932	608.42
756.116	628.9
756.3	624.8
756.484	581.79
756.668	645.28
756.852	608.42
757.036	616.61
757.22	544.93
757.404	534.69
757.588	585.89
757.772	592.03
757.956	612.51
758.14	555.17
758.323	600.23
758.507	641.18
758.691	549.03
758.875	575.65
759.059	618.66
759.242	512.16
759.426	501.92
759.61	561.31
759.794	585.89
759.977	639.14
760.161	678.05
760.345	571.55
760.528	520.35
760.712	645.28
760.895	479.4
761.079	585.89
761.263	489.64
761.446	475.3
761.63	469.16
761.813	567.46
761.997	463.01
762.18	520.35
762.364	594.08
762.547	497.83
762.731	506.02
762.914	538.79
763.098	495.78
763.281	432.29
763.464	575.65
763.648	532.64
763.831	557.22
764.015	481.44
764.198	540.83
764.381	436.39
764.564	471.2
764.748	499.88
764.931	491.68
765.114	438.44
765.297	460.96
765.481	473.25
765.664	481.44
765.847	467.11
766.03	506.02
766.213	522.4
766.397	407.72
766.58	467.11
766.763	360.61
766.946	506.02
767.129	510.11
767.312	448.68
767.495	469.16
767.678	465.06
767.861	503.97
768.044	444.58
768.227	483.49
768.41	458.92
768.593	477.35
768.776	430.24
768.959	426.15
769.142	319.65
769.324	489.64
769.507	465.06
769.69	448.68
769.873	426.15
770.056	530.59
770.239	475.3
770.421	467.11
770.604	389.28
770.787	403.62
770.97	364.71
771.152	393.38
771.335	383.14
771.518	452.77
771.7	420
771.883	426.15
772.066	370.85
772.248	393.38
772.431	483.49
772.613	440.48
772.796	360.61
772.978	358.57
773.161	413.86
773.343	403.62
773.526	377
773.708	450.72
773.891	348.33
774.073	458.92
774.256	407.72
774.438	428.2
774.621	317.61
774.803	395.43
774.985	338.09
775.168	362.66
775.35	325.8
775.532	381.09
775.715	286.89
775.897	358.57
776.079	325.8
776.261	366.76
776.444	333.99
776.626	315.56
776.808	325.8
776.99	366.76
777.173	350.37
777.355	362.66
777.537	346.28
777.719	325.8
777.901	303.27
778.083	307.37
778.265	309.41
778.447	299.17
778.629	282.79
778.811	315.56
778.993	342.18
779.175	239.78
779.357	270.5
779.539	252.07
779.721	327.85
779.903	348.33
780.085	260.26
780.267	272.55
780.449	262.31
780.631	276.65
780.812	391.33
780.994	301.22
781.176	211.11
781.358	268.45
781.54	278.69
781.721	288.93
781.903	282.79
782.085	260.26
782.267	368.81
782.448	288.93
782.63	241.83
782.812	315.56
782.993	274.6
783.175	227.5
783.357	229.54
783.538	188.58
783.72	241.83
783.901	250.02
784.083	256.17
784.264	286.89
784.446	223.4
784.627	159.91
784.809	256.17
784.99	174.25
785.172	268.45
785.353	211.11
785.535	260.26
785.716	180.39
785.897	229.54
786.079	235.69
786.26	243.88
786.441	155.82
786.623	172.2
786.804	159.91
786.985	219.3
787.167	241.83
787.348	194.73
787.529	313.51
787.71	252.07
787.891	221.35
788.073	159.91
788.254	188.58
788.435	243.88
788.616	268.45
788.797	112.81
788.978	159.91
789.159	159.91
789.34	184.49
789.522	184.49
789.703	182.44
789.884	241.83
790.065	170.15
790.246	213.16
790.427	137.38
790.607	215.21
790.788	157.86
790.969	135.34
791.15	233.64
791.331	239.78
791.512	223.4
791.693	200.87
791.874	180.39
792.054	164.01
792.235	190.63
792.416	116.9
792.597	166.06
792.778	202.92
792.958	164.01
793.139	102.57
793.32	198.82
793.5	135.34
793.681	204.97
793.862	168.1
794.042	159.91
794.223	104.62
794.404	100.52
794.584	77.99
794.765	108.71
794.945	116.9
795.126	172.2
795.306	157.86
795.487	82.09
795.667	133.29
795.848	96.43
796.028	176.3
796.209	114.86
796.389	121
796.57	108.71
796.75	129.19
796.93	73.9
797.111	96.43
797.291	200.87
797.471	90.28
797.652	90.28
797.832	104.62
798.012	209.06
798.192	141.48
798.373	90.28
798.553	106.67
798.733	112.81
798.913	170.15
799.093	131.24
799.274	129.19
799.454	186.54
799.634	102.57
799.814	108.71
799.994	67.75
800.174	102.57
800.354	90.28
800.534	110.76
800.714	-8.02
800.894	135.34
801.074	45.23
801.254	155.82
801.434	116.9
801.614	118.95
801.794	125.1
801.974	364.71
802.154	96.43
802.334	106.67
802.514	112.81
802.693	110.76
802.873	176.3
803.053	102.57
803.233	88.23
803.413	102.57
803.592	139.43
803.772	30.89
803.952	129.19
804.131	26.79
804.311	106.67
804.491	151.72
804.67	157.86
804.85	161.96
805.03	170.15
805.209	55.47
805.389	102.57
805.568	102.57
805.748	139.43
805.928	106.67
806.107	100.52
806.287	192.68
806.466	65.71
806.646	98.47
806.825	116.9
807.004	149.67
807.184	59.56
807.363	123.05
807.543	69.8
807.722	67.75
807.901	102.57
808.081	96.43
808.26	34.99
808.439	137.38
808.619	47.27
808.798	104.62
808.977	100.52
809.156	51.37
809.336	133.29
809.515	39.08
809.694	143.53
809.873	135.34
810.052	49.32
810.231	100.52
810.411	88.23
810.59	65.71
810.769	145.58
810.948	104.62
811.127	49.32
811.306	114.86
811.485	123.05
811.664	176.3
811.843	114.86
812.022	100.52
812.201	104.62
812.38	22.7
812.559	69.8
812.737	123.05
812.916	28.84
813.095	75.95
813.274	67.75
813.453	73.9
813.632	55.47
813.811	71.85
813.989	121
814.168	34.99
814.347	108.71
814.526	82.09
814.704	90.28
814.883	55.47
815.062	139.43
815.24	114.86
815.419	61.61
815.598	98.47
815.776	59.56
815.955	39.08
816.133	88.23
816.312	67.75
816.49	49.32
816.669	75.95
816.847	84.14
817.026	75.95
817.204	10.41
817.383	65.71
817.561	73.9
817.74	30.89
817.918	108.71
818.097	112.81
818.275	-34.64
818.453	112.81
818.632	100.52
818.81	106.67
818.988	22.7
819.167	61.61
819.345	26.79
819.523	30.89
819.701	43.18
819.879	84.14
820.058	145.58
820.236	80.04
820.414	67.75
820.592	43.18
820.77	41.13
820.948	18.6
821.127	47.27
821.305	106.67
821.483	30.89
821.661	55.47
821.839	47.27
822.017	67.75
822.195	-32.6
822.373	110.76
822.551	39.08
822.729	121
822.907	-1.88
823.085	-3.93
823.262	73.9
823.44	55.47
823.618	90.28
823.796	75.95
823.974	-30.55
824.152	55.47
824.329	34.99
824.507	59.56
824.685	-30.55
824.863	104.62
825.04	14.51
825.218	84.14
825.396	75.95
825.574	82.09
825.751	-30.55
825.929	59.56
826.107	55.47
826.284	73.9
826.462	-22.36
826.639	34.99
826.817	-57.17
826.994	80.04
827.172	2.22
827.349	118.95
827.527	114.86
827.704	39.08
827.882	114.86
828.059	63.66
828.237	69.8
828.414	65.71
828.591	41.13
828.769	55.47
828.946	45.23
829.124	4.27
829.301	8.36
829.478	32.94
829.655	-8.02
829.833	88.23
830.01	24.75
830.187	-30.55
830.364	-18.26
830.542	34.99
830.719	-14.17
830.896	71.85
831.073	-1.88
831.25	-22.36
831.427	24.75
831.604	57.51
831.782	55.47
831.959	30.89
832.136	114.86
832.313	-55.12
832.49	22.7
832.667	28.84
832.844	59.56
833.021	51.37
833.198	59.56
833.374	75.95
833.551	75.95
833.728	34.99
833.905	4.27
834.082	-18.26
834.259	-5.97
834.436	20.65
834.612	51.37
834.789	112.81
834.966	-30.55
835.143	53.42
835.319	-24.4
835.496	34.99
835.673	-48.98
835.85	77.99
836.026	84.14
836.203	-16.21
836.38	32.94
836.556	55.47
836.733	-16.21
836.909	47.27
837.086	-3.93
837.262	49.32
837.439	28.84
837.616	30.89
837.792	0.17
837.968	-32.6
838.145	-20.31
838.321	18.6
838.498	12.46
838.674	61.61
838.851	-5.97
839.027	-40.79
839.203	18.6
839.38	69.8
839.556	14.51
839.732	24.75
839.909	-18.26
840.085	-12.12
840.261	22.7
840.437	34.99
840.614	10.41
840.79	-10.07
840.966	18.6
841.142	39.08
841.318	34.99
841.494	-1.88
841.671	-34.64
841.847	-57.17
842.023	10.41
842.199	63.66
842.375	26.79
842.551	77.99
842.727	-28.5
842.903	67.75
843.079	-20.31
843.255	-10.07
843.431	-30.55
843.607	8.36
843.783	47.27
843.959	57.51
844.134	-3.93
844.31	65.71
844.486	24.75
844.662	6.31
844.838	-36.69
845.013	16.55
845.189	45.23
845.365	57.51
845.541	49.32
845.716	37.03
845.892	4.27
846.068	12.46
846.244	8.36
846.419	82.09
846.595	6.31
846.77	2.22
846.946	34.99
847.122	37.03
847.297	-51.03
847.473	-14.17
847.648	26.79
847.824	47.27
847.999	43.18
848.175	-16.21
848.35	71.85
848.526	26.79
848.701	67.75
848.876	4.27
849.052	-22.36
849.227	24.75
849.403	-36.69
849.578	24.75
849.753	-10.07
849.929	12.46
850.104	-1.88
850.279	22.7
850.454	53.42
850.63	-8.02
850.805	71.85
850.98	0.17
851.155	6.31
851.33	45.23
851.505	6.31
851.681	88.23
851.856	18.6
852.031	47.27
852.206	63.66
852.381	-34.64
852.556	-22.36
852.731	-40.79
852.906	-32.6
853.081	-12.12
853.256	45.23
853.431	0.17
853.606	10.41
853.781	8.36
853.956	-36.69
854.131	-57.17
854.305	4.27
854.48	-3.93
854.655	16.55
854.83	-67.41
855.005	2.22
855.18	55.47
855.354	-16.21
855.529	8.36
855.704	-30.55
855.879	8.36
856.053	24.75
856.228	37.03
856.403	-26.45
856.577	-28.5
856.752	-22.36
856.926	45.23
857.101	14.51
857.276	28.84
857.45	53.42
857.625	-14.17
857.799	30.89
857.974	-65.36
858.148	-18.26
858.323	45.23
858.497	0.17
858.672	-51.03
858.846	-55.12
859.02	39.08
859.195	-16.21
859.369	30.89
859.543	22.7
859.718	-12.12
859.892	41.13
860.066	67.75
860.241	14.51
860.415	0.17
860.589	-14.17
860.763	10.41
860.938	45.23
861.112	30.89
861.286	-40.79
861.46	-18.26
861.634	-3.93
861.808	16.55
861.982	2.22
862.157	-34.64
862.331	-22.36
862.505	55.47
862.679	-38.74
862.853	-79.7
863.027	24.75
863.201	61.61
863.375	-36.69
863.549	6.31
863.722	-36.69
863.896	39.08
864.07	-18.26
864.244	-5.97
864.418	26.79
864.592	20.65
864.766	53.42
864.939	53.42
865.113	-28.5
865.287	71.85
865.461	-51.03
865.634	65.71
865.808	-46.93
865.982	90.28
866.156	-18.26
866.329	-65.36
866.503	22.7
866.676	32.94
866.85	-30.55
867.024	53.42
867.197	20.65
867.371	26.79
867.544	30.89
867.718	10.41
867.891	-36.69
868.065	55.47
868.238	39.08
868.412	73.9
868.585	43.18
868.759	-5.97
868.932	57.51
869.105	-8.02
869.279	20.65
869.452	-28.5
869.625	4.27
869.799	-1.88
869.972	4.27
870.145	49.32
870.319	34.99
870.492	-8.02
870.665	-1.88
870.838	16.55
871.011	45.23
871.185	-26.45
871.358	-67.41
871.531	8.36
871.704	0.17
871.877	-14.17
872.05	-20.31
872.223	-1.88
872.396	49.32
872.569	57.51
872.742	-22.36
872.915	39.08
873.088	-75.6
873.261	37.03
873.434	-40.79
873.607	6.31
873.78	-20.31
873.953	41.13
874.126	-67.41
874.299	4.27
874.471	8.36
874.644	2.22
874.817	-51.03
874.99	26.79
875.163	-36.69
875.335	-42.84
875.508	-14.17
875.681	71.85
875.853	-8.02
876.026	-24.4
876.199	24.75
876.371	24.75
876.544	-59.22
876.717	98.47
876.889	26.79
877.062	63.66
877.234	55.47
877.407	-24.4
877.579	-24.4
877.752	-116.56
877.924	-28.5
878.097	4.27
878.269	-36.69
878.442	2.22
878.614	-87.89
878.786	20.65
878.959	-128.85
879.131	24.75
879.303	4.27
879.476	88.23
879.648	-16.21
879.82	6.31
879.993	26.79
880.165	8.36
880.337	20.65
880.509	30.89
880.681	26.79
880.854	-8.02
881.026	-14.17
881.198	2.22
881.37	16.55
881.542	2.22
881.714	12.46
881.886	57.51
882.058	26.79
882.23	88.23
882.402	30.89
882.574	-8.02
882.746	-10.07
882.918	20.65
883.09	20.65
883.262	6.31
883.434	-18.26
883.606	-10.07
883.778	-8.02
883.95	34.99
884.122	-28.5
884.293	30.89
884.465	-71.51
884.637	-30.55
884.809	4.27
884.98	14.51
885.152	-1.88
885.324	-44.88
885.496	30.89
885.667	45.23
885.839	-139.09
886.011	37.03
886.182	8.36
886.354	24.75
886.525	34.99
886.697	-5.97
886.869	26.79
887.04	10.41
887.212	-8.02
887.383	-71.51
887.555	-1.88
887.726	-26.45
887.897	-30.55
888.069	-14.17
888.24	-55.12
888.412	22.7
888.583	-34.64
888.754	39.08
888.926	-18.26
889.097	-16.21
889.268	4.27
889.44	-26.45
889.611	-34.64
889.782	-12.12
889.953	16.55
890.125	90.28
890.296	-32.6
890.467	39.08
890.638	-65.36
890.809	-16.21
890.98	-51.03
891.151	51.37
891.323	-30.55
891.494	-46.93
891.665	-38.74
891.836	-22.36
892.007	-91.99
892.178	0.17
892.349	-24.4
892.52	-24.4
892.691	-59.22
892.862	-46.93
893.032	-79.7
893.203	-1.88
893.374	-30.55
893.545	22.7
893.716	-16.21
893.887	-38.74
894.057	18.6
894.228	30.89
894.399	22.7
894.57	57.51
894.74	22.7
894.911	-12.12
895.082	-16.21
895.253	26.79
895.423	18.6
895.594	-28.5
895.764	-48.98
895.935	-28.5
896.106	-20.31
896.276	32.94
896.447	39.08
896.617	2.22
896.788	26.79
896.958	32.94
897.129	-22.36
897.299	10.41
897.47	18.6
897.64	-1.88
897.81	26.79
897.981	-10.07
898.151	-12.12
898.322	24.75
898.492	-16.21
898.662	6.31
898.832	20.65
899.003	14.51
899.173	49.32
899.343	6.31
899.513	-8.02
