Data from USB4F104151__25__12-53-29-296.txt Node

Date: Fri Mar 14 12:53:29 EDT 2025
User: louis
Spectrometer: USB4F10415
Trigger mode: 4
Integration Time (sec): 1.000000E-2
Scans to average: 1
Electric dark correction enabled: true
Nonlinearity correction enabled: false
Boxcar width: 0
XAxis mode: Wavelengths
Number of Pixels in Spectrum: 3648
>>>>>Begin Spectral Data<<<<<
178.204	-65.19
178.424	-65.19
178.644	-65.19
178.864	-106.15
179.084	-77.48
179.304	-48.81
179.524	-18.09
179.744	-83.63
179.964	59.73
180.184	4.44
180.404	33.11
180.624	69.97
180.844	-40.62
181.064	8.53
181.283	31.06
181.503	-26.28
181.723	10.58
181.943	-61.1
182.163	-11.95
182.383	24.92
182.602	-13.99
182.822	0.34
183.042	-40.62
183.262	-38.57
183.482	-48.81
183.701	-3.75
183.921	20.82
184.141	35.16
184.361	-28.33
184.58	-54.95
184.8	-81.58
185.02	33.11
185.239	37.2
185.459	4.44
185.679	29.01
185.898	-5.8
186.118	4.44
186.338	-26.28
186.557	12.63
186.777	-24.23
186.997	24.92
187.216	-28.33
187.436	41.3
187.655	-59.05
187.875	-44.71
188.095	29.01
188.314	26.96
188.534	14.68
188.753	47.44
188.973	29.01
189.192	0.34
189.412	-40.62
189.631	33.11
189.851	57.68
190.07	-22.19
190.29	-50.86
190.509	41.3
190.729	-54.95
190.948	-7.85
191.168	59.73
191.387	6.49
191.607	2.39
191.826	-5.8
192.045	24.92
192.265	14.68
192.484	18.77
192.704	35.16
192.923	-28.33
193.142	-36.52
193.362	33.11
193.581	65.88
193.8	-38.57
194.02	8.53
194.239	2.39
194.458	-7.85
194.678	26.96
194.897	20.82
195.116	41.3
195.335	-16.04
195.555	-50.86
195.774	-24.23
195.993	6.49
196.212	-13.99
196.432	-32.43
196.651	8.53
196.87	-18.09
197.089	53.59
197.308	-24.23
197.528	-36.52
197.747	-7.85
197.966	-9.9
198.185	2.39
198.404	-28.33
198.623	-1.71
198.842	-7.85
199.062	72.02
199.281	-36.52
199.5	37.2
199.719	-18.09
199.938	20.82
200.157	47.44
200.376	-83.63
200.595	20.82
200.814	61.78
201.033	8.53
201.252	6.49
201.471	67.92
201.69	16.73
201.909	82.26
202.128	10.58
202.347	22.87
202.566	-7.85
202.785	16.73
203.004	8.53
203.223	-7.85
203.442	55.64
203.661	-42.67
203.879	2.39
204.098	-5.8
204.317	-102.06
204.536	8.53
204.755	-50.86
204.974	26.96
205.193	-63.15
205.411	24.92
205.63	29.01
205.849	33.11
206.068	16.73
206.287	26.96
206.505	-11.95
206.724	8.53
206.943	-22.19
207.162	-69.29
207.381	-50.86
207.599	-40.62
207.818	37.2
208.037	-63.15
208.255	4.44
208.474	-7.85
208.693	41.3
208.911	45.4
209.13	18.77
209.349	-30.38
209.567	16.73
209.786	39.25
210.005	-7.85
210.223	2.39
210.442	-30.38
210.661	43.35
210.879	-5.8
211.098	-1.71
211.316	24.92
211.535	-20.14
211.753	-20.14
211.972	0.34
212.191	-22.19
212.409	-11.95
212.628	-24.23
212.846	51.54
213.065	10.58
213.283	-5.8
213.502	-36.52
213.72	2.39
213.938	-32.43
214.157	-11.95
214.375	-1.71
214.594	-13.99
214.812	-7.85
215.031	-32.43
215.249	-36.52
215.467	-34.47
215.686	-5.8
215.904	24.92
216.122	16.73
216.341	8.53
216.559	-50.86
216.778	-32.43
216.996	-5.8
217.214	-3.75
217.432	37.2
217.651	0.34
217.869	-5.8
218.087	24.92
218.306	18.77
218.524	-28.33
218.742	-13.99
218.96	65.88
219.179	10.58
219.397	-26.28
219.615	-13.99
219.833	24.92
220.051	16.73
220.27	16.73
220.488	-24.23
220.706	10.58
220.924	-24.23
221.142	31.06
221.36	-18.09
221.578	-5.8
221.796	37.2
222.015	-40.62
222.233	39.25
222.451	16.73
222.669	24.92
222.887	61.78
223.105	12.63
223.323	-3.75
223.541	2.39
223.759	-1.71
223.977	-32.43
224.195	-32.43
224.413	-73.39
224.631	45.4
224.849	51.54
225.067	59.73
225.285	12.63
225.503	-22.19
225.721	-38.57
225.939	2.39
226.157	-38.57
226.375	45.4
226.592	-18.09
226.81	-18.09
227.028	37.2
227.246	18.77
227.464	-61.1
227.682	-16.04
227.9	39.25
228.117	-57
228.335	-9.9
228.553	18.77
228.771	26.96
228.989	31.06
229.206	-18.09
229.424	18.77
229.642	41.3
229.86	57.68
230.077	-16.04
230.295	26.96
230.513	55.64
230.731	-5.8
230.948	-40.62
231.166	-5.8
231.384	-65.19
231.601	-20.14
231.819	61.78
232.037	-54.95
232.254	-59.05
232.472	-30.38
232.689	-24.23
232.907	-13.99
233.125	20.82
233.342	-13.99
233.56	-57
233.777	14.68
233.995	57.68
234.213	67.92
234.43	-61.1
234.648	-22.19
234.865	-38.57
235.083	37.2
235.3	-22.19
235.518	41.3
235.735	-44.71
235.953	14.68
236.17	-7.85
236.388	-38.57
236.605	-13.99
236.822	2.39
237.04	63.83
237.257	8.53
237.475	-24.23
237.692	0.34
237.909	-3.75
238.127	26.96
238.344	-24.23
238.562	57.68
238.779	-20.14
238.996	24.92
239.214	-7.85
239.431	-20.14
239.648	0.34
239.865	-59.05
240.083	2.39
240.3	49.49
240.517	-7.85
240.735	0.34
240.952	37.2
241.169	43.35
241.386	-34.47
241.603	41.3
241.821	37.2
242.038	-30.38
242.255	59.73
242.472	-40.62
242.689	-69.29
242.907	12.63
243.124	-22.19
243.341	-9.9
243.558	14.68
243.775	22.87
243.992	53.59
244.209	-65.19
244.426	33.11
244.643	14.68
244.86	-26.28
245.078	49.49
245.295	18.77
245.512	8.53
245.729	-13.99
245.946	0.34
246.163	-71.34
246.38	-34.47
246.597	35.16
246.814	-30.38
247.031	-11.95
247.248	59.73
247.464	-34.47
247.681	8.53
247.898	-30.38
248.115	-11.95
248.332	-63.15
248.549	-26.28
248.766	51.54
248.983	-13.99
249.2	-11.95
249.417	45.4
249.633	39.25
249.85	78.16
250.067	12.63
250.284	33.11
250.501	24.92
250.717	-16.04
250.934	-57
251.151	20.82
251.368	-67.24
251.585	14.68
251.801	-18.09
252.018	-7.85
252.235	10.58
252.451	0.34
252.668	37.2
252.885	-20.14
253.102	37.2
253.318	-46.76
253.535	51.54
253.752	8.53
253.968	2.39
254.185	0.34
254.401	39.25
254.618	14.68
254.835	8.53
255.051	-61.1
255.268	10.58
255.484	-83.63
255.701	14.68
255.917	47.44
256.134	-48.81
256.351	0.34
256.567	12.63
256.784	-16.04
257	-28.33
257.217	47.44
257.433	2.39
257.65	82.26
257.866	10.58
258.082	76.12
258.299	4.44
258.515	43.35
258.732	-46.76
258.948	18.77
259.165	53.59
259.381	-69.29
259.597	6.49
259.814	72.02
260.03	49.49
260.246	98.64
260.463	51.54
260.679	-79.53
260.895	-13.99
261.112	-77.48
261.328	-13.99
261.544	-57
261.761	94.55
261.977	-24.23
262.193	-69.29
262.409	53.59
262.626	-32.43
262.842	90.45
263.058	6.49
263.274	-11.95
263.49	-13.99
263.707	61.78
263.923	-16.04
264.139	67.92
264.355	43.35
264.571	41.3
264.787	-44.71
265.004	31.06
265.22	10.58
265.436	6.49
265.652	-30.38
265.868	26.96
266.084	6.49
266.3	-16.04
266.516	14.68
266.732	-69.29
266.948	-48.81
267.164	-20.14
267.38	10.58
267.596	26.96
267.812	67.92
268.028	-24.23
268.244	4.44
268.46	8.53
268.676	-9.9
268.892	-22.19
269.108	20.82
269.324	-36.52
269.54	-61.1
269.756	-40.62
269.972	6.49
270.188	35.16
270.403	12.63
270.619	-75.43
270.835	-9.9
271.051	-48.81
271.267	49.49
271.483	-52.91
271.698	35.16
271.914	49.49
272.13	-7.85
272.346	-48.81
272.562	-36.52
272.777	14.68
272.993	-36.52
273.209	10.58
273.425	-59.05
273.64	0.34
273.856	-42.67
274.072	20.82
274.287	-71.34
274.503	-54.95
274.719	-52.91
274.934	-16.04
275.15	-65.19
275.366	-54.95
275.581	41.3
275.797	8.53
276.012	-22.19
276.228	-3.75
276.444	24.92
276.659	59.73
276.875	-32.43
277.09	0.34
277.306	-71.34
277.521	63.83
277.737	-11.95
277.952	18.77
278.168	-40.62
278.383	-46.76
278.599	18.77
278.814	37.2
279.03	-24.23
279.245	16.73
279.461	74.07
279.676	33.11
279.892	24.92
280.107	16.73
280.322	-48.81
280.538	-3.75
280.753	43.35
280.969	-5.8
281.184	-114.34
281.399	24.92
281.615	-40.62
281.83	24.92
282.045	-5.8
282.26	-5.8
282.476	47.44
282.691	26.96
282.906	12.63
283.122	0.34
283.337	-38.57
283.552	10.58
283.767	2.39
283.983	47.44
284.198	53.59
284.413	20.82
284.628	-42.67
284.843	20.82
285.058	16.73
285.274	35.16
285.489	-40.62
285.704	35.16
285.919	0.34
286.134	-54.95
286.349	-5.8
286.564	24.92
286.779	-9.9
286.995	37.2
287.21	-34.47
287.425	-16.04
287.64	41.3
287.855	31.06
288.07	-48.81
288.285	18.77
288.5	37.2
288.715	-52.91
288.93	35.16
289.145	-11.95
289.36	-61.1
289.575	-11.95
289.79	-20.14
290.004	-69.29
290.219	10.58
290.434	37.2
290.649	37.2
290.864	110.93
291.079	-22.19
291.294	6.49
291.509	51.54
291.724	-13.99
291.938	-87.72
292.153	-30.38
292.368	-34.47
292.583	-81.58
292.798	14.68
293.012	-22.19
293.227	4.44
293.442	12.63
293.657	-18.09
293.871	-24.23
294.086	-32.43
294.301	-46.76
294.516	22.87
294.73	20.82
294.945	-7.85
295.16	29.01
295.374	26.96
295.589	16.73
295.804	16.73
296.018	-7.85
296.233	-34.47
296.447	-18.09
296.662	-24.23
296.877	2.39
297.091	16.73
297.306	51.54
297.52	-1.71
297.735	14.68
297.949	8.53
298.164	39.25
298.378	-89.77
298.593	-18.09
298.807	-7.85
299.022	-71.34
299.236	-11.95
299.451	16.73
299.665	-20.14
299.88	-97.96
300.094	-16.04
300.309	69.97
300.523	-9.9
300.737	16.73
300.952	-18.09
301.166	24.92
301.381	2.39
301.595	-13.99
301.809	2.39
302.024	8.53
302.238	20.82
302.452	2.39
302.667	4.44
302.881	57.68
303.095	45.4
303.309	-16.04
303.524	-34.47
303.738	29.01
303.952	26.96
304.166	-1.71
304.381	-22.19
304.595	59.73
304.809	0.34
305.023	45.4
305.237	2.39
305.452	4.44
305.666	-32.43
305.88	24.92
306.094	20.82
306.308	63.83
306.522	10.58
306.736	24.92
306.95	-54.95
307.164	-3.75
307.379	-16.04
307.593	76.12
307.807	-7.85
308.021	26.96
308.235	-11.95
308.449	41.3
308.663	-28.33
308.877	49.49
309.091	16.73
309.305	39.25
309.519	20.82
309.733	-1.71
309.947	6.49
310.161	16.73
310.374	-57
310.588	-69.29
310.802	14.68
311.016	-28.33
311.23	-54.95
311.444	33.11
311.658	-81.58
311.872	14.68
312.085	2.39
312.299	14.68
312.513	-100.01
312.727	0.34
312.941	-34.47
313.154	-7.85
313.368	20.82
313.582	4.44
313.796	51.54
314.009	-52.91
314.223	45.4
314.437	-3.75
314.651	49.49
314.864	4.44
315.078	-16.04
315.292	-9.9
315.505	-22.19
315.719	92.5
315.933	26.96
316.146	-34.47
316.36	-57
316.573	53.59
316.787	-77.48
317.001	-16.04
317.214	-16.04
317.428	-32.43
317.641	-59.05
317.855	-50.86
318.068	-16.04
318.282	-18.09
318.495	80.21
318.709	61.78
318.922	-28.33
319.136	29.01
319.349	-67.24
319.563	-13.99
319.776	16.73
319.99	-57
320.203	22.87
320.417	35.16
320.63	26.96
320.843	86.36
321.057	26.96
321.27	47.44
321.483	59.73
321.697	-46.76
321.91	-52.91
322.124	-20.14
322.337	18.77
322.55	0.34
322.763	-28.33
322.977	-1.71
323.19	-46.76
323.403	33.11
323.617	22.87
323.83	-61.1
324.043	-20.14
324.256	-38.57
324.469	16.73
324.683	45.4
324.896	-1.71
325.109	86.36
325.322	-36.52
325.535	-69.29
325.748	-44.71
325.962	0.34
326.175	39.25
326.388	-87.72
326.601	-20.14
326.814	24.92
327.027	41.3
327.24	80.21
327.453	-61.1
327.666	-30.38
327.879	37.2
328.092	8.53
328.305	-52.91
328.518	-16.04
328.731	20.82
328.944	-13.99
329.157	-11.95
329.37	-28.33
329.583	14.68
329.796	29.01
330.009	-30.38
330.222	0.34
330.435	14.68
330.648	24.92
330.861	14.68
331.073	-36.52
331.286	-11.95
331.499	4.44
331.712	26.96
331.925	-16.04
332.138	-18.09
332.35	12.63
332.563	8.53
332.776	29.01
332.989	-38.57
333.202	6.49
333.414	2.39
333.627	63.83
333.84	41.3
334.053	-16.04
334.265	-18.09
334.478	8.53
334.691	-83.63
334.903	-40.62
335.116	29.01
335.329	35.16
335.541	14.68
335.754	-5.8
335.966	69.97
336.179	37.2
336.392	-11.95
336.604	0.34
336.817	-1.71
337.029	12.63
337.242	-11.95
337.454	18.77
337.667	2.39
337.88	-13.99
338.092	-26.28
338.305	-13.99
338.517	-22.19
338.729	39.25
338.942	-3.75
339.154	-79.53
339.367	0.34
339.579	12.63
339.792	-63.15
340.004	53.59
340.217	-22.19
340.429	-7.85
340.641	-18.09
340.854	45.4
341.066	-50.86
341.278	20.82
341.491	61.78
341.703	-24.23
341.915	41.3
342.128	20.82
342.34	-32.43
342.552	16.73
342.764	-18.09
342.977	16.73
343.189	-22.19
343.401	-7.85
343.613	-75.43
343.826	-24.23
344.038	4.44
344.25	20.82
344.462	61.78
344.674	-77.48
344.886	-5.8
345.099	24.92
345.311	-93.87
345.523	-32.43
345.735	-22.19
345.947	133.46
346.159	18.77
346.371	-24.23
346.583	-7.85
346.795	-50.86
347.007	-28.33
347.219	-7.85
347.431	0.34
347.643	22.87
347.855	-26.28
348.067	12.63
348.279	20.82
348.491	0.34
348.703	53.59
348.915	33.11
349.127	-32.43
349.339	-5.8
349.551	-61.1
349.763	-44.71
349.975	31.06
350.187	-7.85
350.399	-1.71
350.61	18.77
350.822	-28.33
351.034	8.53
351.246	-34.47
351.458	-48.81
351.669	-63.15
351.881	20.82
352.093	16.73
352.305	69.97
352.517	-65.19
352.728	-28.33
352.94	-13.99
353.152	98.64
353.363	-22.19
353.575	-16.04
353.787	6.49
353.999	-9.9
354.21	67.92
354.422	-52.91
354.633	-100.01
354.845	-67.24
355.057	-63.15
355.268	65.88
355.48	-48.81
355.692	8.53
355.903	-30.38
356.115	31.06
356.326	-11.95
356.538	16.73
356.749	-22.19
356.961	67.92
357.172	-13.99
357.384	-28.33
357.595	-3.75
357.807	20.82
358.018	31.06
358.23	98.64
358.441	29.01
358.653	33.11
358.864	-20.14
359.075	24.92
359.287	-5.8
359.498	72.02
359.709	16.73
359.921	-3.75
360.132	12.63
360.344	-44.71
360.555	-5.8
360.766	16.73
360.977	-7.85
361.189	-5.8
361.4	-44.71
361.611	-32.43
361.823	61.78
362.034	-65.19
362.245	10.58
362.456	-24.23
362.667	82.26
362.879	-11.95
363.09	-63.15
363.301	-7.85
363.512	-48.81
363.723	0.34
363.935	-20.14
364.146	35.16
364.357	-7.85
364.568	20.82
364.779	35.16
364.99	100.69
365.201	20.82
365.412	2.39
365.623	-1.71
365.834	-16.04
366.045	-54.95
366.256	-38.57
366.467	-24.23
366.678	47.44
366.889	-11.95
367.1	-34.47
367.311	-24.23
367.522	18.77
367.733	22.87
367.944	133.46
368.155	-16.04
368.366	14.68
368.577	-30.38
368.788	31.06
368.999	57.68
369.209	-1.71
369.42	18.77
369.631	51.54
369.842	-7.85
370.053	74.07
370.264	67.92
370.474	-20.14
370.685	0.34
370.896	-79.53
371.107	16.73
371.317	2.39
371.528	-16.04
371.739	-7.85
371.95	69.97
372.16	4.44
372.371	-18.09
372.582	-52.91
372.792	-48.81
373.003	-26.28
373.214	59.73
373.424	-1.71
373.635	10.58
373.846	47.44
374.056	-69.29
374.267	74.07
374.477	35.16
374.688	-42.67
374.898	51.54
375.109	43.35
375.319	14.68
375.53	51.54
375.74	39.25
375.951	49.49
376.161	35.16
376.372	-63.15
376.582	-32.43
376.793	10.58
377.003	-34.47
377.214	86.36
377.424	20.82
377.635	59.73
377.845	-9.9
378.055	-24.23
378.266	20.82
378.476	39.25
378.686	31.06
378.897	67.92
379.107	-11.95
379.317	-26.28
379.528	-46.76
379.738	2.39
379.948	45.4
380.158	18.77
380.369	51.54
380.579	29.01
380.789	49.49
380.999	-52.91
381.21	49.49
381.42	41.3
381.63	-3.75
381.84	-1.71
382.05	45.4
382.261	29.01
382.471	-5.8
382.681	-9.9
382.891	-22.19
383.101	65.88
383.311	33.11
383.521	-22.19
383.731	12.63
383.941	84.31
384.151	-18.09
384.361	-3.75
384.571	45.4
384.781	29.01
384.991	31.06
385.201	29.01
385.411	-5.8
385.621	-32.43
385.831	-106.15
386.041	8.53
386.251	35.16
386.461	2.39
386.671	24.92
386.881	12.63
387.091	67.92
387.301	18.77
387.511	2.39
387.72	-40.62
387.93	-16.04
388.14	-34.47
388.35	24.92
388.56	4.44
388.769	-3.75
388.979	33.11
389.189	-11.95
389.399	0.34
389.609	43.35
389.818	59.73
390.028	-22.19
390.238	51.54
390.447	12.63
390.657	-13.99
390.867	-5.8
391.076	98.64
391.286	49.49
391.496	16.73
391.705	-20.14
391.915	59.73
392.125	-18.09
392.334	-9.9
392.544	117.08
392.753	-48.81
392.963	-65.19
393.172	65.88
393.382	-26.28
393.591	16.73
393.801	-13.99
394.01	26.96
394.22	-24.23
394.429	41.3
394.639	8.53
394.848	65.88
395.058	-9.9
395.267	29.01
395.477	35.16
395.686	-26.28
395.895	-24.23
396.105	-38.57
396.314	8.53
396.524	-13.99
396.733	8.53
396.942	12.63
397.152	39.25
397.361	16.73
397.57	-38.57
397.78	29.01
397.989	78.16
398.198	65.88
398.407	-65.19
398.617	59.73
398.826	-1.71
399.035	20.82
399.244	57.68
399.453	55.64
399.663	53.59
399.872	22.87
400.081	-34.47
400.29	10.58
400.499	-1.71
400.708	76.12
400.917	12.63
401.127	-16.04
401.336	37.2
401.545	16.73
401.754	14.68
401.963	8.53
402.172	18.77
402.381	-13.99
402.59	57.68
402.799	16.73
403.008	35.16
403.217	0.34
403.426	65.88
403.635	-3.75
403.844	22.87
404.053	-57
404.262	24.92
404.471	45.4
404.68	24.92
404.888	43.35
405.097	-30.38
405.306	-30.38
405.515	53.59
405.724	-18.09
405.933	49.49
406.142	37.2
406.35	18.77
406.559	-40.62
406.768	-3.75
406.977	-22.19
407.185	2.39
407.394	-42.67
407.603	115.03
407.812	-28.33
408.02	24.92
408.229	31.06
408.438	0.34
408.646	78.16
408.855	69.97
409.064	43.35
409.272	6.49
409.481	20.82
409.69	-24.23
409.898	33.11
410.107	57.68
410.315	16.73
410.524	35.16
410.733	76.12
410.941	4.44
411.15	37.2
411.358	41.3
411.567	45.4
411.775	53.59
411.984	55.64
412.192	53.59
412.401	78.16
412.609	59.73
412.818	37.2
413.026	90.45
413.234	110.93
413.443	59.73
413.651	137.56
413.86	86.36
414.068	65.88
414.276	80.21
414.485	74.07
414.693	84.31
414.901	129.36
415.11	123.22
415.318	133.46
415.526	82.26
415.734	137.56
415.943	125.27
416.151	162.13
416.359	172.37
416.567	147.8
416.776	123.22
416.984	133.46
417.192	119.12
417.4	129.36
417.608	186.71
417.817	94.55
418.025	125.27
418.233	164.18
418.441	223.57
418.649	143.7
418.857	254.29
419.065	215.38
419.273	141.65
419.481	162.13
419.689	237.91
419.897	344.4
420.105	205.14
420.313	227.67
420.521	217.43
420.729	231.76
420.937	254.29
421.145	321.87
421.353	299.34
421.561	297.3
421.769	323.92
421.977	325.97
422.185	315.73
422.393	278.87
422.601	356.69
422.809	303.44
423.017	401.74
423.224	379.22
423.432	393.55
423.64	495.95
423.848	522.57
424.056	411.98
424.263	434.51
424.471	473.42
424.679	500.05
424.887	442.7
425.094	532.81
425.302	452.94
425.51	571.72
425.718	577.87
425.925	532.81
426.133	645.45
426.341	590.16
426.548	637.26
426.756	588.11
426.964	594.25
427.171	612.68
427.379	706.89
427.586	700.75
427.794	655.69
428.001	811.34
428.209	780.62
428.417	833.86
428.624	772.43
428.832	866.63
429.039	905.54
429.247	786.76
429.454	891.21
429.662	1007.94
429.869	907.59
430.076	942.41
430.284	975.17
430.491	1012.04
430.699	1050.95
430.906	1016.13
431.114	1110.34
431.321	1091.91
431.528	1104.2
431.736	1268.03
431.943	1259.84
432.15	1173.83
432.358	1233.22
432.565	1360.19
432.772	1319.23
432.979	1298.75
433.187	1345.86
433.394	1349.95
433.601	1433.92
433.808	1507.65
434.016	1468.73
434.223	1548.61
434.43	1630.52
434.637	1620.28
434.844	1679.68
435.052	1683.77
435.259	1784.12
435.466	1632.57
435.673	1737.02
435.88	1765.69
436.087	1943.86
436.294	1907
436.501	1812.79
436.708	1814.84
436.915	2048.31
437.122	2027.83
437.329	2019.64
437.537	2148.66
437.743	2216.24
437.95	2113.85
438.157	2345.27
438.364	2349.36
438.571	2302.26
438.778	2320.69
438.985	2578.73
439.192	2396.46
439.399	2416.94
439.606	2527.53
439.813	2640.17
440.02	2797.87
440.227	2730.28
440.433	2638.13
440.64	2853.16
440.847	2756.91
441.054	2853.16
441.261	3115.3
441.467	2928.94
441.674	3078.44
441.881	3252.52
442.088	3148.07
442.294	3213.6
442.501	3215.65
442.708	3432.74
442.914	3518.75
443.121	3660.06
443.328	3580.19
443.534	3768.6
443.741	3688.73
443.948	3737.88
444.154	3989.78
444.361	3795.23
444.568	3868.95
444.774	3954.97
444.981	3891.48
445.187	3899.67
445.394	4106.52
445.6	4131.09
445.807	4491.54
446.013	4448.53
446.22	4552.98
446.426	4600.08
446.633	4692.24
446.839	4806.92
447.046	4532.5
447.252	4763.92
447.459	4878.6
447.665	4888.84
447.871	5177.61
448.078	5505.28
448.284	5120.26
448.491	5292.29
448.697	5445.89
448.903	5626.11
449.11	5611.78
449.316	5423.36
449.522	5509.38
449.728	5746.94
449.935	5712.13
450.141	5859.58
450.347	5945.59
450.553	5697.79
450.76	5724.41
450.966	6037.75
451.172	5972.22
451.378	6021.37
451.584	6088.95
451.791	6029.56
451.997	6107.38
452.203	6191.35
452.409	6332.66
452.615	6072.57
452.821	5859.58
453.027	5861.63
453.233	6457.59
453.44	5898.49
453.646	5982.46
453.852	6000.89
454.058	6195.45
454.264	5902.59
454.47	6203.64
454.676	6023.42
454.882	6318.32
455.088	5576.96
455.294	5683.45
455.5	5724.41
455.705	5792
455.911	5576.96
456.117	5548.29
456.323	5402.88
456.529	5120.26
456.735	5374.21
456.941	5267.72
457.147	5187.85
457.352	5083.4
457.558	5011.72
457.764	4942.09
457.97	4909.32
458.176	4727.05
458.381	4802.83
458.587	4526.35
458.793	4466.96
458.999	4172.05
459.204	4532.5
459.41	4540.69
459.616	4208.92
459.821	4253.97
460.027	4239.64
460.233	4147.48
460.438	3981.59
460.644	3993.88
460.85	3893.53
461.055	3764.51
461.261	3741.98
461.466	3305.76
461.672	3363.11
461.878	3498.27
462.083	3377.44
462.289	3205.41
462.494	3178.79
462.7	3100.97
462.905	2976.04
463.111	3113.25
463.316	3100.97
463.522	3156.26
463.727	3107.11
463.932	3193.12
464.138	3133.73
464.343	3008.81
464.549	2916.65
464.754	3094.82
464.959	3074.34
465.165	3060.01
465.37	2973.99
465.575	2877.74
465.781	2951.46
465.986	2916.65
466.191	2949.42
466.397	2761
466.602	2791.72
466.807	2785.58
467.012	2781.48
467.218	2746.67
467.423	2806.06
467.628	2683.18
467.833	3080.49
468.038	2799.91
468.244	2720.04
468.449	2867.5
468.654	2799.91
468.859	2728.24
469.064	2613.55
469.269	2515.25
469.474	2593.07
469.679	2691.37
469.885	2631.98
470.09	2560.3
470.295	2523.44
470.5	2410.8
470.705	2539.82
470.91	2617.65
471.115	2535.73
471.32	2468.14
471.525	2629.93
471.73	2414.9
471.935	2431.28
472.139	2406.7
472.344	2457.9
472.549	2269.49
472.754	2398.51
472.959	2394.42
473.164	2275.63
473.369	2173.24
473.574	2201.91
473.778	2335.03
473.983	2298.16
474.188	2232.63
474.393	2267.44
474.598	2171.19
474.802	2122.04
475.007	2183.48
475.212	2111.8
475.417	2095.41
475.621	2093.37
475.826	2027.83
476.031	1939.77
476.235	1911.1
476.44	2007.35
476.645	1935.67
476.849	1878.33
477.054	1907
477.259	1954.1
477.463	1913.14
477.668	1904.95
477.872	1769.79
478.077	1870.14
478.282	1747.26
478.486	1755.45
478.691	1704.25
478.895	1835.32
479.1	1626.43
479.304	1765.69
479.509	1816.89
479.713	1786.17
479.918	1720.64
480.122	1618.24
480.326	1747.26
480.531	1771.83
480.735	1691.96
480.94	1685.82
481.144	1694.01
481.348	1605.95
481.553	1745.21
481.757	1591.61
481.961	1622.33
482.166	1771.83
482.37	1675.58
482.574	1638.72
482.778	1595.71
482.983	1679.68
483.187	1636.67
483.391	1663.29
483.595	1773.88
483.8	1646.91
484.004	1589.57
484.208	1624.38
484.412	1630.52
484.616	1794.36
484.821	1718.59
485.025	1626.43
485.229	1614.14
485.433	1718.59
485.637	1648.96
485.841	1620.28
486.045	1642.81
486.249	1669.44
486.453	1681.72
486.657	1704.25
486.861	1708.35
487.065	1640.76
487.269	1720.64
487.473	1687.87
487.677	1737.02
487.881	1763.64
488.085	1732.92
488.289	1737.02
488.493	1675.58
488.697	1583.42
488.901	1788.22
489.105	1722.68
489.309	1694.01
489.512	1786.17
489.716	1669.44
489.92	1718.59
490.124	1737.02
490.328	1675.58
490.531	1761.59
490.735	1863.99
490.939	1796.41
491.143	1761.59
491.346	1767.74
491.55	1726.78
491.754	1825.08
491.958	1878.33
492.161	1753.4
492.365	1780.03
492.569	1825.08
492.772	1907
492.976	1882.42
493.18	2013.49
493.383	1990.97
493.587	1886.52
493.79	1945.91
493.994	1995.06
494.197	1960.25
494.401	1968.44
494.605	1886.52
494.808	1984.82
495.012	2007.35
495.215	2054.45
495.419	2101.56
495.622	1962.3
495.825	2087.22
496.029	2058.55
496.232	2257.2
496.436	2191.67
496.639	2146.61
496.843	2199.86
497.046	2242.87
497.249	2183.48
497.453	2257.2
497.656	2308.4
497.859	2275.63
498.063	2302.26
498.266	2404.66
498.469	2267.44
498.673	2275.63
498.876	2343.22
499.079	2412.85
499.282	2656.56
499.485	2533.68
499.689	2535.73
499.892	2636.08
500.095	2552.11
500.298	2650.41
500.501	2677.04
500.705	2713.9
500.908	2761
501.111	2785.58
501.314	2894.12
501.517	2890.03
501.72	2767.15
501.923	3092.77
502.126	3006.76
502.329	3006.76
502.532	3164.45
502.735	3008.81
502.938	3060.01
503.141	3172.64
503.344	3178.79
503.547	3346.72
503.75	3359.01
503.953	3354.91
504.156	3342.63
504.359	3457.31
504.562	3453.22
504.765	3477.79
504.968	3539.23
505.17	3428.64
505.373	3594.53
505.576	3655.97
505.779	3635.49
505.982	3668.25
506.185	3606.81
506.387	3795.23
506.59	3871
506.793	3920.15
506.996	3825.95
507.198	4077.85
507.401	4008.22
507.604	4055.32
507.807	4280.6
508.009	4221.2
508.212	4403.47
508.415	4442.39
508.617	4503.82
508.82	4432.15
509.022	4452.63
509.225	4581.65
509.428	4524.3
509.63	4581.65
509.833	4745.48
510.035	4776.2
510.238	4714.77
510.44	4790.54
510.643	4870.41
510.845	5003.53
511.048	5001.48
511.25	5007.62
511.453	5265.67
511.655	5290.24
511.858	5251.33
512.06	5288.2
512.262	5341.44
512.465	5447.94
512.667	5472.51
512.87	5515.52
513.072	5622.02
513.274	5728.51
513.477	5765.37
513.679	5806.33
513.881	5740.8
514.084	5796.09
514.286	5775.61
514.488	6093.05
514.69	6117.62
514.893	6215.93
515.095	6232.31
515.297	6347
515.499	6361.33
515.701	6480.11
515.904	6422.77
516.106	6471.92
516.308	6535.41
516.51	6689.01
516.712	6615.28
516.914	6885.61
517.116	6945
517.318	6861.04
517.52	7010.54
517.722	7059.69
517.925	7088.36
518.127	7053.55
518.329	7209.19
518.531	7131.37
518.733	7356.65
518.935	7479.52
519.136	7397.6
519.338	7864.54
519.54	7729.38
519.742	7784.67
519.944	7672.03
520.146	7921.88
520.348	7911.64
520.55	8032.47
520.752	8120.54
520.954	8087.77
521.155	8147.16
521.357	8323.29
521.559	8366.29
521.761	8491.22
521.963	8505.56
522.164	8440.02
522.366	8526.04
522.568	8462.55
522.77	8929.49
522.971	8747.22
523.173	8739.02
523.375	8896.72
523.576	8956.11
523.778	9070.79
523.98	9160.91
524.181	8978.64
524.383	9021.64
524.584	9267.4
524.786	9187.53
524.988	9167.05
525.189	9283.78
525.391	9289.93
525.592	9328.84
525.794	9568.45
525.995	9541.83
526.197	9615.55
526.398	9492.68
526.6	9545.92
526.801	9711.81
527.003	9734.34
527.204	9730.24
527.406	9771.2
527.607	9914.56
527.808	9730.24
528.01	9662.66
528.211	9926.85
528.412	10029.24
528.614	10135.74
528.815	10166.46
529.016	10318.01
529.218	9988.28
529.419	10217.66
529.62	10006.72
529.822	10031.29
530.023	10031.29
530.224	10275
530.425	10328.25
530.626	10285.24
530.828	10197.18
531.029	10309.82
531.23	10178.75
531.431	10344.63
531.632	10301.62
531.833	10221.75
532.035	10424.5
532.236	10279.1
532.437	10588.34
532.638	10254.52
532.839	10451.13
533.04	10498.23
533.241	10264.76
533.442	10336.44
533.643	10520.76
533.844	10346.68
534.045	10512.56
534.246	10279.1
534.447	10498.23
534.648	10453.17
534.849	10434.74
535.05	10520.76
535.251	10688.69
535.451	10305.72
535.652	10543.28
535.853	10576.05
536.054	10688.69
536.255	10528.95
536.456	10668.21
536.657	10827.95
536.857	10414.26
537.058	10614.96
537.259	10680.5
537.46	10436.79
537.66	10582.2
537.861	10600.63
538.062	10684.59
538.263	10707.12
538.463	10727.6
538.664	10465.46
538.865	10500.28
539.065	10891.44
539.266	10549.43
539.466	10772.66
539.667	10477.75
539.868	10729.65
540.068	10442.93
540.269	10475.7
540.469	10815.66
540.67	10637.49
540.87	10537.14
541.071	10619.06
541.271	10670.26
541.472	10559.67
541.672	10639.54
541.873	10596.53
542.073	10545.33
542.274	10756.27
542.474	10578.1
542.675	10684.59
542.875	10655.92
543.075	10760.37
543.276	10264.76
543.476	10627.25
543.676	10475.7
543.877	10696.88
544.077	10805.42
544.277	10475.7
544.478	10639.54
544.678	10492.09
544.878	10797.23
545.078	10569.91
545.279	10504.37
545.479	10494.13
545.679	10848.43
545.879	10571.96
546.079	10610.87
546.28	10567.86
546.48	10385.59
546.68	10528.95
546.88	10604.72
547.08	10637.49
547.28	10535.09
547.48	10504.37
547.68	10727.6
547.88	10473.65
548.081	10903.73
548.281	10596.53
548.481	10727.6
548.681	10752.18
548.881	10516.66
549.081	10342.58
549.28	10680.5
549.48	10680.5
549.68	10703.03
549.88	10772.66
550.08	10473.65
550.28	10694.83
550.48	10356.92
550.68	10629.3
550.88	10424.5
551.08	10569.91
551.279	10756.27
551.479	10404.02
551.679	10543.28
551.879	10590.39
552.079	10487.99
552.278	10657.97
552.478	10600.63
552.678	10631.35
552.878	10635.44
553.077	10559.67
553.277	10383.54
553.477	10657.97
553.676	10551.48
553.876	10639.54
554.076	10565.81
554.275	10600.63
554.475	10541.24
554.674	10457.27
554.874	10614.96
555.074	10404.02
555.273	10617.01
555.473	10576.05
555.672	10336.44
555.872	10291.38
556.071	10477.75
556.271	10502.33
556.47	10514.61
556.67	10234.04
556.869	10545.33
557.068	10543.28
557.268	10436.79
557.467	10393.78
557.667	10301.62
557.866	10375.35
558.065	10465.46
558.265	10363.06
558.464	10346.68
558.663	10324.15
558.863	10219.71
559.062	10373.3
559.261	10328.25
559.461	10309.82
559.66	10252.47
559.859	10377.4
560.058	10223.8
560.258	10203.32
560.457	10170.55
560.656	10215.61
560.855	10297.53
561.054	10393.78
561.253	10029.24
561.453	10066.11
561.652	10082.49
561.851	10221.75
562.05	9887.93
562.249	10236.09
562.448	10133.69
562.647	10004.67
562.846	10205.37
563.045	9922.75
563.244	9978.05
563.443	10170.55
563.642	9941.18
563.841	10078.4
564.04	10064.06
564.239	10275
564.438	10049.72
564.637	10045.63
564.836	9943.23
565.035	9722.05
565.234	9810.11
565.432	9754.82
565.631	9826.5
565.83	9990.33
566.029	9978.05
566.228	10027.2
566.427	9777.34
566.625	9844.93
566.824	9820.35
567.023	9896.13
567.222	9834.69
567.42	9820.35
567.619	9754.82
567.818	9724.1
568.016	9717.95
568.215	9668.8
568.414	9668.8
568.612	9830.59
568.811	9695.43
569.01	9758.91
569.208	9572.55
569.407	9617.6
569.605	9509.06
569.804	9574.6
570.002	9652.42
570.201	9507.01
570.4	9302.22
570.598	9511.11
570.797	9300.17
570.995	9328.84
571.193	9361.61
571.392	9410.76
571.59	9459.91
571.789	9279.69
571.987	9507.01
572.186	9322.7
572.384	9189.58
572.582	9271.5
572.781	9275.59
572.979	9156.81
573.177	9019.6
573.376	9337.03
573.574	9283.78
573.772	9269.45
573.971	9177.29
574.169	9197.77
574.367	9136.33
574.565	9121.99
574.763	9173.19
574.962	9134.28
575.16	8872.14
575.358	9044.17
575.556	8997.07
575.754	9070.79
575.952	8888.53
576.151	8863.95
576.349	8702.16
576.547	8728.78
576.745	8710.35
576.943	8841.42
577.141	8794.32
577.339	8806.61
577.537	8792.27
577.735	8802.51
577.933	8587.47
578.131	8888.53
578.329	8782.03
578.527	8853.71
578.725	8745.17
578.923	8700.11
579.121	8675.54
579.319	8587.47
579.516	8595.67
579.714	8454.36
579.912	8577.23
580.11	8495.32
580.308	8601.81
580.506	8274.14
580.704	8214.74
580.901	8327.38
581.099	8505.56
581.297	8380.63
581.495	8335.57
581.692	8208.6
581.89	8276.18
582.088	8231.13
582.285	8265.94
582.483	8233.18
582.681	8265.94
582.878	7995.61
583.076	8134.87
583.274	8130.78
583.471	8163.54
583.669	8147.16
583.866	8167.64
584.064	8067.29
584.262	8046.81
584.459	7981.28
584.657	8020.19
584.854	7934.17
585.052	7889.12
585.249	7899.36
585.447	7985.37
585.644	7772.38
585.841	7835.87
586.039	7913.69
586.236	7911.64
586.434	7868.64
586.631	7659.74
586.828	7954.65
587.026	7780.57
587.223	7741.66
587.42	7698.66
587.618	7860.45
587.815	7631.07
588.012	7610.59
588.21	7583.97
588.407	7639.26
588.604	7555.3
588.801	7559.39
588.999	7551.2
589.196	7547.11
589.393	7442.66
589.59	7440.61
589.787	7538.91
589.984	7317.73
590.182	7428.32
590.379	7413.99
590.576	7299.3
590.773	7282.92
590.97	7264.49
591.167	7303.4
591.364	7307.49
591.561	7350.5
591.758	7217.38
591.955	7047.4
592.152	7311.59
592.349	7108.84
592.546	7149.8
592.743	7076.07
592.94	6963.44
593.137	7028.97
593.334	7028.97
593.531	6895.85
593.727	7028.97
593.924	6945
594.121	6930.67
594.318	7117.03
594.515	6949.1
594.712	6949.1
594.908	6940.91
595.105	6945
595.302	7026.92
595.499	6828.27
595.696	6955.24
595.892	6760.69
596.089	6809.84
596.286	6793.45
596.482	6711.53
596.679	6836.46
596.876	6750.45
597.072	6858.99
597.269	6869.23
597.466	6711.53
597.662	6815.98
597.859	6514.93
598.055	6633.71
598.252	6662.38
598.448	6725.87
598.645	6547.7
598.841	6416.63
599.038	6537.46
599.234	6576.37
599.431	6502.64
599.627	6451.44
599.824	6590.7
600.02	6390
600.217	6582.51
600.413	6406.39
600.609	6383.86
600.806	6355.19
601.002	6533.36
601.198	6117.62
601.395	6279.41
601.591	6162.68
601.787	6369.52
601.984	6267.13
602.18	6234.36
602.376	6215.93
602.572	6166.78
602.769	6099.19
602.965	6344.95
603.161	6289.65
603.357	6131.96
603.553	6082.81
603.75	6000.89
603.946	5898.49
604.142	6054.14
604.338	5918.97
604.534	6041.85
604.73	6078.71
604.926	5927.16
605.122	5955.83
605.318	6082.81
605.514	5865.72
605.71	5863.68
605.906	6035.71
606.102	5949.69
606.298	5855.48
606.494	5683.45
606.69	5820.67
606.886	5890.3
607.082	5660.93
607.278	5775.61
607.474	5728.51
607.67	5624.06
607.866	5603.58
608.062	5734.65
608.257	5673.21
608.453	5742.85
608.649	5603.58
608.845	5742.85
609.041	5531.9
609.236	5613.82
609.432	5617.92
609.628	5581.06
609.824	5478.66
610.019	5392.64
610.215	5632.26
610.411	5622.02
610.606	5366.02
610.802	5507.33
610.998	5509.38
611.193	5603.58
611.389	5464.32
611.584	5472.51
611.78	5273.86
611.976	5478.66
612.171	5542.14
612.367	5443.84
612.562	5445.89
612.758	5484.8
612.953	5374.21
613.149	5513.47
613.344	5306.63
613.539	5388.55
613.735	5261.57
613.93	5308.68
614.126	5386.5
614.321	5308.68
614.517	5202.18
614.712	5183.75
614.907	5251.33
615.103	5300.48
615.298	5343.49
615.493	5243.14
615.688	5208.33
615.884	5239.05
616.079	5146.89
616.274	5308.68
616.47	5130.5
616.665	4872.46
616.86	5150.98
617.055	5173.51
617.25	4958.47
617.445	5110.02
617.641	4901.13
617.836	5150.98
618.031	4933.9
618.226	5046.54
618.421	4892.94
618.616	4899.08
618.811	4843.79
619.006	4997.39
619.201	4829.45
619.396	5069.06
619.591	4870.41
619.786	4901.13
619.981	4800.78
620.176	4940.04
620.371	4647.18
620.566	4897.03
620.761	4659.47
620.956	4794.64
621.151	4772.11
621.346	4829.45
621.541	4673.81
621.735	4663.57
621.93	4643.09
622.125	4534.54
622.32	4595.98
622.515	4628.75
622.709	4733.2
622.904	4423.95
623.099	4487.44
623.294	4450.58
623.488	4423.95
623.683	4358.42
623.878	4450.58
624.072	4419.86
624.267	4471.06
624.462	4376.85
624.656	4323.6
624.851	4270.36
625.046	4305.17
625.24	4159.77
625.435	4301.08
625.629	4172.05
625.824	4213.01
626.018	4170.01
626.213	4032.79
626.407	4147.48
626.602	4086.04
626.796	4106.52
626.991	4133.14
627.185	4131.09
627.38	4094.23
627.574	3979.54
627.768	3901.72
627.963	4032.79
628.157	3946.78
628.352	3957.02
628.546	3750.17
628.74	3901.72
628.935	3893.53
629.129	3799.32
629.323	3752.22
629.517	3764.51
629.712	3754.27
629.906	3760.41
630.1	3756.32
630.294	3678.49
630.489	3627.29
630.683	3782.94
630.877	3516.7
631.071	3617.05
631.265	3684.64
631.459	3594.53
631.653	3498.27
631.848	3615.01
632.042	3426.59
632.236	3604.77
632.43	3531.04
632.624	3488.03
632.818	3479.84
633.012	3528.99
633.206	3377.44
633.4	3549.47
633.594	3344.67
633.788	3414.31
633.982	3346.72
634.176	3465.5
634.369	3252.52
634.563	3379.49
634.757	3275.04
634.951	3240.23
635.145	3305.76
635.339	3232.04
635.533	3217.7
635.726	3137.83
635.92	3266.85
636.114	3270.95
636.308	3107.11
636.501	3152.17
636.695	3215.65
636.889	3195.17
637.083	3010.86
637.276	3184.93
637.47	3199.27
637.664	3055.91
637.857	3223.84
638.051	3019.05
638.244	2984.23
638.438	2947.37
638.632	2951.46
638.825	2822.44
639.019	2812.2
639.212	2861.35
639.406	2969.9
639.599	2973.99
639.793	2939.18
639.986	2896.17
640.18	2865.45
640.373	2877.74
640.567	2758.96
640.76	2826.54
640.954	2726.19
641.147	2644.27
641.34	2640.17
641.534	2740.52
641.727	2638.13
641.92	2607.41
642.114	2711.85
642.307	2679.08
642.5	2654.51
642.694	2664.75
642.887	2709.8
643.08	2617.65
643.273	2640.17
643.467	2554.16
643.66	2625.84
643.853	2689.32
644.046	2564.4
644.239	2554.16
644.432	2480.43
644.626	2433.33
644.819	2494.77
645.012	2421.04
645.205	2531.63
645.398	2359.6
645.591	2400.56
645.784	2332.98
645.977	2316.59
646.17	2439.47
646.363	2447.66
646.556	2232.63
646.749	2238.77
646.942	2380.08
647.135	2341.17
647.328	2261.3
647.521	2265.39
647.714	2298.16
647.907	2386.22
648.099	2165.04
648.292	2371.89
648.485	2230.58
648.678	2220.34
648.871	2251.06
649.064	2154.8
649.256	2156.85
649.449	2058.55
649.642	2214.2
649.835	2228.53
650.027	2187.57
650.22	2216.24
650.413	2183.48
650.605	2068.79
650.798	2068.79
650.991	2064.69
651.183	2029.88
651.376	2031.93
651.568	2046.26
651.761	2072.89
651.954	2089.27
652.146	2056.5
652.339	2005.3
652.531	2007.35
652.724	2027.83
652.916	1958.2
653.109	1909.05
653.301	1876.28
653.494	1851.71
653.686	1810.75
653.879	1925.43
654.071	1847.61
654.263	1829.18
654.456	1810.75
654.648	1833.27
654.84	1863.99
655.033	1880.38
655.225	1833.27
655.417	1745.21
655.61	1863.99
655.802	1634.62
655.994	1773.88
656.186	1759.55
656.379	1726.78
656.571	1769.79
656.763	1739.07
656.955	1708.35
657.148	1796.41
657.34	1700.16
657.532	1653.05
657.724	1771.83
657.916	1728.83
658.108	1687.87
658.3	1620.28
658.492	1626.43
658.684	1659.2
658.876	1503.55
659.068	1524.03
659.26	1591.61
659.452	1534.27
659.644	1554.75
659.836	1579.33
660.028	1544.51
660.22	1526.08
660.412	1579.33
660.604	1511.74
660.796	1478.97
660.988	1491.26
661.18	1532.22
661.372	1476.93
661.563	1548.61
661.755	1435.97
661.947	1411.39
662.139	1501.5
662.331	1470.78
662.522	1562.94
662.714	1489.21
662.906	1499.45
663.097	1364.29
663.289	1397.06
663.481	1427.78
663.673	1405.25
663.864	1296.71
664.056	1419.58
664.247	1341.76
664.439	1405.25
664.631	1315.14
664.822	1386.82
665.014	1317.19
665.205	1296.71
665.397	1311.04
665.588	1272.13
665.78	1290.56
665.971	1304.9
666.163	1276.23
666.354	1347.9
666.546	1171.78
666.737	1268.03
666.929	1237.31
667.12	1268.03
667.311	1265.99
667.503	1163.59
667.694	1329.47
667.885	1216.83
668.077	1163.59
668.268	1167.68
668.459	1225.03
668.651	1212.74
668.842	1190.21
669.033	1251.65
669.224	1151.3
669.416	1134.92
669.607	1118.53
669.798	1157.44
669.989	1208.64
670.18	1132.87
670.371	1120.58
670.563	1061.19
670.754	1249.6
670.945	1102.15
671.136	1028.42
671.327	1096
671.518	1151.3
671.709	1163.59
671.9	1073.48
672.091	1143.11
672.282	1077.57
672.473	1030.47
672.664	1141.06
672.855	1143.11
673.046	1096
673.237	1044.81
673.428	1003.85
673.619	1007.94
673.809	997.7
674	1024.33
674.191	956.74
674.382	983.37
674.573	958.79
674.764	1036.61
674.954	987.46
675.145	1073.48
675.336	1059.14
675.527	1087.81
675.717	977.22
675.908	1050.95
676.099	1050.95
676.289	954.69
676.48	962.89
676.671	928.07
676.861	969.03
677.052	983.37
677.243	987.46
677.433	897.35
677.624	893.26
677.814	936.26
678.005	926.02
678.195	909.64
678.386	971.08
678.576	944.45
678.767	966.98
678.957	915.78
679.148	938.31
679.338	932.17
679.529	1120.58
679.719	901.45
679.909	979.27
680.1	883.02
680.29	999.75
680.481	954.69
680.671	954.69
680.861	829.77
681.052	883.02
681.242	938.31
681.432	975.17
681.622	835.91
681.813	930.12
682.003	969.03
682.193	905.54
682.383	985.41
682.573	905.54
682.764	928.07
682.954	831.82
683.144	1014.09
683.334	868.68
683.524	905.54
683.714	878.92
683.904	835.91
684.094	889.16
684.284	895.3
684.474	860.49
684.664	846.15
684.854	926.02
685.044	868.68
685.234	928.07
685.424	899.4
685.614	897.35
685.804	932.17
685.994	831.82
686.184	803.15
686.374	962.89
686.564	950.6
686.753	934.22
686.943	850.25
687.133	917.83
687.323	866.63
687.513	960.84
687.702	899.4
687.892	1001.8
688.082	887.11
688.272	917.83
688.461	905.54
688.651	868.68
688.841	911.69
689.03	852.3
689.22	874.82
689.41	897.35
689.599	852.3
689.789	862.54
689.979	840.01
690.168	909.64
690.358	792.91
690.547	891.21
690.737	860.49
690.926	895.3
691.116	819.53
691.305	913.74
691.495	911.69
691.684	831.82
691.874	778.57
692.063	766.28
692.252	778.57
692.442	846.15
692.631	887.11
692.82	852.3
693.01	807.24
693.199	840.01
693.388	733.51
693.578	803.15
693.767	817.48
693.956	878.92
694.146	803.15
694.335	708.94
694.524	770.38
694.713	823.62
694.902	833.86
695.092	807.24
695.281	807.24
695.47	708.94
695.659	846.15
695.848	831.82
696.037	870.73
696.226	891.21
696.415	790.86
696.604	778.57
696.793	772.43
696.982	723.27
697.171	743.75
697.36	797
697.549	747.85
697.738	776.52
697.927	926.02
698.116	721.23
698.305	837.96
698.494	819.53
698.683	794.95
698.872	743.75
699.061	774.47
699.25	739.66
699.438	737.61
699.627	706.89
699.816	753.99
700.005	702.79
700.193	762.19
700.382	735.56
700.571	690.51
700.76	762.19
700.948	797
701.137	784.71
701.326	682.31
701.514	756.04
701.703	844.1
701.892	670.03
702.08	778.57
702.269	678.22
702.457	780.62
702.646	782.67
702.834	770.38
703.023	633.16
703.212	696.65
703.4	672.08
703.589	700.75
703.777	690.51
703.965	682.31
704.154	710.99
704.342	719.18
704.531	756.04
704.719	672.08
704.907	731.47
705.096	768.33
705.284	674.12
705.472	745.8
705.661	760.14
705.849	708.94
706.037	715.08
706.226	735.56
706.414	696.65
706.602	639.31
706.79	645.45
706.979	700.75
707.167	717.13
707.355	643.4
707.543	749.9
707.731	698.7
707.919	663.88
708.107	657.74
708.296	684.36
708.484	680.27
708.672	702.79
708.86	667.98
709.048	774.47
709.236	639.31
709.424	735.56
709.612	655.69
709.8	653.64
709.988	577.87
710.176	653.64
710.364	620.88
710.551	663.88
710.739	653.64
710.927	663.88
711.115	696.65
711.303	639.31
711.491	659.79
711.679	686.41
711.866	653.64
712.054	631.12
712.242	676.17
712.43	690.51
712.617	659.79
712.805	616.78
712.993	684.36
713.181	637.26
713.368	633.16
713.556	674.12
713.744	690.51
713.931	641.36
714.119	678.22
714.306	590.16
714.494	688.46
714.682	647.5
714.869	659.79
715.057	604.49
715.244	651.6
715.432	536.91
715.619	661.84
715.807	655.69
715.994	604.49
716.182	565.58
716.369	629.07
716.556	590.16
716.744	606.54
716.931	643.4
717.119	559.44
717.306	579.92
717.493	592.2
717.681	565.58
717.868	647.5
718.055	622.92
718.242	655.69
718.43	524.62
718.617	631.12
718.804	567.63
718.991	637.26
719.179	690.51
719.366	565.58
719.553	651.6
719.74	624.97
719.927	600.4
720.114	702.79
720.301	598.35
720.488	622.92
720.676	571.72
720.863	571.72
721.05	592.2
721.237	584.01
721.424	536.91
721.611	588.11
721.798	534.86
721.985	577.87
722.172	579.92
722.358	676.17
722.545	524.62
722.732	622.92
722.919	534.86
723.106	612.68
723.293	575.82
723.48	659.79
723.667	584.01
723.853	633.16
724.04	584.01
724.227	598.35
724.414	549.2
724.6	631.12
724.787	614.73
724.974	547.15
725.161	444.75
725.347	532.81
725.534	590.16
725.72	606.54
725.907	586.06
726.094	553.29
726.28	612.68
726.467	598.35
726.653	526.67
726.84	524.62
727.027	610.64
727.213	604.49
727.4	555.34
727.586	541.01
727.773	538.96
727.959	553.29
728.145	569.68
728.332	536.91
728.518	543.05
728.705	512.33
728.891	489.81
729.077	532.81
729.264	581.96
729.45	575.82
729.636	528.72
729.823	600.4
730.009	571.72
730.195	551.24
730.382	530.77
730.568	555.34
730.754	508.24
730.94	481.61
731.126	530.77
731.313	594.25
731.499	553.29
731.685	536.91
731.871	534.86
732.057	559.44
732.243	504.14
732.429	500.05
732.615	616.78
732.801	637.26
732.987	604.49
733.173	606.54
733.359	506.19
733.545	528.72
733.731	624.97
733.917	565.58
734.103	518.48
734.289	536.91
734.475	575.82
734.661	553.29
734.847	493.9
735.033	602.44
735.219	502.09
735.404	491.85
735.59	489.81
735.776	467.28
735.962	516.43
736.148	592.2
736.333	528.72
736.519	545.1
736.705	479.57
736.89	588.11
737.076	594.25
737.262	514.38
737.447	495.95
737.633	561.48
737.819	555.34
738.004	622.92
738.19	508.24
738.375	510.29
738.561	528.72
738.747	508.24
738.932	545.1
739.118	475.47
739.303	557.39
739.489	471.37
739.674	485.71
739.859	543.05
740.045	528.72
740.23	502.09
740.416	524.62
740.601	518.48
740.786	579.92
740.972	516.43
741.157	545.1
741.342	534.86
741.528	522.57
741.713	504.14
741.898	520.53
742.084	502.09
742.269	473.42
742.454	575.82
742.639	391.5
742.824	422.22
743.01	450.89
743.195	477.52
743.38	495.95
743.565	483.66
743.75	491.85
743.935	516.43
744.12	555.34
744.305	471.37
744.49	422.22
744.675	465.23
744.86	555.34
745.045	471.37
745.23	498
745.415	438.61
745.6	518.48
745.785	440.65
745.97	426.32
746.155	485.71
746.34	534.86
746.525	551.24
746.71	477.52
746.895	450.89
747.079	477.52
747.264	450.89
747.449	491.85
747.634	475.47
747.819	452.94
748.003	397.65
748.188	403.79
748.373	477.52
748.557	428.37
748.742	459.09
748.927	411.98
749.111	424.27
749.296	422.22
749.481	401.74
749.665	477.52
749.85	528.72
750.034	360.78
750.219	448.85
750.404	356.69
750.588	485.71
750.773	375.12
750.957	391.5
751.141	362.83
751.326	446.8
751.51	471.37
751.695	368.98
751.879	354.64
752.064	375.12
752.248	446.8
752.432	420.17
752.617	385.36
752.801	330.06
752.985	342.35
753.17	383.31
753.354	424.27
753.538	336.21
753.722	356.69
753.907	342.35
754.091	387.41
754.275	409.94
754.459	375.12
754.643	301.39
754.828	358.74
755.012	293.2
755.196	334.16
755.38	391.5
755.564	358.74
755.748	368.98
755.932	311.63
756.116	356.69
756.3	368.98
756.484	328.02
756.668	356.69
756.852	313.68
757.036	364.88
757.22	358.74
757.404	321.87
757.588	383.31
757.772	328.02
757.956	401.74
758.14	366.93
758.323	385.36
758.507	405.84
758.691	239.95
758.875	336.21
759.059	268.63
759.242	262.48
759.426	295.25
759.61	340.3
759.794	246.1
759.977	293.2
760.161	307.54
760.345	282.96
760.528	342.35
760.712	332.11
760.895	299.34
761.079	323.92
761.263	334.16
761.446	250.19
761.63	258.39
761.813	344.4
761.997	282.96
762.18	289.1
762.364	317.78
762.547	276.82
762.731	289.1
762.914	297.3
763.098	352.59
763.281	364.88
763.464	328.02
763.648	311.63
763.831	368.98
764.015	315.73
764.198	246.1
764.381	268.63
764.564	264.53
764.748	264.53
764.931	297.3
765.114	225.62
765.297	297.3
765.481	233.81
765.664	364.88
765.847	242
766.03	229.71
766.213	209.23
766.397	229.71
766.58	299.34
766.763	256.34
766.946	201.04
767.129	160.08
767.312	254.29
767.495	231.76
767.678	254.29
767.861	235.86
768.044	262.48
768.227	291.15
768.41	258.39
768.593	291.15
768.776	254.29
768.959	266.58
769.142	225.62
769.324	201.04
769.507	151.89
769.69	192.85
769.873	209.23
770.056	260.43
770.239	176.47
770.421	254.29
770.604	246.1
770.787	297.3
770.97	219.47
771.152	145.75
771.335	211.28
771.518	225.62
771.7	260.43
771.883	196.95
772.066	139.6
772.248	219.47
772.431	293.2
772.613	252.24
772.796	164.18
772.978	297.3
773.161	242
773.343	237.91
773.526	147.8
773.708	198.99
773.891	198.99
774.073	205.14
774.256	198.99
774.438	172.37
774.621	258.39
774.803	266.58
774.985	211.28
775.168	203.09
775.35	147.8
775.532	217.43
775.715	231.76
775.897	207.19
776.079	254.29
776.261	119.12
776.444	158.03
776.626	141.65
776.808	299.34
776.99	196.95
777.173	227.67
777.355	201.04
777.537	211.28
777.719	223.57
777.901	270.67
778.083	135.51
778.265	137.56
778.447	194.9
778.629	164.18
778.811	145.75
778.993	186.71
779.175	158.03
779.357	160.08
779.539	131.41
779.721	176.47
779.903	233.81
780.085	166.23
780.267	100.69
780.449	166.23
780.631	178.51
780.812	127.32
780.994	164.18
781.176	211.28
781.358	166.23
781.54	194.9
781.721	160.08
781.903	184.66
782.085	158.03
782.267	110.93
782.448	147.8
782.63	108.88
782.812	123.22
782.993	98.64
783.175	170.32
783.357	133.46
783.538	119.12
783.72	160.08
783.901	123.22
784.083	59.73
784.264	168.27
784.446	139.6
784.627	76.12
784.809	102.74
784.99	108.88
785.172	92.5
785.353	129.36
785.535	139.6
785.716	53.59
785.897	153.94
786.079	137.56
786.26	115.03
786.441	74.07
786.623	78.16
786.804	143.7
786.985	172.37
787.167	65.88
787.348	98.64
787.529	158.03
787.71	106.84
787.891	145.75
788.073	125.27
788.254	158.03
788.435	137.56
788.616	84.31
788.797	33.11
788.978	86.36
789.159	61.78
789.34	88.4
789.522	41.3
789.703	115.03
789.884	0.34
790.065	139.6
790.246	108.88
790.427	125.27
790.607	90.45
790.788	143.7
790.969	164.18
791.15	96.6
791.331	41.3
791.512	158.03
791.693	61.78
791.874	74.07
792.054	72.02
792.235	164.18
792.416	125.27
792.597	139.6
792.778	131.41
792.958	201.04
793.139	78.16
793.32	55.64
793.5	43.35
793.681	106.84
793.862	82.26
794.042	59.73
794.223	43.35
794.404	127.32
794.584	16.73
794.765	117.08
794.945	119.12
795.126	176.47
795.306	131.41
795.487	33.11
795.667	100.69
795.848	14.68
796.028	37.2
796.209	84.31
796.389	67.92
796.57	125.27
796.75	55.64
796.93	16.73
797.111	69.97
797.291	115.03
797.471	43.35
797.652	55.64
797.832	102.74
798.012	96.6
798.192	53.59
798.373	123.22
798.553	133.46
798.733	127.32
798.913	90.45
799.093	98.64
799.274	22.87
799.454	26.96
799.634	10.58
799.814	139.6
799.994	90.45
800.174	80.21
800.354	20.82
800.534	49.49
800.714	74.07
800.894	0.34
801.074	41.3
801.254	29.01
801.434	33.11
801.614	143.7
801.794	31.06
801.974	338.26
802.154	78.16
802.334	74.07
802.514	76.12
802.693	74.07
802.873	31.06
803.053	106.84
803.233	51.54
803.413	29.01
803.592	0.34
803.772	2.39
803.952	78.16
804.131	106.84
804.311	12.63
804.491	127.32
804.67	69.97
804.85	53.59
805.03	115.03
805.209	57.68
805.389	82.26
805.568	67.92
805.748	45.4
805.928	-11.95
806.107	57.68
806.287	88.4
806.466	84.31
806.646	59.73
806.825	72.02
807.004	2.39
807.184	-44.71
807.363	90.45
807.543	29.01
807.722	-26.28
807.901	67.92
808.081	43.35
808.26	35.16
808.439	12.63
808.619	72.02
808.798	78.16
808.977	57.68
809.156	80.21
809.336	-20.14
809.515	51.54
809.694	55.64
809.873	57.68
810.052	88.4
810.231	69.97
810.411	43.35
810.59	-3.75
810.769	-13.99
810.948	67.92
811.127	-1.71
811.306	39.25
811.485	-13.99
811.664	47.44
811.843	14.68
812.022	63.83
812.201	26.96
812.38	26.96
812.559	92.5
812.737	100.69
812.916	-26.28
813.095	82.26
813.274	26.96
813.453	37.2
813.632	4.44
813.811	90.45
813.989	22.87
814.168	12.63
814.347	20.82
814.526	51.54
814.704	20.82
814.883	29.01
815.062	20.82
815.24	8.53
815.419	61.78
815.598	10.58
815.776	2.39
815.955	74.07
816.133	82.26
816.312	10.58
816.49	61.78
816.669	57.68
816.847	16.73
817.026	74.07
817.204	16.73
817.383	78.16
817.561	-28.33
817.74	96.6
817.918	0.34
818.097	35.16
818.275	65.88
818.453	33.11
818.632	-5.8
818.81	16.73
818.988	26.96
819.167	-73.39
819.345	45.4
819.523	74.07
819.701	67.92
819.879	26.96
820.058	37.2
820.236	-1.71
820.414	18.77
820.592	8.53
820.77	20.82
820.948	55.64
821.127	31.06
821.305	-44.71
821.483	29.01
821.661	-7.85
821.839	31.06
822.017	-40.62
822.195	-11.95
822.373	33.11
822.551	-13.99
822.729	-22.19
822.907	22.87
823.085	10.58
823.262	20.82
823.44	41.3
823.618	14.68
823.796	43.35
823.974	-16.04
824.152	90.45
824.329	35.16
824.507	-24.23
824.685	92.5
824.863	26.96
825.04	0.34
825.218	-1.71
825.396	37.2
825.574	10.58
825.751	-38.57
825.929	8.53
826.107	45.4
826.284	57.68
826.462	47.44
826.639	-34.47
826.817	20.82
826.994	8.53
827.172	-20.14
827.349	-28.33
827.527	-13.99
827.704	-5.8
827.882	53.59
828.059	-1.71
828.237	-46.76
828.414	41.3
828.591	35.16
828.769	-5.8
828.946	57.68
829.124	10.58
829.301	12.63
829.478	41.3
829.655	6.49
829.833	-7.85
830.01	8.53
830.187	22.87
830.364	76.12
830.542	33.11
830.719	80.21
830.896	20.82
831.073	18.77
831.25	-30.38
831.427	10.58
831.604	-54.95
831.782	-28.33
831.959	80.21
832.136	31.06
832.313	39.25
832.49	35.16
832.667	-40.62
832.844	-13.99
833.021	-5.8
833.198	65.88
833.374	-5.8
833.551	80.21
833.728	8.53
833.905	49.49
834.082	-7.85
834.259	-22.19
834.436	8.53
834.612	12.63
834.789	51.54
834.966	-40.62
835.143	26.96
835.319	2.39
835.496	76.12
835.673	37.2
835.85	102.74
836.026	33.11
836.203	-18.09
836.38	-18.09
836.556	12.63
836.733	20.82
836.909	0.34
837.086	22.87
837.262	6.49
837.439	-48.81
837.616	-40.62
837.792	47.44
837.968	45.4
838.145	0.34
838.321	-16.04
838.498	20.82
838.674	-5.8
838.851	-3.75
839.027	39.25
839.203	18.77
839.38	55.64
839.556	-52.91
839.732	14.68
839.909	-13.99
840.085	-38.57
840.261	22.87
840.437	-13.99
840.614	16.73
840.79	-7.85
840.966	35.16
841.142	0.34
841.318	-7.85
841.494	-20.14
841.671	45.4
841.847	49.49
842.023	-38.57
842.199	-11.95
842.375	0.34
842.551	12.63
842.727	37.2
842.903	63.83
843.079	-42.67
843.255	-16.04
843.431	-67.24
843.607	16.73
843.783	-67.24
843.959	-38.57
844.134	41.3
844.31	6.49
844.486	4.44
844.662	-59.05
844.838	-57
845.013	35.16
845.189	4.44
845.365	-38.57
845.541	-18.09
845.716	8.53
845.892	-20.14
846.068	-18.09
846.244	-26.28
846.419	-40.62
846.595	35.16
846.77	-34.47
846.946	-40.62
847.122	14.68
847.297	20.82
847.473	84.31
847.648	-20.14
847.824	2.39
847.999	-22.19
848.175	-40.62
848.35	22.87
848.526	41.3
848.701	-38.57
848.876	6.49
849.052	-20.14
849.227	8.53
849.403	-22.19
849.578	78.16
849.753	10.58
849.929	94.55
850.104	0.34
850.279	26.96
850.454	-16.04
850.63	45.4
850.805	-30.38
850.98	0.34
851.155	37.2
851.33	24.92
851.505	-69.29
851.681	24.92
851.856	-28.33
852.031	-52.91
852.206	-91.82
852.381	-34.47
852.556	22.87
852.731	29.01
852.906	37.2
853.081	18.77
853.256	16.73
853.431	-65.19
853.606	-40.62
853.781	10.58
853.956	39.25
854.131	2.39
854.305	-65.19
854.48	-30.38
854.655	-44.71
854.83	49.49
855.005	-40.62
855.18	33.11
855.354	0.34
855.529	51.54
855.704	33.11
855.879	-36.52
856.053	-9.9
856.228	14.68
856.403	24.92
856.577	-18.09
856.752	90.45
856.926	0.34
857.101	-3.75
857.276	-102.06
857.45	16.73
857.625	80.21
857.799	22.87
857.974	78.16
858.148	10.58
858.323	65.88
858.497	29.01
858.672	39.25
858.846	-26.28
859.02	67.92
859.195	22.87
859.369	-7.85
859.543	-16.04
859.718	-93.87
859.892	-73.39
860.066	2.39
860.241	-9.9
860.415	-5.8
860.589	-18.09
860.763	-87.72
860.938	-13.99
861.112	10.58
861.286	12.63
861.46	63.83
861.634	-26.28
861.808	45.4
861.982	-24.23
862.157	10.58
862.331	-18.09
862.505	6.49
862.679	-11.95
862.853	37.2
863.027	12.63
863.201	0.34
863.375	-7.85
863.549	8.53
863.722	-67.24
863.896	33.11
864.07	-26.28
864.244	104.79
864.418	4.44
864.592	37.2
864.766	-13.99
864.939	-52.91
865.113	-28.33
865.287	-7.85
865.461	-3.75
865.634	14.68
865.808	57.68
865.982	41.3
866.156	-24.23
866.329	31.06
866.503	-18.09
866.676	-24.23
866.85	-50.86
867.024	-9.9
867.197	29.01
867.371	45.4
867.544	-7.85
867.718	41.3
867.891	2.39
868.065	63.83
868.238	-79.53
868.412	0.34
868.585	-7.85
868.759	18.77
868.932	8.53
869.105	-11.95
869.279	-36.52
869.452	14.68
869.625	33.11
869.799	-42.67
869.972	2.39
870.145	16.73
870.319	-9.9
870.492	-1.71
870.665	-13.99
870.838	-63.15
871.011	20.82
871.185	-59.05
871.358	-93.87
871.531	51.54
871.704	-20.14
871.877	20.82
872.05	-48.81
872.223	-20.14
872.396	24.92
872.569	-24.23
872.742	8.53
872.915	-18.09
873.088	-26.28
873.261	57.68
873.434	4.44
873.607	10.58
873.78	6.49
873.953	-22.19
874.126	20.82
874.299	-24.23
874.471	-7.85
874.644	-34.47
874.817	47.44
874.99	59.73
875.163	55.64
875.335	-11.95
875.508	-13.99
875.681	45.4
875.853	-57
876.026	63.83
876.199	100.69
876.371	57.68
876.544	-52.91
876.717	-11.95
876.889	4.44
877.062	-26.28
877.234	0.34
877.407	-32.43
877.579	-42.67
877.752	-32.43
877.924	37.2
878.097	26.96
878.269	10.58
878.442	-1.71
878.614	-24.23
878.786	20.82
878.959	-75.43
879.131	-20.14
879.303	49.49
879.476	16.73
879.648	-26.28
879.82	24.92
879.993	-26.28
880.165	0.34
880.337	-54.95
880.509	45.4
880.681	31.06
880.854	-18.09
881.026	-22.19
881.198	-11.95
881.37	-28.33
881.542	14.68
881.714	-5.8
881.886	24.92
882.058	-1.71
882.23	-16.04
882.402	-40.62
882.574	-26.28
882.746	-50.86
882.918	-5.8
883.09	0.34
883.262	-13.99
883.434	12.63
883.606	-22.19
883.778	16.73
883.95	18.77
884.122	-46.76
884.293	-36.52
884.465	-30.38
884.637	-18.09
884.809	-52.91
884.98	16.73
885.152	-48.81
885.324	2.39
885.496	-40.62
885.667	-24.23
885.839	-5.8
886.011	35.16
886.182	24.92
886.354	22.87
886.525	-38.57
886.697	43.35
886.869	-22.19
887.04	-67.24
887.212	8.53
887.383	20.82
887.555	45.4
887.726	24.92
887.897	53.59
888.069	-3.75
888.24	4.44
888.412	59.73
888.583	-24.23
888.754	65.88
888.926	-9.9
889.097	-16.04
889.268	49.49
889.44	-28.33
889.611	4.44
889.782	-46.76
889.953	94.55
890.125	43.35
890.296	-44.71
890.467	2.39
890.638	45.4
890.809	-57
890.98	-34.47
891.151	6.49
891.323	-48.81
891.494	-44.71
891.665	2.39
891.836	-75.43
892.007	-52.91
892.178	-40.62
892.349	-9.9
892.52	0.34
892.691	0.34
892.862	-81.58
893.032	-126.63
893.203	-20.14
893.374	-24.23
893.545	8.53
893.716	-9.9
893.887	-7.85
894.057	-1.71
894.228	-85.67
894.399	-1.71
894.57	-22.19
894.74	31.06
894.911	-22.19
895.082	41.3
895.253	-36.52
895.423	-7.85
895.594	2.39
895.764	4.44
895.935	-5.8
896.106	4.44
896.276	-22.19
896.447	-40.62
896.617	-5.8
896.788	-52.91
896.958	18.77
897.129	-22.19
897.299	-24.23
897.47	-61.1
897.64	10.58
897.81	-89.77
897.981	-5.8
898.151	-57
898.322	-16.04
898.492	22.87
898.662	-30.38
898.832	-22.19
899.003	-3.75
899.173	-26.28
899.343	-7.85
899.513	6.49
