Data from USB4F104151__18__12-53-22-487.txt Node

Date: Fri Mar 14 12:53:22 EDT 2025
User: louis
Spectrometer: USB4F10415
Trigger mode: 4
Integration Time (sec): 1.000000E-2
Scans to average: 1
Electric dark correction enabled: true
Nonlinearity correction enabled: false
Boxcar width: 0
XAxis mode: Wavelengths
Number of Pixels in Spectrum: 3648
>>>>>Begin Spectral Data<<<<<
178.204	-15.87
178.424	-15.87
178.644	-15.87
178.864	-44.54
179.084	8.7
179.304	31.23
179.524	39.42
179.744	4.61
179.964	31.23
180.184	4.61
180.404	-13.82
180.624	23.04
180.844	-38.4
181.064	-19.97
181.283	39.42
181.503	-75.26
181.723	-26.11
181.943	-28.16
182.163	70.14
182.383	-38.4
182.602	94.72
182.822	20.99
183.042	51.71
183.262	-42.5
183.482	6.66
183.701	10.75
183.921	-7.68
184.141	33.28
184.361	-26.11
184.58	20.99
184.8	6.66
185.02	-30.21
185.239	14.85
185.459	-32.26
185.679	92.67
185.898	-5.63
186.118	72.19
186.338	18.94
186.557	78.33
186.777	-11.78
186.997	31.23
187.216	4.61
187.436	35.33
187.655	-11.78
187.875	12.8
188.095	-42.5
188.314	16.9
188.534	23.04
188.753	27.14
188.973	27.14
189.192	12.8
189.412	49.66
189.631	45.57
189.851	-34.3
190.07	2.56
190.29	-30.21
190.509	14.85
190.729	12.8
190.948	-73.21
191.168	53.76
191.387	18.94
191.607	41.47
191.826	-13.82
192.045	-50.69
192.265	14.85
192.484	-24.06
192.704	80.38
192.923	12.8
193.142	64
193.362	41.47
193.581	104.96
193.8	10.75
194.02	-40.45
194.239	-15.87
194.458	39.42
194.678	-42.5
194.897	33.28
195.116	-15.87
195.335	0.51
195.555	53.76
195.774	-15.87
195.993	-32.26
196.212	64
196.432	-28.16
196.651	59.9
196.87	16.9
197.089	47.62
197.308	12.8
197.528	6.66
197.747	-15.87
197.966	64
198.185	8.7
198.404	33.28
198.623	29.18
198.842	6.66
199.062	25.09
199.281	57.86
199.5	72.19
199.719	20.99
199.938	-7.68
200.157	0.51
200.376	90.62
200.595	35.33
200.814	-19.97
201.033	64
201.252	35.33
201.471	25.09
201.69	-7.68
201.909	47.62
202.128	2.56
202.347	-1.54
202.566	61.95
202.785	16.9
203.004	64
203.223	18.94
203.442	-17.92
203.661	-1.54
203.879	18.94
204.098	-9.73
204.317	6.66
204.536	47.62
204.755	-32.26
204.974	-5.63
205.193	51.71
205.411	53.76
205.63	-24.06
205.849	-28.16
206.068	64
206.287	12.8
206.505	18.94
206.724	86.53
206.943	-58.88
207.162	31.23
207.381	82.43
207.599	-73.21
207.818	98.81
208.037	20.99
208.255	41.47
208.474	18.94
208.693	8.7
208.911	18.94
209.13	84.48
209.349	35.33
209.567	27.14
209.786	12.8
210.005	-1.54
210.223	14.85
210.442	-22.02
210.661	53.76
210.879	12.8
211.098	23.04
211.316	31.23
211.535	4.61
211.753	-17.92
211.972	57.86
212.191	20.99
212.409	70.14
212.628	74.24
212.846	-1.54
213.065	8.7
213.283	76.29
213.502	-38.4
213.72	47.62
213.938	-42.5
214.157	-3.58
214.375	-56.83
214.594	23.04
214.812	-11.78
215.031	14.85
215.249	-9.73
215.467	8.7
215.686	6.66
215.904	57.86
216.122	41.47
216.341	25.09
216.559	82.43
216.778	-13.82
216.996	68.09
217.214	-38.4
217.432	53.76
217.651	29.18
217.869	31.23
218.087	41.47
218.306	76.29
218.524	61.95
218.742	-81.41
218.96	74.24
219.179	-3.58
219.397	2.56
219.615	0.51
219.833	37.38
220.051	16.9
220.27	96.77
220.488	8.7
220.706	-17.92
220.924	-30.21
221.142	-30.21
221.36	-56.83
221.578	-15.87
221.796	51.71
222.015	-1.54
222.233	35.33
222.451	94.72
222.669	59.9
222.887	20.99
223.105	-26.11
223.323	80.38
223.541	78.33
223.759	33.28
223.977	-34.3
224.195	76.29
224.413	86.53
224.631	41.47
224.849	12.8
225.067	-11.78
225.285	-24.06
225.503	43.52
225.721	23.04
225.939	12.8
226.157	27.14
226.375	41.47
226.592	45.57
226.81	39.42
227.028	-5.63
227.246	23.04
227.464	23.04
227.682	41.47
227.9	35.33
228.117	66.05
228.335	6.66
228.553	47.62
228.771	12.8
228.989	43.52
229.206	39.42
229.424	16.9
229.642	-15.87
229.86	64
230.077	18.94
230.295	-5.63
230.513	43.52
230.731	-13.82
230.948	47.62
231.166	-60.93
231.384	41.47
231.601	27.14
231.819	31.23
232.037	-3.58
232.254	47.62
232.472	0.51
232.689	12.8
232.907	8.7
233.125	-17.92
233.342	39.42
233.56	-44.54
233.777	41.47
233.995	-65.02
234.213	18.94
234.43	64
234.648	47.62
234.865	72.19
235.083	20.99
235.3	64
235.518	53.76
235.735	68.09
235.953	4.61
236.17	0.51
236.388	43.52
236.605	-5.63
236.822	2.56
237.04	43.52
237.257	49.66
237.475	-38.4
237.692	61.95
237.909	45.57
238.127	31.23
238.344	27.14
238.562	49.66
238.779	-9.73
238.996	16.9
239.214	-42.5
239.431	-9.73
239.648	-17.92
239.865	18.94
240.083	25.09
240.3	-38.4
240.517	8.7
240.735	-5.63
240.952	-1.54
241.169	6.66
241.386	-1.54
241.603	10.75
241.821	8.7
242.038	6.66
242.255	-52.74
242.472	25.09
242.689	84.48
242.907	76.29
243.124	55.81
243.341	14.85
243.558	6.66
243.775	-5.63
243.992	35.33
244.209	18.94
244.426	-40.45
244.643	47.62
244.86	18.94
245.078	8.7
245.295	18.94
245.512	-28.16
245.729	27.14
245.946	14.85
246.163	31.23
246.38	-40.45
246.597	74.24
246.814	43.52
247.031	18.94
247.248	39.42
247.464	33.28
247.681	82.43
247.898	6.66
248.115	78.33
248.332	29.18
248.549	68.09
248.766	53.76
248.983	20.99
249.2	-60.93
249.417	27.14
249.633	10.75
249.85	4.61
250.067	14.85
250.284	78.33
250.501	10.75
250.717	-17.92
250.934	31.23
251.151	35.33
251.368	-36.35
251.585	-7.68
251.801	20.99
252.018	33.28
252.235	16.9
252.451	41.47
252.668	4.61
252.885	82.43
253.102	102.91
253.318	45.57
253.535	-46.59
253.752	47.62
253.968	37.38
254.185	-67.07
254.401	23.04
254.618	-60.93
254.835	29.18
255.051	31.23
255.268	-69.12
255.484	115.2
255.701	47.62
255.917	47.62
256.134	27.14
256.351	-24.06
256.567	-9.73
256.784	2.56
257	-46.59
257.217	92.67
257.433	57.86
257.65	23.04
257.866	12.8
258.082	78.33
258.299	41.47
258.515	82.43
258.732	-13.82
258.948	68.09
259.165	47.62
259.381	12.8
259.597	47.62
259.814	-32.26
260.03	-19.97
260.246	88.57
260.463	20.99
260.679	14.85
260.895	-28.16
261.112	66.05
261.328	14.85
261.544	49.66
261.761	88.57
261.977	8.7
262.193	18.94
262.409	82.43
262.626	47.62
262.842	-69.12
263.058	-24.06
263.274	33.28
263.49	113.15
263.707	51.71
263.923	-15.87
264.139	53.76
264.355	16.9
264.571	82.43
264.787	27.14
265.004	23.04
265.22	61.95
265.436	16.9
265.652	45.57
265.868	-9.73
266.084	16.9
266.3	29.18
266.516	-30.21
266.732	-15.87
266.948	25.09
267.164	-11.78
267.38	35.33
267.596	2.56
267.812	-3.58
268.028	20.99
268.244	-30.21
268.46	57.86
268.676	61.95
268.892	12.8
269.108	37.38
269.324	57.86
269.54	-52.74
269.756	8.7
269.972	10.75
270.188	-9.73
270.403	49.66
270.619	90.62
270.835	31.23
271.051	53.76
271.267	-32.26
271.483	16.9
271.698	31.23
271.914	-3.58
272.13	10.75
272.346	8.7
272.562	12.8
272.777	78.33
272.993	23.04
273.209	31.23
273.425	74.24
273.64	-3.58
273.856	29.18
274.072	6.66
274.287	-15.87
274.503	70.14
274.719	-44.54
274.934	39.42
275.15	25.09
275.366	-13.82
275.581	6.66
275.797	-1.54
276.012	0.51
276.228	-34.3
276.444	18.94
276.659	68.09
276.875	61.95
277.09	37.38
277.306	35.33
277.521	72.19
277.737	18.94
277.952	74.24
278.168	33.28
278.383	-13.82
278.599	20.99
278.814	27.14
279.03	33.28
279.245	98.81
279.461	80.38
279.676	-17.92
279.892	-67.07
280.107	64
280.322	29.18
280.538	57.86
280.753	39.42
280.969	-15.87
281.184	49.66
281.399	41.47
281.615	31.23
281.83	74.24
282.045	-44.54
282.26	-7.68
282.476	0.51
282.691	72.19
282.906	57.86
283.122	23.04
283.337	-7.68
283.552	12.8
283.767	78.33
283.983	88.57
284.198	59.9
284.413	47.62
284.628	0.51
284.843	41.47
285.058	16.9
285.274	53.76
285.489	-1.54
285.704	39.42
285.919	-36.35
286.134	80.38
286.349	18.94
286.564	31.23
286.779	43.52
286.995	-34.3
287.21	39.42
287.425	-30.21
287.64	-13.82
287.855	23.04
288.07	43.52
288.285	-50.69
288.5	51.71
288.715	90.62
288.93	-5.63
289.145	61.95
289.36	12.8
289.575	25.09
289.79	41.47
290.004	55.81
290.219	55.81
290.434	57.86
290.649	31.23
290.864	-9.73
291.079	23.04
291.294	20.99
291.509	94.72
291.724	55.81
291.938	31.23
292.153	-13.82
292.368	-40.45
292.583	104.96
292.798	-1.54
293.012	-7.68
293.227	0.51
293.442	4.61
293.657	12.8
293.871	14.85
294.086	16.9
294.301	2.56
294.516	51.71
294.73	92.67
294.945	0.51
295.16	49.66
295.374	-50.69
295.589	100.86
295.804	18.94
296.018	51.71
296.233	0.51
296.447	68.09
296.662	70.14
296.877	-15.87
297.091	16.9
297.306	31.23
297.52	27.14
297.735	90.62
297.949	-30.21
298.164	27.14
298.378	-22.02
298.593	-34.3
298.807	33.28
299.022	53.76
299.236	14.85
299.451	29.18
299.665	-1.54
299.88	-3.58
300.094	43.52
300.309	41.47
300.523	-7.68
300.737	8.7
300.952	25.09
301.166	55.81
301.381	10.75
301.595	33.28
301.809	70.14
302.024	-32.26
302.238	14.85
302.452	6.66
302.667	-15.87
302.881	27.14
303.095	29.18
303.309	98.81
303.524	43.52
303.738	-5.63
303.952	-11.78
304.166	43.52
304.381	25.09
304.595	57.86
304.809	16.9
305.023	2.56
305.237	-7.68
305.452	-7.68
305.666	18.94
305.88	61.95
306.094	84.48
306.308	49.66
306.522	70.14
306.736	76.29
306.95	78.33
307.164	8.7
307.379	18.94
307.593	2.56
307.807	-9.73
308.021	86.53
308.235	10.75
308.449	27.14
308.663	-15.87
308.877	53.76
309.091	70.14
309.305	49.66
309.519	8.7
309.733	-5.63
309.947	-13.82
310.161	14.85
310.374	10.75
310.588	31.23
310.802	33.28
311.016	47.62
311.23	-11.78
311.444	8.7
311.658	53.76
311.872	39.42
312.085	66.05
312.299	49.66
312.513	37.38
312.727	41.47
312.941	-9.73
313.154	51.71
313.368	39.42
313.582	-1.54
313.796	0.51
314.009	-30.21
314.223	78.33
314.437	88.57
314.651	86.53
314.864	-54.78
315.078	49.66
315.292	-30.21
315.505	-9.73
315.719	8.7
315.933	6.66
316.146	33.28
316.36	-13.82
316.573	66.05
316.787	8.7
317.001	80.38
317.214	37.38
317.428	64
317.641	-19.97
317.855	51.71
318.068	-22.02
318.282	-71.17
318.495	31.23
318.709	39.42
318.922	33.28
319.136	96.77
319.349	0.51
319.563	-40.45
319.776	-32.26
319.99	25.09
320.203	27.14
320.417	0.51
320.63	-36.35
320.843	92.67
321.057	76.29
321.27	66.05
321.483	49.66
321.697	-5.63
321.91	53.76
322.124	37.38
322.337	16.9
322.55	-22.02
322.763	-15.87
322.977	35.33
323.19	8.7
323.403	-5.63
323.617	-5.63
323.83	-36.35
324.043	74.24
324.256	25.09
324.469	43.52
324.683	49.66
324.896	20.99
325.109	8.7
325.322	6.66
325.535	8.7
325.748	29.18
325.962	20.99
326.175	25.09
326.388	57.86
326.601	-24.06
326.814	35.33
327.027	-22.02
327.24	39.42
327.453	16.9
327.666	41.47
327.879	2.56
328.092	64
328.305	-15.87
328.518	41.47
328.731	37.38
328.944	39.42
329.157	-11.78
329.37	37.38
329.583	-28.16
329.796	72.19
330.009	-15.87
330.222	-9.73
330.435	18.94
330.648	25.09
330.861	18.94
331.073	64
331.286	18.94
331.499	-3.58
331.712	51.71
331.925	84.48
332.138	-9.73
332.35	35.33
332.563	45.57
332.776	82.43
332.989	37.38
333.202	45.57
333.414	37.38
333.627	33.28
333.84	16.9
334.053	25.09
334.265	25.09
334.478	-3.58
334.691	-36.35
334.903	70.14
335.116	-19.97
335.329	35.33
335.541	27.14
335.754	88.57
335.966	51.71
336.179	18.94
336.392	53.76
336.604	86.53
336.817	68.09
337.029	16.9
337.242	82.43
337.454	-7.68
337.667	-40.45
337.88	25.09
338.092	25.09
338.305	53.76
338.517	43.52
338.729	-26.11
338.942	-9.73
339.154	76.29
339.367	20.99
339.579	33.28
339.792	-19.97
340.004	-5.63
340.217	18.94
340.429	96.77
340.641	64
340.854	23.04
341.066	86.53
341.278	76.29
341.491	0.51
341.703	47.62
341.915	51.71
342.128	8.7
342.34	39.42
342.552	-24.06
342.764	12.8
342.977	18.94
343.189	57.86
343.401	53.76
343.613	59.9
343.826	23.04
344.038	59.9
344.25	25.09
344.462	4.61
344.674	66.05
344.886	-7.68
345.099	43.52
345.311	20.99
345.523	12.8
345.735	8.7
345.947	57.86
346.159	66.05
346.371	39.42
346.583	37.38
346.795	-3.58
347.007	14.85
347.219	37.38
347.431	10.75
347.643	25.09
347.855	12.8
348.067	31.23
348.279	8.7
348.491	45.57
348.703	0.51
348.915	51.71
349.127	-42.5
349.339	55.81
349.551	43.52
349.763	8.7
349.975	23.04
350.187	33.28
350.399	49.66
350.61	18.94
350.822	18.94
351.034	0.51
351.246	35.33
351.458	29.18
351.669	14.85
351.881	51.71
352.093	14.85
352.305	72.19
352.517	4.61
352.728	70.14
352.94	-30.21
353.152	-13.82
353.363	55.81
353.575	12.8
353.787	41.47
353.999	-7.68
354.21	-9.73
354.422	16.9
354.633	-34.3
354.845	14.85
355.057	-32.26
355.268	61.95
355.48	41.47
355.692	88.57
355.903	-48.64
356.115	25.09
356.326	-36.35
356.538	49.66
356.749	-7.68
356.961	55.81
357.172	33.28
357.384	-32.26
357.595	31.23
357.807	8.7
358.018	-1.54
358.23	39.42
358.441	104.96
358.653	66.05
358.864	70.14
359.075	-5.63
359.287	55.81
359.498	94.72
359.709	25.09
359.921	23.04
360.132	6.66
360.344	6.66
360.555	70.14
360.766	47.62
360.977	16.9
361.189	-26.11
361.4	18.94
361.611	82.43
361.823	27.14
362.034	14.85
362.245	-65.02
362.456	25.09
362.667	53.76
362.879	27.14
363.09	53.76
363.301	6.66
363.512	29.18
363.723	41.47
363.935	2.56
364.146	68.09
364.357	-17.92
364.568	0.51
364.779	18.94
364.99	59.9
365.201	-28.16
365.412	-5.63
365.623	27.14
365.834	49.66
366.045	16.9
366.256	92.67
366.467	53.76
366.678	14.85
366.889	-5.63
367.1	59.9
367.311	53.76
367.522	74.24
367.733	-30.21
367.944	53.76
368.155	45.57
368.366	57.86
368.577	-11.78
368.788	33.28
368.999	37.38
369.209	-22.02
369.42	68.09
369.631	14.85
369.842	98.81
370.053	-3.58
370.264	59.9
370.474	6.66
370.685	2.56
370.896	6.66
371.107	25.09
371.317	72.19
371.528	74.24
371.739	117.25
371.95	25.09
372.16	66.05
372.371	39.42
372.582	16.9
372.792	8.7
373.003	25.09
373.214	-1.54
373.424	-26.11
373.635	37.38
373.846	59.9
374.056	72.19
374.267	76.29
374.477	-24.06
374.688	39.42
374.898	33.28
375.109	49.66
375.319	-24.06
375.53	55.81
375.74	51.71
375.951	72.19
376.161	41.47
376.372	27.14
376.582	107.01
376.793	0.51
377.003	29.18
377.214	23.04
377.424	-32.26
377.635	-48.64
377.845	29.18
378.055	-9.73
378.266	45.57
378.476	57.86
378.686	78.33
378.897	61.95
379.107	61.95
379.317	66.05
379.528	18.94
379.738	68.09
379.948	-3.58
380.158	55.81
380.369	37.38
380.579	45.57
380.789	12.8
380.999	27.14
381.21	12.8
381.42	51.71
381.63	72.19
381.84	-5.63
382.05	16.9
382.261	-42.5
382.471	-17.92
382.681	70.14
382.891	96.77
383.101	53.76
383.311	-24.06
383.521	-22.02
383.731	29.18
383.941	29.18
384.151	39.42
384.361	14.85
384.571	8.7
384.781	2.56
384.991	82.43
385.201	59.9
385.411	-1.54
385.621	53.76
385.831	25.09
386.041	-13.82
386.251	-1.54
386.461	20.99
386.671	49.66
386.881	20.99
387.091	55.81
387.301	20.99
387.511	14.85
387.72	33.28
387.93	35.33
388.14	25.09
388.35	39.42
388.56	18.94
388.769	55.81
388.979	68.09
389.189	66.05
389.399	33.28
389.609	64
389.818	74.24
390.028	23.04
390.238	96.77
390.447	61.95
390.657	37.38
390.867	49.66
391.076	31.23
391.286	59.9
391.496	100.86
391.705	20.99
391.915	59.9
392.125	84.48
392.334	55.81
392.544	90.62
392.753	27.14
392.963	113.15
393.172	64
393.382	74.24
393.591	86.53
393.801	33.28
394.01	14.85
394.22	25.09
394.429	8.7
394.639	20.99
394.848	86.53
395.058	29.18
395.267	55.81
395.477	59.9
395.686	45.57
395.895	53.76
396.105	29.18
396.314	51.71
396.524	20.99
396.733	41.47
396.942	72.19
397.152	31.23
397.361	-13.82
397.57	-5.63
397.78	51.71
397.989	119.29
398.198	23.04
398.407	8.7
398.617	68.09
398.826	70.14
399.035	18.94
399.244	68.09
399.453	14.85
399.663	-28.16
399.872	35.33
400.081	18.94
400.29	53.76
400.499	37.38
400.708	43.52
400.917	57.86
401.127	84.48
401.336	31.23
401.545	64
401.754	10.75
401.963	49.66
402.172	70.14
402.381	0.51
402.59	47.62
402.799	18.94
403.008	78.33
403.217	49.66
403.426	102.91
403.635	66.05
403.844	41.47
404.053	61.95
404.262	39.42
404.471	68.09
404.68	96.77
404.888	39.42
405.097	6.66
405.306	123.39
405.515	98.81
405.724	39.42
405.933	64
406.142	33.28
406.35	111.1
406.559	104.96
406.768	49.66
406.977	121.34
407.185	29.18
407.394	43.52
407.603	88.57
407.812	137.73
408.02	104.96
408.229	70.14
408.438	88.57
408.646	59.9
408.855	102.91
409.064	100.86
409.272	147.97
409.481	117.25
409.69	115.2
409.898	115.2
410.107	158.21
410.315	141.82
410.524	154.11
410.733	154.11
410.941	156.16
411.15	178.69
411.358	88.57
411.567	127.49
411.775	107.01
411.984	236.03
412.192	178.69
412.401	129.53
412.609	188.93
412.818	250.36
413.026	186.88
413.234	176.64
413.443	227.84
413.651	182.78
413.86	201.21
414.068	209.4
414.276	256.51
414.485	272.89
414.693	229.88
414.901	358.91
415.11	270.84
415.318	287.23
415.526	334.33
415.734	320
415.943	299.52
416.151	375.29
416.359	334.33
416.567	350.71
416.776	328.19
416.984	350.71
417.192	391.67
417.4	375.29
417.608	334.33
417.817	465.4
418.025	403.96
418.233	430.59
418.441	455.16
418.649	541.18
418.857	444.92
419.065	643.57
419.273	477.69
419.481	522.74
419.689	522.74
419.897	563.7
420.105	590.33
420.313	567.8
420.521	592.37
420.729	709.11
420.937	645.62
421.145	694.77
421.353	688.63
421.561	741.88
421.769	754.16
421.977	793.08
422.185	752.12
422.393	811.51
422.601	877.04
422.809	907.76
423.017	971.25
423.224	967.15
423.432	1016.3
423.64	997.87
423.848	1065.46
424.056	1038.83
424.263	1208.81
424.471	1075.7
424.679	1208.81
424.887	1122.8
425.094	1186.29
425.302	1159.66
425.51	1358.32
425.718	1360.36
425.925	1257.96
426.133	1374.7
426.341	1411.56
426.548	1489.39
426.756	1505.77
426.964	1509.86
427.171	1665.51
427.379	1659.37
427.586	1710.57
427.794	1792.48
428.001	1761.77
428.209	1858.02
428.417	1970.66
428.624	2081.25
428.832	1929.7
429.039	1925.6
429.247	2093.54
429.454	2206.17
429.662	2312.67
429.869	2126.3
430.076	2167.26
430.284	2288.09
430.491	2406.88
430.699	2501.08
430.906	2468.31
431.114	2552.28
431.321	2636.25
431.528	2660.82
431.736	2918.87
431.943	2922.96
432.15	2867.67
432.358	2894.29
432.565	3023.31
432.772	3080.66
432.979	3328.46
433.187	3432.91
433.394	3314.13
433.601	3420.62
433.808	3594.7
434.016	3500.49
434.223	3754.44
434.43	3899.84
434.637	3840.45
434.844	4035.01
435.052	4129.22
435.259	4094.4
435.466	4260.29
435.673	4164.03
435.88	4342.21
436.087	4659.64
436.294	4749.75
436.501	4536.76
436.708	4686.26
436.915	4866.49
437.122	4919.73
437.329	4938.16
437.537	5261.74
437.743	5319.09
437.95	5020.08
438.157	5419.44
438.364	5589.42
438.571	5654.95
438.778	5579.18
438.985	6273.44
439.192	5847.46
439.399	6128.03
439.606	6123.94
439.813	6240.67
440.02	6687.13
440.227	6486.43
440.433	6396.32
440.64	6767
440.847	6666.65
441.054	6986.13
441.261	7522.7
441.467	7197.07
441.674	7332.24
441.881	7655.82
442.088	7657.87
442.294	7598.48
442.501	7821.7
442.708	7995.78
442.914	8223.11
443.121	8790.39
443.328	8313.22
443.534	9156.98
443.741	8808.83
443.948	8544.64
444.154	9070.97
444.361	9322.87
444.568	9390.45
444.774	9208.18
444.981	9097.59
445.187	9632.11
445.394	9976.17
445.6	10150.25
445.807	10799.45
446.013	10545.5
446.22	10645.85
446.426	11223.38
446.633	11223.38
446.839	11641.17
447.046	10967.38
447.252	11661.65
447.459	11702.61
447.665	11626.83
447.871	12005.7
448.078	12962.11
448.284	12124.49
448.491	12505.41
448.697	13123.9
448.903	13201.72
449.11	13164.86
449.316	12816.7
449.522	13482.29
449.728	13746.48
449.935	13803.82
450.141	13590.83
450.347	14139.69
450.553	13685.04
450.76	14008.62
450.966	14262.57
451.172	14166.31
451.378	14530.85
451.584	14082.35
451.791	14330.15
451.997	14543.14
452.203	14649.63
452.409	14938.4
452.615	14647.58
452.821	14133.54
453.027	14004.52
453.233	14881.05
453.44	14278.95
453.646	14373.16
453.852	14563.62
454.058	14639.39
454.264	14129.45
454.47	14686.5
454.676	14074.15
454.882	14764.32
455.088	13265.21
455.294	13500.72
455.5	13570.35
455.705	13693.23
455.911	13162.81
456.117	12990.78
456.323	13160.76
456.529	12360
456.735	12886.33
456.941	12327.24
457.147	12054.86
457.352	11845.96
457.558	11958.6
457.764	11878.73
457.97	11827.53
458.176	11313.49
458.381	11323.73
458.587	10811.74
458.793	11012.44
458.999	10269.03
459.204	11172.18
459.41	10701.15
459.616	9791.85
459.821	9851.24
460.027	9847.15
460.233	9939.3
460.438	9302.39
460.644	9386.35
460.85	9058.68
461.055	8808.83
461.261	8937.85
461.466	8262.02
461.672	7733.64
461.878	8702.33
462.083	8014.21
462.289	7774.6
462.494	7838.09
462.7	7319.95
462.905	7190.93
463.111	7608.72
463.316	7444.88
463.522	7457.17
463.727	7293.33
463.932	7350.67
464.138	7209.36
464.343	7352.72
464.549	7221.65
464.754	7414.16
464.959	7420.3
465.165	7352.72
465.37	6957.46
465.575	6797.72
465.781	7080.34
465.986	7190.93
466.191	7002.52
466.397	6887.83
466.602	6582.68
466.807	6611.36
467.012	6717.85
467.218	6656.41
467.423	6521.24
467.628	6719.9
467.833	6936.98
468.038	6707.61
468.244	6332.83
468.449	6652.31
468.654	6490.52
468.859	6527.39
469.064	6517.15
469.269	6199.71
469.474	6310.3
469.679	6285.73
469.885	6230.43
470.09	6171.04
470.295	6263.2
470.5	5956.01
470.705	6160.8
470.91	5986.72
471.115	5802.41
471.32	5894.57
471.525	5933.48
471.73	5917.09
471.935	5925.29
472.139	5599.66
472.344	5566.89
472.549	5562.8
472.754	5624.23
472.959	5501.36
473.164	5302.7
473.369	5314.99
473.574	5460.4
473.778	5431.73
473.983	5335.47
474.188	5204.4
474.393	5046.71
474.598	5134.77
474.802	5048.75
475.007	4913.59
475.212	5077.43
475.417	4917.68
475.621	4911.54
475.826	4927.92
476.031	4821.43
476.235	4655.54
476.44	4837.81
476.645	4702.65
476.849	4794.81
477.054	4614.59
477.259	4714.94
477.463	4454.84
477.668	4366.78
477.872	4248
478.077	4338.11
478.282	4424.12
478.486	4274.62
478.691	4123.07
478.895	4280.77
479.1	4104.64
479.304	4198.85
479.509	4030.91
479.713	4127.17
479.918	4090.31
480.122	4084.16
480.326	4045.25
480.531	4135.36
480.735	4004.29
480.94	4071.87
481.144	4215.23
481.348	3897.8
481.553	4082.11
481.757	3889.6
481.961	3873.22
482.166	3987.91
482.37	3840.45
482.574	3934.66
482.778	3840.45
482.983	3957.19
483.187	3830.21
483.391	3844.55
483.595	3797.45
483.8	3766.73
484.004	3924.42
484.208	3903.94
484.412	3867.08
484.616	3922.37
484.821	3953.09
485.025	3905.99
485.229	3989.96
485.433	3957.19
485.637	3850.69
485.841	3897.8
486.045	3938.76
486.249	3842.5
486.453	3883.46
486.657	4022.72
486.861	3983.81
487.065	3998.15
487.269	4002.24
487.473	3963.33
487.677	4004.29
487.881	3975.62
488.085	3998.15
488.289	4008.39
488.493	3989.96
488.697	4002.24
488.901	4037.06
489.105	4143.55
489.309	4020.67
489.512	4112.83
489.716	4100.55
489.92	4153.79
490.124	3985.86
490.328	4221.38
490.531	4170.18
490.735	4098.5
490.939	4233.66
491.143	4184.51
491.346	4118.98
491.55	4174.27
491.754	4219.33
491.958	4315.58
492.161	4391.36
492.365	4374.97
492.569	4254.14
492.772	4313.53
492.976	4405.69
493.18	4370.88
493.383	4561.34
493.587	4565.43
493.79	4698.55
493.994	4614.59
494.197	4569.53
494.401	4657.59
494.605	4430.27
494.808	4868.53
495.012	4684.22
495.215	4886.97
495.419	4981.17
495.622	4874.68
495.825	4815.29
496.029	4827.57
496.232	5009.84
496.436	5036.47
496.639	5046.71
496.843	5239.22
497.046	5337.52
497.249	5276.08
497.453	5372.33
497.656	5441.96
497.859	5446.06
498.063	5620.14
498.266	5552.56
498.469	5781.93
498.673	5738.92
498.876	5931.43
499.079	5939.62
499.282	5900.71
499.485	6021.54
499.689	6056.36
499.892	6183.33
500.095	6316.45
500.298	6508.96
500.501	6367.65
500.705	6547.87
500.908	6605.21
501.111	6746.52
501.314	6924.69
501.517	6945.17
501.72	6896.02
501.923	7043.48
502.126	7072.15
502.329	7303.57
502.532	7373.2
502.735	7489.93
502.938	7461.26
503.141	7510.41
503.344	7743.88
503.547	7930.25
503.75	7911.82
503.953	8083.84
504.156	7993.73
504.359	8249.73
504.562	8491.39
504.765	8610.17
504.968	8505.73
505.17	8751.48
505.373	8761.72
505.576	8952.18
505.779	8841.59
505.982	9017.72
506.185	9464.18
506.387	9232.76
506.59	9392.5
506.793	9875.82
506.996	9892.2
507.198	9836.91
507.401	10076.52
507.604	10021.22
507.807	10455.39
508.009	10410.34
508.212	10344.8
508.415	10518.88
508.617	10692.96
508.82	10809.69
509.022	11016.54
509.225	10936.67
509.428	11268.44
509.63	11454.8
509.833	11632.97
510.035	11882.83
510.238	11731.28
510.44	11991.37
510.643	12116.3
510.845	12216.65
511.048	12323.14
511.25	12560.7
511.453	12515.65
511.655	12872
511.858	12939.58
512.06	13328.69
512.262	13312.31
512.465	13175.09
512.667	13455.67
512.87	13517.11
513.072	13570.35
513.274	13855.02
513.477	14166.31
513.679	14278.95
513.881	14690.59
514.084	14606.63
514.286	14594.34
514.488	14438.69
514.69	15020.31
514.893	15132.95
515.095	15413.52
515.297	15528.21
515.499	15495.44
515.701	15759.63
515.904	16023.82
516.106	16257.29
516.308	16158.99
516.51	16468.23
516.712	16537.86
516.914	16769.28
517.116	16972.03
517.318	17015.04
517.52	17225.98
517.722	17443.06
517.925	17502.45
518.127	17744.11
518.329	17987.82
518.531	17836.27
518.733	18098.41
518.935	18565.35
519.136	18440.42
519.338	18733.28
519.54	18698.47
519.742	18591.97
519.944	19038.43
520.146	19265.75
520.348	19562.71
520.55	19613.91
520.752	19603.67
520.954	20166.86
521.155	19695.83
521.357	20213.96
521.559	20402.38
521.761	20576.45
521.963	20551.88
522.164	20756.68
522.366	21217.47
522.568	21125.31
522.77	21326.01
522.971	21653.69
523.173	21625.01
523.375	21790.9
523.576	21790.9
523.778	21731.51
523.98	22098.09
524.181	21940.4
524.383	22112.43
524.584	22331.56
524.786	22753.44
524.988	22605.99
525.189	22915.23
525.391	22876.32
525.592	23201.95
525.794	22970.53
525.995	23251.1
526.197	23392.41
526.398	23304.35
526.6	23654.55
526.801	23572.63
527.003	23830.68
527.204	23806.1
527.406	24010.9
527.607	24086.67
527.808	24383.63
528.01	23738.52
528.211	24213.65
528.412	24641.67
528.614	24547.47
528.815	24469.64
529.016	24813.7
529.218	24592.52
529.419	24688.78
529.62	24733.83
529.822	24768.65
530.023	25176.19
530.224	24995.97
530.425	24959.11
530.626	24905.86
530.828	25057.41
531.029	25507.96
531.23	25051.27
531.431	25233.53
531.632	25448.57
531.833	25479.29
532.035	25524.35
532.236	25712.76
532.437	25534.59
532.638	25307.26
532.839	25487.48
533.04	25655.42
533.241	25553.02
533.442	25796.73
533.643	25921.65
533.844	25632.89
534.045	25856.12
534.246	25671.8
534.447	25960.56
534.648	25888.88
534.849	25876.6
535.05	25786.49
535.251	26259.57
535.451	26034.29
535.652	26001.52
535.853	26097.78
536.054	25925.75
536.255	26216.56
536.456	25923.7
536.657	26398.83
536.857	26077.3
537.058	26030.19
537.259	26339.44
537.46	26400.88
537.66	26155.12
537.861	26175.6
538.062	26333.29
538.263	26245.23
538.463	26148.98
538.664	26456.17
538.865	26433.64
539.065	26632.3
539.266	26247.28
539.466	26751.08
539.667	25931.89
539.868	26636.39
540.068	26370.16
540.269	26364.01
540.469	26564.71
540.67	26515.56
540.87	26531.95
541.071	26421.36
541.271	26447.98
541.472	26552.43
541.672	26564.71
541.873	26505.32
542.073	25948.28
542.274	26624.11
542.474	26634.35
542.675	26400.88
542.875	26718.31
543.075	26683.5
543.276	26099.83
543.476	26593.39
543.676	26628.2
543.877	26841.19
544.077	26736.74
544.277	26515.56
544.478	26447.98
544.678	26531.95
544.878	26740.84
545.078	26398.83
545.279	26779.75
545.479	26298.48
545.679	26794.09
545.879	26708.07
546.079	26714.22
546.28	26611.82
546.48	26316.91
546.68	26835.05
546.88	26603.63
547.08	26671.21
547.28	26687.59
547.48	26357.87
547.68	26601.58
547.88	26640.49
548.081	26783.85
548.281	26833
548.481	26595.43
548.681	26808.42
548.881	26507.37
549.081	26708.07
549.28	26480.75
549.48	26785.9
549.68	26599.53
549.88	26925.16
550.08	26411.12
550.28	26757.22
550.48	26484.84
550.68	26869.86
550.88	26503.28
551.08	26433.64
551.279	26665.07
551.479	26636.39
551.679	26456.17
551.879	26771.56
552.079	26581.1
552.278	26597.48
552.478	26677.35
552.678	26716.26
552.878	26517.61
553.077	26564.71
553.277	26615.91
553.477	26892.39
553.676	26583.15
553.876	26607.72
554.076	26230.9
554.275	26652.78
554.475	26017.91
554.674	26409.07
554.874	26548.33
555.074	26249.33
555.273	26271.86
555.473	26753.13
555.672	26308.72
555.872	26468.46
556.071	26110.07
556.271	26787.94
556.47	26300.53
556.67	26167.41
556.869	26124.4
557.068	26607.72
557.268	25958.52
557.467	26011.76
557.667	26118.26
557.866	26265.71
558.065	26341.49
558.265	26208.37
558.464	25702.52
558.663	26282.09
558.863	25841.78
559.062	26415.21
559.261	25968.76
559.461	26191.98
559.66	26153.07
559.859	26298.48
560.058	26171.5
560.258	26208.37
560.457	25968.76
560.656	26108.02
560.855	25796.73
561.054	25866.36
561.253	25897.08
561.453	25954.42
561.652	25809.01
561.851	25905.27
562.05	25546.87
562.249	25723
562.448	25985.14
562.647	26206.32
562.846	25843.83
563.045	25788.53
563.244	25565.31
563.443	25583.74
563.642	25407.61
563.841	25493.63
564.04	25608.31
564.239	26095.73
564.438	25624.7
564.637	25622.65
564.836	25858.17
565.035	25469.05
565.234	25753.72
565.432	25507.96
565.631	25426.04
565.83	25514.11
566.029	25141.38
566.228	25202.82
566.427	25323.65
566.625	24938.63
566.824	24967.3
567.023	25372.8
567.222	25251.97
567.42	25284.73
567.619	25221.25
567.818	25176.19
568.016	25038.98
568.215	25352.32
568.414	25151.62
568.612	25247.87
568.811	24989.83
569.01	24873.09
569.208	25002.11
569.407	25467
569.605	24866.95
569.804	25057.41
570.002	24619.14
570.201	24891.52
570.4	25108.61
570.598	24705.16
570.797	24461.45
570.995	24709.25
571.193	24414.35
571.392	24569.99
571.59	24156.3
571.789	24641.67
571.987	24408.2
572.186	24520.84
572.384	24156.3
572.582	24230.03
572.781	24545.42
572.979	24002.71
573.177	24107.15
573.376	24459.4
573.574	24109.2
573.772	24025.23
573.971	24037.52
574.169	23812.24
574.367	23713.94
574.565	23994.51
574.763	23697.56
574.962	23492.76
575.16	23685.27
575.358	23836.82
575.556	23421.08
575.754	23808.15
575.952	23261.34
576.151	23908.5
576.349	23447.71
576.547	23191.71
576.745	23404.7
576.943	23365.79
577.141	23062.69
577.339	23529.62
577.537	23466.14
577.735	23025.82
577.933	22933.67
578.131	23117.98
578.329	22771.88
578.527	22810.79
578.725	22646.95
578.923	22999.2
579.121	22712.49
579.319	22679.72
579.516	22845.6
579.714	22618.28
579.912	22519.98
580.11	22704.29
580.308	22634.66
580.506	22362.28
580.704	22116.53
580.901	22284.46
581.099	22364.33
581.297	21915.83
581.495	22272.17
581.692	22638.76
581.89	21883.06
582.088	22442.15
582.285	22208.69
582.483	22143.15
582.681	21921.97
582.878	22010.03
583.076	21858.48
583.274	22014.13
583.471	21598.39
583.669	21885.11
583.866	21465.27
584.064	21565.62
584.262	21158.08
584.459	21594.29
584.657	21293.24
584.854	21645.49
585.052	20920.51
585.249	21158.08
585.447	21285.05
585.644	20893.89
585.841	21221.56
586.039	21174.46
586.236	20914.37
586.434	20828.35
586.631	20936.9
586.828	20648.13
587.026	20732.1
587.223	20662.47
587.42	20551.88
587.618	20953.28
587.815	20259.02
588.012	20254.92
588.21	20748.48
588.407	20512.97
588.604	20433.1
588.801	20132.04
588.999	20392.14
589.196	20005.07
589.393	20234.44
589.59	20101.33
589.787	20183.24
589.984	20009.17
590.182	19640.53
590.379	19863.76
590.576	19824.85
590.773	19546.33
590.97	19622.1
591.167	19605.72
591.364	19486.93
591.561	19544.28
591.758	19353.82
591.955	19595.48
592.152	19288.28
592.349	19157.21
592.546	19531.99
592.743	19278.04
592.94	18923.74
593.137	19157.21
593.334	19200.22
593.531	18780.39
593.727	19024.09
593.924	19030.24
594.121	18948.32
594.318	18755.81
594.515	18708.71
594.712	18794.72
594.908	18718.95
595.105	18667.75
595.302	18460.9
595.499	18817.25
595.696	18530.53
595.892	18327.78
596.089	18659.56
596.286	18229.48
596.482	18176.23
596.679	18010.35
596.876	17948.91
597.072	18039.02
597.269	17926.38
597.466	17967.34
597.662	17817.84
597.859	17957.1
598.055	17875.18
598.252	17416.44
598.448	17883.38
598.645	17475.83
598.841	17504.5
599.038	17561.84
599.234	17658.1
599.431	17502.45
599.627	17326.33
599.824	17475.83
600.02	17012.99
600.217	17348.86
600.413	17144.06
600.609	17228.03
600.806	17262.84
601.002	17209.59
601.198	17111.29
601.395	16937.21
601.591	17012.99
601.787	16867.58
601.984	16761.09
602.18	17117.43
602.376	16593.15
602.572	16470.28
602.769	16546.05
602.965	16574.72
603.161	16488.71
603.357	16306.44
603.553	16214.28
603.75	16367.88
603.946	16206.09
604.142	16331.01
604.338	16013.58
604.534	16169.23
604.73	16011.53
604.926	16034.06
605.122	16140.55
605.318	15763.73
605.514	15960.33
605.71	15859.98
605.906	15925.52
606.102	15716.62
606.298	15798.54
606.494	15632.66
606.69	15601.94
606.886	15315.22
607.082	15274.26
607.278	15536.4
607.474	15309.08
607.67	15368.47
607.866	15341.85
608.062	15249.69
608.257	15225.11
608.453	15343.89
608.649	15094.04
608.845	15069.47
609.041	15130.91
609.236	15350.04
609.432	15194.39
609.628	15018.27
609.824	15071.51
610.019	14801.18
610.215	15077.66
610.411	15098.14
610.606	14821.66
610.802	15098.14
610.998	14819.61
611.193	14756.13
611.389	14958.88
611.584	14616.86
611.78	14457.12
611.976	14727.46
612.171	14416.16
612.367	14610.72
612.562	14479.65
612.758	14604.58
612.953	14229.8
613.149	14330.15
613.344	14180.65
613.539	14616.86
613.735	14424.36
613.93	14311.72
614.126	14332.2
614.321	14704.93
614.517	14342.44
614.712	14106.92
614.907	14158.12
615.103	14149.93
615.298	14065.96
615.493	14436.64
615.688	13865.26
615.884	14184.74
616.079	13871.4
616.274	14156.07
616.47	13850.92
616.665	13881.64
616.86	13809.97
617.055	13938.99
617.25	13889.84
617.445	13758.77
617.641	13832.49
617.836	13584.69
618.031	13517.11
618.226	13666.61
618.421	13539.63
618.616	13783.34
618.811	13455.67
619.006	13437.23
619.201	13214.01
619.396	13283.64
619.591	13482.29
619.786	13275.45
619.981	13058.36
620.176	13060.41
620.371	13029.69
620.566	12908.86
620.761	12826.94
620.956	13154.62
621.151	12919.1
621.346	12749.12
621.541	12364.1
621.735	12659.01
621.93	12515.65
622.125	12362.05
622.32	12120.39
622.515	12403.01
622.709	12187.97
622.904	12194.12
623.099	12085.58
623.294	12425.54
623.488	12040.52
623.683	12003.66
623.878	11895.11
624.072	11899.21
624.267	11780.43
624.462	11811.15
624.656	11862.35
624.851	11622.73
625.046	11731.28
625.24	11647.31
625.435	11387.22
625.629	11356.5
625.824	11491.66
626.018	11321.68
626.213	10934.62
626.407	11315.54
626.602	11231.57
626.796	11065.69
626.991	10819.93
627.185	11022.68
627.38	10838.36
627.574	10869.08
627.768	10699.1
627.963	10629.47
628.157	10568.03
628.352	10428.77
628.546	10500.45
628.74	10533.22
628.935	10469.73
629.129	10525.02
629.323	10133.86
629.517	10162.53
629.712	10129.77
629.906	10129.77
630.1	9890.15
630.294	9965.93
630.489	10066.28
630.683	10023.27
630.877	9750.89
631.071	9836.91
631.265	9918.82
631.459	9564.53
631.653	9570.67
631.848	9736.56
632.042	9599.34
632.236	9601.39
632.43	9496.94
632.624	9505.13
632.818	9308.53
633.012	9279.86
633.206	9361.78
633.4	9208.18
633.594	9044.34
633.788	9232.76
633.982	9036.15
634.176	9120.12
634.369	9030.01
634.563	8935.8
634.757	8817.02
634.951	8941.94
635.145	8960.38
635.339	8954.23
635.533	8972.66
635.726	8632.7
635.92	8542.59
636.114	8784.25
636.308	8563.07
636.501	8427.9
636.695	8507.77
636.889	8360.32
637.083	8319.36
637.276	8239.49
637.47	8341.89
637.664	8272.26
637.857	8247.68
638.051	8182.15
638.244	8120.71
638.438	7958.92
638.632	8225.15
638.825	7973.25
639.019	8010.12
639.212	7833.99
639.406	7733.64
639.599	7938.44
639.793	7901.58
639.986	7735.69
640.18	7604.62
640.373	7647.63
640.567	7743.88
640.76	7645.58
640.954	7504.27
641.147	7332.24
641.34	7440.78
641.534	7465.36
641.727	7580.04
641.92	7436.69
642.114	7285.14
642.307	7152.02
642.5	7184.79
642.694	7082.39
642.887	7186.83
643.08	7125.4
643.273	6961.56
643.467	7023
643.66	6910.36
643.853	6896.02
644.046	6855.06
644.239	6967.7
644.432	6861.21
644.626	6726.04
644.819	6719.9
645.012	6726.04
645.205	6592.92
645.398	6769.05
645.591	6541.72
645.784	6480.29
645.977	6486.43
646.17	6582.68
646.363	6381.98
646.556	6334.88
646.749	6341.02
646.942	6373.79
647.135	6150.56
647.328	6218.15
647.521	6281.63
647.714	6109.6
647.907	6119.84
648.099	6017.44
648.292	5999.01
648.485	5913
648.678	5765.54
648.871	5980.58
649.064	5876.13
649.256	5894.57
649.449	5685.67
649.642	5710.25
649.835	5745.06
650.027	5724.58
650.22	5661.1
650.413	5609.9
650.605	5620.14
650.798	5622.19
650.991	5626.28
651.183	5570.99
651.376	5407.15
651.568	5448.11
651.761	5386.67
651.954	5478.83
652.146	5314.99
652.339	5425.58
652.531	5198.26
652.724	5280.18
652.916	5040.56
653.109	5161.39
653.301	5169.59
653.494	5233.07
653.686	4868.53
653.879	5065.14
654.071	4901.3
654.263	4921.78
654.456	4944.31
654.648	5056.95
654.84	4846.01
655.033	4843.96
655.225	4784.57
655.417	4796.85
655.61	4772.28
655.802	4766.14
655.994	4897.21
656.186	4637.11
656.379	4633.02
656.571	4680.12
656.763	4596.15
656.955	4538.81
657.148	4460.99
657.34	4489.66
657.532	4411.84
657.724	4397.5
657.916	4528.57
658.108	4352.45
658.3	4315.58
658.492	4303.29
658.684	4325.82
658.876	4190.66
659.068	4297.15
659.26	4211.14
659.452	4121.03
659.644	4192.7
659.836	4157.89
660.028	4207.04
660.22	4069.83
660.412	3971.52
660.604	4028.87
660.796	4014.53
660.988	4028.87
661.18	3883.46
661.372	3799.49
661.563	3799.49
661.755	3854.79
661.947	3895.75
662.139	3887.56
662.331	3766.73
662.522	3819.97
662.714	3606.98
662.906	3668.42
663.097	3604.94
663.289	3656.14
663.481	3606.98
663.673	3500.49
663.864	3570.12
664.056	3504.59
664.247	3510.73
664.439	3432.91
664.631	3480.01
664.822	3432.91
665.014	3477.96
665.205	3334.61
665.397	3424.72
665.588	3322.32
665.78	3305.93
665.971	3082.7
666.163	3205.58
666.354	3246.54
666.546	3086.8
666.737	3250.64
666.929	3189.2
667.12	3115.47
667.311	3178.96
667.503	2945.49
667.694	3056.08
667.885	2925.01
668.077	3008.98
668.268	2877.91
668.459	2959.83
668.651	3002.83
668.842	2974.16
669.033	2955.73
669.224	2834.9
669.416	2922.96
669.607	2843.09
669.798	2859.48
669.989	2892.24
670.18	2863.57
670.371	2793.94
670.563	2697.69
670.754	2755.03
670.945	2628.06
671.136	2707.93
671.327	2650.58
671.518	2726.36
671.709	2599.38
671.9	2701.78
672.091	2681.3
672.282	2623.96
672.473	2576.86
672.664	2572.76
672.855	2636.25
673.046	2601.43
673.237	2560.47
673.428	2421.21
673.619	2544.09
673.809	2460.12
674	2505.18
674.191	2474.46
674.382	2531.8
674.573	2445.79
674.764	2519.51
674.954	2511.32
675.145	2449.88
675.336	2398.68
675.527	2417.12
675.717	2263.52
675.908	2277.85
676.099	2449.88
676.289	2349.53
676.48	2392.54
676.671	2384.35
676.861	2298.33
677.052	2245.09
677.243	2275.81
677.433	2234.85
677.624	2271.71
677.814	2255.33
678.005	2218.46
678.195	2292.19
678.386	2214.37
678.576	2269.66
678.767	2345.44
678.957	2228.7
679.148	2232.8
679.338	2202.08
679.529	2126.3
679.719	2136.54
679.909	2177.5
680.1	2103.78
680.29	2144.74
680.481	2054.62
680.671	2056.67
680.861	2146.78
681.052	2040.29
681.242	2081.25
681.432	2122.21
681.622	2066.91
681.813	2122.21
682.003	2122.21
682.193	1993.19
682.383	2089.44
682.573	2103.78
682.764	2052.58
682.954	2150.88
683.144	2097.63
683.334	2056.67
683.524	2042.34
683.714	2032.1
683.904	1970.66
684.094	2036.19
684.284	1976.8
684.474	2079.2
684.664	2140.64
684.854	2030.05
685.044	2028
685.234	2025.95
685.424	2038.24
685.614	1931.75
685.804	2021.86
685.994	1901.03
686.184	2025.95
686.374	1806.82
686.564	2013.67
686.753	2062.82
686.943	1966.56
687.133	2001.38
687.323	2050.53
687.513	2032.1
687.702	1882.6
687.892	2005.47
688.082	1948.13
688.272	1880.55
688.461	1976.8
688.651	1937.89
688.841	1827.3
689.03	1974.75
689.22	1917.41
689.41	1958.37
689.599	2025.95
689.789	1952.23
689.979	1993.19
690.168	2062.82
690.358	1882.6
690.547	1997.28
690.737	1997.28
690.926	1966.56
691.116	1962.47
691.305	1925.6
691.495	1907.17
691.684	2038.24
691.874	1907.17
692.063	1882.6
692.252	2064.86
692.442	1927.65
692.631	1956.32
692.82	1966.56
693.01	2013.67
693.199	1858.02
693.388	1882.6
693.578	1876.45
693.767	1909.22
693.956	1915.36
694.146	1796.58
694.335	1886.69
694.524	1890.79
694.713	1890.79
694.902	1831.4
695.092	1962.47
695.281	1919.46
695.47	1892.84
695.659	1884.64
695.848	1726.95
696.037	1948.13
696.226	1808.87
696.415	1817.06
696.604	1927.65
696.793	1800.68
696.982	1878.5
697.171	1829.35
697.36	1837.54
697.549	1833.44
697.738	1878.5
697.927	1776.1
698.116	1778.15
698.305	1841.64
698.494	1690.09
698.683	1772
698.872	1931.75
699.061	1724.9
699.25	1741.29
699.438	1710.57
699.627	1769.96
699.816	1753.57
700.005	1767.91
700.193	1718.76
700.382	1706.47
700.571	1667.56
700.76	1671.65
700.948	1661.41
701.137	1747.43
701.326	1683.94
701.514	1702.37
701.703	1710.57
701.892	1604.07
702.08	1784.29
702.269	1616.36
702.457	1612.26
702.646	1714.66
702.834	1688.04
703.023	1485.29
703.212	1669.61
703.4	1657.32
703.589	1612.26
703.777	1579.5
703.965	1647.08
704.154	1602.02
704.342	1548.78
704.531	1559.02
704.719	1540.58
704.907	1610.22
705.096	1602.02
705.284	1591.78
705.472	1575.4
705.661	1470.95
705.849	1573.35
706.037	1567.21
706.226	1559.02
706.414	1473
706.602	1526.25
706.79	1460.71
706.979	1530.34
707.167	1577.45
707.355	1407.47
707.543	1573.35
707.731	1526.25
707.919	1462.76
708.107	1425.9
708.296	1448.43
708.484	1450.47
708.672	1509.86
708.86	1532.39
709.048	1337.84
709.236	1481.19
709.424	1438.19
709.612	1536.49
709.8	1407.47
709.988	1440.23
710.176	1397.23
710.364	1374.7
710.551	1341.93
710.739	1395.18
710.927	1405.42
711.115	1436.14
711.303	1376.75
711.491	1223.15
711.679	1253.87
711.866	1270.25
712.054	1417.71
712.242	1362.41
712.43	1335.79
712.617	1300.97
712.805	1341.93
712.993	1352.17
713.181	1380.84
713.368	1348.08
713.556	1448.43
713.744	1307.12
713.931	1323.5
714.119	1188.33
714.306	1231.34
714.494	1335.79
714.682	1255.92
714.869	1253.87
715.057	1243.63
715.244	1239.53
715.432	1243.63
715.619	1219.05
715.807	1231.34
715.994	1194.48
716.182	1229.29
716.369	1227.25
716.556	1229.29
716.744	1202.67
716.931	1147.37
717.119	1102.32
717.306	1192.43
717.493	1221.1
717.681	1100.27
717.868	1149.42
718.055	1192.43
718.242	1065.46
718.43	1223.15
718.617	1114.61
718.804	1153.52
718.991	1090.03
719.179	1092.08
719.366	1137.13
719.553	1053.17
719.74	1104.37
719.927	1188.33
720.114	1130.99
720.301	1126.89
720.488	1133.04
720.676	1012.21
720.863	1102.32
721.05	1008.11
721.237	1018.35
721.424	1044.98
721.611	1096.18
721.798	1006.06
721.985	1061.36
722.172	1004.02
722.358	1169.9
722.545	985.58
722.732	977.39
722.919	1055.22
723.106	1026.54
723.293	1004.02
723.48	1022.45
723.667	981.49
723.853	981.49
724.04	932.34
724.227	938.48
724.414	911.86
724.6	903.67
724.787	913.91
724.974	872.95
725.161	934.39
725.347	866.8
725.534	967.15
725.72	926.19
725.907	911.86
726.094	862.71
726.28	915.95
726.467	950.77
726.653	1008.11
726.84	1053.17
727.027	963.06
727.213	834.04
727.4	928.24
727.586	821.75
727.773	834.04
727.959	872.95
728.145	856.56
728.332	946.67
728.518	942.58
728.705	924.15
728.891	920.05
729.077	858.61
729.264	793.08
729.45	915.95
729.636	870.9
729.823	915.95
730.009	905.71
730.195	838.13
730.382	784.88
730.568	911.86
730.754	958.96
730.94	870.9
731.126	821.75
731.313	813.56
731.499	868.85
731.685	899.57
731.871	793.08
732.057	811.51
732.243	766.45
732.429	801.27
732.615	784.88
732.801	772.6
732.987	823.8
733.173	733.68
733.359	733.68
733.545	717.3
733.731	711.16
733.917	745.97
734.103	731.64
734.289	797.17
734.475	950.77
734.661	831.99
734.847	811.51
735.033	768.5
735.219	725.49
735.404	846.32
735.59	836.08
735.776	852.47
735.962	760.31
736.148	729.59
736.333	762.36
736.519	698.87
736.705	729.59
736.89	752.12
737.076	737.78
737.262	682.49
737.447	725.49
737.633	748.02
737.819	791.03
738.004	748.02
738.19	719.35
738.375	666.1
738.561	741.88
738.747	723.44
738.932	682.49
739.118	780.79
739.303	662.01
739.489	688.63
739.674	698.87
739.859	635.38
740.045	719.35
740.23	600.57
740.416	678.39
740.601	754.16
740.786	582.14
740.972	563.7
741.157	674.29
741.342	645.62
741.528	688.63
741.713	668.15
741.898	629.24
742.084	682.49
742.269	657.91
742.454	723.44
742.639	645.62
742.824	698.87
743.01	705.01
743.195	559.61
743.38	674.29
743.565	619
743.75	700.92
743.935	629.24
744.12	707.06
744.305	598.52
744.49	600.57
744.675	598.52
744.86	606.71
745.045	565.75
745.23	627.19
745.415	702.97
745.6	526.84
745.785	522.74
745.97	594.42
746.155	616.95
746.34	489.98
746.525	514.55
746.71	569.85
746.895	619
747.079	565.75
747.264	616.95
747.449	518.65
747.634	565.75
747.819	481.78
748.003	489.98
748.188	563.7
748.373	520.7
748.557	584.18
748.742	502.26
748.927	479.74
749.111	600.57
749.296	539.13
749.481	559.61
749.665	565.75
749.85	627.19
750.034	514.55
750.219	489.98
750.404	514.55
750.588	442.87
750.773	477.69
750.957	473.59
751.141	475.64
751.326	530.94
751.51	455.16
751.695	467.45
751.879	492.02
752.064	485.88
752.248	459.26
752.432	428.54
752.617	440.83
752.801	414.2
752.985	473.59
753.17	465.4
753.354	453.11
753.538	463.35
753.722	391.67
753.907	422.39
754.091	401.91
754.275	422.39
754.459	420.35
754.643	418.3
754.828	440.83
755.012	481.78
755.196	432.63
755.38	440.83
755.564	481.78
755.748	436.73
755.932	502.26
756.116	461.3
756.3	424.44
756.484	459.26
756.668	422.39
756.852	399.87
757.036	393.72
757.22	418.3
757.404	346.62
757.588	287.23
757.772	375.29
757.956	444.92
758.14	379.39
758.323	432.63
758.507	371.19
758.691	324.09
758.875	377.34
759.059	356.86
759.242	412.15
759.426	412.15
759.61	346.62
759.794	283.13
759.977	387.58
760.161	436.73
760.345	397.82
760.528	360.95
760.712	418.3
760.895	408.06
761.079	320
761.263	266.75
761.446	340.47
761.63	317.95
761.813	317.95
761.997	297.47
762.18	293.37
762.364	344.57
762.547	250.36
762.731	332.28
762.914	383.48
763.098	289.28
763.281	303.61
763.464	315.9
763.648	266.75
763.831	309.76
764.015	356.86
764.198	428.54
764.381	266.75
764.564	342.52
764.748	262.65
764.931	397.82
765.114	373.24
765.297	272.89
765.481	336.38
765.664	238.08
765.847	338.43
766.03	328.19
766.213	363
766.397	287.23
766.58	348.67
766.763	309.76
766.946	299.52
767.129	375.29
767.312	332.28
767.495	365.05
767.678	289.28
767.861	375.29
768.044	375.29
768.227	320
768.41	377.34
768.593	291.32
768.776	276.99
768.959	283.13
769.142	276.99
769.324	307.71
769.507	301.56
769.69	268.8
769.873	299.52
770.056	326.14
770.239	268.8
770.421	334.33
770.604	188.93
770.787	266.75
770.97	330.23
771.152	305.66
771.335	250.36
771.518	248.32
771.7	233.98
771.883	236.03
772.066	254.46
772.248	311.8
772.431	317.95
772.613	260.6
772.796	287.23
772.978	287.23
773.161	276.99
773.343	272.89
773.526	260.6
773.708	283.13
773.891	307.71
774.073	317.95
774.256	252.41
774.438	365.05
774.621	252.41
774.803	219.64
774.985	156.16
775.168	236.03
775.35	303.61
775.532	317.95
775.715	156.16
775.897	178.69
776.079	346.62
776.261	223.74
776.444	274.94
776.626	268.8
776.808	219.64
776.99	211.45
777.173	258.56
777.355	276.99
777.537	223.74
777.719	219.64
777.901	201.21
778.083	209.4
778.265	127.49
778.447	225.79
778.629	154.11
778.811	250.36
778.993	309.76
779.175	262.65
779.357	215.55
779.539	205.31
779.721	225.79
779.903	285.18
780.085	178.69
780.267	199.16
780.449	246.27
780.631	170.49
780.812	203.26
780.994	285.18
781.176	217.6
781.358	182.78
781.54	252.41
781.721	178.69
781.903	248.32
782.085	184.83
782.267	229.88
782.448	147.97
782.63	215.55
782.812	170.49
782.993	166.4
783.175	190.97
783.357	143.87
783.538	242.17
783.72	203.26
783.901	211.45
784.083	262.65
784.264	168.45
784.446	180.73
784.627	145.92
784.809	236.03
784.99	252.41
785.172	219.64
785.353	147.97
785.535	147.97
785.716	156.16
785.897	225.79
786.079	207.36
786.26	119.29
786.441	195.07
786.623	113.15
786.804	227.84
786.985	162.3
787.167	221.69
787.348	133.63
787.529	178.69
787.71	174.59
787.891	125.44
788.073	131.58
788.254	152.06
788.435	147.97
788.616	178.69
788.797	154.11
788.978	215.55
789.159	150.01
789.34	139.77
789.522	195.07
789.703	154.11
789.884	137.73
790.065	117.25
790.246	162.3
790.427	145.92
790.607	150.01
790.788	94.72
790.969	51.71
791.15	150.01
791.331	129.53
791.512	180.73
791.693	84.48
791.874	64
792.054	68.09
792.235	205.31
792.416	150.01
792.597	131.58
792.778	147.97
792.958	64
793.139	68.09
793.32	178.69
793.5	92.67
793.681	141.82
793.862	94.72
794.042	178.69
794.223	145.92
794.404	107.01
794.584	119.29
794.765	127.49
794.945	117.25
795.126	135.68
795.306	123.39
795.487	88.57
795.667	195.07
795.848	147.97
796.028	127.49
796.209	162.3
796.389	195.07
796.57	70.14
796.75	84.48
796.93	92.67
797.111	94.72
797.291	133.63
797.471	117.25
797.652	139.77
797.832	80.38
798.012	70.14
798.192	109.05
798.373	64
798.553	98.81
798.733	121.34
798.913	147.97
799.093	111.1
799.274	98.81
799.454	70.14
799.634	100.86
799.814	113.15
799.994	94.72
800.174	92.67
800.354	162.3
800.534	55.81
800.714	45.57
800.894	139.77
801.074	90.62
801.254	61.95
801.434	80.38
801.614	107.01
801.794	84.48
801.974	219.64
802.154	18.94
802.334	74.24
802.514	31.23
802.693	-11.78
802.873	70.14
803.053	123.39
803.233	78.33
803.413	121.34
803.592	139.77
803.772	117.25
803.952	88.57
804.131	78.33
804.311	98.81
804.491	82.43
804.67	80.38
804.85	133.63
805.03	61.95
805.209	135.68
805.389	41.47
805.568	90.62
805.748	123.39
805.928	104.96
806.107	23.04
806.287	53.76
806.466	72.19
806.646	94.72
806.825	186.88
807.004	31.23
807.184	139.77
807.363	49.66
807.543	121.34
807.722	55.81
807.901	72.19
808.081	74.24
808.26	51.71
808.439	76.29
808.619	8.7
808.798	35.33
808.977	160.25
809.156	61.95
809.336	96.77
809.515	4.61
809.694	92.67
809.873	125.44
810.052	64
810.231	16.9
810.411	113.15
810.59	113.15
810.769	23.04
810.948	96.77
811.127	35.33
811.306	88.57
811.485	76.29
811.664	14.85
811.843	33.28
812.022	123.39
812.201	-26.11
812.38	82.43
812.559	76.29
812.737	78.33
812.916	4.61
813.095	113.15
813.274	47.62
813.453	86.53
813.632	39.42
813.811	94.72
813.989	-50.69
814.168	96.77
814.347	76.29
814.526	57.86
814.704	25.09
814.883	59.9
815.062	45.57
815.24	55.81
815.419	-19.97
815.598	47.62
815.776	27.14
815.955	72.19
816.133	39.42
816.312	53.76
816.49	39.42
816.669	76.29
816.847	33.28
817.026	109.05
817.204	66.05
817.383	35.33
817.561	72.19
817.74	31.23
817.918	-30.21
818.097	86.53
818.275	45.57
818.453	68.09
818.632	25.09
818.81	76.29
818.988	76.29
819.167	29.18
819.345	41.47
819.523	117.25
819.701	10.75
819.879	90.62
820.058	98.81
820.236	-7.68
820.414	72.19
820.592	41.47
820.77	35.33
820.948	72.19
821.127	4.61
821.305	125.44
821.483	57.86
821.661	84.48
821.839	14.85
822.017	82.43
822.195	51.71
822.373	49.66
822.551	49.66
822.729	31.23
822.907	-3.58
823.085	47.62
823.262	59.9
823.44	55.81
823.618	152.06
823.796	55.81
823.974	8.7
824.152	78.33
824.329	33.28
824.507	29.18
824.685	-40.45
824.863	53.76
825.04	12.8
825.218	39.42
825.396	14.85
825.574	25.09
825.751	10.75
825.929	66.05
826.107	64
826.284	109.05
826.462	55.81
826.639	10.75
826.817	-5.63
826.994	23.04
827.172	41.47
827.349	45.57
827.527	45.57
827.704	2.56
827.882	55.81
828.059	-32.26
828.237	53.76
828.414	27.14
828.591	2.56
828.769	23.04
828.946	78.33
829.124	49.66
829.301	8.7
829.478	6.66
829.655	64
829.833	39.42
830.01	27.14
830.187	57.86
830.364	59.9
830.542	41.47
830.719	47.62
830.896	117.25
831.073	35.33
831.25	-1.54
831.427	76.29
831.604	4.61
831.782	8.7
831.959	104.96
832.136	-7.68
832.313	23.04
832.49	39.42
832.667	-17.92
832.844	23.04
833.021	90.62
833.198	84.48
833.374	74.24
833.551	45.57
833.728	-13.82
833.905	57.86
834.082	8.7
834.259	0.51
834.436	70.14
834.612	20.99
834.789	92.67
834.966	33.28
835.143	104.96
835.319	43.52
835.496	-1.54
835.673	8.7
835.85	55.81
836.026	102.91
836.203	25.09
836.38	64
836.556	-7.68
836.733	68.09
836.909	39.42
837.086	59.9
837.262	18.94
837.439	29.18
837.616	121.34
837.792	66.05
837.968	107.01
838.145	49.66
838.321	74.24
838.498	4.61
838.674	59.9
838.851	78.33
839.027	14.85
839.203	35.33
839.38	14.85
839.556	55.81
839.732	64
839.909	25.09
840.085	98.81
840.261	23.04
840.437	-1.54
840.614	10.75
840.79	49.66
840.966	43.52
841.142	53.76
841.318	74.24
841.494	47.62
841.671	-5.63
841.847	6.66
842.023	10.75
842.199	18.94
842.375	14.85
842.551	156.16
842.727	55.81
842.903	78.33
843.079	-40.45
843.255	25.09
843.431	68.09
843.607	-1.54
843.783	-19.97
843.959	41.47
844.134	70.14
844.31	102.91
844.486	39.42
844.662	37.38
844.838	18.94
845.013	8.7
845.189	74.24
845.365	29.18
845.541	41.47
845.716	55.81
845.892	-11.78
846.068	8.7
846.244	-5.63
846.419	12.8
846.595	64
846.77	12.8
846.946	35.33
847.122	70.14
847.297	-5.63
847.473	-15.87
847.648	31.23
847.824	-7.68
847.999	-1.54
848.175	29.18
848.35	-17.92
848.526	59.9
848.701	23.04
848.876	39.42
849.052	45.57
849.227	29.18
849.403	-3.58
849.578	4.61
849.753	12.8
849.929	4.61
850.104	111.1
850.279	37.38
850.454	14.85
850.63	37.38
850.805	72.19
850.98	23.04
851.155	49.66
851.33	-5.63
851.505	14.85
851.681	55.81
851.856	23.04
852.031	-5.63
852.206	16.9
852.381	2.56
852.556	51.71
852.731	78.33
852.906	-19.97
853.081	31.23
853.256	10.75
853.431	41.47
853.606	-60.93
853.781	10.75
853.956	20.99
854.131	-15.87
854.305	45.57
854.48	12.8
854.655	-36.35
854.83	-34.3
855.005	100.86
855.18	41.47
855.354	-32.26
855.529	88.57
855.704	10.75
855.879	37.38
856.053	70.14
856.228	-19.97
856.403	18.94
856.577	-1.54
856.752	31.23
856.926	-30.21
857.101	-34.3
857.276	18.94
857.45	59.9
857.625	-52.74
857.799	10.75
857.974	-22.02
858.148	-17.92
858.323	2.56
858.497	-1.54
858.672	4.61
858.846	18.94
859.02	-1.54
859.195	-46.59
859.369	23.04
859.543	27.14
859.718	111.1
859.892	43.52
860.066	8.7
860.241	51.71
860.415	23.04
860.589	25.09
860.763	14.85
860.938	29.18
861.112	74.24
861.286	29.18
861.46	23.04
861.634	39.42
861.808	41.47
861.982	31.23
862.157	25.09
862.331	88.57
862.505	-7.68
862.679	-34.3
862.853	-44.54
863.027	-38.4
863.201	8.7
863.375	-24.06
863.549	4.61
863.722	-22.02
863.896	-7.68
864.07	66.05
864.244	4.61
864.418	-34.3
864.592	-9.73
864.766	12.8
864.939	43.52
865.113	33.28
865.287	41.47
865.461	-9.73
865.634	-9.73
865.808	80.38
865.982	-26.11
866.156	-22.02
866.329	-24.06
866.503	12.8
866.676	-3.58
866.85	-65.02
867.024	31.23
867.197	20.99
867.371	18.94
867.544	86.53
867.718	49.66
867.891	6.66
868.065	59.9
868.238	66.05
868.412	55.81
868.585	33.28
868.759	18.94
868.932	-22.02
869.105	-26.11
869.279	25.09
869.452	51.71
869.625	-7.68
869.799	-30.21
869.972	16.9
870.145	6.66
870.319	-7.68
870.492	-7.68
870.665	-52.74
870.838	53.76
871.011	-7.68
871.185	-1.54
871.358	-42.5
871.531	37.38
871.704	14.85
871.877	-34.3
872.05	61.95
872.223	-50.69
872.396	45.57
872.569	23.04
872.742	-62.98
872.915	12.8
873.088	-13.82
873.261	20.99
873.434	-42.5
873.607	18.94
873.78	100.86
873.953	-58.88
874.126	23.04
874.299	29.18
874.471	10.75
874.644	88.57
874.817	-19.97
874.99	4.61
875.163	-9.73
875.335	25.09
875.508	-1.54
875.681	6.66
875.853	-42.5
876.026	68.09
876.199	64
876.371	-11.78
876.544	61.95
876.717	31.23
876.889	-5.63
877.062	72.19
877.234	-52.74
877.407	-5.63
877.579	0.51
877.752	49.66
877.924	6.66
878.097	12.8
878.269	6.66
878.442	20.99
878.614	14.85
878.786	-3.58
878.959	-32.26
879.131	-9.73
879.303	-24.06
879.476	41.47
879.648	72.19
879.82	25.09
879.993	25.09
880.165	41.47
880.337	27.14
880.509	27.14
880.681	23.04
880.854	90.62
881.026	6.66
881.198	-32.26
881.37	74.24
881.542	-1.54
881.714	23.04
881.886	43.52
882.058	-9.73
882.23	2.56
882.402	-44.54
882.574	37.38
882.746	20.99
882.918	20.99
883.09	18.94
883.262	0.51
883.434	-13.82
883.606	-30.21
883.778	-32.26
883.95	94.72
884.122	45.57
884.293	68.09
884.465	49.66
884.637	29.18
884.809	-7.68
884.98	47.62
885.152	-1.54
885.324	-22.02
885.496	-30.21
885.667	51.71
885.839	23.04
886.011	14.85
886.182	-1.54
886.354	-26.11
886.525	-19.97
886.697	59.9
886.869	-11.78
887.04	18.94
887.212	86.53
887.383	-17.92
887.555	-22.02
887.726	39.42
887.897	-1.54
888.069	-17.92
888.24	53.76
888.412	78.33
888.583	12.8
888.754	53.76
888.926	-91.65
889.097	-9.73
889.268	20.99
889.44	57.86
889.611	-26.11
889.782	-13.82
889.953	-24.06
890.125	37.38
890.296	59.9
890.467	-48.64
890.638	-11.78
890.809	123.39
890.98	0.51
891.151	27.14
891.323	27.14
891.494	16.9
891.665	59.9
891.836	10.75
892.007	55.81
892.178	-34.3
892.349	66.05
892.52	2.56
892.691	51.71
892.862	-79.36
893.032	-26.11
893.203	39.42
893.374	-30.21
893.545	10.75
893.716	-11.78
893.887	70.14
894.057	49.66
894.228	49.66
894.399	-30.21
894.57	0.51
894.74	39.42
894.911	-13.82
895.082	-56.83
895.253	49.66
895.423	47.62
895.594	-13.82
895.764	-40.45
895.935	-71.17
896.106	37.38
896.276	37.38
896.447	-44.54
896.617	-91.65
896.788	31.23
896.958	-54.78
897.129	8.7
897.299	-32.26
897.47	-19.97
897.64	29.18
897.81	-17.92
897.981	14.85
898.151	2.56
898.322	29.18
898.492	74.24
898.662	14.85
898.832	-13.82
899.003	55.81
899.173	55.81
899.343	20.99
899.513	20.99
