Data from USB4F104151__6__12-53-08-569.txt Node

Date: Fri Mar 14 12:53:08 EDT 2025
User: louis
Spectrometer: USB4F10415
Trigger mode: 4
Integration Time (sec): 1.000000E-2
Scans to average: 1
Electric dark correction enabled: true
Nonlinearity correction enabled: false
Boxcar width: 0
XAxis mode: Wavelengths
Number of Pixels in Spectrum: 3648
>>>>>Begin Spectral Data<<<<<
178.204	7.34
178.424	7.34
178.644	7.34
178.864	-58.2
179.084	25.77
179.304	13.48
179.524	-43.86
179.744	-37.72
179.964	27.82
180.184	9.39
180.404	-19.29
180.624	-19.29
180.844	83.11
181.064	-25.43
181.283	-95.06
181.503	44.2
181.723	62.63
181.943	-29.52
182.163	95.4
182.383	85.16
182.602	54.44
182.822	54.44
183.042	68.78
183.262	23.72
183.482	60.59
183.701	5.29
183.921	66.73
184.141	7.34
184.361	7.34
184.58	68.78
184.8	21.67
185.02	60.59
185.239	-7
185.459	7.34
185.679	-27.48
185.898	-60.24
186.118	38.06
186.338	89.26
186.557	70.83
186.777	-4.95
186.997	38.06
187.216	40.11
187.436	38.06
187.655	46.25
187.875	64.68
188.095	29.87
188.314	70.83
188.534	31.91
188.753	-9.05
188.973	23.72
189.192	122.02
189.412	-43.86
189.631	93.35
189.851	3.24
190.07	74.92
190.29	27.82
190.509	31.91
190.729	42.15
190.948	87.21
191.168	142.5
191.387	42.15
191.607	46.25
191.826	52.39
192.045	50.35
192.265	66.73
192.484	11.43
192.704	70.83
192.923	11.43
193.142	81.07
193.362	44.2
193.581	15.53
193.8	60.59
194.02	5.29
194.239	81.07
194.458	48.3
194.678	13.48
194.897	21.67
195.116	52.39
195.335	-0.85
195.555	70.83
195.774	-9.05
195.993	58.54
196.212	25.77
196.432	13.48
196.651	44.2
196.87	50.35
197.089	64.68
197.308	46.25
197.528	7.34
197.747	3.24
197.966	66.73
198.185	52.39
198.404	5.29
198.623	40.11
198.842	1.19
199.062	91.31
199.281	-41.81
199.5	56.49
199.719	23.72
199.938	54.44
200.157	36.01
200.376	138.41
200.595	5.29
200.814	21.67
201.033	62.63
201.252	17.58
201.471	81.07
201.69	46.25
201.909	23.72
202.128	60.59
202.347	-62.29
202.566	64.68
202.785	-15.19
203.004	48.3
203.223	89.26
203.442	9.39
203.661	40.11
203.879	5.29
204.098	48.3
204.317	87.21
204.536	-7
204.755	-19.29
204.974	36.01
205.193	15.53
205.411	72.87
205.63	29.87
205.849	7.34
206.068	46.25
206.287	27.82
206.505	156.84
206.724	23.72
206.943	25.77
207.162	50.35
207.381	107.69
207.599	97.45
207.818	91.31
208.037	-19.29
208.255	31.91
208.474	23.72
208.693	23.72
208.911	83.11
209.13	19.63
209.349	48.3
209.567	31.91
209.786	54.44
210.005	17.58
210.223	-19.29
210.442	81.07
210.661	44.2
210.879	-43.86
211.098	-43.86
211.316	15.53
211.535	54.44
211.753	29.87
211.972	87.21
212.191	3.24
212.409	48.3
212.628	105.64
212.846	62.63
213.065	91.31
213.283	-41.81
213.502	66.73
213.72	23.72
213.938	91.31
214.157	60.59
214.375	95.4
214.594	-11.09
214.812	-11.09
215.031	-11.09
215.249	40.11
215.467	54.44
215.686	29.87
215.904	5.29
216.122	29.87
216.341	56.49
216.559	21.67
216.778	76.97
216.996	-19.29
217.214	89.26
217.432	7.34
217.651	19.63
217.869	5.29
218.087	13.48
218.306	50.35
218.524	23.72
218.742	-33.62
218.96	-13.14
219.179	19.63
219.397	62.63
219.615	27.82
219.833	97.45
220.051	1.19
220.27	83.11
220.488	38.06
220.706	3.24
220.924	1.19
221.142	38.06
221.36	-9.05
221.578	64.68
221.796	-19.29
222.015	83.11
222.233	-17.24
222.451	72.87
222.669	-45.91
222.887	87.21
223.105	1.19
223.323	9.39
223.541	79.02
223.759	48.3
223.977	85.16
224.195	17.58
224.413	27.82
224.631	50.35
224.849	33.96
225.067	56.49
225.285	-4.95
225.503	23.72
225.721	19.63
225.939	38.06
226.157	-31.57
226.375	40.11
226.592	33.96
226.81	17.58
227.028	66.73
227.246	3.24
227.464	87.21
227.682	48.3
227.9	79.02
228.117	3.24
228.335	-7
228.553	17.58
228.771	44.2
228.989	101.55
229.206	54.44
229.424	64.68
229.642	-15.19
229.86	62.63
230.077	50.35
230.295	93.35
230.513	25.77
230.731	85.16
230.948	70.83
231.166	107.69
231.384	62.63
231.601	23.72
231.819	33.96
232.037	5.29
232.254	44.2
232.472	50.35
232.689	40.11
232.907	85.16
233.125	81.07
233.342	29.87
233.56	-11.09
233.777	52.39
233.995	-9.05
234.213	83.11
234.43	33.96
234.648	36.01
234.865	58.54
235.083	56.49
235.3	27.82
235.518	31.91
235.735	62.63
235.953	40.11
236.17	9.39
236.388	76.97
236.605	33.96
236.822	60.59
237.04	-35.67
237.257	17.58
237.475	19.63
237.692	5.29
237.909	93.35
238.127	62.63
238.344	66.73
238.562	44.2
238.779	-4.95
238.996	25.77
239.214	40.11
239.431	66.73
239.648	-25.43
239.865	62.63
240.083	99.5
240.3	31.91
240.517	17.58
240.735	-11.09
240.952	72.87
241.169	25.77
241.386	21.67
241.603	79.02
241.821	29.87
242.038	58.54
242.255	27.82
242.472	115.88
242.689	40.11
242.907	36.01
243.124	15.53
243.341	-15.19
243.558	7.34
243.775	11.43
243.992	29.87
244.209	52.39
244.426	46.25
244.643	25.77
244.86	-7
245.078	38.06
245.295	33.96
245.512	52.39
245.729	25.77
245.946	70.83
246.163	-17.24
246.38	17.58
246.597	72.87
246.814	89.26
247.031	52.39
247.248	29.87
247.464	7.34
247.681	117.93
247.898	-9.05
248.115	21.67
248.332	7.34
248.549	54.44
248.766	40.11
248.983	50.35
249.2	9.39
249.417	105.64
249.633	21.67
249.85	91.31
250.067	81.07
250.284	79.02
250.501	50.35
250.717	-13.14
250.934	83.11
251.151	-17.24
251.368	-29.52
251.585	3.24
251.801	56.49
252.018	81.07
252.235	103.59
252.451	40.11
252.668	29.87
252.885	-23.38
253.102	29.87
253.318	21.67
253.535	9.39
253.752	-4.95
253.968	66.73
254.185	9.39
254.401	50.35
254.618	9.39
254.835	-11.09
255.051	-43.86
255.268	83.11
255.484	85.16
255.701	23.72
255.917	58.54
256.134	27.82
256.351	19.63
256.567	-11.09
256.784	-9.05
257	1.19
257.217	48.3
257.433	44.2
257.65	1.19
257.866	54.44
258.082	23.72
258.299	3.24
258.515	17.58
258.732	48.3
258.948	23.72
259.165	9.39
259.381	46.25
259.597	5.29
259.814	62.63
260.03	17.58
260.246	136.36
260.463	15.53
260.679	56.49
260.895	50.35
261.112	-11.09
261.328	7.34
261.544	40.11
261.761	91.31
261.977	9.39
262.193	-13.14
262.409	48.3
262.626	33.96
262.842	-9.05
263.058	54.44
263.274	99.5
263.49	62.63
263.707	87.21
263.923	76.97
264.139	31.91
264.355	62.63
264.571	62.63
264.787	60.59
265.004	5.29
265.22	54.44
265.436	44.2
265.652	-35.67
265.868	15.53
266.084	40.11
266.3	70.83
266.516	33.96
266.732	19.63
266.948	54.44
267.164	7.34
267.38	11.43
267.596	72.87
267.812	72.87
268.028	1.19
268.244	48.3
268.46	17.58
268.676	19.63
268.892	-35.67
269.108	136.36
269.324	46.25
269.54	-19.29
269.756	105.64
269.972	-68.44
270.188	-0.85
270.403	52.39
270.619	42.15
270.835	9.39
271.051	60.59
271.267	48.3
271.483	48.3
271.698	46.25
271.914	58.54
272.13	-2.9
272.346	42.15
272.562	44.2
272.777	58.54
272.993	64.68
273.209	58.54
273.425	44.2
273.64	25.77
273.856	19.63
274.072	95.4
274.287	95.4
274.503	-15.19
274.719	19.63
274.934	74.92
275.15	21.67
275.366	-25.43
275.581	31.91
275.797	46.25
276.012	40.11
276.228	56.49
276.444	50.35
276.659	21.67
276.875	42.15
277.09	97.45
277.306	38.06
277.521	13.48
277.737	11.43
277.952	62.63
278.168	52.39
278.383	27.82
278.599	27.82
278.814	21.67
279.03	87.21
279.245	27.82
279.461	83.11
279.676	103.59
279.892	33.96
280.107	13.48
280.322	38.06
280.538	107.69
280.753	23.72
280.969	81.07
281.184	27.82
281.399	29.87
281.615	113.83
281.83	27.82
282.045	46.25
282.26	56.49
282.476	19.63
282.691	72.87
282.906	66.73
283.122	89.26
283.337	-13.14
283.552	62.63
283.767	1.19
283.983	89.26
284.198	-4.95
284.413	74.92
284.628	58.54
284.843	31.91
285.058	64.68
285.274	19.63
285.489	5.29
285.704	74.92
285.919	9.39
286.134	85.16
286.349	5.29
286.564	103.59
286.779	11.43
286.995	167.08
287.21	89.26
287.425	79.02
287.64	87.21
287.855	17.58
288.07	70.83
288.285	54.44
288.5	93.35
288.715	1.19
288.93	50.35
289.145	-60.24
289.36	25.77
289.575	62.63
289.79	134.31
290.004	38.06
290.219	60.59
290.434	23.72
290.649	11.43
290.864	132.26
291.079	21.67
291.294	42.15
291.509	74.92
291.724	76.97
291.938	17.58
292.153	23.72
292.368	-15.19
292.583	79.02
292.798	101.55
293.012	40.11
293.227	-9.05
293.442	50.35
293.657	130.22
293.871	-4.95
294.086	140.46
294.301	103.59
294.516	93.35
294.73	21.67
294.945	11.43
295.16	68.78
295.374	29.87
295.589	15.53
295.804	66.73
296.018	29.87
296.233	66.73
296.447	42.15
296.662	40.11
296.877	54.44
297.091	56.49
297.306	76.97
297.52	60.59
297.735	33.96
297.949	-39.76
298.164	-7
298.378	27.82
298.593	70.83
298.807	74.92
299.022	44.2
299.236	68.78
299.451	42.15
299.665	54.44
299.88	117.93
300.094	56.49
300.309	40.11
300.523	81.07
300.737	-35.67
300.952	9.39
301.166	58.54
301.381	99.5
301.595	74.92
301.809	33.96
302.024	50.35
302.238	60.59
302.452	68.78
302.667	62.63
302.881	48.3
303.095	15.53
303.309	70.83
303.524	52.39
303.738	40.11
303.952	56.49
304.166	58.54
304.381	29.87
304.595	9.39
304.809	44.2
305.023	5.29
305.237	40.11
305.452	29.87
305.666	9.39
305.88	107.69
306.094	33.96
306.308	66.73
306.522	93.35
306.736	38.06
306.95	99.5
307.164	105.64
307.379	-9.05
307.593	93.35
307.807	99.5
308.021	105.64
308.235	-4.95
308.449	-0.85
308.663	38.06
308.877	48.3
309.091	33.96
309.305	11.43
309.519	58.54
309.733	85.16
309.947	72.87
310.161	33.96
310.374	91.31
310.588	40.11
310.802	-17.24
311.016	13.48
311.23	101.55
311.444	122.02
311.658	-0.85
311.872	62.63
312.085	-52.05
312.299	89.26
312.513	40.11
312.727	72.87
312.941	66.73
313.154	87.21
313.368	13.48
313.582	56.49
313.796	105.64
314.009	-27.48
314.223	31.91
314.437	-7
314.651	25.77
314.864	134.31
315.078	107.69
315.292	23.72
315.505	9.39
315.719	66.73
315.933	66.73
316.146	138.41
316.36	50.35
316.573	-2.9
316.787	23.72
317.001	50.35
317.214	115.88
317.428	72.87
317.641	54.44
317.855	5.29
318.068	70.83
318.282	56.49
318.495	27.82
318.709	33.96
318.922	128.17
319.136	70.83
319.349	58.54
319.563	79.02
319.776	40.11
319.99	-7
320.203	74.92
320.417	15.53
320.63	76.97
320.843	85.16
321.057	17.58
321.27	27.82
321.483	11.43
321.697	91.31
321.91	21.67
322.124	40.11
322.337	38.06
322.55	64.68
322.763	62.63
322.977	72.87
323.19	-0.85
323.403	72.87
323.617	11.43
323.83	115.88
324.043	89.26
324.256	46.25
324.469	5.29
324.683	50.35
324.896	42.15
325.109	115.88
325.322	132.26
325.535	74.92
325.748	-19.29
325.962	60.59
326.175	83.11
326.388	62.63
326.601	-9.05
326.814	50.35
327.027	124.07
327.24	-2.9
327.453	1.19
327.666	107.69
327.879	95.4
328.092	54.44
328.305	40.11
328.518	58.54
328.731	122.02
328.944	17.58
329.157	44.2
329.37	83.11
329.583	109.74
329.796	48.3
330.009	68.78
330.222	95.4
330.435	79.02
330.648	72.87
330.861	46.25
331.073	50.35
331.286	40.11
331.499	-17.24
331.712	29.87
331.925	58.54
332.138	-13.14
332.35	85.16
332.563	46.25
332.776	72.87
332.989	46.25
333.202	27.82
333.414	76.97
333.627	58.54
333.84	-41.81
334.053	17.58
334.265	79.02
334.478	66.73
334.691	23.72
334.903	25.77
335.116	83.11
335.329	19.63
335.541	95.4
335.754	1.19
335.966	68.78
336.179	60.59
336.392	60.59
336.604	21.67
336.817	42.15
337.029	19.63
337.242	74.92
337.454	58.54
337.667	-13.14
337.88	58.54
338.092	9.39
338.305	29.87
338.517	29.87
338.729	33.96
338.942	68.78
339.154	27.82
339.367	62.63
339.579	81.07
339.792	87.21
340.004	56.49
340.217	36.01
340.429	54.44
340.641	56.49
340.854	50.35
341.066	31.91
341.278	113.83
341.491	48.3
341.703	87.21
341.915	52.39
342.128	52.39
342.34	5.29
342.552	1.19
342.764	50.35
342.977	48.3
343.189	56.49
343.401	89.26
343.613	11.43
343.826	50.35
344.038	56.49
344.25	-11.09
344.462	3.24
344.674	89.26
344.886	107.69
345.099	13.48
345.311	-2.9
345.523	23.72
345.735	99.5
345.947	54.44
346.159	-0.85
346.371	58.54
346.583	87.21
346.795	54.44
347.007	-9.05
347.219	89.26
347.431	42.15
347.643	111.78
347.855	50.35
348.067	29.87
348.279	48.3
348.491	115.88
348.703	56.49
348.915	81.07
349.127	33.96
349.339	66.73
349.551	56.49
349.763	5.29
349.975	3.24
350.187	109.74
350.399	44.2
350.61	56.49
350.822	66.73
351.034	66.73
351.246	3.24
351.458	105.64
351.669	15.53
351.881	99.5
352.093	-2.9
352.305	66.73
352.517	40.11
352.728	46.25
352.94	-21.33
353.152	79.02
353.363	-15.19
353.575	56.49
353.787	-35.67
353.999	38.06
354.21	83.11
354.422	101.55
354.633	64.68
354.845	38.06
355.057	81.07
355.268	99.5
355.48	87.21
355.692	54.44
355.903	50.35
356.115	38.06
356.326	101.55
356.538	89.26
356.749	107.69
356.961	101.55
357.172	87.21
357.384	56.49
357.595	33.96
357.807	3.24
358.018	-9.05
358.23	62.63
358.441	68.78
358.653	23.72
358.864	66.73
359.075	3.24
359.287	60.59
359.498	29.87
359.709	-31.57
359.921	72.87
360.132	23.72
360.344	113.83
360.555	72.87
360.766	122.02
360.977	40.11
361.189	11.43
361.4	62.63
361.611	58.54
361.823	74.92
362.034	27.82
362.245	36.01
362.456	81.07
362.667	38.06
362.879	7.34
363.09	68.78
363.301	48.3
363.512	44.2
363.723	70.83
363.935	25.77
364.146	48.3
364.357	97.45
364.568	7.34
364.779	126.12
364.99	56.49
365.201	122.02
365.412	27.82
365.623	70.83
365.834	107.69
366.045	93.35
366.256	81.07
366.467	54.44
366.678	60.59
366.889	38.06
367.1	101.55
367.311	44.2
367.522	17.58
367.733	68.78
367.944	72.87
368.155	101.55
368.366	5.29
368.577	13.48
368.788	109.74
368.999	58.54
369.209	91.31
369.42	62.63
369.631	93.35
369.842	83.11
370.053	9.39
370.264	76.97
370.474	29.87
370.685	85.16
370.896	38.06
371.107	199.85
371.317	150.7
371.528	70.83
371.739	113.83
371.95	70.83
372.16	111.78
372.371	122.02
372.582	42.15
372.792	68.78
373.003	36.01
373.214	93.35
373.424	46.25
373.635	52.39
373.846	23.72
374.056	70.83
374.267	11.43
374.477	3.24
374.688	-2.9
374.898	60.59
375.109	-23.38
375.319	124.07
375.53	38.06
375.74	-7
375.951	25.77
376.161	-2.9
376.372	122.02
376.582	132.26
376.793	62.63
377.003	21.67
377.214	74.92
377.424	81.07
377.635	31.91
377.845	79.02
378.055	124.07
378.266	29.87
378.476	105.64
378.686	31.91
378.897	60.59
379.107	44.2
379.317	93.35
379.528	89.26
379.738	111.78
379.948	79.02
380.158	152.74
380.369	85.16
380.579	105.64
380.789	44.2
380.999	38.06
381.21	93.35
381.42	79.02
381.63	46.25
381.84	52.39
382.05	31.91
382.261	126.12
382.471	7.34
382.681	27.82
382.891	3.24
383.101	44.2
383.311	-21.33
383.521	50.35
383.731	5.29
383.941	74.92
384.151	13.48
384.361	68.78
384.571	97.45
384.781	85.16
384.991	19.63
385.201	79.02
385.411	83.11
385.621	113.83
385.831	38.06
386.041	52.39
386.251	103.59
386.461	107.69
386.671	9.39
386.881	103.59
387.091	99.5
387.301	33.96
387.511	68.78
387.72	89.26
387.93	103.59
388.14	95.4
388.35	95.4
388.56	105.64
388.769	52.39
388.979	17.58
389.189	111.78
389.399	89.26
389.609	11.43
389.818	130.22
390.028	-19.29
390.238	113.83
390.447	50.35
390.657	48.3
390.867	66.73
391.076	64.68
391.286	-23.38
391.496	113.83
391.705	109.74
391.915	89.26
392.125	40.11
392.334	97.45
392.544	142.5
392.753	74.92
392.963	56.49
393.172	107.69
393.382	95.4
393.591	146.6
393.801	-52.05
394.01	113.83
394.22	109.74
394.429	117.93
394.639	52.39
394.848	-4.95
395.058	66.73
395.267	66.73
395.477	42.15
395.686	97.45
395.895	122.02
396.105	-0.85
396.314	33.96
396.524	119.98
396.733	29.87
396.942	40.11
397.152	50.35
397.361	146.6
397.57	122.02
397.78	21.67
397.989	66.73
398.198	113.83
398.407	140.46
398.617	91.31
398.826	150.7
399.035	128.17
399.244	115.88
399.453	107.69
399.663	68.78
399.872	165.03
400.081	36.01
400.29	107.69
400.499	91.31
400.708	146.6
400.917	130.22
401.127	148.65
401.336	95.4
401.545	122.02
401.754	138.41
401.963	105.64
402.172	101.55
402.381	109.74
402.59	62.63
402.799	162.98
403.008	136.36
403.217	119.98
403.426	87.21
403.635	140.46
403.844	148.65
404.053	72.87
404.262	115.88
404.471	93.35
404.68	119.98
404.888	89.26
405.097	140.46
405.306	150.7
405.515	146.6
405.724	83.11
405.933	109.74
406.142	156.84
406.35	144.55
406.559	115.88
406.768	165.03
406.977	183.46
407.185	212.14
407.394	150.7
407.603	124.07
407.812	197.8
408.02	185.51
408.229	234.66
408.438	246.95
408.646	179.37
408.855	249
409.064	205.99
409.272	205.99
409.481	156.84
409.69	240.81
409.898	195.75
410.107	214.18
410.315	296.1
410.524	267.43
410.733	339.11
410.941	199.85
411.15	310.44
411.358	351.4
411.567	353.45
411.775	236.71
411.984	382.12
412.192	265.38
412.401	339.11
412.609	298.15
412.818	363.69
413.026	406.69
413.234	412.84
413.443	371.88
413.651	447.65
413.86	431.27
414.068	437.41
414.276	406.69
414.485	515.23
414.693	478.37
414.901	511.14
415.11	527.52
415.318	543.91
415.526	527.52
415.734	560.29
415.943	558.24
416.151	554.15
416.359	548
416.567	625.83
416.776	660.64
416.984	672.93
417.192	722.08
417.4	693.41
417.608	705.7
417.817	779.42
418.025	787.61
418.233	824.48
418.441	885.92
418.649	840.86
418.857	883.87
419.065	879.77
419.273	906.4
419.481	965.79
419.689	969.88
419.897	1021.08
420.105	1064.09
420.313	1084.57
420.521	1127.58
420.729	1197.21
420.937	1229.98
421.145	1303.7
421.353	1309.85
421.561	1334.42
421.769	1250.46
421.977	1479.83
422.185	1473.68
422.393	1533.08
422.601	1567.89
422.809	1653.91
423.017	1668.24
423.224	1694.86
423.432	1768.59
423.64	1848.46
423.848	1907.85
424.056	1885.33
424.263	1981.58
424.471	2040.97
424.679	2024.59
424.887	2137.23
425.094	2208.9
425.302	2262.15
425.51	2217.1
425.718	2253.96
425.925	2376.84
426.133	2483.33
426.341	2622.59
426.548	2806.91
426.756	2802.82
426.964	2854.02
427.171	3001.47
427.379	2997.37
427.586	3003.52
427.794	3112.06
428.001	3318.9
428.209	3415.16
428.417	3339.38
428.624	3597.43
428.832	3544.18
429.039	3693.68
429.247	3630.2
429.454	4070.51
429.662	4215.91
429.869	3937.39
430.076	4361.32
430.284	4232.3
430.491	4209.77
430.699	4691.04
430.906	4631.65
431.114	4580.45
431.321	5006.43
431.528	4901.98
431.736	5055.58
431.943	5342.3
432.15	5313.63
432.358	5483.61
432.565	5651.54
432.772	5637.2
432.979	5833.81
433.187	6085.71
433.394	6052.94
433.601	6442.06
433.808	6597.7
434.016	6485.06
434.223	6689.86
434.43	7117.89
434.637	6894.66
434.844	7406.65
435.052	7705.65
435.259	7554.1
435.466	7492.66
435.673	7629.88
435.88	8162.35
436.087	8635.43
436.294	8465.45
436.501	8533.03
436.708	8514.6
436.915	8653.86
437.122	9303.07
437.329	9258.01
437.537	9403.42
437.743	9706.52
437.95	9417.75
438.157	10406.92
438.364	10277.9
438.571	10417.16
438.778	10353.68
438.985	11301.89
439.192	11039.75
439.399	11447.29
439.606	11172.86
439.813	11697.14
440.02	12286.96
440.227	12043.25
440.433	12092.4
440.64	12542.96
440.847	12317.68
441.054	12719.08
441.261	13448.16
441.467	13300.7
441.674	13611.99
441.881	14224.34
442.088	13958.1
442.294	13935.57
442.501	14310.35
442.708	14607.31
442.914	15283.14
443.121	15887.29
443.328	15516.61
443.534	16833.45
443.741	16225.2
443.948	15725.5
444.154	17226.66
444.361	17013.67
444.568	16933.8
444.774	17038.25
444.981	17261.48
445.187	17648.54
445.394	18375.57
445.6	18584.46
445.807	20044.66
446.013	19334.02
446.22	19784.57
446.426	20462.45
446.633	20511.6
446.839	20986.73
447.046	20495.22
447.252	21480.29
447.459	21699.42
447.665	21267.3
447.871	22479.7
448.078	23446.34
448.284	22109.02
448.491	23030.6
448.697	23808.83
448.903	24210.23
449.11	24396.6
449.316	23874.37
449.522	24603.44
449.728	24920.88
449.935	25142.06
450.141	25232.17
450.347	25836.32
450.553	25099.05
450.76	25273.13
450.966	26137.37
451.172	26153.76
451.378	26481.43
451.584	26184.48
451.791	26602.26
451.997	26567.45
452.203	27091.73
452.409	27276.04
452.615	26845.97
452.821	25854.75
453.027	25596.71
453.233	27005.71
453.44	25971.49
453.646	26497.81
453.852	26637.08
454.058	26768.15
454.264	25944.86
454.47	26532.63
454.676	26039.07
454.882	26481.43
455.088	24286.01
455.294	24965.93
455.5	24982.32
455.705	25695.01
455.911	24642.35
456.117	23956.29
456.323	23941.95
456.529	22752.08
456.735	23339.85
456.941	22745.94
457.147	22182.74
457.352	21594.98
457.558	21545.83
457.764	21656.42
457.97	21117.8
458.176	21037.93
458.381	20667.25
458.587	19798.91
458.793	19760
458.999	18672.53
459.204	20095.86
459.41	19665.79
459.616	18320.28
459.821	18285.46
460.027	18230.16
460.233	17867.67
460.438	17132.45
460.644	17243.04
460.85	16337.84
461.055	16288.69
461.261	16204.72
461.466	15164.36
461.672	14552.01
461.878	15553.47
462.083	14314.45
462.289	14371.79
462.494	14087.12
462.7	13276.13
462.905	13204.45
463.111	13568.99
463.316	13401.05
463.522	13435.87
463.727	13523.93
463.932	13435.87
464.138	13378.53
464.343	13245.41
464.549	12979.17
464.754	13325.28
464.959	13116.39
465.165	13327.33
465.37	12530.67
465.575	12178.42
465.781	12741.61
465.986	12975.08
466.191	12465.13
466.397	12119.03
466.602	11643.9
466.807	12162.03
467.012	12192.75
467.218	12143.6
467.423	12094.45
467.628	11924.47
467.833	12368.88
468.038	11928.56
468.244	11822.07
468.449	12364.78
468.654	11768.82
468.859	11557.88
469.064	11566.07
469.269	11295.74
469.474	11236.35
469.679	11369.47
469.885	11072.51
470.09	11381.76
470.295	11273.21
470.5	11037.7
470.705	10923.01
470.91	10882.05
471.115	10634.25
471.32	10871.81
471.525	10750.98
471.73	10556.43
471.935	10359.82
472.139	10243.09
472.344	10208.27
472.549	10171.41
472.754	9989.14
472.959	9706.52
473.164	9583.64
473.369	9520.15
473.574	9833.49
473.778	9845.78
473.983	9698.33
474.188	9747.48
474.393	9215.01
474.598	9128.99
474.802	8983.59
475.007	9212.96
475.212	8985.63
475.417	8797.22
475.621	8672.29
475.826	8803.36
476.031	8590.38
476.235	8471.59
476.44	8610.86
476.645	8113.2
476.849	8397.87
477.054	8205.36
477.259	8084.53
477.463	8209.45
477.668	7902.26
477.872	7887.92
478.077	7881.78
478.282	7623.73
478.486	7703.61
478.691	7701.56
478.895	7599.16
479.1	7355.45
479.304	7672.89
479.509	7339.07
479.713	7347.26
479.918	7107.65
480.122	7150.65
480.326	7412.79
480.531	7392.31
480.735	7218.24
480.94	7142.46
481.144	7306.3
481.348	6945.86
481.553	7195.71
481.757	6988.86
481.961	7146.56
482.166	7177.28
482.37	7160.89
482.574	6763.59
482.778	6988.86
482.983	7052.35
483.187	7203.9
483.391	7093.31
483.595	7003.2
483.8	6982.72
484.004	6952
484.208	7193.66
484.412	7009.34
484.616	6995.01
484.821	7042.11
485.025	7007.3
485.229	7005.25
485.433	7033.92
485.637	7126.08
485.841	6937.66
486.045	7054.4
486.249	7150.65
486.453	7025.73
486.657	7285.82
486.861	7160.89
487.065	6997.06
487.269	7103.55
487.473	6882.37
487.677	7210.04
487.881	7142.46
488.085	6974.53
488.289	7349.31
488.493	7226.43
488.697	7298.11
488.901	7283.77
489.105	7205.95
489.309	7259.2
489.512	7148.61
489.716	7287.87
489.92	7216.19
490.124	7443.51
490.328	7455.8
490.531	7423.03
490.735	7369.79
490.939	7425.08
491.143	7328.83
491.346	7445.56
491.55	7560.25
491.754	7586.87
491.958	7666.74
492.161	7687.22
492.365	7773.24
492.569	7674.93
492.772	7658.55
492.976	7840.82
493.18	7945.27
493.383	7892.02
493.587	7851.06
493.79	8137.77
493.994	8213.55
494.197	8225.84
494.401	7994.42
494.605	8133.68
494.808	8281.13
495.012	8373.29
495.215	8453.16
495.419	8547.37
495.622	8545.32
495.825	8588.33
496.029	8705.06
496.232	8967.2
496.436	8983.59
496.639	9055.26
496.843	9114.66
497.046	9366.56
497.249	9419.8
497.453	9272.35
497.656	9370.65
497.859	9634.84
498.063	9571.35
498.266	9759.77
498.469	9974.8
498.673	10071.06
498.876	10179.6
499.079	10359.82
499.282	10288.14
499.485	10476.55
499.689	10597.38
499.892	10849.29
500.095	10744.84
500.298	11052.03
500.501	11043.84
500.705	11379.71
500.908	11502.59
501.111	11582.46
501.314	11762.68
501.517	11916.28
501.72	11987.96
501.923	11973.62
502.126	12338.16
502.329	12514.28
502.532	12661.74
502.735	12657.64
502.938	13018.08
503.141	13079.52
503.344	13468.64
503.547	13351.9
503.75	13448.16
503.953	14017.49
504.156	14011.35
504.359	14136.27
504.562	14320.59
504.765	14486.48
504.968	14824.39
505.17	14777.29
505.373	14867.4
505.576	15270.85
505.779	15291.33
505.982	15467.45
506.185	15782.84
506.387	15768.51
506.59	15965.11
506.793	16495.53
506.996	16442.29
507.198	16642.99
507.401	16651.18
507.604	16921.51
507.807	17445.79
508.009	17404.83
508.212	17712.03
508.415	17767.32
508.617	18322.32
508.82	18264.98
509.022	18228.12
509.225	18834.32
509.428	18731.92
509.63	19159.94
509.833	19190.66
510.035	19714.94
510.238	19729.28
510.44	19895.16
510.643	20239.22
510.845	20407.16
511.048	20421.49
511.25	20675.44
511.453	20515.7
511.655	21717.86
511.858	21644.13
512.06	21203.82
512.262	21791.58
512.465	21898.08
512.667	22180.7
512.87	22457.17
513.072	22690.64
513.274	23229.26
513.477	23382.85
513.679	23436.1
513.881	23671.62
514.084	24142.65
514.286	23978.81
514.488	24361.78
514.69	24816.43
514.893	24953.65
515.095	25211.69
515.297	25502.5
515.499	25594.66
515.701	26092.32
515.904	26323.74
516.106	26675.99
516.308	26579.73
516.51	27067.15
516.712	27056.91
516.914	27525.89
517.116	27828.99
517.318	27642.63
517.52	27988.74
517.722	27863.81
517.925	28668.66
518.127	29229.8
518.329	28930.8
518.531	28791.54
518.733	29635.3
518.935	30001.89
519.136	29901.54
519.338	30364.38
519.54	30642.9
519.742	31165.14
519.944	30763.73
520.146	31611.59
520.348	31609.54
520.55	31601.35
520.752	31861.44
520.954	32457.4
521.155	32475.84
521.357	32645.82
521.559	32961.2
521.761	33551.02
521.963	33534.63
522.164	33606.31
522.366	33796.77
522.568	33819.3
522.77	34613.91
522.971	34355.87
523.173	34794.14
523.375	34955.93
523.576	34978.45
523.778	35070.61
523.98	35492.49
524.181	35676.81
524.383	35541.64
524.584	35861.13
524.786	36166.27
524.988	35943.05
525.189	36786.81
525.391	36803.19
525.592	36952.69
525.794	37452.4
525.995	37034.61
526.197	37079.67
526.398	37251.7
526.6	37659.24
526.801	38009.45
527.003	37843.56
527.204	38058.6
527.406	38666.84
527.607	38638.17
527.808	38623.84
528.01	38158.95
528.211	38720.09
528.412	39565.9
528.614	39338.58
528.815	38920.79
529.016	39746.12
529.218	39021.14
529.419	39271
529.62	39314
529.822	39135.83
530.023	39453.26
530.224	39586.38
530.425	39756.36
530.626	39764.56
530.828	39522.9
531.029	40202.82
531.23	40088.13
531.431	39866.95
531.632	40086.09
531.833	40307.27
532.035	40073.8
532.236	40440.39
532.437	40852.03
532.638	40350.27
532.839	40985.15
533.04	40518.21
533.241	40434.24
533.442	41118.26
533.643	40938.04
533.844	40942.14
534.045	40809.02
534.246	40546.88
534.447	40983.1
534.648	40710.72
534.849	40753.72
535.05	41146.93
535.251	40942.14
535.451	41220.66
535.652	41353.78
535.853	41198.13
536.054	41165.37
536.255	41482.8
536.456	40837.69
536.657	41671.21
536.857	41484.85
537.058	41226.81
537.259	41882.16
537.46	41404.98
537.66	41249.33
537.861	41380.4
538.062	41048.63
538.263	41830.96
538.463	41339.44
538.664	41312.82
538.865	41572.91
539.065	41685.55
539.266	41450.03
539.466	41779.76
539.667	41155.13
539.868	41976.36
540.068	41507.38
540.269	41734.7
540.469	42156.58
540.67	42035.75
540.87	41869.87
541.071	41863.72
541.271	41749.04
541.472	41966.12
541.672	41490.99
541.873	41390.64
542.073	41165.37
542.274	41968.17
542.474	41855.53
542.675	41490.99
542.875	41966.12
543.075	42017.32
543.276	41345.59
543.476	42172.97
543.676	41857.58
543.877	41933.35
544.077	42166.82
544.277	42015.27
544.478	42107.43
544.678	42091.05
544.878	42172.97
545.078	42154.54
545.279	41665.07
545.479	41830.96
545.679	41931.31
545.879	41849.39
546.079	41724.46
546.28	41890.35
546.48	41587.25
546.68	42179.11
546.88	41736.75
547.08	41910.83
547.28	41980.46
547.48	41290.29
547.68	42064.42
547.88	41912.88
548.081	41828.91
548.281	41869.87
548.481	41869.87
548.681	42127.91
548.881	41568.82
549.081	41939.5
549.28	41824.81
549.48	42170.92
549.68	41822.76
549.88	42541.6
550.08	41744.94
550.28	41681.45
550.48	41759.28
550.68	42295.85
550.88	41402.93
551.08	42117.67
551.279	42033.71
551.479	41589.3
551.679	42052.14
551.879	41634.35
552.079	41820.72
552.278	41534
552.478	41767.47
552.678	41746.99
552.878	41617.97
553.077	41495.09
553.277	41357.88
553.477	42193.45
553.676	41562.67
553.876	42078.76
554.076	41626.16
554.275	41822.76
554.475	41724.46
554.674	41720.37
554.874	41773.61
555.074	41660.97
555.273	41562.67
555.473	41779.76
555.672	41478.71
555.872	41935.4
556.071	41894.44
556.271	41546.29
556.47	41517.62
556.67	41124.41
556.869	41652.78
557.068	41474.61
557.268	40768.06
557.467	41624.11
557.667	41435.7
557.866	41343.54
558.065	41048.63
558.265	41112.12
558.464	40831.55
558.663	41652.78
558.863	41079.35
559.062	41591.34
559.261	41087.54
559.461	41665.07
559.66	40991.29
559.859	41087.54
560.058	40976.95
560.258	41218.61
560.457	40841.79
560.656	41206.33
560.855	40741.44
561.054	41296.44
561.253	41159.22
561.453	40792.64
561.652	40985.15
561.851	40878.65
562.05	41036.34
562.249	40686.14
562.448	41132.6
562.647	41030.2
562.846	41132.6
563.045	40987.19
563.244	40069.7
563.443	40983.1
563.642	40249.92
563.841	40796.73
564.04	40284.74
564.239	40723.01
564.438	40528.45
564.637	40647.23
564.836	40712.77
565.035	40309.32
565.234	40333.89
565.432	40460.87
565.631	40278.6
565.83	40563.26
566.029	40280.64
566.228	40405.57
566.427	40223.3
566.625	40143.43
566.824	40215.11
567.023	40047.18
567.222	39602.77
567.42	40145.48
567.619	40245.83
567.818	39912.01
568.016	40030.79
568.215	39807.56
568.414	39682.64
568.612	40581.7
568.811	39815.76
569.01	40077.9
569.208	39746.12
569.407	39682.64
569.605	39219.8
569.804	40008.26
570.002	39707.21
570.201	40022.6
570.4	39289.43
570.598	39668.3
570.797	39258.71
570.995	39332.43
571.193	39436.88
571.392	39201.36
571.59	39193.17
571.789	39150.17
571.987	38976.09
572.186	39066.2
572.384	39055.96
572.582	38898.27
572.781	39039.57
572.979	38777.43
573.177	38670.94
573.376	39031.38
573.574	38560.35
573.772	38804.06
573.971	38453.86
574.169	38142.56
574.367	38117.99
574.565	38722.14
574.763	38320.74
574.962	38156.9
575.16	38058.6
575.358	38236.77
575.556	37945.96
575.754	38361.7
575.952	37825.13
576.151	38140.52
576.349	37532.27
576.547	37745.26
576.745	37741.16
576.943	37880.42
577.141	37452.4
577.339	37393.01
577.537	37141.11
577.735	37323.38
577.933	36840.06
578.131	37446.26
578.329	37087.86
578.527	36635.26
578.725	37442.16
578.923	37290.61
579.121	36790.91
579.319	36702.84
579.516	36612.73
579.714	36835.96
579.912	36543.1
580.11	36563.58
580.308	36579.96
580.506	36278.91
580.704	35977.86
580.901	36397.7
581.099	36598.4
581.297	36067.97
581.495	35934.85
581.692	36031.11
581.89	35263.12
582.088	35717.77
582.285	35611.28
582.483	35732.11
582.681	35289.74
582.878	35807.88
583.076	35019.41
583.274	35617.42
583.471	34927.25
583.669	35250.83
583.866	34472.6
584.064	35080.85
584.262	34513.56
584.459	35107.47
584.657	34751.13
584.854	34591.39
585.052	34355.87
585.249	34491.04
585.447	34581.15
585.644	34312.86
585.841	34386.59
586.039	34656.92
586.236	33792.68
586.434	34083.49
586.631	33868.45
586.828	33948.32
587.026	33505.96
587.223	33927.84
587.42	33280.69
587.618	33499.82
587.815	33172.14
588.012	33299.12
588.21	33323.69
588.407	33409.71
588.604	32957.11
588.801	33002.16
588.999	32965.3
589.196	32934.58
589.393	33047.22
589.59	32877.24
589.787	32625.34
589.984	32643.77
590.182	32461.5
590.379	32240.32
590.576	31787.72
590.773	32271.04
590.97	32162.5
591.167	32150.21
591.364	31650.5
591.561	31943.36
591.758	31617.74
591.955	31578.82
592.152	31935.17
592.349	31359.69
592.546	31623.88
592.743	31363.79
592.94	31001.3
593.137	30919.38
593.334	31539.91
593.531	30829.27
593.727	31224.53
593.924	31236.81
594.121	30681.81
594.318	31052.5
594.515	30542.55
594.712	30622.42
594.908	30446.3
595.105	30429.91
595.302	30145.25
595.499	30497.5
595.696	30370.52
595.892	30126.81
596.089	30442.2
596.286	29805.28
596.482	29969.12
596.679	29917.92
596.876	29930.21
597.072	29616.87
597.269	29485.8
597.466	29291.24
597.662	29586.15
597.859	29471.46
598.055	29170.41
598.252	28775.16
598.448	29203.18
598.645	29086.45
598.841	28695.28
599.038	28740.34
599.234	28969.71
599.431	28324.6
599.627	28576.5
599.824	28760.82
600.02	28478.2
600.217	28664.57
600.413	27915.01
600.609	28013.31
600.806	27573
601.002	28132.09
601.198	27888.39
601.395	27960.06
601.591	27747.08
601.787	27929.34
601.984	27413.26
602.18	28009.22
602.376	27394.82
602.572	27237.13
602.769	27243.27
602.965	27214.6
603.161	27151.12
603.357	27108.11
603.553	26766.1
603.75	27030.29
603.946	26698.52
604.142	26864.4
604.338	26317.59
604.534	26659.6
604.73	26008.35
604.926	26366.74
605.122	26422.04
605.318	26391.32
605.514	26092.32
605.71	26305.31
605.906	26000.16
606.102	26112.8
606.298	25969.44
606.494	25858.85
606.69	25834.27
606.886	26016.54
607.082	25652
607.278	25733.92
607.474	25522.98
607.67	25512.74
607.866	25041.71
608.062	25436.97
608.257	25320.23
608.453	25326.38
608.649	25041.71
608.845	24910.64
609.041	25273.13
609.236	25133.87
609.432	24927.02
609.628	24908.59
609.824	24668.98
610.019	24550.2
610.215	24881.97
610.411	24898.35
610.606	24263.48
610.802	24482.61
610.998	24326.97
611.193	24875.82
611.389	24267.58
611.584	24275.77
611.78	24263.48
611.976	24310.58
612.171	24154.94
612.367	24281.91
612.562	24259.38
612.758	23774.02
612.953	23825.22
613.149	24236.86
613.344	23870.27
613.539	24113.98
613.735	23870.27
613.93	23784.26
614.126	23692.1
614.321	23886.65
614.517	23583.55
614.712	23737.15
614.907	23468.87
615.103	23700.29
615.298	23321.41
615.493	23540.55
615.688	23397.19
615.884	23696.19
616.079	23069.51
616.274	23511.88
616.47	22917.96
616.665	23116.62
616.86	23173.96
617.055	23163.72
617.25	22893.39
617.445	23063.37
617.641	22774.61
617.836	22997.84
618.031	22518.61
618.226	22676.3
618.421	22506.32
618.616	22768.46
618.811	22289.24
619.006	22354.77
619.201	22399.83
619.396	22362.97
619.591	21975.9
619.786	22205.27
619.981	21711.71
620.176	22063.96
620.371	21470.05
620.566	22063.96
620.761	21642.08
620.956	21693.28
621.151	20976.49
621.346	21431.14
621.541	20992.87
621.735	21453.67
621.93	20745.07
622.125	20972.39
622.32	20824.94
622.515	20859.76
622.709	20358
622.904	20679.54
623.099	20089.72
623.294	20355.96
623.488	20181.88
623.683	20145.02
623.878	19895.16
624.072	19895.16
624.267	19899.26
624.462	19686.27
624.656	19604.35
624.851	19553.15
625.046	19207.05
625.24	19202.95
625.435	18946.95
625.629	19172.23
625.824	18897.8
626.018	19037.06
626.213	18434.96
626.407	18869.13
626.602	18652.05
626.796	18379.67
626.991	18559.89
627.185	18322.32
627.38	18398.1
627.574	18047.9
627.768	17949.59
627.963	17992.6
628.157	17570.72
628.352	17873.82
628.546	17249.19
628.74	17818.52
628.935	17486.75
629.129	17163.17
629.323	17066.92
629.517	17226.66
629.712	17103.78
629.906	17255.33
630.1	16792.49
630.294	16847.79
630.489	16638.89
630.683	16905.13
630.877	16649.13
631.071	16438.19
631.265	16450.48
631.459	16409.52
631.653	16235.44
631.848	16284.59
632.042	15883.19
632.236	15930.3
632.43	15807.42
632.624	15901.62
632.818	15641.53
633.012	15631.29
633.206	15791.03
633.4	15545.28
633.594	15338.43
633.788	15639.48
633.982	15309.76
634.176	15330.24
634.369	14996.42
634.563	15324.1
634.757	14988.23
634.951	15021
635.145	15047.62
635.339	14988.23
635.533	14748.62
635.726	14707.66
635.92	14717.9
636.114	14625.74
636.308	14539.72
636.501	14277.58
636.695	14214.1
636.889	14097.36
637.083	14060.5
637.276	13982.68
637.47	13958.1
637.664	14035.92
637.857	13919.19
638.051	13618.14
638.244	13710.3
638.438	13689.82
638.632	13661.15
638.825	13499.36
639.019	13376.48
639.212	13274.08
639.406	13331.42
639.599	13339.62
639.793	13040.61
639.986	12954.6
640.18	12958.69
640.373	12891.11
640.567	12895.21
640.76	12917.73
640.954	12690.41
641.147	12598.25
641.34	12344.3
641.534	12473.32
641.727	12575.72
641.92	12338.16
642.114	12200.94
642.307	12303.34
642.5	12006.39
642.694	12231.66
642.887	11967.48
643.08	12225.52
643.273	11879.41
643.467	11758.58
643.66	11641.85
643.853	11758.58
644.046	11467.77
644.239	11568.12
644.432	11465.72
644.626	11418.62
644.819	11508.73
645.012	11410.43
645.205	11375.61
645.398	11271.17
645.591	10957.83
645.784	11068.42
645.977	10925.06
646.17	10693.64
646.363	10662.92
646.556	10597.38
646.749	10822.66
646.942	10822.66
647.135	10484.75
647.328	10744.84
647.521	10443.79
647.714	10396.68
647.907	10359.82
648.099	10271.76
648.292	10165.26
648.485	10083.34
648.678	10138.64
648.871	9978.9
649.064	9696.28
649.256	9966.61
649.449	9823.25
649.642	9815.06
649.835	9786.39
650.027	9727
650.22	9643.03
650.413	9722.9
650.605	9604.12
650.798	9534.49
650.991	9368.6
651.183	9319.45
651.376	9333.79
651.568	9186.33
651.761	9014.31
651.954	9133.09
652.146	9165.85
652.339	8946.72
652.531	8844.32
652.724	8969.25
652.916	8717.35
653.109	8746.02
653.301	8696.87
653.494	8836.13
653.686	8598.57
653.879	8733.73
654.071	8414.25
654.263	8543.27
654.456	8483.88
654.648	8416.3
654.84	8447.02
655.033	8322.09
655.225	8279.08
655.417	8219.69
655.61	8203.31
655.802	8223.79
655.994	8045.62
656.186	8123.44
656.379	8057.9
656.571	7926.83
656.763	7857.2
656.955	7711.8
657.148	7810.1
657.34	7642.17
657.532	7650.36
657.724	7746.61
657.916	7763
658.108	7525.43
658.3	7650.36
658.492	7466.04
658.684	7494.71
658.876	7420.99
659.068	7406.65
659.26	7396.41
659.452	7289.92
659.644	7363.64
659.836	6966.34
660.028	6962.24
660.22	6861.89
660.412	6992.96
660.604	6941.76
660.796	6806.59
660.988	6845.51
661.18	6820.93
661.372	6749.25
661.563	6802.5
661.755	6579.27
661.947	6548.55
662.139	6487.11
662.331	6638.66
662.522	6421.58
662.714	6358.09
662.906	6333.51
663.097	6407.24
663.289	6298.7
663.481	6337.61
663.673	6233.16
663.864	6089.81
664.056	6071.37
664.247	6044.75
664.439	6093.9
664.631	6159.44
664.822	6075.47
665.014	5874.77
665.205	5809.23
665.397	5788.75
665.588	5753.94
665.78	5792.85
665.971	5688.4
666.163	5682.26
666.354	5764.18
666.546	5659.73
666.737	5661.78
666.929	5545.05
667.12	5354.58
667.311	5432.41
667.503	5553.24
667.694	5336.15
667.885	5323.87
668.077	5237.85
668.268	5262.43
668.459	5172.32
668.651	5209.18
668.842	5174.36
669.033	5074.01
669.224	5055.58
669.416	4998.24
669.607	5157.98
669.798	4990.05
669.989	5018.72
670.18	5074.01
670.371	4787.3
670.563	4818.02
670.754	4942.94
670.945	4768.87
671.136	4711.52
671.327	4910.18
671.518	4725.86
671.709	4846.69
671.9	4754.53
672.091	4557.93
672.282	4609.12
672.473	4498.53
672.664	4615.27
672.855	4539.49
673.046	4504.68
673.237	4650.08
673.428	4568.16
673.619	4463.72
673.809	4525.16
674	4379.75
674.191	4455.53
674.382	4379.75
674.573	4291.69
674.764	4389.99
674.954	4334.7
675.145	4140.14
675.336	4242.54
675.527	4195.43
675.717	4179.05
675.908	4211.82
676.099	4127.85
676.289	4007.02
676.48	4050.03
676.671	3986.54
676.861	4185.19
677.052	4142.19
677.243	3984.49
677.433	4090.99
677.624	4039.79
677.814	3959.92
678.005	3929.2
678.195	3929.2
678.386	3951.73
678.576	3910.77
678.767	3974.25
678.957	3826.8
679.148	3970.16
679.338	3966.06
679.529	3865.71
679.719	3712.11
679.909	3867.76
680.1	3769.46
680.29	3783.79
680.481	3851.38
680.671	3779.7
680.861	3732.59
681.052	3705.97
681.242	3726.45
681.432	3665.01
681.622	3634.29
681.813	3570.8
682.003	3538.04
682.193	3642.48
682.383	3585.14
682.573	3626.1
682.764	3611.76
682.954	3507.32
683.144	3517.56
683.334	3492.98
683.524	3546.23
683.714	3642.48
683.904	3415.16
684.094	3445.88
684.284	3609.72
684.474	3603.57
684.664	3456.12
684.854	3449.97
685.044	3495.03
685.234	3318.9
685.424	3406.97
685.614	3458.17
685.804	3347.58
685.994	3400.82
686.184	3544.18
686.374	3398.77
686.564	3363.96
686.753	3429.49
686.943	3286.14
687.133	3277.94
687.323	3431.54
687.513	3411.06
687.702	3460.21
687.892	3345.53
688.082	3318.9
688.272	3351.67
688.461	3380.34
688.651	3411.06
688.841	3294.33
689.03	3255.42
689.22	3347.58
689.41	3323
689.599	3234.94
689.789	3294.33
689.979	3323
690.168	3288.18
690.358	3155.07
690.547	3298.42
690.737	3331.19
690.926	3267.7
691.116	3224.7
691.305	3355.77
691.495	3294.33
691.684	3208.31
691.874	3103.87
692.063	3232.89
692.252	3275.9
692.442	3273.85
692.631	3257.46
692.82	3236.99
693.01	3167.35
693.199	3069.05
693.388	3087.48
693.578	3107.96
693.767	3155.07
693.956	3150.97
694.146	3064.96
694.335	3144.83
694.524	3134.59
694.713	3165.31
694.902	3001.47
695.092	3134.59
695.281	2991.23
695.47	3009.66
695.659	3126.39
695.848	2983.04
696.037	3077.24
696.226	3091.58
696.415	2972.8
696.604	2952.32
696.793	2976.89
696.982	2790.53
697.171	2978.94
697.36	2921.6
697.549	2788.48
697.738	2960.51
697.927	2886.78
698.116	2878.59
698.305	2851.97
698.494	2774.14
698.683	2788.48
698.872	2770.05
699.061	2714.75
699.25	2679.94
699.438	2835.58
699.627	2921.6
699.816	2741.38
700.005	2753.66
700.193	2731.14
700.382	2731.14
700.571	2653.31
700.76	2720.9
700.948	2677.89
701.137	2628.74
701.326	2618.5
701.514	2706.56
701.703	2528.39
701.892	2663.55
702.08	2630.79
702.269	2503.81
702.457	2561.16
702.646	2620.55
702.834	2524.29
703.023	2557.06
703.212	2462.85
703.4	2452.61
703.589	2548.87
703.777	2485.38
703.965	2370.69
704.154	2471.04
704.342	2415.75
704.531	2391.17
704.719	2473.09
704.907	2436.23
705.096	2409.61
705.284	2454.66
705.472	2395.27
705.661	2290.82
705.849	2475.14
706.037	2352.26
706.226	2352.26
706.414	2360.45
706.602	2333.83
706.79	2262.15
706.979	2268.3
707.167	2284.68
707.355	2231.43
707.543	2270.34
707.731	2270.34
707.919	2245.77
708.107	2251.91
708.296	2192.52
708.484	2225.29
708.672	2176.14
708.86	2165.9
709.048	2131.08
709.236	2225.29
709.424	2157.71
709.612	2126.99
709.8	2268.3
709.988	2141.32
710.176	2069.64
710.364	2022.54
710.551	2059.4
710.739	2026.64
710.927	2065.55
711.115	2116.75
711.303	2028.68
711.491	1961.1
711.679	2000.01
711.866	1944.72
712.054	1940.62
712.242	2002.06
712.43	2000.01
712.617	1950.86
712.805	1959.05
712.993	2006.16
713.181	1946.76
713.368	1916.05
713.556	1916.05
713.744	1907.85
713.931	1954.96
714.119	1914
714.306	1846.41
714.494	1928.33
714.682	1967.24
714.869	1815.69
715.057	1799.31
715.244	1834.13
715.432	1842.32
715.619	1813.65
715.807	1803.41
715.994	1815.69
716.182	1795.22
716.369	1782.93
716.556	1764.5
716.744	1694.86
716.931	1715.34
717.119	1705.1
717.306	1580.18
717.493	1678.48
717.681	1762.45
717.868	1645.71
718.055	1701.01
718.242	1713.3
718.43	1666.19
718.617	1569.94
718.804	1541.27
718.991	1658
719.179	1715.34
719.366	1576.08
719.553	1580.18
719.74	1598.61
719.927	1520.79
720.114	1627.28
720.301	1578.13
720.488	1541.27
720.676	1559.7
720.863	1506.45
721.05	1467.54
721.237	1440.92
721.424	1553.55
721.611	1557.65
721.798	1389.72
721.985	1469.59
722.172	1420.44
722.358	1516.69
722.545	1520.79
722.732	1483.92
722.919	1498.26
723.106	1354.9
723.293	1432.72
723.48	1459.35
723.667	1451.16
723.853	1469.59
724.04	1459.35
724.227	1402.01
724.414	1422.48
724.6	1342.61
724.787	1295.51
724.974	1369.24
725.161	1266.84
725.347	1356.95
725.534	1379.48
725.72	1322.13
725.907	1301.65
726.094	1295.51
726.28	1180.82
726.467	1430.68
726.653	1305.75
726.84	1336.47
727.027	1297.56
727.213	1250.46
727.4	1371.29
727.586	1318.04
727.773	1166.49
727.959	1205.4
728.145	1221.78
728.332	1252.5
728.518	1260.7
728.705	1258.65
728.891	1174.68
729.077	1211.54
729.264	1160.34
729.45	1248.41
729.636	1086.62
729.823	1232.02
730.009	1242.26
730.195	1121.43
730.382	1283.22
730.568	1170.58
730.754	1209.5
730.94	1195.16
731.126	1199.26
731.313	1146.01
731.499	1172.63
731.685	1111.19
731.871	1186.97
732.057	1209.5
732.243	1039.51
732.429	1154.2
732.615	1096.86
732.801	1141.91
732.987	1189.02
733.173	1023.13
733.359	1000.6
733.545	1133.72
733.731	1033.37
733.917	1035.42
734.103	1031.32
734.289	1088.67
734.475	976.03
734.661	1115.29
734.847	1117.34
735.033	1027.23
735.219	973.98
735.404	976.03
735.59	961.69
735.776	1025.18
735.962	1000.6
736.148	1023.13
736.333	951.45
736.519	935.07
736.705	957.6
736.89	959.64
737.076	900.25
737.262	1045.66
737.447	1000.6
737.633	963.74
737.819	920.73
738.004	924.83
738.19	912.54
738.375	951.45
738.561	928.92
738.747	941.21
738.932	808.09
739.118	1053.85
739.303	890.01
739.489	887.97
739.674	877.73
739.859	863.39
740.045	887.97
740.23	918.68
740.416	883.87
740.601	816.29
740.786	797.85
740.972	812.19
741.157	789.66
741.342	834.72
741.528	896.16
741.713	730.27
741.898	822.43
742.084	806.05
742.269	744.61
742.454	812.19
742.639	795.81
742.824	738.46
743.01	838.81
743.195	785.57
743.38	773.28
743.565	849.05
743.75	808.09
743.935	767.13
744.12	748.7
744.305	777.37
744.49	726.18
744.675	793.76
744.86	713.89
745.045	744.61
745.23	787.61
745.415	783.52
745.6	783.52
745.785	728.22
745.97	709.79
746.155	738.46
746.34	740.51
746.525	693.41
746.71	738.46
746.895	728.22
747.079	654.5
747.264	720.03
747.449	765.09
747.634	787.61
747.819	646.3
748.003	660.64
748.188	656.54
748.373	681.12
748.557	652.45
748.742	636.06
748.927	742.56
749.111	642.21
749.296	695.46
749.481	580.77
749.665	623.78
749.85	664.74
750.034	621.73
750.219	662.69
750.404	613.54
750.588	629.92
750.773	607.39
750.957	545.95
751.141	580.77
751.326	554.15
751.51	564.39
751.695	564.39
751.879	556.19
752.064	611.49
752.248	574.63
752.432	593.06
752.617	605.35
752.801	605.35
752.985	529.57
753.17	597.15
753.354	521.38
753.538	548
753.722	523.43
753.907	631.97
754.091	552.1
754.275	502.95
754.459	556.19
754.643	545.95
754.828	609.44
755.012	482.47
755.196	531.62
755.38	564.39
755.564	558.24
755.748	531.62
755.932	550.05
756.116	531.62
756.3	488.61
756.484	574.63
756.668	545.95
756.852	449.7
757.036	527.52
757.22	500.9
757.404	486.56
757.588	480.42
757.772	539.81
757.956	541.86
758.14	523.43
758.323	482.47
758.507	466.08
758.691	478.37
758.875	531.62
759.059	511.14
759.242	437.41
759.426	443.56
759.61	427.17
759.794	429.22
759.977	384.16
760.161	449.7
760.345	515.23
760.528	437.41
760.712	470.18
760.895	492.71
761.079	466.08
761.263	484.52
761.446	441.51
761.63	449.7
761.813	521.38
761.997	443.56
762.18	498.85
762.364	435.36
762.547	496.8
762.731	429.22
762.914	416.93
763.098	390.31
763.281	437.41
763.464	416.93
763.648	461.99
763.831	400.55
764.015	470.18
764.198	380.07
764.381	500.9
764.564	398.5
764.748	427.17
764.931	386.21
765.114	437.41
765.297	439.46
765.481	371.88
765.664	464.04
765.847	359.59
766.03	421.03
766.213	445.6
766.397	400.55
766.58	439.46
766.763	466.08
766.946	357.54
767.129	459.94
767.312	373.92
767.495	373.92
767.678	513.19
767.861	406.69
768.044	375.97
768.227	363.69
768.41	423.08
768.593	449.7
768.776	357.54
768.959	324.77
769.142	474.28
769.324	380.07
769.507	359.59
769.69	357.54
769.873	443.56
770.056	466.08
770.239	451.75
770.421	439.46
770.604	371.88
770.787	412.84
770.97	312.49
771.152	453.8
771.335	378.02
771.518	416.93
771.7	474.28
771.883	433.32
772.066	294.05
772.248	361.64
772.431	359.59
772.613	408.74
772.796	384.16
772.978	433.32
773.161	414.88
773.343	304.29
773.526	343.21
773.708	380.07
773.891	359.59
774.073	328.87
774.256	353.45
774.438	328.87
774.621	330.92
774.803	361.64
774.985	289.96
775.168	429.22
775.35	367.78
775.532	330.92
775.715	396.45
775.897	337.06
776.079	394.4
776.261	326.82
776.444	318.63
776.626	328.87
776.808	294.05
776.99	390.31
777.173	275.62
777.355	351.4
777.537	351.4
777.719	318.63
777.901	312.49
778.083	308.39
778.265	375.97
778.447	396.45
778.629	316.58
778.811	294.05
778.993	281.77
779.175	269.48
779.357	289.96
779.539	355.49
779.721	261.29
779.903	271.53
780.085	318.63
780.267	267.43
780.449	263.33
780.631	337.06
780.812	300.2
780.994	300.2
781.176	244.9
781.358	304.29
781.54	203.94
781.721	228.52
781.903	326.82
782.085	199.85
782.267	367.78
782.448	251.05
782.63	269.48
782.812	306.34
782.993	259.24
783.175	285.86
783.357	234.66
783.538	296.1
783.72	230.57
783.901	240.81
784.083	259.24
784.264	259.24
784.446	228.52
784.627	289.96
784.809	214.18
784.99	212.14
785.172	253.09
785.353	287.91
785.535	244.9
785.716	279.72
785.897	253.09
786.079	212.14
786.26	240.81
786.441	201.9
786.623	238.76
786.804	261.29
786.985	189.61
787.167	214.18
787.348	261.29
787.529	177.32
787.71	230.57
787.891	218.28
788.073	220.33
788.254	187.56
788.435	160.94
788.616	240.81
788.797	201.9
788.978	308.39
789.159	177.32
789.34	224.42
789.522	183.46
789.703	195.75
789.884	216.23
790.065	232.62
790.246	197.8
790.427	230.57
790.607	197.8
790.788	208.04
790.969	122.02
791.15	197.8
791.331	210.09
791.512	183.46
791.693	224.42
791.874	169.13
792.054	238.76
792.235	205.99
792.416	193.7
792.597	175.27
792.778	216.23
792.958	181.42
793.139	169.13
793.32	107.69
793.5	177.32
793.681	253.09
793.862	228.52
794.042	177.32
794.223	175.27
794.404	203.94
794.584	165.03
794.765	148.65
794.945	160.94
795.126	136.36
795.306	191.66
795.487	203.94
795.667	142.5
795.848	130.22
796.028	169.13
796.209	128.17
796.389	93.35
796.57	171.18
796.75	156.84
796.93	162.98
797.111	158.89
797.291	128.17
797.471	91.31
797.652	126.12
797.832	140.46
798.012	154.79
798.192	109.74
798.373	187.56
798.553	165.03
798.733	173.22
798.913	146.6
799.093	111.78
799.274	142.5
799.454	122.02
799.634	136.36
799.814	165.03
799.994	203.94
800.174	152.74
800.354	68.78
800.534	68.78
800.714	124.07
800.894	132.26
801.074	160.94
801.254	111.78
801.434	179.37
801.614	179.37
801.794	169.13
801.974	320.68
802.154	177.32
802.334	138.41
802.514	93.35
802.693	91.31
802.873	152.74
803.053	216.23
803.233	105.64
803.413	148.65
803.592	130.22
803.772	83.11
803.952	109.74
804.131	122.02
804.311	101.55
804.491	142.5
804.67	115.88
804.85	124.07
805.03	152.74
805.209	132.26
805.389	109.74
805.568	60.59
805.748	126.12
805.928	124.07
806.107	130.22
806.287	87.21
806.466	165.03
806.646	187.56
806.825	72.87
807.004	111.78
807.184	83.11
807.363	132.26
807.543	83.11
807.722	113.83
807.901	142.5
808.081	48.3
808.26	72.87
808.439	81.07
808.619	89.26
808.798	99.5
808.977	70.83
809.156	87.21
809.336	142.5
809.515	74.92
809.694	76.97
809.873	70.83
810.052	68.78
810.231	87.21
810.411	70.83
810.59	97.45
810.769	91.31
810.948	122.02
811.127	95.4
811.306	15.53
811.485	33.96
811.664	144.55
811.843	70.83
812.022	144.55
812.201	60.59
812.38	99.5
812.559	103.59
812.737	72.87
812.916	101.55
813.095	15.53
813.274	93.35
813.453	148.65
813.632	85.16
813.811	113.83
813.989	119.98
814.168	99.5
814.347	89.26
814.526	95.4
814.704	126.12
814.883	85.16
815.062	89.26
815.24	70.83
815.419	79.02
815.598	40.11
815.776	42.15
815.955	97.45
816.133	25.77
816.312	83.11
816.49	109.74
816.669	87.21
816.847	111.78
817.026	83.11
817.204	40.11
817.383	119.98
817.561	56.49
817.74	79.02
817.918	97.45
818.097	29.87
818.275	38.06
818.453	-4.95
818.632	23.72
818.81	89.26
818.988	83.11
819.167	79.02
819.345	107.69
819.523	128.17
819.701	3.24
819.879	79.02
820.058	29.87
820.236	83.11
820.414	56.49
820.592	99.5
820.77	119.98
820.948	64.68
821.127	50.35
821.305	68.78
821.483	1.19
821.661	185.51
821.839	81.07
822.017	50.35
822.195	42.15
822.373	52.39
822.551	46.25
822.729	64.68
822.907	68.78
823.085	64.68
823.262	60.59
823.44	60.59
823.618	97.45
823.796	81.07
823.974	54.44
824.152	97.45
824.329	48.3
824.507	122.02
824.685	140.46
824.863	101.55
825.04	17.58
825.218	29.87
825.396	76.97
825.574	91.31
825.751	91.31
825.929	128.17
826.107	48.3
826.284	68.78
826.462	38.06
826.639	111.78
826.817	50.35
826.994	72.87
827.172	31.91
827.349	132.26
827.527	105.64
827.704	124.07
827.882	-13.14
828.059	97.45
828.237	23.72
828.414	-2.9
828.591	72.87
828.769	42.15
828.946	58.54
829.124	29.87
829.301	19.63
829.478	72.87
829.655	85.16
829.833	48.3
830.01	23.72
830.187	48.3
830.364	-7
830.542	38.06
830.719	38.06
830.896	89.26
831.073	99.5
831.25	58.54
831.427	42.15
831.604	15.53
831.782	66.73
831.959	76.97
832.136	56.49
832.313	-27.48
832.49	58.54
832.667	3.24
832.844	7.34
833.021	79.02
833.198	91.31
833.374	13.48
833.551	76.97
833.728	38.06
833.905	97.45
834.082	33.96
834.259	25.77
834.436	46.25
834.612	31.91
834.789	23.72
834.966	81.07
835.143	83.11
835.319	19.63
835.496	54.44
835.673	50.35
835.85	122.02
836.026	44.2
836.203	50.35
836.38	74.92
836.556	89.26
836.733	5.29
836.909	89.26
837.086	33.96
837.262	-29.52
837.439	103.59
837.616	50.35
837.792	33.96
837.968	81.07
838.145	74.92
838.321	76.97
838.498	66.73
838.674	113.83
838.851	95.4
839.027	48.3
839.203	126.12
839.38	68.78
839.556	5.29
839.732	48.3
839.909	79.02
840.085	58.54
840.261	-19.29
840.437	105.64
840.614	105.64
840.79	64.68
840.966	33.96
841.142	13.48
841.318	48.3
841.494	60.59
841.671	160.94
841.847	23.72
842.023	29.87
842.199	85.16
842.375	113.83
842.551	72.87
842.727	56.49
842.903	70.83
843.079	33.96
843.255	40.11
843.431	-15.19
843.607	46.25
843.783	64.68
843.959	52.39
844.134	81.07
844.31	70.83
844.486	29.87
844.662	13.48
844.838	-17.24
845.013	27.82
845.189	-2.9
845.365	95.4
845.541	15.53
845.716	70.83
845.892	19.63
846.068	101.55
846.244	25.77
846.419	46.25
846.595	-9.05
846.77	89.26
846.946	40.11
847.122	52.39
847.297	50.35
847.473	60.59
847.648	56.49
847.824	97.45
847.999	48.3
848.175	81.07
848.35	31.91
848.526	29.87
848.701	19.63
848.876	58.54
849.052	25.77
849.227	-23.38
849.403	62.63
849.578	21.67
849.753	58.54
849.929	56.49
850.104	1.19
850.279	85.16
850.454	79.02
850.63	52.39
850.805	-60.24
850.98	89.26
851.155	48.3
851.33	74.92
851.505	9.39
851.681	-2.9
851.856	48.3
852.031	58.54
852.206	38.06
852.381	-2.9
852.556	5.29
852.731	1.19
852.906	38.06
853.081	9.39
853.256	46.25
853.431	23.72
853.606	-25.43
853.781	-13.14
853.956	27.82
854.131	-9.05
854.305	-4.95
854.48	42.15
854.655	38.06
854.83	95.4
855.005	19.63
855.18	70.83
855.354	-0.85
855.529	-0.85
855.704	40.11
855.879	44.2
856.053	46.25
856.228	-0.85
856.403	-35.67
856.577	7.34
856.752	-4.95
856.926	58.54
857.101	66.73
857.276	23.72
857.45	56.49
857.625	72.87
857.799	109.74
857.974	101.55
858.148	81.07
858.323	38.06
858.497	5.29
858.672	60.59
858.846	33.96
859.02	58.54
859.195	70.83
859.369	19.63
859.543	42.15
859.718	54.44
859.892	17.58
860.066	54.44
860.241	56.49
860.415	19.63
860.589	38.06
860.763	76.97
860.938	-21.33
861.112	33.96
861.286	115.88
861.46	122.02
861.634	-15.19
861.808	1.19
861.982	-37.72
862.157	27.82
862.331	-25.43
862.505	15.53
862.679	38.06
862.853	119.98
863.027	62.63
863.201	62.63
863.375	5.29
863.549	54.44
863.722	-4.95
863.896	62.63
864.07	46.25
864.244	-0.85
864.418	70.83
864.592	33.96
864.766	56.49
864.939	64.68
865.113	72.87
865.287	62.63
865.461	44.2
865.634	36.01
865.808	31.91
865.982	9.39
866.156	85.16
866.329	46.25
866.503	-2.9
866.676	56.49
866.85	27.82
867.024	70.83
867.197	46.25
867.371	105.64
867.544	17.58
867.718	21.67
867.891	66.73
868.065	-19.29
868.238	38.06
868.412	36.01
868.585	60.59
868.759	31.91
868.932	-37.72
869.105	48.3
869.279	1.19
869.452	-4.95
869.625	27.82
869.799	-0.85
869.972	23.72
870.145	-17.24
870.319	46.25
870.492	-2.9
870.665	-21.33
870.838	9.39
871.011	13.48
871.185	54.44
871.358	48.3
871.531	40.11
871.704	79.02
871.877	15.53
872.05	13.48
872.223	60.59
872.396	9.39
872.569	-9.05
872.742	-33.62
872.915	111.78
873.088	11.43
873.261	-43.86
873.434	130.22
873.607	-2.9
873.78	56.49
873.953	54.44
874.126	64.68
874.299	50.35
874.471	66.73
874.644	70.83
874.817	-2.9
874.99	64.68
875.163	15.53
875.335	107.69
875.508	64.68
875.681	13.48
875.853	5.29
876.026	21.67
876.199	44.2
876.371	99.5
876.544	68.78
876.717	54.44
876.889	46.25
877.062	29.87
877.234	54.44
877.407	21.67
877.579	-39.76
877.752	54.44
877.924	111.78
878.097	21.67
878.269	99.5
878.442	85.16
878.614	19.63
878.786	-9.05
878.959	40.11
879.131	23.72
879.303	1.19
879.476	62.63
879.648	52.39
879.82	36.01
879.993	-21.33
880.165	36.01
880.337	5.29
880.509	33.96
880.681	-9.05
880.854	31.91
881.026	21.67
881.198	97.45
881.37	15.53
881.542	46.25
881.714	-9.05
881.886	-15.19
882.058	62.63
882.23	29.87
882.402	81.07
882.574	72.87
882.746	-37.72
882.918	36.01
883.09	31.91
883.262	15.53
883.434	36.01
883.606	48.3
883.778	15.53
883.95	27.82
884.122	19.63
884.293	-13.14
884.465	23.72
884.637	21.67
884.809	27.82
884.98	-7
885.152	9.39
885.324	33.96
885.496	-0.85
885.667	-25.43
885.839	13.48
886.011	68.78
886.182	-21.33
886.354	-25.43
886.525	-4.95
886.697	58.54
886.869	40.11
887.04	27.82
887.212	52.39
887.383	-13.14
887.555	-27.48
887.726	56.49
887.897	-15.19
888.069	21.67
888.24	-25.43
888.412	48.3
888.583	54.44
888.754	87.21
888.926	9.39
889.097	56.49
889.268	11.43
889.44	72.87
889.611	42.15
889.782	52.39
889.953	-33.62
890.125	95.4
890.296	9.39
890.467	3.24
890.638	-11.09
890.809	15.53
890.98	13.48
891.151	29.87
891.323	-52.05
891.494	60.59
891.665	48.3
891.836	-7
892.007	-7
892.178	101.55
892.349	-21.33
892.52	-17.24
892.691	5.29
892.862	-2.9
893.032	56.49
893.203	-7
893.374	33.96
893.545	68.78
893.716	-2.9
893.887	54.44
894.057	31.91
894.228	50.35
894.399	17.58
894.57	13.48
894.74	40.11
894.911	11.43
895.082	64.68
895.253	70.83
895.423	-15.19
895.594	17.58
895.764	-9.05
895.935	56.49
896.106	42.15
896.276	60.59
896.447	76.97
896.617	15.53
896.788	25.77
896.958	64.68
897.129	-0.85
897.299	-0.85
897.47	25.77
897.64	40.11
897.81	-35.67
897.981	1.19
898.151	-21.33
898.322	79.02
898.492	15.53
898.662	48.3
898.832	56.49
899.003	52.39
899.173	72.87
899.343	23.72
899.513	13.48
