Data from USB4F104151__41__12-53-49-355.txt Node

Date: Fri Mar 14 12:53:49 EDT 2025
User: louis
Spectrometer: USB4F10415
Trigger mode: 4
Integration Time (sec): 1.000000E-2
Scans to average: 1
Electric dark correction enabled: true
Nonlinearity correction enabled: false
Boxcar width: 0
XAxis mode: Wavelengths
Number of Pixels in Spectrum: 3648
>>>>>Begin Spectral Data<<<<<
178.204	-3.24
178.424	-3.24
178.644	-3.24
178.864	-17.58
179.084	-3.24
179.304	19.29
179.524	52.05
179.744	-83.11
179.964	41.81
180.184	-115.88
180.404	0.85
180.624	29.52
180.844	21.33
181.064	-48.3
181.283	29.52
181.503	66.39
181.723	-13.48
181.943	-36.01
182.163	113.49
182.383	41.81
182.602	93.01
182.822	25.43
183.042	0.85
183.262	41.81
183.482	66.39
183.701	9.05
183.921	31.57
184.141	25.43
184.361	62.29
184.58	-3.24
184.8	15.19
185.02	17.24
185.239	82.77
185.459	47.96
185.679	60.24
185.898	117.59
186.118	15.19
186.338	35.67
186.557	117.59
186.777	-5.29
186.997	2.9
187.216	60.24
187.436	13.14
187.655	43.86
187.875	27.48
188.095	66.39
188.314	142.16
188.534	56.15
188.753	31.57
188.973	99.16
189.192	60.24
189.412	37.72
189.631	19.29
189.851	29.52
190.07	-15.53
190.29	27.48
190.509	50
190.729	-3.24
190.948	11.09
191.168	54.1
191.387	7
191.607	43.86
191.826	11.09
192.045	13.14
192.265	21.33
192.484	70.48
192.704	76.63
192.923	70.48
193.142	23.38
193.362	97.11
193.581	47.96
193.8	35.67
194.02	27.48
194.239	54.1
194.458	56.15
194.678	27.48
194.897	90.96
195.116	-11.43
195.335	19.29
195.555	37.72
195.774	25.43
195.993	76.63
196.212	60.24
196.432	37.72
196.651	54.1
196.87	86.87
197.089	105.3
197.308	99.16
197.528	97.11
197.747	-1.19
197.966	-1.19
198.185	-3.24
198.404	58.2
198.623	-19.63
198.842	80.72
199.062	25.43
199.281	70.48
199.5	25.43
199.719	60.24
199.938	56.15
200.157	-3.24
200.376	62.29
200.595	74.58
200.814	136.02
201.033	-5.29
201.252	11.09
201.471	68.44
201.69	33.62
201.909	25.43
202.128	60.24
202.347	23.38
202.566	31.57
202.785	17.24
203.004	60.24
203.223	37.72
203.442	-29.87
203.661	133.97
203.879	-56.49
204.098	62.29
204.317	68.44
204.536	27.48
204.755	50
204.974	64.34
205.193	-13.48
205.411	-9.39
205.63	39.76
205.849	43.86
206.068	-42.15
206.287	17.24
206.505	50
206.724	56.15
206.943	68.44
207.162	76.63
207.381	-23.72
207.599	23.38
207.818	37.72
208.037	37.72
208.255	7
208.474	-25.77
208.693	68.44
208.911	72.53
209.13	95.06
209.349	7
209.567	47.96
209.786	31.57
210.005	27.48
210.223	45.91
210.442	-5.29
210.661	37.72
210.879	17.24
211.098	19.29
211.316	-23.72
211.535	15.19
211.753	80.72
211.972	66.39
212.191	54.1
212.409	37.72
212.628	62.29
212.846	52.05
213.065	54.1
213.283	56.15
213.502	43.86
213.72	41.81
213.938	54.1
214.157	31.57
214.375	35.67
214.594	78.68
214.812	47.96
215.031	74.58
215.249	31.57
215.467	60.24
215.686	-38.06
215.904	25.43
216.122	15.19
216.341	7
216.559	31.57
216.778	4.95
216.996	70.48
217.214	7
217.432	52.05
217.651	66.39
217.869	2.9
218.087	4.95
218.306	-5.29
218.524	25.43
218.742	31.57
218.96	9.05
219.179	33.62
219.397	17.24
219.615	76.63
219.833	41.81
220.051	62.29
220.27	33.62
220.488	56.15
220.706	19.29
220.924	72.53
221.142	23.38
221.36	54.1
221.578	25.43
221.796	54.1
222.015	99.16
222.233	62.29
222.451	37.72
222.669	76.63
222.887	19.29
223.105	54.1
223.323	37.72
223.541	29.52
223.759	15.19
223.977	17.24
224.195	-15.53
224.413	-7.34
224.631	62.29
224.849	93.01
225.067	82.77
225.285	-1.19
225.503	-13.48
225.721	-29.87
225.939	29.52
226.157	78.68
226.375	-1.19
226.592	84.82
226.81	37.72
227.028	41.81
227.246	35.67
227.464	68.44
227.682	93.01
227.9	115.54
228.117	21.33
228.335	19.29
228.553	-29.87
228.771	45.91
228.989	35.67
229.206	21.33
229.424	-5.29
229.642	13.14
229.86	35.67
230.077	76.63
230.295	13.14
230.513	-11.43
230.731	-11.43
230.948	33.62
231.166	99.16
231.384	15.19
231.601	60.24
231.819	45.91
232.037	2.9
232.254	47.96
232.472	7
232.689	29.52
232.907	64.34
233.125	-7.34
233.342	58.2
233.56	74.58
233.777	93.01
233.995	25.43
234.213	70.48
234.43	60.24
234.648	19.29
234.865	33.62
235.083	76.63
235.3	-11.43
235.518	60.24
235.735	56.15
235.953	68.44
236.17	37.72
236.388	39.76
236.605	99.16
236.822	-38.06
237.04	43.86
237.257	70.48
237.475	60.24
237.692	105.3
237.909	29.52
238.127	78.68
238.344	4.95
238.562	76.63
238.779	-19.63
238.996	58.2
239.214	84.82
239.431	70.48
239.648	29.52
239.865	88.92
240.083	82.77
240.3	103.25
240.517	43.86
240.735	68.44
240.952	0.85
241.169	56.15
241.386	80.72
241.603	72.53
241.821	35.67
242.038	64.34
242.255	-36.01
242.472	-19.63
242.689	60.24
242.907	-21.67
243.124	76.63
243.341	2.9
243.558	78.68
243.775	84.82
243.992	99.16
244.209	-1.19
244.426	39.76
244.643	54.1
244.86	-23.72
245.078	25.43
245.295	21.33
245.512	47.96
245.729	13.14
245.946	29.52
246.163	101.2
246.38	64.34
246.597	0.85
246.814	-25.77
247.031	0.85
247.248	103.25
247.464	33.62
247.681	37.72
247.898	103.25
248.115	68.44
248.332	70.48
248.549	47.96
248.766	35.67
248.983	80.72
249.2	2.9
249.417	43.86
249.633	-5.29
249.85	60.24
250.067	76.63
250.284	74.58
250.501	15.19
250.717	2.9
250.934	21.33
251.151	62.29
251.368	19.29
251.585	72.53
251.801	70.48
252.018	80.72
252.235	58.2
252.451	15.19
252.668	31.57
252.885	54.1
253.102	62.29
253.318	62.29
253.535	62.29
253.752	74.58
253.968	27.48
254.185	13.14
254.401	50
254.618	52.05
254.835	56.15
255.051	45.91
255.268	-3.24
255.484	74.58
255.701	35.67
255.917	60.24
256.134	115.54
256.351	21.33
256.567	64.34
256.784	43.86
257	60.24
257.217	37.72
257.433	47.96
257.65	2.9
257.866	-17.58
258.082	52.05
258.299	-5.29
258.515	74.58
258.732	45.91
258.948	82.77
259.165	19.29
259.381	76.63
259.597	99.16
259.814	56.15
260.03	31.57
260.246	43.86
260.463	11.09
260.679	93.01
260.895	35.67
261.112	50
261.328	-19.63
261.544	82.77
261.761	95.06
261.977	37.72
262.193	7
262.409	70.48
262.626	68.44
262.842	-27.82
263.058	-19.63
263.274	11.09
263.49	78.68
263.707	62.29
263.923	56.15
264.139	11.09
264.355	-70.83
264.571	90.96
264.787	82.77
265.004	52.05
265.22	117.59
265.436	-38.06
265.652	68.44
265.868	37.72
266.084	0.85
266.3	27.48
266.516	-25.77
266.732	66.39
266.948	11.09
267.164	76.63
267.38	62.29
267.596	45.91
267.812	82.77
268.028	-3.24
268.244	19.29
268.46	29.52
268.676	84.82
268.892	25.43
269.108	117.59
269.324	23.38
269.54	-15.53
269.756	78.68
269.972	84.82
270.188	15.19
270.403	47.96
270.619	47.96
270.835	43.86
271.051	54.1
271.267	45.91
271.483	-15.53
271.698	13.14
271.914	76.63
272.13	78.68
272.346	41.81
272.562	35.67
272.777	121.68
272.993	31.57
273.209	2.9
273.425	17.24
273.64	27.48
273.856	56.15
274.072	35.67
274.287	27.48
274.503	-29.87
274.719	27.48
274.934	52.05
275.15	64.34
275.366	113.49
275.581	-15.53
275.797	56.15
276.012	66.39
276.228	64.34
276.444	58.2
276.659	19.29
276.875	13.14
277.09	70.48
277.306	43.86
277.521	21.33
277.737	101.2
277.952	138.07
278.168	117.59
278.383	43.86
278.599	52.05
278.814	11.09
279.03	35.67
279.245	60.24
279.461	-42.15
279.676	47.96
279.892	35.67
280.107	113.49
280.322	-54.44
280.538	4.95
280.753	80.72
280.969	56.15
281.184	103.25
281.399	70.48
281.615	4.95
281.83	70.48
282.045	-46.25
282.26	9.05
282.476	64.34
282.691	17.24
282.906	27.48
283.122	54.1
283.337	80.72
283.552	62.29
283.767	84.82
283.983	31.57
284.198	-3.24
284.413	7
284.628	4.95
284.843	21.33
285.058	29.52
285.274	25.43
285.489	60.24
285.704	66.39
285.919	-17.58
286.134	123.73
286.349	35.67
286.564	35.67
286.779	93.01
286.995	-1.19
287.21	78.68
287.425	-3.24
287.64	0.85
287.855	29.52
288.07	2.9
288.285	82.77
288.5	127.83
288.715	86.87
288.93	4.95
289.145	54.1
289.36	50
289.575	113.49
289.79	90.96
290.004	25.43
290.219	86.87
290.434	64.34
290.649	31.57
290.864	-15.53
291.079	86.87
291.294	52.05
291.509	37.72
291.724	27.48
291.938	90.96
292.153	7
292.368	25.43
292.583	80.72
292.798	90.96
293.012	93.01
293.227	88.92
293.442	39.76
293.657	76.63
293.871	70.48
294.086	33.62
294.301	54.1
294.516	74.58
294.73	62.29
294.945	-15.53
295.16	125.78
295.374	50
295.589	31.57
295.804	39.76
296.018	88.92
296.233	54.1
296.447	27.48
296.662	41.81
296.877	35.67
297.091	-29.87
297.306	95.06
297.52	47.96
297.735	90.96
297.949	52.05
298.164	4.95
298.378	50
298.593	4.95
298.807	72.53
299.022	56.15
299.236	148.31
299.451	17.24
299.665	47.96
299.88	13.14
300.094	-1.19
300.309	29.52
300.523	56.15
300.737	82.77
300.952	47.96
301.166	35.67
301.381	45.91
301.595	-3.24
301.809	113.49
302.024	13.14
302.238	101.2
302.452	68.44
302.667	74.58
302.881	-7.34
303.095	45.91
303.309	84.82
303.524	76.63
303.738	136.02
303.952	11.09
304.166	101.2
304.381	21.33
304.595	144.21
304.809	39.76
305.023	-7.34
305.237	62.29
305.452	115.54
305.666	45.91
305.88	23.38
306.094	60.24
306.308	86.87
306.522	72.53
306.736	56.15
306.95	35.67
307.164	127.83
307.379	45.91
307.593	23.38
307.807	76.63
308.021	70.48
308.235	4.95
308.449	70.48
308.663	109.4
308.877	146.26
309.091	50
309.305	52.05
309.519	88.92
309.733	-25.77
309.947	0.85
310.161	-1.19
310.374	70.48
310.588	97.11
310.802	50
311.016	62.29
311.23	43.86
311.444	0.85
311.658	56.15
311.872	-31.91
312.085	95.06
312.299	56.15
312.513	52.05
312.727	0.85
312.941	15.19
313.154	107.35
313.368	76.63
313.582	35.67
313.796	11.09
314.009	50
314.223	86.87
314.437	27.48
314.651	21.33
314.864	45.91
315.078	86.87
315.292	68.44
315.505	52.05
315.719	27.48
315.933	54.1
316.146	84.82
316.36	17.24
316.573	52.05
316.787	9.05
317.001	68.44
317.214	50
317.428	-5.29
317.641	62.29
317.855	37.72
318.068	60.24
318.282	35.67
318.495	15.19
318.709	60.24
318.922	68.44
319.136	105.3
319.349	60.24
319.563	72.53
319.776	27.48
319.99	64.34
320.203	33.62
320.417	31.57
320.63	56.15
320.843	31.57
321.057	52.05
321.27	84.82
321.483	113.49
321.697	76.63
321.91	-1.19
322.124	2.9
322.337	0.85
322.55	86.87
322.763	82.77
322.977	64.34
323.19	23.38
323.403	95.06
323.617	68.44
323.83	101.2
324.043	58.2
324.256	-11.43
324.469	72.53
324.683	4.95
324.896	33.62
325.109	58.2
325.322	-1.19
325.535	41.81
325.748	84.82
325.962	17.24
326.175	-23.72
326.388	76.63
326.601	80.72
326.814	4.95
327.027	27.48
327.24	125.78
327.453	31.57
327.666	-5.29
327.879	31.57
328.092	111.44
328.305	99.16
328.518	-15.53
328.731	37.72
328.944	70.48
329.157	21.33
329.37	4.95
329.583	111.44
329.796	123.73
330.009	45.91
330.222	78.68
330.435	74.58
330.648	52.05
330.861	9.05
331.073	50
331.286	23.38
331.499	-13.48
331.712	41.81
331.925	72.53
332.138	82.77
332.35	86.87
332.563	-1.19
332.776	84.82
332.989	15.19
333.202	115.54
333.414	29.52
333.627	43.86
333.84	19.29
334.053	68.44
334.265	33.62
334.478	76.63
334.691	11.09
334.903	62.29
335.116	99.16
335.329	76.63
335.541	56.15
335.754	21.33
335.966	-1.19
336.179	72.53
336.392	72.53
336.604	95.06
336.817	125.78
337.029	90.96
337.242	27.48
337.454	-11.43
337.667	15.19
337.88	93.01
338.092	82.77
338.305	17.24
338.517	-72.87
338.729	95.06
338.942	17.24
339.154	21.33
339.367	101.2
339.579	95.06
339.792	101.2
340.004	95.06
340.217	82.77
340.429	47.96
340.641	54.1
340.854	82.77
341.066	33.62
341.278	103.25
341.491	27.48
341.703	37.72
341.915	-56.49
342.128	84.82
342.34	66.39
342.552	58.2
342.764	74.58
342.977	64.34
343.189	66.39
343.401	119.64
343.613	52.05
343.826	105.3
344.038	27.48
344.25	60.24
344.462	70.48
344.674	82.77
344.886	31.57
345.099	39.76
345.311	82.77
345.523	7
345.735	-1.19
345.947	105.3
346.159	45.91
346.371	58.2
346.583	68.44
346.795	4.95
347.007	125.78
347.219	54.1
347.431	0.85
347.643	88.92
347.855	74.58
348.067	11.09
348.279	64.34
348.491	90.96
348.703	-21.67
348.915	95.06
349.127	29.52
349.339	80.72
349.551	58.2
349.763	113.49
349.975	80.72
350.187	64.34
350.399	39.76
350.61	152.4
350.822	27.48
351.034	80.72
351.246	-1.19
351.458	50
351.669	56.15
351.881	76.63
352.093	68.44
352.305	0.85
352.517	60.24
352.728	82.77
352.94	-33.96
353.152	109.4
353.363	76.63
353.575	50
353.787	-1.19
353.999	84.82
354.21	13.14
354.422	47.96
354.633	27.48
354.845	37.72
355.057	70.48
355.268	39.76
355.48	7
355.692	99.16
355.903	-7.34
356.115	121.68
356.326	64.34
356.538	90.96
356.749	80.72
356.961	121.68
357.172	45.91
357.384	93.01
357.595	-3.24
357.807	80.72
358.018	72.53
358.23	105.3
358.441	7
358.653	97.11
358.864	-27.82
359.075	133.97
359.287	54.1
359.498	82.77
359.709	35.67
359.921	33.62
360.132	-1.19
360.344	127.83
360.555	4.95
360.766	58.2
360.977	-21.67
361.189	54.1
361.4	78.68
361.611	50
361.823	103.25
362.034	21.33
362.245	86.87
362.456	19.29
362.667	58.2
362.879	2.9
363.09	25.43
363.301	72.53
363.512	58.2
363.723	78.68
363.935	17.24
364.146	66.39
364.357	90.96
364.568	74.58
364.779	84.82
364.99	-17.58
365.201	90.96
365.412	0.85
365.623	95.06
365.834	47.96
366.045	45.91
366.256	45.91
366.467	80.72
366.678	133.97
366.889	-3.24
367.1	41.81
367.311	64.34
367.522	29.52
367.733	50
367.944	52.05
368.155	43.86
368.366	50
368.577	72.53
368.788	43.86
368.999	103.25
369.209	64.34
369.42	78.68
369.631	72.53
369.842	68.44
370.053	121.68
370.264	47.96
370.474	117.59
370.685	99.16
370.896	-1.19
371.107	84.82
371.317	86.87
371.528	-46.25
371.739	76.63
371.95	105.3
372.16	88.92
372.371	88.92
372.582	52.05
372.792	97.11
373.003	74.58
373.214	54.1
373.424	37.72
373.635	111.44
373.846	50
374.056	-1.19
374.267	58.2
374.477	37.72
374.688	78.68
374.898	47.96
375.109	15.19
375.319	93.01
375.53	113.49
375.74	33.62
375.951	31.57
376.161	60.24
376.372	56.15
376.582	41.81
376.793	86.87
377.003	101.2
377.214	76.63
377.424	21.33
377.635	90.96
377.845	50
378.055	43.86
378.266	183.12
378.476	74.58
378.686	60.24
378.897	95.06
379.107	76.63
379.317	56.15
379.528	64.34
379.738	45.91
379.948	47.96
380.158	86.87
380.369	41.81
380.579	66.39
380.789	88.92
380.999	109.4
381.21	82.77
381.42	74.58
381.63	29.52
381.84	47.96
382.05	95.06
382.261	78.68
382.471	115.54
382.681	64.34
382.891	21.33
383.101	88.92
383.311	37.72
383.521	2.9
383.731	21.33
383.941	78.68
384.151	56.15
384.361	150.36
384.571	80.72
384.781	95.06
384.991	62.29
385.201	60.24
385.411	62.29
385.621	93.01
385.831	133.97
386.041	109.4
386.251	74.58
386.461	2.9
386.671	74.58
386.881	133.97
387.091	60.24
387.301	-1.19
387.511	97.11
387.72	-1.19
387.93	-1.19
388.14	78.68
388.35	27.48
388.56	84.82
388.769	101.2
388.979	76.63
389.189	66.39
389.399	33.62
389.609	39.76
389.818	68.44
390.028	13.14
390.238	64.34
390.447	121.68
390.657	66.39
390.867	41.81
391.076	21.33
391.286	31.57
391.496	43.86
391.705	99.16
391.915	80.72
392.125	52.05
392.334	82.77
392.544	103.25
392.753	88.92
392.963	103.25
393.172	133.97
393.382	45.91
393.591	41.81
393.801	25.43
394.01	19.29
394.22	125.78
394.429	80.72
394.639	111.44
394.848	47.96
395.058	56.15
395.267	101.2
395.477	107.35
395.686	101.2
395.895	99.16
396.105	103.25
396.314	52.05
396.524	90.96
396.733	115.54
396.942	88.92
397.152	105.3
397.361	37.72
397.57	52.05
397.78	72.53
397.989	82.77
398.198	95.06
398.407	13.14
398.617	152.4
398.826	95.06
399.035	99.16
399.244	170.83
399.453	125.78
399.663	138.07
399.872	70.48
400.081	86.87
400.29	138.07
400.499	21.33
400.708	39.76
400.917	82.77
401.127	119.64
401.336	78.68
401.545	142.16
401.754	45.91
401.963	84.82
402.172	113.49
402.381	99.16
402.59	35.67
402.799	107.35
403.008	95.06
403.217	58.2
403.426	97.11
403.635	29.52
403.844	111.44
404.053	47.96
404.262	68.44
404.471	140.12
404.68	133.97
404.888	82.77
405.097	133.97
405.306	82.77
405.515	105.3
405.724	197.46
405.933	187.22
406.142	97.11
406.35	119.64
406.559	138.07
406.768	179.03
406.977	160.59
407.185	160.59
407.394	148.31
407.603	160.59
407.812	158.55
408.02	160.59
408.229	191.31
408.438	136.02
408.646	170.83
408.855	234.32
409.064	219.99
409.272	129.88
409.481	297.81
409.69	230.23
409.898	201.55
410.107	189.27
410.315	244.56
410.524	226.13
410.733	346.96
410.941	228.18
411.15	271.19
411.358	279.38
411.567	322.38
411.775	312.14
411.984	340.82
412.192	404.3
412.401	295.76
412.609	299.86
412.818	363.34
413.026	435.02
413.234	441.17
413.443	392.02
413.651	418.64
413.86	320.34
414.068	398.16
414.276	506.7
414.485	437.07
414.693	418.64
414.901	451.41
415.11	396.11
415.318	453.45
415.526	500.56
415.734	506.7
415.943	570.19
416.151	504.65
416.359	555.85
416.567	521.04
416.776	648.01
416.984	586.57
417.192	768.84
417.4	625.48
417.608	645.96
417.817	809.8
418.025	697.16
418.233	834.38
418.441	731.98
418.649	879.43
418.857	871.24
419.065	856.9
419.273	897.86
419.481	904.01
419.689	975.69
419.897	944.97
420.105	901.96
420.313	1082.18
420.521	1125.19
420.729	1108.8
420.937	1051.46
421.145	1203.01
421.353	1262.4
421.561	1219.39
421.769	1329.99
421.977	1389.38
422.185	1344.32
422.393	1411.9
422.601	1483.58
422.809	1557.31
423.017	1573.69
423.224	1628.99
423.432	1657.66
423.64	1626.94
423.848	1794.87
424.056	1690.43
424.263	1911.61
424.471	1897.27
424.679	1913.66
424.887	2048.82
425.094	2038.58
425.302	2093.88
425.51	2132.79
425.718	2249.52
425.925	2224.95
426.133	2478.9
426.341	2396.98
426.548	2657.07
426.756	2573.1
426.964	2646.83
427.171	2749.23
427.379	2978.6
427.586	2892.59
427.794	3050.28
428.001	3015.46
428.209	3349.28
428.417	3201.83
428.624	3423.01
428.832	3447.58
429.039	3437.34
429.247	3449.63
429.454	3863.32
429.662	3871.51
429.869	3566.37
430.076	4010.78
430.284	3713.82
430.491	4068.12
430.699	4295.44
430.906	4176.66
431.114	4338.45
431.321	4455.19
431.528	4518.67
431.736	4836.11
431.943	5178.12
432.15	5120.78
432.358	5094.15
432.565	5298.95
432.772	5399.3
432.979	5532.42
433.187	5702.4
433.394	5739.26
433.601	6167.29
433.808	6073.08
434.016	6224.63
434.223	6365.94
434.43	6757.1
434.637	6605.55
434.844	6892.27
435.052	7269.09
435.259	7129.83
435.466	7287.53
435.673	7240.42
435.88	7586.53
436.087	8008.41
436.294	8121.05
436.501	7842.53
436.708	8016.6
436.915	8434.39
437.122	8651.47
437.329	8751.82
437.537	8717.01
437.743	9122.51
437.95	8850.13
438.157	9310.92
438.364	9708.23
438.571	9665.22
438.778	9933.5
438.985	10658.48
439.192	10445.49
439.399	10556.08
439.606	10496.69
439.813	11174.57
440.02	11715.23
440.227	11465.38
440.433	11393.7
440.64	11780.77
440.847	11678.37
441.054	11885.22
441.261	12880.53
441.467	12610.2
441.674	12849.81
441.881	13200.01
442.088	13341.32
442.294	13308.55
442.501	13372.04
442.708	13484.68
442.914	14113.41
443.121	14830.2
443.328	14680.69
443.534	15362.67
443.741	15297.13
443.948	15034.99
444.154	15938.15
444.361	15868.52
444.568	16104.03
444.774	16007.78
444.981	16337.5
445.187	16767.57
445.394	17437.26
445.6	17459.79
445.807	18987.57
446.013	18029.12
446.22	18377.28
446.426	19161.65
446.633	19364.4
446.839	20011.56
447.046	19323.44
447.252	20288.03
447.459	20281.89
447.665	20269.6
447.871	21344.78
448.078	22075.91
448.284	20814.36
448.491	21391.89
448.697	22397.44
448.903	22436.35
449.11	23169.52
449.316	22534.65
449.522	23026.17
449.728	23751.15
449.935	23892.46
450.141	23781.87
450.347	24127.97
450.553	23552.49
450.76	23648.75
450.966	24566.24
451.172	24588.77
451.378	25117.14
451.584	24506.85
451.791	25250.26
451.997	25225.68
452.203	25776.59
452.409	25506.26
452.615	25504.21
452.821	24611.29
453.027	24134.12
453.233	25772.49
453.44	24443.36
453.646	25065.94
453.852	25035.22
454.058	25516.5
454.264	24519.14
454.47	24910.3
454.676	24293.86
454.882	25706.96
455.088	23314.93
455.294	23472.62
455.5	23855.59
455.705	24050.15
455.911	23417.33
456.117	22950.39
456.323	22596.09
456.529	21096.98
456.735	22424.06
456.941	21934.6
457.147	20883.99
457.352	20859.42
457.558	20714.01
457.764	20550.17
457.97	20263.46
458.176	19653.16
458.381	19728.94
458.587	18862.65
458.793	18713.14
458.999	17850.95
459.204	18934.32
459.41	18498.11
459.616	17451.6
459.821	17275.47
460.027	17445.45
460.233	16822.87
460.438	15868.52
460.644	16441.95
460.85	15575.66
461.055	15084.14
461.261	15252.08
461.466	14191.23
461.672	13673.09
461.878	14766.71
462.083	13865.6
462.289	13539.97
462.494	13421.19
462.7	12688.02
462.905	12505.75
463.111	12812.95
463.316	12954.26
463.522	12587.67
463.727	12823.19
463.932	12825.23
464.138	12616.34
464.343	12602.01
464.549	12001.95
464.754	12771.99
464.959	12839.57
465.165	12540.57
465.37	12020.38
465.575	11768.48
465.781	12210.84
465.986	12296.86
466.191	11844.26
466.397	11621.03
466.602	11096.75
466.807	11313.83
467.012	11387.56
467.218	11330.22
467.423	11414.18
467.628	11440.81
467.833	11782.82
468.038	11252.39
468.244	11262.63
468.449	11459.24
468.654	11227.82
468.859	11008.69
469.064	11348.65
469.269	10439.35
469.474	10693.3
469.679	10937.01
469.885	10662.58
470.09	10683.06
470.295	10859.18
470.5	10312.38
470.705	10615.48
470.91	10183.35
471.115	10150.59
471.32	10326.71
471.525	10156.73
471.73	9775.81
471.935	9814.72
472.139	9747.14
472.344	9710.27
472.549	9568.96
472.754	9534.15
472.959	9368.26
473.164	8979.15
473.369	9091.79
473.574	9214.66
473.778	9380.55
473.983	9030.35
474.188	9030.35
474.393	8755.92
474.598	8755.92
474.802	8647.38
475.007	8536.79
475.212	8729.3
475.417	8317.65
475.621	8024.79
475.826	8231.64
476.031	8153.82
476.235	7858.91
476.44	8112.86
476.645	7826.14
476.849	7897.82
477.054	7946.97
477.259	7654.11
477.463	7717.6
477.668	7408.36
477.872	7424.74
478.077	7279.33
478.282	7424.74
478.486	7385.83
478.691	7170.79
478.895	7170.79
479.1	7199.46
479.304	7174.89
479.509	6943.47
479.713	7052.01
479.918	6953.71
480.122	6787.82
480.326	6982.38
480.531	6808.3
480.735	6900.46
480.94	6703.86
481.144	6894.32
481.348	6761.2
481.553	6802.16
481.757	6568.69
481.961	6769.39
482.166	6673.14
482.37	6824.69
482.574	6753.01
482.778	6527.73
482.983	6755.05
483.187	6654.7
483.391	6462.19
483.595	6552.31
483.8	6550.26
484.004	6603.5
484.208	6888.17
484.412	6691.57
484.616	6701.81
484.821	6654.7
485.025	6550.26
485.229	6693.62
485.433	6644.46
485.637	6605.55
485.841	6492.91
486.045	6673.14
486.249	6773.49
486.453	6779.63
486.657	6542.07
486.861	6869.74
487.065	6540.02
487.269	6746.86
487.473	6572.79
487.677	6660.85
487.881	6638.32
488.085	6814.45
488.289	6761.2
488.493	6617.84
488.697	6879.98
488.901	6773.49
489.105	6787.82
489.309	6843.12
489.512	7086.83
489.716	7004.91
489.92	6777.58
490.124	6904.56
490.328	7203.56
490.531	6927.08
490.735	7144.17
490.939	6873.84
491.143	6990.57
491.346	7193.32
491.55	7260.9
491.754	7185.13
491.958	7279.33
492.161	7254.76
492.365	7303.91
492.569	7246.57
492.772	7420.64
492.976	7293.67
493.18	7559.91
493.383	7674.59
493.587	7621.35
493.79	7641.82
493.994	7607.01
494.197	7811.81
494.401	7932.64
494.605	7871.2
494.808	8065.75
495.012	8172.25
495.215	7940.83
495.419	8145.63
495.622	8121.05
495.825	8329.94
496.029	8194.78
496.232	8379.09
496.436	8452.82
496.639	8692.43
496.843	8508.12
497.046	8794.83
497.249	8825.55
497.453	8954.57
497.656	9229
497.859	9054.92
498.063	9128.65
498.266	9456.33
498.469	9347.78
498.673	9618.11
498.876	9757.38
499.079	9843.39
499.282	10068.67
499.485	10128.06
499.689	10300.09
499.892	10474.17
500.095	10549.94
500.298	10681.01
500.501	10416.82
500.705	11027.12
500.908	11008.69
501.111	10924.72
501.314	11117.23
501.517	11451.05
501.72	11504.29
501.923	11635.36
502.126	11872.93
502.329	12073.63
502.532	12096.16
502.735	12151.45
502.938	12481.17
503.141	12542.61
503.344	12796.56
503.547	12982.93
503.75	13060.75
503.953	13202.06
504.156	13568.65
504.359	13439.62
504.562	13658.76
504.765	13986.43
504.968	14004.86
505.17	14484.09
505.373	14414.46
505.576	14574.2
505.779	14703.22
505.982	14828.15
506.185	15362.67
506.387	15116.91
506.59	15540.84
506.793	15915.62
506.996	15860.32
507.198	16192.09
507.401	16183.9
507.604	16327.26
507.807	16722.52
508.009	16998.99
508.212	17037.91
508.415	17330.76
508.617	17533.51
508.82	17658.44
509.022	17539.66
509.225	18160.19
509.428	18377.28
509.63	18440.76
509.833	18321.98
510.035	18848.31
510.238	18844.21
510.44	19204.66
510.643	19585.58
510.845	19884.58
511.048	19862.05
511.25	19952.16
511.453	20152.87
511.655	20922.9
511.858	20527.64
512.06	20834.84
512.262	21228.05
512.465	21094.93
512.667	21740.04
512.87	21910.02
513.072	21936.65
513.274	22241.79
513.477	22772.22
513.679	22612.48
513.881	23298.55
514.084	23568.88
514.286	23431.66
514.488	23753.19
514.69	24050.15
514.893	24445.41
515.095	24461.79
515.297	24803.8
515.499	25242.07
515.701	25340.37
515.904	25362.9
516.106	25637.33
516.308	25977.29
516.51	26390.98
516.712	26530.24
516.914	26591.68
517.116	26931.64
517.318	27150.78
517.52	27816.36
517.722	27668.91
517.925	28207.53
518.127	28088.74
518.329	28363.17
518.531	28662.18
518.733	28803.49
518.935	29129.11
519.136	29208.98
519.338	29854.09
519.54	29768.08
519.742	29993.36
519.944	30198.15
520.146	30679.43
520.348	30994.81
520.55	30603.65
520.752	31338.87
520.954	31889.77
521.155	31510.9
521.357	32164.2
521.559	32446.82
521.761	32674.15
521.963	32543.08
522.164	33036.64
522.366	33167.71
522.568	33223
522.77	33712.47
522.971	34009.42
523.173	33857.87
523.375	34173.26
523.576	34238.79
523.778	34361.67
523.98	35072.32
524.181	34953.54
524.383	35201.34
524.584	35572.02
524.786	35180.86
524.988	35899.7
525.189	36137.26
525.391	36383.02
525.592	36376.87
525.794	36792.61
525.995	36763.94
526.197	36878.63
526.398	36886.82
526.6	37433.63
526.801	37333.28
527.003	37517.59
527.204	37366.04
527.406	37916.95
527.607	37763.35
527.808	38011.15
528.01	37425.43
528.211	38058.26
528.412	38801.67
528.614	38406.41
528.815	38146.32
529.016	38871.3
529.218	38617.35
529.419	39188.74
529.62	38594.82
529.822	38861.06
530.023	39074.05
530.224	39110.91
530.425	39096.58
530.626	39334.14
530.828	39074.05
531.029	39973.11
531.23	39194.88
531.431	39610.62
531.632	40001.78
531.833	39590.14
532.035	39809.27
532.236	40343.79
532.437	40073.46
532.638	40044.79
532.839	40196.34
533.04	40446.19
533.241	39745.78
533.442	40677.61
533.643	40233.2
533.844	40472.81
534.045	40483.05
534.246	40300.78
534.447	40806.63
534.648	40050.93
534.849	40657.13
535.05	40200.43
535.251	40759.53
535.451	40626.41
535.652	40939.75
535.853	40503.53
536.054	40782.06
536.255	41214.18
536.456	40868.07
536.657	41246.94
536.857	40675.56
537.058	40517.87
537.259	41087.2
537.46	41085.15
537.66	40702.18
537.861	41154.79
538.062	40990.95
538.263	41189.6
538.463	41011.43
538.664	40843.49
538.865	41351.39
539.065	41513.18
539.266	41017.57
539.466	41660.63
539.667	40945.89
539.868	41580.76
540.068	41038.05
540.269	41412.83
540.469	41650.39
540.67	41513.18
540.87	41205.98
541.071	41355.49
541.271	41302.24
541.472	41146.59
541.672	41337.05
541.873	41363.68
542.073	40972.52
542.274	41545.95
542.474	41531.61
542.675	41208.03
542.875	41924.82
543.075	41953.49
543.276	41294.05
543.476	41844.95
543.676	41375.97
543.877	41847
544.077	41478.36
544.277	41674.97
544.478	41558.24
544.678	41939.16
544.878	41920.73
545.078	41654.49
545.279	41347.29
545.479	41183.46
545.679	41543.9
545.879	41967.83
546.079	41531.61
546.28	41482.46
546.48	41484.51
546.68	41527.52
546.88	41806.04
547.08	41945.3
547.28	41373.92
547.48	41654.49
547.68	41478.36
547.88	41275.62
548.081	41609.43
548.281	41818.33
548.481	41545.95
548.681	42215.63
548.881	41556.19
549.081	41707.74
549.28	41289.95
549.48	41799.9
549.68	41806.04
549.88	42027.22
550.08	41392.35
550.28	42086.61
550.48	41801.94
550.68	41707.74
550.88	41459.93
551.08	41949.4
551.279	42016.98
551.479	41670.87
551.679	41636.06
551.879	41840.85
552.079	41703.64
552.278	41869.53
552.478	41773.27
552.678	41775.32
552.878	41760.98
553.077	41679.07
553.277	41148.64
553.477	41775.32
553.676	41539.8
553.876	41654.49
554.076	41586.91
554.275	41150.69
554.475	41072.87
554.674	41769.18
554.874	41322.72
555.074	41375.97
555.273	41627.87
555.473	41593.05
555.672	41335.01
555.872	41310.43
556.071	41779.42
556.271	41580.76
556.47	41494.75
556.67	41033.96
556.869	41294.05
557.068	41328.86
557.268	41326.81
557.467	40859.88
557.667	40943.84
557.866	41242.85
558.065	41484.51
558.265	41312.48
558.464	40872.17
558.663	41570.52
558.863	40771.82
559.062	41478.36
559.261	40681.7
559.461	41220.32
559.66	40536.3
559.859	41109.73
560.058	40937.7
560.258	41042.15
560.457	40429.8
560.656	40925.41
560.855	40990.95
561.054	41070.82
561.253	40237.3
561.453	41081.06
561.652	41146.59
561.851	41122.02
562.05	40841.45
562.249	40421.61
562.448	40747.24
562.647	40710.38
562.846	40622.31
563.045	40532.2
563.244	40143.09
563.443	41109.73
563.642	40374.51
563.841	40399.08
564.04	40655.08
564.239	40829.16
564.438	40184.05
564.637	40470.76
564.836	40347.89
565.035	40530.15
565.234	40622.31
565.432	40407.28
565.631	40368.37
565.83	40216.82
566.029	40038.64
566.228	40141.04
566.427	40257.78
566.625	40116.47
566.824	39766.26
567.023	40397.04
567.222	39801.08
567.42	40585.45
567.619	40376.56
567.818	39917.81
568.016	39862.52
568.215	40419.56
568.414	39866.61
568.612	39862.52
568.811	39901.43
569.01	40239.34
569.208	39313.66
569.407	40020.21
569.605	39434.49
569.804	39760.12
570.002	39637.24
570.201	39649.53
570.4	39088.38
570.598	39278.85
570.797	39463.16
570.995	39342.33
571.193	38793.48
571.392	39196.93
571.59	38957.31
571.789	39459.07
571.987	38967.55
572.186	39088.38
572.384	38512.91
572.582	38785.29
572.781	38742.28
572.979	38623.5
573.177	38547.72
573.376	38729.99
573.574	38451.47
573.772	38818.05
573.971	38258.96
574.169	38136.08
574.367	38193.42
574.565	38453.51
574.763	38242.57
574.962	38349.07
575.16	37746.97
575.358	38637.83
575.556	37497.11
575.754	38320.4
575.952	37515.54
576.151	37908.75
576.349	37255.45
576.547	37669.14
576.745	37656.85
576.943	37749.01
577.141	37318.94
577.339	37722.39
577.537	37194.01
577.735	37347.61
577.933	36686.12
578.131	37234.97
578.329	37034.27
578.527	36854.05
578.725	37273.88
578.923	37009.7
579.121	36815.14
579.319	36737.32
579.516	36983.07
579.714	36366.63
579.912	36190.51
580.11	36319.53
580.308	36442.41
580.506	35969.33
580.704	35815.73
580.901	35856.69
581.099	36116.78
581.297	35877.17
581.495	36170.03
581.692	36225.32
581.89	35545.4
582.088	35494.2
582.285	35383.61
582.483	35836.21
582.681	35336.51
582.878	35471.67
583.076	35385.66
583.274	35512.63
583.471	35066.17
583.669	34900.29
583.866	34670.92
584.064	35088.7
584.262	34789.7
584.459	34855.23
584.657	34902.34
584.854	34836.8
585.052	34154.83
585.249	34556.23
585.447	34531.65
585.644	34089.29
585.841	34253.13
586.039	34392.39
586.236	33907.02
586.434	33550.68
586.631	33679.7
586.828	33966.42
587.026	33601.88
587.223	33671.51
587.42	33460.57
587.618	33470.81
587.815	33108.32
588.012	33251.67
588.21	33110.36
588.407	33210.71
588.604	32631.14
588.801	32950.62
588.999	33022.3
589.196	32805.22
589.393	32590.18
589.59	32899.42
589.787	33063.26
589.984	32561.51
590.182	32332.14
590.379	32538.98
590.576	31971.69
590.773	32147.82
590.97	31734.13
591.167	32117.1
591.364	31721.84
591.561	31924.59
591.758	31404.41
591.955	31469.94
592.152	31672.69
592.349	31447.41
592.546	31574.39
592.743	31629.68
592.94	30939.52
593.137	31099.26
593.334	31236.47
593.531	30904.7
593.727	31086.97
593.924	30873.98
594.121	30792.06
594.318	31156.6
594.515	30462.34
594.712	30458.24
594.908	30611.84
595.105	30398.85
595.302	30126.47
595.499	30435.72
595.696	30062.99
595.892	30011.79
596.089	29839.76
596.286	29827.47
596.482	29958.54
596.679	29712.78
596.876	29880.72
597.072	29442.45
597.269	29503.89
597.466	29165.98
597.662	29366.68
597.859	29313.43
598.055	29020.57
598.252	29467.03
598.448	28889.5
598.645	28600.74
598.841	28762.53
599.038	28883.36
599.234	28740
599.431	28410.28
599.627	28617.12
599.824	28397.99
600.02	28225.96
600.217	28152.23
600.413	28139.94
600.609	27718.06
600.806	28025.26
601.002	28316.07
601.198	28139.94
601.395	27580.85
601.591	27857.32
601.787	27781.55
601.984	27529.65
602.18	27744.69
602.376	27494.83
602.572	27095.48
602.769	27290.04
602.965	27013.56
603.161	27210.17
603.357	26655.17
603.553	26659.26
603.75	27054.52
603.946	26579.39
604.142	26862.01
604.338	26159.56
604.534	26476.99
604.73	26253.76
604.926	26317.25
605.122	26249.67
605.318	26071.5
605.514	26069.45
605.71	25934.28
605.906	25856.46
606.102	26134.98
606.298	25948.62
606.494	25874.89
606.69	25811.4
606.886	25792.97
607.082	25278.93
607.278	25905.61
607.474	25231.83
607.67	25557.46
607.866	24898.01
608.062	25391.57
608.257	25412.05
608.453	25178.58
608.649	25182.68
608.845	24859.1
609.041	25244.12
609.236	24783.32
609.432	24580.57
609.628	24869.34
609.824	24889.82
610.019	24609.25
610.215	24801.75
610.411	24814.04
610.606	24416.74
610.802	24670.68
610.998	24637.92
611.193	24447.46
611.389	24228.32
611.584	24189.41
611.78	24386.02
611.976	24283.62
612.171	24498.66
612.367	24046.05
612.562	24226.28
612.758	23704.04
612.953	23861.74
613.149	24048.1
613.344	23706.09
613.539	24179.17
613.735	23712.24
613.93	23822.83
614.126	23611.89
614.321	23855.59
614.517	23810.54
614.712	23523.82
614.907	23257.59
615.103	23867.88
615.298	23339.51
615.493	23333.36
615.688	22925.82
615.884	23640.56
616.079	23065.08
616.274	23054.84
616.47	23099.89
616.665	23177.72
616.86	23206.39
617.055	22800.89
617.25	22903.29
617.445	23024.12
617.641	22454.78
617.836	22755.83
618.031	22178.31
618.226	22680.06
618.421	22358.53
618.616	22512.13
618.811	22520.32
619.006	22342.14
619.201	21973.51
619.396	22270.47
619.591	21867.02
619.786	22075.91
619.981	21535.24
620.176	21342.74
620.371	21537.29
620.566	21611.02
620.761	21635.6
620.956	21697.03
621.151	21191.19
621.346	21248.53
621.541	20834.84
621.735	21078.55
621.93	20754.97
622.125	20955.67
622.32	20568.6
622.515	20748.82
622.709	20693.53
622.904	20378.14
623.099	20224.54
623.294	20599.32
623.488	19982.88
623.683	19986.98
623.878	19649.07
624.072	19767.85
624.267	19685.93
624.462	19466.8
624.656	19407.41
624.851	19255.86
625.046	19175.98
625.24	19208.75
625.435	18725.43
625.629	18930.23
625.824	18866.74
626.018	18805.3
626.213	18461.24
626.407	18618.94
626.602	18211.39
626.796	18344.51
626.991	18467.39
627.185	18334.27
627.38	18238.02
627.574	17773.13
627.768	17707.59
627.963	17996.35
628.157	17734.21
628.352	17805.89
628.546	17224.27
628.74	17476.17
628.935	17263.18
629.129	17384.01
629.323	16804.44
629.517	17115.73
629.712	16814.68
629.906	16931.41
630.1	16605.78
630.294	16593.5
630.489	16638.55
630.683	16706.13
630.877	16464.47
631.071	16128.61
631.265	16325.21
631.459	16296.54
631.653	16099.94
631.848	15950.43
632.042	15903.33
632.236	15905.38
632.43	15743.59
632.624	15870.56
632.818	15600.23
633.012	15389.29
633.206	15596.14
633.4	15628.9
633.594	15290.99
633.788	15237.74
633.982	15522.41
634.176	15028.85
634.369	15110.77
634.563	15006.32
634.757	14758.52
634.951	14910.07
635.145	14795.38
635.339	14797.43
635.533	14420.6
635.726	14600.82
635.92	14574.2
636.114	14449.27
636.308	14418.55
636.501	14314.11
636.695	14336.63
636.889	14078.59
637.083	14060.16
637.276	14011.01
637.47	14008.96
637.664	13955.71
637.857	13771.4
638.051	13552.26
638.244	13388.43
638.438	13697.67
638.632	13355.66
638.825	13175.44
639.019	13404.81
639.212	13159.05
639.406	13126.29
639.599	12921.49
639.793	12929.68
639.986	12874.38
640.18	12923.54
640.373	12948.11
640.567	12479.13
640.76	12882.58
640.954	12608.15
641.147	12645.01
641.34	12389.02
641.534	12366.49
641.727	12552.85
641.92	12298.91
642.114	12153.5
642.307	12167.84
642.5	11956.89
642.694	11854.5
642.887	11817.63
643.08	12081.82
643.273	11604.64
643.467	11504.29
643.66	11532.97
643.853	11614.88
644.046	11569.83
644.239	11455.14
644.432	11303.59
644.626	11379.37
644.819	11164.33
645.012	11258.54
645.205	11262.63
645.398	10863.28
645.591	10967.73
645.784	11055.79
645.977	10871.47
646.17	10836.66
646.363	10713.78
646.556	10570.42
646.749	10642.1
646.942	10566.32
647.135	10511.03
647.328	10560.18
647.521	10465.97
647.714	10097.34
647.907	10162.87
648.099	10109.63
648.292	10140.35
648.485	9814.72
648.678	9882.3
648.871	9974.46
649.064	9792.19
649.256	10029.76
649.449	9738.94
649.642	9693.89
649.835	9462.47
650.027	9571.01
650.22	9448.13
650.413	9511.62
650.605	9562.82
650.798	9517.76
650.991	9280.2
651.183	9353.93
651.376	9185.99
651.568	9229
651.761	9151.18
651.954	9235.14
652.146	8850.13
652.339	8960.72
652.531	8819.41
652.724	8721.1
652.916	8737.49
653.109	8485.59
653.301	8600.27
653.494	8549.07
653.686	8454.87
653.879	8450.77
654.071	8383.19
654.263	8428.24
654.456	8426.2
654.648	8338.13
654.84	8243.93
655.033	8336.09
655.225	8098.52
655.417	8196.82
655.61	8164.06
655.802	7901.92
655.994	7979.74
656.186	7957.21
656.379	7969.5
656.571	7672.54
656.763	7985.88
656.955	7699.17
657.148	7680.74
657.34	7602.91
657.532	7334.63
657.724	7402.21
657.916	7639.78
658.108	7326.44
658.3	7246.57
658.492	7152.36
658.684	7193.32
658.876	7193.32
659.068	7111.4
659.26	7056.11
659.452	7166.7
659.644	6947.56
659.836	6990.57
660.028	6939.37
660.22	6769.39
660.412	6718.19
660.604	6738.67
660.796	6728.43
660.988	6714.09
661.18	6482.67
661.372	6499.06
661.563	6505.2
661.755	6312.69
661.947	6494.96
662.139	6257.4
662.331	6253.3
662.522	6236.92
662.714	6392.56
662.906	6189.81
663.097	6169.34
663.289	6181.62
663.481	6021.88
663.673	5972.73
663.864	5962.49
664.056	5915.39
664.247	5929.72
664.439	5894.91
664.631	5776.13
664.822	5776.13
665.014	5825.28
665.205	5581.57
665.397	5491.46
665.588	5620.48
665.78	5538.56
665.971	5495.55
666.163	5556.99
666.354	5604.1
666.546	5468.93
666.737	5321.48
666.929	5481.22
667.12	5303.04
667.311	5323.52
667.503	5221.13
667.694	5221.13
667.885	5135.11
668.077	5253.89
668.268	5171.97
668.459	5059.34
668.651	5004.04
668.842	4954.89
669.033	4991.75
669.224	4887.31
669.416	4866.83
669.607	4877.07
669.798	4633.36
669.989	4690.7
670.18	4946.7
670.371	4702.99
670.563	4737.81
670.754	4514.58
670.945	4565.78
671.136	4625.17
671.327	4727.57
671.518	4573.97
671.709	4553.49
671.9	4561.68
672.091	4432.66
672.282	4332.31
672.473	4410.13
672.664	4471.57
672.855	4395.79
673.046	4344.6
673.237	4440.85
673.428	4373.27
673.619	4199.19
673.809	4098.84
674	4203.29
674.191	4295.44
674.382	4231.96
674.573	4141.85
674.764	4107.03
674.954	4139.8
675.145	4016.92
675.336	4086.55
675.527	4195.09
675.717	4084.5
675.908	3969.82
676.099	4004.63
676.289	3900.19
676.48	3912.47
676.671	3818.27
676.861	3967.77
677.052	3769.12
677.243	3838.75
677.433	3894.04
677.624	3908.38
677.814	3824.41
678.005	3904.28
678.195	3734.3
678.386	3765.02
678.576	3681.05
678.767	3715.87
678.957	3756.83
679.148	3814.17
679.338	3789.6
679.529	3699.48
679.719	3746.59
679.909	3613.47
680.1	3640.09
680.29	3595.04
680.481	3664.67
680.671	3543.84
680.861	3496.74
681.052	3492.64
681.242	3664.67
681.432	3568.41
681.622	3427.11
681.813	3531.55
682.003	3576.61
682.193	3488.54
682.383	3468.06
682.573	3441.44
682.764	3351.33
682.954	3617.57
683.144	3443.49
683.334	3373.86
683.524	3484.45
683.714	3361.57
683.904	3373.86
684.094	3341.09
684.284	3410.72
684.474	3500.83
684.664	3380
684.854	3334.95
685.044	3472.16
685.234	3425.06
685.424	3349.28
685.614	3355.43
685.804	3322.66
685.994	3380
686.184	3308.32
686.374	3248.93
686.564	3244.84
686.753	3330.85
686.943	3210.02
687.133	3271.46
687.323	3330.85
687.513	3263.27
687.702	3371.81
687.892	3263.27
688.082	3259.17
688.272	3283.75
688.461	3345.19
688.651	3296.04
688.841	3334.95
689.03	3296.04
689.22	3228.45
689.41	3322.66
689.599	3230.5
689.789	3193.64
689.979	3181.35
690.168	3250.98
690.358	3240.74
690.547	3224.36
690.737	3234.6
690.926	3224.36
691.116	3257.12
691.305	3328.8
691.495	3228.45
691.684	3201.83
691.874	3160.87
692.063	3238.69
692.252	3267.36
692.442	3230.5
692.631	3189.54
692.82	3197.73
693.01	3148.58
693.199	3146.53
693.388	3037.99
693.578	2978.6
693.767	3134.25
693.956	3148.58
694.146	3023.66
694.335	3085.09
694.524	3109.67
694.713	3021.61
694.902	3042.09
695.092	3121.96
695.281	3029.8
695.47	3040.04
695.659	3144.49
695.848	3003.18
696.037	2956.07
696.226	3124.01
696.415	3015.46
696.604	3033.9
696.793	2925.35
696.982	2951.98
697.171	2978.6
697.36	3005.22
697.549	2970.41
697.738	2874.15
697.927	2845.48
698.116	2888.49
698.305	2845.48
698.494	2927.4
698.683	3025.7
698.872	2847.53
699.061	2814.76
699.25	2890.54
699.438	2874.15
699.627	2927.4
699.816	2855.72
700.005	2796.33
700.193	2872.11
700.382	2767.66
700.571	2702.12
700.76	2712.36
700.948	2722.6
701.137	2665.26
701.326	2726.7
701.514	2745.13
701.703	2677.55
701.892	2665.26
702.08	2640.69
702.269	2685.74
702.457	2579.25
702.646	2763.56
702.834	2630.45
703.023	2612.01
703.212	2626.35
703.4	2552.62
703.589	2528.05
703.777	2640.69
703.965	2454.32
704.154	2632.49
704.342	2550.57
704.531	2517.81
704.719	2503.47
704.907	2499.38
705.096	2433.84
705.284	2491.18
705.472	2413.36
705.661	2366.26
705.849	2333.49
706.037	2376.5
706.226	2403.12
706.414	2362.16
706.602	2507.57
706.79	2341.68
706.979	2231.09
707.167	2306.87
707.355	2325.3
707.543	2171.7
707.731	2310.96
707.919	2325.3
708.107	2284.34
708.296	2208.56
708.484	2138.93
708.672	2165.56
708.86	2296.63
709.048	2220.85
709.236	2274.1
709.424	2183.99
709.612	2143.03
709.8	2202.42
709.988	2200.37
710.176	2126.64
710.364	2159.41
710.551	2077.49
710.739	2059.06
710.927	2120.5
711.115	2116.41
711.303	2009.91
711.491	2110.26
711.679	1999.67
711.866	2095.93
712.054	2153.27
712.242	2034.49
712.43	2085.69
712.617	1946.42
712.805	2018.1
712.993	1950.52
713.181	1983.29
713.368	1936.18
713.556	1899.32
713.744	1844.03
713.931	1848.12
714.119	1950.52
714.306	1805.11
714.494	1958.71
714.682	1913.66
714.869	1825.59
715.057	1858.36
715.244	1958.71
715.432	1899.32
715.619	1780.54
715.807	1819.45
715.994	1870.65
716.182	1762.11
716.369	1872.7
716.556	1796.92
716.744	1770.3
716.931	1821.5
717.119	1770.3
717.306	1792.83
717.493	1803.07
717.681	1669.95
717.868	1770.3
718.055	1715
718.242	1784.63
718.43	1706.81
718.617	1608.51
718.804	1680.19
718.991	1573.69
719.179	1772.35
719.366	1706.81
719.553	1585.98
719.74	1696.57
719.927	1553.21
720.114	1620.8
720.301	1588.03
720.488	1590.08
720.676	1606.46
720.863	1590.08
721.05	1583.93
721.237	1514.3
721.424	1598.27
721.611	1534.78
721.798	1424.19
721.985	1628.99
722.172	1452.86
722.358	1645.37
722.545	1506.11
722.732	1422.14
722.919	1454.91
723.106	1452.86
723.293	1461.06
723.48	1422.14
723.667	1416
723.853	1483.58
724.04	1381.18
724.227	1444.67
724.414	1389.38
724.6	1391.42
724.787	1375.04
724.974	1329.99
725.161	1336.13
725.347	1241.92
725.534	1391.42
725.72	1325.89
725.907	1379.14
726.094	1375.04
726.28	1323.84
726.467	1321.79
726.653	1346.37
726.84	1327.94
727.027	1293.12
727.213	1268.55
727.4	1397.57
727.586	1270.59
727.773	1305.41
727.959	1293.12
728.145	1200.96
728.332	1221.44
728.518	1250.11
728.705	1176.39
728.891	1276.74
729.077	1207.11
729.264	1248.07
729.45	1151.81
729.636	1196.87
729.823	1172.29
730.009	1235.78
730.195	1106.76
730.382	1217.35
730.568	1176.39
730.754	1190.72
730.94	1162.05
731.126	1063.75
731.313	1170.24
731.499	1151.81
731.685	1153.86
731.871	1145.67
732.057	1227.59
732.243	1016.65
732.429	1166.15
732.615	1108.8
732.801	1198.92
732.987	1117
733.173	1098.56
733.359	1037.13
733.545	1073.99
733.731	1024.84
733.917	1090.37
734.103	1121.09
734.289	1026.89
734.475	1061.7
734.661	1114.95
734.847	1160
735.033	1043.27
735.219	1004.36
735.404	1110.85
735.59	1076.04
735.776	1069.89
735.962	1018.69
736.148	1026.89
736.333	992.07
736.519	930.63
736.705	961.35
736.89	1088.32
737.076	1043.27
737.262	965.45
737.447	957.25
737.633	967.49
737.819	981.83
738.004	918.34
738.19	838.47
738.375	981.83
738.561	852.81
738.747	926.54
738.932	963.4
739.118	959.3
739.303	889.67
739.489	983.88
739.674	932.68
739.859	916.3
740.045	844.62
740.23	867.14
740.416	883.53
740.601	867.14
740.786	858.95
740.972	807.75
741.157	828.23
741.342	916.3
741.528	754.51
741.713	852.81
741.898	777.03
742.084	883.53
742.269	846.66
742.454	783.18
742.639	895.82
742.824	777.03
743.01	844.62
743.195	803.66
743.38	799.56
743.565	873.29
743.75	789.32
743.935	848.71
744.12	811.85
744.305	719.69
744.49	793.42
744.675	742.22
744.86	723.79
745.045	774.99
745.23	742.22
745.415	723.79
745.6	756.55
745.785	709.45
745.97	750.41
746.155	740.17
746.34	740.17
746.525	774.99
746.71	695.11
746.895	627.53
747.079	756.55
747.264	641.87
747.449	697.16
747.634	758.6
747.819	721.74
748.003	641.87
748.188	764.75
748.373	756.55
748.557	703.31
748.742	686.92
748.927	654.16
749.111	713.55
749.296	656.2
749.481	682.83
749.665	641.87
749.85	617.29
750.034	723.79
750.219	691.02
750.404	568.14
750.588	631.63
750.773	598.86
750.957	635.72
751.141	590.67
751.326	652.11
751.51	551.76
751.695	654.16
751.879	576.33
752.064	676.68
752.248	611.15
752.432	693.07
752.617	615.24
752.801	582.48
752.985	580.43
753.17	570.19
753.354	621.39
753.538	586.57
753.722	553.8
753.907	602.96
754.091	504.65
754.275	510.8
754.459	545.61
754.643	566.09
754.828	594.76
755.012	521.04
755.196	498.51
755.38	566.09
755.564	480.08
755.748	580.43
755.932	508.75
756.116	549.71
756.3	502.61
756.484	543.57
756.668	496.46
756.852	535.37
757.036	518.99
757.22	549.71
757.404	484.17
757.588	490.32
757.772	549.71
757.956	402.26
758.14	473.93
758.323	453.45
758.507	529.23
758.691	506.7
758.875	435.02
759.059	457.55
759.242	414.54
759.426	533.33
759.61	406.35
759.794	521.04
759.977	512.85
760.161	486.22
760.345	492.37
760.528	486.22
760.712	445.26
760.895	453.45
761.079	410.45
761.263	424.78
761.446	502.61
761.63	430.93
761.813	447.31
761.997	484.17
762.18	443.21
762.364	455.5
762.547	443.21
762.731	467.79
762.914	404.3
763.098	490.32
763.281	412.5
763.464	443.21
763.648	443.21
763.831	457.55
764.015	381.78
764.198	412.5
764.381	418.64
764.564	416.59
764.748	471.89
764.931	439.12
765.114	402.26
765.297	469.84
765.481	369.49
765.664	357.2
765.847	359.25
766.03	422.73
766.213	377.68
766.397	396.11
766.58	437.07
766.763	416.59
766.946	418.64
767.129	443.21
767.312	414.54
767.495	447.31
767.678	455.5
767.861	324.43
768.044	320.34
768.227	437.07
768.41	404.3
768.593	377.68
768.776	439.12
768.959	301.9
769.142	394.06
769.324	439.12
769.507	369.49
769.69	453.45
769.873	387.92
770.056	420.69
770.239	381.78
770.421	435.02
770.604	422.73
770.787	318.29
770.97	312.14
771.152	310.1
771.335	291.66
771.518	375.63
771.7	330.58
771.883	426.83
772.066	418.64
772.248	416.59
772.431	375.63
772.613	367.44
772.796	326.48
772.978	398.16
773.161	326.48
773.343	400.21
773.526	363.34
773.708	275.28
773.891	344.91
774.073	439.12
774.256	379.73
774.438	334.67
774.621	361.3
774.803	389.97
774.985	377.68
775.168	377.68
775.35	273.23
775.532	355.15
775.715	342.86
775.897	355.15
776.079	344.91
776.261	381.78
776.444	287.57
776.626	269.14
776.808	349.01
776.99	381.78
777.173	330.58
777.355	363.34
777.537	273.23
777.719	306
777.901	301.9
778.083	273.23
778.265	312.14
778.447	324.43
778.629	346.96
778.811	314.19
778.993	297.81
779.175	342.86
779.357	342.86
779.539	322.38
779.721	201.55
779.903	297.81
780.085	330.58
780.267	297.81
780.449	328.53
780.631	289.62
780.812	301.9
780.994	209.75
781.176	265.04
781.358	306
781.54	246.61
781.721	310.1
781.903	265.04
782.085	281.43
782.267	301.9
782.448	246.61
782.63	287.57
782.812	254.8
782.993	240.47
783.175	301.9
783.357	297.81
783.538	283.47
783.72	260.95
783.901	226.13
784.083	279.38
784.264	258.9
784.446	203.6
784.627	252.75
784.809	211.79
784.99	316.24
785.172	299.86
785.353	275.28
785.535	215.89
785.716	183.12
785.897	209.75
786.079	211.79
786.26	195.41
786.441	330.58
786.623	265.04
786.804	228.18
786.985	176.98
787.167	154.45
787.348	174.93
787.529	226.13
787.71	217.94
787.891	205.65
788.073	187.22
788.254	189.27
788.435	222.03
788.616	230.23
788.797	224.08
788.978	228.18
789.159	123.73
789.34	183.12
789.522	238.42
789.703	174.93
789.884	179.03
790.065	228.18
790.246	179.03
790.427	224.08
790.607	228.18
790.788	176.98
790.969	136.02
791.15	265.04
791.331	217.94
791.512	232.27
791.693	176.98
791.874	168.79
792.054	172.88
792.235	232.27
792.416	156.5
792.597	185.17
792.778	193.36
792.958	113.49
793.139	140.12
793.32	236.37
793.5	183.12
793.681	236.37
793.862	154.45
794.042	189.27
794.223	129.88
794.404	133.97
794.584	154.45
794.765	140.12
794.945	125.78
795.126	174.93
795.306	129.88
795.487	127.83
795.667	109.4
795.848	205.65
796.028	234.32
796.209	150.36
796.389	117.59
796.57	154.45
796.75	158.55
796.93	158.55
797.111	119.64
797.291	215.89
797.471	158.55
797.652	45.91
797.832	152.4
798.012	183.12
798.192	179.03
798.373	119.64
798.553	197.46
798.733	199.51
798.913	68.44
799.093	70.48
799.274	131.92
799.454	133.97
799.634	201.55
799.814	205.65
799.994	80.72
800.174	185.17
800.354	179.03
800.534	127.83
800.714	119.64
800.894	140.12
801.074	103.25
801.254	88.92
801.434	170.83
801.614	119.64
801.794	125.78
801.974	404.3
802.154	107.35
802.334	127.83
802.514	185.17
802.693	193.36
802.873	111.44
803.053	121.68
803.233	117.59
803.413	183.12
803.592	158.55
803.772	164.69
803.952	179.03
804.131	54.1
804.311	154.45
804.491	123.73
804.67	52.05
804.85	72.53
805.03	150.36
805.209	150.36
805.389	181.07
805.568	174.93
805.748	80.72
805.928	84.82
806.107	158.55
806.287	146.26
806.466	64.34
806.646	158.55
806.825	197.46
807.004	86.87
807.184	129.88
807.363	250.71
807.543	133.97
807.722	101.2
807.901	88.92
808.081	109.4
808.26	99.16
808.439	97.11
808.619	164.69
808.798	123.73
808.977	68.44
809.156	136.02
809.336	154.45
809.515	119.64
809.694	109.4
809.873	70.48
810.052	97.11
810.231	217.94
810.411	66.39
810.59	101.2
810.769	78.68
810.948	88.92
811.127	52.05
811.306	88.92
811.485	88.92
811.664	131.92
811.843	15.19
812.022	70.48
812.201	115.54
812.38	52.05
812.559	66.39
812.737	123.73
812.916	23.38
813.095	162.64
813.274	138.07
813.453	78.68
813.632	66.39
813.811	111.44
813.989	74.58
814.168	119.64
814.347	82.77
814.526	84.82
814.704	7
814.883	101.2
815.062	43.86
815.24	101.2
815.419	80.72
815.598	140.12
815.776	21.33
815.955	84.82
816.133	82.77
816.312	115.54
816.49	113.49
816.669	35.67
816.847	60.24
817.026	37.72
817.204	154.45
817.383	121.68
817.561	109.4
817.74	52.05
817.918	31.57
818.097	66.39
818.275	60.24
818.453	74.58
818.632	64.34
818.81	119.64
818.988	58.2
819.167	99.16
819.345	78.68
819.523	15.19
819.701	82.77
819.879	95.06
820.058	107.35
820.236	113.49
820.414	115.54
820.592	66.39
820.77	95.06
820.948	90.96
821.127	37.72
821.305	93.01
821.483	111.44
821.661	113.49
821.839	60.24
822.017	68.44
822.195	60.24
822.373	37.72
822.551	136.02
822.729	90.96
822.907	27.48
823.085	156.5
823.262	78.68
823.44	113.49
823.618	64.34
823.796	93.01
823.974	58.2
824.152	35.67
824.329	17.24
824.507	37.72
824.685	84.82
824.863	117.59
825.04	21.33
825.218	64.34
825.396	17.24
825.574	54.1
825.751	72.53
825.929	117.59
826.107	172.88
826.284	113.49
826.462	41.81
826.639	27.48
826.817	37.72
826.994	21.33
827.172	56.15
827.349	47.96
827.527	64.34
827.704	119.64
827.882	70.48
828.059	56.15
828.237	84.82
828.414	103.25
828.591	-1.19
828.769	101.2
828.946	60.24
829.124	86.87
829.301	47.96
829.478	7
829.655	78.68
829.833	166.74
830.01	50
830.187	131.92
830.364	41.81
830.542	60.24
830.719	66.39
830.896	95.06
831.073	76.63
831.25	68.44
831.427	97.11
831.604	2.9
831.782	68.44
831.959	11.09
832.136	15.19
832.313	115.54
832.49	45.91
832.667	41.81
832.844	113.49
833.021	54.1
833.198	80.72
833.374	4.95
833.551	9.05
833.728	109.4
833.905	45.91
834.082	97.11
834.259	97.11
834.436	9.05
834.612	95.06
834.789	82.77
834.966	47.96
835.143	2.9
835.319	64.34
835.496	95.06
835.673	97.11
835.85	105.3
836.026	17.24
836.203	88.92
836.38	52.05
836.556	60.24
836.733	13.14
836.909	117.59
837.086	29.52
837.262	105.3
837.439	58.2
837.616	-19.63
837.792	60.24
837.968	117.59
838.145	-33.96
838.321	37.72
838.498	-21.67
838.674	86.87
838.851	103.25
839.027	-31.91
839.203	72.53
839.38	39.76
839.556	41.81
839.732	162.64
839.909	62.29
840.085	37.72
840.261	2.9
840.437	23.38
840.614	9.05
840.79	90.96
840.966	23.38
841.142	50
841.318	84.82
841.494	33.62
841.671	78.68
841.847	103.25
842.023	0.85
842.199	78.68
842.375	119.64
842.551	33.62
842.727	31.57
842.903	64.34
843.079	15.19
843.255	31.57
843.431	27.48
843.607	35.67
843.783	84.82
843.959	64.34
844.134	52.05
844.31	47.96
844.486	23.38
844.662	58.2
844.838	66.39
845.013	15.19
845.189	52.05
845.365	35.67
845.541	17.24
845.716	27.48
845.892	90.96
846.068	19.29
846.244	-7.34
846.419	78.68
846.595	29.52
846.77	43.86
846.946	33.62
847.122	90.96
847.297	70.48
847.473	99.16
847.648	58.2
847.824	41.81
847.999	62.29
848.175	33.62
848.35	21.33
848.526	19.29
848.701	43.86
848.876	43.86
849.052	-7.34
849.227	70.48
849.403	45.91
849.578	27.48
849.753	45.91
849.929	62.29
850.104	43.86
850.279	35.67
850.454	21.33
850.63	72.53
850.805	43.86
850.98	52.05
851.155	31.57
851.33	29.52
851.505	-11.43
851.681	11.09
851.856	45.91
852.031	39.76
852.206	111.44
852.381	95.06
852.556	62.29
852.731	13.14
852.906	33.62
853.081	-15.53
853.256	70.48
853.431	11.09
853.606	-7.34
853.781	35.67
853.956	45.91
854.131	39.76
854.305	47.96
854.48	21.33
854.655	56.15
854.83	43.86
855.005	-5.29
855.18	95.06
855.354	25.43
855.529	62.29
855.704	4.95
855.879	2.9
856.053	31.57
856.228	109.4
856.403	86.87
856.577	84.82
856.752	-42.15
856.926	31.57
857.101	23.38
857.276	101.2
857.45	17.24
857.625	45.91
857.799	47.96
857.974	60.24
858.148	86.87
858.323	27.48
858.497	37.72
858.672	35.67
858.846	19.29
859.02	4.95
859.195	58.2
859.369	41.81
859.543	-5.29
859.718	7
859.892	19.29
860.066	-21.67
860.241	72.53
860.415	45.91
860.589	56.15
860.763	33.62
860.938	43.86
861.112	25.43
861.286	66.39
861.46	99.16
861.634	4.95
861.808	70.48
861.982	-7.34
862.157	66.39
862.331	-60.59
862.505	54.1
862.679	19.29
862.853	-29.87
863.027	-19.63
863.201	66.39
863.375	15.19
863.549	-17.58
863.722	64.34
863.896	60.24
864.07	45.91
864.244	17.24
864.418	70.48
864.592	99.16
864.766	113.49
864.939	27.48
865.113	21.33
865.287	82.77
865.461	-15.53
865.634	-11.43
865.808	23.38
865.982	-15.53
866.156	25.43
866.329	47.96
866.503	11.09
866.676	84.82
866.85	-60.59
867.024	66.39
867.197	60.24
867.371	-21.67
867.544	27.48
867.718	-17.58
867.891	54.1
868.065	-17.58
868.238	66.39
868.412	68.44
868.585	37.72
868.759	-3.24
868.932	13.14
869.105	-5.29
869.279	47.96
869.452	101.2
869.625	62.29
869.799	60.24
869.972	27.48
870.145	-5.29
870.319	52.05
870.492	4.95
870.665	-5.29
870.838	21.33
871.011	50
871.185	29.52
871.358	21.33
871.531	58.2
871.704	11.09
871.877	27.48
872.05	68.44
872.223	13.14
872.396	0.85
872.569	64.34
872.742	58.2
872.915	93.01
873.088	60.24
873.261	60.24
873.434	19.29
873.607	99.16
873.78	33.62
873.953	33.62
874.126	-11.43
874.299	13.14
874.471	17.24
874.644	-42.15
874.817	41.81
874.99	29.52
875.163	-44.2
875.335	19.29
875.508	37.72
875.681	41.81
875.853	31.57
876.026	-7.34
876.199	-1.19
876.371	2.9
876.544	27.48
876.717	68.44
876.889	41.81
877.062	27.48
877.234	93.01
877.407	23.38
877.579	43.86
877.752	41.81
877.924	86.87
878.097	58.2
878.269	-74.92
878.442	35.67
878.614	25.43
878.786	56.15
878.959	107.35
879.131	-13.48
879.303	29.52
879.476	72.53
879.648	35.67
879.82	84.82
879.993	33.62
880.165	54.1
880.337	39.76
880.509	7
880.681	-19.63
880.854	84.82
881.026	86.87
881.198	52.05
881.37	-27.82
881.542	37.72
881.714	-5.29
881.886	43.86
882.058	19.29
882.23	-25.77
882.402	78.68
882.574	-44.2
882.746	11.09
882.918	43.86
883.09	66.39
883.262	45.91
883.434	41.81
883.606	-17.58
883.778	58.2
883.95	13.14
884.122	41.81
884.293	25.43
884.465	21.33
884.637	25.43
884.809	25.43
884.98	35.67
885.152	62.29
885.324	68.44
885.496	2.9
885.667	64.34
885.839	50
886.011	45.91
886.182	72.53
886.354	-44.2
886.525	-15.53
886.697	37.72
886.869	25.43
887.04	-19.63
887.212	39.76
887.383	86.87
887.555	-50.35
887.726	58.2
887.897	-3.24
888.069	58.2
888.24	-11.43
888.412	70.48
888.583	13.14
888.754	-42.15
888.926	45.91
889.097	4.95
889.268	11.09
889.44	45.91
889.611	60.24
889.782	52.05
889.953	-40.11
890.125	56.15
890.296	21.33
890.467	82.77
890.638	-27.82
890.809	-52.39
890.98	50
891.151	76.63
891.323	37.72
891.494	39.76
891.665	45.91
891.836	4.95
892.007	9.05
892.178	37.72
892.349	11.09
892.52	17.24
892.691	27.48
892.862	56.15
893.032	-9.39
893.203	115.54
893.374	56.15
893.545	76.63
893.716	-48.3
893.887	80.72
894.057	-1.19
894.228	23.38
894.399	13.14
894.57	33.62
894.74	15.19
894.911	-7.34
895.082	4.95
895.253	4.95
895.423	-5.29
895.594	54.1
895.764	13.14
895.935	-13.48
896.106	2.9
896.276	11.09
896.447	-11.43
896.617	-3.24
896.788	84.82
896.958	-11.43
897.129	15.19
897.299	43.86
897.47	-1.19
897.64	-19.63
897.81	31.57
897.981	60.24
898.151	74.58
898.322	27.48
898.492	31.57
898.662	45.91
898.832	78.68
899.003	13.14
899.173	31.57
899.343	-36.01
899.513	37.72
