Data from USB4F104151__64__12-54-10-122.txt Node

Date: Fri Mar 14 12:54:10 EDT 2025
User: louis
Spectrometer: USB4F10415
Trigger mode: 4
Integration Time (sec): 1.000000E-2
Scans to average: 1
Electric dark correction enabled: true
Nonlinearity correction enabled: false
Boxcar width: 0
XAxis mode: Wavelengths
Number of Pixels in Spectrum: 3648
>>>>>Begin Spectral Data<<<<<
178.204	-55.47
178.424	-55.47
178.644	-55.47
178.864	-37.03
179.084	-71.85
179.304	10.07
179.524	40.79
179.744	28.5
179.964	-47.27
180.184	-18.6
180.404	3.93
180.624	-80.04
180.844	14.17
181.064	-39.08
181.283	16.21
181.503	65.36
181.723	5.97
181.943	-20.65
182.163	51.03
182.383	-4.27
182.602	-16.55
182.822	20.31
183.042	-43.18
183.262	20.31
183.482	-26.79
183.701	73.56
183.921	46.93
184.141	-6.31
184.361	36.69
184.58	-32.94
184.8	5.97
185.02	16.21
185.239	-32.94
185.459	61.27
185.679	61.27
185.898	-22.7
186.118	53.08
186.338	8.02
186.557	20.31
186.777	22.36
186.997	71.51
187.216	-75.95
187.436	40.79
187.655	48.98
187.875	-6.31
188.095	-57.51
188.314	22.36
188.534	22.36
188.753	36.69
188.973	-43.18
189.192	3.93
189.412	51.03
189.631	40.79
189.851	-26.79
190.07	57.17
190.29	36.69
190.509	-10.41
190.729	65.36
190.948	-20.65
191.168	85.84
191.387	20.31
191.607	10.07
191.826	67.41
192.045	55.12
192.265	32.6
192.484	12.12
192.704	-18.6
192.923	32.6
193.142	30.55
193.362	-32.94
193.581	3.93
193.8	-16.55
194.02	-0.17
194.239	8.02
194.458	53.08
194.678	-32.94
194.897	46.93
195.116	59.22
195.335	42.84
195.555	32.6
195.774	71.51
195.993	36.69
196.212	42.84
196.432	10.07
196.651	-4.27
196.87	53.08
197.089	83.8
197.308	-10.41
197.528	-28.84
197.747	-0.17
197.966	10.07
198.185	87.89
198.404	-49.32
198.623	-53.42
198.842	-2.22
199.062	8.02
199.281	94.04
199.5	-4.27
199.719	24.4
199.938	12.12
200.157	-14.51
200.376	-16.55
200.595	51.03
200.814	3.93
201.033	-45.23
201.252	26.45
201.471	61.27
201.69	-0.17
201.909	61.27
202.128	-22.7
202.347	46.93
202.566	-2.22
202.785	-12.46
203.004	18.26
203.223	26.45
203.442	-20.65
203.661	22.36
203.879	40.79
204.098	20.31
204.317	85.84
204.536	65.36
204.755	-2.22
204.974	22.36
205.193	28.5
205.411	141.14
205.63	10.07
205.849	44.88
206.068	55.12
206.287	55.12
206.505	16.21
206.724	32.6
206.943	-30.89
207.162	-39.08
207.381	63.32
207.599	1.88
207.818	69.46
208.037	-14.51
208.255	34.64
208.474	104.28
208.693	26.45
208.911	-8.36
209.13	14.17
209.349	-41.13
209.567	112.47
209.786	12.12
210.005	16.21
210.223	26.45
210.442	-0.17
210.661	-22.7
210.879	30.55
211.098	-4.27
211.316	14.17
211.535	26.45
211.753	-10.41
211.972	12.12
212.191	32.6
212.409	40.79
212.628	24.4
212.846	69.46
213.065	-45.23
213.283	61.27
213.502	42.84
213.72	38.74
213.938	30.55
214.157	32.6
214.375	65.36
214.594	67.41
214.812	73.56
215.031	-12.46
215.249	-22.7
215.467	51.03
215.686	36.69
215.904	-39.08
216.122	-37.03
216.341	69.46
216.559	-32.94
216.778	85.84
216.996	63.32
217.214	91.99
217.432	-4.27
217.651	16.21
217.869	14.17
218.087	3.93
218.306	26.45
218.524	-26.79
218.742	-8.36
218.96	-61.61
219.179	22.36
219.397	-18.6
219.615	34.64
219.833	-34.99
220.051	-10.41
220.27	57.17
220.488	36.69
220.706	48.98
220.924	-4.27
221.142	77.65
221.36	-127.14
221.578	53.08
221.796	116.56
222.015	-18.6
222.233	38.74
222.451	20.31
222.669	63.32
222.887	48.98
223.105	22.36
223.323	8.02
223.541	-39.08
223.759	63.32
223.977	48.98
224.195	44.88
224.413	10.07
224.631	14.17
224.849	-28.84
225.067	59.22
225.285	85.84
225.503	36.69
225.721	-18.6
225.939	-4.27
226.157	63.32
226.375	-43.18
226.592	-4.27
226.81	32.6
227.028	-28.84
227.246	79.7
227.464	-20.65
227.682	55.12
227.9	36.69
228.117	30.55
228.335	87.89
228.553	40.79
228.771	-22.7
228.989	28.5
229.206	-51.37
229.424	-6.31
229.642	12.12
229.86	14.17
230.077	32.6
230.295	-34.99
230.513	53.08
230.731	91.99
230.948	-4.27
231.166	18.26
231.384	-30.89
231.601	22.36
231.819	30.55
232.037	51.03
232.254	34.64
232.472	-16.55
232.689	14.17
232.907	73.56
233.125	14.17
233.342	75.6
233.56	44.88
233.777	55.12
233.995	-0.17
234.213	24.4
234.43	14.17
234.648	26.45
234.865	5.97
235.083	44.88
235.3	48.98
235.518	22.36
235.735	5.97
235.953	83.8
236.17	30.55
236.388	34.64
236.605	42.84
236.822	55.12
237.04	5.97
237.257	46.93
237.475	5.97
237.692	63.32
237.909	40.79
238.127	26.45
238.344	-14.51
238.562	44.88
238.779	-53.42
238.996	28.5
239.214	-57.51
239.431	34.64
239.648	55.12
239.865	26.45
240.083	61.27
240.3	10.07
240.517	-47.27
240.735	24.4
240.952	51.03
241.169	46.93
241.386	32.6
241.603	-16.55
241.821	59.22
242.038	10.07
242.255	5.97
242.472	-39.08
242.689	40.79
242.907	83.8
243.124	55.12
243.341	65.36
243.558	-41.13
243.775	53.08
243.992	-8.36
244.209	5.97
244.426	8.02
244.643	46.93
244.86	-16.55
245.078	44.88
245.295	65.36
245.512	18.26
245.729	44.88
245.946	36.69
246.163	-8.36
246.38	26.45
246.597	-12.46
246.814	55.12
247.031	57.17
247.248	55.12
247.464	38.74
247.681	55.12
247.898	30.55
248.115	34.64
248.332	3.93
248.549	-6.31
248.766	10.07
248.983	73.56
249.2	-20.65
249.417	69.46
249.633	104.28
249.85	53.08
250.067	26.45
250.284	55.12
250.501	30.55
250.717	53.08
250.934	63.32
251.151	10.07
251.368	26.45
251.585	44.88
251.801	38.74
252.018	38.74
252.235	51.03
252.451	-59.56
252.668	28.5
252.885	48.98
253.102	61.27
253.318	-32.94
253.535	-4.27
253.752	34.64
253.968	40.79
254.185	-53.42
254.401	12.12
254.618	53.08
254.835	38.74
255.051	83.8
255.268	20.31
255.484	120.66
255.701	69.46
255.917	63.32
256.134	-10.41
256.351	-4.27
256.567	36.69
256.784	22.36
257	-10.41
257.217	91.99
257.433	-10.41
257.65	69.46
257.866	1.88
258.082	16.21
258.299	-8.36
258.515	-8.36
258.732	3.93
258.948	65.36
259.165	46.93
259.381	63.32
259.597	69.46
259.814	24.4
260.03	75.6
260.246	-0.17
260.463	12.12
260.679	44.88
260.895	-41.13
261.112	14.17
261.328	22.36
261.544	20.31
261.761	32.6
261.977	89.94
262.193	-28.84
262.409	71.51
262.626	5.97
262.842	102.23
263.058	20.31
263.274	34.64
263.49	8.02
263.707	73.56
263.923	77.65
264.139	30.55
264.355	40.79
264.571	40.79
264.787	26.45
265.004	67.41
265.22	67.41
265.436	104.28
265.652	46.93
265.868	-45.23
266.084	12.12
266.3	61.27
266.516	57.17
266.732	24.4
266.948	-32.94
267.164	57.17
267.38	65.36
267.596	40.79
267.812	36.69
268.028	12.12
268.244	10.07
268.46	55.12
268.676	30.55
268.892	22.36
269.108	22.36
269.324	18.26
269.54	44.88
269.756	20.31
269.972	34.64
270.188	44.88
270.403	51.03
270.619	42.84
270.835	-16.55
271.051	14.17
271.267	22.36
271.483	3.93
271.698	71.51
271.914	55.12
272.13	1.88
272.346	124.76
272.562	-43.18
272.777	-0.17
272.993	30.55
273.209	34.64
273.425	32.6
273.64	44.88
273.856	40.79
274.072	98.13
274.287	-8.36
274.503	77.65
274.719	24.4
274.934	-24.75
275.15	-4.27
275.366	1.88
275.581	51.03
275.797	108.37
276.012	-32.94
276.228	10.07
276.444	3.93
276.659	18.26
276.875	65.36
277.09	8.02
277.306	-4.27
277.521	22.36
277.737	-4.27
277.952	3.93
278.168	51.03
278.383	-2.22
278.599	32.6
278.814	22.36
279.03	-16.55
279.245	46.93
279.461	-37.03
279.676	-10.41
279.892	65.36
280.107	-2.22
280.322	30.55
280.538	83.8
280.753	28.5
280.969	114.52
281.184	57.17
281.399	42.84
281.615	22.36
281.83	1.88
282.045	89.94
282.26	106.32
282.476	-4.27
282.691	30.55
282.906	-49.32
283.122	-53.42
283.337	-18.6
283.552	94.04
283.767	18.26
283.983	20.31
284.198	67.41
284.413	42.84
284.628	22.36
284.843	71.51
285.058	5.97
285.274	16.21
285.489	-4.27
285.704	55.12
285.919	22.36
286.134	28.5
286.349	44.88
286.564	24.4
286.779	137.04
286.995	26.45
287.21	-0.17
287.425	79.7
287.64	5.97
287.855	36.69
288.07	22.36
288.285	38.74
288.5	-4.27
288.715	85.84
288.93	91.99
289.145	59.22
289.36	3.93
289.575	8.02
289.79	36.69
290.004	59.22
290.219	51.03
290.434	-2.22
290.649	94.04
290.864	-8.36
291.079	12.12
291.294	24.4
291.509	18.26
291.724	20.31
291.938	8.02
292.153	-0.17
292.368	96.08
292.583	87.89
292.798	36.69
293.012	85.84
293.227	-28.84
293.442	28.5
293.657	16.21
293.871	-28.84
294.086	24.4
294.301	38.74
294.516	65.36
294.73	44.88
294.945	-32.94
295.16	79.7
295.374	12.12
295.589	40.79
295.804	18.26
296.018	71.51
296.233	71.51
296.447	69.46
296.662	51.03
296.877	34.64
297.091	32.6
297.306	59.22
297.52	22.36
297.735	36.69
297.949	73.56
298.164	-18.6
298.378	-0.17
298.593	24.4
298.807	67.41
299.022	69.46
299.236	26.45
299.451	3.93
299.665	24.4
299.88	77.65
300.094	18.26
300.309	94.04
300.523	5.97
300.737	36.69
300.952	-14.51
301.166	75.6
301.381	-12.46
301.595	-37.03
301.809	61.27
302.024	75.6
302.238	-28.84
302.452	8.02
302.667	12.12
302.881	91.99
303.095	73.56
303.309	75.6
303.524	5.97
303.738	46.93
303.952	-6.31
304.166	8.02
304.381	16.21
304.595	96.08
304.809	77.65
305.023	69.46
305.237	-24.75
305.452	-49.32
305.666	14.17
305.88	38.74
306.094	69.46
306.308	34.64
306.522	-2.22
306.736	-6.31
306.95	63.32
307.164	51.03
307.379	65.36
307.593	38.74
307.807	28.5
308.021	34.64
308.235	67.41
308.449	20.31
308.663	83.8
308.877	38.74
309.091	44.88
309.305	-6.31
309.519	5.97
309.733	73.56
309.947	18.26
310.161	40.79
310.374	-20.65
310.588	75.6
310.802	10.07
311.016	38.74
311.23	28.5
311.444	106.32
311.658	51.03
311.872	73.56
312.085	14.17
312.299	67.41
312.513	-4.27
312.727	36.69
312.941	53.08
313.154	32.6
313.368	20.31
313.582	20.31
313.796	-2.22
314.009	71.51
314.223	10.07
314.437	73.56
314.651	10.07
314.864	34.64
315.078	73.56
315.292	26.45
315.505	55.12
315.719	63.32
315.933	12.12
316.146	-30.89
316.36	46.93
316.573	22.36
316.787	112.47
317.001	57.17
317.214	-20.65
317.428	46.93
317.641	-39.08
317.855	26.45
318.068	36.69
318.282	-4.27
318.495	22.36
318.709	-12.46
318.922	-51.37
319.136	48.98
319.349	51.03
319.563	30.55
319.776	-47.27
319.99	42.84
320.203	67.41
320.417	3.93
320.63	65.36
320.843	75.6
321.057	38.74
321.27	87.89
321.483	10.07
321.697	22.36
321.91	10.07
322.124	22.36
322.337	5.97
322.55	34.64
322.763	38.74
322.977	-14.51
323.19	71.51
323.403	28.5
323.617	24.4
323.83	32.6
324.043	-20.65
324.256	3.93
324.469	18.26
324.683	44.88
324.896	-4.27
325.109	28.5
325.322	59.22
325.535	55.12
325.748	-10.41
325.962	71.51
326.175	-0.17
326.388	38.74
326.601	77.65
326.814	20.31
327.027	59.22
327.24	73.56
327.453	-24.75
327.666	91.99
327.879	26.45
328.092	75.6
328.305	34.64
328.518	-0.17
328.731	-16.55
328.944	-30.89
329.157	3.93
329.37	-73.9
329.583	81.75
329.796	61.27
330.009	-61.61
330.222	48.98
330.435	1.88
330.648	69.46
330.861	61.27
331.073	91.99
331.286	30.55
331.499	79.7
331.712	34.64
331.925	-0.17
332.138	-20.65
332.35	89.94
332.563	53.08
332.776	55.12
332.989	55.12
333.202	75.6
333.414	46.93
333.627	61.27
333.84	46.93
334.053	3.93
334.265	-24.75
334.478	22.36
334.691	36.69
334.903	-39.08
335.116	87.89
335.329	-47.27
335.541	96.08
335.754	10.07
335.966	-39.08
336.179	-0.17
336.392	-18.6
336.604	48.98
336.817	-24.75
337.029	77.65
337.242	44.88
337.454	44.88
337.667	-4.27
337.88	44.88
338.092	36.69
338.305	44.88
338.517	108.37
338.729	42.84
338.942	71.51
339.154	77.65
339.367	59.22
339.579	48.98
339.792	73.56
340.004	8.02
340.217	53.08
340.429	10.07
340.641	55.12
340.854	5.97
341.066	36.69
341.278	48.98
341.491	36.69
341.703	24.4
341.915	48.98
342.128	55.12
342.34	79.7
342.552	-6.31
342.764	-18.6
342.977	-4.27
343.189	44.88
343.401	8.02
343.613	36.69
343.826	48.98
344.038	57.17
344.25	44.88
344.462	5.97
344.674	114.52
344.886	12.12
345.099	42.84
345.311	30.55
345.523	91.99
345.735	57.17
345.947	12.12
346.159	34.64
346.371	34.64
346.583	30.55
346.795	102.23
347.007	28.5
347.219	94.04
347.431	83.8
347.643	18.26
347.855	8.02
348.067	28.5
348.279	32.6
348.491	42.84
348.703	3.93
348.915	38.74
349.127	28.5
349.339	69.46
349.551	-32.94
349.763	102.23
349.975	1.88
350.187	10.07
350.399	67.41
350.61	-34.99
350.822	87.89
351.034	12.12
351.246	-26.79
351.458	28.5
351.669	30.55
351.881	116.56
352.093	42.84
352.305	73.56
352.517	44.88
352.728	51.03
352.94	28.5
353.152	30.55
353.363	-12.46
353.575	34.64
353.787	110.42
353.999	-14.51
354.21	79.7
354.422	44.88
354.633	-2.22
354.845	110.42
355.057	22.36
355.268	-2.22
355.48	30.55
355.692	114.52
355.903	48.98
356.115	22.36
356.326	28.5
356.538	55.12
356.749	42.84
356.961	122.71
357.172	48.98
357.384	71.51
357.595	28.5
357.807	-16.55
358.018	30.55
358.23	51.03
358.441	51.03
358.653	61.27
358.864	83.8
359.075	-6.31
359.287	30.55
359.498	53.08
359.709	24.4
359.921	10.07
360.132	1.88
360.344	44.88
360.555	71.51
360.766	14.17
360.977	87.89
361.189	85.84
361.4	-16.55
361.611	3.93
361.823	100.18
362.034	55.12
362.245	40.79
362.456	22.36
362.667	94.04
362.879	8.02
363.09	-6.31
363.301	5.97
363.512	16.21
363.723	120.66
363.935	12.12
364.146	51.03
364.357	-34.99
364.568	-14.51
364.779	-6.31
364.99	71.51
365.201	40.79
365.412	79.7
365.623	-0.17
365.834	79.7
366.045	75.6
366.256	106.32
366.467	83.8
366.678	26.45
366.889	-63.66
367.1	-2.22
367.311	-28.84
367.522	22.36
367.733	-6.31
367.944	-22.7
368.155	83.8
368.366	67.41
368.577	65.36
368.788	12.12
368.999	36.69
369.209	42.84
369.42	22.36
369.631	55.12
369.842	1.88
370.053	10.07
370.264	-4.27
370.474	65.36
370.685	-12.46
370.896	-10.41
371.107	67.41
371.317	87.89
371.528	16.21
371.739	81.75
371.95	-28.84
372.16	20.31
372.371	-2.22
372.582	36.69
372.792	73.56
373.003	48.98
373.214	42.84
373.424	106.32
373.635	42.84
373.846	61.27
374.056	-6.31
374.267	61.27
374.477	10.07
374.688	104.28
374.898	73.56
375.109	63.32
375.319	32.6
375.53	5.97
375.74	96.08
375.951	73.56
376.161	71.51
376.372	44.88
376.582	36.69
376.793	1.88
377.003	69.46
377.214	53.08
377.424	79.7
377.635	85.84
377.845	8.02
378.055	122.71
378.266	-10.41
378.476	16.21
378.686	26.45
378.897	81.75
379.107	-4.27
379.317	100.18
379.528	65.36
379.738	118.61
379.948	32.6
380.158	69.46
380.369	16.21
380.579	1.88
380.789	10.07
380.999	102.23
381.21	91.99
381.42	85.84
381.63	-14.51
381.84	-12.46
382.05	-39.08
382.261	87.89
382.471	18.26
382.681	38.74
382.891	42.84
383.101	5.97
383.311	-37.03
383.521	46.93
383.731	77.65
383.941	61.27
384.151	67.41
384.361	30.55
384.571	1.88
384.781	91.99
384.991	38.74
385.201	96.08
385.411	94.04
385.621	34.64
385.831	26.45
386.041	10.07
386.251	-6.31
386.461	55.12
386.671	67.41
386.881	26.45
387.091	51.03
387.301	28.5
387.511	-59.56
387.72	71.51
387.93	10.07
388.14	48.98
388.35	-47.27
388.56	40.79
388.769	59.22
388.979	108.37
389.189	59.22
389.399	38.74
389.609	48.98
389.818	87.89
390.028	83.8
390.238	104.28
390.447	116.56
390.657	46.93
390.867	44.88
391.076	46.93
391.286	18.26
391.496	57.17
391.705	24.4
391.915	96.08
392.125	61.27
392.334	98.13
392.544	5.97
392.753	77.65
392.963	61.27
393.172	44.88
393.382	16.21
393.591	51.03
393.801	48.98
394.01	-2.22
394.22	32.6
394.429	18.26
394.639	108.37
394.848	79.7
395.058	48.98
395.267	69.46
395.477	46.93
395.686	89.94
395.895	22.36
396.105	65.36
396.314	73.56
396.524	28.5
396.733	-6.31
396.942	61.27
397.152	26.45
397.361	126.8
397.57	122.71
397.78	67.41
397.989	135
398.198	79.7
398.407	83.8
398.617	61.27
398.826	-20.65
399.035	5.97
399.244	18.26
399.453	30.55
399.663	94.04
399.872	173.91
400.081	124.76
400.29	67.41
400.499	22.36
400.708	98.13
400.917	126.8
401.127	81.75
401.336	112.47
401.545	71.51
401.754	81.75
401.963	151.38
402.172	22.36
402.381	112.47
402.59	116.56
402.799	128.85
403.008	108.37
403.217	106.32
403.426	36.69
403.635	130.9
403.844	69.46
404.053	116.56
404.262	79.7
404.471	151.38
404.68	71.51
404.888	106.32
405.097	110.42
405.306	106.32
405.515	108.37
405.724	28.5
405.933	112.47
406.142	98.13
406.35	96.08
406.559	169.81
406.768	155.47
406.977	135
407.185	112.47
407.394	116.56
407.603	194.39
407.812	190.29
408.02	178
408.229	180.05
408.438	141.14
408.646	87.89
408.855	180.05
409.064	194.39
409.272	196.43
409.481	212.82
409.69	161.62
409.898	161.62
410.107	235.35
410.315	249.68
410.524	157.52
410.733	202.58
410.941	218.96
411.15	249.68
411.358	247.63
411.567	229.2
411.775	278.35
411.984	251.73
412.192	311.12
412.401	300.88
412.609	317.26
412.818	282.45
413.026	286.54
413.234	300.88
413.443	298.83
413.651	300.88
413.86	339.79
414.068	382.8
414.276	261.97
414.485	477.01
414.693	374.61
414.901	513.87
415.11	393.04
415.318	501.58
415.526	370.51
415.734	499.53
415.943	417.61
416.151	442.19
416.359	538.45
416.567	540.49
416.776	495.44
416.984	620.36
417.192	593.74
417.4	634.7
417.608	593.74
417.817	671.56
418.025	649.04
418.233	778.06
418.441	687.95
418.649	671.56
418.857	814.92
419.065	843.59
419.273	667.47
419.481	851.78
419.689	857.93
419.897	866.12
420.105	997.19
420.313	964.42
420.521	923.46
420.729	1034.05
420.937	1062.73
421.145	1058.63
421.353	1095.49
421.561	1232.71
421.769	1144.64
421.977	1224.51
422.185	1242.95
422.393	1361.73
422.601	1343.3
422.809	1400.64
423.017	1464.13
423.224	1529.66
423.432	1492.8
423.64	1460.03
423.848	1732.41
424.056	1611.58
424.263	1685.31
424.471	1648.44
424.679	1783.61
424.887	1900.34
425.094	1988.41
425.302	1986.36
425.51	2078.52
425.718	2133.81
425.925	2127.67
426.133	2234.16
426.341	2279.22
426.548	2373.43
426.756	2363.19
426.964	2381.62
427.171	2535.21
427.379	2680.62
427.586	2731.82
427.794	2746.16
428.001	2879.27
428.209	3010.34
428.417	2953
428.624	3092.26
428.832	3143.46
429.039	3276.58
429.247	3262.24
429.454	3479.33
429.662	3559.2
429.869	3411.75
430.076	3684.13
430.284	3604.25
430.491	3710.75
430.699	4024.09
430.906	3987.22
431.114	3841.82
431.321	4157.21
431.528	4271.89
431.736	4622.09
431.943	4708.11
432.15	4632.33
432.358	4683.53
432.565	4935.43
432.772	4939.53
432.979	5056.26
433.187	5238.53
433.394	5248.77
433.601	5682.94
433.808	5668.61
434.016	5703.42
434.223	6086.39
434.43	6323.96
434.637	6096.63
434.844	6500.08
435.052	6629.1
435.259	6491.89
435.466	6680.3
435.673	6522.61
435.88	6936.3
436.087	7452.39
436.294	7272.17
436.501	7237.35
436.708	7407.33
436.915	7683.81
437.122	8099.55
437.329	7884.51
437.537	8208.09
437.743	8275.67
437.95	8304.34
438.157	8873.68
438.364	9014.99
438.571	9055.95
438.778	9086.67
438.985	9731.78
439.192	9479.88
439.399	9922.24
439.606	9557.7
439.813	10098.36
440.02	10925.74
440.227	10522.29
440.433	10280.63
440.64	10671.79
440.847	10677.94
441.054	11136.68
441.261	11673.25
441.467	11673.25
441.674	11824.8
441.881	12250.78
442.088	12252.83
442.294	12148.38
442.501	12484.25
442.708	12633.75
442.914	13219.47
443.121	13590.15
443.328	13409.93
443.534	14466.68
443.741	13760.13
443.948	13622.92
444.154	14485.11
444.361	14724.72
444.568	14671.48
444.774	14861.94
444.981	14808.69
445.187	15339.12
445.394	16062.05
445.6	15883.87
445.807	17245.77
446.013	16770.65
446.22	16696.92
446.426	17473.1
446.633	17505.87
446.839	18189.89
447.046	17614.41
447.252	18535.99
447.459	18419.26
447.665	18472.51
447.871	19410.48
448.078	19981.86
448.284	19127.86
448.491	19922.47
448.697	20663.83
448.903	21028.37
449.11	21081.62
449.316	20665.88
449.522	21165.59
449.728	21618.19
449.935	21593.61
450.141	21927.43
450.347	22107.65
450.553	21317.14
450.76	21648.91
450.966	22590.97
451.172	22302.21
451.378	22879.74
451.584	22283.78
451.791	22926.84
451.997	22818.3
452.203	23303.67
452.409	23363.06
452.615	23447.02
452.821	22535.68
453.027	22156.8
453.233	23545.33
453.44	22758.91
453.646	22910.46
453.852	22920.7
454.058	22961.65
454.264	22566.4
454.47	23076.34
454.676	22349.31
454.882	23207.41
455.088	21184.02
455.294	21409.29
455.5	21716.49
455.705	21759.5
455.911	21179.92
456.117	20803.1
456.323	20803.1
456.529	19467.82
456.735	20235.81
456.941	19938.85
457.147	19439.15
457.352	18923.06
457.558	18685.5
457.764	18712.12
457.97	18556.47
458.176	18044.48
458.381	18060.87
458.587	17274.45
458.793	17258.06
458.999	16303.71
459.204	17479.24
459.41	16930.39
459.616	15867.49
459.821	15818.34
460.027	15838.82
460.233	15662.69
460.438	14737.01
460.644	15117.93
460.85	14188.16
461.055	14106.24
461.261	14149.25
461.466	13139.6
461.672	12680.85
461.878	13647.49
462.083	12668.56
462.289	12453.53
462.494	12297.88
462.7	11849.38
462.905	11529.89
463.111	11884.19
463.316	11853.47
463.522	11611.81
463.727	11648.68
463.932	11691.68
464.138	11720.35
464.343	11898.53
464.549	11294.38
464.754	11654.82
464.959	11441.83
465.165	11787.94
465.37	10915.5
465.575	10890.93
465.781	11282.09
465.986	11452.07
466.191	10925.74
466.397	10710.71
466.602	10151.61
466.807	10575.54
467.012	10446.52
467.218	10368.7
467.423	10493.62
467.628	10462.9
467.833	10895.02
468.038	10426.04
468.244	10161.85
468.449	10555.06
468.654	10274.49
468.859	10282.68
469.064	10415.8
469.269	9727.68
469.474	9778.88
469.679	10047.16
469.885	9815.74
470.09	9932.48
470.295	9744.06
470.5	9463.49
470.705	9524.93
470.91	9279.18
471.115	9322.18
471.32	9531.08
471.525	9340.61
471.73	9021.13
471.935	9270.98
472.139	8640.21
472.344	8957.64
472.549	8961.74
472.754	8677.07
472.959	8658.64
473.164	8361.69
473.369	8353.49
473.574	8683.22
473.778	8564.43
473.983	8580.82
474.188	8271.58
474.393	7986.91
474.598	8011.48
474.802	7831.26
475.007	7870.17
475.212	7794.4
475.417	7382.76
475.621	7575.27
475.826	7790.3
476.031	7411.43
476.235	7304.93
476.44	7501.54
476.645	7319.27
476.849	7327.46
477.054	7177.96
477.259	7161.58
477.463	7126.76
477.668	6827.76
477.872	6979.31
478.077	6784.75
478.282	6756.08
478.486	6649.58
478.691	6444.79
478.895	6625.01
479.1	6692.59
479.304	6641.39
479.509	6508.27
479.713	6377.2
479.918	6209.27
480.122	6321.91
480.326	6350.58
480.531	6219.51
480.735	6133.5
480.94	6258.42
481.144	6420.21
481.348	6219.51
481.553	6283
481.757	6057.72
481.961	6192.89
482.166	6403.83
482.37	6106.87
482.574	5986.04
482.778	6119.16
482.983	6311.67
483.187	5959.42
483.391	6033.15
483.595	6049.53
483.8	5990.14
484.004	6055.67
484.208	6158.07
484.412	6117.11
484.616	6207.22
484.821	5979.9
485.025	6184.69
485.229	6209.27
485.433	6108.92
485.637	6153.98
485.841	6172.41
486.045	6072.06
486.249	6276.85
486.453	6270.71
486.657	6131.45
486.861	6086.39
487.065	6033.15
487.269	6141.69
487.473	6180.6
487.677	6317.81
487.881	6178.55
488.085	6235.89
488.289	6119.16
488.493	6330.1
488.697	6373.11
488.901	6248.18
489.105	6192.89
489.309	6381.3
489.512	6211.32
489.716	6403.83
489.92	6356.72
490.124	6352.63
490.328	6582
490.531	6450.93
490.735	6432.5
490.939	6547.19
491.143	6672.11
491.346	6518.51
491.55	6674.16
491.754	6625.01
491.958	6735.6
492.161	6590.19
492.365	6805.23
492.569	6774.51
492.772	6846.19
492.976	6897.39
493.18	6987.5
493.383	7040.75
493.587	7110.38
493.79	7110.38
493.994	7063.27
494.197	7093.99
494.401	7286.5
494.605	7276.26
494.808	7300.84
495.012	7468.77
495.215	7562.98
495.419	7454.44
495.622	7767.77
495.825	7849.69
496.029	7722.72
496.232	7804.64
496.436	7945.95
496.639	8177.37
496.843	8044.25
497.046	8267.48
497.249	8359.64
497.453	8558.29
497.656	8529.62
497.859	8730.32
498.063	8605.39
498.266	8881.87
498.469	8974.03
498.673	8912.59
498.876	9096.91
499.079	9252.55
499.282	9266.89
499.485	9567.94
499.689	9531.08
499.892	9735.87
500.095	9772.74
500.298	10135.23
500.501	9836.22
500.705	10180.28
500.908	10254.01
501.111	10401.46
501.314	10387.13
501.517	10610.36
501.72	10925.74
501.923	10811.06
502.126	11210.41
502.329	11333.29
502.532	11400.87
502.735	11470.5
502.938	11779.75
503.141	11810.47
503.344	12349.08
503.547	12107.42
503.75	12340.89
503.953	12504.73
504.156	12672.66
504.359	12801.68
504.562	12844.69
504.765	13065.87
504.968	13368.97
505.17	13645.45
505.373	13579.91
505.576	13659.78
505.779	14061.18
505.982	14204.54
506.185	14403.19
506.387	14417.53
506.59	14448.25
506.793	14790.26
506.996	14927.47
507.198	15455.85
507.401	15240.81
507.604	15627.88
507.807	15890.02
508.009	15988.32
508.212	16385.63
508.415	16571.99
508.617	16694.87
508.82	16682.58
509.022	16553.56
509.225	17233.49
509.428	17374.8
509.63	17530.44
509.833	17575.5
510.035	18128.45
510.238	17802.82
510.44	18353.73
510.643	18583.1
510.845	18718.26
511.048	18607.67
511.25	19181.1
511.453	19263.02
511.655	19965.48
511.858	19830.31
512.06	20002.34
512.262	20192.8
512.465	20268.58
512.667	20559.39
512.87	20823.58
513.072	20946.45
513.274	21448.21
513.477	21620.24
513.679	21653
513.881	21929.48
514.084	22138.37
514.286	22363.65
514.488	22566.4
514.69	23395.82
514.893	23150.07
515.095	23645.68
515.297	23676.4
515.499	23887.34
515.701	24071.65
515.904	24430.05
516.106	24624.61
516.308	24862.17
516.51	25163.22
516.712	25066.97
516.914	25828.81
517.116	26140.1
517.318	26039.75
517.52	26426.82
517.722	26236.36
517.925	26940.86
518.127	27045.3
518.329	27129.27
518.531	27069.88
518.733	27788.72
518.935	27897.26
519.136	27938.22
519.338	28239.27
519.54	28339.62
519.742	28814.75
519.944	28988.83
520.146	29638.03
520.348	29922.7
520.55	29599.12
520.752	29957.52
520.954	30438.79
521.155	30102.92
521.357	30862.72
521.559	30647.68
521.761	31802.74
521.963	31305.08
522.164	31575.41
522.366	31956.33
522.568	32050.54
522.77	32626.02
522.971	32707.94
523.173	32376.17
523.375	33262.94
523.576	32742.75
523.778	33279.32
523.98	33447.25
524.181	33482.07
524.383	33860.94
524.584	34121.04
524.786	34258.25
524.988	34233.67
525.189	34561.35
525.391	34585.93
525.592	35255.61
525.794	35181.88
525.995	35306.81
526.197	35122.49
526.398	35853.62
526.6	35878.19
526.801	35888.43
527.003	35865.91
527.204	35804.47
527.406	36724
527.607	36668.71
527.808	36525.35
528.01	36115.76
528.211	36617.51
528.412	37571.86
528.614	37045.54
528.815	37295.39
529.016	37639.45
529.218	37004.58
529.419	37678.36
529.62	37643.54
529.822	37510.42
530.023	37420.31
530.224	37545.24
530.425	37852.44
530.626	37647.64
530.828	37461.27
531.029	38724.87
531.23	38030.61
531.431	38595.85
531.632	38360.33
531.833	38866.18
532.035	38456.59
532.236	38040.85
532.437	38421.77
532.638	38507.79
532.839	38440.2
533.04	38679.82
533.241	38210.83
533.442	39296.25
533.643	38982.91
533.844	39015.68
534.045	38915.33
534.246	38632.71
534.447	39097.6
534.648	39032.07
534.849	39007.49
535.05	39105.79
535.251	39116.03
535.451	39048.45
535.652	39537.91
535.853	38915.33
536.054	39630.07
536.255	39306.49
536.456	38962.43
536.657	39996.66
536.857	39236.86
537.058	39464.19
537.259	39757.05
537.46	39857.4
537.66	39310.59
537.861	39709.94
538.062	40058.1
538.263	40004.85
538.463	39621.88
538.664	39546.11
538.865	40004.85
539.065	39836.92
539.266	39664.89
539.466	40146.16
539.667	39435.52
539.868	40314.09
540.068	39628.02
540.269	39824.63
540.469	39943.41
540.67	39675.13
540.87	39505.15
541.071	39761.14
541.271	40215.79
541.472	39793.91
541.672	39929.08
541.873	40119.54
542.073	39423.23
542.274	39994.61
542.474	39759.09
542.675	39943.41
542.875	40080.63
543.075	40322.29
543.276	39521.53
543.476	40410.35
543.676	39748.85
543.877	40133.87
544.077	40295.66
544.277	40054
544.478	39765.24
544.678	40404.2
544.878	39972.08
545.078	40271.09
545.279	40068.34
545.479	39697.66
545.679	40109.3
545.879	40482.03
546.079	40357.1
546.28	40076.53
546.48	39634.17
546.68	40240.37
546.88	40285.42
547.08	40625.39
547.28	40041.71
547.48	39482.62
547.68	40105.2
547.88	39910.64
548.081	40334.57
548.281	40389.87
548.481	39849.21
548.681	40445.16
548.881	40439.02
549.081	40246.51
549.28	39771.38
549.48	39963.89
549.68	39732.47
549.88	40418.54
550.08	40230.13
550.28	40318.19
550.48	40097.01
550.68	40652.01
550.88	39957.75
551.08	40260.85
551.279	39990.52
551.479	39771.38
551.679	40314.09
551.879	40174.83
552.079	40398.06
552.278	40230.13
552.478	40293.61
552.678	40121.59
552.878	40060.15
553.077	40023.28
553.277	39597.31
553.477	40244.46
553.676	40148.21
553.876	40246.51
554.076	39726.33
554.275	39759.09
554.475	39603.45
554.674	40195.31
554.874	40414.44
555.074	39945.46
555.273	40211.7
555.473	40246.51
555.672	39673.08
555.872	39730.42
556.071	39787.77
556.271	40336.62
556.47	39841.01
556.67	39728.38
556.869	39785.72
557.068	39951.6
557.268	39601.4
557.467	39587.07
557.667	39464.19
557.866	39703.8
558.065	39984.37
558.265	39496.95
558.464	39650.55
558.663	40217.84
558.863	39073.03
559.062	40258.8
559.261	39298.3
559.461	39838.97
559.66	39329.02
559.859	39576.83
560.058	39484.67
560.258	39550.2
560.457	39277.82
560.656	39734.52
560.855	39628.02
561.054	40006.9
561.253	38968.58
561.453	39068.93
561.652	39431.42
561.851	39519.48
562.05	39474.43
562.249	39294.21
562.448	39711.99
562.647	39437.56
562.846	39075.07
563.045	39478.52
563.244	39091.46
563.443	39904.5
563.642	38819.08
563.841	38851.84
564.04	39279.87
564.239	39611.64
564.438	38810.89
564.637	39462.14
564.836	39634.17
565.035	38931.72
565.234	39537.91
565.432	38839.56
565.631	38724.87
565.83	39191.81
566.029	39021.83
566.228	38898.95
566.427	39144.7
566.625	38896.9
566.824	38421.77
567.023	38989.06
567.222	38241.55
567.42	39318.78
567.619	39191.81
567.818	38673.67
568.016	38542.6
568.215	38933.76
568.414	38853.89
568.612	38870.28
568.811	38737.16
569.01	38640.9
569.208	38221.07
569.407	39060.74
569.605	38448.39
569.804	38728.97
570.002	38202.64
570.201	38657.29
570.4	38255.89
570.598	38051.09
570.797	38255.89
570.995	38135.06
571.193	38051.09
571.392	38120.72
571.59	38325.52
571.789	37815.57
571.987	37795.09
572.186	38221.07
572.384	37807.38
572.582	37965.07
572.781	37903.63
572.979	37461.27
573.177	37762.33
573.376	37569.82
573.574	37393.69
573.772	37985.55
573.971	37578.01
574.169	37500.19
574.367	37092.64
574.565	37311.77
574.763	37039.39
574.962	37100.83
575.16	36883.75
575.358	37408.03
575.556	36754.72
575.754	37453.08
575.952	36777.25
576.151	36799.78
576.349	36549.93
576.547	36662.57
576.745	36347.18
576.943	36629.8
577.141	36678.95
577.339	36480.3
577.537	36166.96
577.735	36343.08
577.933	35958.06
578.131	36449.58
578.329	36007.22
578.527	35990.83
578.725	35999.02
578.923	36115.76
579.121	35642.68
579.319	35745.08
579.516	35900.72
579.714	35673.4
579.912	35589.43
580.11	35652.92
580.308	35683.64
580.506	35550.52
580.704	34835.78
580.901	35216.7
581.099	35394.87
581.297	34571.59
581.495	34882.88
581.692	35147.07
581.89	35079.49
582.088	34893.12
582.285	34604.36
582.483	34665.8
582.681	35052.86
582.878	34669.89
583.076	34450.76
583.274	34602.31
583.471	34030.93
583.669	34342.22
583.866	34004.3
584.064	34286.92
584.262	33897.81
584.459	34667.84
584.657	33670.48
584.854	34282.83
585.052	33510.74
585.249	33830.23
585.447	33668.44
585.644	33703.25
585.841	33486.17
586.039	33707.35
586.236	33076.57
586.434	33256.79
586.631	33434.97
586.828	33045.85
587.026	33334.62
587.223	32826.72
587.42	33178.97
587.618	33101.15
587.815	32486.76
588.012	32085.36
588.21	32691.55
588.407	32644.45
588.604	32468.33
588.801	32318.82
588.999	32181.61
589.196	32355.69
589.393	32546.15
589.59	31956.33
589.787	31985.01
589.984	31737.2
590.182	31688.05
590.379	31827.31
590.576	31505.78
590.773	31552.88
590.97	31014.27
591.167	31823.22
591.364	30952.83
591.561	31370.61
591.758	30911.87
591.955	30967.16
592.152	30958.97
592.349	30807.42
592.546	30829.95
592.743	30891.39
592.94	30414.21
593.137	30483.84
593.334	30754.18
593.531	29939.08
593.727	30221.7
593.924	30150.03
594.121	30129.55
594.318	30381.45
594.515	30033.29
594.712	30113.16
594.908	29719.95
595.105	30064.01
595.302	29752.72
595.499	29728.14
595.696	29275.54
595.892	29509.01
596.089	29627.79
596.286	29511.06
596.482	29336.98
596.679	29459.86
596.876	29101.47
597.072	29134.23
597.269	29085.08
597.466	28878.24
597.662	28417.44
597.859	28812.7
598.055	28968.35
598.252	28519.84
598.448	28632.48
598.645	28362.15
598.841	28659.1
599.038	28433.83
599.234	28081.58
599.431	27837.87
599.627	28081.58
599.824	27868.59
600.02	27942.31
600.217	27807.15
600.413	27956.65
600.609	27458.99
600.806	27397.56
601.002	27819.44
601.198	27592.11
601.395	27116.98
601.591	27278.77
601.787	27454.9
601.984	27061.69
602.18	27309.49
602.376	26854.84
602.572	26611.14
602.769	27076.02
602.965	26744.25
603.161	26596.8
603.357	26271.17
603.553	26471.87
603.75	26529.22
603.946	26389.95
604.142	26310.08
604.338	25695.69
604.534	26250.69
604.73	25472.46
604.926	25935.31
605.122	25890.25
605.318	25710.03
605.514	25695.69
605.71	25750.99
605.906	25697.74
606.102	25689.55
606.298	25546.19
606.494	25363.92
606.69	25269.72
606.886	25603.53
607.082	25294.29
607.278	25230.8
607.474	24825.31
607.67	25130.45
607.866	24720.86
608.062	25282
608.257	24727
608.453	24673.76
608.649	25054.68
608.845	24565.21
609.041	24593.89
609.236	24534.49
609.432	24776.16
609.628	24618.46
609.824	24507.87
610.019	24561.12
610.215	24454.62
610.411	24231.4
610.606	24219.11
610.802	24337.89
610.998	24485.34
611.193	24352.23
611.389	24235.49
611.584	23995.88
611.78	23825.9
611.976	24178.15
612.171	23748.07
612.367	24020.45
612.562	23569.9
612.758	23457.26
612.953	23647.72
613.149	23887.34
613.344	23637.48
613.539	23735.79
613.735	23348.72
613.93	23530.99
614.126	23430.64
614.321	23254.51
614.517	23555.57
614.712	23166.45
614.907	23137.78
615.103	23295.47
615.298	23266.8
615.493	23186.93
615.688	22859.26
615.884	23426.54
616.079	22533.63
616.274	23188.98
616.47	23090.68
616.665	22736.38
616.86	22447.61
617.055	22742.52
617.25	22398.46
617.445	22892.02
617.641	22320.64
617.836	22529.53
618.031	22302.21
618.226	22191.62
618.421	22089.22
618.616	22441.47
618.811	21949.96
619.006	22392.32
619.201	21913.09
619.396	21992.97
619.591	21681.67
619.786	21773.83
619.981	21538.32
620.176	21655.05
620.371	21374.48
620.566	21499.41
620.761	21222.93
620.956	21325.33
621.151	20803.1
621.346	21192.21
621.541	21057.04
621.735	20721.18
621.93	20686.36
622.125	20956.69
622.32	20266.53
622.515	20669.98
622.709	20389.41
622.904	20467.23
623.099	20192.8
623.294	20010.53
623.488	19682.86
623.683	19828.26
623.878	19455.53
624.072	19576.36
624.267	19557.93
624.462	19539.5
624.656	19314.22
624.851	19199.54
625.046	19050.03
625.24	18892.34
625.435	18955.83
625.629	19103.28
625.824	18683.45
626.018	18583.1
626.213	18368.06
626.407	18447.93
626.602	18171.46
626.796	18435.64
626.991	18353.73
627.185	18112.06
627.38	17903.17
627.574	17632.84
627.768	17626.7
627.963	17479.24
628.157	17471.05
628.352	17593.93
628.546	17354.32
628.74	17462.86
628.935	17235.53
629.129	17008.21
629.323	16789.08
629.517	17047.12
629.712	16684.63
629.906	16768.6
630.1	16682.58
630.294	16582.23
630.489	16516.7
630.683	16606.81
630.877	16232.03
631.071	16248.41
631.265	16391.77
631.459	16039.52
631.653	16262.75
631.848	15947.36
632.042	15810.15
632.236	15896.16
632.43	15947.36
632.624	15660.65
632.818	15617.64
633.012	15314.54
633.206	15292.01
633.4	15300.2
633.594	14929.52
633.788	15261.29
633.982	14986.86
634.176	15130.22
634.369	15085.17
634.563	15208.05
634.757	14755.44
634.951	14714.48
635.145	14708.34
635.339	14628.47
635.533	14667.38
635.726	14540.41
635.92	14311.03
636.114	14386.81
636.308	14247.55
636.501	14288.51
636.695	14300.8
636.889	14130.81
637.083	14018.18
637.276	13948.54
637.47	13792.9
637.664	13856.39
637.857	13895.3
638.051	13565.57
638.244	13325.96
638.438	13454.98
638.632	13430.41
638.825	13340.3
639.019	13303.43
639.212	13000.33
639.406	13090.45
639.599	12994.19
639.793	12932.75
639.986	12736.15
640.18	12922.51
640.373	12902.03
640.567	12695.19
640.76	12658.32
640.954	12648.08
641.147	12351.13
641.34	12517.01
641.534	12349.08
641.727	12230.3
641.92	12351.13
642.114	12177.05
642.307	11970.21
642.5	12033.69
642.694	11867.81
642.887	11773.6
643.08	12054.17
643.273	11859.62
643.467	11804.32
643.66	11495.08
643.853	11626.15
644.046	11333.29
644.239	11724.45
644.432	11314.86
644.626	11302.57
644.819	11181.74
645.012	11372.2
645.205	11175.59
645.398	11075.24
645.591	10876.59
645.784	11034.28
645.977	10823.34
646.17	10895.02
646.363	10579.64
646.556	10544.82
646.749	10571.44
646.942	10589.88
647.135	10374.84
647.328	10473.14
647.521	10270.39
647.714	10182.33
647.907	10180.28
648.099	10290.87
648.292	10118.84
648.485	10045.12
648.678	10092.22
648.871	9979.58
649.064	10022.59
649.256	9889.47
649.449	9799.36
649.642	9578.18
649.835	9707.2
650.027	9719.49
650.22	9488.07
650.413	9559.75
650.605	9440.97
650.798	9311.94
650.991	9334.47
651.183	9252.55
651.376	8845.01
651.568	9352.9
651.761	9273.03
651.954	9070.28
652.146	8867.53
652.339	8943.31
652.531	9041.61
652.724	8859.34
652.916	8873.68
653.109	8738.51
653.301	8605.39
653.494	8746.7
653.686	8470.23
653.879	8720.08
654.071	8324.82
654.263	8457.94
654.456	8580.82
654.648	8330.97
654.84	8181.46
655.033	8124.12
655.225	8308.44
655.417	8191.7
655.61	8335.06
655.802	8007.39
655.994	8007.39
656.186	8179.42
656.379	7870.17
656.571	7894.75
656.763	7868.13
656.955	7722.72
657.148	7831.26
657.34	7622.37
657.532	7638.75
657.724	7644.9
657.916	7655.14
658.108	7446.24
658.3	7605.99
658.492	7302.89
658.684	7407.33
658.876	7280.36
659.068	7044.84
659.26	7272.17
659.452	7294.69
659.644	7048.94
659.836	7010.03
660.028	7114.47
660.22	6919.92
660.412	7057.13
660.604	6883.05
660.796	6930.16
660.988	6924.01
661.18	6739.69
661.372	6661.87
661.563	6790.89
661.755	6594.29
661.947	6563.57
662.139	6418.16
662.331	6547.19
662.522	6395.64
662.714	6215.41
662.906	6268.66
663.097	6276.85
663.289	6178.55
663.481	6221.56
663.673	6192.89
663.864	6151.93
664.056	6006.52
664.247	5920.51
664.439	5771.01
664.631	6006.52
664.822	5900.03
665.014	5889.79
665.205	5623.55
665.397	5701.37
665.588	5861.12
665.78	5711.61
665.971	5607.17
666.163	5707.52
666.354	5754.62
666.546	5613.31
666.737	5422.85
666.929	5422.85
667.12	5457.67
667.311	5443.33
667.503	5211.91
667.694	5392.13
667.885	5209.86
668.077	5310.21
668.268	5478.15
668.459	5035.78
668.651	5193.48
668.842	5105.42
669.033	5158.66
669.224	5086.98
669.416	5078.79
669.607	4878.09
669.798	5005.06
669.989	4941.58
670.18	4900.62
670.371	4927.24
670.563	4822.8
670.754	4663.05
670.945	4804.36
671.136	4855.56
671.327	4654.86
671.518	4794.12
671.709	4767.5
671.9	4577.04
672.091	4648.72
672.282	4484.88
672.473	4560.66
672.664	4431.63
672.855	4511.5
673.046	4349.71
673.237	4507.41
673.428	4478.74
673.619	4435.73
673.809	4402.96
674	4271.89
674.191	4302.61
674.382	4136.73
674.573	4312.85
674.764	4308.76
674.954	4259.6
675.145	4146.97
675.336	4202.26
675.527	4155.16
675.717	4030.23
675.908	4063
676.099	4120.34
676.289	4042.52
676.48	4067.1
676.671	3970.84
676.861	4165.4
677.052	3915.55
677.243	3876.63
677.433	4022.04
677.624	3972.89
677.814	3929.88
678.005	3825.43
678.195	3880.73
678.386	3841.82
678.576	3974.94
678.767	3831.58
678.957	3839.77
679.148	3755.8
679.338	3837.72
679.529	3788.57
679.719	3725.08
679.909	3735.32
680.1	3655.45
680.29	3745.56
680.481	3544.86
680.671	3747.61
680.861	3637.02
681.052	3630.88
681.242	3710.75
681.432	3649.31
681.622	3561.25
681.813	3565.34
682.003	3663.65
682.193	3641.12
682.383	3512.1
682.573	3456.8
682.764	3557.15
682.954	3610.4
683.144	3583.77
683.334	3495.71
683.524	3438.37
683.714	3442.46
683.904	3444.51
684.094	3444.51
684.284	3481.38
684.474	3477.28
684.664	3426.08
684.854	3335.97
685.044	3434.27
685.234	3417.89
685.424	3356.45
685.614	3356.45
685.804	3430.18
685.994	3299.11
686.184	3430.18
686.374	3284.77
686.564	3338.02
686.753	3288.87
686.943	3313.44
687.133	3284.77
687.323	3331.87
687.513	3288.87
687.702	3292.96
687.892	3215.14
688.082	3335.97
688.272	3280.68
688.461	3184.42
688.651	3229.48
688.841	3225.38
689.03	3211.04
689.22	3268.39
689.41	3174.18
689.599	3161.89
689.789	3301.15
689.979	3254.05
690.168	3241.76
690.358	3147.56
690.547	3206.95
690.737	3215.14
690.926	3172.13
691.116	3118.89
691.305	3159.85
691.495	3131.17
691.684	3206.95
691.874	3176.23
692.063	3131.17
692.252	3143.46
692.442	3151.65
692.631	3100.45
692.82	3159.85
693.01	2993.96
693.199	2985.77
693.388	3178.28
693.578	3125.03
693.767	3036.97
693.956	3034.92
694.146	3114.79
694.335	2996.01
694.524	3020.58
694.713	2932.52
694.902	2963.24
695.092	2971.43
695.281	3028.78
695.47	2936.62
695.659	2897.71
695.848	2875.18
696.037	3006.25
696.226	2989.86
696.415	2977.58
696.604	2914.09
696.793	2975.53
696.982	2891.56
697.171	2813.74
697.36	2813.74
697.549	2862.89
697.738	2731.82
697.927	2783.02
698.116	2785.07
698.305	2797.35
698.494	2873.13
698.683	2772.78
698.872	2740.01
699.061	2780.97
699.25	2654
699.438	2707.24
699.627	2672.43
699.816	2717.48
700.005	2737.96
700.193	2610.99
700.382	2666.28
700.571	2770.73
700.76	2692.91
700.948	2715.44
701.137	2633.52
701.326	2531.12
701.514	2596.65
701.703	2715.44
701.892	2506.54
702.08	2688.81
702.269	2619.18
702.457	2471.73
702.646	2473.78
702.834	2520.88
703.023	2469.68
703.212	2529.07
703.4	2469.68
703.589	2385.71
703.777	2445.1
703.965	2318.13
704.154	2391.86
704.342	2418.48
704.531	2346.8
704.719	2359.09
704.907	2395.95
705.096	2332.47
705.284	2393.9
705.472	2354.99
705.661	2350.9
705.849	2187.06
706.037	2334.51
706.226	2246.45
706.414	2182.96
706.602	2187.06
706.79	2344.75
706.979	2182.96
707.167	2086.71
707.355	2203.44
707.543	2219.83
707.731	2119.48
707.919	2213.68
708.107	2076.47
708.296	2148.15
708.484	2197.3
708.672	2092.85
708.86	2213.68
709.048	2174.77
709.236	2105.14
709.424	2109.24
709.612	2119.48
709.8	2041.65
709.988	2004.79
710.176	2076.47
710.364	1972.02
710.551	1974.07
710.739	2072.37
710.927	2049.85
711.115	2004.79
711.303	1906.49
711.491	1951.54
711.679	1926.97
711.866	1965.88
712.054	1881.91
712.242	1988.41
712.43	1881.91
712.617	2035.51
712.805	1865.53
712.993	1857.34
713.181	1869.62
713.368	1906.49
713.556	1857.34
713.744	1883.96
713.931	1881.91
714.119	1765.18
714.306	1851.19
714.494	1781.56
714.682	1799.99
714.869	1738.55
715.057	1738.55
715.244	1705.79
715.432	1705.79
715.619	1689.4
715.807	1652.54
715.994	1691.45
716.182	1716.03
716.369	1720.12
716.556	1744.7
716.744	1650.49
716.931	1640.25
717.119	1644.35
717.306	1701.69
717.493	1556.29
717.681	1654.59
717.868	1718.08
718.055	1593.15
718.242	1582.91
718.43	1654.59
718.617	1648.44
718.804	1584.96
718.991	1693.5
719.179	1578.81
719.366	1505.09
719.553	1572.67
719.74	1505.09
719.927	1521.47
720.114	1449.79
720.301	1464.13
720.488	1429.31
720.676	1470.27
720.863	1460.03
721.05	1460.03
721.237	1347.39
721.424	1466.17
721.611	1539.9
721.798	1478.46
721.985	1365.82
722.172	1390.4
722.358	1402.69
722.545	1386.3
722.732	1294.15
722.919	1359.68
723.106	1324.87
723.293	1308.48
723.48	1404.74
723.667	1376.06
723.853	1359.68
724.04	1316.67
724.227	1298.24
724.414	1191.75
724.6	1240.9
724.787	1283.91
724.974	1306.43
725.161	1251.14
725.347	1232.71
725.534	1269.57
725.72	1257.28
725.907	1228.61
726.094	1285.95
726.28	1197.89
726.467	1255.23
726.653	1308.48
726.84	1210.18
727.027	1240.9
727.213	1146.69
727.4	1228.61
727.586	1091.4
727.773	1193.8
727.959	1158.98
728.145	1173.32
728.332	1044.29
728.518	1146.69
728.705	1173.32
728.891	1038.15
729.077	1107.78
729.264	1167.17
729.45	1154.88
729.636	1122.12
729.823	1154.88
730.009	1025.86
730.195	1122.12
730.382	1115.97
730.568	1009.48
730.754	1075.01
730.94	1097.54
731.126	1095.49
731.313	1126.21
731.499	1087.3
731.685	1070.92
731.871	1007.43
732.057	1075.01
732.243	1032.01
732.429	1017.67
732.615	982.85
732.801	982.85
732.987	1077.06
733.173	1034.05
733.359	1021.77
733.545	1034.05
733.731	962.37
733.917	1070.92
734.103	970.57
734.289	1029.96
734.475	937.8
734.661	866.12
734.847	980.81
735.033	960.33
735.219	884.55
735.404	917.32
735.59	884.55
735.776	927.56
735.962	954.18
736.148	950.09
736.333	980.81
736.519	989
736.705	792.39
736.89	833.35
737.076	831.3
737.262	888.65
737.447	937.8
737.633	927.56
737.819	888.65
738.004	825.16
738.19	849.74
738.375	819.02
738.561	829.26
738.747	835.4
738.932	767.82
739.118	898.89
739.303	886.6
739.489	868.17
739.674	761.67
739.859	862.02
740.045	829.26
740.23	839.5
740.416	726.86
740.601	870.22
740.786	759.63
740.972	771.91
741.157	692.04
741.342	661.32
741.528	804.68
741.713	788.3
741.898	753.48
742.084	644.94
742.269	802.63
742.454	776.01
742.639	728.91
742.824	698.19
743.01	700.23
743.195	679.75
743.38	802.63
743.565	712.52
743.75	694.09
743.935	776.01
744.12	759.63
744.305	626.51
744.49	730.95
744.675	687.95
744.86	737.1
745.045	694.09
745.23	751.43
745.415	649.04
745.6	714.57
745.785	728.91
745.97	687.95
746.155	655.18
746.34	714.57
746.525	655.18
746.71	616.27
746.895	673.61
747.079	677.71
747.264	624.46
747.449	563.02
747.634	528.21
747.819	597.84
748.003	667.47
748.188	675.66
748.373	579.4
748.557	612.17
748.742	583.5
748.927	640.84
749.111	571.21
749.296	630.6
749.481	583.5
749.665	571.21
749.85	634.7
750.034	544.59
750.219	563.02
750.404	569.16
750.588	571.21
750.773	509.77
750.957	509.77
751.141	581.45
751.326	614.22
751.51	522.06
751.695	644.94
751.879	536.4
752.064	544.59
752.248	614.22
752.432	583.5
752.617	534.35
752.801	511.82
752.985	616.27
753.17	544.59
753.354	597.84
753.538	503.63
753.722	483.15
753.907	509.77
754.091	563.02
754.275	460.62
754.459	474.96
754.643	470.86
754.828	522.06
755.012	526.16
755.196	477.01
755.38	563.02
755.564	474.96
755.748	485.2
755.932	474.96
756.116	477.01
756.3	454.48
756.484	526.16
756.668	511.82
756.852	442.19
757.036	505.68
757.22	452.43
757.404	454.48
757.588	388.94
757.772	489.29
757.956	513.87
758.14	495.44
758.323	479.05
758.507	390.99
758.691	415.57
758.875	444.24
759.059	460.62
759.242	483.15
759.426	454.48
759.61	390.99
759.794	368.46
759.977	425.81
760.161	354.13
760.345	393.04
760.528	472.91
760.712	464.72
760.895	382.8
761.079	526.16
761.263	452.43
761.446	380.75
761.63	413.52
761.813	347.98
761.997	352.08
762.18	397.14
762.364	431.95
762.547	419.66
762.731	440.14
762.914	370.51
763.098	380.75
763.281	415.57
763.464	311.12
763.648	405.33
763.831	442.19
764.015	409.42
764.198	347.98
764.381	413.52
764.564	255.83
764.748	386.9
764.931	413.52
765.114	425.81
765.297	431.95
765.481	335.7
765.664	358.22
765.847	313.17
766.03	292.69
766.213	315.22
766.397	409.42
766.58	390.99
766.763	397.14
766.946	352.08
767.129	370.51
767.312	386.9
767.495	309.07
767.678	337.74
767.861	405.33
768.044	417.61
768.227	380.75
768.41	393.04
768.593	329.55
768.776	333.65
768.959	411.47
769.142	319.31
769.324	319.31
769.507	343.89
769.69	323.41
769.873	409.42
770.056	431.95
770.239	366.42
770.421	315.22
770.604	317.26
770.787	284.5
770.97	395.09
771.152	331.6
771.335	362.32
771.518	356.18
771.7	266.07
771.883	350.03
772.066	319.31
772.248	309.07
772.431	337.74
772.613	339.79
772.796	335.7
772.978	376.66
773.161	311.12
773.343	397.14
773.526	323.41
773.708	343.89
773.891	341.84
774.073	276.31
774.256	356.18
774.438	298.83
774.621	313.17
774.803	325.46
774.985	294.74
775.168	327.5
775.35	280.4
775.532	329.55
775.715	284.5
775.897	358.22
776.079	300.88
776.261	276.31
776.444	337.74
776.626	356.18
776.808	276.31
776.99	325.46
777.173	300.88
777.355	325.46
777.537	311.12
777.719	347.98
777.901	309.07
778.083	288.59
778.265	304.98
778.447	354.13
778.629	274.26
778.811	266.07
778.993	261.97
779.175	315.22
779.357	333.65
779.539	272.21
779.721	247.63
779.903	333.65
780.085	225.11
780.267	272.21
780.449	223.06
780.631	302.93
780.812	331.6
780.994	268.11
781.176	251.73
781.358	251.73
781.54	214.87
781.721	241.49
781.903	231.25
782.085	225.11
782.267	253.78
782.448	255.83
782.63	253.78
782.812	204.63
782.993	245.59
783.175	347.98
783.357	268.11
783.538	270.16
783.72	186.19
783.901	194.39
784.083	223.06
784.264	182.1
784.446	194.39
784.627	284.5
784.809	184.15
784.99	282.45
785.172	184.15
785.353	325.46
785.535	231.25
785.716	192.34
785.897	186.19
786.079	227.15
786.26	192.34
786.441	184.15
786.623	212.82
786.804	231.25
786.985	204.63
787.167	204.63
787.348	200.53
787.529	208.72
787.71	225.11
787.891	307.02
788.073	167.76
788.254	130.9
788.435	153.43
788.616	180.05
788.797	190.29
788.978	139.09
789.159	188.24
789.34	274.26
789.522	114.52
789.703	188.24
789.884	204.63
790.065	161.62
790.246	182.1
790.427	173.91
790.607	163.67
790.788	225.11
790.969	153.43
791.15	149.33
791.331	178
791.512	247.63
791.693	169.81
791.874	223.06
792.054	161.62
792.235	198.48
792.416	212.82
792.597	223.06
792.778	186.19
792.958	175.95
793.139	249.68
793.32	128.85
793.5	167.76
793.681	204.63
793.862	159.57
794.042	194.39
794.223	175.95
794.404	155.47
794.584	137.04
794.765	167.76
794.945	110.42
795.126	161.62
795.306	145.24
795.487	96.08
795.667	159.57
795.848	151.38
796.028	137.04
796.209	100.18
796.389	165.71
796.57	100.18
796.75	165.71
796.93	155.47
797.111	130.9
797.291	98.13
797.471	55.12
797.652	91.99
797.832	108.37
798.012	135
798.192	81.75
798.373	194.39
798.553	124.76
798.733	53.08
798.913	83.8
799.093	139.09
799.274	91.99
799.454	104.28
799.634	114.52
799.814	147.28
799.994	169.81
800.174	175.95
800.354	188.24
800.534	79.7
800.714	77.65
800.894	81.75
801.074	75.6
801.254	126.8
801.434	157.52
801.614	87.89
801.794	124.76
801.974	307.02
802.154	126.8
802.334	178
802.514	120.66
802.693	75.6
802.873	94.04
803.053	159.57
803.233	69.46
803.413	75.6
803.592	128.85
803.772	61.27
803.952	135
804.131	87.89
804.311	94.04
804.491	196.43
804.67	89.94
804.85	171.86
805.03	98.13
805.209	114.52
805.389	108.37
805.568	100.18
805.748	153.43
805.928	73.56
806.107	91.99
806.287	53.08
806.466	79.7
806.646	85.84
806.825	149.33
807.004	98.13
807.184	98.13
807.363	143.19
807.543	122.71
807.722	38.74
807.901	102.23
808.081	73.56
808.26	83.8
808.439	30.55
808.619	89.94
808.798	124.76
808.977	132.95
809.156	40.79
809.336	48.98
809.515	194.39
809.694	96.08
809.873	169.81
810.052	79.7
810.231	81.75
810.411	120.66
810.59	71.51
810.769	22.36
810.948	71.51
811.127	61.27
811.306	55.12
811.485	48.98
811.664	145.24
811.843	59.22
812.022	91.99
812.201	22.36
812.38	22.36
812.559	48.98
812.737	132.95
812.916	94.04
813.095	112.47
813.274	77.65
813.453	118.61
813.632	98.13
813.811	98.13
813.989	14.17
814.168	100.18
814.347	38.74
814.526	94.04
814.704	114.52
814.883	96.08
815.062	22.36
815.24	118.61
815.419	77.65
815.598	10.07
815.776	42.84
815.955	46.93
816.133	-6.31
816.312	143.19
816.49	132.95
816.669	44.88
816.847	40.79
817.026	102.23
817.204	96.08
817.383	14.17
817.561	91.99
817.74	53.08
817.918	34.64
818.097	20.31
818.275	-28.84
818.453	67.41
818.632	32.6
818.81	36.69
818.988	32.6
819.167	118.61
819.345	63.32
819.523	14.17
819.701	20.31
819.879	94.04
820.058	61.27
820.236	48.98
820.414	53.08
820.592	53.08
820.77	-39.08
820.948	30.55
821.127	8.02
821.305	85.84
821.483	143.19
821.661	106.32
821.839	48.98
822.017	1.88
822.195	147.28
822.373	32.6
822.551	-57.51
822.729	67.41
822.907	30.55
823.085	36.69
823.262	26.45
823.44	65.36
823.618	46.93
823.796	22.36
823.974	100.18
824.152	46.93
824.329	32.6
824.507	59.22
824.685	112.47
824.863	38.74
825.04	32.6
825.218	63.32
825.396	22.36
825.574	77.65
825.751	28.5
825.929	46.93
826.107	-10.41
826.284	40.79
826.462	81.75
826.639	85.84
826.817	65.36
826.994	65.36
827.172	73.56
827.349	98.13
827.527	61.27
827.704	55.12
827.882	59.22
828.059	63.32
828.237	30.55
828.414	20.31
828.591	16.21
828.769	42.84
828.946	53.08
829.124	46.93
829.301	16.21
829.478	-4.27
829.655	67.41
829.833	51.03
830.01	81.75
830.187	65.36
830.364	98.13
830.542	102.23
830.719	65.36
830.896	57.17
831.073	36.69
831.25	-4.27
831.427	46.93
831.604	5.97
831.782	85.84
831.959	77.65
832.136	8.02
832.313	130.9
832.49	63.32
832.667	44.88
832.844	-55.47
833.021	65.36
833.198	30.55
833.374	18.26
833.551	12.12
833.728	-20.65
833.905	55.12
834.082	57.17
834.259	44.88
834.436	87.89
834.612	30.55
834.789	55.12
834.966	34.64
835.143	59.22
835.319	-34.99
835.496	61.27
835.673	-37.03
835.85	63.32
836.026	36.69
836.203	94.04
836.38	40.79
836.556	-2.22
836.733	34.64
836.909	51.03
837.086	53.08
837.262	36.69
837.439	28.5
837.616	91.99
837.792	67.41
837.968	5.97
838.145	-45.23
838.321	30.55
838.498	79.7
838.674	77.65
838.851	-26.79
839.027	44.88
839.203	-16.55
839.38	16.21
839.556	-75.95
839.732	10.07
839.909	-28.84
840.085	128.85
840.261	1.88
840.437	-2.22
840.614	42.84
840.79	20.31
840.966	30.55
841.142	14.17
841.318	55.12
841.494	36.69
841.671	-4.27
841.847	77.65
842.023	71.51
842.199	40.79
842.375	55.12
842.551	14.17
842.727	-4.27
842.903	-18.6
843.079	32.6
843.255	16.21
843.431	-6.31
843.607	-26.79
843.783	42.84
843.959	34.64
844.134	-39.08
844.31	18.26
844.486	10.07
844.662	42.84
844.838	22.36
845.013	22.36
845.189	42.84
845.365	12.12
845.541	-18.6
845.716	51.03
845.892	-24.75
846.068	59.22
846.244	1.88
846.419	36.69
846.595	16.21
846.77	51.03
846.946	61.27
847.122	57.17
847.297	-4.27
847.473	87.89
847.648	71.51
847.824	42.84
847.999	55.12
848.175	55.12
848.35	-20.65
848.526	57.17
848.701	63.32
848.876	3.93
849.052	53.08
849.227	79.7
849.403	20.31
849.578	63.32
849.753	-2.22
849.929	18.26
850.104	-22.7
850.279	73.56
850.454	14.17
850.63	85.84
850.805	-8.36
850.98	34.64
851.155	-20.65
851.33	3.93
851.505	-6.31
851.681	-41.13
851.856	-53.42
852.031	51.03
852.206	46.93
852.381	12.12
852.556	1.88
852.731	32.6
852.906	-10.41
853.081	-8.36
853.256	16.21
853.431	24.4
853.606	-34.99
853.781	46.93
853.956	42.84
854.131	79.7
854.305	24.4
854.48	36.69
854.655	-53.42
854.83	104.28
855.005	22.36
855.18	40.79
855.354	12.12
855.529	48.98
855.704	26.45
855.879	75.6
856.053	14.17
856.228	-16.55
856.403	-59.56
856.577	-18.6
856.752	36.69
856.926	-47.27
857.101	-57.51
857.276	63.32
857.45	8.02
857.625	63.32
857.799	-53.42
857.974	71.51
858.148	12.12
858.323	-53.42
858.497	-18.6
858.672	-12.46
858.846	30.55
859.02	-4.27
859.195	-20.65
859.369	-2.22
859.543	-4.27
859.718	32.6
859.892	30.55
860.066	-16.55
860.241	30.55
860.415	61.27
860.589	-26.79
860.763	59.22
860.938	20.31
861.112	77.65
861.286	-32.94
861.46	42.84
861.634	16.21
861.808	5.97
861.982	-12.46
862.157	5.97
862.331	20.31
862.505	40.79
862.679	-8.36
862.853	38.74
863.027	36.69
863.201	1.88
863.375	-41.13
863.549	-30.89
863.722	-41.13
863.896	28.5
864.07	-51.37
864.244	94.04
864.418	77.65
864.592	36.69
864.766	55.12
864.939	71.51
865.113	55.12
865.287	12.12
865.461	-43.18
865.634	16.21
865.808	-34.99
865.982	26.45
866.156	-32.94
866.329	55.12
866.503	44.88
866.676	20.31
866.85	51.03
867.024	-39.08
867.197	57.17
867.371	-0.17
867.544	-43.18
867.718	36.69
867.891	44.88
868.065	26.45
868.238	-28.84
868.412	61.27
868.585	-55.47
868.759	36.69
868.932	51.03
869.105	20.31
869.279	-12.46
869.452	14.17
869.625	22.36
869.799	61.27
869.972	40.79
870.145	40.79
870.319	65.36
870.492	-26.79
870.665	46.93
870.838	40.79
871.011	-57.51
871.185	-41.13
871.358	71.51
871.531	32.6
871.704	51.03
871.877	-26.79
872.05	-22.7
872.223	63.32
872.396	42.84
872.569	63.32
872.742	-12.46
872.915	20.31
873.088	40.79
873.261	24.4
873.434	14.17
873.607	69.46
873.78	71.51
873.953	-30.89
874.126	18.26
874.299	-22.7
874.471	36.69
874.644	8.02
874.817	-4.27
874.99	26.45
875.163	55.12
875.335	20.31
875.508	12.12
875.681	20.31
875.853	-24.75
876.026	26.45
876.199	65.36
876.371	-43.18
876.544	-4.27
876.717	28.5
876.889	-4.27
877.062	-45.23
877.234	46.93
877.407	-22.7
877.579	-14.51
877.752	12.12
877.924	-24.75
878.097	-43.18
878.269	53.08
878.442	46.93
878.614	-32.94
878.786	91.99
878.959	12.12
879.131	-12.46
879.303	18.26
879.476	-34.99
879.648	10.07
879.82	-10.41
879.993	-16.55
880.165	79.7
880.337	5.97
880.509	24.4
880.681	28.5
880.854	24.4
881.026	20.31
881.198	24.4
881.37	63.32
881.542	-22.7
881.714	-16.55
881.886	26.45
882.058	10.07
882.23	24.4
882.402	46.93
882.574	83.8
882.746	-43.18
882.918	-59.56
883.09	40.79
883.262	28.5
883.434	12.12
883.606	28.5
883.778	26.45
883.95	63.32
884.122	-8.36
884.293	53.08
884.465	-43.18
884.637	-14.51
884.809	53.08
884.98	36.69
885.152	-18.6
885.324	-28.84
885.496	-20.65
885.667	53.08
885.839	5.97
886.011	34.64
886.182	65.36
886.354	32.6
886.525	48.98
886.697	83.8
886.869	-30.89
887.04	79.7
887.212	-43.18
887.383	-32.94
887.555	14.17
887.726	5.97
887.897	20.31
888.069	59.22
888.24	81.75
888.412	-37.03
888.583	57.17
888.754	5.97
888.926	-6.31
889.097	-26.79
889.268	53.08
889.44	85.84
889.611	22.36
889.782	-0.17
889.953	14.17
890.125	-18.6
890.296	-28.84
890.467	-49.32
890.638	12.12
890.809	-0.17
890.98	20.31
891.151	20.31
891.323	73.56
891.494	42.84
891.665	-34.99
891.836	55.12
892.007	42.84
892.178	18.26
892.349	69.46
892.52	-8.36
892.691	55.12
892.862	14.17
893.032	5.97
893.203	44.88
893.374	55.12
893.545	28.5
893.716	-41.13
893.887	3.93
894.057	-2.22
894.228	5.97
894.399	-8.36
894.57	-12.46
894.74	61.27
894.911	-14.51
895.082	14.17
895.253	63.32
895.423	-10.41
895.594	38.74
895.764	10.07
895.935	44.88
896.106	46.93
896.276	-20.65
896.447	61.27
896.617	-24.75
896.788	53.08
896.958	38.74
897.129	40.79
897.299	5.97
897.47	38.74
897.64	-47.27
897.81	-12.46
897.981	36.69
898.151	-82.09
898.322	36.69
898.492	40.79
898.662	12.12
898.832	38.74
899.003	38.74
899.173	-45.23
899.343	-20.65
899.513	42.84
