Data from USB4F104151__88__12-54-51-238.txt Node

Date: Fri Mar 14 12:54:51 EDT 2025
User: louis
Spectrometer: USB4F10415
Trigger mode: 4
Integration Time (sec): 1.000000E-2
Scans to average: 1
Electric dark correction enabled: true
Nonlinearity correction enabled: false
Boxcar width: 0
XAxis mode: Wavelengths
Number of Pixels in Spectrum: 3648
>>>>>Begin Spectral Data<<<<<
178.204	-37.55
178.424	-37.55
178.644	-37.55
178.864	-72.36
179.084	-58.03
179.304	-8.87
179.524	32.08
179.744	73.04
179.964	-92.84
180.184	5.46
180.404	17.75
180.624	-37.55
180.844	-64.17
181.064	-33.45
181.283	-10.92
181.503	46.42
181.723	73.04
181.943	-29.35
182.163	-23.21
182.383	30.04
182.602	-0.68
182.822	-23.21
183.042	30.04
183.262	-23.21
183.482	40.28
183.701	17.75
183.921	44.37
184.141	23.89
184.361	48.47
184.58	58.71
184.8	-29.35
185.02	-43.69
185.239	-2.73
185.459	66.9
185.679	1.37
185.898	54.61
186.118	93.52
186.338	-0.68
186.557	-0.68
186.777	15.7
186.997	23.89
187.216	17.75
187.436	54.61
187.655	-19.11
187.875	97.62
188.095	-15.02
188.314	44.37
188.534	50.52
188.753	-8.87
188.973	54.61
189.192	25.94
189.412	19.8
189.631	-41.64
189.851	1.37
190.07	-10.92
190.29	-12.97
190.509	17.75
190.729	62.8
190.948	48.47
191.168	27.99
191.387	21.85
191.607	-21.16
191.826	62.8
192.045	-4.78
192.265	19.8
192.484	7.51
192.704	25.94
192.923	-6.83
193.142	-25.26
193.362	-15.02
193.581	46.42
193.8	9.56
194.02	52.56
194.239	-6.83
194.458	21.85
194.678	-15.02
194.897	46.42
195.116	-33.45
195.335	17.75
195.555	-27.31
195.774	83.28
195.993	30.04
196.212	19.8
196.432	42.32
196.651	-4.78
196.87	62.8
197.089	42.32
197.308	15.7
197.528	64.85
197.747	-19.11
197.966	-47.79
198.185	-37.55
198.404	11.61
198.623	81.24
198.842	1.37
199.062	25.94
199.281	68.95
199.5	48.47
199.719	54.61
199.938	60.76
200.157	13.65
200.376	-64.17
200.595	42.32
200.814	15.7
201.033	79.19
201.252	73.04
201.471	21.85
201.69	-6.83
201.909	-29.35
202.128	19.8
202.347	48.47
202.566	-31.4
202.785	11.61
203.004	-31.4
203.223	50.52
203.442	-60.07
203.661	56.66
203.879	23.89
204.098	-23.21
204.317	36.18
204.536	34.13
204.755	-2.73
204.974	-0.68
205.193	21.85
205.411	81.24
205.63	-6.83
205.849	48.47
206.068	-17.07
206.287	21.85
206.505	68.95
206.724	48.47
206.943	25.94
207.162	66.9
207.381	46.42
207.599	-12.97
207.818	60.76
208.037	44.37
208.255	11.61
208.474	62.8
208.693	-47.79
208.911	-19.11
209.13	-0.68
209.349	64.85
209.567	36.18
209.786	-2.73
210.005	3.41
210.223	11.61
210.442	44.37
210.661	56.66
210.879	-25.26
211.098	56.66
211.316	-10.92
211.535	83.28
211.753	-0.68
211.972	68.95
212.191	-66.22
212.409	-41.64
212.628	-31.4
212.846	-10.92
213.065	54.61
213.283	36.18
213.502	44.37
213.72	1.37
213.938	23.89
214.157	77.14
214.375	23.89
214.594	1.37
214.812	40.28
215.031	11.61
215.249	32.08
215.467	15.7
215.686	83.28
215.904	64.85
216.122	89.43
216.341	15.7
216.559	42.32
216.778	-10.92
216.996	-21.16
217.214	32.08
217.432	-6.83
217.651	-25.26
217.869	11.61
218.087	52.56
218.306	64.85
218.524	17.75
218.742	52.56
218.96	54.61
219.179	44.37
219.397	-47.79
219.615	68.95
219.833	62.8
220.051	-12.97
220.27	-60.07
220.488	-12.97
220.706	54.61
220.924	-80.55
221.142	11.61
221.36	-27.31
221.578	62.8
221.796	9.56
222.015	36.18
222.233	-29.35
222.451	34.13
222.669	1.37
222.887	36.18
223.105	-21.16
223.323	32.08
223.541	-8.87
223.759	15.7
223.977	-53.93
224.195	-2.73
224.413	25.94
224.631	13.65
224.849	1.37
225.067	89.43
225.285	3.41
225.503	-27.31
225.721	-62.12
225.939	-31.4
226.157	48.47
226.375	118.1
226.592	66.9
226.81	54.61
227.028	23.89
227.246	40.28
227.464	13.65
227.682	13.65
227.9	71
228.117	17.75
228.335	19.8
228.553	32.08
228.771	23.89
228.989	9.56
229.206	25.94
229.424	52.56
229.642	23.89
229.86	15.7
230.077	19.8
230.295	23.89
230.513	5.46
230.731	42.32
230.948	79.19
231.166	48.47
231.384	-25.26
231.601	1.37
231.819	-2.73
232.037	73.04
232.254	-23.21
232.472	7.51
232.689	68.95
232.907	13.65
233.125	-19.11
233.342	48.47
233.56	-43.69
233.777	-33.45
233.995	40.28
234.213	7.51
234.43	7.51
234.648	52.56
234.865	30.04
235.083	75.09
235.3	-8.87
235.518	68.95
235.735	15.7
235.953	68.95
236.17	38.23
236.388	83.28
236.605	-27.31
236.822	19.8
237.04	19.8
237.257	38.23
237.475	46.42
237.692	21.85
237.909	52.56
238.127	-27.31
238.344	91.48
238.562	-19.11
238.779	7.51
238.996	13.65
239.214	66.9
239.431	126.29
239.648	34.13
239.865	21.85
240.083	-8.87
240.3	9.56
240.517	19.8
240.735	-2.73
240.952	95.57
241.169	77.14
241.386	30.04
241.603	42.32
241.821	66.9
242.038	95.57
242.255	-8.87
242.472	-82.6
242.689	91.48
242.907	81.24
243.124	77.14
243.341	48.47
243.558	30.04
243.775	40.28
243.992	68.95
244.209	52.56
244.426	103.76
244.643	32.08
244.86	50.52
245.078	-4.78
245.295	60.76
245.512	7.51
245.729	-86.7
245.946	68.95
246.163	7.51
246.38	85.33
246.597	-4.78
246.814	17.75
247.031	7.51
247.248	23.89
247.464	-41.64
247.681	25.94
247.898	15.7
248.115	-23.21
248.332	50.52
248.549	7.51
248.766	40.28
248.983	56.66
249.2	21.85
249.417	-25.26
249.633	107.86
249.85	-31.4
250.067	-25.26
250.284	34.13
250.501	9.56
250.717	7.51
250.934	1.37
251.151	23.89
251.368	17.75
251.585	-2.73
251.801	52.56
252.018	60.76
252.235	44.37
252.451	50.52
252.668	5.46
252.885	-31.4
253.102	-8.87
253.318	-10.92
253.535	-10.92
253.752	111.96
253.968	89.43
254.185	21.85
254.401	11.61
254.618	-15.02
254.835	1.37
255.051	48.47
255.268	-19.11
255.484	15.7
255.701	17.75
255.917	7.51
256.134	46.42
256.351	-2.73
256.567	19.8
256.784	-25.26
257	9.56
257.217	32.08
257.433	27.99
257.65	52.56
257.866	-39.59
258.082	-2.73
258.299	-37.55
258.515	36.18
258.732	52.56
258.948	40.28
259.165	23.89
259.381	5.46
259.597	-8.87
259.814	34.13
260.03	77.14
260.246	93.52
260.463	-33.45
260.679	52.56
260.895	11.61
261.112	3.41
261.328	1.37
261.544	32.08
261.761	-60.07
261.977	-17.07
262.193	19.8
262.409	71
262.626	66.9
262.842	46.42
263.058	-23.21
263.274	42.32
263.49	1.37
263.707	-17.07
263.923	21.85
264.139	21.85
264.355	-31.4
264.571	42.32
264.787	7.51
265.004	60.76
265.22	50.52
265.436	-0.68
265.652	15.7
265.868	66.9
266.084	27.99
266.3	56.66
266.516	-29.35
266.732	-31.4
266.948	44.37
267.164	-68.27
267.38	30.04
267.596	-25.26
267.812	-84.65
268.028	23.89
268.244	-8.87
268.46	52.56
268.676	-19.11
268.892	23.89
269.108	-15.02
269.324	50.52
269.54	40.28
269.756	87.38
269.972	130.39
270.188	73.04
270.403	-37.55
270.619	5.46
270.835	-0.68
271.051	-12.97
271.267	-23.21
271.483	17.75
271.698	87.38
271.914	15.7
272.13	21.85
272.346	48.47
272.562	-49.83
272.777	32.08
272.993	36.18
273.209	64.85
273.425	-8.87
273.64	36.18
273.856	75.09
274.072	73.04
274.287	62.8
274.503	7.51
274.719	-4.78
274.934	50.52
275.15	9.56
275.366	5.46
275.581	15.7
275.797	-4.78
276.012	-41.64
276.228	54.61
276.444	54.61
276.659	91.48
276.875	-23.21
277.09	-51.88
277.306	-74.41
277.521	13.65
277.737	-58.03
277.952	-2.73
278.168	21.85
278.383	5.46
278.599	-0.68
278.814	23.89
279.03	3.41
279.245	44.37
279.461	-15.02
279.676	40.28
279.892	38.23
280.107	52.56
280.322	-66.22
280.538	73.04
280.753	19.8
280.969	46.42
281.184	87.38
281.399	-2.73
281.615	36.18
281.83	-6.83
282.045	-21.16
282.26	13.65
282.476	77.14
282.691	-47.79
282.906	40.28
283.122	15.7
283.337	32.08
283.552	73.04
283.767	34.13
283.983	36.18
284.198	-6.83
284.413	9.56
284.628	114
284.843	73.04
285.058	66.9
285.274	30.04
285.489	-15.02
285.704	-19.11
285.919	68.95
286.134	30.04
286.349	36.18
286.564	34.13
286.779	-29.35
286.995	73.04
287.21	-27.31
287.425	48.47
287.64	-0.68
287.855	-8.87
288.07	17.75
288.285	5.46
288.5	-6.83
288.715	36.18
288.93	-12.97
289.145	19.8
289.36	73.04
289.575	-2.73
289.79	-21.16
290.004	9.56
290.219	-39.59
290.434	9.56
290.649	27.99
290.864	1.37
291.079	87.38
291.294	11.61
291.509	7.51
291.724	32.08
291.938	44.37
292.153	-23.21
292.368	105.81
292.583	42.32
292.798	46.42
293.012	19.8
293.227	25.94
293.442	-47.79
293.657	32.08
293.871	34.13
294.086	30.04
294.301	15.7
294.516	54.61
294.73	89.43
294.945	32.08
295.16	48.47
295.374	-6.83
295.589	38.23
295.804	11.61
296.018	91.48
296.233	5.46
296.447	48.47
296.662	13.65
296.877	64.85
297.091	30.04
297.306	85.33
297.52	48.47
297.735	66.9
297.949	42.32
298.164	32.08
298.378	15.7
298.593	48.47
298.807	52.56
299.022	3.41
299.236	34.13
299.451	-8.87
299.665	9.56
299.88	-23.21
300.094	50.52
300.309	48.47
300.523	19.8
300.737	-4.78
300.952	-10.92
301.166	44.37
301.381	58.71
301.595	-43.69
301.809	-51.88
302.024	-21.16
302.238	-41.64
302.452	56.66
302.667	66.9
302.881	5.46
303.095	23.89
303.309	44.37
303.524	19.8
303.738	-47.79
303.952	36.18
304.166	30.04
304.381	34.13
304.595	23.89
304.809	-6.83
305.023	48.47
305.237	-12.97
305.452	42.32
305.666	11.61
305.88	38.23
306.094	30.04
306.308	81.24
306.522	3.41
306.736	-17.07
306.95	75.09
307.164	25.94
307.379	5.46
307.593	23.89
307.807	48.47
308.021	77.14
308.235	-39.59
308.449	-35.5
308.663	-51.88
308.877	11.61
309.091	-0.68
309.305	-33.45
309.519	-49.83
309.733	-2.73
309.947	23.89
310.161	44.37
310.374	1.37
310.588	19.8
310.802	19.8
311.016	42.32
311.23	1.37
311.444	-0.68
311.658	15.7
311.872	36.18
312.085	91.48
312.299	54.61
312.513	5.46
312.727	-12.97
312.941	-60.07
313.154	9.56
313.368	38.23
313.582	30.04
313.796	-27.31
314.009	-29.35
314.223	42.32
314.437	15.7
314.651	-27.31
314.864	11.61
315.078	68.95
315.292	9.56
315.505	44.37
315.719	-17.07
315.933	-27.31
316.146	-41.64
316.36	-6.83
316.573	27.99
316.787	25.94
317.001	-49.83
317.214	-10.92
317.428	66.9
317.641	-74.41
317.855	40.28
318.068	50.52
318.282	-31.4
318.495	25.94
318.709	-29.35
318.922	15.7
319.136	-0.68
319.349	17.75
319.563	34.13
319.776	27.99
319.99	-12.97
320.203	19.8
320.417	9.56
320.63	36.18
320.843	9.56
321.057	36.18
321.27	56.66
321.483	52.56
321.697	17.75
321.91	48.47
322.124	-35.5
322.337	-2.73
322.55	68.95
322.763	-21.16
322.977	21.85
323.19	1.37
323.403	9.56
323.617	68.95
323.83	-58.03
324.043	54.61
324.256	17.75
324.469	-6.83
324.683	66.9
324.896	-15.02
325.109	-6.83
325.322	-17.07
325.535	38.23
325.748	54.61
325.962	15.7
326.175	40.28
326.388	60.76
326.601	9.56
326.814	36.18
327.027	13.65
327.24	103.76
327.453	34.13
327.666	-4.78
327.879	-6.83
328.092	27.99
328.305	-53.93
328.518	66.9
328.731	5.46
328.944	54.61
329.157	71
329.37	58.71
329.583	-2.73
329.796	48.47
330.009	32.08
330.222	-27.31
330.435	75.09
330.648	56.66
330.861	-19.11
331.073	38.23
331.286	56.66
331.499	71
331.712	3.41
331.925	-27.31
332.138	75.09
332.35	64.85
332.563	-15.02
332.776	27.99
332.989	73.04
333.202	107.86
333.414	58.71
333.627	-10.92
333.84	81.24
334.053	17.75
334.265	40.28
334.478	60.76
334.691	36.18
334.903	48.47
335.116	-8.87
335.329	3.41
335.541	19.8
335.754	-17.07
335.966	-12.97
336.179	71
336.392	25.94
336.604	17.75
336.817	3.41
337.029	17.75
337.242	9.56
337.454	62.8
337.667	13.65
337.88	17.75
338.092	58.71
338.305	93.52
338.517	-70.31
338.729	-23.21
338.942	62.8
339.154	-17.07
339.367	-78.51
339.579	109.91
339.792	32.08
340.004	-19.11
340.217	-10.92
340.429	52.56
340.641	15.7
340.854	-47.79
341.066	-53.93
341.278	3.41
341.491	46.42
341.703	17.75
341.915	-6.83
342.128	48.47
342.34	-19.11
342.552	60.76
342.764	-8.87
342.977	48.47
343.189	9.56
343.401	79.19
343.613	-29.35
343.826	62.8
344.038	32.08
344.25	46.42
344.462	25.94
344.674	-6.83
344.886	109.91
345.099	71
345.311	3.41
345.523	11.61
345.735	-23.21
345.947	34.13
346.159	50.52
346.371	19.8
346.583	42.32
346.795	27.99
347.007	60.76
347.219	73.04
347.431	40.28
347.643	52.56
347.855	-47.79
348.067	89.43
348.279	23.89
348.491	27.99
348.703	30.04
348.915	62.8
349.127	34.13
349.339	128.34
349.551	-33.45
349.763	81.24
349.975	11.61
350.187	77.14
350.399	68.95
350.61	85.33
350.822	42.32
351.034	-8.87
351.246	-6.83
351.458	89.43
351.669	32.08
351.881	71
352.093	-4.78
352.305	9.56
352.517	5.46
352.728	32.08
352.94	15.7
353.152	64.85
353.363	21.85
353.575	116.05
353.787	1.37
353.999	50.52
354.21	-8.87
354.422	48.47
354.633	56.66
354.845	87.38
355.057	17.75
355.268	105.81
355.48	1.37
355.692	75.09
355.903	56.66
356.115	-47.79
356.326	34.13
356.538	89.43
356.749	7.51
356.961	48.47
357.172	-31.4
357.384	-21.16
357.595	50.52
357.807	17.75
358.018	-47.79
358.23	77.14
358.441	-23.21
358.653	-15.02
358.864	-25.26
359.075	7.51
359.287	150.87
359.498	93.52
359.709	64.85
359.921	-23.21
360.132	34.13
360.344	-15.02
360.555	11.61
360.766	11.61
360.977	-0.68
361.189	9.56
361.4	9.56
361.611	40.28
361.823	58.71
362.034	11.61
362.245	17.75
362.456	-25.26
362.667	77.14
362.879	25.94
363.09	44.37
363.301	60.76
363.512	36.18
363.723	-25.26
363.935	-23.21
364.146	38.23
364.357	34.13
364.568	-2.73
364.779	25.94
364.99	62.8
365.201	25.94
365.412	34.13
365.623	-35.5
365.834	60.76
366.045	-15.02
366.256	66.9
366.467	-0.68
366.678	23.89
366.889	-53.93
367.1	27.99
367.311	48.47
367.522	-8.87
367.733	48.47
367.944	-39.59
368.155	-6.83
368.366	-10.92
368.577	17.75
368.788	21.85
368.999	-25.26
369.209	17.75
369.42	60.76
369.631	11.61
369.842	34.13
370.053	1.37
370.264	48.47
370.474	64.85
370.685	136.53
370.896	32.08
371.107	54.61
371.317	-2.73
371.528	109.91
371.739	42.32
371.95	13.65
372.16	1.37
372.371	46.42
372.582	64.85
372.792	58.71
373.003	-15.02
373.214	9.56
373.424	-19.11
373.635	-49.83
373.846	66.9
374.056	62.8
374.267	60.76
374.477	30.04
374.688	9.56
374.898	36.18
375.109	9.56
375.319	17.75
375.53	36.18
375.74	25.94
375.951	50.52
376.161	25.94
376.372	134.48
376.582	40.28
376.793	30.04
377.003	9.56
377.214	77.14
377.424	23.89
377.635	89.43
377.845	68.95
378.055	52.56
378.266	-31.4
378.476	83.28
378.686	48.47
378.897	21.85
379.107	40.28
379.317	120.15
379.528	21.85
379.738	68.95
379.948	-2.73
380.158	83.28
380.369	19.8
380.579	13.65
380.789	3.41
380.999	34.13
381.21	32.08
381.42	97.62
381.63	-17.07
381.84	46.42
382.05	73.04
382.261	-10.92
382.471	40.28
382.681	48.47
382.891	17.75
383.101	27.99
383.311	89.43
383.521	40.28
383.731	23.89
383.941	77.14
384.151	83.28
384.361	-66.22
384.571	32.08
384.781	60.76
384.991	36.18
385.201	25.94
385.411	-25.26
385.621	42.32
385.831	1.37
386.041	32.08
386.251	48.47
386.461	91.48
386.671	-15.02
386.881	32.08
387.091	48.47
387.301	42.32
387.511	34.13
387.72	107.86
387.93	11.61
388.14	-23.21
388.35	-15.02
388.56	105.81
388.769	52.56
388.979	21.85
389.189	3.41
389.399	38.23
389.609	17.75
389.818	46.42
390.028	42.32
390.238	68.95
390.447	-2.73
390.657	77.14
390.867	58.71
391.076	11.61
391.286	52.56
391.496	64.85
391.705	62.8
391.915	30.04
392.125	97.62
392.334	36.18
392.544	36.18
392.753	83.28
392.963	-8.87
393.172	21.85
393.382	68.95
393.591	17.75
393.801	21.85
394.01	30.04
394.22	105.81
394.429	58.71
394.639	-31.4
394.848	64.85
395.058	40.28
395.267	101.72
395.477	32.08
395.686	56.66
395.895	99.67
396.105	21.85
396.314	48.47
396.524	11.61
396.733	36.18
396.942	52.56
397.152	66.9
397.361	64.85
397.57	17.75
397.78	34.13
397.989	27.99
398.198	79.19
398.407	-10.92
398.617	48.47
398.826	-10.92
399.035	13.65
399.244	1.37
399.453	7.51
399.663	40.28
399.872	87.38
400.081	54.61
400.29	38.23
400.499	52.56
400.708	66.9
400.917	93.52
401.127	50.52
401.336	3.41
401.545	99.67
401.754	81.24
401.963	103.76
402.172	21.85
402.381	66.9
402.59	50.52
402.799	58.71
403.008	134.48
403.217	36.18
403.426	91.48
403.635	97.62
403.844	-4.78
404.053	85.33
404.262	46.42
404.471	66.9
404.68	99.67
404.888	3.41
405.097	91.48
405.306	60.76
405.515	144.72
405.724	132.44
405.933	60.76
406.142	75.09
406.35	105.81
406.559	-15.02
406.768	128.34
406.977	140.63
407.185	23.89
407.394	103.76
407.603	99.67
407.812	122.2
408.02	111.96
408.229	134.48
408.438	97.62
408.646	138.58
408.855	165.2
409.064	97.62
409.272	122.2
409.481	163.15
409.69	183.63
409.898	159.06
410.107	130.39
410.315	128.34
410.524	261.46
410.733	238.93
410.941	273.75
411.15	240.98
411.358	212.31
411.567	249.17
411.775	226.64
411.984	109.91
412.192	234.83
412.401	206.16
412.609	247.12
412.818	359.76
413.026	253.27
413.234	306.51
413.443	247.12
413.651	240.98
413.86	310.61
414.068	378.19
414.276	247.12
414.485	335.18
414.693	324.94
414.901	355.66
415.11	279.89
415.318	378.19
415.526	406.86
415.734	382.29
415.943	361.81
416.151	421.2
416.359	394.58
416.567	396.62
416.776	425.29
416.984	494.93
417.192	507.21
417.4	429.39
417.608	464.21
417.817	482.64
418.025	525.65
418.233	603.47
418.441	494.93
418.649	576.84
418.857	601.42
419.065	736.59
419.273	650.57
419.481	644.43
419.689	800.07
419.897	730.44
420.105	808.27
420.313	773.45
420.521	851.27
420.729	814.41
420.937	916.81
421.145	888.14
421.353	875.85
421.561	990.53
421.769	955.72
421.977	1033.54
422.185	1074.5
422.393	1088.84
422.601	1133.89
422.809	1166.66
423.017	1142.08
423.224	1289.54
423.432	1252.67
423.64	1211.71
423.848	1461.57
424.056	1359.17
424.263	1393.98
424.471	1375.55
424.679	1447.23
424.887	1596.73
425.094	1604.92
425.302	1582.4
425.51	1733.95
425.718	1664.32
425.925	1758.52
426.133	1744.19
426.341	1910.07
426.548	2057.53
426.756	1901.88
426.964	1969.46
427.171	2184.5
427.379	2202.93
427.586	2223.41
427.794	2260.27
428.001	2377.01
428.209	2415.92
428.417	2456.88
428.624	2602.29
428.832	2647.34
429.039	2596.14
429.247	2635.05
429.454	2907.43
429.662	2925.86
429.869	2858.28
430.076	2987.3
430.284	2950.44
430.491	3009.83
430.699	3192.1
430.906	3212.58
431.114	3411.23
431.321	3433.76
431.528	3546.4
431.736	3642.65
431.943	3939.61
432.15	3861.79
432.358	3777.82
432.565	4005.14
432.772	4193.56
432.979	4275.48
433.187	4295.96
433.394	4232.47
433.601	4597.01
433.808	4605.2
434.016	4568.34
434.223	4787.47
434.43	5018.89
434.637	4939.02
434.844	5258.5
435.052	5401.86
435.259	5350.66
435.466	5379.33
435.673	5481.73
435.88	5713.15
436.087	6094.07
436.294	6057.21
436.501	5727.49
436.708	6073.59
436.915	6159.61
437.122	6483.19
437.329	6479.09
437.537	6620.4
437.743	6769.9
437.95	6776.05
438.157	7156.97
438.364	7324.9
438.571	7285.99
438.778	7398.63
438.985	8076.51
439.192	7646.43
439.399	7945.44
439.606	7818.46
439.813	8289.49
440.02	8654.03
440.227	8479.96
440.433	8434.9
440.64	8674.51
440.847	8713.42
441.054	9069.77
441.261	9587.91
441.467	9407.69
441.674	9696.45
441.881	9979.07
442.088	10054.84
442.294	9880.77
442.501	10183.87
442.708	10417.33
442.914	10702
443.121	11144.36
443.328	10865.84
443.534	11685.03
443.741	11261.1
443.948	11201.71
444.154	12170.4
444.361	12024.99
444.568	11926.69
444.774	11844.77
444.981	12311.71
445.187	12653.72
445.394	13120.65
445.6	12971.15
445.807	14171.26
446.013	13624.45
446.22	14013.57
446.426	14353.53
446.633	14685.3
446.839	15039.6
447.046	14400.63
447.252	15185.01
447.459	15328.36
447.665	15041.65
447.871	15901.79
448.078	16612.44
448.284	15912.03
448.491	16469.08
448.697	16641.11
448.903	17044.56
449.11	17271.89
449.316	16854.1
449.522	17558.6
449.728	17617.99
449.935	17706.06
450.141	17859.65
450.347	18168.9
450.553	17693.77
450.76	17826.89
450.966	18455.61
451.172	18295.87
451.378	19024.95
451.584	18551.87
451.791	18994.23
451.997	18947.12
452.203	19024.95
452.409	19170.35
452.615	18897.97
452.821	18336.83
453.027	18160.7
453.233	19180.59
453.44	18426.94
453.646	18523.19
453.852	18781.24
454.058	19156.02
454.264	18490.43
454.47	18957.36
454.676	18451.52
454.882	19209.26
455.088	17355.85
455.294	17736.77
455.5	18056.26
455.705	18084.93
455.911	17531.98
456.117	17112.14
456.323	17015.89
456.529	16180.32
456.735	16831.57
456.941	16446.55
457.147	16051.3
457.352	15438.95
457.558	15547.5
457.764	15342.7
457.97	15113.33
458.176	14783.6
458.381	14550.14
458.587	13847.68
458.793	13720.71
458.999	13364.36
459.204	14294.14
459.41	14083.2
459.616	13059.21
459.821	13016.21
460.027	12936.34
460.233	12410.01
460.438	12049.57
460.644	12108.96
460.85	11494.57
461.055	11535.53
461.261	11414.7
461.466	10620.08
461.672	10267.83
461.878	11062.44
462.083	10448.05
462.289	9946.3
462.494	9979.07
462.7	9354.44
462.905	9061.58
463.111	9669.83
463.316	9755.84
463.522	9546.95
463.727	9510.08
463.932	9493.7
464.138	9405.64
464.343	9413.83
464.549	9024.72
464.754	9401.54
464.959	9231.56
465.165	9166.03
465.37	8920.27
465.575	8711.38
465.781	9043.15
465.986	9006.28
466.191	8813.77
466.397	8477.91
466.602	8217.82
466.807	8529.11
467.012	8488.15
467.218	8262.87
467.423	8412.37
467.628	8500.44
467.833	8565.97
468.038	8326.36
468.244	8158.42
468.449	8410.33
468.654	8109.27
468.859	8053.98
469.064	8295.64
469.269	7914.72
469.474	8013.02
469.679	8043.74
469.885	7734.5
470.09	7869.66
470.295	7701.73
470.5	7668.96
470.705	7707.87
470.91	7453.92
471.115	7365.86
471.32	7705.82
471.525	7415.01
471.73	7417.06
471.935	7357.67
472.139	7089.39
472.344	7169.26
472.549	7044.33
472.754	7025.9
472.959	7023.85
473.164	6733.04
473.369	6743.28
473.574	6778.09
473.778	6833.39
473.983	6733.04
474.188	6640.88
474.393	6364.4
474.598	6362.36
474.802	6425.84
475.007	6405.36
475.212	6413.56
475.417	6028.54
475.621	6006.01
475.826	5952.76
476.031	6065.4
476.235	5858.56
476.44	6132.98
476.645	5979.39
476.849	5989.63
477.054	5856.51
477.259	5528.83
477.463	5629.18
477.668	5496.07
477.872	5551.36
478.077	5557.5
478.282	5457.15
478.486	5383.43
478.691	5387.52
478.895	5387.52
479.1	5252.36
479.304	5311.75
479.509	5217.54
479.713	5285.12
479.918	5266.69
480.122	5047.56
480.326	5137.67
480.531	5049.61
480.735	5090.57
480.94	5020.94
481.144	5104.9
481.348	4906.25
481.553	4973.83
481.757	4889.87
481.961	5059.85
482.166	4953.35
482.37	5000.46
482.574	4836.62
482.778	4939.02
482.983	4943.11
483.187	4910.35
483.391	4902.15
483.595	5010.7
483.8	4896.01
484.004	4967.69
484.208	4934.92
484.412	4816.14
484.616	4896.01
484.821	4930.83
485.025	4738.32
485.229	4996.36
485.433	4949.26
485.637	4982.03
485.841	4902.15
486.045	4965.64
486.249	4818.19
486.453	4867.34
486.657	4973.83
486.861	5051.66
487.065	4885.77
487.269	4846.86
487.473	4943.11
487.677	5006.6
487.881	4875.53
488.085	4912.39
488.289	5070.09
488.493	4988.17
488.697	5008.65
488.901	4900.11
489.105	5022.98
489.309	5029.13
489.512	4906.25
489.716	5031.18
489.92	5168.39
490.124	5156.1
490.328	5184.77
490.531	4992.27
490.735	5119.24
490.939	5049.61
491.143	5233.93
491.346	5135.62
491.55	5025.03
491.754	5152.01
491.958	5254.41
492.161	5158.15
492.365	5127.43
492.569	5215.49
492.772	5217.54
492.976	5381.38
493.18	5309.7
493.383	5491.97
493.587	5577.98
493.79	5516.55
493.994	5489.92
494.197	5422.34
494.401	5440.77
494.605	5545.22
494.808	5594.37
495.012	5659.9
495.215	5735.68
495.419	5786.88
495.622	5825.79
495.825	5901.56
496.029	5807.36
496.232	6161.66
496.436	5954.81
496.639	5891.32
496.843	6216.95
497.046	6141.18
497.249	6429.94
497.453	6227.19
497.656	6386.93
497.859	6536.43
498.063	6407.41
498.266	6712.56
498.469	6737.13
498.673	6685.94
498.876	6679.79
499.079	6845.68
499.282	6855.92
499.485	7038.19
499.689	7034.09
499.892	7267.56
500.095	7199.98
500.298	7445.73
500.501	7197.93
500.705	7513.31
500.908	7666.91
501.111	7507.17
501.314	7709.92
501.517	7779.55
501.72	7877.85
501.923	7912.67
502.126	8131.8
502.329	8395.99
502.532	8471.76
502.735	8260.82
502.938	8504.53
503.141	8477.91
503.344	8615.12
503.547	8772.82
503.75	8701.14
503.953	9247.94
504.156	9049.29
504.359	9110.73
504.562	9188.55
504.765	9530.56
504.968	9714.88
505.17	9665.73
505.373	9561.28
505.576	9702.59
505.779	9968.83
505.982	9954.49
506.185	10300.6
506.387	10175.67
506.59	10454.2
506.793	10638.51
506.996	10650.8
507.198	10921.13
507.401	10796.21
507.604	11066.54
507.807	11230.38
508.009	11306.15
508.212	11343.02
508.415	11777.19
508.617	11699.36
508.82	11787.43
509.022	11758.75
509.225	12223.64
509.428	12194.97
509.63	12311.71
509.833	12313.75
510.035	12561.56
510.238	12790.93
510.44	12979.34
510.643	12989.58
510.845	13030.54
511.048	13098.13
511.25	13386.89
511.453	13427.85
511.655	13911.17
511.858	13741.19
512.06	13855.87
512.262	14052.48
512.465	13980.8
512.667	14222.46
512.87	14494.84
513.072	14560.38
513.274	14818.42
513.477	15037.55
513.679	15072.37
513.881	15170.67
514.084	15350.89
514.286	15375.47
514.488	15397.99
514.69	15950.95
514.893	15940.71
515.095	16045.15
515.297	16217.18
515.499	16151.65
515.701	16622.68
515.904	16790.61
516.106	16725.08
516.308	17073.23
516.51	17353.8
516.712	17241.17
516.914	17398.86
517.116	17781.83
517.318	17759.3
517.52	17648.71
517.722	18039.87
517.925	18390.08
518.127	18533.43
518.329	18510.91
518.531	18447.42
518.733	18918.45
518.935	19106.87
519.136	18967.6
519.338	19477.55
519.54	19631.15
519.742	19827.75
519.944	19786.79
520.146	20247.58
520.348	20290.59
520.55	19979.3
520.752	20249.63
520.954	20968.47
521.155	20587.55
521.357	20612.12
521.559	20954.13
521.761	21279.76
521.963	20988.95
522.164	21593.1
522.366	21505.04
522.568	21660.68
522.77	21879.82
522.971	22172.67
523.173	21672.97
523.375	22526.97
523.576	22508.54
523.778	22461.44
523.98	22674.43
524.181	22873.08
524.383	22819.83
524.584	22971.38
524.786	23108.6
524.988	22813.69
525.189	23151.6
525.391	23403.5
525.592	23569.39
525.794	23735.28
525.995	23960.55
526.197	23913.45
526.398	23802.86
526.6	23974.89
526.801	24460.26
527.003	24284.13
527.204	24280.03
527.406	24333.28
527.607	24306.66
527.808	24839.13
528.01	24024.04
528.211	24327.14
528.412	25258.96
528.614	24867.8
528.815	24851.42
529.016	25066.45
529.218	24744.92
529.419	24779.74
529.62	25314.26
529.822	24943.58
530.023	25039.83
530.224	25025.5
530.425	25283.54
530.626	25134.04
530.828	24742.88
531.029	25390.03
531.23	25209.81
531.431	25553.87
531.632	25500.62
531.833	25607.12
532.035	25623.5
532.236	25953.23
532.437	25756.62
532.638	25482.19
532.839	25826.25
533.04	25899.98
533.241	25543.63
533.442	25822.16
533.643	25539.54
533.844	25910.22
534.045	25738.19
534.246	25877.45
534.447	25994.18
534.648	25787.34
534.849	26026.95
535.05	25738.19
535.251	25662.41
535.451	25998.28
535.652	25842.63
535.853	25936.84
536.054	26110.92
536.255	25979.85
536.456	25646.03
536.657	26043.34
536.857	25887.69
537.058	25699.28
537.259	25957.32
537.46	25795.53
537.66	25879.5
537.861	25627.6
538.062	25725.9
538.263	25811.92
538.463	25674.7
538.664	25723.85
538.865	26110.92
539.065	25809.87
539.266	25756.62
539.466	25924.55
539.667	25457.62
539.868	25924.55
540.068	25850.83
540.269	25580.49
540.469	25723.85
540.67	25928.65
540.87	25865.16
541.071	25914.31
541.271	25873.35
541.472	25891.79
541.672	25682.89
541.873	26000.33
542.073	25613.26
542.274	26100.68
542.474	25811.92
542.675	26016.71
542.875	26145.73
543.075	25748.43
543.276	25525.2
543.476	25932.75
543.676	25660.37
543.877	26014.66
544.077	25895.88
544.277	26133.45
544.478	25545.68
544.678	25437.14
544.878	25557.97
545.078	25838.54
545.279	25701.33
545.479	25619.41
545.679	25553.87
545.879	25926.6
546.079	25633.74
546.28	25531.34
546.48	25400.27
546.68	25758.67
546.88	25791.44
547.08	25768.91
547.28	25596.88
547.48	25498.58
547.68	25717.71
547.88	25777.1
548.081	25899.98
548.281	25349.07
548.481	25527.25
548.681	25336.79
548.881	25230.29
549.081	25557.97
549.28	25451.47
549.48	25770.96
549.68	25408.47
549.88	25447.38
550.08	25420.75
550.28	25523.15
550.48	25177.05
550.68	25582.54
550.88	25400.27
551.08	25136.09
551.279	25631.69
551.479	25158.61
551.679	25674.7
551.879	25121.75
552.079	25682.89
552.278	25465.81
552.478	25332.69
552.678	25144.28
552.878	25371.6
553.077	25338.83
553.277	24972.25
553.477	25482.19
553.676	25215.96
553.876	25250.77
554.076	25308.12
554.275	25109.46
554.475	25109.46
554.674	24955.86
554.874	24962.01
555.074	25095.13
555.273	25332.69
555.473	25332.69
555.672	25211.86
555.872	25095.13
556.071	25156.57
556.271	25125.85
556.47	24902.62
556.67	24370.15
556.869	24845.27
557.068	25078.74
557.268	24845.27
557.467	24603.61
557.667	24976.34
557.866	24617.95
558.065	24673.24
558.265	24665.05
558.464	24732.64
558.663	24982.49
558.863	24634.33
559.062	24853.47
559.261	24763.36
559.461	24955.86
559.66	24396.77
559.859	24730.59
560.058	24409.06
560.258	24654.81
560.457	24343.52
560.656	24597.47
560.855	24275.94
561.054	24124.39
561.253	24175.59
561.453	23935.98
561.652	24357.86
561.851	24480.74
562.05	24132.58
562.249	24114.15
562.448	24327.14
562.647	24222.69
562.846	24337.38
563.045	24329.19
563.244	23710.7
563.443	24009.7
563.642	23790.57
563.841	24079.33
564.04	23966.7
564.239	23895.02
564.438	23729.13
564.637	23788.52
564.836	24052.71
565.035	23593.97
565.234	23735.28
565.432	23466.99
565.631	23804.91
565.83	23972.84
566.029	23641.07
566.228	23782.38
566.427	23464.94
566.625	23256.05
566.824	23112.69
567.023	23221.24
567.222	22809.59
567.42	23141.36
567.619	23421.94
567.818	23147.51
568.016	23061.49
568.215	23354.35
568.414	23047.16
568.612	23417.84
568.811	23251.95
569.01	23376.88
569.208	22803.45
569.407	22957.05
569.605	22574.08
569.804	22981.62
570.002	22739.96
570.201	22856.7
570.4	22443.01
570.598	22631.42
570.797	22549.5
570.995	22463.49
571.193	22262.79
571.392	22764.54
571.59	22373.38
571.789	22135.81
571.987	22252.55
572.186	22023.17
572.384	22035.46
572.582	22021.13
572.781	22152.2
572.979	21920.77
573.177	22113.28
573.376	22074.37
573.574	21883.91
573.772	21857.29
573.971	21754.89
574.169	21746.7
574.367	21607.44
574.565	21668.87
574.763	21246.99
574.962	21541.9
575.16	21224.47
575.358	21580.81
575.556	21015.57
575.754	21294.1
575.952	21011.48
576.151	21158.93
576.349	21085.2
576.547	20915.22
576.745	20974.61
576.943	20993.04
577.141	20849.69
577.339	20933.65
577.537	21015.57
577.735	21113.88
577.933	20902.93
578.131	20767.77
578.329	20538.4
578.527	20646.94
578.725	20429.85
578.923	20653.08
579.121	20386.85
579.319	20280.35
579.516	20556.83
579.714	20360.22
579.912	20261.92
580.11	20057.12
580.308	20245.54
580.506	19878.95
580.704	19616.81
580.901	20200.48
581.099	20409.37
581.297	19786.79
581.495	19938.34
581.692	19694.63
581.89	19596.33
582.088	20071.46
582.285	19837.99
582.483	19770.41
582.681	19602.47
582.878	19616.81
583.076	19262.51
583.274	19622.95
583.471	19338.29
583.669	19321.9
583.866	19403.82
584.064	19346.48
584.262	18803.77
584.459	19192.88
584.657	19156.02
584.854	19135.54
585.052	18750.52
585.249	18961.46
585.447	19045.43
585.644	18752.57
585.841	18865.21
586.039	18938.93
586.236	18297.92
586.434	18492.48
586.631	18502.72
586.828	18623.55
587.026	18619.45
587.223	18140.22
587.42	18308.16
587.618	18519.1
587.815	18052.16
588.012	18189.38
588.21	17935.43
588.407	18322.49
588.604	18037.83
588.801	17828.93
588.999	17976.39
589.196	17972.29
589.393	17951.81
589.59	17665.1
589.787	17802.31
589.984	17706.06
590.182	17521.74
590.379	17830.98
590.576	17642.57
590.773	17241.17
590.97	17300.56
591.167	17656.9
591.364	17050.71
591.561	17353.8
591.758	17171.54
591.955	17267.79
592.152	17419.34
592.349	16890.96
592.546	17327.18
592.743	16985.17
592.94	16804.95
593.137	16983.12
593.334	17050.71
593.531	16604.25
593.727	16847.96
593.924	16729.17
594.121	16614.49
594.318	16616.54
594.515	16602.2
594.712	16696.41
594.908	16671.83
595.105	16471.13
595.302	16268.38
595.499	16469.08
595.696	16436.31
595.892	16430.17
596.089	16254.05
596.286	16194.65
596.482	16282.72
596.679	16143.45
596.876	15809.64
597.072	15725.67
597.269	15903.84
597.466	15715.43
597.662	15783.01
597.859	15959.14
598.055	15729.77
598.252	15727.72
598.448	15588.46
598.645	15690.85
598.841	15350.89
599.038	15264.88
599.234	15494.25
599.431	15367.27
599.627	15369.32
599.824	15412.33
600.02	15234.16
600.217	15201.39
600.413	15248.49
600.609	15193.2
600.806	15098.99
601.002	15209.58
601.198	15037.55
601.395	14701.68
601.591	14963.83
601.787	14769.27
601.984	14847.09
602.18	14941.3
602.376	14761.08
602.572	14582.9
602.769	14908.53
602.965	14472.31
603.161	14718.07
603.357	14507.13
603.553	14363.77
603.75	14556.28
603.946	14417.02
604.142	14251.13
604.338	14296.19
604.534	14185.6
604.73	14175.36
604.926	14029.95
605.122	14187.64
605.318	14001.28
605.514	14038.14
605.71	13814.91
605.906	13986.94
606.102	13968.51
606.298	13952.13
606.494	13739.14
606.69	13880.45
606.886	13911.17
607.082	13354.12
607.278	13939.84
607.474	13411.46
607.67	13528.2
607.866	13505.67
608.062	13618.31
608.257	13575.3
608.453	13249.68
608.649	13556.87
608.845	13231.24
609.041	13356.17
609.236	13388.94
609.432	13329.55
609.628	13333.64
609.824	13384.84
610.019	13280.39
610.215	12965.01
610.411	13147.28
610.606	13083.79
610.802	13188.24
610.998	13233.29
611.193	13044.88
611.389	13075.6
611.584	12936.34
611.78	12852.37
611.976	12979.34
612.171	12905.62
612.367	12913.81
612.562	12756.11
612.758	12635.28
612.953	12807.31
613.149	12809.36
613.344	12565.65
613.539	12778.64
613.735	12651.67
613.93	12582.04
614.126	12655.76
614.321	12784.79
614.517	12362.9
614.712	12524.69
614.907	12410.01
615.103	12410.01
615.298	12360.86
615.493	12807.31
615.688	12215.45
615.884	12323.99
616.079	12498.07
616.274	12242.07
616.47	12285.08
616.665	12149.92
616.86	12229.79
617.055	12029.09
617.25	11906.21
617.445	12221.59
617.641	11941.02
617.836	12102.81
618.031	11967.65
618.226	12088.48
618.421	11861.15
618.616	12010.65
618.811	11635.88
619.006	11752.61
619.201	11570.34
619.396	11809.95
619.591	11535.53
619.786	11648.16
619.981	11287.72
620.176	11586.72
620.371	11467.94
620.566	11310.25
620.761	11332.78
620.956	11515.05
621.151	11031.73
621.346	11295.91
621.541	11095.21
621.735	11213.99
621.93	11041.96
622.125	11177.13
622.32	10943.66
622.515	10871.98
622.709	10843.31
622.904	10927.28
623.099	10691.76
623.294	10663.09
623.488	10486.97
623.683	10708.15
623.878	10550.45
624.072	10458.29
624.267	10415.29
624.462	10288.31
624.656	10040.51
624.851	10239.16
625.046	10286.26
625.24	10314.94
625.435	10104
625.629	9907.39
625.824	9952.45
626.018	10060.99
626.213	9936.06
626.407	9671.87
626.602	9690.31
626.796	9735.36
626.991	9516.23
627.185	9747.65
627.38	9563.33
627.574	9403.59
627.768	9512.13
627.963	9245.9
628.157	9395.4
628.352	9249.99
628.546	9168.07
628.74	9168.07
628.935	9049.29
629.129	9082.06
629.323	8846.54
629.517	8807.63
629.712	9120.97
629.906	9215.18
630.1	8785.1
630.294	8762.58
630.489	8705.23
630.683	8789.2
630.877	8611.03
631.071	8496.34
631.265	8332.5
631.459	8424.66
631.653	8516.82
631.848	8461.52
632.042	8486.1
632.236	8547.54
632.43	8336.6
632.624	8357.08
632.818	8189.14
633.012	8117.47
633.206	8412.37
633.4	7974.11
633.594	8010.97
633.788	8092.89
633.982	8047.83
634.176	8166.62
634.369	7943.39
634.563	7806.17
634.757	7709.92
634.951	7916.76
635.145	7775.45
635.339	7892.19
635.533	7578.85
635.726	7691.49
635.92	7603.43
636.114	7486.69
636.308	7369.96
636.501	7431.4
636.695	7302.37
636.889	7326.95
637.083	7242.98
637.276	7214.31
637.47	7197.93
637.664	7052.52
637.857	7372
638.051	7193.83
638.244	7103.72
638.438	7077.1
638.632	7144.68
638.825	6886.64
639.019	7034.09
639.212	6984.94
639.406	6888.68
639.599	6771.95
639.793	6769.9
639.986	6507.76
640.18	6874.35
640.373	6860.01
640.567	6647.02
640.76	6722.8
640.954	6610.16
641.147	6474.99
641.34	6511.86
641.534	6483.19
641.727	6419.7
641.92	6487.28
642.114	6483.19
642.307	6462.71
642.5	6300.92
642.694	6276.34
642.887	6280.44
643.08	6319.35
643.273	6257.91
643.467	6061.3
643.66	6071.54
643.853	6106.36
644.046	5983.48
644.239	6067.45
644.432	5993.72
644.626	6036.73
644.819	5963
645.012	6022.39
645.205	5932.28
645.398	5872.89
645.591	5819.64
645.784	5768.45
645.977	5721.34
646.17	5653.76
646.363	5569.79
646.556	5356.8
646.749	5518.59
646.942	5475.59
647.135	5467.39
647.328	5348.61
647.521	5334.28
647.714	5457.15
647.907	5356.8
648.099	5377.28
648.292	5377.28
648.485	5297.41
648.678	5244.17
648.871	5348.61
649.064	5166.34
649.256	5242.12
649.449	5086.47
649.642	5162.25
649.835	4996.36
650.027	5020.94
650.22	5037.32
650.413	5012.74
650.605	4869.39
650.798	5006.6
650.991	4924.68
651.183	4857.1
651.376	4834.57
651.568	4713.74
651.761	4762.89
651.954	4723.98
652.146	4744.46
652.339	4732.17
652.531	4654.35
652.724	4621.58
652.916	4551.95
653.109	4689.17
653.301	4713.74
653.494	4541.71
653.686	4554
653.879	4635.92
654.071	4582.67
654.263	4492.56
654.456	4427.03
654.648	4300.05
654.84	4396.31
655.033	4304.15
655.225	4394.26
655.417	4300.05
655.61	4293.91
655.802	4275.48
655.994	4205.85
656.186	4255
656.379	4211.99
656.571	4218.13
656.763	4244.76
656.955	3964.18
657.148	4142.36
657.34	4042.01
657.532	4015.38
657.724	4056.34
657.916	3990.81
658.108	3978.52
658.3	4003.1
658.492	3933.47
658.684	3843.35
658.876	3935.51
659.068	3777.82
659.26	3753.24
659.452	3829.02
659.644	3779.87
659.836	3937.56
660.028	3769.63
660.22	3718.43
660.412	3519.78
660.604	3595.55
660.796	3624.22
660.988	3695.9
661.18	3542.3
661.372	3495.2
661.563	3464.48
661.755	3515.68
661.947	3523.87
662.139	3489.06
662.331	3458.34
662.522	3466.53
662.714	3386.66
662.906	3431.71
663.097	3411.23
663.289	3300.64
663.481	3245.35
663.673	3269.92
663.864	3292.45
664.056	3228.96
664.247	3302.69
664.439	3284.26
664.631	3226.92
664.822	3296.55
665.014	3044.65
665.205	3157.29
665.397	3058.98
665.588	3175.72
665.78	3083.56
665.971	3075.37
666.163	3130.66
666.354	2989.35
666.546	3018.02
666.737	2913.58
666.929	3013.93
667.12	2921.77
667.311	2827.56
667.503	2975.02
667.694	2872.62
667.885	2798.89
668.077	2700.59
668.268	2868.52
668.459	2831.66
668.651	2825.51
668.842	2915.62
669.033	2845.99
669.224	2731.31
669.416	2813.23
669.607	2714.92
669.798	2813.23
669.989	2729.26
670.18	2825.51
670.371	2702.64
670.563	2719.02
670.754	2696.49
670.945	2614.57
671.136	2579.76
671.327	2604.33
671.518	2573.61
671.709	2651.44
671.9	2563.37
672.091	2610.48
672.282	2637.1
672.473	2673.96
672.664	2526.51
672.855	2565.42
673.046	2481.46
673.237	2563.37
673.428	2534.7
673.619	2450.74
673.809	2430.26
674	2442.54
674.191	2469.17
674.382	2469.17
674.573	2485.55
674.764	2293.04
674.954	2465.07
675.145	2385.2
675.336	2358.58
675.527	2377.01
675.717	2387.25
675.908	2290.99
676.099	2370.87
676.289	2358.58
676.48	2313.52
676.671	2266.42
676.861	2358.58
677.052	2284.85
677.243	2245.94
677.433	2358.58
677.624	2256.18
677.814	2338.1
678.005	2274.61
678.195	2370.87
678.386	2317.62
678.576	2282.8
678.767	2305.33
678.957	2231.6
679.148	2280.75
679.338	2168.12
679.529	2110.77
679.719	2118.97
679.909	2290.99
680.1	2110.77
680.29	2301.23
680.481	2219.32
680.671	2252.08
680.861	2151.73
681.052	2221.36
681.242	2137.4
681.432	2188.6
681.622	2299.19
681.813	2161.97
682.003	2047.29
682.193	2155.83
682.383	2147.64
682.573	2129.2
682.764	2108.73
682.954	2178.36
683.144	2131.25
683.334	2018.61
683.524	2071.86
683.714	2080.05
683.904	2049.33
684.094	2057.53
684.284	2049.33
684.474	2102.58
684.664	2047.29
684.854	2100.53
685.044	2116.92
685.234	2143.54
685.424	2035
685.614	1998.13
685.804	2110.77
685.994	2032.95
686.184	1994.04
686.374	2061.62
686.564	2094.39
686.753	2067.77
686.943	1983.8
687.133	1944.89
687.323	1942.84
687.513	2055.48
687.702	1983.8
687.892	2004.28
688.082	2071.86
688.272	2024.76
688.461	2043.19
688.651	2071.86
688.841	1989.94
689.03	1948.98
689.22	1957.18
689.41	2010.42
689.599	1994.04
689.789	2030.9
689.979	1881.4
690.168	1924.41
690.358	1893.69
690.547	1948.98
690.737	1957.18
690.926	1936.7
691.116	1899.83
691.305	1942.84
691.495	1903.93
691.684	1819.96
691.874	1883.45
692.063	1961.27
692.252	1856.83
692.442	1846.59
692.631	1877.3
692.82	1951.03
693.01	1899.83
693.199	1983.8
693.388	1914.17
693.578	1793.34
693.767	1764.67
693.956	1832.25
694.146	1842.49
694.335	1756.47
694.524	1813.82
694.713	1877.3
694.902	1891.64
695.092	1809.72
695.281	1776.95
695.47	1795.39
695.659	1701.18
695.848	1776.95
696.037	1729.85
696.226	1746.23
696.415	1770.81
696.604	1754.43
696.793	1727.8
696.982	1731.9
697.171	1742.14
697.36	1809.72
697.549	1637.69
697.738	1662.27
697.927	1819.96
698.116	1768.76
698.305	1684.8
698.494	1690.94
698.683	1670.46
698.872	1723.71
699.061	1631.55
699.25	1600.83
699.438	1609.02
699.627	1627.45
699.816	1787.19
700.005	1637.69
700.193	1631.55
700.382	1672.51
700.571	1535.29
700.76	1664.32
700.948	1686.84
701.137	1662.27
701.326	1770.81
701.514	1682.75
701.703	1697.08
701.892	1590.59
702.08	1649.98
702.269	1625.4
702.457	1652.03
702.646	1570.11
702.834	1580.35
703.023	1559.87
703.212	1582.4
703.4	1574.21
703.589	1580.35
703.777	1658.17
703.965	1570.11
704.154	1660.22
704.342	1535.29
704.531	1592.64
704.719	1563.97
704.907	1594.68
705.096	1508.67
705.284	1596.73
705.472	1510.72
705.661	1527.1
705.849	1570.11
706.037	1551.68
706.226	1664.32
706.414	1473.85
706.602	1502.53
706.79	1459.52
706.979	1549.63
707.167	1449.28
707.355	1424.7
707.543	1428.8
707.731	1422.66
707.919	1594.68
708.107	1426.75
708.296	1490.24
708.484	1441.09
708.672	1475.9
708.86	1469.76
709.048	1488.19
709.236	1465.66
709.424	1529.15
709.612	1373.5
709.8	1443.14
709.988	1350.98
710.176	1434.94
710.364	1416.51
710.551	1355.07
710.739	1408.32
710.927	1473.85
711.115	1480
711.303	1461.57
711.491	1410.37
711.679	1348.93
711.866	1400.13
712.054	1371.46
712.242	1406.27
712.43	1310.02
712.617	1342.78
712.805	1404.22
712.993	1244.48
713.181	1287.49
713.368	1361.22
713.556	1355.07
713.744	1332.54
713.931	1273.15
714.119	1420.61
714.306	1426.75
714.494	1301.83
714.682	1400.13
714.869	1355.07
715.057	1396.03
715.244	1320.26
715.432	1271.11
715.619	1350.98
715.807	1350.98
715.994	1332.54
716.182	1254.72
716.369	1250.63
716.556	1267.01
716.744	1277.25
716.931	1211.71
717.119	1359.17
717.306	1267.01
717.493	1328.45
717.681	1279.3
717.868	1262.91
718.055	1236.29
718.242	1293.63
718.43	1293.63
718.617	1295.68
718.804	1246.53
718.991	1267.01
719.179	1328.45
719.366	1269.06
719.553	1232.19
719.74	1205.57
719.927	1107.27
720.114	1244.48
720.301	1336.64
720.488	1166.66
720.676	1250.63
720.863	1174.85
721.05	1160.52
721.237	1174.85
721.424	1256.77
721.611	1164.61
721.798	1234.24
721.985	1119.56
722.172	1178.95
722.358	1174.85
722.545	1162.56
722.732	1254.72
722.919	1240.39
723.106	1240.39
723.293	1162.56
723.48	1154.37
723.667	1178.95
723.853	1195.33
724.04	1158.47
724.227	1097.03
724.414	1154.37
724.6	1129.8
724.787	1066.31
724.974	1211.71
725.161	1021.25
725.347	1142.08
725.534	1076.55
725.72	1109.32
725.907	1125.7
726.094	1193.28
726.28	1060.17
726.467	1158.47
726.653	1146.18
726.84	1123.65
727.027	1154.37
727.213	1031.49
727.4	1123.65
727.586	1129.8
727.773	1043.78
727.959	1090.88
728.145	1121.6
728.332	1088.84
728.518	1140.04
728.705	1107.27
728.891	1058.12
729.077	980.29
729.264	1150.28
729.45	1035.59
729.636	1031.49
729.823	1119.56
730.009	1113.41
730.195	1066.31
730.382	1062.21
730.568	1123.65
730.754	1133.89
730.94	1133.89
731.126	1101.12
731.313	1066.31
731.499	1080.64
731.685	1099.08
731.871	1023.3
732.057	1121.6
732.243	1078.6
732.429	1082.69
732.615	1056.07
732.801	1123.65
732.987	959.81
733.173	1068.36
733.359	1074.5
733.545	1029.45
733.731	1027.4
733.917	1115.46
734.103	982.34
734.289	1064.26
734.475	1002.82
734.661	1033.54
734.847	1074.5
735.033	1027.4
735.219	1090.88
735.404	1086.79
735.59	996.68
735.776	949.57
735.962	982.34
736.148	1039.69
736.333	1025.35
736.519	1025.35
736.705	937.29
736.89	1017.16
737.076	943.43
737.262	1025.35
737.447	957.77
737.633	978.25
737.819	959.81
738.004	1019.21
738.19	945.48
738.375	1054.02
738.561	927.05
738.747	945.48
738.932	1023.3
739.118	920.9
739.303	933.19
739.489	945.48
739.674	963.91
739.859	959.81
740.045	1002.82
740.23	994.63
740.416	994.63
740.601	908.62
740.786	916.81
740.972	972.1
741.157	947.53
741.342	951.62
741.528	836.94
741.713	900.42
741.898	945.48
742.084	980.29
742.269	943.43
742.454	968.01
742.639	978.25
742.824	929.1
743.01	925
743.195	965.96
743.38	974.15
743.565	918.86
743.75	904.52
743.935	841.03
744.12	867.66
744.305	922.95
744.49	931.14
744.675	851.27
744.86	939.33
745.045	834.89
745.23	851.27
745.415	804.17
745.6	892.23
745.785	838.98
745.97	802.12
746.155	859.46
746.34	871.75
746.525	925
746.71	834.89
746.895	818.5
747.079	951.62
747.264	830.79
747.449	777.55
747.634	802.12
747.819	894.28
748.003	810.31
748.188	812.36
748.373	800.07
748.557	843.08
748.742	806.22
748.927	871.75
749.111	765.26
749.296	748.87
749.481	822.6
749.665	750.92
749.85	703.82
750.034	748.87
750.219	738.63
750.404	814.41
750.588	761.16
750.773	787.79
750.957	763.21
751.141	769.35
751.326	701.77
751.51	644.43
751.695	703.82
751.879	673.1
752.064	771.4
752.248	656.72
752.432	722.25
752.617	636.24
752.801	705.87
752.985	605.52
753.17	683.34
753.354	697.67
753.538	691.53
753.722	675.15
753.907	691.53
754.091	621.9
754.275	658.76
754.459	582.99
754.643	623.95
754.828	687.43
755.012	695.63
755.196	652.62
755.38	646.48
755.564	662.86
755.748	716.11
755.932	591.18
756.116	531.79
756.3	646.48
756.484	640.33
756.668	554.32
756.852	578.89
757.036	568.65
757.22	603.47
757.404	580.94
757.588	613.71
757.772	582.99
757.956	582.99
758.14	576.84
758.323	556.36
758.507	572.75
758.691	626
758.875	632.14
759.059	535.89
759.242	478.54
759.426	576.84
759.61	562.51
759.794	476.49
759.977	593.23
760.161	554.32
760.345	509.26
760.528	603.47
760.712	582.99
760.895	568.65
761.079	535.89
761.263	515.41
761.446	474.45
761.63	601.42
761.813	509.26
761.997	464.21
762.18	564.56
762.364	533.84
762.547	529.74
762.731	451.92
762.914	582.99
763.098	554.32
763.281	466.25
763.464	531.79
763.648	527.69
763.831	464.21
764.015	476.49
764.198	482.64
764.381	486.73
764.564	449.87
764.748	492.88
764.931	392.53
765.114	437.58
765.297	511.31
765.481	482.64
765.664	435.53
765.847	476.49
766.03	458.06
766.213	464.21
766.397	476.49
766.58	404.82
766.763	556.36
766.946	429.39
767.129	499.02
767.312	494.93
767.495	408.91
767.678	513.36
767.861	466.25
768.044	345.42
768.227	474.45
768.41	443.73
768.593	341.33
768.776	359.76
768.959	456.01
769.142	402.77
769.324	447.82
769.507	453.97
769.69	355.66
769.873	404.82
770.056	478.54
770.239	425.29
770.421	445.77
770.604	380.24
770.787	433.49
770.97	415.05
771.152	390.48
771.335	429.39
771.518	437.58
771.7	349.52
771.883	343.38
772.066	386.38
772.248	408.91
772.431	343.38
772.613	329.04
772.796	400.72
772.978	437.58
773.161	408.91
773.343	396.62
773.526	326.99
773.708	363.86
773.891	357.71
774.073	333.14
774.256	361.81
774.438	298.32
774.621	318.8
774.803	390.48
774.985	404.82
775.168	357.71
775.35	320.85
775.532	326.99
775.715	341.33
775.897	361.81
776.079	404.82
776.261	400.72
776.444	359.76
776.626	343.38
776.808	310.61
776.99	378.19
777.173	296.27
777.355	331.09
777.537	347.47
777.719	286.03
777.901	245.07
778.083	269.65
778.265	353.62
778.447	308.56
778.629	243.03
778.811	212.31
778.993	271.7
779.175	306.51
779.357	300.37
779.539	337.23
779.721	290.13
779.903	361.81
780.085	322.9
780.267	322.9
780.449	296.27
780.631	335.18
780.812	247.12
780.994	310.61
781.176	271.7
781.358	300.37
781.54	290.13
781.721	294.22
781.903	261.46
782.085	279.89
782.267	376.14
782.448	288.08
782.63	277.84
782.812	281.94
782.993	224.59
783.175	247.12
783.357	220.5
783.538	286.03
783.72	271.7
783.901	265.55
784.083	216.4
784.264	306.51
784.446	224.59
784.627	267.6
784.809	230.74
784.99	245.07
785.172	210.26
785.353	232.79
785.535	267.6
785.716	230.74
785.897	185.68
786.079	197.97
786.26	263.51
786.441	265.55
786.623	187.73
786.804	240.98
786.985	275.79
787.167	240.98
787.348	324.94
787.529	275.79
787.71	230.74
787.891	247.12
788.073	171.35
788.254	167.25
788.435	240.98
788.616	261.46
788.797	218.45
788.978	163.15
789.159	154.96
789.34	310.61
789.522	169.3
789.703	134.48
789.884	181.59
790.065	277.84
790.246	195.92
790.427	263.51
790.607	136.53
790.788	206.16
790.969	171.35
791.15	150.87
791.331	204.11
791.512	107.86
791.693	159.06
791.874	120.15
792.054	216.4
792.235	134.48
792.416	91.48
792.597	122.2
792.778	118.1
792.958	161.11
793.139	173.39
793.32	152.91
793.5	130.39
793.681	150.87
793.862	185.68
794.042	154.96
794.223	154.96
794.404	154.96
794.584	183.63
794.765	154.96
794.945	89.43
795.126	171.35
795.306	77.14
795.487	114
795.667	77.14
795.848	177.49
796.028	154.96
796.209	134.48
796.389	144.72
796.57	116.05
796.75	189.78
796.93	91.48
797.111	157.01
797.291	148.82
797.471	175.44
797.652	163.15
797.832	189.78
798.012	185.68
798.192	179.54
798.373	202.07
798.553	126.29
798.733	157.01
798.913	191.83
799.093	136.53
799.274	142.68
799.454	159.06
799.634	97.62
799.814	134.48
799.994	189.78
800.174	60.76
800.354	120.15
800.534	50.52
800.714	185.68
800.894	173.39
801.074	60.76
801.254	124.24
801.434	120.15
801.614	81.24
801.794	138.58
801.974	322.9
802.154	146.77
802.334	138.58
802.514	81.24
802.693	95.57
802.873	140.63
803.053	138.58
803.233	97.62
803.413	109.91
803.592	128.34
803.772	167.25
803.952	185.68
804.131	132.44
804.311	126.29
804.491	83.28
804.67	48.47
804.85	89.43
805.03	128.34
805.209	97.62
805.389	52.56
805.568	95.57
805.748	99.67
805.928	122.2
806.107	120.15
806.287	58.71
806.466	140.63
806.646	109.91
806.825	105.81
807.004	79.19
807.184	107.86
807.363	134.48
807.543	97.62
807.722	136.53
807.901	99.67
808.081	114
808.26	101.72
808.439	118.1
808.619	107.86
808.798	89.43
808.977	85.33
809.156	177.49
809.336	66.9
809.515	173.39
809.694	142.68
809.873	111.96
810.052	91.48
810.231	64.85
810.411	167.25
810.59	95.57
810.769	58.71
810.948	116.05
811.127	97.62
811.306	81.24
811.485	120.15
811.664	122.2
811.843	159.06
812.022	144.72
812.201	99.67
812.38	138.58
812.559	103.76
812.737	56.66
812.916	64.85
813.095	130.39
813.274	85.33
813.453	120.15
813.632	99.67
813.811	118.1
813.989	11.61
814.168	116.05
814.347	130.39
814.526	114
814.704	60.76
814.883	140.63
815.062	54.61
815.24	19.8
815.419	85.33
815.598	60.76
815.776	44.37
815.955	68.95
816.133	7.51
816.312	48.47
816.49	56.66
816.669	179.54
816.847	7.51
817.026	68.95
817.204	32.08
817.383	58.71
817.561	15.7
817.74	40.28
817.918	-0.68
818.097	107.86
818.275	52.56
818.453	68.95
818.632	132.44
818.81	54.61
818.988	50.52
819.167	91.48
819.345	1.37
819.523	62.8
819.701	56.66
819.879	68.95
820.058	9.56
820.236	114
820.414	64.85
820.592	154.96
820.77	1.37
820.948	95.57
821.127	75.09
821.305	87.38
821.483	25.94
821.661	111.96
821.839	50.52
822.017	73.04
822.195	107.86
822.373	66.9
822.551	75.09
822.729	62.8
822.907	56.66
823.085	73.04
823.262	15.7
823.44	52.56
823.618	21.85
823.796	83.28
823.974	79.19
824.152	54.61
824.329	17.75
824.507	38.23
824.685	13.65
824.863	7.51
825.04	50.52
825.218	79.19
825.396	1.37
825.574	73.04
825.751	60.76
825.929	71
826.107	36.18
826.284	15.7
826.462	19.8
826.639	116.05
826.817	40.28
826.994	30.04
827.172	75.09
827.349	128.34
827.527	48.47
827.704	42.32
827.882	13.65
828.059	83.28
828.237	23.89
828.414	46.42
828.591	27.99
828.769	5.46
828.946	32.08
829.124	46.42
829.301	56.66
829.478	15.7
829.655	122.2
829.833	97.62
830.01	71
830.187	44.37
830.364	71
830.542	83.28
830.719	34.13
830.896	81.24
831.073	-0.68
831.25	32.08
831.427	91.48
831.604	101.72
831.782	50.52
831.959	107.86
832.136	58.71
832.313	89.43
832.49	85.33
832.667	58.71
832.844	23.89
833.021	52.56
833.198	32.08
833.374	44.37
833.551	85.33
833.728	19.8
833.905	62.8
834.082	54.61
834.259	68.95
834.436	32.08
834.612	-12.97
834.789	42.32
834.966	40.28
835.143	42.32
835.319	-2.73
835.496	1.37
835.673	17.75
835.85	44.37
836.026	21.85
836.203	34.13
836.38	77.14
836.556	130.39
836.733	68.95
836.909	114
837.086	34.13
837.262	30.04
837.439	17.75
837.616	17.75
837.792	42.32
837.968	68.95
838.145	-21.16
838.321	17.75
838.498	89.43
838.674	3.41
838.851	56.66
839.027	81.24
839.203	46.42
839.38	30.04
839.556	64.85
839.732	34.13
839.909	38.23
840.085	107.86
840.261	58.71
840.437	44.37
840.614	105.81
840.79	23.89
840.966	34.13
841.142	32.08
841.318	-10.92
841.494	75.09
841.671	44.37
841.847	-17.07
842.023	-53.93
842.199	7.51
842.375	-17.07
842.551	30.04
842.727	11.61
842.903	17.75
843.079	-6.83
843.255	-0.68
843.431	21.85
843.607	32.08
843.783	15.7
843.959	56.66
844.134	58.71
844.31	48.47
844.486	11.61
844.662	9.56
844.838	56.66
845.013	-29.35
845.189	114
845.365	103.76
845.541	54.61
845.716	-10.92
845.892	40.28
846.068	77.14
846.244	36.18
846.419	38.23
846.595	54.61
846.77	25.94
846.946	7.51
847.122	-12.97
847.297	50.52
847.473	64.85
847.648	-17.07
847.824	-29.35
847.999	-35.5
848.175	48.47
848.35	38.23
848.526	15.7
848.701	21.85
848.876	34.13
849.052	13.65
849.227	32.08
849.403	60.76
849.578	7.51
849.753	-47.79
849.929	77.14
850.104	-10.92
850.279	42.32
850.454	66.9
850.63	95.57
850.805	66.9
850.98	38.23
851.155	-12.97
851.33	27.99
851.505	66.9
851.681	34.13
851.856	9.56
852.031	-21.16
852.206	38.23
852.381	-2.73
852.556	68.95
852.731	25.94
852.906	89.43
853.081	-31.4
853.256	21.85
853.431	66.9
853.606	7.51
853.781	1.37
853.956	9.56
854.131	73.04
854.305	40.28
854.48	27.99
854.655	-74.41
854.83	34.13
855.005	19.8
855.18	-35.5
855.354	-51.88
855.529	44.37
855.704	17.75
855.879	-8.87
856.053	58.71
856.228	58.71
856.403	40.28
856.577	-0.68
856.752	48.47
856.926	-8.87
857.101	7.51
857.276	-4.78
857.45	68.95
857.625	25.94
857.799	42.32
857.974	21.85
858.148	9.56
858.323	-10.92
858.497	-21.16
858.672	-2.73
858.846	73.04
859.02	34.13
859.195	11.61
859.369	23.89
859.543	13.65
859.718	9.56
859.892	-19.11
860.066	-6.83
860.241	40.28
860.415	-53.93
860.589	-62.12
860.763	64.85
860.938	93.52
861.112	66.9
861.286	48.47
861.46	-33.45
861.634	-29.35
861.808	-37.55
861.982	50.52
862.157	11.61
862.331	-17.07
862.505	85.33
862.679	15.7
862.853	-35.5
863.027	42.32
863.201	11.61
863.375	-15.02
863.549	9.56
863.722	23.89
863.896	105.81
864.07	-21.16
864.244	48.47
864.418	-62.12
864.592	1.37
864.766	7.51
864.939	52.56
865.113	-0.68
865.287	-17.07
865.461	-0.68
865.634	44.37
865.808	54.61
865.982	50.52
866.156	-2.73
866.329	23.89
866.503	-6.83
866.676	25.94
866.85	25.94
867.024	46.42
867.197	30.04
867.371	64.85
867.544	-35.5
867.718	48.47
867.891	36.18
868.065	17.75
868.238	-25.26
868.412	15.7
868.585	25.94
868.759	48.47
868.932	9.56
869.105	-0.68
869.279	32.08
869.452	-33.45
869.625	21.85
869.799	-15.02
869.972	17.75
870.145	30.04
870.319	5.46
870.492	40.28
870.665	36.18
870.838	36.18
871.011	23.89
871.185	25.94
871.358	-6.83
871.531	-4.78
871.704	25.94
871.877	-15.02
872.05	52.56
872.223	81.24
872.396	36.18
872.569	-23.21
872.742	19.8
872.915	-35.5
873.088	77.14
873.261	30.04
873.434	-8.87
873.607	27.99
873.78	58.71
873.953	-35.5
874.126	44.37
874.299	99.67
874.471	9.56
874.644	13.65
874.817	-17.07
874.99	36.18
875.163	25.94
875.335	-47.79
875.508	-0.68
875.681	38.23
875.853	-2.73
876.026	56.66
876.199	15.7
876.371	-35.5
876.544	19.8
876.717	9.56
876.889	66.9
877.062	7.51
877.234	1.37
877.407	-10.92
877.579	-2.73
877.752	40.28
877.924	-25.26
878.097	-8.87
878.269	73.04
878.442	17.75
878.614	25.94
878.786	54.61
878.959	75.09
879.131	15.7
879.303	9.56
879.476	52.56
879.648	27.99
879.82	23.89
879.993	19.8
880.165	-6.83
880.337	-15.02
880.509	52.56
880.681	-8.87
880.854	54.61
881.026	-10.92
881.198	34.13
881.37	81.24
881.542	-12.97
881.714	46.42
881.886	36.18
882.058	27.99
882.23	-2.73
882.402	19.8
882.574	17.75
882.746	-37.55
882.918	30.04
883.09	-6.83
883.262	17.75
883.434	17.75
883.606	25.94
883.778	-8.87
883.95	77.14
884.122	32.08
884.293	56.66
884.465	64.85
884.637	27.99
884.809	21.85
884.98	19.8
885.152	58.71
885.324	40.28
885.496	-15.02
885.667	54.61
885.839	5.46
886.011	32.08
886.182	23.89
886.354	58.71
886.525	38.23
886.697	44.37
886.869	21.85
887.04	101.72
887.212	1.37
887.383	-15.02
887.555	19.8
887.726	9.56
887.897	25.94
888.069	-12.97
888.24	25.94
888.412	-15.02
888.583	34.13
888.754	7.51
888.926	23.89
889.097	27.99
889.268	99.67
889.44	-6.83
889.611	40.28
889.782	64.85
889.953	-33.45
890.125	-66.22
890.296	48.47
890.467	-10.92
890.638	13.65
890.809	1.37
890.98	5.46
891.151	40.28
891.323	-43.69
891.494	27.99
891.665	-2.73
891.836	19.8
892.007	-49.83
892.178	62.8
892.349	-0.68
892.52	25.94
892.691	13.65
892.862	23.89
893.032	-23.21
893.203	-4.78
893.374	-23.21
893.545	27.99
893.716	19.8
893.887	75.09
894.057	7.51
894.228	71
894.399	30.04
894.57	-8.87
894.74	56.66
894.911	15.7
895.082	7.51
895.253	-27.31
895.423	38.23
895.594	9.56
895.764	-10.92
895.935	21.85
896.106	-4.78
896.276	32.08
896.447	-33.45
896.617	-51.88
896.788	-8.87
896.958	-64.17
897.129	71
897.299	17.75
897.47	21.85
897.64	-35.5
897.81	-53.93
897.981	13.65
898.151	-23.21
898.322	5.46
898.492	19.8
898.662	-35.5
898.832	11.61
899.003	-51.88
899.173	27.99
899.343	3.41
899.513	-12.97
