Data from USB4F104151__38__12-53-44-595.txt Node

Date: Fri Mar 14 12:53:44 EDT 2025
User: louis
Spectrometer: USB4F10415
Trigger mode: 4
Integration Time (sec): 1.000000E-2
Scans to average: 1
Electric dark correction enabled: true
Nonlinearity correction enabled: false
Boxcar width: 0
XAxis mode: Wavelengths
Number of Pixels in Spectrum: 3648
>>>>>Begin Spectral Data<<<<<
178.204	-40.45
178.424	-40.45
178.644	-40.45
178.864	-101.89
179.084	-126.46
179.304	49.66
179.524	23.04
179.744	45.57
179.964	16.9
180.184	-11.78
180.404	-26.11
180.624	6.66
180.844	-7.68
181.064	-83.45
181.283	20.99
181.503	-26.11
181.723	-7.68
181.943	8.7
182.163	-26.11
182.383	12.8
182.602	-15.87
182.822	37.38
183.042	27.14
183.262	-1.54
183.482	41.47
183.701	-1.54
183.921	0.51
184.141	16.9
184.361	70.14
184.58	-40.45
184.8	-15.87
185.02	39.42
185.239	14.85
185.459	43.52
185.679	14.85
185.898	25.09
186.118	8.7
186.338	47.62
186.557	18.94
186.777	-9.73
186.997	-13.82
187.216	12.8
187.436	23.04
187.655	-48.64
187.875	-7.68
188.095	14.85
188.314	72.19
188.534	14.85
188.753	10.75
188.973	-9.73
189.192	49.66
189.412	16.9
189.631	-30.21
189.851	-13.82
190.07	25.09
190.29	37.38
190.509	-46.59
190.729	-83.45
190.948	18.94
191.168	68.09
191.387	-17.92
191.607	-11.78
191.826	4.61
192.045	4.61
192.265	-26.11
192.484	-22.02
192.704	-11.78
192.923	-26.11
193.142	-15.87
193.362	-50.69
193.581	-44.54
193.8	18.94
194.02	-30.21
194.239	-38.4
194.458	0.51
194.678	-42.5
194.897	57.86
195.116	-11.78
195.335	-15.87
195.555	29.18
195.774	-3.58
195.993	20.99
196.212	12.8
196.432	23.04
196.651	-56.83
196.87	-67.07
197.089	29.18
197.308	-62.98
197.528	-9.73
197.747	-40.45
197.966	6.66
198.185	14.85
198.404	59.9
198.623	49.66
198.842	-7.68
199.062	6.66
199.281	10.75
199.5	-5.63
199.719	-52.74
199.938	12.8
200.157	14.85
200.376	-7.68
200.595	37.38
200.814	33.28
201.033	4.61
201.252	-38.4
201.471	-26.11
201.69	55.81
201.909	18.94
202.128	-1.54
202.347	47.62
202.566	18.94
202.785	-46.59
203.004	39.42
203.223	39.42
203.442	94.72
203.661	-24.06
203.879	18.94
204.098	-19.97
204.317	-83.45
204.536	2.56
204.755	14.85
204.974	33.28
205.193	8.7
205.411	16.9
205.63	6.66
205.849	33.28
206.068	-30.21
206.287	25.09
206.505	-13.82
206.724	23.04
206.943	37.38
207.162	27.14
207.381	-34.3
207.599	72.19
207.818	12.8
208.037	20.99
208.255	-24.06
208.474	37.38
208.693	29.18
208.911	-24.06
209.13	-15.87
209.349	-17.92
209.567	14.85
209.786	-9.73
210.005	0.51
210.223	-48.64
210.442	-7.68
210.661	37.38
210.879	33.28
211.098	74.24
211.316	35.33
211.535	-15.87
211.753	-1.54
211.972	16.9
212.191	-15.87
212.409	82.43
212.628	23.04
212.846	-54.78
213.065	-50.69
213.283	47.62
213.502	-15.87
213.72	31.23
213.938	55.81
214.157	39.42
214.375	-11.78
214.594	-11.78
214.812	-44.54
215.031	-11.78
215.249	37.38
215.467	-15.87
215.686	-34.3
215.904	86.53
216.122	25.09
216.341	68.09
216.559	2.56
216.778	53.76
216.996	68.09
217.214	-3.58
217.432	-42.5
217.651	31.23
217.869	-40.45
218.087	23.04
218.306	-3.58
218.524	4.61
218.742	-28.16
218.96	59.9
219.179	-3.58
219.397	70.14
219.615	4.61
219.833	76.29
220.051	8.7
220.27	14.85
220.488	27.14
220.706	-50.69
220.924	76.29
221.142	-5.63
221.36	35.33
221.578	8.7
221.796	37.38
222.015	16.9
222.233	12.8
222.451	41.47
222.669	23.04
222.887	-13.82
223.105	-24.06
223.323	-56.83
223.541	23.04
223.759	39.42
223.977	-71.17
224.195	29.18
224.413	92.67
224.631	-30.21
224.849	57.86
225.067	6.66
225.285	-28.16
225.503	-24.06
225.721	-1.54
225.939	-7.68
226.157	84.48
226.375	84.48
226.592	27.14
226.81	47.62
227.028	0.51
227.246	-3.58
227.464	-46.59
227.682	10.75
227.9	-15.87
228.117	31.23
228.335	10.75
228.553	18.94
228.771	-32.26
228.989	-15.87
229.206	-3.58
229.424	-13.82
229.642	4.61
229.86	43.52
230.077	66.05
230.295	18.94
230.513	-17.92
230.731	8.7
230.948	8.7
231.166	10.75
231.384	25.09
231.601	39.42
231.819	61.95
232.037	-3.58
232.254	-71.17
232.472	-1.54
232.689	-19.97
232.907	14.85
233.125	-7.68
233.342	-13.82
233.56	-67.07
233.777	78.33
233.995	-60.93
234.213	-1.54
234.43	-34.3
234.648	39.42
234.865	18.94
235.083	57.86
235.3	-60.93
235.518	-28.16
235.735	-36.35
235.953	-9.73
236.17	33.28
236.388	33.28
236.605	33.28
236.822	8.7
237.04	-42.5
237.257	18.94
237.475	-7.68
237.692	49.66
237.909	-22.02
238.127	-46.59
238.344	74.24
238.562	47.62
238.779	-54.78
238.996	33.28
239.214	-32.26
239.431	2.56
239.648	-34.3
239.865	-40.45
240.083	-34.3
240.3	-3.58
240.517	-40.45
240.735	-1.54
240.952	23.04
241.169	6.66
241.386	20.99
241.603	64
241.821	27.14
242.038	-7.68
242.255	-28.16
242.472	8.7
242.689	59.9
242.907	-15.87
243.124	-7.68
243.341	-22.02
243.558	33.28
243.775	-46.59
243.992	23.04
244.209	113.15
244.426	-28.16
244.643	-11.78
244.86	-30.21
245.078	-56.83
245.295	23.04
245.512	18.94
245.729	12.8
245.946	8.7
246.163	-26.11
246.38	0.51
246.597	12.8
246.814	37.38
247.031	6.66
247.248	25.09
247.464	20.99
247.681	18.94
247.898	-1.54
248.115	41.47
248.332	-24.06
248.549	-7.68
248.766	-9.73
248.983	4.61
249.2	39.42
249.417	-7.68
249.633	-54.78
249.85	-46.59
250.067	12.8
250.284	57.86
250.501	68.09
250.717	61.95
250.934	-22.02
251.151	27.14
251.368	49.66
251.585	18.94
251.801	23.04
252.018	64
252.235	43.52
252.451	-40.45
252.668	-19.97
252.885	-11.78
253.102	-19.97
253.318	-34.3
253.535	18.94
253.752	35.33
253.968	2.56
254.185	-67.07
254.401	14.85
254.618	25.09
254.835	37.38
255.051	23.04
255.268	27.14
255.484	66.05
255.701	35.33
255.917	18.94
256.134	51.71
256.351	25.09
256.567	-36.35
256.784	14.85
257	-24.06
257.217	8.7
257.433	-3.58
257.65	-87.55
257.866	55.81
258.082	-26.11
258.299	-3.58
258.515	-9.73
258.732	39.42
258.948	29.18
259.165	41.47
259.381	39.42
259.597	53.76
259.814	8.7
260.03	-79.36
260.246	-36.35
260.463	-60.93
260.679	25.09
260.895	-1.54
261.112	8.7
261.328	-44.54
261.544	18.94
261.761	92.67
261.977	14.85
262.193	-11.78
262.409	-32.26
262.626	74.24
262.842	-11.78
263.058	14.85
263.274	31.23
263.49	-15.87
263.707	6.66
263.923	-7.68
264.139	-15.87
264.355	-15.87
264.571	2.56
264.787	47.62
265.004	29.18
265.22	27.14
265.436	49.66
265.652	78.33
265.868	82.43
266.084	12.8
266.3	80.38
266.516	16.9
266.732	-17.92
266.948	-34.3
267.164	-46.59
267.38	-13.82
267.596	39.42
267.812	27.14
268.028	16.9
268.244	-13.82
268.46	66.05
268.676	55.81
268.892	18.94
269.108	-22.02
269.324	33.28
269.54	29.18
269.756	37.38
269.972	-5.63
270.188	-9.73
270.403	-9.73
270.619	2.56
270.835	20.99
271.051	23.04
271.267	-50.69
271.483	6.66
271.698	41.47
271.914	27.14
272.13	37.38
272.346	-28.16
272.562	-48.64
272.777	-9.73
272.993	-9.73
273.209	20.99
273.425	-9.73
273.64	12.8
273.856	-15.87
274.072	2.56
274.287	-22.02
274.503	12.8
274.719	29.18
274.934	14.85
275.15	8.7
275.366	49.66
275.581	16.9
275.797	20.99
276.012	-30.21
276.228	-13.82
276.444	-26.11
276.659	49.66
276.875	-30.21
277.09	4.61
277.306	18.94
277.521	-38.4
277.737	-17.92
277.952	59.9
278.168	10.75
278.383	4.61
278.599	-77.31
278.814	18.94
279.03	4.61
279.245	35.33
279.461	37.38
279.676	86.53
279.892	31.23
280.107	-32.26
280.322	45.57
280.538	10.75
280.753	-34.3
280.969	57.86
281.184	-17.92
281.399	29.18
281.615	-3.58
281.83	53.76
282.045	55.81
282.26	-19.97
282.476	-36.35
282.691	37.38
282.906	55.81
283.122	35.33
283.337	-24.06
283.552	47.62
283.767	-36.35
283.983	-15.87
284.198	68.09
284.413	27.14
284.628	64
284.843	10.75
285.058	57.86
285.274	25.09
285.489	-56.83
285.704	-9.73
285.919	-40.45
286.134	12.8
286.349	41.47
286.564	35.33
286.779	-1.54
286.995	33.28
287.21	-1.54
287.425	43.52
287.64	12.8
287.855	2.56
288.07	-9.73
288.285	-9.73
288.5	-32.26
288.715	88.57
288.93	20.99
289.145	33.28
289.36	23.04
289.575	78.33
289.79	55.81
290.004	4.61
290.219	51.71
290.434	66.05
290.649	-17.92
290.864	25.09
291.079	25.09
291.294	4.61
291.509	14.85
291.724	-7.68
291.938	8.7
292.153	23.04
292.368	-1.54
292.583	18.94
292.798	-34.3
293.012	14.85
293.227	16.9
293.442	-3.58
293.657	39.42
293.871	-40.45
294.086	41.47
294.301	102.91
294.516	59.9
294.73	31.23
294.945	6.66
295.16	25.09
295.374	23.04
295.589	37.38
295.804	55.81
296.018	37.38
296.233	51.71
296.447	-13.82
296.662	-17.92
296.877	-62.98
297.091	33.28
297.306	-30.21
297.52	20.99
297.735	64
297.949	14.85
298.164	47.62
298.378	-5.63
298.593	39.42
298.807	-44.54
299.022	51.71
299.236	64
299.451	6.66
299.665	35.33
299.88	39.42
300.094	6.66
300.309	-1.54
300.523	8.7
300.737	-42.5
300.952	-1.54
301.166	-15.87
301.381	10.75
301.595	33.28
301.809	51.71
302.024	-34.3
302.238	12.8
302.452	0.51
302.667	-32.26
302.881	80.38
303.095	16.9
303.309	2.56
303.524	39.42
303.738	-32.26
303.952	-44.54
304.166	-7.68
304.381	-56.83
304.595	23.04
304.809	84.48
305.023	-3.58
305.237	4.61
305.452	-15.87
305.666	-19.97
305.88	23.04
306.094	43.52
306.308	55.81
306.522	2.56
306.736	29.18
306.95	-24.06
307.164	18.94
307.379	84.48
307.593	-54.78
307.807	29.18
308.021	84.48
308.235	20.99
308.449	39.42
308.663	-9.73
308.877	82.43
309.091	31.23
309.305	49.66
309.519	-65.02
309.733	14.85
309.947	-56.83
310.161	39.42
310.374	27.14
310.588	84.48
310.802	31.23
311.016	55.81
311.23	55.81
311.444	4.61
311.658	16.9
311.872	41.47
312.085	-36.35
312.299	25.09
312.513	-11.78
312.727	-9.73
312.941	31.23
313.154	55.81
313.368	-9.73
313.582	14.85
313.796	29.18
314.009	2.56
314.223	-17.92
314.437	-1.54
314.651	45.57
314.864	8.7
315.078	-19.97
315.292	27.14
315.505	-26.11
315.719	51.71
315.933	-91.65
316.146	-9.73
316.36	-13.82
316.573	16.9
316.787	57.86
317.001	66.05
317.214	23.04
317.428	74.24
317.641	6.66
317.855	-46.59
318.068	57.86
318.282	25.09
318.495	86.53
318.709	100.86
318.922	14.85
319.136	68.09
319.349	31.23
319.563	64
319.776	27.14
319.99	-11.78
320.203	82.43
320.417	23.04
320.63	20.99
320.843	68.09
321.057	84.48
321.27	-26.11
321.483	25.09
321.697	12.8
321.91	-26.11
322.124	-5.63
322.337	-15.87
322.55	-5.63
322.763	27.14
322.977	27.14
323.19	-42.5
323.403	12.8
323.617	35.33
323.83	131.58
324.043	-62.98
324.256	8.7
324.469	39.42
324.683	14.85
324.896	-7.68
325.109	29.18
325.322	31.23
325.535	-13.82
325.748	16.9
325.962	78.33
326.175	23.04
326.388	27.14
326.601	49.66
326.814	49.66
327.027	39.42
327.24	64
327.453	-28.16
327.666	4.61
327.879	66.05
328.092	33.28
328.305	41.47
328.518	55.81
328.731	23.04
328.944	-9.73
329.157	6.66
329.37	37.38
329.583	12.8
329.796	-13.82
330.009	-32.26
330.222	25.09
330.435	-15.87
330.648	98.81
330.861	41.47
331.073	43.52
331.286	43.52
331.499	18.94
331.712	-36.35
331.925	74.24
332.138	23.04
332.35	8.7
332.563	-15.87
332.776	-17.92
332.989	-30.21
333.202	4.61
333.414	47.62
333.627	49.66
333.84	-19.97
334.053	-24.06
334.265	-1.54
334.478	47.62
334.691	39.42
334.903	76.29
335.116	6.66
335.329	-5.63
335.541	16.9
335.754	8.7
335.966	-19.97
336.179	-58.88
336.392	-32.26
336.604	0.51
336.817	8.7
337.029	-40.45
337.242	0.51
337.454	55.81
337.667	-11.78
337.88	37.38
338.092	-1.54
338.305	33.28
338.517	-5.63
338.729	86.53
338.942	-22.02
339.154	4.61
339.367	0.51
339.579	68.09
339.792	16.9
340.004	61.95
340.217	-3.58
340.429	29.18
340.641	76.29
340.854	4.61
341.066	-15.87
341.278	47.62
341.491	76.29
341.703	-30.21
341.915	39.42
342.128	-30.21
342.34	51.71
342.552	-65.02
342.764	33.28
342.977	4.61
343.189	0.51
343.401	104.96
343.613	-13.82
343.826	12.8
344.038	-50.69
344.25	80.38
344.462	-60.93
344.674	6.66
344.886	20.99
345.099	57.86
345.311	4.61
345.523	35.33
345.735	39.42
345.947	-13.82
346.159	-13.82
346.371	39.42
346.583	-5.63
346.795	-26.11
347.007	82.43
347.219	88.57
347.431	29.18
347.643	-17.92
347.855	14.85
348.067	18.94
348.279	25.09
348.491	90.62
348.703	29.18
348.915	-17.92
349.127	8.7
349.339	-11.78
349.551	-9.73
349.763	4.61
349.975	-32.26
350.187	23.04
350.399	66.05
350.61	-24.06
350.822	23.04
351.034	14.85
351.246	23.04
351.458	25.09
351.669	2.56
351.881	39.42
352.093	-1.54
352.305	57.86
352.517	16.9
352.728	-44.54
352.94	39.42
353.152	6.66
353.363	16.9
353.575	80.38
353.787	49.66
353.999	23.04
354.21	39.42
354.422	18.94
354.633	37.38
354.845	-5.63
355.057	-7.68
355.268	4.61
355.48	37.38
355.692	14.85
355.903	-32.26
356.115	6.66
356.326	-17.92
356.538	-1.54
356.749	74.24
356.961	41.47
357.172	-7.68
357.384	64
357.595	74.24
357.807	2.56
358.018	29.18
358.23	0.51
358.441	-1.54
358.653	-7.68
358.864	2.56
359.075	-9.73
359.287	51.71
359.498	4.61
359.709	41.47
359.921	49.66
360.132	4.61
360.344	6.66
360.555	4.61
360.766	76.29
360.977	33.28
361.189	66.05
361.4	72.19
361.611	16.9
361.823	29.18
362.034	61.95
362.245	33.28
362.456	66.05
362.667	-5.63
362.879	29.18
363.09	-5.63
363.301	0.51
363.512	35.33
363.723	94.72
363.935	27.14
364.146	-42.5
364.357	-22.02
364.568	16.9
364.779	31.23
364.99	37.38
365.201	12.8
365.412	45.57
365.623	-30.21
365.834	0.51
366.045	74.24
366.256	45.57
366.467	-17.92
366.678	27.14
366.889	82.43
367.1	8.7
367.311	51.71
367.522	6.66
367.733	31.23
367.944	12.8
368.155	12.8
368.366	25.09
368.577	57.86
368.788	18.94
368.999	-26.11
369.209	20.99
369.42	18.94
369.631	74.24
369.842	23.04
370.053	41.47
370.264	45.57
370.474	86.53
370.685	-7.68
370.896	12.8
371.107	72.19
371.317	37.38
371.528	68.09
371.739	-1.54
371.95	27.14
372.16	49.66
372.371	6.66
372.582	14.85
372.792	-11.78
373.003	4.61
373.214	-48.64
373.424	25.09
373.635	78.33
373.846	53.76
374.056	-77.31
374.267	47.62
374.477	47.62
374.688	37.38
374.898	57.86
375.109	39.42
375.319	20.99
375.53	51.71
375.74	68.09
375.951	12.8
376.161	-1.54
376.372	-3.58
376.582	-50.69
376.793	-15.87
377.003	39.42
377.214	45.57
377.424	14.85
377.635	6.66
377.845	-34.3
378.055	88.57
378.266	57.86
378.476	-3.58
378.686	29.18
378.897	-5.63
379.107	12.8
379.317	16.9
379.528	0.51
379.738	25.09
379.948	-22.02
380.158	20.99
380.369	109.05
380.579	39.42
380.789	84.48
380.999	-1.54
381.21	43.52
381.42	35.33
381.63	43.52
381.84	57.86
382.05	14.85
382.261	47.62
382.471	49.66
382.681	80.38
382.891	88.57
383.101	14.85
383.311	64
383.521	23.04
383.731	8.7
383.941	23.04
384.151	16.9
384.361	39.42
384.571	57.86
384.781	8.7
384.991	64
385.201	-19.97
385.411	0.51
385.621	64
385.831	16.9
386.041	-22.02
386.251	66.05
386.461	-7.68
386.671	14.85
386.881	-9.73
387.091	33.28
387.301	74.24
387.511	18.94
387.72	-7.68
387.93	51.71
388.14	43.52
388.35	45.57
388.56	90.62
388.769	35.33
388.979	4.61
389.189	-15.87
389.399	31.23
389.609	152.06
389.818	37.38
390.028	-7.68
390.238	14.85
390.447	29.18
390.657	18.94
390.867	86.53
391.076	39.42
391.286	4.61
391.496	61.95
391.705	14.85
391.915	29.18
392.125	51.71
392.334	-5.63
392.544	47.62
392.753	61.95
392.963	-24.06
393.172	-40.45
393.382	-17.92
393.591	80.38
393.801	-22.02
394.01	119.29
394.22	102.91
394.429	107.01
394.639	80.38
394.848	25.09
395.058	115.2
395.267	4.61
395.477	41.47
395.686	68.09
395.895	66.05
396.105	84.48
396.314	82.43
396.524	66.05
396.733	74.24
396.942	94.72
397.152	18.94
397.361	25.09
397.57	18.94
397.78	49.66
397.989	10.75
398.198	107.01
398.407	12.8
398.617	59.9
398.826	78.33
399.035	8.7
399.244	49.66
399.453	37.38
399.663	55.81
399.872	96.77
400.081	43.52
400.29	94.72
400.499	14.85
400.708	121.34
400.917	27.14
401.127	84.48
401.336	55.81
401.545	152.06
401.754	76.29
401.963	107.01
402.172	-9.73
402.381	57.86
402.59	-5.63
402.799	25.09
403.008	10.75
403.217	57.86
403.426	78.33
403.635	74.24
403.844	16.9
404.053	23.04
404.262	43.52
404.471	117.25
404.68	31.23
404.888	68.09
405.097	121.34
405.306	127.49
405.515	53.76
405.724	145.92
405.933	107.01
406.142	66.05
406.35	100.86
406.559	123.39
406.768	72.19
406.977	119.29
407.185	115.2
407.394	29.18
407.603	139.77
407.812	100.86
408.02	160.25
408.229	94.72
408.438	96.77
408.646	76.29
408.855	133.63
409.064	141.82
409.272	111.1
409.481	190.97
409.69	166.4
409.898	107.01
410.107	150.01
410.315	145.92
410.524	174.59
410.733	203.26
410.941	123.39
411.15	168.45
411.358	160.25
411.567	133.63
411.775	186.88
411.984	188.93
412.192	213.5
412.401	274.94
412.609	215.55
412.818	285.18
413.026	299.52
413.234	254.46
413.443	258.56
413.651	299.52
413.86	244.22
414.068	328.19
414.276	317.95
414.485	270.84
414.693	348.67
414.901	301.56
415.11	363
415.318	371.19
415.526	322.04
415.734	342.52
415.943	408.06
416.151	377.34
416.359	365.05
416.567	424.44
416.776	455.16
416.984	510.46
417.192	459.26
417.4	498.17
417.608	481.78
417.817	545.27
418.025	526.84
418.233	590.33
418.441	596.47
418.649	549.37
418.857	672.25
419.065	686.58
419.273	649.72
419.481	686.58
419.689	760.31
419.897	774.64
420.105	788.98
420.313	733.68
420.521	745.97
420.729	868.85
420.937	860.66
421.145	821.75
421.353	893.43
421.561	920.05
421.769	1034.74
421.977	1028.59
422.185	1001.97
422.393	1081.84
422.601	1081.84
422.809	1149.42
423.017	1188.33
423.224	1286.64
423.432	1182.19
423.64	1290.73
423.848	1366.51
424.056	1292.78
424.263	1393.13
424.471	1509.86
424.679	1419.75
424.887	1530.34
425.094	1649.13
425.302	1626.6
425.51	1685.99
425.718	1589.74
425.925	1692.13
426.133	1792.48
426.341	1913.31
426.548	1958.37
426.756	1903.07
426.964	1984.99
427.171	2169.31
427.379	2120.16
427.586	2214.37
427.794	2292.19
428.001	2357.72
428.209	2550.23
428.417	2453.98
428.624	2693.59
428.832	2615.77
429.039	2597.34
429.247	2726.36
429.454	2851.28
429.662	3181.01
429.869	2841.04
430.076	2955.73
430.284	2888.15
430.491	3080.66
430.699	3299.79
430.906	3312.08
431.114	3316.17
431.321	3477.96
431.528	3525.07
431.736	3701.19
431.943	3819.97
432.15	3793.35
432.358	3957.19
432.565	4108.74
432.772	4030.91
432.979	4272.57
433.187	4512.19
433.394	4354.49
433.601	4614.59
433.808	4624.83
434.016	4649.4
434.223	4733.37
434.43	5153.2
434.637	4829.62
434.844	5474.73
435.052	5423.53
435.259	5392.81
435.466	5263.79
435.673	5292.46
435.88	5857.7
436.087	5958.05
436.294	6199.71
436.501	5931.43
436.708	6039.97
436.915	6156.71
437.122	6621.59
437.329	6502.81
437.537	6818.2
437.743	6783.38
437.95	6683.03
438.157	7274.9
438.364	7408.01
438.571	7397.78
438.778	7354.77
438.985	8116.61
439.192	7850.38
439.399	7817.61
439.606	7680.39
439.813	8307.07
440.02	8806.78
440.227	8579.45
440.433	8532.35
440.64	8855.93
440.847	8827.26
441.054	9142.64
441.261	9648.49
441.467	9347.44
441.674	9722.22
441.881	10078.57
442.088	10006.89
442.294	9974.12
442.501	10305.89
442.708	10424.67
442.914	10903.9
443.121	11379.03
443.328	11004.25
443.534	11862.35
443.741	11477.33
443.948	11544.91
444.154	12271.94
444.361	12093.77
444.568	12263.75
444.774	12095.82
444.981	12411.2
445.187	12616
445.394	13308.21
445.6	13078.84
445.807	14483.75
446.013	13637.94
446.22	14129.45
446.426	14541.09
446.633	14580
446.839	15079.71
447.046	14833.95
447.252	15415.57
447.459	15345.94
447.665	15278.36
447.871	16120.07
448.078	16896.25
448.284	15829.26
448.491	16529.67
448.697	17250.55
448.903	17422.58
449.11	17553.65
449.316	17049.85
449.522	17651.95
449.728	17901.81
449.935	18045.16
450.141	18108.65
450.347	18536.68
450.553	17965.29
450.76	18229.48
450.966	18632.93
451.172	18358.5
451.378	18999.52
451.584	18708.71
451.791	19087.58
451.997	19085.53
452.203	19491.03
452.409	19480.79
452.615	19200.22
452.821	18643.17
453.027	18288.87
453.233	19468.5
453.44	18669.8
453.646	18825.44
453.852	18694.37
454.058	18901.22
454.264	18614.5
454.47	19044.57
454.676	18374.89
454.882	19411.16
455.088	17422.58
455.294	17682.67
455.5	18290.92
455.705	18182.38
455.911	17621.24
456.117	17344.76
456.323	17094.91
456.529	16105.74
456.735	17031.42
456.941	16310.54
457.147	16103.69
457.352	15479.06
457.558	15569.17
457.764	15477.01
457.97	15026.46
458.176	14676.26
458.381	14631.2
458.587	13971.75
458.793	14129.45
458.999	13222.2
459.204	14547.23
459.41	13850.92
459.616	13048.12
459.821	13007.16
460.027	13099.32
460.233	12505.41
460.438	11981.13
460.644	12325.19
460.85	11516.24
461.055	11661.65
461.261	11342.16
461.466	10611.04
461.672	10383.71
461.878	10991.96
462.083	10266.98
462.289	10086.76
462.494	9910.63
462.7	9668.97
462.905	9408.88
463.111	9601.39
463.316	9632.11
463.522	9372.02
463.727	9513.33
463.932	9519.47
464.138	9447.79
464.343	9472.37
464.549	9531.76
464.754	9423.22
464.959	9242.99
465.165	9410.93
465.37	8991.09
465.575	8817.02
465.781	8923.51
465.986	9113.97
466.191	8823.16
466.397	8800.63
466.602	8108.42
466.807	8503.68
467.012	8665.47
467.218	8561.02
467.423	8454.53
467.628	8358.27
467.833	8771.96
468.038	8558.97
468.244	8311.17
468.449	8526.21
468.654	8317.31
468.859	8335.74
469.064	8202.63
469.269	7776.65
469.474	7932.29
469.679	8198.53
469.885	7780.75
470.09	7926.15
470.295	7823.75
470.5	7704.97
470.705	7854.47
470.91	7707.02
471.115	7586.19
471.32	7537.04
471.525	7528.85
471.73	7436.69
471.935	7438.73
472.139	7293.33
472.344	7293.33
472.549	7184.79
472.754	7184.79
472.959	6961.56
473.164	6738.33
473.369	6812.06
473.574	7043.48
473.778	6838.68
473.983	6832.54
474.188	6736.28
474.393	6461.85
474.598	6541.72
474.802	6611.36
475.007	6424.99
475.212	6506.91
475.417	6148.51
475.621	6144.42
475.826	6269.34
476.031	6099.36
476.235	6085.03
476.44	6080.93
476.645	5990.82
476.849	5847.46
477.054	5867.94
477.259	5921.19
477.463	5888.42
477.668	5597.61
477.872	5585.32
478.077	5685.67
478.282	5474.73
478.486	5257.65
478.691	5245.36
478.895	5480.88
479.1	5351.85
479.304	5392.81
479.509	5118.39
479.713	5276.08
479.918	5265.84
480.122	5134.77
480.326	5261.74
480.531	5255.6
480.735	5183.92
480.94	5067.19
481.144	5171.63
481.348	4893.11
481.553	4905.4
481.757	5235.12
481.961	4956.6
482.166	5169.59
482.37	5022.13
482.574	4997.56
482.778	5015.99
482.983	5226.93
483.187	5001.65
483.391	5030.32
483.595	5022.13
483.8	4866.49
484.004	4938.16
484.208	5128.63
484.412	4999.6
484.616	4993.46
484.821	4921.78
485.025	4966.84
485.229	4952.5
485.433	4909.49
485.637	4878.77
485.841	4907.45
486.045	5005.75
486.249	4952.5
486.453	4893.11
486.657	4985.27
486.861	4985.27
487.065	4987.32
487.269	4923.83
487.473	4862.39
487.677	5089.71
487.881	5079.47
488.085	5067.19
488.289	5003.7
488.493	4997.56
488.697	5024.18
488.901	5020.08
489.105	5147.06
489.309	5192.11
489.512	4944.31
489.716	5108.15
489.92	5128.63
490.124	5124.53
490.328	5261.74
490.531	5085.62
490.735	5192.11
490.939	5188.02
491.143	5239.22
491.346	5192.11
491.55	5396.91
491.754	5188.02
491.958	5458.35
492.161	5388.72
492.365	5435.82
492.569	5257.65
492.772	5441.96
492.976	5421.49
493.18	5517.74
493.383	5570.99
493.587	5613.99
493.79	5556.65
493.994	5532.08
494.197	5804.46
494.401	5640.62
494.605	5652.91
494.808	5865.89
495.012	5894.57
495.215	6015.4
495.419	5966.24
495.622	5964.2
495.825	6050.21
496.029	6044.07
496.232	6185.38
496.436	6146.47
496.639	6365.6
496.843	6203.81
497.046	6470.05
497.249	6386.08
497.453	6367.65
497.656	6609.31
497.859	6576.54
498.063	6625.69
498.266	6855.06
498.469	7004.57
498.673	6838.68
498.876	7018.9
499.079	7096.72
499.282	7014.8
499.485	7485.84
499.689	7291.28
499.892	7559.56
500.095	7602.57
500.298	7741.83
500.501	7692.68
500.705	8034.69
500.908	8071.56
501.111	8079.75
501.314	8247.68
501.517	8405.38
501.72	8399.23
501.923	8343.94
502.126	8677.76
502.329	8933.75
502.532	8909.18
502.735	8880.5
502.938	9156.98
503.141	9214.32
503.344	9275.76
503.547	9472.37
503.75	9615.73
503.953	9736.56
504.156	9738.6
504.359	10021.22
504.562	10051.94
504.765	10297.7
504.968	10099.05
505.17	10422.62
505.373	10652
505.576	10946.9
505.779	10887.51
505.982	11053.4
506.185	11252.05
506.387	11172.18
506.59	11374.93
506.793	11766.09
506.996	11815.24
507.198	11901.26
507.401	12009.8
507.604	12099.91
507.807	12458.31
508.009	12575.04
508.212	12577.09
508.415	12736.83
508.617	12933.43
508.82	13021.5
509.022	13107.51
509.225	13392.18
509.428	13537.59
509.63	13662.51
509.833	14102.82
510.035	14125.35
510.238	14121.26
510.44	14590.24
510.643	14639.39
510.845	14706.98
511.048	14727.46
511.25	14905.63
511.453	15030.55
511.655	15552.79
511.858	15976.72
512.06	15763.73
512.262	16220.42
512.465	16195.85
512.667	16357.64
512.87	16701.7
513.072	16546.05
513.274	17039.61
513.477	17168.63
513.679	17217.79
513.881	17705.2
514.084	17842.42
514.286	17686.77
514.488	18008.3
514.69	18383.08
514.893	18563.3
515.095	18473.19
515.297	19159.26
515.499	19007.71
515.701	19452.12
515.904	19552.47
516.106	19779.79
516.308	20130
516.51	20195.53
516.712	20371.66
516.914	20764.87
517.116	20793.54
517.318	20932.8
517.52	21061.82
517.722	21125.31
517.925	21495.99
518.127	22235.31
518.329	22165.68
518.531	22155.44
518.733	22692.01
518.935	22702.25
519.136	23048.35
519.338	23165.09
519.54	23369.88
519.742	23500.95
519.944	23593.11
520.146	23976.08
520.348	24227.98
520.55	23984.27
520.752	24604.81
520.954	25065.6
521.155	24805.51
521.357	25401.47
521.559	25497.72
521.761	26042.48
521.963	25802.87
522.164	25911.41
522.366	26146.93
522.568	26286.19
522.77	26581.1
522.971	26769.51
523.173	26759.27
523.375	27023.46
523.576	26962.02
523.778	27254.88
523.98	27535.45
524.181	27603.03
524.383	27727.96
524.584	28528.72
524.786	28444.75
524.988	28250.19
525.189	28575.82
525.391	28569.68
525.592	28989.51
525.794	29087.81
525.995	29265.99
526.197	28825.67
526.398	29327.42
526.6	29685.82
526.801	29743.16
527.003	29970.49
527.204	30070.84
527.406	30130.23
527.607	30242.87
527.808	30345.26
528.01	29855.8
528.211	30255.15
528.412	31090.73
528.614	30769.19
528.815	30871.59
529.016	31021.09
529.218	30949.42
529.419	31229.99
529.62	31387.68
529.822	31027.24
530.023	31719.45
530.224	31330.34
530.425	31295.52
530.626	31387.68
530.828	31141.92
531.029	32008.22
531.23	31463.46
531.431	31553.57
531.632	31741.98
531.833	31916.06
532.035	31787.03
532.236	32135.19
532.437	32098.33
532.638	31821.85
532.839	32630.8
533.04	32372.75
533.241	31920.15
533.442	32505.87
533.643	32770.06
533.844	32178.2
534.045	32675.85
534.246	32063.51
534.447	32712.72
534.648	32647.18
534.849	32686.09
535.05	32491.54
535.251	32546.83
535.451	32569.36
535.652	32899.08
535.853	32845.83
536.054	33048.58
536.255	33060.87
536.456	32487.44
536.657	33396.74
536.857	32700.43
537.058	32813.07
537.259	33073.16
537.46	32813.07
537.66	32847.88
537.861	33337.35
538.062	33071.11
538.263	33214.47
538.463	32897.03
538.664	33234.95
538.865	33216.52
539.065	33396.74
539.266	32903.18
539.466	33609.73
539.667	32927.75
539.868	33820.67
540.068	33284.1
540.269	33087.5
540.469	33792
540.67	33394.69
540.87	33224.71
541.071	33544.19
541.271	33671.17
541.472	33325.06
541.672	33073.16
541.873	33021.96
542.073	32890.89
542.274	33695.74
542.474	33413.12
542.675	33097.73
542.875	33595.39
543.075	33366.02
543.276	33187.85
543.476	33323.01
543.676	33163.27
543.877	33466.37
544.077	33435.65
544.277	33488.9
544.478	33327.11
544.678	33732.61
544.878	33265.67
545.078	33454.08
545.279	33452.03
545.479	33296.39
545.679	33996.79
545.879	33554.43
546.079	33484.8
546.28	33742.85
546.48	33304.58
546.68	33875.96
546.88	33830.91
547.08	33505.28
547.28	33466.37
547.48	33507.33
547.68	33619.97
547.88	33415.17
548.081	33744.89
548.281	33656.83
548.481	33409.03
548.681	33794.04
548.881	33601.54
549.081	33648.64
549.28	33724.41
549.48	33802.24
549.68	33851.39
549.88	34439.15
550.08	33808.38
550.28	33849.34
550.48	33437.7
550.68	34289.65
550.88	33384.45
551.08	33681.41
551.279	33783.8
551.479	33476.61
551.679	33730.56
551.879	33724.41
552.079	33843.2
552.278	33691.65
552.478	33662.97
552.678	33716.22
552.878	33929.21
553.077	33820.67
553.277	33380.35
553.477	34025.46
553.676	33617.92
553.876	33675.26
554.076	33439.75
554.275	33318.92
554.475	33064.97
554.674	33421.31
554.874	33865.72
555.074	33734.65
555.273	33708.03
555.473	33468.42
555.672	33177.61
555.872	33265.67
556.071	33527.81
556.271	33427.46
556.47	33579.01
556.67	33036.3
556.869	32876.55
557.068	33662.97
557.268	33290.24
557.467	33302.53
557.667	33226.76
557.866	33175.56
558.065	33345.54
558.265	33036.3
558.464	33128.45
558.663	33726.46
558.863	32749.58
559.062	33675.26
559.261	33003.53
559.461	33237
559.66	32690.19
559.859	33179.65
560.058	32682
560.258	33193.99
560.457	32905.23
560.656	33239.04
560.855	32694.29
561.054	33054.73
561.253	32903.18
561.453	33044.49
561.652	33159.17
561.851	33054.73
562.05	32845.83
562.249	32888.84
562.448	32933.9
562.647	33208.33
562.846	32778.25
563.045	32827.4
563.244	32382.99
563.443	32649.23
563.642	32512.02
563.841	32657.42
564.04	32733.2
564.239	32636.94
564.438	32616.46
564.637	32559.12
564.836	32628.75
565.035	32311.31
565.234	32659.47
565.432	32309.27
565.631	32241.68
565.83	32415.76
566.029	32157.72
566.228	31954.97
566.427	32626.7
566.625	31725.6
566.824	31522.85
567.023	31983.64
567.222	31387.68
567.42	32192.53
567.619	31725.6
567.818	31914.01
568.016	31778.84
568.215	31936.54
568.414	31553.57
568.612	31891.48
568.811	31684.64
569.01	31506.46
569.208	31512.61
569.407	31596.57
569.605	31006.76
569.804	31795.23
570.002	31234.08
570.201	31365.15
570.4	31174.69
570.598	31004.71
570.797	30873.64
570.995	30838.83
571.193	30527.53
571.392	30894.12
571.59	30660.65
571.789	30855.21
571.987	30806.06
572.186	30507.05
572.384	30507.05
572.582	30746.67
572.781	30607.4
572.979	30478.38
573.177	30527.53
573.376	31027.24
573.574	30199.86
573.772	30521.39
573.971	29939.77
574.169	30320.69
574.367	30042.17
574.565	30033.97
574.763	30021.69
574.962	29884.47
575.16	29476.93
575.358	29718.59
575.556	29053
575.754	30017.59
575.952	29413.44
576.151	29849.66
576.349	29259.84
576.547	29284.42
576.745	29204.55
576.943	29108.29
577.141	29620.28
577.339	29259.84
577.537	29098.05
577.735	28913.73
577.933	28801.1
578.131	28811.34
578.329	28643.4
578.527	28801.1
578.725	28645.45
578.923	28692.55
579.121	28721.23
579.319	28678.22
579.516	28315.73
579.714	28387.41
579.912	28442.7
580.11	28508.24
580.308	28354.64
580.506	28129.36
580.704	27863.13
580.901	27928.66
581.099	28162.13
581.297	27981.91
581.495	27687
581.692	28082.26
581.89	27590.75
582.088	27811.93
582.285	27478.11
582.483	27596.89
582.681	27582.56
582.878	27256.93
583.076	27291.74
583.274	27525.21
583.471	27412.57
583.669	27052.13
583.866	27064.42
584.064	27209.82
584.262	26806.37
584.459	27138.15
584.657	26949.73
584.854	26976.36
585.052	26552.43
585.249	26746.98
585.447	27048.04
585.644	26464.36
585.841	26566.76
586.039	26538.09
586.236	25954.42
586.434	26218.61
586.631	25999.48
586.828	26474.6
587.026	26132.59
587.223	25981.04
587.42	25823.35
587.618	25903.22
587.815	25780.34
588.012	25532.54
588.21	25464.96
588.407	25624.7
588.604	25475.2
588.801	25245.82
588.999	25444.48
589.196	25153.66
589.393	25325.69
589.59	24998.02
589.787	25139.33
589.984	24860.8
590.182	24590.47
590.379	25168
590.576	24711.3
590.773	24580.23
590.97	24770.69
591.167	24711.3
591.364	24383.63
591.561	24535.18
591.758	24295.57
591.955	24596.62
592.152	24481.93
592.349	24047.76
592.546	24146.06
592.743	24182.93
592.94	23890.07
593.137	24135.82
593.334	23648.41
593.531	23531.67
593.727	23582.87
593.924	23539.86
594.121	23738.52
594.318	23629.98
594.515	23287.96
594.712	23335.07
594.908	23537.82
595.105	23287.96
595.302	22853.8
595.499	23292.06
595.696	22935.71
595.892	22780.07
596.089	23107.74
596.286	22888.61
596.482	22816.93
596.679	22816.93
596.876	22825.12
597.072	22583.46
597.269	22620.33
597.466	22495.4
597.662	22321.32
597.859	22153.39
598.055	22390.95
598.252	22118.57
598.448	22270.12
598.645	22116.53
598.841	21678.26
599.038	21776.56
599.234	21729.46
599.431	21680.31
599.627	21600.44
599.824	21723.32
600.02	21455.03
600.217	21594.29
600.413	21508.28
600.609	21280.96
600.806	21330.11
601.002	21278.91
601.198	20902.08
601.395	21117.12
601.591	20795.59
601.787	20959.42
601.984	20732.1
602.18	21041.34
602.376	20725.96
602.572	20347.08
602.769	20627.65
602.965	20582.6
603.161	20586.69
603.357	20449.48
603.553	20388.04
603.75	20449.48
603.946	20084.94
604.142	20338.89
604.338	19908.82
604.534	19972.3
604.73	19773.65
604.926	19777.75
605.122	20027.6
605.318	19759.31
605.514	19607.76
605.71	19609.81
605.906	19392.73
606.102	19482.84
606.298	19310.81
606.494	19589.33
606.69	19476.69
606.886	19310.81
607.082	19134.68
607.278	19466.45
607.474	19101.92
607.67	19278.04
607.866	18766.05
608.062	19263.71
608.257	19165.4
608.453	18962.65
608.649	18921.7
608.845	19007.71
609.041	18634.98
609.236	18811.1
609.432	18788.58
609.628	18661.6
609.824	18809.06
610.019	18469.09
610.215	18591.97
610.411	18512.1
610.606	18460.9
610.802	18698.47
610.998	18528.49
611.193	18481.38
611.389	18481.38
611.584	18102.51
611.78	18235.63
611.976	18127.08
612.171	18452.71
612.367	17998.06
612.562	18108.65
612.758	17981.68
612.953	17613.04
613.149	18075.88
613.344	17981.68
613.539	18219.24
613.735	17889.52
613.93	17977.58
614.126	17711.35
614.321	17686.77
614.517	17932.53
614.712	17604.85
614.907	17465.59
615.103	17774.83
615.298	17449.21
615.493	17748.21
615.688	17131.77
615.884	17682.67
616.079	17099
616.274	17375.48
616.47	17348.86
616.665	17367.29
616.86	17137.91
617.055	17168.63
617.25	17359.1
617.445	17383.67
617.641	16818.43
617.836	17150.2
618.031	16580.87
618.226	17105.15
618.421	16785.66
618.616	17133.82
618.811	16584.96
619.006	16904.45
619.201	16034.06
619.396	16535.81
619.591	16408.84
619.786	16501
619.981	16369.93
620.176	16214.28
620.371	16122.12
620.566	16398.6
620.761	15898.89
620.956	16126.22
621.151	15733.01
621.346	16036.11
621.541	15595.79
621.735	15939.85
621.93	15761.68
622.125	15397.14
622.32	15323.41
622.515	15327.51
622.709	15325.46
622.904	15501.59
623.099	15233.3
623.294	15132.95
623.488	15020.31
623.683	14997.79
623.878	14801.18
624.072	14846.24
624.267	15016.22
624.462	14520.61
624.656	14618.91
624.851	14633.25
625.046	14483.75
625.24	14305.57
625.435	14131.5
625.629	14063.91
625.824	14025
626.018	14039.34
626.213	13836.59
626.407	13961.51
626.602	13588.78
626.796	13764.91
626.991	13754.67
627.185	13730.09
627.38	13826.35
627.574	13443.38
627.768	13250.87
627.963	13449.52
628.157	13076.79
628.352	13312.31
628.546	13064.5
628.74	13123.9
628.935	13060.41
629.129	13140.28
629.323	12779.84
629.517	12736.83
629.712	12757.31
629.906	12747.07
630.1	12464.45
630.294	12536.13
630.489	12482.88
630.683	12454.21
630.877	12417.35
631.071	12069.19
631.265	12214.6
631.459	12366.15
631.653	12122.44
631.848	12046.66
632.042	11929.93
632.236	12071.24
632.43	11675.98
632.624	11813.2
632.818	11747.66
633.012	11510.1
633.206	11520.34
633.4	11536.72
633.594	11630.93
633.788	11471.18
633.982	11544.91
634.176	11444.56
634.369	11241.81
634.563	11168.09
634.757	11381.07
634.951	11059.54
635.145	11176.28
635.339	11080.02
635.533	10852.7
635.726	10920.28
635.92	10930.52
636.114	10752.35
636.308	10678.62
636.501	10639.71
636.695	10496.35
636.889	10316.13
637.083	10271.08
637.276	10266.98
637.47	10344.8
637.664	10172.77
637.857	10303.84
638.051	10248.55
638.244	10006.89
638.438	9795.95
638.632	9752.94
638.825	9707.88
639.019	9863.53
639.212	9849.19
639.406	9628.01
639.599	9574.77
639.793	9531.76
639.986	9427.31
640.18	9754.99
640.373	9439.6
640.567	9288.05
640.76	9277.81
640.954	9134.45
641.147	8819.07
641.34	8991.09
641.534	8843.64
641.727	8837.5
641.92	8890.74
642.114	8690.04
642.307	8999.29
642.5	8716.67
642.694	8423.81
642.887	8452.48
643.08	8731
643.273	8425.86
643.467	8397.18
643.66	8352.13
643.853	8399.23
644.046	8204.67
644.239	8126.85
644.432	7985.54
644.626	7971.21
644.819	8028.55
645.012	7870.86
645.205	7793.03
645.398	7618.96
645.591	7692.68
645.784	7790.99
645.977	7614.86
646.17	7553.42
646.363	7369.1
646.556	7334.29
646.749	7283.09
646.942	7401.87
647.135	7336.34
647.328	7158.16
647.521	7068.05
647.714	7127.44
647.907	7055.76
648.099	7111.06
648.292	6775.19
648.485	6824.34
648.678	6773.14
648.871	6834.58
649.064	6658.46
649.256	6674.84
649.449	6650.27
649.642	6627.74
649.835	6508.96
650.027	6361.5
650.22	6494.62
650.413	6291.87
650.605	6504.86
650.798	6461.85
650.991	6214.05
651.183	6109.6
651.376	6310.3
651.568	6244.77
651.761	6146.47
651.954	6191.52
652.146	6115.75
652.339	6113.7
652.531	6015.4
652.724	5900.71
652.916	5888.42
653.109	5740.97
653.301	5913
653.494	5867.94
653.686	5732.78
653.879	5816.74
654.071	5761.45
654.263	5794.22
654.456	5706.15
654.648	5710.25
654.84	5532.08
655.033	5499.31
655.225	5482.92
655.417	5427.63
655.61	5456.3
655.802	5450.16
655.994	5470.64
656.186	5444.01
656.379	5292.46
656.571	5198.26
656.763	5376.43
656.955	5208.5
657.148	5245.36
657.34	4997.56
657.532	5194.16
657.724	5181.87
657.916	5069.23
658.108	5120.43
658.3	4803
658.492	5085.62
658.684	4927.92
658.876	4964.79
659.068	4876.73
659.26	4856.25
659.452	4870.58
659.644	4649.4
659.836	4768.18
660.028	4870.58
660.22	4725.18
660.412	4669.88
660.604	4571.58
660.796	4495.8
660.988	4604.35
661.18	4530.62
661.372	4573.63
661.563	4581.82
661.755	4467.13
661.947	4389.31
662.139	4426.17
662.331	4508.09
662.522	4387.26
662.714	4235.71
662.906	4225.47
663.097	4319.68
663.289	4274.62
663.481	4196.8
663.673	4237.76
663.864	4090.31
664.056	4096.45
664.247	4118.98
664.439	4057.54
664.631	4047.3
664.822	3973.57
665.014	4032.96
665.205	3908.04
665.397	3850.69
665.588	4012.48
665.78	3871.17
665.971	3813.83
666.163	3768.77
666.354	3840.45
666.546	3772.87
666.737	3709.38
666.929	3615.18
667.12	3746.25
667.311	3731.91
667.503	3660.23
667.694	3488.2
667.885	3619.27
668.077	3488.2
668.268	3553.74
668.459	3527.11
668.651	3615.18
668.842	3547.59
669.033	3422.67
669.224	3508.68
669.416	3613.13
669.607	3389.9
669.798	3457.48
669.989	3252.69
670.18	3430.86
670.371	3422.67
670.563	3297.74
670.754	3320.27
670.945	3353.04
671.136	3361.23
671.327	3385.8
671.518	3291.6
671.709	3242.45
671.9	3402.19
672.091	3160.53
672.282	3154.38
672.473	3342.8
672.664	3320.27
672.855	3256.78
673.046	3250.64
673.237	3252.69
673.428	3232.21
673.619	3138
673.809	3072.47
674	3158.48
674.191	3135.95
674.382	3080.66
674.573	2984.4
674.764	3111.38
674.954	3119.57
675.145	3066.32
675.336	3094.99
675.527	3078.61
675.717	3035.6
675.908	3006.93
676.099	2990.55
676.289	2990.55
676.48	3039.7
676.671	2972.11
676.861	2961.87
677.052	2869.72
677.243	2943.44
677.433	2867.67
677.624	2980.31
677.814	2779.61
678.005	2963.92
678.195	2941.4
678.386	2929.11
678.576	2886.1
678.767	2892.24
678.957	2888.15
679.148	2943.44
679.338	2922.96
679.529	3006.93
679.719	2793.94
679.909	2922.96
680.1	2841.04
680.29	2828.76
680.481	2949.59
680.671	2775.51
680.861	2824.66
681.052	2894.29
681.242	3000.79
681.432	2949.59
681.622	2795.99
681.813	2865.62
682.003	2884.05
682.193	2894.29
682.383	2769.37
682.573	2800.09
682.764	2816.47
682.954	2830.8
683.144	2853.33
683.334	2861.52
683.524	2890.2
683.714	2984.4
683.904	2898.39
684.094	2906.58
684.284	2898.39
684.474	2820.56
684.664	2902.48
684.854	2994.64
685.044	2875.86
685.234	2894.29
685.424	3021.27
685.614	2994.64
685.804	2943.44
685.994	2920.92
686.184	2925.01
686.374	3008.98
686.564	2820.56
686.753	3078.61
686.943	2902.48
687.133	2849.24
687.323	2879.96
687.513	3072.47
687.702	2955.73
687.892	2953.68
688.082	2978.26
688.272	2961.87
688.461	2871.76
688.651	2904.53
688.841	2935.25
689.03	2963.92
689.22	3006.93
689.41	3076.56
689.599	3090.9
689.789	3090.9
689.979	3006.93
690.168	2951.63
690.358	3011.03
690.547	3066.32
690.737	3037.65
690.926	2957.78
691.116	3047.89
691.305	3011.03
691.495	3045.84
691.684	2939.35
691.874	2982.35
692.063	3078.61
692.252	3033.55
692.442	2937.3
692.631	2941.4
692.82	2996.69
693.01	3027.41
693.199	3027.41
693.388	2920.92
693.578	2902.48
693.767	3045.84
693.956	2978.26
694.146	3021.27
694.335	2953.68
694.524	2914.77
694.713	2892.24
694.902	2939.35
695.092	2982.35
695.281	2752.98
695.47	2906.58
695.659	2834.9
695.848	2847.19
696.037	2853.33
696.226	2972.11
696.415	2851.28
696.604	2800.09
696.793	2728.41
696.982	2816.47
697.171	2855.38
697.36	2765.27
697.549	2898.39
697.738	2879.96
697.927	2652.63
698.116	2914.77
698.305	2736.6
698.494	2785.75
698.683	2759.13
698.872	2693.59
699.061	2685.4
699.25	2640.34
699.438	2791.89
699.627	2695.64
699.816	2671.06
700.005	2685.4
700.193	2712.02
700.382	2669.02
700.571	2597.34
700.76	2513.37
700.948	2615.77
701.137	2511.32
701.326	2556.38
701.514	2537.95
701.703	2650.58
701.892	2458.07
702.08	2505.18
702.269	2568.66
702.457	2400.73
702.646	2470.36
702.834	2474.46
703.023	2372.06
703.212	2404.83
703.4	2494.94
703.589	2496.99
703.777	2562.52
703.965	2384.35
704.154	2439.64
704.342	2408.92
704.531	2398.68
704.719	2361.82
704.907	2406.88
705.096	2408.92
705.284	2443.74
705.472	2386.4
705.661	2322.91
705.849	2363.87
706.037	2304.48
706.226	2294.24
706.414	2341.34
706.602	2238.94
706.79	2253.28
706.979	2255.33
707.167	2230.75
707.355	2263.52
707.543	2230.75
707.731	2267.61
707.919	2243.04
708.107	2245.09
708.296	2234.85
708.484	2208.22
708.672	2052.58
708.86	2097.63
709.048	2271.71
709.236	2148.83
709.424	2075.1
709.612	2109.92
709.8	2091.49
709.988	2087.39
710.176	2122.21
710.364	2142.69
710.551	2136.54
710.739	2032.1
710.927	2083.3
711.115	2032.1
711.303	2050.53
711.491	2023.91
711.679	1991.14
711.866	1997.28
712.054	2087.39
712.242	1911.27
712.43	1954.27
712.617	1925.6
712.805	1950.18
712.993	1806.82
713.181	1839.59
713.368	1821.16
713.556	1890.79
713.744	1935.84
713.931	1896.93
714.119	1913.31
714.306	1884.64
714.494	1843.68
714.682	1839.59
714.869	1743.33
715.057	1817.06
715.244	1839.59
715.432	1868.26
715.619	1767.91
715.807	1741.29
715.994	1714.66
716.182	1792.48
716.369	1731.05
716.556	1901.03
716.744	1608.17
716.931	1741.29
717.119	1724.9
717.306	1681.89
717.493	1688.04
717.681	1671.65
717.868	1649.13
718.055	1683.94
718.242	1690.09
718.43	1677.8
718.617	1696.23
718.804	1595.88
718.991	1610.22
719.179	1622.5
719.366	1655.27
719.553	1612.26
719.74	1698.28
719.927	1589.74
720.114	1638.89
720.301	1548.78
720.488	1604.07
720.676	1483.24
720.863	1587.69
721.05	1599.98
721.237	1659.37
721.424	1526.25
721.611	1577.45
721.798	1579.5
721.985	1587.69
722.172	1432.04
722.358	1532.39
722.545	1473
722.732	1544.68
722.919	1542.63
723.106	1489.39
723.293	1407.47
723.48	1499.63
723.667	1399.27
723.853	1516.01
724.04	1372.65
724.227	1462.76
724.414	1346.03
724.6	1405.42
724.787	1440.23
724.974	1325.55
725.161	1452.52
725.347	1524.2
725.534	1300.97
725.72	1354.22
725.907	1317.36
726.094	1356.27
726.28	1366.51
726.467	1223.15
726.653	1307.12
726.84	1290.73
727.027	1311.21
727.213	1284.59
727.4	1247.72
727.586	1266.16
727.773	1327.6
727.959	1280.49
728.145	1303.02
728.332	1221.1
728.518	1221.1
728.705	1243.63
728.891	1247.72
729.077	1284.59
729.264	1288.68
729.45	1251.82
729.636	1235.44
729.823	1221.1
730.009	1159.66
730.195	1247.72
730.382	1186.29
730.568	1276.4
730.754	1300.97
730.94	1161.71
731.126	1141.23
731.313	1182.19
731.499	1178.09
731.685	1180.14
731.871	1178.09
732.057	1282.54
732.243	1212.91
732.429	1159.66
732.615	1190.38
732.801	1130.99
732.987	1006.06
733.173	1108.46
733.359	1044.98
733.545	1079.79
733.731	1034.74
733.917	1030.64
734.103	1141.23
734.289	1161.71
734.475	997.87
734.661	1030.64
734.847	1169.9
735.033	1071.6
735.219	1047.02
735.404	1094.13
735.59	985.58
735.776	1067.5
735.962	952.82
736.148	975.35
736.333	1055.22
736.519	1022.45
736.705	897.52
736.89	1024.5
737.076	985.58
737.262	1044.98
737.447	1018.35
737.633	1081.84
737.819	950.77
738.004	1100.27
738.19	1032.69
738.375	1038.83
738.561	975.35
738.747	924.15
738.932	989.68
739.118	860.66
739.303	877.04
739.489	975.35
739.674	981.49
739.859	967.15
740.045	930.29
740.23	907.76
740.416	928.24
740.601	866.8
740.786	825.84
740.972	768.5
741.157	881.14
741.342	711.16
741.528	909.81
741.713	975.35
741.898	905.71
742.084	893.43
742.269	877.04
742.454	940.53
742.639	895.47
742.824	899.57
743.01	776.69
743.195	872.95
743.38	858.61
743.565	827.89
743.75	842.23
743.935	874.99
744.12	811.51
744.305	834.04
744.49	942.58
744.675	854.51
744.86	870.9
745.045	840.18
745.23	852.47
745.415	848.37
745.6	866.8
745.785	817.65
745.97	862.71
746.155	827.89
746.34	805.36
746.525	786.93
746.71	807.41
746.895	729.59
747.079	719.35
747.264	727.54
747.449	768.5
747.634	752.12
747.819	750.07
748.003	784.88
748.188	725.49
748.373	719.35
748.557	719.35
748.742	709.11
748.927	758.26
749.111	694.77
749.296	698.87
749.481	741.88
749.665	645.62
749.85	635.38
750.034	694.77
750.219	672.25
750.404	678.39
750.588	739.83
750.773	688.63
750.957	647.67
751.141	619
751.326	694.77
751.51	614.9
751.695	639.48
751.879	612.85
752.064	662.01
752.248	666.1
752.432	573.94
752.617	637.43
752.801	700.92
752.985	702.97
753.17	600.57
753.354	539.13
753.538	496.12
753.722	594.42
753.907	588.28
754.091	586.23
754.275	557.56
754.459	565.75
754.643	629.24
754.828	528.89
755.012	557.56
755.196	498.17
755.38	602.61
755.564	551.42
755.748	637.43
755.932	606.71
756.116	578.04
756.3	516.6
756.484	504.31
756.668	578.04
756.852	545.27
757.036	494.07
757.22	565.75
757.404	535.03
757.588	492.02
757.772	561.66
757.956	553.46
758.14	502.26
758.323	487.93
758.507	449.02
758.691	500.22
758.875	496.12
759.059	463.35
759.242	547.32
759.426	496.12
759.61	473.59
759.794	477.69
759.977	430.59
760.161	502.26
760.345	438.78
760.528	453.11
760.712	471.54
760.895	461.3
761.079	477.69
761.263	494.07
761.446	481.78
761.63	512.5
761.813	399.87
761.997	436.73
762.18	408.06
762.364	504.31
762.547	406.01
762.731	414.2
762.914	496.12
763.098	303.61
763.281	440.83
763.464	449.02
763.648	449.02
763.831	428.54
764.015	438.78
764.198	367.1
764.381	489.98
764.564	391.67
764.748	397.82
764.931	463.35
765.114	440.83
765.297	387.58
765.481	360.95
765.664	383.48
765.847	479.74
766.03	477.69
766.213	340.47
766.397	383.48
766.58	412.15
766.763	467.45
766.946	401.91
767.129	440.83
767.312	399.87
767.495	428.54
767.678	360.95
767.861	412.15
768.044	432.63
768.227	395.77
768.41	369.15
768.593	424.44
768.776	418.3
768.959	418.3
769.142	444.92
769.324	444.92
769.507	356.86
769.69	381.43
769.873	373.24
770.056	363
770.239	399.87
770.421	385.53
770.604	373.24
770.787	375.29
770.97	287.23
771.152	328.19
771.335	369.15
771.518	342.52
771.7	379.39
771.883	373.24
772.066	256.51
772.248	401.91
772.431	326.14
772.613	352.76
772.796	430.59
772.978	328.19
773.161	301.56
773.343	317.95
773.526	356.86
773.708	303.61
773.891	311.8
774.073	410.11
774.256	287.23
774.438	301.56
774.621	324.09
774.803	358.91
774.985	367.1
775.168	320
775.35	350.71
775.532	344.57
775.715	287.23
775.897	326.14
776.079	340.47
776.261	346.62
776.444	281.08
776.626	330.23
776.808	322.04
776.99	289.28
777.173	252.41
777.355	289.28
777.537	242.17
777.719	330.23
777.901	225.79
778.083	365.05
778.265	383.48
778.447	295.42
778.629	293.37
778.811	322.04
778.993	317.95
779.175	236.03
779.357	279.04
779.539	324.09
779.721	293.37
779.903	223.74
780.085	180.73
780.267	356.86
780.449	221.69
780.631	270.84
780.812	295.42
780.994	272.89
781.176	291.32
781.358	258.56
781.54	256.51
781.721	281.08
781.903	254.46
782.085	225.79
782.267	272.89
782.448	231.93
782.63	250.36
782.812	250.36
782.993	258.56
783.175	233.98
783.357	260.6
783.538	238.08
783.72	303.61
783.901	180.73
784.083	231.93
784.264	264.7
784.446	231.93
784.627	137.73
784.809	174.59
784.99	215.55
785.172	201.21
785.353	244.22
785.535	217.6
785.716	147.97
785.897	229.88
786.079	258.56
786.26	242.17
786.441	131.58
786.623	178.69
786.804	164.35
786.985	158.21
787.167	147.97
787.348	217.6
787.529	266.75
787.71	219.64
787.891	221.69
788.073	164.35
788.254	209.4
788.435	211.45
788.616	229.88
788.797	125.44
788.978	127.49
789.159	207.36
789.34	215.55
789.522	178.69
789.703	164.35
789.884	115.2
790.065	145.92
790.246	123.39
790.427	197.12
790.607	156.16
790.788	184.83
790.969	172.54
791.15	233.98
791.331	129.53
791.512	113.15
791.693	203.26
791.874	150.01
792.054	285.18
792.235	186.88
792.416	125.44
792.597	131.58
792.778	125.44
792.958	197.12
793.139	152.06
793.32	154.11
793.5	178.69
793.681	133.63
793.862	137.73
794.042	186.88
794.223	125.44
794.404	139.77
794.584	154.11
794.765	133.63
794.945	193.02
795.126	141.82
795.306	195.07
795.487	131.58
795.667	129.53
795.848	135.68
796.028	164.35
796.209	150.01
796.389	64
796.57	154.11
796.75	107.01
796.93	123.39
797.111	147.97
797.291	170.49
797.471	154.11
797.652	111.1
797.832	61.95
798.012	90.62
798.192	145.92
798.373	182.78
798.553	92.67
798.733	119.29
798.913	47.62
799.093	127.49
799.274	107.01
799.454	123.39
799.634	158.21
799.814	139.77
799.994	141.82
800.174	203.26
800.354	8.7
800.534	127.49
800.714	139.77
800.894	59.9
801.074	102.91
801.254	174.59
801.434	174.59
801.614	64
801.794	55.81
801.974	430.59
802.154	61.95
802.334	55.81
802.514	96.77
802.693	113.15
802.873	39.42
803.053	107.01
803.233	117.25
803.413	111.1
803.592	57.86
803.772	64
803.952	98.81
804.131	72.19
804.311	57.86
804.491	76.29
804.67	94.72
804.85	139.77
805.03	47.62
805.209	119.29
805.389	90.62
805.568	55.81
805.748	55.81
805.928	49.66
806.107	41.47
806.287	117.25
806.466	82.43
806.646	111.1
806.825	168.45
807.004	168.45
807.184	96.77
807.363	98.81
807.543	123.39
807.722	133.63
807.901	107.01
808.081	33.28
808.26	6.66
808.439	92.67
808.619	74.24
808.798	57.86
808.977	4.61
809.156	39.42
809.336	37.38
809.515	64
809.694	14.85
809.873	41.47
810.052	121.34
810.231	119.29
810.411	78.33
810.59	145.92
810.769	47.62
810.948	135.68
811.127	27.14
811.306	92.67
811.485	-9.73
811.664	100.86
811.843	25.09
812.022	35.33
812.201	111.1
812.38	104.96
812.559	98.81
812.737	18.94
812.916	16.9
813.095	18.94
813.274	104.96
813.453	74.24
813.632	2.56
813.811	121.34
813.989	51.71
814.168	61.95
814.347	41.47
814.526	-3.58
814.704	41.47
814.883	35.33
815.062	168.45
815.24	23.04
815.419	70.14
815.598	23.04
815.776	41.47
815.955	43.52
816.133	64
816.312	61.95
816.49	70.14
816.669	117.25
816.847	51.71
817.026	47.62
817.204	45.57
817.383	39.42
817.561	104.96
817.74	68.09
817.918	64
818.097	115.2
818.275	14.85
818.453	88.57
818.632	14.85
818.81	70.14
818.988	80.38
819.167	90.62
819.345	92.67
819.523	84.48
819.701	16.9
819.879	25.09
820.058	68.09
820.236	74.24
820.414	-5.63
820.592	94.72
820.77	111.1
820.948	82.43
821.127	76.29
821.305	20.99
821.483	6.66
821.661	37.38
821.839	72.19
822.017	0.51
822.195	10.75
822.373	55.81
822.551	64
822.729	76.29
822.907	-9.73
823.085	39.42
823.262	68.09
823.44	23.04
823.618	-5.63
823.796	51.71
823.974	39.42
824.152	-7.68
824.329	45.57
824.507	72.19
824.685	-17.92
824.863	53.76
825.04	16.9
825.218	78.33
825.396	92.67
825.574	12.8
825.751	-13.82
825.929	72.19
826.107	18.94
826.284	57.86
826.462	80.38
826.639	14.85
826.817	27.14
826.994	43.52
827.172	-9.73
827.349	37.38
827.527	6.66
827.704	10.75
827.882	20.99
828.059	-9.73
828.237	57.86
828.414	98.81
828.591	12.8
828.769	33.28
828.946	57.86
829.124	-40.45
829.301	102.91
829.478	82.43
829.655	72.19
829.833	8.7
830.01	70.14
830.187	109.05
830.364	53.76
830.542	14.85
830.719	25.09
830.896	45.57
831.073	6.66
831.25	115.2
831.427	37.38
831.604	39.42
831.782	-19.97
831.959	57.86
832.136	35.33
832.313	51.71
832.49	23.04
832.667	-3.58
832.844	90.62
833.021	45.57
833.198	41.47
833.374	31.23
833.551	-15.87
833.728	6.66
833.905	39.42
834.082	2.56
834.259	41.47
834.436	96.77
834.612	57.86
834.789	35.33
834.966	20.99
835.143	41.47
835.319	-1.54
835.496	-3.58
835.673	-17.92
835.85	102.91
836.026	37.38
836.203	23.04
836.38	-40.45
836.556	49.66
836.733	12.8
836.909	-42.5
837.086	20.99
837.262	-30.21
837.439	53.76
837.616	18.94
837.792	74.24
837.968	39.42
838.145	27.14
838.321	41.47
838.498	35.33
838.674	20.99
838.851	90.62
839.027	-3.58
839.203	49.66
839.38	-22.02
839.556	74.24
839.732	96.77
839.909	6.66
840.085	12.8
840.261	-11.78
840.437	39.42
840.614	51.71
840.79	53.76
840.966	35.33
841.142	35.33
841.318	-28.16
841.494	70.14
841.671	-7.68
841.847	66.05
842.023	-56.83
842.199	35.33
842.375	49.66
842.551	25.09
842.727	-38.4
842.903	64
843.079	14.85
843.255	-9.73
843.431	16.9
843.607	-9.73
843.783	2.56
843.959	53.76
844.134	-32.26
844.31	96.77
844.486	61.95
844.662	-1.54
844.838	12.8
845.013	111.1
845.189	57.86
845.365	53.76
845.541	33.28
845.716	129.53
845.892	57.86
846.068	-13.82
846.244	37.38
846.419	68.09
846.595	16.9
846.77	35.33
846.946	8.7
847.122	29.18
847.297	-24.06
847.473	92.67
847.648	27.14
847.824	51.71
847.999	-28.16
848.175	8.7
848.35	39.42
848.526	70.14
848.701	18.94
848.876	47.62
849.052	-9.73
849.227	-3.58
849.403	-30.21
849.578	129.53
849.753	39.42
849.929	33.28
850.104	-15.87
850.279	-1.54
850.454	-5.63
850.63	8.7
850.805	-22.02
850.98	20.99
851.155	66.05
851.33	37.38
851.505	27.14
851.681	64
851.856	33.28
852.031	2.56
852.206	51.71
852.381	-5.63
852.556	-48.64
852.731	18.94
852.906	23.04
853.081	6.66
853.256	33.28
853.431	45.57
853.606	-42.5
853.781	-69.12
853.956	-7.68
854.131	-71.17
854.305	29.18
854.48	-54.78
854.655	-44.54
854.83	49.66
855.005	-42.5
855.18	64
855.354	-1.54
855.529	25.09
855.704	-1.54
855.879	-50.69
856.053	53.76
856.228	59.9
856.403	41.47
856.577	10.75
856.752	-3.58
856.926	61.95
857.101	47.62
857.276	37.38
857.45	0.51
857.625	45.57
857.799	-13.82
857.974	76.29
858.148	76.29
858.323	-11.78
858.497	-40.45
858.672	41.47
858.846	-5.63
859.02	-24.06
859.195	-73.21
859.369	35.33
859.543	8.7
859.718	0.51
859.892	-9.73
860.066	12.8
860.241	2.56
860.415	-17.92
860.589	-30.21
860.763	27.14
860.938	6.66
861.112	-34.3
861.286	29.18
861.46	10.75
861.634	-1.54
861.808	10.75
861.982	-34.3
862.157	64
862.331	-48.64
862.505	-56.83
862.679	-32.26
862.853	4.61
863.027	-34.3
863.201	-28.16
863.375	29.18
863.549	-7.68
863.722	10.75
863.896	-24.06
864.07	23.04
864.244	-50.69
864.418	2.56
864.592	47.62
864.766	-62.98
864.939	23.04
865.113	0.51
865.287	16.9
865.461	-17.92
865.634	-7.68
865.808	39.42
865.982	-48.64
866.156	-34.3
866.329	8.7
866.503	37.38
866.676	10.75
866.85	25.09
867.024	-22.02
867.197	8.7
867.371	25.09
867.544	8.7
867.718	-5.63
867.891	-48.64
868.065	-28.16
868.238	-26.11
868.412	8.7
868.585	53.76
868.759	25.09
868.932	-11.78
869.105	-42.5
869.279	49.66
869.452	-42.5
869.625	-11.78
869.799	37.38
869.972	-13.82
870.145	25.09
870.319	86.53
870.492	23.04
870.665	53.76
870.838	29.18
871.011	51.71
871.185	59.9
871.358	57.86
871.531	-5.63
871.704	-19.97
871.877	23.04
872.05	-56.83
872.223	-28.16
872.396	2.56
872.569	31.23
872.742	-36.35
872.915	-15.87
873.088	8.7
873.261	-65.02
873.434	31.23
873.607	31.23
873.78	6.66
873.953	6.66
874.126	-24.06
874.299	-3.58
874.471	-65.02
874.644	-1.54
874.817	27.14
874.99	14.85
875.163	-24.06
875.335	31.23
875.508	-19.97
875.681	16.9
875.853	23.04
876.026	18.94
876.199	55.81
876.371	6.66
876.544	-52.74
876.717	51.71
876.889	-36.35
877.062	-1.54
877.234	6.66
877.407	18.94
877.579	-13.82
877.752	51.71
877.924	-13.82
878.097	53.76
878.269	-26.11
878.442	23.04
878.614	-13.82
878.786	0.51
878.959	-7.68
879.131	27.14
879.303	41.47
879.476	-7.68
879.648	10.75
879.82	-32.26
879.993	-17.92
880.165	-22.02
880.337	39.42
880.509	59.9
880.681	27.14
880.854	-105.98
881.026	-24.06
881.198	-50.69
881.37	10.75
881.542	-15.87
881.714	45.57
881.886	-42.5
882.058	4.61
882.23	12.8
882.402	0.51
882.574	29.18
882.746	39.42
882.918	4.61
883.09	-22.02
883.262	35.33
883.434	20.99
883.606	-75.26
883.778	-36.35
883.95	-9.73
884.122	12.8
884.293	84.48
884.465	37.38
884.637	-24.06
884.809	6.66
884.98	0.51
885.152	-50.69
885.324	-11.78
885.496	-42.5
885.667	27.14
885.839	27.14
886.011	33.28
886.182	-36.35
886.354	-17.92
886.525	41.47
886.697	59.9
886.869	-9.73
887.04	-11.78
887.212	4.61
887.383	14.85
887.555	-11.78
887.726	25.09
887.897	-22.02
888.069	-38.4
888.24	72.19
888.412	6.66
888.583	2.56
888.754	47.62
888.926	-34.3
889.097	18.94
889.268	-13.82
889.44	-17.92
889.611	-24.06
889.782	14.85
889.953	-40.45
890.125	88.57
890.296	-17.92
890.467	-34.3
890.638	29.18
890.809	10.75
890.98	-34.3
891.151	-1.54
891.323	-32.26
891.494	-24.06
891.665	-19.97
891.836	20.99
892.007	20.99
892.178	-17.92
892.349	-62.98
892.52	-7.68
892.691	23.04
892.862	-95.74
893.032	10.75
893.203	20.99
893.374	-77.31
893.545	-50.69
893.716	10.75
893.887	-40.45
894.057	-44.54
894.228	-32.26
894.399	-56.83
894.57	8.7
894.74	-75.26
894.911	41.47
895.082	-5.63
895.253	-15.87
895.423	-32.26
895.594	20.99
895.764	-3.58
895.935	-5.63
896.106	23.04
896.276	2.56
896.447	-24.06
896.617	27.14
896.788	-28.16
896.958	39.42
897.129	41.47
897.299	-36.35
897.47	-15.87
897.64	70.14
897.81	-38.4
897.981	-15.87
898.151	-17.92
898.322	-36.35
898.492	53.76
898.662	-34.3
898.832	47.62
899.003	-19.97
899.173	-79.36
899.343	14.85
899.513	12.8
