Data from USB4F104151__71__12-54-38-968.txt Node

Date: Fri Mar 14 12:54:38 EDT 2025
User: louis
Spectrometer: USB4F10415
Trigger mode: 4
Integration Time (sec): 1.000000E-2
Scans to average: 1
Electric dark correction enabled: true
Nonlinearity correction enabled: false
Boxcar width: 0
XAxis mode: Wavelengths
Number of Pixels in Spectrum: 3648
>>>>>Begin Spectral Data<<<<<
178.204	-24.4
178.424	-24.4
178.644	-24.4
178.864	-87.89
179.084	-94.04
179.304	-3.93
179.524	18.6
179.744	-8.02
179.964	-28.5
180.184	-26.45
180.404	34.99
180.624	41.13
180.844	-14.17
181.064	-16.21
181.283	-18.26
181.503	59.56
181.723	-38.74
181.943	8.36
182.163	32.94
182.383	-1.88
182.602	-26.45
182.822	28.84
183.042	-5.97
183.262	-3.93
183.482	10.41
183.701	-5.97
183.921	8.36
184.141	0.17
184.361	53.42
184.58	-44.88
184.8	8.36
185.02	-26.45
185.239	43.18
185.459	-61.27
185.679	18.6
185.898	2.22
186.118	43.18
186.338	12.46
186.557	26.79
186.777	-36.69
186.997	-38.74
187.216	10.41
187.436	41.13
187.655	-22.36
187.875	2.22
188.095	-20.31
188.314	22.7
188.534	22.7
188.753	-12.12
188.973	-36.69
189.192	53.42
189.412	-48.98
189.631	4.27
189.851	18.6
190.07	30.89
190.29	14.51
190.509	18.6
190.729	-28.5
190.948	16.55
191.168	26.79
191.387	24.75
191.607	-14.17
191.826	-28.5
192.045	-24.4
192.265	39.08
192.484	65.71
192.704	-30.55
192.923	10.41
193.142	59.56
193.362	-65.36
193.581	-30.55
193.8	-8.02
194.02	86.19
194.239	-3.93
194.458	-36.69
194.678	-69.46
194.897	-106.32
195.116	14.51
195.335	16.55
195.555	-16.21
195.774	34.99
195.993	47.27
196.212	-38.74
196.432	69.8
196.651	-12.12
196.87	-5.97
197.089	57.51
197.308	-12.12
197.528	26.79
197.747	10.41
197.966	-14.17
198.185	59.56
198.404	-14.17
198.623	37.03
198.842	37.03
199.062	-12.12
199.281	16.55
199.5	-24.4
199.719	43.18
199.938	-46.93
200.157	63.66
200.376	6.31
200.595	-18.26
200.814	-14.17
201.033	-28.5
201.252	32.94
201.471	-1.88
201.69	24.75
201.909	22.7
202.128	-20.31
202.347	-22.36
202.566	-5.97
202.785	-12.12
203.004	-14.17
203.223	-34.64
203.442	-10.07
203.661	-118.61
203.879	-3.93
204.098	61.61
204.317	4.27
204.536	8.36
204.755	-5.97
204.974	53.42
205.193	80.04
205.411	28.84
205.63	0.17
205.849	86.19
206.068	14.51
206.287	10.41
206.505	37.03
206.724	-14.17
206.943	6.31
207.162	-38.74
207.381	16.55
207.599	67.75
207.818	-14.17
208.037	10.41
208.255	0.17
208.474	-24.4
208.693	-22.36
208.911	4.27
209.13	18.6
209.349	32.94
209.567	-5.97
209.786	-30.55
210.005	8.36
210.223	18.6
210.442	-57.17
210.661	26.79
210.879	8.36
211.098	20.65
211.316	8.36
211.535	0.17
211.753	37.03
211.972	2.22
212.191	14.51
212.409	18.6
212.628	-42.84
212.846	-16.21
213.065	-10.07
213.283	63.66
213.502	51.37
213.72	43.18
213.938	32.94
214.157	28.84
214.375	-38.74
214.594	32.94
214.812	-28.5
215.031	49.32
215.249	41.13
215.467	73.9
215.686	-77.65
215.904	32.94
216.122	53.42
216.341	12.46
216.559	4.27
216.778	-65.36
216.996	18.6
217.214	32.94
217.432	39.08
217.651	0.17
217.869	-48.98
218.087	10.41
218.306	-16.21
218.524	39.08
218.742	-3.93
218.96	84.14
219.179	0.17
219.397	-22.36
219.615	-28.5
219.833	-73.56
220.051	-71.51
220.27	98.47
220.488	-53.08
220.706	69.8
220.924	22.7
221.142	4.27
221.36	20.65
221.578	73.9
221.796	-14.17
222.015	-14.17
222.233	-81.75
222.451	88.23
222.669	-40.79
222.887	-1.88
223.105	4.27
223.323	-20.31
223.541	-36.69
223.759	55.47
223.977	10.41
224.195	20.65
224.413	-5.97
224.631	-22.36
224.849	26.79
225.067	45.23
225.285	12.46
225.503	4.27
225.721	30.89
225.939	49.32
226.157	61.61
226.375	55.47
226.592	-36.69
226.81	0.17
227.028	-22.36
227.246	-22.36
227.464	-14.17
227.682	51.37
227.9	-24.4
228.117	-14.17
228.335	-57.17
228.553	47.27
228.771	-22.36
228.989	-34.64
229.206	-12.12
229.424	-12.12
229.642	-32.6
229.86	-20.31
230.077	-46.93
230.295	-5.97
230.513	-61.27
230.731	-22.36
230.948	80.04
231.166	28.84
231.384	-28.5
231.601	-65.36
231.819	-14.17
232.037	22.7
232.254	-3.93
232.472	32.94
232.689	-51.03
232.907	-14.17
233.125	12.46
233.342	24.75
233.56	-59.22
233.777	-28.5
233.995	16.55
234.213	90.28
234.43	47.27
234.648	24.75
234.865	-28.5
235.083	-16.21
235.3	8.36
235.518	-30.55
235.735	47.27
235.953	49.32
236.17	-5.97
236.388	18.6
236.605	-20.31
236.822	106.67
237.04	32.94
237.257	22.7
237.475	-28.5
237.692	-14.17
237.909	16.55
238.127	-14.17
238.344	63.66
238.562	12.46
238.779	-57.17
238.996	-32.6
239.214	8.36
239.431	-32.6
239.648	-12.12
239.865	24.75
240.083	30.89
240.3	-44.88
240.517	6.31
240.735	8.36
240.952	-34.64
241.169	92.33
241.386	14.51
241.603	16.55
241.821	-3.93
242.038	-14.17
242.255	10.41
242.472	-65.36
242.689	-8.02
242.907	-46.93
243.124	10.41
243.341	2.22
243.558	20.65
243.775	65.71
243.992	-28.5
244.209	-3.93
244.426	6.31
244.643	-8.02
244.86	-26.45
245.078	28.84
245.295	-55.12
245.512	-12.12
245.729	8.36
245.946	82.09
246.163	6.31
246.38	-3.93
246.597	-3.93
246.814	14.51
247.031	39.08
247.248	71.85
247.464	-34.64
247.681	20.65
247.898	16.55
248.115	-34.64
248.332	6.31
248.549	-36.69
248.766	30.89
248.983	4.27
249.2	34.99
249.417	-16.21
249.633	-55.12
249.85	20.65
250.067	-16.21
250.284	20.65
250.501	20.65
250.717	-20.31
250.934	24.75
251.151	57.51
251.368	-42.84
251.585	100.52
251.801	-40.79
252.018	0.17
252.235	-14.17
252.451	4.27
252.668	-24.4
252.885	77.99
253.102	12.46
253.318	41.13
253.535	-55.12
253.752	-71.51
253.968	8.36
254.185	26.79
254.401	-42.84
254.618	47.27
254.835	6.31
255.051	24.75
255.268	34.99
255.484	-1.88
255.701	-36.69
255.917	45.23
256.134	22.7
256.351	-32.6
256.567	-79.7
256.784	2.22
257	-46.93
257.217	-1.88
257.433	18.6
257.65	-22.36
257.866	0.17
258.082	34.99
258.299	12.46
258.515	57.51
258.732	26.79
258.948	-1.88
259.165	24.75
259.381	-44.88
259.597	-44.88
259.814	-38.74
260.03	45.23
260.246	-3.93
260.463	6.31
260.679	4.27
260.895	30.89
261.112	30.89
261.328	-14.17
261.544	-20.31
261.761	-8.02
261.977	18.6
262.193	96.43
262.409	43.18
262.626	39.08
262.842	77.99
263.058	-44.88
263.274	20.65
263.49	-5.97
263.707	-20.31
263.923	4.27
264.139	10.41
264.355	61.61
264.571	61.61
264.787	-28.5
265.004	30.89
265.22	-5.97
265.436	8.36
265.652	-16.21
265.868	-1.88
266.084	-5.97
266.3	-10.07
266.516	-24.4
266.732	4.27
266.948	49.32
267.164	43.18
267.38	32.94
267.596	51.37
267.812	18.6
268.028	-32.6
268.244	-81.75
268.46	-59.22
268.676	2.22
268.892	39.08
269.108	39.08
269.324	0.17
269.54	-55.12
269.756	26.79
269.972	10.41
270.188	-40.79
270.403	47.27
270.619	-30.55
270.835	-26.45
271.051	-28.5
271.267	8.36
271.483	-14.17
271.698	47.27
271.914	-30.55
272.13	-1.88
272.346	77.99
272.562	-22.36
272.777	-3.93
272.993	-32.6
273.209	12.46
273.425	-1.88
273.64	55.47
273.856	16.55
274.072	53.42
274.287	-55.12
274.503	6.31
274.719	4.27
274.934	16.55
275.15	-51.03
275.366	-46.93
275.581	86.19
275.797	-3.93
276.012	6.31
276.228	71.85
276.444	-51.03
276.659	0.17
276.875	-69.46
277.09	14.51
277.306	10.41
277.521	18.6
277.737	18.6
277.952	-94.04
278.168	49.32
278.383	2.22
278.599	34.99
278.814	-57.17
279.03	-57.17
279.245	82.09
279.461	-42.84
279.676	-30.55
279.892	-96.08
280.107	8.36
280.322	-75.6
280.538	-46.93
280.753	-46.93
280.969	34.99
281.184	28.84
281.399	-22.36
281.615	-1.88
281.83	-26.45
282.045	-75.6
282.26	6.31
282.476	10.41
282.691	49.32
282.906	-12.12
283.122	-55.12
283.337	43.18
283.552	-5.97
283.767	-5.97
283.983	51.37
284.198	-40.79
284.413	57.51
284.628	-59.22
284.843	22.7
285.058	20.65
285.274	55.47
285.489	26.79
285.704	-10.07
285.919	-3.93
286.134	43.18
286.349	53.42
286.564	18.6
286.779	14.51
286.995	43.18
287.21	12.46
287.425	18.6
287.64	43.18
287.855	2.22
288.07	2.22
288.285	34.99
288.5	110.76
288.715	37.03
288.93	-16.21
289.145	37.03
289.36	22.7
289.575	-20.31
289.79	49.32
290.004	18.6
290.219	28.84
290.434	39.08
290.649	-16.21
290.864	-5.97
291.079	32.94
291.294	77.99
291.509	-46.93
291.724	47.27
291.938	-5.97
292.153	-69.46
292.368	-28.5
292.583	34.99
292.798	-5.97
293.012	-10.07
293.227	-38.74
293.442	24.75
293.657	51.37
293.871	-14.17
294.086	-38.74
294.301	-1.88
294.516	34.99
294.73	-3.93
294.945	4.27
295.16	-3.93
295.374	61.61
295.589	6.31
295.804	-32.6
296.018	-26.45
296.233	-14.17
296.447	10.41
296.662	-48.98
296.877	-51.03
297.091	18.6
297.306	67.75
297.52	6.31
297.735	26.79
297.949	-89.94
298.164	-67.41
298.378	-32.6
298.593	-14.17
298.807	-5.97
299.022	30.89
299.236	-14.17
299.451	-14.17
299.665	-1.88
299.88	34.99
300.094	-16.21
300.309	-42.84
300.523	-26.45
300.737	45.23
300.952	-1.88
301.166	-26.45
301.381	-48.98
301.595	51.37
301.809	-48.98
302.024	47.27
302.238	6.31
302.452	-3.93
302.667	26.79
302.881	43.18
303.095	-40.79
303.309	32.94
303.524	18.6
303.738	-3.93
303.952	-42.84
304.166	39.08
304.381	-36.69
304.595	59.56
304.809	-42.84
305.023	-12.12
305.237	39.08
305.452	-38.74
305.666	-46.93
305.88	41.13
306.094	-22.36
306.308	108.71
306.522	-1.88
306.736	45.23
306.95	-8.02
307.164	-40.79
307.379	41.13
307.593	67.75
307.807	30.89
308.021	24.75
308.235	-75.6
308.449	-69.46
308.663	-61.27
308.877	45.23
309.091	-3.93
309.305	39.08
309.519	-34.64
309.733	-32.6
309.947	32.94
310.161	-24.4
310.374	-63.32
310.588	10.41
310.802	-18.26
311.016	-44.88
311.23	4.27
311.444	53.42
311.658	39.08
311.872	43.18
312.085	-34.64
312.299	30.89
312.513	84.14
312.727	-42.84
312.941	90.28
313.154	26.79
313.368	4.27
313.582	86.19
313.796	-59.22
314.009	73.9
314.223	-28.5
314.437	-55.12
314.651	8.36
314.864	-30.55
315.078	59.56
315.292	-10.07
315.505	-5.97
315.719	39.08
315.933	39.08
316.146	32.94
316.36	-5.97
316.573	-10.07
316.787	18.6
317.001	30.89
317.214	59.56
317.428	55.47
317.641	-14.17
317.855	20.65
318.068	-28.5
318.282	59.56
318.495	75.95
318.709	84.14
318.922	51.37
319.136	41.13
319.349	22.7
319.563	8.36
319.776	-16.21
319.99	49.32
320.203	26.79
320.417	-16.21
320.63	26.79
320.843	98.47
321.057	-10.07
321.27	-18.26
321.483	63.66
321.697	4.27
321.91	-44.88
322.124	-69.46
322.337	32.94
322.55	-63.32
322.763	43.18
322.977	92.33
323.19	-3.93
323.403	30.89
323.617	-30.55
323.83	90.28
324.043	-5.97
324.256	-38.74
324.469	-34.64
324.683	-26.45
324.896	37.03
325.109	-10.07
325.322	8.36
325.535	55.47
325.748	63.66
325.962	-10.07
326.175	-51.03
326.388	4.27
326.601	10.41
326.814	22.7
327.027	-10.07
327.24	8.36
327.453	10.41
327.666	-20.31
327.879	-16.21
328.092	-10.07
328.305	8.36
328.518	10.41
328.731	41.13
328.944	14.51
329.157	82.09
329.37	57.51
329.583	14.51
329.796	37.03
330.009	-44.88
330.222	49.32
330.435	-26.45
330.648	57.51
330.861	6.31
331.073	-71.51
331.286	12.46
331.499	6.31
331.712	0.17
331.925	-14.17
332.138	20.65
332.35	-18.26
332.563	-5.97
332.776	-16.21
332.989	-8.02
333.202	14.51
333.414	20.65
333.627	14.51
333.84	-36.69
334.053	-5.97
334.265	28.84
334.478	-3.93
334.691	-38.74
334.903	32.94
335.116	34.99
335.329	30.89
335.541	-34.64
335.754	55.47
335.966	30.89
336.179	30.89
336.392	-32.6
336.604	67.75
336.817	63.66
337.029	6.31
337.242	32.94
337.454	-10.07
337.667	32.94
337.88	-24.4
338.092	28.84
338.305	24.75
338.517	12.46
338.729	-5.97
338.942	-53.08
339.154	4.27
339.367	-30.55
339.579	14.51
339.792	47.27
340.004	26.79
340.217	-38.74
340.429	-38.74
340.641	-20.31
340.854	-22.36
341.066	26.79
341.278	71.85
341.491	51.37
341.703	-81.75
341.915	28.84
342.128	63.66
342.34	45.23
342.552	2.22
342.764	69.8
342.977	12.46
343.189	2.22
343.401	75.95
343.613	-14.17
343.826	-71.51
344.038	-36.69
344.25	2.22
344.462	30.89
344.674	-14.17
344.886	34.99
345.099	10.41
345.311	30.89
345.523	-57.17
345.735	67.75
345.947	-18.26
346.159	-12.12
346.371	6.31
346.583	30.89
346.795	-24.4
347.007	14.51
347.219	39.08
347.431	37.03
347.643	-22.36
347.855	12.46
348.067	26.79
348.279	-63.32
348.491	100.52
348.703	-20.31
348.915	-32.6
349.127	26.79
349.339	32.94
349.551	-46.93
349.763	47.27
349.975	-12.12
350.187	45.23
350.399	45.23
350.61	-5.97
350.822	53.42
351.034	-16.21
351.246	-8.02
351.458	-65.36
351.669	6.31
351.881	-16.21
352.093	8.36
352.305	-18.26
352.517	-1.88
352.728	37.03
352.94	65.71
353.152	-40.79
353.363	51.37
353.575	-8.02
353.787	57.51
353.999	-26.45
354.21	32.94
354.422	24.75
354.633	22.7
354.845	10.41
355.057	32.94
355.268	-28.5
355.48	6.31
355.692	-5.97
355.903	12.46
356.115	-5.97
356.326	20.65
356.538	34.99
356.749	59.56
356.961	-20.31
357.172	-22.36
357.384	18.6
357.595	57.51
357.807	-1.88
358.018	22.7
358.23	16.55
358.441	-38.74
358.653	47.27
358.864	18.6
359.075	4.27
359.287	-36.69
359.498	61.61
359.709	-51.03
359.921	55.47
360.132	-34.64
360.344	-32.6
360.555	8.36
360.766	12.46
360.977	20.65
361.189	-5.97
361.4	-5.97
361.611	-16.21
361.823	65.71
362.034	26.79
362.245	-44.88
362.456	2.22
362.667	-8.02
362.879	32.94
363.09	-48.98
363.301	0.17
363.512	-42.84
363.723	-46.93
363.935	43.18
364.146	-36.69
364.357	-10.07
364.568	-30.55
364.779	18.6
364.99	-5.97
365.201	-5.97
365.412	80.04
365.623	24.75
365.834	12.46
366.045	104.62
366.256	73.9
366.467	-10.07
366.678	59.56
366.889	-5.97
367.1	61.61
367.311	-44.88
367.522	24.75
367.733	0.17
367.944	-5.97
368.155	-36.69
368.366	8.36
368.577	-12.12
368.788	-3.93
368.999	-5.97
369.209	12.46
369.42	100.52
369.631	-26.45
369.842	57.51
370.053	-3.93
370.264	0.17
370.474	37.03
370.685	-10.07
370.896	2.22
371.107	90.28
371.317	2.22
371.528	-34.64
371.739	39.08
371.95	-22.36
372.16	12.46
372.371	30.89
372.582	20.65
372.792	-22.36
373.003	28.84
373.214	6.31
373.424	-46.93
373.635	41.13
373.846	-8.02
374.056	-20.31
374.267	41.13
374.477	-18.26
374.688	57.51
374.898	47.27
375.109	59.56
375.319	-51.03
375.53	80.04
375.74	37.03
375.951	-10.07
376.161	43.18
376.372	63.66
376.582	-81.75
376.793	61.61
377.003	-10.07
377.214	-57.17
377.424	67.75
377.635	32.94
377.845	-63.32
378.055	-34.64
378.266	-10.07
378.476	14.51
378.686	-12.12
378.897	-1.88
379.107	4.27
379.317	26.79
379.528	82.09
379.738	-3.93
379.948	-34.64
380.158	61.61
380.369	59.56
380.579	-3.93
380.789	55.47
380.999	10.41
381.21	26.79
381.42	32.94
381.63	80.04
381.84	39.08
382.05	8.36
382.261	6.31
382.471	61.61
382.681	2.22
382.891	-8.02
383.101	-20.31
383.311	59.56
383.521	63.66
383.731	57.51
383.941	-18.26
384.151	51.37
384.361	30.89
384.571	-63.32
384.781	-48.98
384.991	-10.07
385.201	39.08
385.411	-51.03
385.621	82.09
385.831	59.56
386.041	-20.31
386.251	39.08
386.461	77.99
386.671	8.36
386.881	92.33
387.091	-20.31
387.301	67.75
387.511	4.27
387.72	16.55
387.93	51.37
388.14	-28.5
388.35	-8.02
388.56	-10.07
388.769	0.17
388.979	45.23
389.189	12.46
389.399	43.18
389.609	34.99
389.818	-20.31
390.028	41.13
390.238	8.36
390.447	-38.74
390.657	28.84
390.867	-55.12
391.076	80.04
391.286	53.42
391.496	26.79
391.705	32.94
391.915	75.95
392.125	24.75
392.334	-67.41
392.544	30.89
392.753	-3.93
392.963	-48.98
393.172	-8.02
393.382	61.61
393.591	30.89
393.801	-36.69
394.01	-30.55
394.22	26.79
394.429	6.31
394.639	55.47
394.848	28.84
395.058	4.27
395.267	39.08
395.477	77.99
395.686	-44.88
395.895	69.8
396.105	43.18
396.314	-18.26
396.524	71.85
396.733	69.8
396.942	45.23
397.152	10.41
397.361	14.51
397.57	-16.21
397.78	94.38
397.989	0.17
398.198	53.42
398.407	84.14
398.617	26.79
398.826	41.13
399.035	-3.93
399.244	43.18
399.453	69.8
399.663	41.13
399.872	2.22
400.081	75.95
400.29	84.14
400.499	-3.93
400.708	43.18
400.917	63.66
401.127	127.14
401.336	43.18
401.545	80.04
401.754	51.37
401.963	28.84
402.172	-44.88
402.381	65.71
402.59	14.51
402.799	6.31
403.008	30.89
403.217	80.04
403.426	127.14
403.635	-14.17
403.844	24.75
404.053	137.38
404.262	106.67
404.471	75.95
404.68	106.67
404.888	53.42
405.097	86.19
405.306	59.56
405.515	77.99
405.724	59.56
405.933	63.66
406.142	80.04
406.35	51.37
406.559	12.46
406.768	86.19
406.977	34.99
407.185	47.27
407.394	149.67
407.603	55.47
407.812	102.57
408.02	137.38
408.229	53.42
408.438	84.14
408.646	59.56
408.855	174.25
409.064	110.76
409.272	166.06
409.481	137.38
409.69	116.9
409.898	174.25
410.107	67.75
410.315	164.01
410.524	137.38
410.733	141.48
410.941	116.9
411.15	125.1
411.358	184.49
411.567	112.81
411.775	239.78
411.984	245.93
412.192	149.67
412.401	141.48
412.609	96.43
412.818	204.97
413.026	211.11
413.234	180.39
413.443	252.07
413.651	258.21
413.86	272.55
414.068	266.41
414.276	227.5
414.485	258.21
414.693	243.88
414.901	336.04
415.11	295.08
415.318	325.8
415.526	297.13
415.734	366.76
415.943	362.66
416.151	436.39
416.359	336.04
416.567	399.52
416.776	391.33
416.984	391.33
417.192	458.92
417.4	448.68
417.608	333.99
417.817	479.4
418.025	503.97
418.233	522.4
418.441	479.4
418.649	487.59
418.857	606.37
419.065	618.66
419.273	522.4
419.481	641.18
419.689	606.37
419.897	682.14
420.105	653.47
420.313	725.15
420.521	723.1
420.729	845.98
420.937	766.11
421.145	796.83
421.353	776.35
421.561	870.56
421.769	911.52
421.977	876.7
422.185	845.98
422.393	1005.72
422.601	1058.97
422.809	1054.87
423.017	1108.12
423.224	1110.17
423.432	1177.75
423.64	1206.42
423.848	1157.27
424.056	1251.48
424.263	1265.82
424.471	1306.77
424.679	1304.73
424.887	1409.17
425.094	1454.23
425.302	1474.71
425.51	1484.95
425.718	1554.58
425.925	1523.86
426.133	1562.77
426.341	1648.79
426.548	1742.99
426.756	1740.94
426.964	1820.81
427.171	2001.04
427.379	2011.28
427.586	2154.63
427.794	2136.2
428.001	2048.14
428.209	2263.18
428.417	2185.35
428.624	2363.53
428.832	2375.81
429.039	2384.01
429.247	2400.39
429.454	2652.29
429.662	2719.87
429.869	2558.08
430.076	2691.2
430.284	2744.45
430.491	2797.7
430.699	2936.96
430.906	2932.86
431.114	3002.49
431.321	3119.23
431.528	3133.56
431.736	3371.13
431.943	3547.25
432.15	3561.59
432.358	3469.43
432.565	3741.81
432.772	3754.1
432.979	3848.3
433.187	3897.46
433.394	3895.41
433.601	4317.29
433.808	4180.07
434.016	4235.37
434.223	4229.23
434.43	4558.95
434.637	4515.94
434.844	4847.71
435.052	5027.93
435.259	4964.45
435.466	4917.34
435.673	4989.02
435.88	5281.88
436.087	5468.25
436.294	5523.54
436.501	5374.04
436.708	5568.6
436.915	5660.76
437.122	5896.27
437.329	5883.98
437.537	6080.59
437.743	6334.54
437.95	6182.99
438.157	6598.73
438.364	6748.23
438.571	6633.54
438.778	6694.98
438.985	7344.19
439.192	7034.94
439.399	7245.88
439.606	7082.05
439.813	7467.06
440.02	7950.39
440.227	7811.12
440.433	7888.95
440.64	8116.27
440.847	8017.97
441.054	8032.3
441.261	8579.11
441.467	8587.3
441.674	8933.41
441.881	9109.54
442.088	9123.87
442.294	8978.47
442.501	9230.37
442.708	9431.07
442.914	9748.5
443.121	10344.46
443.328	9924.63
443.534	10672.14
443.741	10389.52
443.948	10278.93
444.154	11110.4
444.361	11175.94
444.568	10934.28
444.774	11046.91
444.981	11233.28
445.187	11436.03
445.394	11943.92
445.6	11683.83
445.807	12990.44
446.013	12400.62
446.22	12728.3
446.426	13383.65
446.633	13299.68
446.839	13731.8
447.046	13350.88
447.252	13887.45
447.459	14133.2
447.665	13987.8
447.871	14690.25
448.078	15472.57
448.284	14450.64
448.491	14731.21
448.697	15439.81
448.903	15796.15
449.11	15828.92
449.316	15591.36
449.522	15978.42
449.728	16209.84
449.935	16469.94
450.141	16525.23
450.347	16689.07
450.553	16246.71
450.76	16402.35
450.966	17076.13
451.172	16906.15
451.378	17545.12
451.584	16975.78
451.791	17416.1
451.997	17123.24
452.203	17584.03
452.409	17749.92
452.615	17430.43
452.821	17172.39
453.027	16795.56
453.233	17477.54
453.44	17090.47
453.646	17147.81
453.852	16940.97
454.058	17354.66
454.264	17078.18
454.47	17190.82
454.676	16811.95
454.882	17440.67
455.088	15744.95
455.294	16121.78
455.5	16433.07
455.705	16596.91
455.911	15679.42
456.117	15550.4
456.323	15605.69
456.529	14460.88
456.735	15118.28
456.941	14729.16
457.147	14485.45
457.352	14131.16
457.558	13830.1
457.764	14063.57
457.97	13752.28
458.176	13236.19
458.381	13520.86
458.587	12724.2
458.793	12851.17
458.999	11954.16
459.204	12933.09
459.41	12484.59
459.616	11829.24
459.821	11737.08
460.027	11710.46
460.233	11403.26
460.438	10967.04
460.644	11298.81
460.85	10432.52
461.055	10262.54
461.261	10459.15
461.466	9652.25
461.672	9443.35
461.878	9816.08
462.083	9316.38
462.289	9060.38
462.494	9041.95
462.7	8556.58
462.905	8511.53
463.111	8853.54
463.316	8794.15
463.522	8542.25
463.727	8566.82
463.932	8667.17
464.138	8429.61
464.343	8622.12
464.549	8321.07
464.754	8384.55
464.959	8486.95
465.165	8368.17
465.37	7942.19
465.575	7925.81
465.781	8075.31
465.986	8183.85
466.191	7907.38
466.397	7536.7
466.602	7393.34
466.807	7792.69
467.012	7735.35
467.218	7692.34
467.423	7335.99
467.628	7704.63
467.833	7790.64
468.038	7546.94
468.244	7415.87
468.449	7669.81
468.654	7518.26
468.859	7303.23
469.064	7401.53
469.269	7137.34
469.474	7082.05
469.679	7153.73
469.885	7014.46
470.09	7307.32
470.295	7034.94
470.5	6942.78
470.705	6930.5
470.91	6797.38
471.115	6629.45
471.32	6799.43
471.525	6748.23
471.73	6821.95
471.935	6561.86
472.139	6357.07
472.344	6666.31
472.549	6342.73
472.754	6391.88
472.959	6146.12
473.164	6017.1
473.369	6125.65
473.574	6254.67
473.778	6088.78
473.983	6056.01
474.188	6088.78
474.393	5777.49
474.598	5931.09
474.802	5830.74
475.007	5736.53
475.212	5810.26
475.417	5470.3
475.621	5470.3
475.826	5398.62
476.031	5429.34
476.235	5380.18
476.44	5509.21
476.645	5443.67
476.849	5343.32
477.054	5124.19
477.259	5052.51
477.463	5197.92
477.668	5001.31
477.872	5003.36
478.077	5177.44
478.282	5025.89
478.486	4909.15
478.691	4765.79
478.895	4753.51
479.1	4724.83
479.304	4798.56
479.509	4696.16
479.713	4728.93
479.918	4667.49
480.122	4608.1
480.326	4657.25
480.531	4638.82
480.735	4610.15
480.94	4526.18
481.144	4620.39
481.348	4579.43
481.553	4548.71
481.757	4540.52
481.961	4673.64
482.166	4517.99
482.37	4538.47
482.574	4421.74
482.778	4479.08
482.983	4565.09
483.187	4403.3
483.391	4417.64
483.595	4534.37
483.8	4393.06
484.004	4538.47
484.208	4511.85
484.412	4597.86
484.616	4561
484.821	4483.17
485.025	4388.97
485.229	4577.38
485.433	4499.56
485.637	4378.73
485.841	4573.28
486.045	4575.33
486.249	4573.28
486.453	4450.41
486.657	4542.57
486.861	4513.89
487.065	4407.4
487.269	4419.69
487.473	4323.43
487.677	4493.41
487.881	4468.84
488.085	4444.26
488.289	4483.17
488.493	4511.85
488.697	4548.71
488.901	4456.55
489.105	4558.95
489.309	4395.11
489.512	4520.04
489.716	4558.95
489.92	4366.44
490.124	4571.24
490.328	4524.13
490.531	4526.18
490.735	4626.53
490.939	4601.96
491.143	4655.2
491.346	4690.02
491.55	4790.37
491.754	4575.33
491.958	4739.17
492.161	4755.55
492.365	4780.13
492.569	4712.55
492.772	4583.52
492.976	4853.86
493.18	4786.27
493.383	4950.11
493.587	5001.31
493.79	4849.76
493.994	4898.91
494.197	4892.77
494.401	5091.42
494.605	4917.34
494.808	5011.55
495.012	5056.61
495.215	5154.91
495.419	5279.83
495.622	5267.55
495.825	5242.97
496.029	5306.46
496.232	5498.97
496.436	5394.52
496.639	5433.43
496.843	5302.36
497.046	5587.03
497.249	5591.13
497.453	5599.32
497.656	5654.61
497.859	5826.64
498.063	5857.36
498.266	5984.34
498.469	5851.22
498.673	6117.45
498.876	5982.29
499.079	6131.79
499.282	6037.58
499.485	6211.66
499.689	6076.49
499.892	6289.48
500.095	6238.28
500.298	6633.54
500.501	6383.69
500.705	6541.38
500.908	6586.44
501.111	6981.7
501.314	6979.65
501.517	6965.31
501.72	7030.85
501.923	7080
502.126	7295.04
502.329	7379
502.532	7231.55
502.735	7397.43
502.938	7403.58
503.141	7485.5
503.344	7583.8
503.547	7606.33
503.75	7860.27
503.953	7794.74
504.156	7923.76
504.359	8038.45
504.562	8069.17
504.765	8353.84
504.968	8300.59
505.17	8368.17
505.373	8548.39
505.576	8552.49
505.779	8673.32
505.982	8917.03
506.185	8796.2
506.387	8910.88
506.59	9021.47
506.793	9402.4
506.996	8986.66
507.198	9463.83
507.401	9396.25
507.604	9691.16
507.807	9738.26
508.009	9713.69
508.212	9861.14
508.415	10000.4
508.617	10145.81
508.82	10100.75
509.022	10133.52
509.225	10366.99
509.428	10448.91
509.63	10516.49
509.833	10676.23
510.035	10766.34
510.238	10776.58
510.44	10874.88
510.643	11040.77
510.845	11427.84
511.048	11317.25
511.25	11407.36
511.453	11708.41
511.655	11935.73
511.858	11657.21
512.06	11481.08
512.262	11837.43
512.465	12124.15
512.667	12261.36
512.87	12216.3
513.072	12122.1
513.274	12392.43
513.477	12603.37
513.679	12797.93
513.881	12855.27
514.084	13015.01
514.286	12926.95
514.488	13064.16
514.69	13836.25
514.893	13344.74
515.095	13543.39
515.297	13699.03
515.499	13742.04
515.701	14108.63
515.904	14397.39
516.106	14122.96
516.308	14415.82
516.51	14342.1
516.712	14467.02
516.914	14661.58
517.116	14968.77
517.318	14903.24
517.52	15017.93
517.722	15011.78
517.925	15110.08
518.127	15202.24
518.329	15396.8
518.531	15458.24
518.733	15779.77
518.935	15945.66
519.136	16015.29
519.338	16041.91
519.54	16232.37
519.742	16287.67
519.944	16191.41
520.146	16566.19
520.348	16406.45
520.55	16908.2
520.752	16922.54
520.954	16932.78
521.155	17184.68
521.357	17555.36
521.559	17491.87
521.761	17788.83
521.963	17670.05
522.164	17801.12
522.366	17903.51
522.568	17756.06
522.77	18038.68
522.971	18212.76
523.173	18016.15
523.375	18319.25
523.576	18483.09
523.778	18298.77
523.98	18814.86
524.181	18669.45
524.383	18589.58
524.584	19079.05
524.786	19040.14
524.988	18737.04
525.189	19228.55
525.391	19380.1
525.592	19320.71
525.794	19423.11
525.995	19492.74
526.197	19566.46
526.398	19357.57
526.6	19623.81
526.801	19838.84
527.003	19718.01
527.204	19607.42
527.406	20094.84
527.607	20092.79
527.808	20035.45
528.01	19988.35
528.211	19816.32
528.412	20172.66
528.614	20363.12
528.815	20404.08
529.016	20395.89
529.218	20361.08
529.419	20819.82
529.62	20283.25
529.822	20639.6
530.023	20531.06
530.224	20432.75
530.425	20572.02
530.626	20377.46
530.828	20381.56
531.029	20897.64
531.23	20578.16
531.431	20440.95
531.632	20653.94
531.833	20391.8
532.035	20793.2
532.236	20688.75
532.437	20787.05
532.638	20916.08
532.839	21260.13
533.04	20971.37
533.241	20567.92
533.442	21133.16
533.643	20830.06
533.844	20922.22
534.045	20881.26
534.246	20877.16
534.447	20897.64
534.648	20803.44
534.849	21020.52
535.05	20694.89
535.251	21069.67
535.451	20971.37
535.652	20961.13
535.853	21012.33
536.054	20895.6
536.255	21028.71
536.456	20793.2
536.657	21084.01
536.857	20930.41
537.058	20715.37
537.259	21423.97
537.46	21231.46
537.66	20760.43
537.861	20871.02
538.062	20864.88
538.263	21067.63
538.463	20813.68
538.664	21038.95
538.865	21264.23
539.065	20871.02
539.266	20877.16
539.466	21180.26
539.667	20883.31
539.868	21206.89
540.068	21028.71
540.269	20901.74
540.469	20918.12
540.67	20825.96
540.87	20715.37
541.071	20785.01
541.271	20989.8
541.472	20930.41
541.672	20850.54
541.873	20619.12
542.073	20592.5
542.274	20850.54
542.474	20727.66
542.675	20539.25
542.875	21137.26
543.075	20815.73
543.276	20488.05
543.476	20737.9
543.676	21008.23
543.877	21020.52
544.077	20948.84
544.277	20746.09
544.478	20791.15
544.678	20776.81
544.878	20881.26
545.078	20637.55
545.279	20719.47
545.479	20698.99
545.679	20690.8
545.879	20625.26
546.079	20567.92
546.28	20666.22
546.48	20559.73
546.68	20606.83
546.88	20924.27
547.08	20655.98
547.28	20662.13
547.48	20504.43
547.68	20621.17
547.88	20602.74
548.081	20649.84
548.281	20666.22
548.481	20406.13
548.681	21002.09
548.881	20477.81
549.081	20711.28
549.28	20457.33
549.48	20623.22
549.68	20494.19
549.88	20692.85
550.08	20426.61
550.28	20821.87
550.48	20410.23
550.68	20578.16
550.88	20715.37
551.08	20393.84
551.279	20518.77
551.479	20533.11
551.679	20610.93
551.879	20428.66
552.079	20653.94
552.278	20578.16
552.478	20537.2
552.678	20311.92
552.878	20371.32
553.077	20537.2
553.277	20553.59
553.477	20737.9
553.676	20416.37
553.876	20449.14
554.076	20330.36
554.275	20377.46
554.475	20311.92
554.674	20283.25
554.874	20219.77
555.074	20539.25
555.273	20170.61
555.473	20502.39
555.672	20291.45
555.872	20410.23
556.071	20240.25
556.271	20338.55
556.47	20133.75
556.67	20227.96
556.869	20072.31
557.068	20066.17
557.268	20096.89
557.467	19976.06
557.667	20248.44
557.866	19933.05
558.065	19984.25
558.265	19826.56
558.464	19857.28
558.663	20238.2
558.863	19990.39
559.062	20055.93
559.261	19793.79
559.461	20309.88
559.66	19677.05
559.859	19816.32
560.058	19758.97
560.258	20027.26
560.457	19629.95
560.656	19847.04
560.855	19668.86
561.054	19885.95
561.253	19720.06
561.453	19877.76
561.652	19746.69
561.851	19668.86
562.05	19572.61
562.249	19380.1
562.448	19666.81
562.647	19541.89
562.846	19384.19
563.045	19419.01
563.244	19281.8
563.443	19498.88
563.642	19216.26
563.841	19337.09
564.04	19568.51
564.239	19691.39
564.438	19242.89
564.637	19333
564.836	19302.28
565.035	18802.57
565.234	19308.42
565.432	19152.77
565.631	19502.98
565.83	19134.34
566.029	19036.04
566.228	19056.52
566.427	19058.57
566.625	18894.73
566.824	18782.09
567.023	19099.53
567.222	18550.67
567.42	19117.96
567.619	19021.7
567.818	18882.44
568.016	19091.34
568.215	18837.39
568.414	18767.76
568.612	19244.93
568.811	18694.03
569.01	18747.28
569.208	18696.08
569.407	18712.46
569.605	18257.81
569.804	18884.49
570.002	18610.06
570.201	18833.29
570.4	18364.31
570.598	18313.11
570.797	18200.47
570.995	18524.05
571.193	18106.26
571.392	18421.65
571.59	18196.37
571.789	18071.45
571.987	18141.08
572.186	18206.61
572.384	18157.46
572.582	18120.6
572.781	17993.62
572.979	17878.94
573.177	17946.52
573.376	18020.25
573.574	17786.78
573.772	17946.52
573.971	17831.83
574.169	17772.44
574.367	17975.19
574.565	17880.99
574.763	17801.12
574.962	17727.39
575.16	17305.51
575.358	17817.5
575.556	17344.42
575.754	17614.75
575.952	17356.71
576.151	17502.11
576.349	17207.2
576.547	17282.98
576.745	17158.05
576.943	17239.97
577.141	17352.61
577.339	17178.53
577.537	17180.58
577.735	17270.69
577.933	16979.88
578.131	17078.18
578.329	16916.39
578.527	17104.81
578.725	17096.61
578.923	16867.24
579.121	16770.99
579.319	16838.57
579.516	16906.15
579.714	16807.85
579.912	16664.49
580.11	16576.43
580.308	16488.37
580.506	16457.65
580.704	16224.18
580.901	16281.52
581.099	16576.43
581.297	16324.53
581.495	16371.63
581.692	16412.59
581.89	16295.86
582.088	16215.99
582.285	16183.22
582.483	16277.43
582.681	16252.85
582.878	16099.25
583.076	16031.67
583.274	15904.7
583.471	15849.4
583.669	16148.4
583.866	15892.41
584.064	15857.59
584.262	15734.71
584.459	15906.74
584.657	15517.63
584.854	15998.9
585.052	15343.55
585.249	15640.51
585.447	15261.63
585.644	15671.23
585.841	15658.94
586.039	15671.23
586.236	15456.19
586.434	15448
586.631	15052.74
586.828	15314.88
587.026	15599.55
587.223	15312.83
587.42	15194.05
587.618	15443.9
587.815	15075.27
588.012	14931.91
588.21	14829.51
588.407	14987.21
588.604	15097.8
588.801	14673.87
588.999	14950.34
589.196	14966.73
589.393	14852.04
589.59	14948.29
589.787	14882.76
589.984	14628.81
590.182	14475.21
590.379	14753.74
590.576	14663.63
590.773	14710.73
590.97	14397.39
591.167	14475.21
591.364	14239.7
591.561	14665.67
591.758	14102.48
591.955	14327.76
592.152	14483.41
592.349	14039
592.546	14112.72
592.743	14237.65
592.94	14149.59
593.137	14102.48
593.334	14114.77
593.531	13873.11
593.727	14024.66
593.924	14071.76
594.121	13936.6
594.318	13885.4
594.515	13535.2
594.712	13969.37
594.908	13549.53
595.105	13889.49
595.302	13455.33
595.499	13676.51
595.696	13701.08
595.892	13553.63
596.089	13606.88
596.286	13512.67
596.482	13524.96
596.679	13529.05
596.876	13508.57
597.072	13109.22
597.269	13338.59
597.466	13277.15
597.662	13098.98
597.859	13080.55
598.055	13338.59
598.252	13086.69
598.448	12945.38
598.645	13064.16
598.841	12892.13
599.038	12707.82
599.234	13154.27
599.431	12781.54
599.627	12771.3
599.824	12980.2
600.02	12740.58
600.217	12670.95
600.413	12738.54
600.609	12519.4
600.806	12806.12
601.002	12746.73
601.198	12586.99
601.395	12398.57
601.591	12386.29
601.787	12408.81
601.984	12281.84
602.18	12476.4
602.376	12296.18
602.572	12318.7
602.769	12324.85
602.965	12345.33
603.161	12257.26
603.357	12087.28
603.553	12234.74
603.75	12154.87
603.946	11872.25
604.142	12158.96
604.338	11792.37
604.534	11980.79
604.73	11892.73
604.926	11929.59
605.122	11970.55
605.318	11868.15
605.514	11741.18
605.71	11507.71
605.906	11927.54
606.102	11702.26
606.298	11833.33
606.494	11530.23
606.69	11597.82
606.886	11585.53
607.082	11431.93
607.278	11765.75
607.474	11335.68
607.67	11511.8
607.866	11388.92
608.062	11509.76
608.257	11372.54
608.453	11390.97
608.649	11370.49
608.845	11251.71
609.041	11225.09
609.236	11223.04
609.432	11241.47
609.628	11442.17
609.824	11163.65
610.019	11169.79
610.215	11108.35
610.411	11169.79
610.606	11067.39
610.802	11114.5
610.998	11063.3
611.193	10895.36
611.389	10688.52
611.584	11020.29
611.78	11012.1
611.976	10911.75
612.171	10940.42
612.367	10641.42
612.562	10848.26
612.758	10876.93
612.953	10758.15
613.149	10799.11
613.344	10674.18
613.539	10928.13
613.735	10948.61
613.93	10819.59
614.126	10604.55
614.321	10749.96
614.517	10831.88
614.712	10719.24
614.907	10680.33
615.103	10663.94
615.298	10600.46
615.493	10725.38
615.688	10436.62
615.884	10635.27
616.079	10405.9
616.274	10551.31
616.47	10450.96
616.665	10483.72
616.86	10338.32
617.055	10315.79
617.25	10477.58
617.445	10473.48
617.641	10369.04
617.836	10346.51
618.031	10248.21
618.226	10252.3
618.421	10061.84
618.616	10283.02
618.811	10022.93
619.006	10252.3
619.201	10035.22
619.396	9893.91
619.591	10012.69
619.786	9996.31
619.981	9818.13
620.176	10102.8
620.371	9852.95
620.566	9775.13
620.761	9861.14
620.956	9830.42
621.151	9623.58
621.346	9590.81
621.541	9433.11
621.735	9590.81
621.93	9467.93
622.125	9549.85
622.32	9351.2
622.515	9271.33
622.709	9254.94
622.904	9279.52
623.099	9224.22
623.294	9312.28
623.488	9195.55
623.683	9095.2
623.878	9003.04
624.072	9025.57
624.267	9003.04
624.462	9023.52
624.656	8835.11
624.851	8794.15
625.046	8681.51
625.24	8816.68
625.435	8628.26
625.629	8601.64
625.824	8661.03
626.018	8431.66
626.213	8407.08
626.407	8392.75
626.602	8329.26
626.796	8378.41
626.991	8525.86
627.185	8370.22
627.38	8093.74
627.574	8130.61
627.768	8103.98
627.963	8167.47
628.157	8067.12
628.352	8065.07
628.546	7985.2
628.74	7956.53
628.935	8042.54
629.129	7694.39
629.323	7729.2
629.517	7890.99
629.712	7624.76
629.906	7585.85
630.1	7591.99
630.294	7659.57
630.489	7622.71
630.683	7585.85
630.877	7268.41
631.071	7526.46
631.265	7321.66
631.459	7278.65
631.653	7309.37
631.848	7295.04
632.042	7153.73
632.236	7180.35
632.43	7213.12
632.624	7245.88
632.818	7143.49
633.012	7026.75
633.206	6883.39
633.4	6955.07
633.594	7006.27
633.788	6817.86
633.982	6926.4
634.176	7061.57
634.369	6805.57
634.563	6821.95
634.757	6686.79
634.951	6897.73
635.145	6684.74
635.339	6692.93
635.533	6592.58
635.726	6701.12
635.92	6572.1
636.114	6494.28
636.308	6457.42
636.501	6432.84
636.695	6402.12
636.889	6256.72
637.083	6289.48
637.276	6279.24
637.47	6451.27
637.664	6287.43
637.857	6291.53
638.051	6228.04
638.244	6168.65
638.438	6201.42
638.632	6002.77
638.825	6027.34
639.019	6123.6
639.212	5791.83
639.406	6000.72
639.599	5935.18
639.793	6025.29
639.986	5820.5
640.18	5847.12
640.373	5699.67
640.567	5869.65
640.76	5847.12
640.954	5650.52
641.147	5734.48
641.34	5636.18
641.534	5578.84
641.727	5599.32
641.92	5671
642.114	5533.78
642.307	5609.56
642.5	5417.05
642.694	5378.14
642.887	5380.18
643.08	5365.85
643.273	5326.94
643.467	5345.37
643.66	5285.98
643.853	5421.14
644.046	5275.74
644.239	5314.65
644.432	5126.24
644.626	5128.28
644.819	5107.8
645.012	5245.02
645.205	5220.44
645.398	4993.12
645.591	4995.17
645.784	5040.22
645.977	5007.45
646.17	4956.26
646.363	4939.87
646.556	4814.95
646.749	4892.77
646.942	4816.99
647.135	4788.32
647.328	4722.79
647.521	4896.86
647.714	4773.99
647.907	4903.01
648.099	4743.27
648.292	4675.68
648.485	4673.64
648.678	4532.33
648.871	4470.89
649.064	4591.72
649.256	4692.07
649.449	4554.85
649.642	4524.13
649.835	4561
650.027	4483.17
650.22	4327.53
650.413	4391.02
650.605	4348.01
650.798	4376.68
650.991	4393.06
651.183	4302.95
651.376	4288.62
651.568	4280.43
651.761	4317.29
651.954	4307.05
652.146	4212.84
652.339	4210.79
652.531	4182.12
652.724	3973.23
652.916	3979.37
653.109	4083.82
653.301	3975.28
653.494	3954.8
653.686	3960.94
653.879	4032.62
654.071	3958.89
654.263	3965.04
654.456	3874.93
654.648	4083.82
654.84	4024.43
655.033	3932.27
655.225	3790.96
655.417	3846.26
655.61	3772.53
655.802	3811.44
655.994	3838.06
656.186	3803.25
656.379	3649.65
656.571	3750
656.763	3850.35
656.955	3733.62
657.148	3698.8
657.34	3688.56
657.532	3606.64
657.724	3600.5
657.916	3678.32
658.108	3629.17
658.3	3653.75
658.492	3577.97
658.684	3373.18
658.876	3571.83
659.068	3438.71
659.26	3319.93
659.452	3354.74
659.644	3563.64
659.836	3293.3
660.028	3344.5
660.22	3217.53
660.412	3328.12
660.604	3311.74
660.796	3432.57
660.988	3299.45
661.18	3301.5
661.372	3197.05
661.563	3332.22
661.755	3096.7
661.947	3121.28
662.139	3223.67
662.331	3100.8
662.522	3027.07
662.714	3133.56
662.906	3053.69
663.097	3014.78
663.289	3123.32
663.481	3012.73
663.673	3106.94
663.864	3045.5
664.056	2934.91
664.247	2998.4
664.439	2992.25
664.631	2873.47
664.822	2885.76
665.014	2812.03
665.205	2930.81
665.397	2965.63
665.588	2844.8
665.78	2873.47
665.971	2861.18
666.163	2758.78
666.354	2873.47
666.546	2697.35
666.737	2762.88
666.929	2779.26
667.12	2805.89
667.311	2678.91
667.503	2717.83
667.694	2791.55
667.885	2728.07
668.077	2570.37
668.268	2740.35
668.459	2597
668.651	2685.06
668.842	2570.37
669.033	2615.43
669.224	2537.6
669.416	2594.95
669.607	2584.71
669.798	2492.55
669.989	2556.04
670.18	2502.79
670.371	2558.08
670.563	2586.76
670.754	2496.64
670.945	2478.21
671.136	2558.08
671.327	2457.73
671.518	2349.19
671.709	2463.88
671.9	2445.45
672.091	2476.16
672.282	2461.83
672.473	2375.81
672.664	2427.01
672.855	2363.53
673.046	2472.07
673.237	2363.53
673.428	2314.38
673.619	2386.05
673.809	2373.77
674	2281.61
674.191	2371.72
674.382	2257.03
674.573	2357.38
674.764	2295.94
674.954	2318.47
675.145	2363.53
675.336	2238.6
675.527	2308.23
675.717	2228.36
675.908	2320.52
676.099	2166.92
676.289	2263.18
676.48	2054.28
676.671	2220.17
676.861	2209.93
677.052	2123.91
677.243	2066.57
677.433	2128.01
677.624	2244.74
677.814	2019.47
678.005	2109.58
678.195	2254.98
678.386	2035.85
678.576	2246.79
678.767	2123.91
678.957	2095.24
679.148	2035.85
679.338	2027.66
679.529	2070.67
679.719	2101.39
679.909	2021.52
680.1	2115.72
680.29	1986.7
680.481	2097.29
680.671	2001.04
680.861	2076.81
681.052	1951.88
681.242	2035.85
681.432	1974.41
681.622	1992.84
681.813	2027.66
682.003	2013.32
682.193	2042
682.383	1988.75
682.573	1929.36
682.764	1943.69
682.954	1941.65
683.144	2052.24
683.334	1927.31
683.524	1978.51
683.714	1902.73
683.904	1900.69
684.094	1968.27
684.284	2068.62
684.474	1910.93
684.664	1853.58
684.854	1904.78
685.044	1853.58
685.234	1958.03
685.424	1972.36
685.614	1814.67
685.804	1921.17
685.994	1775.76
686.184	1865.87
686.374	1919.12
686.564	1896.59
686.753	1849.49
686.943	1794.19
687.133	1845.39
687.323	1851.53
687.513	1822.86
687.702	1745.04
687.892	1900.69
688.082	1841.29
688.272	1806.48
688.461	1781.9
688.651	1826.96
688.841	1767.57
689.03	1777.81
689.22	1749.14
689.41	1673.36
689.599	1751.18
689.789	1677.46
689.979	1804.43
690.168	1790.1
690.358	1689.74
690.547	1589.39
690.737	1728.66
690.926	1716.37
691.116	1663.12
691.305	1724.56
691.495	1745.04
691.684	1742.99
691.874	1675.41
692.063	1562.77
692.252	1724.56
692.442	1722.51
692.631	1525.91
692.82	1566.87
693.01	1691.79
693.199	1564.82
693.388	1542.29
693.578	1593.49
693.767	1634.45
693.956	1575.06
694.146	1609.87
694.335	1624.21
694.524	1491.09
694.713	1505.43
694.902	1562.77
695.092	1613.97
695.281	1597.59
695.47	1501.33
695.659	1546.39
695.848	1489.04
696.037	1587.35
696.226	1564.82
696.415	1491.09
696.604	1489.04
696.793	1546.39
696.982	1505.43
697.171	1573.01
697.36	1583.25
697.549	1487
697.738	1452.18
697.927	1544.34
698.116	1460.37
698.305	1405.08
698.494	1400.98
698.683	1382.55
698.872	1507.48
699.061	1487
699.25	1452.18
699.438	1429.65
699.627	1470.61
699.816	1450.13
700.005	1370.26
700.193	1345.69
700.382	1384.6
700.571	1403.03
700.76	1396.89
700.948	1452.18
701.137	1364.12
701.326	1484.95
701.514	1353.88
701.703	1421.46
701.892	1345.69
702.08	1323.16
702.269	1310.87
702.457	1390.74
702.646	1437.84
702.834	1398.93
703.023	1276.06
703.212	1274.01
703.4	1443.99
703.589	1337.49
703.777	1364.12
703.965	1276.06
704.154	1208.47
704.342	1355.93
704.531	1271.96
704.719	1257.62
704.907	1290.39
705.096	1288.34
705.284	1271.96
705.472	1370.26
705.661	1370.26
705.849	1310.87
706.037	1200.28
706.226	1222.81
706.414	1310.87
706.602	1253.53
706.79	1276.06
706.979	1276.06
707.167	1341.59
707.355	1259.67
707.543	1349.78
707.731	1306.77
707.919	1220.76
708.107	1157.27
708.296	1253.53
708.484	1269.91
708.672	1310.87
708.86	1216.66
709.048	1312.92
709.236	1200.28
709.424	1339.54
709.612	1220.76
709.8	1231
709.988	1249.43
710.176	1218.71
710.364	1190.04
710.551	1263.77
710.739	1226.9
710.927	1249.43
711.115	1153.18
711.303	1210.52
711.491	1228.95
711.679	1233.05
711.866	1179.8
712.054	1151.13
712.242	1210.52
712.43	1253.53
712.617	1155.23
712.805	1142.94
712.993	1231
713.181	1134.75
713.368	1251.48
713.556	1245.34
713.744	1210.52
713.931	1292.44
714.119	1095.83
714.306	1067.16
714.494	1173.66
714.682	1140.89
714.869	1075.35
715.057	1181.85
715.244	1157.27
715.432	1110.17
715.619	1099.93
715.807	1140.89
715.994	1095.83
716.182	1077.4
716.369	1112.22
716.556	1157.27
716.744	1116.31
716.931	1093.79
717.119	1245.34
717.306	1122.46
717.493	1095.83
717.681	1110.17
717.868	1001.63
718.055	1114.27
718.242	1007.77
718.43	1067.16
718.617	1083.55
718.804	1165.46
718.991	1142.94
719.179	1028.25
719.366	1210.52
719.553	1128.6
719.74	1077.4
719.927	1052.83
720.114	1077.4
720.301	1065.11
720.488	1110.17
720.676	1063.07
720.863	1079.45
721.05	1140.89
721.237	1112.22
721.424	1081.5
721.611	1110.17
721.798	1110.17
721.985	1067.16
722.172	972.96
722.358	1153.18
722.545	1099.93
722.732	1050.78
722.919	1007.77
723.106	1073.31
723.293	1046.68
723.48	1044.63
723.667	1030.3
723.853	1020.06
724.04	1028.25
724.227	938.14
724.414	1022.11
724.6	985.24
724.787	1065.11
724.974	1065.11
725.161	1081.5
725.347	960.67
725.534	1024.16
725.72	1026.2
725.907	1040.54
726.094	1007.77
726.28	1034.39
726.467	1093.79
726.653	915.61
726.84	1108.12
727.027	1067.16
727.213	1003.68
727.4	1032.35
727.586	968.86
727.773	1022.11
727.959	993.44
728.145	1044.63
728.332	1058.97
728.518	968.86
728.705	1056.92
728.891	987.29
729.077	1046.68
729.264	966.81
729.45	1011.87
729.636	1079.45
729.823	1099.93
730.009	968.86
730.195	960.67
730.382	1018.01
730.568	964.76
730.754	1030.3
730.94	966.81
731.126	1018.01
731.313	1015.96
731.499	950.43
731.685	993.44
731.871	1034.39
732.057	964.76
732.243	985.24
732.429	1018.01
732.615	1024.16
732.801	1028.25
732.987	960.67
733.173	927.9
733.359	999.58
733.545	1022.11
733.731	1034.39
733.917	995.48
734.103	1026.2
734.289	981.15
734.475	1030.3
734.661	942.24
734.847	874.65
735.033	1026.2
735.219	1028.25
735.404	1011.87
735.59	977.05
735.776	919.71
735.962	1061.02
736.148	913.56
736.333	946.33
736.519	956.57
736.705	929.95
736.89	880.8
737.076	1007.77
737.262	946.33
737.447	1050.78
737.633	958.62
737.819	975
738.004	1075.35
738.19	1018.01
738.375	993.44
738.561	991.39
738.747	958.62
738.932	970.91
739.118	999.58
739.303	964.76
739.489	1099.93
739.674	1061.02
739.859	970.91
740.045	948.38
740.23	989.34
740.416	938.14
740.601	1022.11
740.786	897.18
740.972	948.38
741.157	913.56
741.342	919.71
741.528	942.24
741.713	895.13
741.898	917.66
742.084	848.03
742.269	946.33
742.454	907.42
742.639	938.14
742.824	929.95
743.01	901.28
743.195	897.18
743.38	837.79
743.565	905.37
743.75	958.62
743.935	880.8
744.12	923.8
744.305	919.71
744.49	843.93
744.675	829.6
744.86	870.56
745.045	805.02
745.23	762.02
745.415	925.85
745.6	915.61
745.785	882.85
745.97	839.84
746.155	800.93
746.34	888.99
746.525	927.9
746.71	878.75
746.895	848.03
747.079	872.61
747.264	891.04
747.449	913.56
747.634	782.49
747.819	905.37
748.003	866.46
748.188	784.54
748.373	893.09
748.557	870.56
748.742	815.26
748.927	802.97
749.111	825.5
749.296	784.54
749.481	735.39
749.665	813.21
749.85	831.65
750.034	815.26
750.219	786.59
750.404	690.34
750.588	774.3
750.773	776.35
750.957	790.69
751.141	762.02
751.326	719.01
751.51	786.59
751.695	749.73
751.879	790.69
752.064	725.15
752.248	653.47
752.432	684.19
752.617	714.91
752.801	745.63
752.985	690.34
753.17	616.61
753.354	645.28
753.538	759.97
753.722	661.66
753.907	716.96
754.091	649.38
754.275	729.25
754.459	706.72
754.643	714.91
754.828	667.81
755.012	669.86
755.196	598.18
755.38	651.42
755.564	649.38
755.748	649.38
755.932	647.33
756.116	632.99
756.3	659.62
756.484	628.9
756.668	661.66
756.852	546.98
757.036	571.55
757.22	649.38
757.404	620.71
757.588	637.09
757.772	608.42
757.956	581.79
758.14	624.8
758.323	571.55
758.507	708.77
758.691	587.94
758.875	520.35
759.059	616.61
759.242	596.13
759.426	598.18
759.61	551.07
759.794	516.26
759.977	563.36
760.161	475.3
760.345	487.59
760.528	516.26
760.712	489.64
760.895	440.48
761.079	565.41
761.263	557.22
761.446	463.01
761.63	530.59
761.813	546.98
761.997	518.31
762.18	516.26
762.364	577.7
762.547	516.26
762.731	485.54
762.914	514.21
763.098	516.26
763.281	520.35
763.464	469.16
763.648	471.2
763.831	540.83
764.015	516.26
764.198	420
764.381	565.41
764.564	497.83
764.748	467.11
764.931	434.34
765.114	512.16
765.297	538.79
765.481	528.55
765.664	479.4
765.847	409.76
766.03	526.5
766.213	442.53
766.397	491.68
766.58	549.03
766.763	436.39
766.946	499.88
767.129	495.78
767.312	452.77
767.495	487.59
767.678	403.62
767.861	436.39
768.044	487.59
768.227	420
768.41	354.47
768.593	370.85
768.776	446.63
768.959	438.44
769.142	454.82
769.324	454.82
769.507	354.47
769.69	465.06
769.873	420
770.056	508.07
770.239	377
770.421	430.24
770.604	454.82
770.787	463.01
770.97	432.29
771.152	450.72
771.335	428.2
771.518	454.82
771.7	460.96
771.883	452.77
772.066	379.04
772.248	440.48
772.431	436.39
772.613	501.92
772.796	391.33
772.978	463.01
773.161	407.72
773.343	391.33
773.526	362.66
773.708	383.14
773.891	393.38
774.073	442.53
774.256	393.38
774.438	426.15
774.621	374.95
774.803	389.28
774.985	327.85
775.168	381.09
775.35	424.1
775.532	420
775.715	323.75
775.897	315.56
776.079	346.28
776.261	377
776.444	217.26
776.626	352.42
776.808	299.17
776.99	403.62
777.173	350.37
777.355	350.37
777.537	422.05
777.719	393.38
777.901	299.17
778.083	297.13
778.265	284.84
778.447	290.98
778.629	362.66
778.811	338.09
778.993	268.45
779.175	276.65
779.357	307.37
779.539	290.98
779.721	288.93
779.903	284.84
780.085	360.61
780.267	295.08
780.449	286.89
780.631	323.75
780.812	264.36
780.994	280.74
781.176	305.32
781.358	342.18
781.54	321.7
781.721	336.04
781.903	260.26
782.085	254.12
782.267	331.94
782.448	250.02
782.63	309.41
782.812	305.32
782.993	303.27
783.175	260.26
783.357	198.82
783.538	276.65
783.72	211.11
783.901	245.93
784.083	319.65
784.264	219.3
784.446	274.6
784.627	282.79
784.809	235.69
784.99	188.58
785.172	219.3
785.353	209.06
785.535	227.5
785.716	245.93
785.897	204.97
786.079	211.11
786.26	272.55
786.441	229.54
786.623	207.02
786.804	239.78
786.985	221.35
787.167	231.59
787.348	186.54
787.529	213.16
787.71	149.67
787.891	188.58
788.073	239.78
788.254	286.89
788.435	252.07
788.616	258.21
788.797	198.82
788.978	198.82
789.159	293.03
789.34	161.96
789.522	170.15
789.703	270.5
789.884	207.02
790.065	231.59
790.246	94.38
790.427	188.58
790.607	145.58
790.788	178.34
790.969	112.81
791.15	241.83
791.331	217.26
791.512	114.86
791.693	166.06
791.874	133.29
792.054	176.3
792.235	207.02
792.416	192.68
792.597	143.53
792.778	102.57
792.958	200.87
793.139	123.05
793.32	114.86
793.5	170.15
793.681	159.91
793.862	184.49
794.042	153.77
794.223	135.34
794.404	133.29
794.584	149.67
794.765	102.57
794.945	121
795.126	94.38
795.306	121
795.487	215.21
795.667	149.67
795.848	221.35
796.028	100.52
796.209	125.1
796.389	190.63
796.57	98.47
796.75	118.95
796.93	166.06
797.111	131.24
797.291	166.06
797.471	141.48
797.652	155.82
797.832	127.14
798.012	121
798.192	153.77
798.373	96.43
798.553	172.2
798.733	127.14
798.913	114.86
799.093	118.95
799.274	141.48
799.454	106.67
799.634	63.66
799.814	225.45
799.994	141.48
800.174	86.19
800.354	45.23
800.534	123.05
800.714	30.89
800.894	123.05
801.074	102.57
801.254	104.62
801.434	155.82
801.614	145.58
801.794	73.9
801.974	333.99
802.154	121
802.334	168.1
802.514	180.39
802.693	174.25
802.873	149.67
803.053	200.87
803.233	172.2
803.413	141.48
803.592	61.61
803.772	94.38
803.952	96.43
804.131	121
804.311	88.23
804.491	127.14
804.67	75.95
804.85	51.37
805.03	86.19
805.209	102.57
805.389	77.99
805.568	98.47
805.748	96.43
805.928	90.28
806.107	63.66
806.287	127.14
806.466	108.71
806.646	98.47
806.825	102.57
807.004	73.9
807.184	67.75
807.363	135.34
807.543	108.71
807.722	77.99
807.901	116.9
808.081	39.08
808.26	34.99
808.439	82.09
808.619	110.76
808.798	16.55
808.977	86.19
809.156	131.24
809.336	94.38
809.515	114.86
809.694	65.71
809.873	45.23
810.052	86.19
810.231	155.82
810.411	43.18
810.59	92.33
810.769	61.61
810.948	86.19
811.127	24.75
811.306	80.04
811.485	75.95
811.664	94.38
811.843	82.09
812.022	110.76
812.201	8.36
812.38	98.47
812.559	47.27
812.737	59.56
812.916	-20.31
813.095	26.79
813.274	104.62
813.453	118.95
813.632	59.56
813.811	118.95
813.989	112.81
814.168	116.9
814.347	47.27
814.526	116.9
814.704	55.47
814.883	18.6
815.062	88.23
815.24	135.34
815.419	34.99
815.598	71.85
815.776	77.99
815.955	77.99
816.133	80.04
816.312	47.27
816.49	41.13
816.669	8.36
816.847	133.29
817.026	53.42
817.204	-59.22
817.383	59.56
817.561	59.56
817.74	28.84
817.918	61.61
818.097	77.99
818.275	20.65
818.453	110.76
818.632	57.51
818.81	110.76
818.988	14.51
819.167	39.08
819.345	77.99
819.523	131.24
819.701	-18.26
819.879	61.61
820.058	4.27
820.236	51.37
820.414	88.23
820.592	71.85
820.77	8.36
820.948	37.03
821.127	98.47
821.305	71.85
821.483	30.89
821.661	-12.12
821.839	61.61
822.017	30.89
822.195	69.8
822.373	43.18
822.551	-30.55
822.729	39.08
822.907	-5.97
823.085	69.8
823.262	28.84
823.44	67.75
823.618	37.03
823.796	12.46
823.974	51.37
824.152	67.75
824.329	34.99
824.507	98.47
824.685	-20.31
824.863	59.56
825.04	65.71
825.218	-63.32
825.396	94.38
825.574	80.04
825.751	4.27
825.929	67.75
826.107	10.41
826.284	106.67
826.462	98.47
826.639	-36.69
826.817	57.51
826.994	22.7
827.172	-5.97
827.349	-3.93
827.527	80.04
827.704	2.22
827.882	-20.31
828.059	73.9
828.237	2.22
828.414	34.99
828.591	20.65
828.769	-3.93
828.946	65.71
829.124	69.8
829.301	-22.36
829.478	34.99
829.655	86.19
829.833	80.04
830.01	49.32
830.187	32.94
830.364	-42.84
830.542	22.7
830.719	88.23
830.896	80.04
831.073	22.7
831.25	-30.55
831.427	108.71
831.604	20.65
831.782	82.09
831.959	88.23
832.136	12.46
832.313	-30.55
832.49	-28.5
832.667	32.94
832.844	88.23
833.021	14.51
833.198	-14.17
833.374	-22.36
833.551	4.27
833.728	77.99
833.905	-51.03
834.082	106.67
834.259	55.47
834.436	41.13
834.612	30.89
834.789	43.18
834.966	0.17
835.143	-18.26
835.319	-32.6
835.496	32.94
835.673	12.46
835.85	51.37
836.026	8.36
836.203	4.27
836.38	-12.12
836.556	-22.36
836.733	2.22
836.909	-20.31
837.086	-10.07
837.262	28.84
837.439	63.66
837.616	8.36
837.792	-14.17
837.968	49.32
838.145	28.84
838.321	75.95
838.498	2.22
838.674	16.55
838.851	-1.88
839.027	10.41
839.203	82.09
839.38	16.55
839.556	-32.6
839.732	34.99
839.909	49.32
840.085	30.89
840.261	98.47
840.437	73.9
840.614	41.13
840.79	73.9
840.966	-1.88
841.142	18.6
841.318	14.51
841.494	20.65
841.671	-14.17
841.847	26.79
842.023	22.7
842.199	-18.26
842.375	-1.88
842.551	-36.69
842.727	-71.51
842.903	43.18
843.079	26.79
843.255	-71.51
843.431	20.65
843.607	4.27
843.783	-22.36
843.959	-32.6
844.134	34.99
844.31	71.85
844.486	-30.55
844.662	-26.45
844.838	-40.79
845.013	71.85
845.189	73.9
845.365	-22.36
845.541	24.75
845.716	0.17
845.892	59.56
846.068	69.8
846.244	26.79
846.419	63.66
846.595	26.79
846.77	-20.31
846.946	14.51
847.122	8.36
847.297	28.84
847.473	96.43
847.648	-3.93
847.824	14.51
847.999	-12.12
848.175	92.33
848.35	14.51
848.526	-3.93
848.701	6.31
848.876	18.6
849.052	28.84
849.227	47.27
849.403	2.22
849.578	-1.88
849.753	-22.36
849.929	43.18
850.104	6.31
850.279	28.84
850.454	22.7
850.63	6.31
850.805	-77.65
850.98	-1.88
851.155	14.51
851.33	16.55
851.505	-1.88
851.681	-16.21
851.856	-85.84
852.031	16.55
852.206	-5.97
852.381	-61.27
852.556	26.79
852.731	-71.51
852.906	45.23
853.081	18.6
853.256	61.61
853.431	26.79
853.606	-38.74
853.781	-22.36
853.956	-44.88
854.131	0.17
854.305	51.37
854.48	-30.55
854.655	-51.03
854.83	26.79
855.005	-40.79
855.18	-44.88
855.354	-1.88
855.529	59.56
855.704	37.03
855.879	-65.36
856.053	8.36
856.228	63.66
856.403	-34.64
856.577	16.55
856.752	12.46
856.926	22.7
857.101	22.7
857.276	30.89
857.45	41.13
857.625	49.32
857.799	-42.84
857.974	34.99
858.148	8.36
858.323	4.27
858.497	12.46
858.672	12.46
858.846	24.75
859.02	18.6
859.195	-46.93
859.369	53.42
859.543	47.27
859.718	2.22
859.892	-36.69
860.066	67.75
860.241	18.6
860.415	51.37
860.589	-26.45
860.763	4.27
860.938	80.04
861.112	-12.12
861.286	24.75
861.46	59.56
861.634	-22.36
861.808	-10.07
861.982	47.27
862.157	-48.98
862.331	12.46
862.505	-18.26
862.679	-3.93
862.853	-26.45
863.027	2.22
863.201	-26.45
863.375	24.75
863.549	45.23
863.722	30.89
863.896	92.33
864.07	18.6
864.244	34.99
864.418	12.46
864.592	37.03
864.766	10.41
864.939	-44.88
865.113	-18.26
865.287	4.27
865.461	-12.12
865.634	-14.17
865.808	-34.64
865.982	45.23
866.156	-16.21
866.329	18.6
866.503	2.22
866.676	-12.12
866.85	-32.6
867.024	20.65
867.197	-20.31
867.371	49.32
867.544	-20.31
867.718	-98.13
867.891	-48.98
868.065	39.08
868.238	-44.88
868.412	28.84
868.585	16.55
868.759	2.22
868.932	30.89
869.105	-26.45
869.279	-44.88
869.452	32.94
869.625	-38.74
869.799	47.27
869.972	59.56
870.145	-57.17
870.319	30.89
870.492	18.6
870.665	-20.31
870.838	-5.97
871.011	-3.93
871.185	34.99
871.358	-44.88
871.531	12.46
871.704	-69.46
871.877	43.18
872.05	26.79
872.223	-3.93
872.396	-63.32
872.569	-32.6
872.742	-24.4
872.915	-10.07
873.088	-12.12
873.261	-46.93
873.434	-20.31
873.607	-22.36
873.78	55.47
873.953	-14.17
874.126	26.79
874.299	-24.4
874.471	-28.5
874.644	47.27
874.817	-34.64
874.99	16.55
875.163	55.47
875.335	-12.12
875.508	6.31
875.681	28.84
875.853	-38.74
876.026	-18.26
876.199	30.89
876.371	-12.12
876.544	-30.55
876.717	-8.02
876.889	-8.02
877.062	-20.31
877.234	-18.26
877.407	34.99
877.579	-57.17
877.752	-12.12
877.924	32.94
878.097	18.6
878.269	59.56
878.442	34.99
878.614	-12.12
878.786	-20.31
878.959	10.41
879.131	32.94
879.303	-26.45
879.476	37.03
879.648	57.51
879.82	-28.5
879.993	2.22
880.165	32.94
880.337	-10.07
880.509	-36.69
880.681	-3.93
880.854	-3.93
881.026	8.36
881.198	-51.03
881.37	-24.4
881.542	20.65
881.714	-22.36
881.886	39.08
882.058	-42.84
882.23	10.41
882.402	-79.7
882.574	43.18
882.746	-8.02
882.918	59.56
883.09	-12.12
883.262	-46.93
883.434	-61.27
883.606	-89.94
883.778	32.94
883.95	10.41
884.122	-63.32
884.293	-51.03
884.465	-34.64
884.637	-1.88
884.809	-46.93
884.98	45.23
885.152	37.03
885.324	55.47
885.496	28.84
885.667	0.17
885.839	34.99
886.011	12.46
886.182	-26.45
886.354	-48.98
886.525	22.7
886.697	-38.74
886.869	-5.97
887.04	2.22
887.212	24.75
887.383	-5.97
887.555	-34.64
887.726	22.7
887.897	-36.69
888.069	-22.36
888.24	24.75
888.412	14.51
888.583	12.46
888.754	-16.21
888.926	-44.88
889.097	6.31
889.268	-91.99
889.44	22.7
889.611	26.79
889.782	12.46
889.953	-32.6
890.125	12.46
890.296	-20.31
890.467	-22.36
890.638	-12.12
890.809	86.19
890.98	-22.36
891.151	32.94
891.323	-44.88
891.494	16.55
891.665	-26.45
891.836	14.51
892.007	12.46
892.178	-3.93
892.349	-46.93
892.52	-20.31
892.691	34.99
892.862	71.85
893.032	-28.5
893.203	55.47
893.374	22.7
893.545	-46.93
893.716	20.65
893.887	6.31
894.057	34.99
894.228	26.79
894.399	-12.12
894.57	24.75
894.74	14.51
894.911	-3.93
895.082	43.18
895.253	30.89
895.423	-18.26
895.594	-38.74
895.764	-1.88
895.935	34.99
896.106	39.08
896.276	30.89
896.447	-71.51
896.617	-5.97
896.788	-28.5
896.958	-16.21
897.129	-38.74
897.299	-48.98
897.47	-63.32
897.64	8.36
897.81	6.31
897.981	34.99
898.151	32.94
898.322	-20.31
898.492	18.6
898.662	2.22
898.832	0.17
899.003	4.27
899.173	-20.31
899.343	26.79
899.513	-34.64
