Data from USB4F104151__92__12-54-52-397.txt Node

Date: Fri Mar 14 12:54:52 EDT 2025
User: louis
Spectrometer: USB4F10415
Trigger mode: 4
Integration Time (sec): 1.000000E-2
Scans to average: 1
Electric dark correction enabled: true
Nonlinearity correction enabled: false
Boxcar width: 0
XAxis mode: Wavelengths
Number of Pixels in Spectrum: 3648
>>>>>Begin Spectral Data<<<<<
178.204	18.26
178.424	18.26
178.644	18.26
178.864	-45.23
179.084	-20.65
179.304	-22.7
179.524	40.79
179.744	-55.47
179.964	12.12
180.184	44.88
180.404	-8.36
180.624	34.64
180.844	-67.75
181.064	-28.84
181.283	16.21
181.503	-26.79
181.723	61.27
181.943	-55.47
182.163	61.27
182.383	28.5
182.602	44.88
182.822	24.4
183.042	44.88
183.262	28.5
183.482	3.93
183.701	-20.65
183.921	26.45
184.141	20.31
184.361	63.32
184.58	55.12
184.8	1.88
185.02	36.69
185.239	16.21
185.459	38.74
185.679	75.6
185.898	16.21
186.118	63.32
186.338	32.6
186.557	91.99
186.777	-20.65
186.997	40.79
187.216	-18.6
187.436	77.65
187.655	28.5
187.875	-6.31
188.095	28.5
188.314	12.12
188.534	30.55
188.753	24.4
188.973	53.08
189.192	18.26
189.412	30.55
189.631	-8.36
189.851	-24.75
190.07	48.98
190.29	-34.99
190.509	-45.23
190.729	55.12
190.948	30.55
191.168	65.36
191.387	16.21
191.607	-34.99
191.826	26.45
192.045	46.93
192.265	5.97
192.484	16.21
192.704	69.46
192.923	-14.51
193.142	73.56
193.362	36.69
193.581	30.55
193.8	20.31
194.02	24.4
194.239	5.97
194.458	53.08
194.678	53.08
194.897	53.08
195.116	46.93
195.335	-18.6
195.555	24.4
195.774	20.31
195.993	73.56
196.212	-6.31
196.432	-8.36
196.651	96.08
196.87	48.98
197.089	100.18
197.308	81.75
197.528	32.6
197.747	22.36
197.966	8.02
198.185	46.93
198.404	3.93
198.623	44.88
198.842	48.98
199.062	-28.84
199.281	38.74
199.5	-26.79
199.719	32.6
199.938	16.21
200.157	-8.36
200.376	61.27
200.595	75.6
200.814	-0.17
201.033	-75.95
201.252	18.26
201.471	-0.17
201.69	1.88
201.909	16.21
202.128	36.69
202.347	14.17
202.566	-12.46
202.785	71.51
203.004	-37.03
203.223	77.65
203.442	100.18
203.661	-2.22
203.879	22.36
204.098	-26.79
204.317	1.88
204.536	55.12
204.755	32.6
204.974	55.12
205.193	34.64
205.411	20.31
205.63	-12.46
205.849	40.79
206.068	-26.79
206.287	67.41
206.505	-22.7
206.724	-12.46
206.943	-16.55
207.162	94.04
207.381	-55.47
207.599	-24.75
207.818	44.88
208.037	126.8
208.255	-6.31
208.474	3.93
208.693	51.03
208.911	36.69
209.13	8.02
209.349	69.46
209.567	61.27
209.786	8.02
210.005	-18.6
210.223	5.97
210.442	-10.41
210.661	44.88
210.879	46.93
211.098	-14.51
211.316	14.17
211.535	91.99
211.753	-43.18
211.972	-4.27
212.191	94.04
212.409	1.88
212.628	12.12
212.846	-53.42
213.065	3.93
213.283	12.12
213.502	-32.94
213.72	30.55
213.938	65.36
214.157	-28.84
214.375	34.64
214.594	-8.36
214.812	67.41
215.031	-30.89
215.249	40.79
215.467	1.88
215.686	20.31
215.904	38.74
216.122	5.97
216.341	32.6
216.559	55.12
216.778	1.88
216.996	-57.51
217.214	65.36
217.432	14.17
217.651	16.21
217.869	-6.31
218.087	20.31
218.306	-16.55
218.524	104.28
218.742	75.6
218.96	77.65
219.179	48.98
219.397	42.84
219.615	26.45
219.833	53.08
220.051	10.07
220.27	-24.75
220.488	14.17
220.706	55.12
220.924	-20.65
221.142	46.93
221.36	-24.75
221.578	65.36
221.796	132.95
222.015	48.98
222.233	22.36
222.451	91.99
222.669	8.02
222.887	-18.6
223.105	22.36
223.323	48.98
223.541	28.5
223.759	-4.27
223.977	12.12
224.195	79.7
224.413	53.08
224.631	28.5
224.849	32.6
225.067	112.47
225.285	-6.31
225.503	44.88
225.721	65.36
225.939	-28.84
226.157	81.75
226.375	22.36
226.592	-2.22
226.81	32.6
227.028	55.12
227.246	51.03
227.464	-16.55
227.682	34.64
227.9	73.56
228.117	51.03
228.335	114.52
228.553	89.94
228.771	106.32
228.989	102.23
229.206	-6.31
229.424	22.36
229.642	-47.27
229.86	63.32
230.077	-37.03
230.295	-10.41
230.513	44.88
230.731	81.75
230.948	55.12
231.166	53.08
231.384	-6.31
231.601	3.93
231.819	-12.46
232.037	81.75
232.254	77.65
232.472	14.17
232.689	34.64
232.907	38.74
233.125	-10.41
233.342	-10.41
233.56	67.41
233.777	40.79
233.995	5.97
234.213	94.04
234.43	22.36
234.648	36.69
234.865	28.5
235.083	94.04
235.3	-4.27
235.518	-0.17
235.735	12.12
235.953	42.84
236.17	1.88
236.388	79.7
236.605	26.45
236.822	42.84
237.04	40.79
237.257	106.32
237.475	-10.41
237.692	22.36
237.909	-26.79
238.127	-20.65
238.344	71.51
238.562	63.32
238.779	63.32
238.996	38.74
239.214	20.31
239.431	28.5
239.648	65.36
239.865	100.18
240.083	42.84
240.3	46.93
240.517	61.27
240.735	53.08
240.952	18.26
241.169	-8.36
241.386	-61.61
241.603	42.84
241.821	18.26
242.038	24.4
242.255	-22.7
242.472	-6.31
242.689	42.84
242.907	12.12
243.124	18.26
243.341	18.26
243.558	-20.65
243.775	20.31
243.992	1.88
244.209	20.31
244.426	104.28
244.643	26.45
244.86	-4.27
245.078	-39.08
245.295	18.26
245.512	114.52
245.729	98.13
245.946	30.55
246.163	-8.36
246.38	26.45
246.597	44.88
246.814	12.12
247.031	57.17
247.248	42.84
247.464	46.93
247.681	-39.08
247.898	42.84
248.115	57.17
248.332	-22.7
248.549	14.17
248.766	8.02
248.983	-24.75
249.2	10.07
249.417	22.36
249.633	-0.17
249.85	-20.65
250.067	51.03
250.284	3.93
250.501	-4.27
250.717	77.65
250.934	-16.55
251.151	75.6
251.368	26.45
251.585	28.5
251.801	-16.55
252.018	42.84
252.235	51.03
252.451	28.5
252.668	44.88
252.885	63.32
253.102	18.26
253.318	8.02
253.535	42.84
253.752	20.31
253.968	24.4
254.185	67.41
254.401	-6.31
254.618	20.31
254.835	8.02
255.051	28.5
255.268	44.88
255.484	3.93
255.701	18.26
255.917	65.36
256.134	14.17
256.351	5.97
256.567	-39.08
256.784	20.31
257	-67.75
257.217	28.5
257.433	53.08
257.65	28.5
257.866	-4.27
258.082	20.31
258.299	-26.79
258.515	5.97
258.732	3.93
258.948	63.32
259.165	1.88
259.381	-39.08
259.597	85.84
259.814	22.36
260.03	5.97
260.246	44.88
260.463	-14.51
260.679	40.79
260.895	71.51
261.112	38.74
261.328	69.46
261.544	-20.65
261.761	8.02
261.977	40.79
262.193	-67.75
262.409	30.55
262.626	12.12
262.842	57.17
263.058	20.31
263.274	3.93
263.49	22.36
263.707	69.46
263.923	5.97
264.139	73.56
264.355	89.94
264.571	-43.18
264.787	-16.55
265.004	8.02
265.22	12.12
265.436	44.88
265.652	98.13
265.868	69.46
266.084	-4.27
266.3	83.8
266.516	-2.22
266.732	55.12
266.948	-24.75
267.164	-32.94
267.38	28.5
267.596	87.89
267.812	24.4
268.028	30.55
268.244	5.97
268.46	12.12
268.676	34.64
268.892	46.93
269.108	-12.46
269.324	5.97
269.54	79.7
269.756	36.69
269.972	-32.94
270.188	-8.36
270.403	106.32
270.619	69.46
270.835	61.27
271.051	42.84
271.267	12.12
271.483	-12.46
271.698	20.31
271.914	26.45
272.13	18.26
272.346	51.03
272.562	51.03
272.777	10.07
272.993	36.69
273.209	42.84
273.425	-61.61
273.64	38.74
273.856	-8.36
274.072	61.27
274.287	-22.7
274.503	24.4
274.719	69.46
274.934	34.64
275.15	5.97
275.366	44.88
275.581	26.45
275.797	44.88
276.012	8.02
276.228	5.97
276.444	34.64
276.659	100.18
276.875	-10.41
277.09	71.51
277.306	36.69
277.521	5.97
277.737	5.97
277.952	10.07
278.168	-20.65
278.383	32.6
278.599	61.27
278.814	36.69
279.03	12.12
279.245	5.97
279.461	-16.55
279.676	-0.17
279.892	5.97
280.107	32.6
280.322	42.84
280.538	-0.17
280.753	55.12
280.969	57.17
281.184	-16.55
281.399	42.84
281.615	-57.51
281.83	34.64
282.045	16.21
282.26	53.08
282.476	30.55
282.691	30.55
282.906	38.74
283.122	38.74
283.337	42.84
283.552	-26.79
283.767	28.5
283.983	14.17
284.198	114.52
284.413	59.22
284.628	77.65
284.843	-6.31
285.058	30.55
285.274	-22.7
285.489	48.98
285.704	-2.22
285.919	18.26
286.134	65.36
286.349	83.8
286.564	24.4
286.779	-6.31
286.995	32.6
287.21	51.03
287.425	89.94
287.64	-24.75
287.855	14.17
288.07	71.51
288.285	38.74
288.5	38.74
288.715	28.5
288.93	14.17
289.145	96.08
289.36	-16.55
289.575	20.31
289.79	89.94
290.004	38.74
290.219	40.79
290.434	-16.55
290.649	91.99
290.864	20.31
291.079	3.93
291.294	-30.89
291.509	69.46
291.724	-6.31
291.938	-28.84
292.153	22.36
292.368	-4.27
292.583	67.41
292.798	48.98
293.012	65.36
293.227	-4.27
293.442	106.32
293.657	98.13
293.871	-28.84
294.086	26.45
294.301	10.07
294.516	5.97
294.73	57.17
294.945	-26.79
295.16	53.08
295.374	26.45
295.589	40.79
295.804	-8.36
296.018	32.6
296.233	42.84
296.447	38.74
296.662	22.36
296.877	12.12
297.091	42.84
297.306	-2.22
297.52	-14.51
297.735	24.4
297.949	12.12
298.164	8.02
298.378	38.74
298.593	26.45
298.807	-32.94
299.022	20.31
299.236	22.36
299.451	-6.31
299.665	81.75
299.88	10.07
300.094	53.08
300.309	-6.31
300.523	22.36
300.737	-26.79
300.952	14.17
301.166	24.4
301.381	32.6
301.595	12.12
301.809	12.12
302.024	46.93
302.238	14.17
302.452	85.84
302.667	30.55
302.881	20.31
303.095	53.08
303.309	94.04
303.524	77.65
303.738	30.55
303.952	28.5
304.166	5.97
304.381	-0.17
304.595	77.65
304.809	-28.84
305.023	30.55
305.237	59.22
305.452	55.12
305.666	36.69
305.88	89.94
306.094	38.74
306.308	24.4
306.522	61.27
306.736	98.13
306.95	57.17
307.164	79.7
307.379	-8.36
307.593	63.32
307.807	53.08
308.021	65.36
308.235	40.79
308.449	-10.41
308.663	67.41
308.877	65.36
309.091	36.69
309.305	38.74
309.519	53.08
309.733	42.84
309.947	20.31
310.161	55.12
310.374	-34.99
310.588	118.61
310.802	-2.22
311.016	104.28
311.23	14.17
311.444	-45.23
311.658	14.17
311.872	-12.46
312.085	57.17
312.299	126.8
312.513	48.98
312.727	1.88
312.941	-0.17
313.154	96.08
313.368	-30.89
313.582	46.93
313.796	-16.55
314.009	-61.61
314.223	20.31
314.437	8.02
314.651	48.98
314.864	16.21
315.078	18.26
315.292	-10.41
315.505	14.17
315.719	-20.65
315.933	36.69
316.146	-28.84
316.36	12.12
316.573	67.41
316.787	44.88
317.001	28.5
317.214	-2.22
317.428	73.56
317.641	-16.55
317.855	89.94
318.068	91.99
318.282	65.36
318.495	-41.13
318.709	-4.27
318.922	100.18
319.136	-20.65
319.349	42.84
319.563	20.31
319.776	8.02
319.99	48.98
320.203	-0.17
320.417	28.5
320.63	-24.75
320.843	-30.89
321.057	67.41
321.27	-18.6
321.483	40.79
321.697	38.74
321.91	34.64
322.124	10.07
322.337	69.46
322.55	44.88
322.763	24.4
322.977	-28.84
323.19	-6.31
323.403	-32.94
323.617	59.22
323.83	16.21
324.043	-2.22
324.256	14.17
324.469	-14.51
324.683	85.84
324.896	-0.17
325.109	-4.27
325.322	44.88
325.535	85.84
325.748	30.55
325.962	12.12
326.175	48.98
326.388	53.08
326.601	34.64
326.814	75.6
327.027	-4.27
327.24	26.45
327.453	-6.31
327.666	89.94
327.879	-30.89
328.092	38.74
328.305	44.88
328.518	51.03
328.731	53.08
328.944	14.17
329.157	42.84
329.37	55.12
329.583	-14.51
329.796	12.12
330.009	-6.31
330.222	114.52
330.435	-41.13
330.648	55.12
330.861	14.17
331.073	8.02
331.286	20.31
331.499	22.36
331.712	20.31
331.925	22.36
332.138	28.5
332.35	36.69
332.563	3.93
332.776	14.17
332.989	12.12
333.202	38.74
333.414	24.4
333.627	-18.6
333.84	51.03
334.053	8.02
334.265	3.93
334.478	12.12
334.691	61.27
334.903	-51.37
335.116	-2.22
335.329	10.07
335.541	8.02
335.754	135
335.966	16.21
336.179	-4.27
336.392	40.79
336.604	34.64
336.817	-2.22
337.029	120.66
337.242	-61.61
337.454	65.36
337.667	14.17
337.88	1.88
338.092	53.08
338.305	-18.6
338.517	38.74
338.729	55.12
338.942	34.64
339.154	-8.36
339.367	26.45
339.579	171.86
339.792	34.64
340.004	153.43
340.217	1.88
340.429	87.89
340.641	-0.17
340.854	-28.84
341.066	-32.94
341.278	-2.22
341.491	73.56
341.703	36.69
341.915	16.21
342.128	-37.03
342.34	-6.31
342.552	28.5
342.764	-18.6
342.977	-28.84
343.189	1.88
343.401	91.99
343.613	40.79
343.826	22.36
344.038	53.08
344.25	137.04
344.462	20.31
344.674	36.69
344.886	-8.36
345.099	40.79
345.311	75.6
345.523	34.64
345.735	34.64
345.947	8.02
346.159	81.75
346.371	44.88
346.583	104.28
346.795	94.04
347.007	67.41
347.219	18.26
347.431	61.27
347.643	28.5
347.855	18.26
348.067	38.74
348.279	44.88
348.491	-69.8
348.703	26.45
348.915	69.46
349.127	5.97
349.339	3.93
349.551	61.27
349.763	57.17
349.975	44.88
350.187	38.74
350.399	22.36
350.61	-4.27
350.822	85.84
351.034	28.5
351.246	-47.27
351.458	53.08
351.669	16.21
351.881	55.12
352.093	67.41
352.305	28.5
352.517	-32.94
352.728	-24.75
352.94	-51.37
353.152	5.97
353.363	85.84
353.575	3.93
353.787	-96.43
353.999	94.04
354.21	16.21
354.422	14.17
354.633	18.26
354.845	12.12
355.057	28.5
355.268	-2.22
355.48	22.36
355.692	12.12
355.903	-4.27
356.115	30.55
356.326	16.21
356.538	3.93
356.749	10.07
356.961	-34.99
357.172	53.08
357.384	36.69
357.595	32.6
357.807	53.08
358.018	-18.6
358.23	22.36
358.441	26.45
358.653	55.12
358.864	34.64
359.075	-2.22
359.287	-6.31
359.498	-4.27
359.709	44.88
359.921	51.03
360.132	-26.79
360.344	53.08
360.555	18.26
360.766	73.56
360.977	14.17
361.189	-4.27
361.4	-6.31
361.611	22.36
361.823	-16.55
362.034	38.74
362.245	10.07
362.456	65.36
362.667	28.5
362.879	34.64
363.09	-28.84
363.301	75.6
363.512	3.93
363.723	57.17
363.935	1.88
364.146	38.74
364.357	34.64
364.568	55.12
364.779	-16.55
364.99	69.46
365.201	12.12
365.412	102.23
365.623	36.69
365.834	32.6
366.045	71.51
366.256	44.88
366.467	-22.7
366.678	5.97
366.889	5.97
367.1	38.74
367.311	63.32
367.522	26.45
367.733	48.98
367.944	36.69
368.155	61.27
368.366	91.99
368.577	67.41
368.788	163.67
368.999	32.6
369.209	59.22
369.42	94.04
369.631	104.28
369.842	46.93
370.053	55.12
370.264	71.51
370.474	38.74
370.685	-59.56
370.896	5.97
371.107	36.69
371.317	130.9
371.528	30.55
371.739	34.64
371.95	18.26
372.16	32.6
372.371	38.74
372.582	51.03
372.792	81.75
373.003	36.69
373.214	65.36
373.424	51.03
373.635	1.88
373.846	79.7
374.056	44.88
374.267	53.08
374.477	-32.94
374.688	-10.41
374.898	-4.27
375.109	71.51
375.319	-16.55
375.53	130.9
375.74	38.74
375.951	24.4
376.161	120.66
376.372	-0.17
376.582	-24.75
376.793	5.97
377.003	94.04
377.214	30.55
377.424	30.55
377.635	61.27
377.845	51.03
378.055	145.24
378.266	-4.27
378.476	75.6
378.686	110.42
378.897	-18.6
379.107	57.17
379.317	63.32
379.528	-28.84
379.738	24.4
379.948	-34.99
380.158	57.17
380.369	32.6
380.579	59.22
380.789	59.22
380.999	46.93
381.21	157.52
381.42	42.84
381.63	24.4
381.84	-24.75
382.05	38.74
382.261	32.6
382.471	18.26
382.681	44.88
382.891	69.46
383.101	75.6
383.311	-26.79
383.521	48.98
383.731	-37.03
383.941	61.27
384.151	16.21
384.361	51.03
384.571	48.98
384.781	14.17
384.991	53.08
385.201	71.51
385.411	-4.27
385.621	65.36
385.831	38.74
386.041	53.08
386.251	98.13
386.461	-24.75
386.671	38.74
386.881	69.46
387.091	94.04
387.301	24.4
387.511	5.97
387.72	38.74
387.93	20.31
388.14	55.12
388.35	87.89
388.56	65.36
388.769	20.31
388.979	53.08
389.189	-67.75
389.399	44.88
389.609	81.75
389.818	-16.55
390.028	36.69
390.238	40.79
390.447	18.26
390.657	36.69
390.867	51.03
391.076	61.27
391.286	87.89
391.496	38.74
391.705	42.84
391.915	63.32
392.125	112.47
392.334	110.42
392.544	-4.27
392.753	48.98
392.963	48.98
393.172	104.28
393.382	42.84
393.591	100.18
393.801	51.03
394.01	48.98
394.22	26.45
394.429	65.36
394.639	85.84
394.848	44.88
395.058	106.32
395.267	51.03
395.477	75.6
395.686	94.04
395.895	38.74
396.105	55.12
396.314	48.98
396.524	91.99
396.733	57.17
396.942	34.64
397.152	28.5
397.361	65.36
397.57	71.51
397.78	38.74
397.989	57.17
398.198	63.32
398.407	53.08
398.617	20.31
398.826	96.08
399.035	94.04
399.244	61.27
399.453	102.23
399.663	85.84
399.872	71.51
400.081	14.17
400.29	63.32
400.499	30.55
400.708	44.88
400.917	53.08
401.127	77.65
401.336	22.36
401.545	94.04
401.754	8.02
401.963	91.99
402.172	167.76
402.381	81.75
402.59	42.84
402.799	65.36
403.008	122.71
403.217	12.12
403.426	42.84
403.635	110.42
403.844	87.89
404.053	94.04
404.262	22.36
404.471	77.65
404.68	85.84
404.888	34.64
405.097	71.51
405.306	110.42
405.515	104.28
405.724	145.24
405.933	118.61
406.142	149.33
406.35	130.9
406.559	110.42
406.768	141.14
406.977	120.66
407.185	112.47
407.394	110.42
407.603	106.32
407.812	116.56
408.02	128.85
408.229	106.32
408.438	139.09
408.646	200.53
408.855	120.66
409.064	79.7
409.272	87.89
409.481	194.39
409.69	128.85
409.898	108.37
410.107	167.76
410.315	196.43
410.524	184.15
410.733	139.09
410.941	128.85
411.15	159.57
411.358	110.42
411.567	251.73
411.775	257.87
411.984	214.87
412.192	288.59
412.401	192.34
412.609	257.87
412.818	188.24
413.026	169.81
413.234	290.64
413.443	231.25
413.651	302.93
413.86	294.74
414.068	368.46
414.276	356.18
414.485	323.41
414.693	409.42
414.901	341.84
415.11	333.65
415.318	417.61
415.526	352.08
415.734	362.32
415.943	390.99
416.151	376.66
416.359	405.33
416.567	479.05
416.776	421.71
416.984	464.72
417.192	493.39
417.4	577.36
417.608	481.1
417.817	497.49
418.025	456.53
418.233	556.88
418.441	608.08
418.649	585.55
418.857	700.23
419.065	573.26
419.273	708.43
419.481	730.95
419.689	706.38
419.897	728.91
420.105	765.77
420.313	798.54
420.521	769.87
420.729	837.45
420.937	855.88
421.145	923.46
421.353	960.33
421.561	933.7
421.769	943.94
421.977	1062.73
422.185	935.75
422.393	1019.72
422.601	1105.73
422.809	1148.74
423.017	1158.98
423.224	1224.51
423.432	1212.23
423.64	1347.39
423.848	1357.63
424.056	1353.54
424.263	1476.41
424.471	1390.4
424.679	1474.37
424.887	1525.57
425.094	1601.34
425.302	1636.16
425.51	1761.08
425.718	1664.83
425.925	1660.73
426.133	1840.95
426.341	1904.44
426.548	2033.46
426.756	1859.38
426.964	1978.17
427.171	2152.24
427.379	2064.18
427.586	2170.68
427.794	2137.91
428.001	2318.13
428.209	2510.64
428.417	2383.66
428.624	2430.77
428.832	2547.5
429.039	2559.79
429.247	2619.18
429.454	2740.01
429.662	2971.43
429.869	2875.18
430.076	3006.25
430.284	2965.29
430.491	3155.75
430.699	3110.69
430.906	3157.8
431.114	3309.35
431.321	3381.03
431.528	3499.81
431.736	3544.86
431.943	3837.72
432.15	3673.89
432.358	3839.77
432.565	4056.86
432.772	3995.42
432.979	4151.06
433.187	4275.99
433.394	4208.41
433.601	4607.76
433.808	4679.44
434.016	4624.14
434.223	4798.22
434.43	5050.12
434.637	4906.76
434.844	5220.1
435.052	5275.4
435.259	5330.69
435.466	5207.81
435.673	5383.94
435.88	5508.87
436.087	5787.39
436.294	5822.2
436.501	5873.4
436.708	5877.5
436.915	6244.09
437.122	6315.76
437.329	6305.53
437.537	6457.07
437.743	6528.75
437.95	6809.33
438.157	7024.36
438.364	7157.48
438.571	7147.24
438.778	7313.13
438.985	7761.63
439.192	7599.84
439.399	7812.83
439.606	7608.03
439.813	8154.84
440.02	8726.22
440.227	8419.03
440.433	8203.99
440.64	8617.68
440.847	8722.13
441.054	8806.09
441.261	9414.34
441.467	9305.8
441.674	9537.22
441.881	9778.88
442.088	10061.5
442.294	9768.64
442.501	10016.44
442.708	10065.6
442.914	10315.45
443.121	10829.49
443.328	10546.87
443.534	11464.36
443.741	11400.87
443.948	10970.8
444.154	11857.57
444.361	11919.01
444.568	11824.8
444.774	11777.7
444.981	12060.32
445.187	12537.49
445.394	12859.03
445.6	12777.11
445.807	14077.57
446.013	13405.83
446.22	13432.46
446.426	14116.48
446.633	14114.43
446.839	14847.6
447.046	14100.09
447.252	14853.75
447.459	15126.13
447.665	14902.9
447.871	15574.63
448.078	16397.92
448.284	15509.1
448.491	16025.18
448.697	16760.41
448.903	16842.32
449.11	17102.42
449.316	16733.78
449.522	17366.6
449.728	17311.31
449.935	17765.96
450.141	17700.42
450.347	17827.4
450.553	17673.8
450.76	17444.43
450.966	18216.51
451.172	18146.88
451.378	18648.63
451.584	18329.15
451.791	18882.1
451.997	18613.82
452.203	19154.48
452.409	19248.69
452.615	19004.98
452.821	18374.2
453.027	18103.87
453.233	18918.96
453.44	18044.48
453.646	18413.12
453.852	18533.95
454.058	18986.55
454.264	18269.76
454.47	18593.34
454.676	18171.46
454.882	18882.1
455.088	17329.74
455.294	17444.43
455.5	17937.99
455.705	18189.89
455.911	17161.81
456.117	17014.35
456.323	16772.69
456.529	15877.73
456.735	16453.21
456.941	15910.5
457.147	15713.89
457.352	15169.13
457.558	15021.68
457.764	15144.56
457.97	15048.3
458.176	14638.71
458.381	14571.13
458.587	13741.7
458.793	13948.54
458.999	13061.77
459.204	14120.57
459.41	13729.41
459.616	12658.32
459.821	12922.51
460.027	12613.27
460.233	12590.74
460.438	12132
460.644	11908.77
460.85	11380.39
461.055	11296.42
461.261	11095.72
461.466	10428.09
461.672	10161.85
461.878	10809.01
462.083	10098.36
462.289	9780.93
462.494	9713.35
462.7	9291.46
462.905	9127.63
463.111	9516.74
463.316	9588.42
463.522	9266.89
463.727	9234.12
463.932	9318.09
464.138	9144.01
464.343	9211.59
464.549	8834.77
464.754	9211.59
464.959	9320.14
465.165	9090.76
465.37	8736.46
465.575	8550.1
465.781	8914.64
465.986	8957.64
466.191	8705.74
466.397	8238.81
466.602	8062.68
466.807	8496.85
467.012	8197.85
467.218	8255.19
467.423	8351.45
467.628	8347.35
467.833	8650.45
468.038	8292.05
468.244	8074.97
468.449	8560.34
468.654	8095.45
468.859	8074.97
469.064	8091.35
469.269	7735.01
469.474	7630.56
469.679	7972.57
469.885	7655.14
470.09	7851.74
470.295	7517.92
470.5	7513.83
470.705	7612.13
470.91	7347.94
471.115	7210.73
471.32	7597.79
471.525	7368.42
471.73	7335.65
471.935	7233.25
472.139	7007.98
472.344	6985.45
472.549	6897.39
472.754	6911.72
472.959	6692.59
473.164	6715.12
473.369	6477.55
473.574	6788.85
473.778	6727.41
473.983	6813.42
474.188	6747.89
474.393	6418.16
474.598	6444.79
474.802	6215.41
475.007	6371.06
475.212	6225.65
475.417	5910.27
475.621	6018.81
475.826	6012.67
476.031	5912.32
476.235	5914.36
476.44	5828.35
476.645	5697.28
476.849	5715.71
477.054	5545.73
477.259	5590.78
477.463	5598.98
477.668	5441.28
477.872	5646.08
478.077	5422.85
478.282	5279.49
478.486	5248.77
478.691	5193.48
478.895	5248.77
479.1	5152.52
479.304	5230.34
479.509	5162.76
479.713	5246.73
479.918	5041.93
480.122	5021.45
480.326	5093.13
480.531	5166.85
480.735	5078.79
480.94	5039.88
481.144	4982.54
481.348	4826.89
481.553	4892.43
481.757	4779.79
481.961	4867.85
482.166	5027.59
482.37	4945.67
482.574	4894.47
482.778	4792.08
482.983	4984.59
483.187	4921.1
483.391	4892.43
483.595	4837.13
483.8	4908.81
484.004	4728.59
484.208	4957.96
484.412	4822.8
484.616	4876.04
484.821	4790.03
485.025	4765.45
485.229	4847.37
485.433	4796.17
485.637	4869.9
485.841	4833.04
486.045	4841.23
486.249	4695.82
486.453	5058.31
486.657	4927.24
486.861	4898.57
487.065	4982.54
487.269	4900.62
487.473	4714.25
487.677	4824.84
487.881	4871.95
488.085	4835.08
488.289	4804.36
488.493	4892.43
488.697	4857.61
488.901	4804.36
489.105	4876.04
489.309	4917
489.512	4968.2
489.716	4970.25
489.92	4951.82
490.124	4912.91
490.328	5058.31
490.531	4820.75
490.735	5082.89
490.939	5041.93
491.143	5003.02
491.346	5076.74
491.55	5111.56
491.754	5054.22
491.958	5064.46
492.161	5041.93
492.365	5267.2
492.569	5123.85
492.772	5271.3
492.976	5281.54
493.18	5191.43
493.383	5203.72
493.587	5279.49
493.79	5357.32
493.994	5418.75
494.197	5560.06
494.401	5517.06
494.605	5443.33
494.808	5523.2
495.012	5545.73
495.215	5541.63
495.419	5603.07
495.622	5549.82
495.825	5711.61
496.029	5779.2
496.232	5918.46
496.436	5820.16
496.639	5887.74
496.843	5936.89
497.046	6156.02
497.249	6256.37
497.453	6221.56
497.656	6385.4
497.859	6348.53
498.063	6242.04
498.266	6698.74
498.469	6625.01
498.673	6751.98
498.876	6780.65
499.079	6983.4
499.282	6735.6
499.485	6991.59
499.689	6858.48
499.892	7196.39
500.095	7151.34
500.298	7331.56
500.501	7302.89
500.705	7470.82
500.908	7411.43
501.111	7843.55
501.314	7544.55
501.517	7618.27
501.72	7913.18
501.923	7855.84
502.126	8191.7
502.329	8177.37
502.532	8124.12
502.735	8070.87
502.938	8466.13
503.141	8419.03
503.344	8554.19
503.547	8529.62
503.75	8754.9
503.953	9064.14
504.156	8883.92
504.359	8961.74
504.562	9211.59
504.765	9361.09
504.968	9426.63
505.17	9459.4
505.373	9572.04
505.576	9840.32
505.779	9860.8
505.982	9873.09
506.185	10045.12
506.387	10159.8
506.59	10387.13
506.793	10450.61
506.996	10651.31
507.198	10749.62
507.401	10796.72
507.604	10923.69
507.807	11304.62
508.009	11140.78
508.212	11390.63
508.415	11452.07
508.617	11525.8
508.82	11314.86
509.022	11679.4
509.225	11845.28
509.428	11894.43
509.63	12043.93
509.833	12039.84
510.035	12340.89
510.238	12574.36
510.44	12762.77
510.643	12662.42
510.845	12977.81
511.048	13008.53
511.25	13143.69
511.453	13153.93
511.655	13624.97
511.858	13655.68
512.06	13753.99
512.262	13792.9
512.465	13772.42
512.667	14052.99
512.87	14253.69
513.072	14440.06
513.274	14382.71
513.477	14808.69
513.679	14661.24
513.881	14982.77
514.084	15343.21
514.286	15195.76
514.488	15386.22
514.69	15697.51
514.893	15795.81
515.095	15814.24
515.297	15879.78
515.499	15904.35
515.701	16234.08
515.904	16467.55
516.106	16741.97
516.308	16920.15
516.51	17100.37
516.712	16885.33
516.914	17251.92
517.116	17321.55
517.318	17442.38
517.52	17608.26
517.722	17667.66
517.925	17878.6
518.127	18419.26
518.329	18394.68
518.531	18015.81
518.733	18740.79
518.935	18830.9
519.136	18681.4
519.338	18984.5
519.54	19142.19
519.742	19301.93
519.944	19351.09
520.146	19920.42
520.348	19967.52
520.55	20037.16
520.752	20088.35
520.954	20555.29
521.155	20213.28
521.357	20848.15
521.559	20612.63
521.761	21042.71
521.963	21087.76
522.164	20915.73
522.366	21386.77
522.568	21489.17
522.77	21626.38
522.971	21308.94
523.173	21845.51
523.375	21851.66
523.576	22048.26
523.778	21851.66
523.98	22058.5
524.181	22396.42
524.383	22543.87
524.584	22498.81
524.786	23111.16
524.988	22629.88
525.189	23234.03
525.391	22996.47
525.592	23098.87
525.794	23451.12
525.995	23299.57
526.197	23424.5
526.398	23709.16
526.6	23721.45
526.801	23870.95
527.003	23954.92
527.204	23660.01
527.406	24380.9
527.607	24165.86
527.808	24145.38
528.01	23995.88
528.211	24491.49
528.412	24528.35
528.614	24448.48
528.815	24630.75
529.016	24817.11
529.218	24499.68
529.419	24593.89
529.62	24858.07
529.822	24587.74
530.023	25021.91
530.224	24845.79
530.425	24827.35
530.626	24571.36
530.828	24755.68
531.029	25214.42
531.23	24911.32
531.431	24939.99
531.632	25247.19
531.833	25525.71
532.035	25386.45
532.236	25464.27
532.437	25277.91
532.638	25230.8
532.839	25116.12
533.04	25388.5
533.241	25077.21
533.442	25607.63
533.643	25454.03
533.844	25605.58
534.045	25451.98
534.246	25046.49
534.447	25613.77
534.648	25460.18
534.849	25640.4
535.05	25128.41
535.251	25556.43
535.451	25245.14
535.652	25406.93
535.853	25404.88
536.054	25439.7
536.255	25628.11
536.456	25019.86
536.657	25794
536.857	25345.49
537.058	25236.95
537.259	25843.15
537.46	25560.53
537.66	25697.74
537.861	25642.45
538.062	25558.48
538.263	25601.49
538.463	25247.19
538.664	25509.33
538.865	25675.21
539.065	25701.84
539.266	25574.86
539.466	25976.26
539.667	25189.84
539.868	25511.38
540.068	25765.32
540.269	25368.02
540.469	25785.8
540.67	25525.71
540.87	25509.33
541.071	25253.33
541.271	25540.05
541.472	25658.83
541.672	25400.79
541.873	25157.08
542.073	25206.23
542.274	25804.24
542.474	25349.59
542.675	25028.06
542.875	25591.25
543.075	25675.21
543.276	25146.84
543.476	25658.83
543.676	25210.32
543.877	25445.84
544.077	25152.98
544.277	25331.15
544.478	25408.98
544.678	25376.21
544.878	25304.53
545.078	25257.43
545.279	25081.3
545.479	25345.49
545.679	25488.85
545.879	25605.58
546.079	25290.2
546.28	25247.19
546.48	25112.02
546.68	25095.64
546.88	25327.06
547.08	25296.34
547.28	25458.13
547.48	25028.06
547.68	25228.76
547.88	25241.04
548.081	25380.31
548.281	25011.67
548.481	25136.6
548.681	25329.11
548.881	25376.21
549.081	25349.59
549.28	25251.28
549.48	25148.89
549.68	25152.98
549.88	25187.8
550.08	25107.93
550.28	25026.01
550.48	25249.24
550.68	25505.23
550.88	25361.87
551.08	25228.76
551.279	25224.66
551.479	24993.24
551.679	25183.7
551.879	25005.53
552.079	25130.45
552.278	25023.96
552.478	25062.87
552.678	25212.37
552.878	25214.42
553.077	24948.18
553.277	24700.38
553.477	25116.12
553.676	25095.64
553.876	25116.12
554.076	25021.91
554.275	24921.56
554.475	24888.79
554.674	24733.15
554.874	24980.95
555.074	24612.32
555.273	24751.58
555.473	25120.21
555.672	24933.85
555.872	24610.27
556.071	24759.77
556.271	24802.78
556.47	24704.48
556.67	24640.99
556.869	24636.89
557.068	24661.47
557.268	24763.87
557.467	24608.22
557.667	24421.86
557.866	24452.58
558.065	24413.66
558.265	24354.27
558.464	24524.26
558.663	24481.25
558.863	24260.07
559.062	24591.84
559.261	24088.04
559.461	24456.67
559.66	24090.09
559.859	24501.73
560.058	23985.64
560.258	24155.62
560.457	24339.94
560.656	24239.59
560.855	24387.04
561.054	23977.45
561.253	24042.98
561.453	23959.02
561.652	24180.2
561.851	24010.21
562.05	23891.43
562.249	23752.17
562.448	24073.7
562.647	24129
562.846	23827.95
563.045	23856.62
563.244	23813.61
563.443	23920.1
563.642	23537.13
563.841	23444.98
564.04	23811.56
564.239	23889.38
564.438	23485.93
564.637	23934.44
564.836	23717.36
565.035	23135.73
565.234	23475.7
565.432	23348.72
565.631	23606.77
565.83	23289.33
566.029	22904.31
566.228	23303.67
566.427	22965.75
566.625	23211.51
566.824	22904.31
567.023	23338.48
567.222	22691.32
567.42	23053.81
567.619	23055.86
567.818	22818.3
568.016	22806.01
568.215	23086.58
568.414	22824.44
568.612	22957.56
568.811	22756.86
569.01	22828.54
569.208	22404.61
569.407	22488.57
569.605	22410.75
569.804	22773.24
570.002	22527.49
570.201	22668.8
570.4	22103.56
570.598	22416.9
570.797	22203.91
570.995	22298.11
571.193	21945.86
571.392	22142.47
571.59	22107.65
571.789	21956.1
571.987	21913.09
572.186	22201.86
572.384	21810.7
572.582	21913.09
572.781	21900.81
572.979	21579.28
573.177	21761.55
573.376	21712.39
573.574	21759.5
573.772	21560.84
573.971	21624.33
574.169	21411.34
574.367	21267.98
574.565	21505.55
574.763	21425.68
574.962	21249.55
575.16	20846.1
575.358	21257.74
575.556	21044.76
575.754	21360.14
575.952	21036.56
576.151	20944.41
576.349	20712.99
576.547	20622.87
576.745	20938.26
576.943	20467.23
577.141	20741.66
577.339	20569.63
577.537	20395.55
577.735	20579.87
577.933	20200.99
578.131	20547.1
578.329	20135.46
578.527	20028.96
578.725	20450.85
578.923	20428.32
579.121	20225.57
579.319	20108.83
579.516	20401.69
579.714	20168.23
579.912	19797.54
580.11	19861.03
580.308	19895.85
580.506	19711.53
580.704	19375.66
580.901	19631.66
581.099	19879.46
581.297	19648.04
581.495	19574.31
581.692	19689
581.89	19328.56
582.088	19541.55
582.285	19400.24
582.483	19574.31
582.681	19217.97
582.878	19056.18
583.076	19144.24
583.274	19310.13
583.471	18914.87
583.669	19154.48
583.866	18918.96
584.064	19277.36
584.262	18804.28
584.459	18880.05
584.657	18873.91
584.854	18863.67
585.052	18581.05
585.249	18699.83
585.447	18540.09
585.644	18265.66
585.841	18732.6
586.039	18437.69
586.236	18343.49
586.434	18277.95
586.631	18347.58
586.828	18251.33
587.026	18271.81
587.223	18374.2
587.42	18062.91
587.618	18310.72
587.815	18003.52
588.012	17995.33
588.21	17927.75
588.407	18050.63
588.604	17720.9
588.801	17681.99
588.999	17784.39
589.196	17759.81
589.393	17581.64
589.59	17622.6
589.787	17507.91
589.984	17530.44
590.182	17409.61
590.379	17366.6
590.576	17245.77
590.773	17356.36
590.97	17247.82
591.167	17210.96
591.364	16707.16
591.561	17014.35
591.758	16997.97
591.955	16754.26
592.152	17036.88
592.349	16555.61
592.546	16752.21
592.743	16543.32
592.94	16809.56
593.137	16606.81
593.334	16846.42
593.531	16445.02
593.727	16801.36
593.924	16426.59
594.121	16270.94
594.318	16373.34
594.515	16318.04
594.712	16367.2
594.908	16100.96
595.105	16123.49
595.302	16289.37
595.499	16258.65
595.696	16137.82
595.892	15963.75
596.089	16103.01
596.286	15933.03
596.482	15984.23
596.679	15988.32
596.876	16025.18
597.072	15707.75
597.269	15867.49
597.466	15707.75
597.662	15502.95
597.859	15730.28
598.055	15529.58
598.252	15435.37
598.448	15545.96
598.645	15373.93
598.841	15089.26
599.038	15343.21
599.234	15144.56
599.431	15093.36
599.627	15076.98
599.824	15097.45
600.02	15050.35
600.217	15072.88
600.413	14884.47
600.609	14956.15
600.806	14825.08
601.002	14952.05
601.198	14722.68
601.395	14771.83
601.591	14581.37
601.787	14685.81
601.984	14368.38
602.18	14765.68
602.376	14884.47
602.572	14481.02
602.769	14538.36
602.965	14288.51
603.161	14360.19
603.357	14210.68
603.553	14278.27
603.75	14265.98
603.946	14128.77
604.142	14251.64
604.338	13883.01
604.534	14014.08
604.73	13850.24
604.926	13966.98
605.122	14151.29
605.318	13760.13
605.514	13854.34
605.71	13872.77
605.906	13889.15
606.102	13590.15
606.298	13618.82
606.494	13792.9
606.69	13577.86
606.886	13661.83
607.082	13401.74
607.278	13608.58
607.474	13348.49
607.67	13487.75
607.866	13385.35
608.062	13520.52
608.257	13428.36
608.453	13371.02
608.649	13198.99
608.845	13018.77
609.041	13291.15
609.236	13121.17
609.432	13184.65
609.628	13020.81
609.824	13340.3
610.019	13098.64
610.215	13106.83
610.411	13041.29
610.606	13129.36
610.802	13123.21
610.998	12975.76
611.193	12758.67
611.389	12811.92
611.584	12979.86
611.78	12893.84
611.976	12584.6
612.171	12627.6
612.367	12619.41
612.562	12635.8
612.758	12363.42
612.953	12457.62
613.149	12678.8
613.344	12371.61
613.539	12805.78
613.735	12496.53
613.93	12435.1
614.126	12545.69
614.321	12662.42
614.517	12275.35
614.712	12218.01
614.907	12383.9
615.103	12281.5
615.298	12297.88
615.493	12359.32
615.688	11992.73
615.884	12344.98
616.079	11884.19
616.274	12224.15
616.47	12101.28
616.665	12027.55
616.86	12002.97
617.055	12031.65
617.25	12052.13
617.445	12197.53
617.641	11882.14
617.836	11726.5
618.031	11640.48
618.226	11734.69
618.421	11867.81
618.616	12041.89
618.811	11656.87
619.006	11740.83
619.201	11683.49
619.396	11652.77
619.591	11208.36
619.786	11636.39
619.981	11407.02
620.176	11544.23
620.371	11065
620.566	11343.53
620.761	11099.82
620.956	11286.19
621.151	11159.21
621.346	11105.96
621.541	10833.58
621.735	11052.72
621.93	10878.64
622.125	10987.18
622.32	10604.21
622.515	10968.75
622.709	10618.55
622.904	10600.12
623.099	10567.35
623.294	10483.38
623.488	10520.24
623.683	10372.79
623.878	10301.11
624.072	10344.12
624.267	10311.35
624.462	10272.44
624.656	10215.1
624.851	10006.2
625.046	10010.3
625.24	9891.52
625.435	9723.58
625.629	9694.91
625.824	9750.21
626.018	9744.06
626.213	9629.38
626.407	9707.2
626.602	9574.08
626.796	9422.53
626.991	9565.89
627.185	9539.27
627.38	9344.71
627.574	9344.71
627.768	9283.27
627.963	9195.21
628.157	9092.81
628.352	9236.17
628.546	9066.19
628.74	9246.41
628.935	9084.62
629.129	9193.16
629.323	8814.29
629.517	8996.56
629.712	8928.97
629.906	8695.5
630.1	8685.26
630.294	8777.42
630.489	8515.28
630.683	8636.11
630.877	8490.71
631.071	8539.86
631.265	8402.65
631.459	8443.6
631.653	8552.15
631.848	8427.22
632.042	8189.66
632.236	8310.49
632.43	8228.57
632.624	8203.99
632.818	8081.11
633.012	8095.45
633.206	7861.98
633.4	7818.97
633.594	7784.16
633.788	8011.48
633.982	8019.67
634.176	7855.84
634.369	7874.27
634.563	7827.17
634.757	7710.43
634.951	7859.93
635.145	7790.3
635.339	7732.96
635.533	7687.9
635.726	7638.75
635.92	7335.65
636.114	7565.03
636.308	7376.61
636.501	7403.24
636.695	7247.59
636.889	7163.62
637.083	7259.88
637.276	7194.34
637.47	7294.69
637.664	7110.38
637.857	7223.02
638.051	7145.19
638.244	6981.35
638.438	7053.03
638.632	6975.21
638.825	6891.24
639.019	6948.59
639.212	6807.28
639.406	6686.45
639.599	6817.52
639.793	6897.39
639.986	6751.98
640.18	6536.95
640.373	6643.44
640.567	6651.63
640.76	6557.43
640.954	6547.19
641.147	6600.43
641.34	6342.39
641.534	6512.37
641.727	6270.71
641.92	6504.18
642.114	6295.29
642.307	6147.83
642.5	6377.2
642.694	6209.27
642.887	6125.3
643.08	6201.08
643.273	6076.15
643.467	6012.67
643.66	6041.34
643.853	5920.51
644.046	6010.62
644.239	6172.41
644.432	5902.08
644.626	5963.51
644.819	5775.1
645.012	5701.37
645.205	5914.36
645.398	5754.62
645.591	5674.75
645.784	5691.13
645.977	5592.83
646.17	5551.87
646.363	5488.39
646.556	5412.61
646.749	5545.73
646.942	5533.44
647.135	5394.18
647.328	5613.31
647.521	5351.17
647.714	5293.83
647.907	5271.3
648.099	5193.48
648.292	5347.08
648.485	5220.1
648.678	5179.14
648.871	5150.47
649.064	5150.47
649.256	5144.33
649.449	5099.27
649.642	5115.66
649.835	4955.91
650.027	5043.98
650.22	4992.78
650.413	5033.74
650.605	4927.24
650.798	4882.19
650.991	4816.65
651.183	4835.08
651.376	4781.84
651.568	4816.65
651.761	4839.18
651.954	4720.4
652.146	4697.87
652.339	4718.35
652.531	4525.84
652.724	4622.09
652.916	4650.77
653.109	4441.87
653.301	4491.02
653.494	4583.18
653.686	4370.19
653.879	4384.53
654.071	4591.38
654.263	4425.49
654.456	4419.35
654.648	4362
654.84	4380.43
655.033	4247.32
655.225	4224.79
655.417	4288.28
655.61	4241.17
655.802	4306.71
655.994	4357.91
656.186	4067.1
656.379	4077.34
656.571	4173.59
656.763	4091.67
656.955	4083.48
657.148	3993.37
657.34	4056.86
657.532	3976.98
657.724	3976.98
657.916	3854.11
658.108	3979.03
658.3	3979.03
658.492	3882.78
658.684	3833.63
658.876	3866.39
659.068	3764
659.26	3835.67
659.452	3737.37
659.644	3733.28
659.836	3727.13
660.028	3680.03
660.22	3616.54
660.412	3626.78
660.604	3634.97
660.796	3692.32
660.988	3645.21
661.18	3555.1
661.372	3530.53
661.563	3481.38
661.755	3338.02
661.947	3430.18
662.139	3499.81
662.331	3444.51
662.522	3462.94
662.714	3401.51
662.906	3286.82
663.097	3421.99
663.289	3231.52
663.481	3344.16
663.673	3215.14
663.864	3321.63
664.056	3272.48
664.247	3237.67
664.439	3139.37
664.631	3215.14
664.822	3213.09
665.014	3067.69
665.205	3217.19
665.397	3036.97
665.588	3106.6
665.78	3051.3
665.971	3051.3
666.163	3063.59
666.354	2991.91
666.546	2948.9
666.737	3008.3
666.929	2926.38
667.12	2848.55
667.311	2897.71
667.503	2924.33
667.694	3006.25
667.885	2830.12
668.077	2764.59
668.268	2783.02
668.459	2944.81
668.651	2826.03
668.842	2909.99
669.033	2817.83
669.224	2758.44
669.416	2766.64
669.607	2721.58
669.798	2715.44
669.989	2842.41
670.18	2674.48
670.371	2623.28
670.563	2660.14
670.754	2694.96
670.945	2629.42
671.136	2651.95
671.327	2664.24
671.518	2654
671.709	2740.01
671.9	2658.09
672.091	2641.71
672.282	2567.98
672.473	2692.91
672.664	2475.82
672.855	2512.69
673.046	2545.45
673.237	2549.55
673.428	2469.68
673.619	2471.73
673.809	2496.3
674	2469.68
674.191	2373.43
674.382	2428.72
674.573	2473.78
674.764	2514.73
674.954	2561.84
675.145	2365.23
675.336	2295.6
675.527	2287.41
675.717	2402.1
675.908	2326.32
676.099	2314.03
676.289	2400.05
676.48	2340.66
676.671	2305.84
676.861	2348.85
677.052	2219.83
677.243	2303.79
677.433	2273.07
677.624	2170.68
677.814	2146.1
678.005	2234.16
678.195	2268.98
678.386	2248.5
678.576	2185.01
678.767	2221.88
678.957	2221.88
679.148	2203.44
679.338	2236.21
679.529	2281.27
679.719	2068.28
679.909	2172.72
680.1	2246.45
680.29	2072.37
680.481	2111.29
680.671	2238.26
680.861	2133.81
681.052	2215.73
681.242	2121.52
681.432	2178.87
681.622	2228.02
681.813	2107.19
682.003	2187.06
682.193	2150.2
682.383	2154.29
682.573	2211.64
682.764	2099
682.954	2139.96
683.144	2094.9
683.334	2039.61
683.524	2035.51
683.714	2099
683.904	2117.43
684.094	2107.19
684.284	2037.56
684.474	2072.37
684.664	2109.24
684.854	2174.77
685.044	2055.99
685.234	1996.6
685.424	2027.32
685.614	2088.76
685.804	2070.33
685.994	2086.71
686.184	2076.47
686.374	1974.07
686.564	2086.71
686.753	2092.85
686.943	1978.17
687.133	2031.41
687.323	1998.65
687.513	1982.26
687.702	1974.07
687.892	1955.64
688.082	1929.02
688.272	1851.19
688.461	2037.56
688.651	1875.77
688.841	1969.98
689.03	1953.59
689.22	1929.02
689.41	1996.6
689.599	1873.72
689.789	1886.01
689.979	1879.86
690.168	1912.63
690.358	1752.89
690.547	1906.49
690.737	1918.78
690.926	1922.87
691.116	1918.78
691.305	1900.34
691.495	1910.58
691.684	1843
691.874	1847.1
692.063	1773.37
692.252	1752.89
692.442	1861.43
692.631	1867.58
692.82	1890.1
693.01	1847.1
693.199	1877.82
693.388	1797.95
693.578	1797.95
693.767	1824.57
693.956	1922.87
694.146	1847.1
694.335	1683.26
694.524	1806.14
694.713	1840.95
694.902	1773.37
695.092	1875.77
695.281	1838.91
695.47	1816.38
695.659	1654.59
695.848	1736.51
696.037	1752.89
696.226	1859.38
696.415	1734.46
696.604	1812.28
696.793	1773.37
696.982	1701.69
697.171	1812.28
697.36	1785.66
697.549	1677.12
697.738	1636.16
697.927	1791.8
698.116	1740.6
698.305	1847.1
698.494	1732.41
698.683	1838.91
698.872	1736.51
699.061	1654.59
699.25	1687.36
699.438	1634.11
699.627	1636.16
699.816	1685.31
700.005	1634.11
700.193	1617.72
700.382	1691.45
700.571	1750.84
700.76	1580.86
700.948	1713.98
701.137	1681.21
701.326	1597.24
701.514	1685.31
701.703	1611.58
701.892	1630.01
702.08	1525.57
702.269	1646.4
702.457	1636.16
702.646	1556.29
702.834	1660.73
703.023	1537.85
703.212	1634.11
703.4	1556.29
703.589	1554.24
703.777	1595.2
703.965	1462.08
704.154	1511.23
704.342	1572.67
704.531	1521.47
704.719	1500.99
704.907	1617.72
705.096	1472.32
705.284	1517.37
705.472	1531.71
705.661	1570.62
705.849	1599.29
706.037	1515.33
706.226	1513.28
706.414	1523.52
706.602	1425.22
706.79	1496.89
706.979	1482.56
707.167	1605.44
707.355	1457.98
707.543	1425.22
707.731	1568.57
707.919	1486.65
708.107	1347.39
708.296	1509.18
708.484	1523.52
708.672	1537.85
708.86	1417.02
709.048	1535.81
709.236	1394.5
709.424	1417.02
709.612	1423.17
709.8	1283.91
709.988	1378.11
710.176	1324.87
710.364	1341.25
710.551	1357.63
710.739	1390.4
710.927	1322.82
711.115	1421.12
711.303	1369.92
711.491	1355.58
711.679	1292.1
711.866	1351.49
712.054	1472.32
712.242	1292.1
712.43	1402.69
712.617	1300.29
712.805	1367.87
712.993	1412.93
713.181	1408.83
713.368	1347.39
713.556	1388.35
713.744	1396.54
713.931	1359.68
714.119	1357.63
714.306	1337.15
714.494	1263.43
714.682	1298.24
714.869	1343.3
715.057	1328.96
715.244	1328.96
715.432	1316.67
715.619	1306.43
715.807	1320.77
715.994	1331.01
716.182	1310.53
716.369	1359.68
716.556	1234.75
716.744	1226.56
716.931	1275.71
717.119	1292.1
717.306	1404.74
717.493	1244.99
717.681	1242.95
717.868	1240.9
718.055	1242.95
718.242	1255.23
718.43	1275.71
718.617	1251.14
718.804	1232.71
718.991	1181.51
719.179	1165.12
719.366	1169.22
719.553	1251.14
719.74	1214.27
719.927	1265.47
720.114	1281.86
720.301	1265.47
720.488	1224.51
720.676	1265.47
720.863	1212.23
721.05	1165.12
721.237	1163.08
721.424	1195.84
721.611	1158.98
721.798	1195.84
721.985	1122.12
722.172	1126.21
722.358	1154.88
722.545	1179.46
722.732	1195.84
722.919	1122.12
723.106	1085.25
723.293	1187.65
723.48	1115.97
723.667	1070.92
723.853	1150.79
724.04	1251.14
724.227	1169.22
724.414	1122.12
724.6	1101.64
724.787	1130.31
724.974	1173.32
725.161	1132.36
725.347	1087.3
725.534	1165.12
725.72	1167.17
725.907	1079.11
726.094	1134.4
726.28	1144.64
726.467	1150.79
726.653	1087.3
726.84	1115.97
727.027	1128.26
727.213	1099.59
727.4	1034.05
727.586	1216.32
727.773	1118.02
727.959	1124.16
728.145	1118.02
728.332	1130.31
728.518	1154.88
728.705	1056.58
728.891	1064.77
729.077	1224.51
729.264	1007.43
729.45	1085.25
729.636	1118.02
729.823	1025.86
730.009	1095.49
730.195	1158.98
730.382	1111.88
730.568	1060.68
730.754	995.14
730.94	1058.63
731.126	1025.86
731.313	1021.77
731.499	976.71
731.685	1058.63
731.871	1077.06
732.057	1062.73
732.243	1056.58
732.429	1130.31
732.615	1066.82
732.801	1064.77
732.987	909.13
733.173	1042.25
733.359	1025.86
733.545	1161.03
733.731	1017.67
733.917	1029.96
734.103	1046.34
734.289	1109.83
734.475	1064.77
734.661	968.52
734.847	1077.06
735.033	1054.53
735.219	989
735.404	1001.29
735.59	1021.77
735.776	972.61
735.962	1036.1
736.148	1027.91
736.333	1087.3
736.519	1013.57
736.705	933.7
736.89	1068.87
737.076	1054.53
737.262	937.8
737.447	1005.38
737.633	1044.29
737.819	984.9
738.004	945.99
738.19	989
738.375	982.85
738.561	1015.62
738.747	1046.34
738.932	1052.49
739.118	950.09
739.303	909.13
739.489	950.09
739.674	995.14
739.859	980.81
740.045	931.66
740.23	970.57
740.416	958.28
740.601	976.71
740.786	974.66
740.972	923.46
741.157	1007.43
741.342	900.94
741.528	907.08
741.713	919.37
741.898	864.07
742.084	974.66
742.269	931.66
742.454	902.98
742.639	911.18
742.824	845.64
743.01	917.32
743.195	913.22
743.38	888.65
743.565	866.12
743.75	851.78
743.935	964.42
744.12	915.27
744.305	868.17
744.49	945.99
744.675	1003.33
744.86	884.55
745.045	948.04
745.23	853.83
745.415	839.5
745.6	892.74
745.785	862.02
745.97	835.4
746.155	841.54
746.34	788.3
746.525	907.08
746.71	802.63
746.895	900.94
747.079	827.21
747.264	872.26
747.449	831.3
747.634	837.45
747.819	778.06
748.003	810.82
748.188	853.83
748.373	833.35
748.557	810.82
748.742	790.35
748.927	769.87
749.111	814.92
749.296	829.26
749.481	753.48
749.665	724.81
749.85	745.29
750.034	841.54
750.219	825.16
750.404	724.81
750.588	708.43
750.773	706.38
750.957	739.15
751.141	692.04
751.326	720.71
751.51	741.19
751.695	753.48
751.879	782.15
752.064	675.66
752.248	792.39
752.432	667.47
752.617	706.38
752.801	720.71
752.985	704.33
753.17	737.1
753.354	675.66
753.538	718.67
753.722	765.77
753.907	716.62
754.091	591.69
754.275	706.38
754.459	687.95
754.643	659.28
754.828	712.52
755.012	640.84
755.196	649.04
755.38	663.37
755.564	573.26
755.748	630.6
755.932	589.64
756.116	638.8
756.3	571.21
756.484	530.25
756.668	597.84
756.852	589.64
757.036	644.94
757.22	651.08
757.404	483.15
757.588	497.49
757.772	563.02
757.956	614.22
758.14	554.83
758.323	606.03
758.507	577.36
758.691	522.06
758.875	597.84
759.059	589.64
759.242	569.16
759.426	585.55
759.61	544.59
759.794	558.92
759.977	614.22
760.161	622.41
760.345	548.68
760.528	603.98
760.712	520.01
760.895	483.15
761.079	421.71
761.263	513.87
761.446	503.63
761.63	565.07
761.813	565.07
761.997	585.55
762.18	546.64
762.364	466.77
762.547	538.45
762.731	423.76
762.914	495.44
763.098	513.87
763.281	589.64
763.464	513.87
763.648	479.05
763.831	503.63
764.015	528.21
764.198	497.49
764.381	470.86
764.564	499.53
764.748	534.35
764.931	456.53
765.114	401.23
765.297	563.02
765.481	503.63
765.664	448.33
765.847	499.53
766.03	464.72
766.213	569.16
766.397	474.96
766.58	409.42
766.763	472.91
766.946	462.67
767.129	436.05
767.312	511.82
767.495	429.9
767.678	479.05
767.861	565.07
768.044	479.05
768.227	442.19
768.41	390.99
768.593	542.54
768.776	505.68
768.959	487.25
769.142	505.68
769.324	503.63
769.507	556.88
769.69	464.72
769.873	474.96
770.056	511.82
770.239	411.47
770.421	456.53
770.604	409.42
770.787	376.66
770.97	368.46
771.152	333.65
771.335	485.2
771.518	448.33
771.7	448.33
771.883	434
772.066	442.19
772.248	505.68
772.431	343.89
772.613	364.37
772.796	399.18
772.978	380.75
773.161	423.76
773.343	390.99
773.526	505.68
773.708	431.95
773.891	364.37
774.073	352.08
774.256	393.04
774.438	343.89
774.621	395.09
774.803	366.42
774.985	390.99
775.168	366.42
775.35	378.7
775.532	286.54
775.715	403.28
775.897	390.99
776.079	352.08
776.261	329.55
776.444	339.79
776.626	313.17
776.808	339.79
776.99	421.71
777.173	409.42
777.355	370.51
777.537	341.84
777.719	352.08
777.901	388.94
778.083	372.56
778.265	268.11
778.447	350.03
778.629	313.17
778.811	266.07
778.993	270.16
779.175	331.6
779.357	388.94
779.539	352.08
779.721	268.11
779.903	290.64
780.085	321.36
780.267	251.73
780.449	315.22
780.631	300.88
780.812	294.74
780.994	319.31
781.176	309.07
781.358	380.75
781.54	243.54
781.721	239.44
781.903	288.59
782.085	311.12
782.267	284.5
782.448	274.26
782.63	227.15
782.812	296.78
782.993	272.21
783.175	313.17
783.357	311.12
783.538	337.74
783.72	257.87
783.901	268.11
784.083	235.35
784.264	200.53
784.446	257.87
784.627	259.92
784.809	223.06
784.99	261.97
785.172	206.67
785.353	182.1
785.535	173.91
785.716	241.49
785.897	190.29
786.079	221.01
786.26	202.58
786.441	221.01
786.623	212.82
786.804	243.54
786.985	214.87
787.167	188.24
787.348	237.39
787.529	245.59
787.71	202.58
787.891	259.92
788.073	231.25
788.254	210.77
788.435	227.15
788.616	268.11
788.797	194.39
788.978	165.71
789.159	233.3
789.34	268.11
789.522	208.72
789.703	194.39
789.884	143.19
790.065	149.33
790.246	163.67
790.427	182.1
790.607	221.01
790.788	231.25
790.969	223.06
791.15	243.54
791.331	151.38
791.512	157.52
791.693	132.95
791.874	169.81
792.054	282.45
792.235	114.52
792.416	165.71
792.597	190.29
792.778	167.76
792.958	184.15
793.139	112.47
793.32	218.96
793.5	67.41
793.681	255.83
793.862	163.67
794.042	120.66
794.223	173.91
794.404	149.33
794.584	202.58
794.765	128.85
794.945	198.48
795.126	155.47
795.306	194.39
795.487	149.33
795.667	147.28
795.848	192.34
796.028	198.48
796.209	100.18
796.389	100.18
796.57	206.67
796.75	145.24
796.93	139.09
797.111	98.13
797.291	135
797.471	184.15
797.652	186.19
797.832	153.43
798.012	161.62
798.192	157.52
798.373	69.46
798.553	198.48
798.733	124.76
798.913	114.52
799.093	126.8
799.274	94.04
799.454	85.84
799.634	126.8
799.814	147.28
799.994	143.19
800.174	128.85
800.354	118.61
800.534	83.8
800.714	120.66
800.894	87.89
801.074	79.7
801.254	132.95
801.434	202.58
801.614	161.62
801.794	126.8
801.974	376.66
802.154	81.75
802.334	110.42
802.514	132.95
802.693	165.71
802.873	118.61
803.053	118.61
803.233	73.56
803.413	124.76
803.592	96.08
803.772	126.8
803.952	141.14
804.131	126.8
804.311	122.71
804.491	102.23
804.67	81.75
804.85	87.89
805.03	77.65
805.209	214.87
805.389	106.32
805.568	169.81
805.748	96.08
805.928	114.52
806.107	139.09
806.287	114.52
806.466	96.08
806.646	89.94
806.825	91.99
807.004	141.14
807.184	77.65
807.363	81.75
807.543	73.56
807.722	151.38
807.901	139.09
808.081	69.46
808.26	55.12
808.439	110.42
808.619	153.43
808.798	118.61
808.977	32.6
809.156	120.66
809.336	132.95
809.515	128.85
809.694	69.46
809.873	32.6
810.052	75.6
810.231	151.38
810.411	83.8
810.59	126.8
810.769	182.1
810.948	69.46
811.127	22.36
811.306	110.42
811.485	65.36
811.664	98.13
811.843	85.84
812.022	122.71
812.201	124.76
812.38	98.13
812.559	57.17
812.737	79.7
812.916	130.9
813.095	108.37
813.274	94.04
813.453	110.42
813.632	61.27
813.811	61.27
813.989	159.57
814.168	67.41
814.347	51.03
814.526	149.33
814.704	65.36
814.883	126.8
815.062	102.23
815.24	104.28
815.419	20.31
815.598	81.75
815.776	67.41
815.955	106.32
816.133	22.36
816.312	63.32
816.49	104.28
816.669	122.71
816.847	128.85
817.026	98.13
817.204	48.98
817.383	145.24
817.561	67.41
817.74	126.8
817.918	77.65
818.097	143.19
818.275	98.13
818.453	110.42
818.632	55.12
818.81	85.84
818.988	44.88
819.167	87.89
819.345	100.18
819.523	81.75
819.701	36.69
819.879	53.08
820.058	128.85
820.236	71.51
820.414	89.94
820.592	102.23
820.77	65.36
820.948	51.03
821.127	59.22
821.305	83.8
821.483	22.36
821.661	137.04
821.839	38.74
822.017	120.66
822.195	18.26
822.373	73.56
822.551	46.93
822.729	106.32
822.907	71.51
823.085	120.66
823.262	98.13
823.44	77.65
823.618	96.08
823.796	102.23
823.974	55.12
824.152	104.28
824.329	26.45
824.507	36.69
824.685	104.28
824.863	30.55
825.04	40.79
825.218	85.84
825.396	32.6
825.574	20.31
825.751	94.04
825.929	53.08
826.107	-8.36
826.284	26.45
826.462	38.74
826.639	-0.17
826.817	22.36
826.994	38.74
827.172	61.27
827.349	71.51
827.527	61.27
827.704	110.42
827.882	124.76
828.059	48.98
828.237	106.32
828.414	102.23
828.591	51.03
828.769	34.64
828.946	55.12
829.124	24.4
829.301	57.17
829.478	28.5
829.655	75.6
829.833	57.17
830.01	-6.31
830.187	67.41
830.364	32.6
830.542	-12.46
830.719	48.98
830.896	104.28
831.073	-16.55
831.25	42.84
831.427	28.5
831.604	104.28
831.782	-16.55
831.959	128.85
832.136	14.17
832.313	36.69
832.49	120.66
832.667	106.32
832.844	3.93
833.021	44.88
833.198	32.6
833.374	69.46
833.551	12.12
833.728	73.56
833.905	44.88
834.082	71.51
834.259	-8.36
834.436	44.88
834.612	-12.46
834.789	81.75
834.966	-0.17
835.143	3.93
835.319	-16.55
835.496	1.88
835.673	46.93
835.85	34.64
836.026	51.03
836.203	89.94
836.38	77.65
836.556	32.6
836.733	59.22
836.909	57.17
837.086	73.56
837.262	55.12
837.439	46.93
837.616	94.04
837.792	44.88
837.968	-4.27
838.145	22.36
838.321	42.84
838.498	96.08
838.674	-14.51
838.851	34.64
839.027	3.93
839.203	57.17
839.38	65.36
839.556	-22.7
839.732	36.69
839.909	20.31
840.085	53.08
840.261	3.93
840.437	77.65
840.614	59.22
840.79	96.08
840.966	-22.7
841.142	-22.7
841.318	77.65
841.494	85.84
841.671	16.21
841.847	63.32
842.023	3.93
842.199	128.85
842.375	20.31
842.551	-16.55
842.727	-37.03
842.903	75.6
843.079	24.4
843.255	12.12
843.431	63.32
843.607	3.93
843.783	57.17
843.959	87.89
844.134	22.36
844.31	108.37
844.486	75.6
844.662	10.07
844.838	26.45
845.013	34.64
845.189	116.56
845.365	34.64
845.541	12.12
845.716	32.6
845.892	42.84
846.068	-2.22
846.244	46.93
846.419	102.23
846.595	10.07
846.77	-45.23
846.946	73.56
847.122	36.69
847.297	67.41
847.473	145.24
847.648	34.64
847.824	65.36
847.999	28.5
848.175	46.93
848.35	30.55
848.526	24.4
848.701	61.27
848.876	34.64
849.052	83.8
849.227	42.84
849.403	20.31
849.578	116.56
849.753	69.46
849.929	32.6
850.104	-20.65
850.279	44.88
850.454	-51.37
850.63	-14.51
850.805	79.7
850.98	48.98
851.155	-10.41
851.33	51.03
851.505	3.93
851.681	65.36
851.856	32.6
852.031	18.26
852.206	69.46
852.381	-8.36
852.556	5.97
852.731	-4.27
852.906	26.45
853.081	38.74
853.256	75.6
853.431	-4.27
853.606	22.36
853.781	38.74
853.956	-4.27
854.131	53.08
854.305	57.17
854.48	18.26
854.655	8.02
854.83	71.51
855.005	14.17
855.18	-6.31
855.354	16.21
855.529	28.5
855.704	22.36
855.879	77.65
856.053	-24.75
856.228	12.12
856.403	-12.46
856.577	71.51
856.752	32.6
856.926	46.93
857.101	63.32
857.276	-4.27
857.45	36.69
857.625	22.36
857.799	16.21
857.974	67.41
858.148	12.12
858.323	65.36
858.497	46.93
858.672	81.75
858.846	8.02
859.02	3.93
859.195	16.21
859.369	22.36
859.543	51.03
859.718	34.64
859.892	14.17
860.066	32.6
860.241	-0.17
860.415	-2.22
860.589	-51.37
860.763	14.17
860.938	18.26
861.112	36.69
861.286	106.32
861.46	91.99
861.634	26.45
861.808	26.45
861.982	-47.27
862.157	-22.7
862.331	42.84
862.505	-28.84
862.679	-92.33
862.853	48.98
863.027	12.12
863.201	3.93
863.375	40.79
863.549	8.02
863.722	26.45
863.896	-8.36
864.07	36.69
864.244	32.6
864.418	30.55
864.592	67.41
864.766	57.17
864.939	14.17
865.113	28.5
865.287	20.31
865.461	12.12
865.634	28.5
865.808	-28.84
865.982	20.31
866.156	-12.46
866.329	-0.17
866.503	-14.51
866.676	73.56
866.85	16.21
867.024	57.17
867.197	83.8
867.371	18.26
867.544	-14.51
867.718	73.56
867.891	-20.65
868.065	8.02
868.238	10.07
868.412	79.7
868.585	8.02
868.759	53.08
868.932	59.22
869.105	81.75
869.279	5.97
869.452	3.93
869.625	-2.22
869.799	12.12
869.972	-2.22
870.145	12.12
870.319	38.74
870.492	-24.75
870.665	71.51
870.838	75.6
871.011	32.6
871.185	3.93
871.358	38.74
871.531	32.6
871.704	-12.46
871.877	-10.41
872.05	-4.27
872.223	-8.36
872.396	12.12
872.569	5.97
872.742	-69.8
872.915	3.93
873.088	20.31
873.261	61.27
873.434	-4.27
873.607	122.71
873.78	44.88
873.953	10.07
874.126	-8.36
874.299	61.27
874.471	-43.18
874.644	3.93
874.817	3.93
874.99	53.08
875.163	-12.46
875.335	32.6
875.508	-14.51
875.681	-8.36
875.853	-26.79
876.026	46.93
876.199	-39.08
876.371	32.6
876.544	48.98
876.717	18.26
876.889	-37.03
877.062	38.74
877.234	71.51
877.407	22.36
877.579	-32.94
877.752	18.26
877.924	12.12
878.097	-43.18
878.269	22.36
878.442	126.8
878.614	12.12
878.786	24.4
878.959	12.12
879.131	38.74
879.303	-24.75
879.476	26.45
879.648	12.12
879.82	20.31
879.993	34.64
880.165	8.02
880.337	40.79
880.509	57.17
880.681	24.4
880.854	-2.22
881.026	-0.17
881.198	-43.18
881.37	5.97
881.542	22.36
881.714	3.93
881.886	63.32
882.058	3.93
882.23	67.41
882.402	20.31
882.574	53.08
882.746	-12.46
882.918	-28.84
883.09	20.31
883.262	-2.22
883.434	-49.32
883.606	61.27
883.778	-26.79
883.95	-12.46
884.122	-86.19
884.293	85.84
884.465	57.17
884.637	10.07
884.809	-18.6
884.98	3.93
885.152	51.03
885.324	28.5
885.496	-20.65
885.667	-53.42
885.839	3.93
886.011	-18.6
886.182	3.93
886.354	-24.75
886.525	26.45
886.697	-16.55
886.869	14.17
887.04	-61.61
887.212	24.4
887.383	1.88
887.555	18.26
887.726	18.26
887.897	28.5
888.069	-8.36
888.24	53.08
888.412	87.89
888.583	-8.36
888.754	3.93
888.926	-12.46
889.097	8.02
889.268	-14.51
889.44	20.31
889.611	53.08
889.782	-67.75
889.953	20.31
890.125	46.93
890.296	-24.75
890.467	26.45
890.638	24.4
890.809	22.36
890.98	-43.18
891.151	-32.94
891.323	71.51
891.494	-0.17
891.665	18.26
891.836	8.02
892.007	-41.13
892.178	22.36
892.349	61.27
892.52	32.6
892.691	8.02
892.862	-16.55
893.032	10.07
893.203	51.03
893.374	-37.03
893.545	14.17
893.716	22.36
893.887	38.74
894.057	30.55
894.228	94.04
894.399	-8.36
894.57	24.4
894.74	-14.51
894.911	44.88
895.082	34.64
895.253	73.56
895.423	-71.85
895.594	-28.84
895.764	-2.22
895.935	16.21
896.106	24.4
896.276	-12.46
896.447	42.84
896.617	36.69
896.788	28.5
896.958	5.97
897.129	14.17
897.299	-24.75
897.47	22.36
897.64	-26.79
897.81	75.6
897.981	40.79
898.151	-10.41
898.322	26.45
898.492	96.08
898.662	5.97
898.832	32.6
899.003	-14.51
899.173	3.93
899.343	-4.27
899.513	-24.75
