Data from USB4F104151__39__12-53-44-835.txt Node

Date: Fri Mar 14 12:53:44 EDT 2025
User: louis
Spectrometer: USB4F10415
Trigger mode: 4
Integration Time (sec): 1.000000E-2
Scans to average: 1
Electric dark correction enabled: true
Nonlinearity correction enabled: false
Boxcar width: 0
XAxis mode: Wavelengths
Number of Pixels in Spectrum: 3648
>>>>>Begin Spectral Data<<<<<
178.204	-12.29
178.424	-12.29
178.644	-12.29
178.864	-61.44
179.084	-73.73
179.304	-22.53
179.524	22.53
179.744	2.05
179.964	77.82
180.184	-6.14
180.404	24.58
180.624	-28.67
180.844	-12.29
181.064	-81.92
181.283	34.82
181.503	-8.19
181.723	-2.05
181.943	0
182.163	0
182.383	6.14
182.602	0
182.822	12.29
183.042	8.19
183.262	-10.24
183.482	38.91
183.701	53.25
183.921	16.38
184.141	-22.53
184.361	63.49
184.58	-10.24
184.8	-71.68
185.02	0
185.239	16.38
185.459	6.14
185.679	8.19
185.898	-12.29
186.118	71.68
186.338	22.53
186.557	-12.29
186.777	-30.72
186.997	49.15
187.216	-10.24
187.436	18.43
187.655	-22.53
187.875	-2.05
188.095	63.49
188.314	-24.58
188.534	40.96
188.753	18.43
188.973	8.19
189.192	32.77
189.412	14.34
189.631	38.91
189.851	22.53
190.07	16.38
190.29	24.58
190.509	30.72
190.729	-14.34
190.948	45.06
191.168	73.73
191.387	69.63
191.607	38.91
191.826	55.3
192.045	6.14
192.265	61.44
192.484	34.82
192.704	-30.72
192.923	24.58
193.142	38.91
193.362	83.97
193.581	59.39
193.8	24.58
194.02	-4.1
194.239	67.58
194.458	71.68
194.678	43.01
194.897	8.19
195.116	22.53
195.335	-32.77
195.555	-51.2
195.774	-28.67
195.993	22.53
196.212	-47.1
196.432	-10.24
196.651	-16.38
196.87	-18.43
197.089	75.77
197.308	2.05
197.528	55.3
197.747	6.14
197.966	18.43
198.185	65.54
198.404	26.62
198.623	61.44
198.842	-40.96
199.062	57.34
199.281	26.62
199.5	61.44
199.719	51.2
199.938	53.25
200.157	57.34
200.376	14.34
200.595	47.1
200.814	63.49
201.033	-73.73
201.252	40.96
201.471	-30.72
201.69	-4.1
201.909	40.96
202.128	-47.1
202.347	65.54
202.566	83.97
202.785	-43.01
203.004	40.96
203.223	16.38
203.442	106.49
203.661	-53.25
203.879	45.06
204.098	-36.86
204.317	8.19
204.536	-2.05
204.755	-4.1
204.974	86.01
205.193	-4.1
205.411	94.21
205.63	26.62
205.849	18.43
206.068	-8.19
206.287	79.87
206.505	53.25
206.724	43.01
206.943	2.05
207.162	26.62
207.381	20.48
207.599	-6.14
207.818	79.87
208.037	-2.05
208.255	8.19
208.474	65.54
208.693	86.01
208.911	16.38
209.13	38.91
209.349	63.49
209.567	-10.24
209.786	4.1
210.005	-10.24
210.223	32.77
210.442	10.24
210.661	-24.58
210.879	61.44
211.098	18.43
211.316	53.25
211.535	-14.34
211.753	16.38
211.972	40.96
212.191	47.1
212.409	-2.05
212.628	40.96
212.846	10.24
213.065	-14.34
213.283	22.53
213.502	-43.01
213.72	-10.24
213.938	81.92
214.157	-12.29
214.375	-34.82
214.594	32.77
214.812	65.54
215.031	-22.53
215.249	4.1
215.467	2.05
215.686	49.15
215.904	65.54
216.122	49.15
216.341	6.14
216.559	2.05
216.778	-2.05
216.996	-22.53
217.214	6.14
217.432	8.19
217.651	38.91
217.869	-6.14
218.087	12.29
218.306	-8.19
218.524	57.34
218.742	22.53
218.96	86.01
219.179	36.86
219.397	-8.19
219.615	36.86
219.833	34.82
220.051	-6.14
220.27	14.34
220.488	22.53
220.706	51.2
220.924	-63.49
221.142	-10.24
221.36	43.01
221.578	-10.24
221.796	-38.91
222.015	-30.72
222.233	34.82
222.451	30.72
222.669	28.67
222.887	16.38
223.105	40.96
223.323	102.4
223.541	-45.06
223.759	32.77
223.977	32.77
224.195	79.87
224.413	8.19
224.631	6.14
224.849	18.43
225.067	-4.1
225.285	47.1
225.503	24.58
225.721	-36.86
225.939	30.72
226.157	24.58
226.375	26.62
226.592	-4.1
226.81	53.25
227.028	57.34
227.246	47.1
227.464	8.19
227.682	-22.53
227.9	36.86
228.117	-10.24
228.335	47.1
228.553	34.82
228.771	43.01
228.989	40.96
229.206	-32.77
229.424	67.58
229.642	10.24
229.86	14.34
230.077	77.82
230.295	32.77
230.513	0
230.731	2.05
230.948	98.3
231.166	57.34
231.384	12.29
231.601	-8.19
231.819	26.62
232.037	-10.24
232.254	-20.48
232.472	-16.38
232.689	-16.38
232.907	18.43
233.125	34.82
233.342	14.34
233.56	47.1
233.777	-16.38
233.995	49.15
234.213	69.63
234.43	45.06
234.648	26.62
234.865	14.34
235.083	-14.34
235.3	-26.62
235.518	40.96
235.735	57.34
235.953	40.96
236.17	20.48
236.388	-71.68
236.605	40.96
236.822	131.07
237.04	-2.05
237.257	92.16
237.475	-53.25
237.692	30.72
237.909	28.67
238.127	61.44
238.344	18.43
238.562	-8.19
238.779	57.34
238.996	22.53
239.214	16.38
239.431	112.64
239.648	24.58
239.865	-22.53
240.083	51.2
240.3	16.38
240.517	-4.1
240.735	65.54
240.952	-43.01
241.169	59.39
241.386	-26.62
241.603	10.24
241.821	43.01
242.038	-6.14
242.255	38.91
242.472	-4.1
242.689	-10.24
242.907	24.58
243.124	18.43
243.341	69.63
243.558	61.44
243.775	-40.96
243.992	86.01
244.209	57.34
244.426	65.54
244.643	47.1
244.86	6.14
245.078	34.82
245.295	28.67
245.512	-24.58
245.729	-10.24
245.946	24.58
246.163	6.14
246.38	75.77
246.597	20.48
246.814	133.12
247.031	-6.14
247.248	32.77
247.464	98.3
247.681	51.2
247.898	34.82
248.115	67.58
248.332	-8.19
248.549	104.45
248.766	26.62
248.983	-2.05
249.2	-14.34
249.417	-8.19
249.633	47.1
249.85	59.39
250.067	83.97
250.284	30.72
250.501	57.34
250.717	30.72
250.934	-4.1
251.151	-14.34
251.368	20.48
251.585	6.14
251.801	2.05
252.018	22.53
252.235	55.3
252.451	-2.05
252.668	-6.14
252.885	49.15
253.102	0
253.318	24.58
253.535	61.44
253.752	6.14
253.968	8.19
254.185	-10.24
254.401	12.29
254.618	63.49
254.835	4.1
255.051	55.3
255.268	55.3
255.484	22.53
255.701	-14.34
255.917	34.82
256.134	22.53
256.351	71.68
256.567	-57.34
256.784	10.24
257	-51.2
257.217	51.2
257.433	-34.82
257.65	32.77
257.866	26.62
258.082	32.77
258.299	30.72
258.515	-8.19
258.732	10.24
258.948	59.39
259.165	63.49
259.381	32.77
259.597	-59.39
259.814	-2.05
260.03	88.06
260.246	30.72
260.463	-16.38
260.679	-10.24
260.895	36.86
261.112	81.92
261.328	16.38
261.544	10.24
261.761	79.87
261.977	79.87
262.193	-77.82
262.409	55.3
262.626	30.72
262.842	47.1
263.058	-47.1
263.274	131.07
263.49	34.82
263.707	34.82
263.923	34.82
264.139	24.58
264.355	-59.39
264.571	40.96
264.787	28.67
265.004	40.96
265.22	32.77
265.436	16.38
265.652	-30.72
265.868	83.97
266.084	49.15
266.3	30.72
266.516	-6.14
266.732	14.34
266.948	-14.34
267.164	-10.24
267.38	0
267.596	63.49
267.812	24.58
268.028	34.82
268.244	-77.82
268.46	40.96
268.676	51.2
268.892	14.34
269.108	-8.19
269.324	6.14
269.54	0
269.756	22.53
269.972	30.72
270.188	77.82
270.403	30.72
270.619	83.97
270.835	63.49
271.051	24.58
271.267	14.34
271.483	14.34
271.698	14.34
271.914	28.67
272.13	59.39
272.346	63.49
272.562	-8.19
272.777	63.49
272.993	20.48
273.209	-30.72
273.425	18.43
273.64	-20.48
273.856	18.43
274.072	-2.05
274.287	-14.34
274.503	47.1
274.719	28.67
274.934	-8.19
275.15	28.67
275.366	45.06
275.581	94.21
275.797	38.91
276.012	57.34
276.228	49.15
276.444	45.06
276.659	133.12
276.875	10.24
277.09	0
277.306	20.48
277.521	49.15
277.737	40.96
277.952	6.14
278.168	55.3
278.383	22.53
278.599	-79.87
278.814	38.91
279.03	-8.19
279.245	104.45
279.461	10.24
279.676	43.01
279.892	-28.67
280.107	-28.67
280.322	69.63
280.538	36.86
280.753	26.62
280.969	45.06
281.184	-16.38
281.399	20.48
281.615	24.58
281.83	90.11
282.045	20.48
282.26	45.06
282.476	30.72
282.691	30.72
282.906	-14.34
283.122	-18.43
283.337	-26.62
283.552	38.91
283.767	32.77
283.983	14.34
284.198	-6.14
284.413	32.77
284.628	47.1
284.843	20.48
285.058	8.19
285.274	55.3
285.489	-2.05
285.704	4.1
285.919	36.86
286.134	-26.62
286.349	43.01
286.564	40.96
286.779	92.16
286.995	10.24
287.21	-38.91
287.425	32.77
287.64	12.29
287.855	4.1
288.07	-26.62
288.285	65.54
288.5	28.67
288.715	49.15
288.93	59.39
289.145	10.24
289.36	26.62
289.575	67.58
289.79	53.25
290.004	38.91
290.219	32.77
290.434	55.3
290.649	-26.62
290.864	55.3
291.079	67.58
291.294	8.19
291.509	73.73
291.724	-77.82
291.938	-57.34
292.153	10.24
292.368	-36.86
292.583	-2.05
292.798	8.19
293.012	63.49
293.227	43.01
293.442	6.14
293.657	65.54
293.871	-10.24
294.086	20.48
294.301	49.15
294.516	34.82
294.73	55.3
294.945	24.58
295.16	-2.05
295.374	18.43
295.589	-51.2
295.804	61.44
296.018	12.29
296.233	16.38
296.447	36.86
296.662	36.86
296.877	34.82
297.091	20.48
297.306	20.48
297.52	-20.48
297.735	14.34
297.949	43.01
298.164	124.93
298.378	12.29
298.593	47.1
298.807	86.01
299.022	-40.96
299.236	77.82
299.451	12.29
299.665	53.25
299.88	43.01
300.094	45.06
300.309	71.68
300.523	-16.38
300.737	12.29
300.952	61.44
301.166	32.77
301.381	49.15
301.595	57.34
301.809	59.39
302.024	-20.48
302.238	-12.29
302.452	34.82
302.667	14.34
302.881	18.43
303.095	24.58
303.309	36.86
303.524	57.34
303.738	18.43
303.952	-22.53
304.166	30.72
304.381	28.67
304.595	63.49
304.809	24.58
305.023	137.21
305.237	57.34
305.452	24.58
305.666	24.58
305.88	61.44
306.094	6.14
306.308	51.2
306.522	49.15
306.736	-4.1
306.95	36.86
307.164	18.43
307.379	57.34
307.593	73.73
307.807	65.54
308.021	24.58
308.235	83.97
308.449	-45.06
308.663	63.49
308.877	-2.05
309.091	-4.1
309.305	6.14
309.519	24.58
309.733	100.35
309.947	14.34
310.161	26.62
310.374	106.49
310.588	77.82
310.802	6.14
311.016	-6.14
311.23	65.54
311.444	-10.24
311.658	124.93
311.872	12.29
312.085	55.3
312.299	53.25
312.513	-8.19
312.727	14.34
312.941	112.64
313.154	-14.34
313.368	65.54
313.582	67.58
313.796	45.06
314.009	20.48
314.223	32.77
314.437	-57.34
314.651	-24.58
314.864	49.15
315.078	-26.62
315.292	104.45
315.505	-26.62
315.719	47.1
315.933	-34.82
316.146	69.63
316.36	47.1
316.573	71.68
316.787	18.43
317.001	30.72
317.214	67.58
317.428	38.91
317.641	-20.48
317.855	6.14
318.068	53.25
318.282	-8.19
318.495	71.68
318.709	-4.1
318.922	6.14
319.136	-30.72
319.349	98.3
319.563	45.06
319.776	45.06
319.99	53.25
320.203	8.19
320.417	24.58
320.63	79.87
320.843	45.06
321.057	75.77
321.27	32.77
321.483	-57.34
321.697	77.82
321.91	-28.67
322.124	-16.38
322.337	20.48
322.55	-67.58
322.763	40.96
322.977	-6.14
323.19	53.25
323.403	30.72
323.617	8.19
323.83	40.96
324.043	-16.38
324.256	4.1
324.469	49.15
324.683	10.24
324.896	40.96
325.109	0
325.322	106.49
325.535	47.1
325.748	40.96
325.962	73.73
326.175	0
326.388	40.96
326.601	20.48
326.814	-10.24
327.027	63.49
327.24	57.34
327.453	83.97
327.666	6.14
327.879	24.58
328.092	30.72
328.305	-24.58
328.518	71.68
328.731	18.43
328.944	16.38
329.157	8.19
329.37	49.15
329.583	86.01
329.796	86.01
330.009	-20.48
330.222	-4.1
330.435	-4.1
330.648	-8.19
330.861	43.01
331.073	51.2
331.286	67.58
331.499	36.86
331.712	-12.29
331.925	10.24
332.138	36.86
332.35	73.73
332.563	45.06
332.776	77.82
332.989	-26.62
333.202	14.34
333.414	53.25
333.627	-4.1
333.84	-22.53
334.053	55.3
334.265	-8.19
334.478	-20.48
334.691	20.48
334.903	14.34
335.116	16.38
335.329	75.77
335.541	24.58
335.754	12.29
335.966	-34.82
336.179	51.2
336.392	57.34
336.604	20.48
336.817	2.05
337.029	28.67
337.242	26.62
337.454	55.3
337.667	-4.1
337.88	16.38
338.092	8.19
338.305	-24.58
338.517	34.82
338.729	53.25
338.942	14.34
339.154	38.91
339.367	47.1
339.579	38.91
339.792	36.86
340.004	-16.38
340.217	47.1
340.429	49.15
340.641	8.19
340.854	-22.53
341.066	-12.29
341.278	43.01
341.491	69.63
341.703	110.59
341.915	47.1
342.128	49.15
342.34	81.92
342.552	32.77
342.764	47.1
342.977	24.58
343.189	90.11
343.401	116.73
343.613	8.19
343.826	59.39
344.038	-67.58
344.25	30.72
344.462	10.24
344.674	-10.24
344.886	77.82
345.099	-45.06
345.311	-16.38
345.523	57.34
345.735	0
345.947	71.68
346.159	-2.05
346.371	59.39
346.583	47.1
346.795	67.58
347.007	0
347.219	47.1
347.431	59.39
347.643	-18.43
347.855	43.01
348.067	51.2
348.279	77.82
348.491	-18.43
348.703	86.01
348.915	-26.62
349.127	36.86
349.339	55.3
349.551	-18.43
349.763	86.01
349.975	63.49
350.187	90.11
350.399	55.3
350.61	6.14
350.822	-22.53
351.034	114.69
351.246	34.82
351.458	22.53
351.669	47.1
351.881	73.73
352.093	-38.91
352.305	94.21
352.517	40.96
352.728	40.96
352.94	-14.34
353.152	57.34
353.363	45.06
353.575	47.1
353.787	32.77
353.999	2.05
354.21	-14.34
354.422	57.34
354.633	-30.72
354.845	16.38
355.057	86.01
355.268	32.77
355.48	67.58
355.692	-47.1
355.903	71.68
356.115	47.1
356.326	28.67
356.538	-30.72
356.749	81.92
356.961	106.49
357.172	69.63
357.384	4.1
357.595	36.86
357.807	38.91
358.018	14.34
358.23	47.1
358.441	49.15
358.653	30.72
358.864	67.58
359.075	22.53
359.287	114.69
359.498	28.67
359.709	-49.15
359.921	51.2
360.132	-8.19
360.344	4.1
360.555	28.67
360.766	20.48
360.977	2.05
361.189	-12.29
361.4	18.43
361.611	61.44
361.823	18.43
362.034	79.87
362.245	38.91
362.456	-10.24
362.667	51.2
362.879	-16.38
363.09	22.53
363.301	88.06
363.512	22.53
363.723	14.34
363.935	14.34
364.146	45.06
364.357	86.01
364.568	124.93
364.779	14.34
364.99	61.44
365.201	-2.05
365.412	36.86
365.623	-14.34
365.834	-20.48
366.045	24.58
366.256	79.87
366.467	69.63
366.678	-40.96
366.889	18.43
367.1	90.11
367.311	14.34
367.522	71.68
367.733	8.19
367.944	65.54
368.155	32.77
368.366	110.59
368.577	45.06
368.788	67.58
368.999	14.34
369.209	16.38
369.42	49.15
369.631	77.82
369.842	30.72
370.053	-24.58
370.264	26.62
370.474	10.24
370.685	43.01
370.896	67.58
371.107	65.54
371.317	-8.19
371.528	18.43
371.739	49.15
371.95	94.21
372.16	36.86
372.371	6.14
372.582	49.15
372.792	26.62
373.003	34.82
373.214	30.72
373.424	30.72
373.635	30.72
373.846	81.92
374.056	59.39
374.267	112.64
374.477	-6.14
374.688	14.34
374.898	120.83
375.109	26.62
375.319	-16.38
375.53	26.62
375.74	-4.1
375.951	0
376.161	38.91
376.372	104.45
376.582	63.49
376.793	57.34
377.003	-18.43
377.214	-24.58
377.424	53.25
377.635	38.91
377.845	94.21
378.055	73.73
378.266	47.1
378.476	-30.72
378.686	32.77
378.897	-10.24
379.107	120.83
379.317	73.73
379.528	6.14
379.738	38.91
379.948	-10.24
380.158	86.01
380.369	67.58
380.579	71.68
380.789	40.96
380.999	22.53
381.21	79.87
381.42	63.49
381.63	26.62
381.84	90.11
382.05	40.96
382.261	47.1
382.471	-12.29
382.681	43.01
382.891	22.53
383.101	40.96
383.311	49.15
383.521	-8.19
383.731	36.86
383.941	83.97
384.151	-12.29
384.361	32.77
384.571	10.24
384.781	59.39
384.991	49.15
385.201	28.67
385.411	116.73
385.621	40.96
385.831	20.48
386.041	90.11
386.251	67.58
386.461	59.39
386.671	51.2
386.881	75.77
387.091	32.77
387.301	47.1
387.511	0
387.72	0
387.93	55.3
388.14	-30.72
388.35	20.48
388.56	67.58
388.769	-8.19
388.979	75.77
389.189	63.49
389.399	71.68
389.609	63.49
389.818	59.39
390.028	57.34
390.238	53.25
390.447	32.77
390.657	0
390.867	65.54
391.076	2.05
391.286	6.14
391.496	-8.19
391.705	65.54
391.915	86.01
392.125	20.48
392.334	10.24
392.544	77.82
392.753	73.73
392.963	112.64
393.172	47.1
393.382	-8.19
393.591	122.88
393.801	32.77
394.01	-20.48
394.22	63.49
394.429	65.54
394.639	96.25
394.848	57.34
395.058	34.82
395.267	38.91
395.477	57.34
395.686	-4.1
395.895	32.77
396.105	88.06
396.314	6.14
396.524	63.49
396.733	71.68
396.942	71.68
397.152	-16.38
397.361	55.3
397.57	26.62
397.78	63.49
397.989	36.86
398.198	88.06
398.407	73.73
398.617	83.97
398.826	34.82
399.035	104.45
399.244	114.69
399.453	116.73
399.663	96.25
399.872	20.48
400.081	12.29
400.29	157.69
400.499	47.1
400.708	10.24
400.917	53.25
401.127	116.73
401.336	86.01
401.545	55.3
401.754	43.01
401.963	83.97
402.172	53.25
402.381	73.73
402.59	129.02
402.799	120.83
403.008	106.49
403.217	141.31
403.426	8.19
403.635	38.91
403.844	110.59
404.053	77.82
404.262	36.86
404.471	20.48
404.68	47.1
404.888	81.92
405.097	83.97
405.306	100.35
405.515	51.2
405.724	86.01
405.933	86.01
406.142	98.3
406.35	112.64
406.559	133.12
406.768	98.3
406.977	131.07
407.185	75.77
407.394	98.3
407.603	65.54
407.812	143.36
408.02	151.55
408.229	151.55
408.438	124.93
408.646	114.69
408.855	104.45
409.064	120.83
409.272	122.88
409.481	149.5
409.69	110.59
409.898	124.93
410.107	149.5
410.315	172.03
410.524	129.02
410.733	204.8
410.941	219.13
411.15	192.51
411.358	176.13
411.567	249.85
411.775	237.56
411.984	192.51
412.192	284.67
412.401	292.86
412.609	268.28
412.818	321.53
413.026	344.06
413.234	270.33
413.443	253.95
413.651	282.62
413.86	262.14
414.068	317.44
414.276	266.24
414.485	362.49
414.693	333.82
414.901	411.64
415.11	356.35
415.318	374.78
415.526	348.15
415.734	391.16
415.943	419.83
416.151	415.74
416.359	360.44
416.567	448.51
416.776	565.24
416.984	540.66
417.192	428.03
417.4	505.85
417.608	481.27
417.817	434.17
418.025	604.15
418.233	561.14
418.441	573.43
418.649	622.58
418.857	610.29
419.065	661.49
419.273	620.53
419.481	632.82
419.689	684.02
419.897	712.69
420.105	767.99
420.313	808.95
420.521	847.86
420.729	899.06
420.937	899.06
421.145	956.4
421.353	972.79
421.561	991.22
421.769	1026.03
421.977	989.17
422.185	1040.37
422.393	1132.53
422.601	1087.47
422.809	1134.57
423.017	1226.73
423.224	1249.26
423.432	1275.88
423.64	1267.69
423.848	1456.11
424.056	1333.23
424.263	1513.45
424.471	1495.02
424.679	1507.3
424.887	1531.88
425.094	1673.19
425.302	1613.8
425.51	1779.68
425.718	1765.35
425.925	1789.92
426.133	1826.79
426.341	1949.67
426.548	1888.23
426.756	1976.29
426.964	2004.96
427.171	2252.77
427.379	2213.85
427.586	2285.53
427.794	2297.82
428.001	2428.89
428.209	2537.43
428.417	2246.62
428.624	2695.13
428.832	2607.06
429.039	2580.44
429.247	2615.26
429.454	2858.96
429.662	3084.24
429.869	2965.46
430.076	3117.01
430.284	3049.43
430.491	3147.73
430.699	3260.37
430.906	3127.25
431.114	3184.59
431.321	3332.05
431.528	3551.18
431.736	3633.1
431.943	3946.44
432.15	3692.49
432.358	3885
432.565	3938.24
432.772	4069.31
432.979	4210.62
433.187	4399.04
433.394	4433.85
433.601	4550.59
433.808	4591.55
434.016	4620.22
434.223	4849.59
434.43	5193.65
434.637	5060.53
434.844	5261.23
435.052	5633.96
435.259	5386.16
435.466	5441.45
435.673	5380.01
435.88	5824.42
436.087	5994.4
436.294	6059.94
436.501	6053.8
436.708	6139.81
436.915	6287.26
437.122	6668.19
437.329	6590.36
437.537	6674.33
437.743	6985.62
437.95	6850.46
438.157	7088.02
438.364	7393.17
438.571	7446.41
438.778	7409.55
438.985	8353.66
439.192	7720.84
439.399	8003.46
439.606	7784.33
439.813	8486.78
440.02	8781.69
440.227	8667
440.433	8470.4
440.64	8951.67
440.847	8728.44
441.054	9070.45
441.261	9713.52
441.467	9586.54
441.674	9777
441.881	10114.92
442.088	9777
442.294	10045.29
442.501	10069.86
442.708	10458.98
442.914	10966.87
443.121	11134.81
443.328	10919.77
443.534	11935.56
443.741	11546.45
443.948	11169.62
444.154	12279.62
444.361	11896.65
444.568	12144.45
444.774	12103.5
444.981	12482.37
445.187	12648.26
445.394	13346.61
445.6	13209.4
445.807	14401.32
446.013	13575.98
446.22	14032.68
446.426	14477.09
446.633	14765.85
446.839	15058.71
447.046	14595.87
447.252	15363.86
447.459	15425.3
447.665	15275.8
447.871	15920.91
448.078	16826.11
448.284	15900.43
448.491	16328.45
448.697	17084.16
448.903	17166.07
449.11	17297.14
449.316	17135.35
449.522	17493.75
449.728	17907.44
449.935	17796.85
450.141	18102
450.347	18448.1
450.553	17901.29
450.76	17985.26
450.966	18700
451.172	18734.82
451.378	19132.12
451.584	18591.46
451.791	19154.65
451.997	19009.25
452.203	19279.58
452.409	19128.03
452.615	19433.18
452.821	18360.04
453.027	18310.89
453.233	19482.33
453.44	18650.85
453.646	18550.5
453.852	18706.15
454.058	19259.1
454.264	18489.06
454.47	18894.56
454.676	18390.76
454.882	19091.16
455.088	17428.21
455.294	17737.46
455.5	18050.8
455.705	18171.63
455.911	17702.64
456.117	17161.98
456.323	16998.14
456.529	16021.26
456.735	16899.84
456.941	16426.76
457.147	16064.27
457.352	15523.6
457.558	15298.33
457.764	15468.31
457.97	15101.72
458.176	14800.67
458.381	14819.1
458.587	13805.36
458.793	14260.01
458.999	13317.94
459.204	14233.38
459.41	14004.01
459.616	13100.86
459.821	12986.17
460.027	13053.75
460.233	12767.04
460.438	12097.35
460.644	12085.06
460.85	11509.58
461.055	11444.05
461.261	11501.39
461.466	10749.79
461.672	10395.49
461.878	11085.65
462.083	10274.66
462.289	9985.9
462.494	10014.57
462.7	9617.26
462.905	9236.34
463.111	9760.62
463.316	9647.98
463.522	9625.45
463.727	9434.99
463.932	9514.86
464.138	9521.01
464.343	9465.71
464.549	9017.21
464.754	9488.24
464.959	9396.08
465.165	9394.03
465.37	8896.38
465.575	8963.96
465.781	9095.03
465.986	9222
466.191	8839.03
466.397	8552.32
466.602	8066.95
466.807	8556.41
467.012	8716.15
467.218	8449.92
467.423	8384.38
467.628	8396.67
467.833	8726.39
468.038	8664.96
468.244	8044.42
468.449	8566.65
468.654	8351.62
468.859	8189.83
469.064	8001.41
469.269	7788.43
469.474	8009.61
469.679	8163.2
469.885	7931.78
470.09	8009.61
470.295	7921.54
470.5	7565.2
470.705	7692.17
470.91	7534.48
471.115	7540.62
471.32	7839.62
471.525	7579.53
471.73	7403.41
471.935	7432.08
472.139	7106.45
472.344	7341.97
472.549	7223.19
472.754	7032.72
472.959	6948.76
473.164	6748.06
473.369	6817.69
473.574	6940.57
473.778	6832.02
473.983	6797.21
474.188	6795.16
474.393	6526.88
474.598	6475.68
474.802	6375.33
475.007	6385.57
475.212	6453.15
475.417	6268.83
475.621	6225.82
475.826	6215.59
476.031	6021.03
476.235	5973.92
476.44	6131.62
476.645	6053.8
476.849	6016.93
477.054	5832.61
477.259	5838.76
477.463	5726.12
477.668	5756.84
477.872	5654.44
478.077	5633.96
478.282	5482.41
478.486	5658.54
478.691	5631.91
478.895	5386.16
479.1	5521.32
479.304	5466.03
479.509	5175.22
479.713	5296.05
479.918	5113.78
480.122	5154.74
480.326	5207.98
480.531	5044.15
480.735	5236.66
480.94	5070.77
481.144	5304.24
481.348	4962.23
481.553	5048.24
481.757	4976.56
481.961	5183.41
482.166	4962.23
482.37	4929.46
482.574	4927.41
482.778	4960.18
482.983	5177.26
483.187	4968.37
483.391	5033.91
483.595	5052.34
483.8	4816.82
484.004	4980.66
484.208	5013.43
484.412	5027.76
484.616	4923.32
484.821	5138.35
485.025	4917.17
485.229	5050.29
485.433	4839.35
485.637	5035.96
485.841	5044.15
486.045	4839.35
486.249	5068.72
486.453	4943.8
486.657	5021.62
486.861	4937.65
487.065	4995
487.269	5048.24
487.473	4951.99
487.677	4919.22
487.881	5105.59
488.085	5076.91
488.289	5033.91
488.493	5091.25
488.697	5179.31
488.901	5089.2
489.105	5040.05
489.309	4968.37
489.512	5095.35
489.716	5132.21
489.92	5095.35
490.124	5210.03
490.328	5199.79
490.531	5201.84
490.735	5289.9
490.939	5240.75
491.143	5154.74
491.346	5304.24
491.55	5394.35
491.754	5347.25
491.958	5418.93
492.161	5339.05
492.365	5490.6
492.569	5341.1
492.772	5451.69
492.976	5648.3
493.18	5429.17
493.383	5517.23
493.587	5595.05
493.79	5808.04
493.994	5672.87
494.197	5521.32
494.401	5820.33
494.605	5605.29
494.808	5820.33
495.012	5668.78
495.215	5912.49
495.419	5986.21
495.622	6031.27
495.825	6168.48
496.029	6059.94
496.232	6225.82
496.436	6100.9
496.639	6561.69
496.843	6356.89
497.046	6453.15
497.249	6508.44
497.453	6426.53
497.656	6723.48
497.859	6723.48
498.063	6676.38
498.266	6999.96
498.469	6932.37
498.673	6948.76
498.876	7104.4
499.079	7239.57
499.282	7272.34
499.485	7356.3
499.689	7327.63
499.892	7514
500.095	7552.91
500.298	7862.15
500.501	7698.31
500.705	8003.46
500.908	8107.91
501.111	8222.59
501.314	8087.43
501.517	8247.17
501.72	8488.83
501.923	8402.82
502.126	8724.35
502.329	8820.6
502.532	8929.14
502.735	9076.6
502.938	9074.55
503.141	9195.38
503.344	9275.25
503.547	9308.02
503.75	9549.68
503.953	9684.84
504.156	10000.23
504.359	9957.22
504.562	10065.77
504.765	10305.38
504.968	10282.85
505.17	10391.39
505.373	10344.29
505.576	10805.08
505.779	10870.62
505.982	10946.39
506.185	11269.97
506.387	11122.52
506.59	11214.68
506.793	11675.47
506.996	11736.91
507.198	11925.32
507.401	11947.85
507.604	12103.5
507.807	12435.27
508.009	12580.67
508.212	12638.02
508.415	12980.03
508.617	13199.16
508.82	13004.6
509.022	13143.86
509.225	13649.71
509.428	13555.51
509.63	13758.25
509.833	13899.56
510.035	14208.81
510.238	14163.75
510.44	14542.63
510.643	14980.89
510.845	14784.29
511.048	14976.8
511.25	15079.19
511.453	15273.75
511.655	15824.65
511.858	15595.28
512.06	15869.71
512.262	16015.12
512.465	16004.88
512.667	16486.15
512.87	16531.2
513.072	16742.14
513.274	16977.66
513.477	17522.42
513.679	17286.9
513.881	17817.33
514.084	17864.43
514.286	17880.82
514.488	17997.55
514.69	18530.02
514.893	18767.59
515.095	18687.71
515.297	18994.91
515.499	19119.84
515.701	19474.13
515.904	19742.42
516.106	19764.95
516.308	19805.91
516.51	20461.26
516.712	20520.65
516.914	20788.93
517.116	21071.55
517.318	21171.9
517.52	21180.09
517.722	21460.66
517.925	21634.74
518.127	21671.61
518.329	21946.03
518.531	21976.75
518.733	22566.57
518.935	22929.06
519.136	22783.65
519.338	22972.07
519.54	23297.69
519.742	23707.29
519.944	23842.45
520.146	24067.73
520.348	24213.13
520.55	24376.97
520.752	24477.32
520.954	24878.72
521.155	24802.95
521.357	25140.86
521.559	25525.88
521.761	25808.5
521.963	25949.81
522.164	26046.07
522.366	26170.99
522.568	26523.24
522.77	26689.13
522.971	27074.15
523.173	26885.73
523.375	26889.83
523.576	27313.76
523.778	27233.89
523.98	27686.49
524.181	27887.19
524.383	27797.08
524.584	28208.72
524.786	28386.89
524.988	27901.53
525.189	28612.17
525.391	28773.96
525.592	28790.34
525.794	29034.05
525.995	29478.46
526.197	29208.13
526.398	29421.12
526.6	29627.96
526.801	29646.4
527.003	30254.64
527.204	29982.26
527.406	29771.32
527.607	30281.27
527.808	30453.3
528.01	30168.63
528.211	30277.17
528.412	31120.93
528.614	30719.53
528.815	31047.21
529.016	31317.54
529.218	31100.45
529.419	31223.33
529.62	31397.41
529.822	31288.87
530.023	31307.3
530.224	31413.79
530.425	31358.5
530.626	31190.56
530.828	31358.5
531.029	31987.22
531.23	31776.28
531.431	31858.2
531.632	32077.33
531.833	31942.17
532.035	32232.98
532.236	32257.56
532.437	32400.91
532.638	32040.47
532.839	32646.67
533.04	32325.14
533.241	32169.49
533.442	32871.95
533.643	32413.2
533.844	32435.73
534.045	32724.49
534.246	32405.01
534.447	32429.59
534.648	32484.88
534.849	32798.22
535.05	32581.13
535.251	32810.51
535.451	32867.85
535.652	32683.53
535.853	32898.57
536.054	32986.63
536.255	32847.37
536.456	32685.58
536.657	33431.04
536.857	32618
537.058	32794.12
537.259	33502.72
537.46	33140.23
537.66	33433.09
537.861	33086.98
538.062	33021.45
538.263	33541.63
538.463	33287.68
538.664	32996.87
538.865	33216.01
539.065	33455.62
539.266	32992.78
539.466	33431.04
539.667	33115.65
539.868	33637.89
540.068	33363.46
540.269	33328.64
540.469	33363.46
540.67	33433.09
540.87	33234.44
541.071	33056.26
541.271	33412.61
541.472	33508.86
541.672	33367.55
541.873	33383.94
542.073	32742.92
542.274	33986.04
542.474	33773.05
542.675	32902.67
542.875	33656.32
543.075	33590.78
543.276	33222.15
543.476	33564.16
543.676	33291.78
543.877	33650.17
544.077	33668.61
544.277	33439.23
544.478	33469.95
544.678	33248.77
544.878	34029.05
545.078	33515.01
545.279	33527.3
545.479	33299.97
545.679	33506.82
545.879	33732.09
546.079	33783.29
546.28	33521.15
546.48	33768.96
546.68	33902.07
546.88	33799.68
547.08	33666.56
547.28	33553.92
547.48	33437.19
547.68	33496.58
547.88	33521.15
548.081	33957.37
548.281	33666.56
548.481	33345.03
548.681	33900.03
548.881	33943.03
549.081	33545.73
549.28	33259.01
549.48	34102.78
549.68	33760.76
549.88	34164.21
550.08	33639.93
550.28	33422.85
550.48	33402.37
550.68	33631.74
550.88	33338.88
551.08	33979.9
551.279	33891.83
551.479	33472
551.679	33736.19
551.879	33547.78
552.079	33814.01
552.278	33594.88
552.478	33721.85
552.678	33654.27
552.878	33687.04
553.077	33203.72
553.277	33680.89
553.477	34000.38
553.676	33328.64
553.876	33482.24
554.076	33576.45
554.275	33662.46
554.475	33238.53
554.674	33721.85
554.874	33474.05
555.074	33486.34
555.273	33932.79
555.473	33580.54
555.672	33453.57
555.872	33404.42
556.071	33359.36
556.271	33596.93
556.47	33648.13
556.67	33420.8
556.869	33451.52
557.068	33138.18
557.268	33170.95
557.467	33363.46
557.667	33275.4
557.866	32873.99
558.065	33302.02
558.265	33000.97
558.464	33246.72
558.663	33545.73
558.863	32800.27
559.062	33404.42
559.261	33015.3
559.461	33607.17
559.66	32697.87
559.859	33152.52
560.058	33086.98
560.258	33277.44
560.457	32722.44
560.656	33213.96
560.855	33265.16
561.054	33109.51
561.253	32421.39
561.453	32816.65
561.652	32957.96
561.851	33285.64
562.05	32943.63
562.249	32783.88
562.448	32691.73
562.647	32910.86
562.846	32884.23
563.045	32734.73
563.244	32144.92
563.443	32943.63
563.642	32024.09
563.841	32812.56
564.04	32400.91
564.239	32792.08
564.438	32232.98
564.637	32468.5
564.836	32636.43
565.035	32296.47
565.234	32493.07
565.432	32144.92
565.631	32212.5
565.83	32073.24
566.029	32065.05
566.228	31921.69
566.427	32374.29
566.625	31960.6
566.824	31731.23
567.023	32099.86
567.222	31647.26
567.42	31931.93
567.619	31835.67
567.818	31774.24
568.016	31604.25
568.215	32239.12
568.414	31626.78
568.612	32316.95
568.811	31391.26
569.01	31962.65
569.208	31338.02
569.407	31530.53
569.605	30912.04
569.804	31464.99
570.002	31104.55
570.201	31542.81
570.4	31247.91
570.598	31147.56
570.797	31014.44
570.995	31079.97
571.193	30576.17
571.392	31221.28
571.59	30723.63
571.789	30625.32
571.987	30602.8
572.186	30721.58
572.384	30729.77
572.582	30717.48
572.781	30703.15
572.979	30475.82
573.177	30430.77
573.376	30412.34
573.574	30166.58
573.772	30512.69
573.971	30072.37
574.169	30039.61
574.367	29877.82
574.565	30189.11
574.763	29906.49
574.962	29922.87
575.16	29605.44
575.358	29914.68
575.556	29435.45
575.754	29951.54
575.952	29818.42
576.151	29765.18
576.349	29222.47
576.547	29173.31
576.745	29509.18
576.943	29351.49
577.141	29197.89
577.339	29398.59
577.537	29177.41
577.735	29378.11
577.933	28669.51
578.131	28862.02
578.329	28765.77
578.527	28436.05
578.725	28573.26
578.923	28935.75
579.121	28700.23
579.319	28311.12
579.516	28792.39
579.714	28522.06
579.912	28192.34
580.11	28208.72
580.308	28382.8
580.506	28309.07
580.704	27938.39
580.901	28173.91
581.099	28290.64
581.297	27833.94
581.495	27854.42
581.692	28128.85
581.89	27680.35
582.088	27833.94
582.285	27731.54
582.483	27811.42
582.681	27340.38
582.878	27442.78
583.076	27199.07
583.274	27440.73
583.471	27266.66
583.669	27549.28
583.866	27000.42
584.064	27170.4
584.262	27002.47
584.459	27217.5
584.657	26771.05
584.854	26920.55
585.052	26500.72
585.249	26861.16
585.447	26807.91
585.644	26195.57
585.841	26682.98
586.039	26570.35
586.236	26107.51
586.434	26183.28
586.631	26115.7
586.828	26277.49
587.026	26334.83
587.223	26003.06
587.42	25783.93
587.618	25808.5
587.815	25546.36
588.012	25601.66
588.21	25724.54
588.407	25802.36
588.604	25153.15
588.801	25450.11
588.999	25607.8
589.196	25345.66
589.393	25235.07
589.59	25063.04
589.787	25017.99
589.984	25095.81
590.182	24653.45
590.379	25005.7
590.576	24749.7
590.773	24919.68
590.97	24399.5
591.167	24620.68
591.364	24149.65
591.561	24225.42
591.758	24344.2
591.955	24364.68
592.152	24508.04
592.349	24065.68
592.546	24139.41
592.743	24086.16
592.94	23969.43
593.137	23813.78
593.334	23938.71
593.531	23412.38
593.727	23862.93
593.924	23795.35
594.121	23598.74
594.318	23932.56
594.515	23060.13
594.712	23629.46
594.908	23301.79
595.105	23330.46
595.302	23090.85
595.499	23283.36
595.696	22851.24
595.892	22873.76
596.089	22873.76
596.286	22859.43
596.482	22615.72
596.679	22769.32
596.876	22787.75
597.072	22498.98
597.269	22462.12
597.466	22218.41
597.662	22419.11
597.859	22541.99
598.055	22410.92
598.252	22097.58
598.448	22060.72
598.645	21851.83
598.841	21722.8
599.038	21802.68
599.234	22038.19
599.431	21497.53
599.627	21690.04
599.824	21515.96
600.02	21669.56
600.217	21464.76
600.413	21407.42
600.609	21046.97
600.806	21280.44
601.002	21231.29
601.198	20848.32
601.395	21059.26
601.591	20883.14
601.787	21169.85
601.984	20885.19
602.18	20950.72
602.376	20897.47
602.572	20559.56
602.769	20473.54
602.965	20221.64
603.161	20465.35
603.357	20457.16
603.553	20037.33
603.75	20190.92
603.946	20166.35
604.142	20416.2
604.338	19867.34
604.534	19990.22
604.73	19816.15
604.926	19730.13
605.122	19818.19
605.318	19515.09
605.514	19762.9
605.71	19416.79
605.906	19293.91
606.102	19736.27
606.298	19367.64
606.494	19424.98
606.69	19511
606.886	19521.24
607.082	19193.56
607.278	19326.68
607.474	19123.93
607.67	19531.48
607.866	18878.18
608.062	19191.52
608.257	19074.78
608.453	19148.51
608.649	18962.14
608.845	18761.44
609.041	18632.42
609.236	18933.47
609.432	18869.98
609.628	18501.35
609.824	18302.7
610.019	18474.73
610.215	18853.6
610.411	18806.5
610.606	18392.81
610.802	18521.83
610.998	18702.05
611.193	18276.07
611.389	18300.65
611.584	18314.98
611.78	18263.79
611.976	18173.67
612.171	18310.89
612.367	18147.05
612.562	18364.14
612.758	17950.45
612.953	18077.42
613.149	18206.44
613.344	17899.25
613.539	18149.1
613.735	17917.68
613.93	17790.7
614.126	17688.31
614.321	17823.47
614.517	17698.55
614.712	17467.13
614.907	17405.69
615.103	17657.59
615.298	17266.42
615.493	17741.55
615.688	17161.98
615.884	17649.39
616.079	17190.65
616.274	17544.95
616.47	17356.54
616.665	17280.76
616.86	17088.25
617.055	17159.93
617.25	17106.68
617.445	17460.98
617.641	16586.5
617.836	17151.74
618.031	16852.73
618.226	17051.39
618.421	16992
618.616	16922.37
618.811	16662.27
619.006	16865.02
619.201	16451.33
619.396	16678.66
619.591	16170.76
619.786	16662.27
619.981	16191.24
620.176	16221.96
620.371	16160.52
620.566	16291.59
620.761	15810.32
620.956	16099.08
621.151	15689.49
621.346	15916.81
621.541	15544.08
621.735	15847.18
621.93	15740.69
622.125	15439.64
622.32	15230.74
622.515	15144.73
622.709	15601.43
622.904	15212.31
623.099	15187.74
623.294	15071
623.488	15017.75
623.683	14858.01
623.878	14827.29
624.072	14817.05
624.267	14616.35
624.462	14481.19
624.656	14522.15
624.851	14591.78
625.046	14552.87
625.24	14317.35
625.435	14184.23
625.629	14077.74
625.824	13983.53
626.018	14356.26
626.213	13842.22
626.407	14036.78
626.602	13606.7
626.796	13739.82
626.991	13795.12
627.185	13684.53
627.38	13680.43
627.574	13410.1
627.768	13428.53
627.963	13244.21
628.157	13096.76
628.352	13430.58
628.546	12912.44
628.74	13305.65
628.935	12951.35
629.129	13125.43
629.323	12683.07
629.517	12746.56
629.712	12756.8
629.906	12603.2
630.1	12480.32
630.294	12453.7
630.489	12502.85
630.683	12416.83
630.877	12296
631.071	12388.16
631.265	12302.15
631.459	12347.2
631.653	12142.41
631.848	11947.85
632.042	12029.77
632.236	12119.88
632.43	11913.03
632.624	11923.27
632.818	11728.72
633.012	11790.16
633.206	11685.71
633.4	11691.85
633.594	11476.82
633.788	11503.44
633.982	11509.58
634.176	11374.42
634.369	11122.52
634.563	11245.4
634.757	11069.27
634.951	11149.14
635.145	11181.91
635.339	10964.82
635.533	10833.75
635.726	10760.03
635.92	10536.8
636.114	10870.62
636.308	10651.49
636.501	10598.24
636.695	10544.99
636.889	10592.09
637.083	10596.19
637.276	10346.34
637.47	10202.98
637.664	10274.66
637.857	10315.62
638.051	10037.09
638.244	9961.32
638.438	10045.29
638.632	10088.29
638.825	10221.41
639.019	9942.89
639.212	9768.81
639.406	9619.31
639.599	9596.78
639.793	9688.94
639.986	9248.63
640.18	9432.94
640.373	9381.74
640.567	9195.38
640.76	9295.73
640.954	9142.13
641.147	9148.28
641.34	9086.84
641.534	8953.72
641.727	8994.68
641.92	8918.9
642.114	8736.63
642.307	8746.87
642.5	8550.27
642.694	8451.97
642.887	8419.2
643.08	8570.75
643.273	8306.56
643.467	8355.71
643.66	8382.34
643.853	8210.31
644.046	8091.52
644.239	8089.48
644.432	7919.5
644.626	7899.02
644.819	8013.7
645.012	7810.95
645.205	7735.18
645.398	7798.66
645.591	7712.65
645.784	7716.75
645.977	7544.72
646.17	7708.55
646.363	7581.58
646.556	7520.14
646.749	7518.09
646.942	7231.38
647.135	7186.32
647.328	7333.78
647.521	7143.31
647.714	7077.78
647.907	7055.25
648.099	7002.01
648.292	7094.16
648.485	6967.19
648.678	6725.53
648.871	6805.4
649.064	6952.85
649.256	6930.33
649.449	6578.08
649.642	6707.1
649.835	6627.23
650.027	6557.6
650.22	6541.21
650.413	6498.2
650.605	6328.22
650.798	6457.25
650.991	6322.08
651.183	6170.53
651.376	6266.78
651.568	6289.31
651.761	6117.28
651.954	6150.05
652.146	6176.67
652.339	6107.04
652.531	5863.33
652.724	6053.8
652.916	5912.49
653.109	5851.05
653.301	5793.7
653.494	5902.25
653.686	5791.66
653.879	5765.03
654.071	5912.49
654.263	5701.55
654.456	5588.91
654.648	5656.49
654.84	5580.71
655.033	5638.06
655.225	5631.91
655.417	5527.47
655.61	5468.08
655.802	5451.69
655.994	5357.49
656.186	5334.96
656.379	5285.81
656.571	5337.01
656.763	5349.29
656.955	5201.84
657.148	5132.21
657.34	5173.17
657.532	5130.16
657.724	5197.74
657.916	5033.91
658.108	4937.65
658.3	5052.34
658.492	4964.28
658.684	5085.11
658.876	5040.05
659.068	4870.07
659.26	4835.25
659.452	4982.71
659.644	4849.59
659.836	4855.73
660.028	4665.27
660.22	4566.97
660.412	4698.04
660.604	4609.98
660.796	4622.27
660.988	4556.73
661.18	4634.55
661.372	4542.39
661.563	4558.78
661.755	4544.44
661.947	4523.96
662.139	4417.47
662.331	4423.61
662.522	4548.54
662.714	4249.54
662.906	4282.3
663.097	4296.64
663.289	4282.3
663.481	4169.66
663.673	4093.89
663.864	4212.67
664.056	4136.9
664.247	4091.84
664.439	4020.16
664.631	4118.47
664.822	4071.36
665.014	3872.71
665.205	4077.51
665.397	4048.83
665.588	3891.14
665.78	3841.99
665.971	3868.61
666.163	3819.46
666.354	3790.79
666.546	3919.81
666.737	3827.65
666.929	3796.93
667.12	3807.17
667.311	3614.66
667.503	3721.16
667.694	3710.92
667.885	3645.38
668.077	3637.19
668.268	3575.75
668.459	3653.58
668.651	3694.54
668.842	3641.29
669.033	3610.57
669.224	3495.88
669.416	3489.74
669.607	3403.72
669.798	3534.79
669.989	3440.59
670.18	3397.58
670.371	3358.67
670.563	3356.62
670.754	3373
670.945	3383.24
671.136	3471.31
671.327	3442.64
671.518	3231.69
671.709	3373
671.9	3243.98
672.091	3346.38
672.282	3375.05
672.473	3362.76
672.664	3315.66
672.855	3274.7
673.046	3286.99
673.237	3219.41
673.428	3160.02
673.619	3219.41
673.809	3184.59
674	3241.93
674.191	3162.06
674.382	3112.91
674.573	3030.99
674.764	3071.95
674.954	3112.91
675.145	2955.22
675.336	3067.86
675.527	3014.61
675.717	3133.39
675.908	2959.31
676.099	3018.71
676.289	3096.53
676.48	3061.71
676.671	3000.27
676.861	3016.66
677.052	3006.42
677.243	2928.6
677.433	3047.38
677.624	2955.22
677.814	2969.55
678.005	2899.92
678.195	2940.88
678.386	3096.53
678.576	2852.82
678.767	2979.79
678.957	2987.99
679.148	3016.66
679.338	2922.45
679.529	2799.57
679.719	2981.84
679.909	2955.22
680.1	2922.45
680.29	2906.07
680.481	2867.16
680.671	2818.01
680.861	2955.22
681.052	2899.92
681.242	2994.13
681.432	2858.96
681.622	2867.16
681.813	2842.58
682.003	2926.55
682.193	2793.43
682.383	2938.84
682.573	2949.07
682.764	2877.4
682.954	2842.58
683.144	2979.79
683.334	2963.41
683.524	2998.23
683.714	2904.02
683.904	2785.24
684.094	2977.75
684.284	3106.77
684.474	3065.81
684.664	2934.74
684.854	2969.55
685.044	2922.45
685.234	2926.55
685.424	3012.56
685.614	2832.34
685.804	2832.34
685.994	3024.85
686.184	2920.4
686.374	2938.84
686.564	2973.65
686.753	3028.95
686.943	2897.88
687.133	2994.13
687.323	2803.67
687.513	2916.31
687.702	3090.38
687.892	2854.87
688.082	2928.6
688.272	3090.38
688.461	3047.38
688.651	2959.31
688.841	2938.84
689.03	2985.94
689.22	2955.22
689.41	3033.04
689.599	3104.72
689.789	2963.41
689.979	2934.74
690.168	3133.39
690.358	2926.55
690.547	3129.3
690.737	3033.04
690.926	3121.1
691.116	3039.19
691.305	2963.41
691.495	3061.71
691.684	3041.23
691.874	3024.85
692.063	3127.25
692.252	2996.18
692.442	3037.14
692.631	3074
692.82	3049.43
693.01	2934.74
693.199	2996.18
693.388	2881.49
693.578	2947.03
693.767	2938.84
693.956	3039.19
694.146	2865.11
694.335	2801.62
694.524	2990.03
694.713	2699.22
694.902	2957.27
695.092	2897.88
695.281	2889.68
695.47	2983.89
695.659	2676.7
695.848	2940.88
696.037	2916.31
696.226	2791.38
696.415	2818.01
696.604	2912.21
696.793	2758.61
696.982	2854.87
697.171	2918.36
697.36	2838.48
697.549	2820.05
697.738	2846.68
697.927	2791.38
698.116	2787.29
698.305	2672.6
698.494	2594.78
698.683	2764.76
698.872	2697.17
699.061	2777.05
699.25	2762.71
699.438	2607.06
699.627	2752.47
699.816	2697.17
700.005	2658.26
700.193	2746.33
700.382	2738.13
700.571	2615.26
700.76	2600.92
700.948	2551.77
701.137	2623.45
701.326	2693.08
701.514	2625.5
701.703	2545.63
701.892	2543.58
702.08	2627.54
702.269	2664.41
702.457	2459.61
702.646	2457.56
702.834	2471.9
703.023	2555.86
703.212	2439.13
703.4	2584.54
703.589	2377.69
703.777	2461.66
703.965	2359.26
704.154	2443.23
704.342	2457.56
704.531	2387.93
704.719	2285.53
704.907	2504.67
705.096	2312.16
705.284	2457.56
705.472	2379.74
705.661	2340.83
705.849	2310.11
706.037	2375.64
706.226	2383.84
706.414	2385.88
706.602	2306.01
706.79	2383.84
706.979	2322.4
707.167	2338.78
707.355	2220
707.543	2215.9
707.731	2287.58
707.919	2158.56
708.107	2168.8
708.296	2172.89
708.484	2160.61
708.672	2244.57
708.86	2156.51
709.048	2265.05
709.236	2269.15
709.424	2131.94
709.612	2183.13
709.8	2121.7
709.988	2140.13
710.176	2043.87
710.364	2117.6
710.551	2150.37
710.739	2062.3
710.927	2115.55
711.115	2009.06
711.303	2080.74
711.491	2013.15
711.679	2002.91
711.866	2088.93
712.054	1886.18
712.242	2025.44
712.43	1972.19
712.617	2002.91
712.805	1906.66
712.993	1877.99
713.181	1912.8
713.368	1931.23
713.556	1970.15
713.744	1900.51
713.931	1964
714.119	1828.84
714.306	1898.47
714.494	1886.18
714.682	1867.75
714.869	1908.71
715.057	1755.11
715.244	1781.73
715.432	2009.06
715.619	1761.25
715.807	1775.59
715.994	1789.92
716.182	1863.65
716.369	1882.08
716.556	1789.92
716.744	1742.82
716.931	1607.66
717.119	1843.17
717.306	1683.43
717.493	1839.08
717.681	1687.53
717.868	1701.86
718.055	1824.74
718.242	1685.48
718.43	1720.29
718.617	1759.21
718.804	1667.05
718.991	1675.24
719.179	1734.63
719.366	1611.75
719.553	1689.57
719.74	1638.38
719.927	1558.5
720.114	1576.94
720.301	1562.6
720.488	1626.09
720.676	1642.47
720.863	1603.56
721.05	1628.14
721.237	1470.44
721.424	1417.19
721.611	1595.37
721.798	1429.48
721.985	1472.49
722.172	1542.12
722.358	1574.89
722.545	1523.69
722.732	1468.39
722.919	1497.07
723.106	1361.9
723.293	1521.64
723.48	1466.35
723.667	1486.83
723.853	1406.95
724.04	1349.61
724.227	1531.88
724.414	1439.72
724.6	1441.77
724.787	1425.39
724.974	1318.89
725.161	1380.33
725.347	1478.63
725.534	1282.03
725.72	1404.91
725.907	1390.57
726.094	1267.69
726.28	1417.19
726.467	1419.24
726.653	1267.69
726.84	1441.77
727.027	1349.61
727.213	1316.84
727.4	1382.38
727.586	1341.42
727.773	1290.22
727.959	1224.69
728.145	1327.08
728.332	1230.83
728.518	1265.64
728.705	1318.89
728.891	1329.13
729.077	1261.55
729.264	1232.88
729.45	1241.07
729.636	1316.84
729.823	1265.64
730.009	1220.59
730.195	1200.11
730.382	1171.44
730.568	1232.88
730.754	1204.21
730.94	1157.1
731.126	1267.69
731.313	1218.54
731.499	1198.06
731.685	1261.55
731.871	1122.29
732.057	1128.43
732.243	1175.53
732.429	1228.78
732.615	1157.1
732.801	1179.63
732.987	1155.05
733.173	1153.01
733.359	1286.12
733.545	1075.18
733.731	1112.05
733.917	1150.96
734.103	1064.94
734.289	1167.34
734.475	1085.42
734.661	1032.18
734.847	1193.97
735.033	1079.28
735.219	1073.14
735.404	1103.86
735.59	1058.8
735.776	1089.52
735.962	1019.89
736.148	1034.22
736.333	1009.65
736.519	1005.55
736.705	1046.51
736.89	1105.9
737.076	1085.42
737.262	1019.89
737.447	1005.55
737.633	983.03
737.819	968.69
738.004	958.45
738.19	968.69
738.375	968.69
738.561	1048.56
738.747	1001.46
738.932	954.35
739.118	991.22
739.303	1030.13
739.489	1044.46
739.674	894.96
739.859	999.41
740.045	1044.46
740.23	940.02
740.416	880.63
740.601	997.36
740.786	993.26
740.972	903.15
741.157	874.48
741.342	886.77
741.528	1001.46
741.713	901.11
741.898	942.07
742.084	935.92
742.269	940.02
742.454	839.67
742.639	991.22
742.824	866.29
743.01	907.25
743.195	792.56
743.38	888.82
743.565	921.59
743.75	868.34
743.935	888.82
744.12	892.91
744.305	856.05
744.49	915.44
744.675	882.67
744.86	851.95
745.045	792.56
745.23	778.23
745.415	796.66
745.6	829.43
745.785	765.94
745.97	804.85
746.155	765.94
746.34	878.58
746.525	786.42
746.71	757.75
746.895	749.56
747.079	786.42
747.264	856.05
747.449	847.86
747.634	743.41
747.819	688.12
748.003	755.7
748.188	763.89
748.373	747.51
748.557	710.65
748.742	759.8
748.927	651.25
749.111	645.11
749.296	608.25
749.481	688.12
749.665	686.07
749.85	655.35
750.034	722.93
750.219	686.07
750.404	700.41
750.588	614.39
750.773	657.4
750.957	659.45
751.141	669.69
751.326	653.3
751.51	641.01
751.695	673.78
751.879	663.54
752.064	698.36
752.248	677.88
752.432	669.69
752.617	552.95
752.801	681.97
752.985	614.39
753.17	665.59
753.354	675.83
753.538	591.86
753.722	522.23
753.907	569.34
754.091	536.57
754.275	559.1
754.459	634.87
754.643	600.05
754.828	634.87
755.012	563.19
755.196	557.05
755.38	528.38
755.564	555
755.748	612.34
755.932	542.71
756.116	606.2
756.3	540.66
756.484	602.1
756.668	571.38
756.852	573.43
757.036	624.63
757.22	538.62
757.404	569.34
757.588	489.46
757.772	557.05
757.956	481.27
758.14	522.23
758.323	610.29
758.507	491.51
758.691	602.1
758.875	466.94
759.059	514.04
759.242	477.18
759.426	454.65
759.61	436.22
759.794	528.38
759.977	516.09
760.161	522.23
760.345	548.86
760.528	514.04
760.712	503.8
760.895	442.36
761.079	585.72
761.263	464.89
761.446	454.65
761.63	434.17
761.813	546.81
761.997	475.13
762.18	477.18
762.364	497.66
762.547	460.79
762.731	499.7
762.914	505.85
763.098	493.56
763.281	448.51
763.464	530.42
763.648	471.03
763.831	452.6
764.015	430.07
764.198	438.27
764.381	415.74
764.564	505.85
764.748	434.17
764.931	397.31
765.114	509.94
765.297	518.14
765.481	413.69
765.664	485.37
765.847	440.31
766.03	495.61
766.213	401.4
766.397	417.79
766.58	462.84
766.763	483.32
766.946	438.27
767.129	413.69
767.312	378.87
767.495	325.63
767.678	393.21
767.861	452.6
768.044	335.87
768.227	479.22
768.41	417.79
768.593	385.02
768.776	466.94
768.959	393.21
769.142	409.59
769.324	499.7
769.507	311.29
769.69	376.83
769.873	450.55
770.056	417.79
770.239	378.87
770.421	374.78
770.604	442.36
770.787	430.07
770.97	356.35
771.152	358.39
771.335	415.74
771.518	456.7
771.7	397.31
771.883	317.44
772.066	323.58
772.248	423.93
772.431	382.97
772.613	401.4
772.796	339.96
772.978	399.35
773.161	354.3
773.343	339.96
773.526	288.76
773.708	350.2
773.891	333.82
774.073	270.33
774.256	333.82
774.438	339.96
774.621	430.07
774.803	329.72
774.985	309.24
775.168	466.94
775.35	362.49
775.532	360.44
775.715	329.72
775.897	372.73
776.079	309.24
776.261	323.58
776.444	290.81
776.626	321.53
776.808	292.86
776.99	342.01
777.173	385.02
777.355	397.31
777.537	270.33
777.719	321.53
777.901	303.1
778.083	288.76
778.265	290.81
778.447	366.59
778.629	352.25
778.811	284.67
778.993	251.9
779.175	270.33
779.357	305.15
779.539	223.23
779.721	342.01
779.903	339.96
780.085	354.3
780.267	309.24
780.449	260.09
780.631	280.57
780.812	256
780.994	253.95
781.176	219.13
781.358	247.8
781.54	309.24
781.721	272.38
781.903	294.91
782.085	311.29
782.267	284.67
782.448	202.75
782.63	299
782.812	251.9
782.993	212.99
783.175	206.84
783.357	200.7
783.538	270.33
783.72	210.94
783.901	219.13
784.083	200.7
784.264	262.14
784.446	249.85
784.627	198.65
784.809	251.9
784.99	243.71
785.172	247.8
785.353	229.37
785.535	258.04
785.716	251.9
785.897	167.93
786.079	272.38
786.26	264.19
786.441	200.7
786.623	225.28
786.804	221.18
786.985	233.47
787.167	210.94
787.348	233.47
787.529	182.27
787.71	178.17
787.891	174.08
788.073	225.28
788.254	243.71
788.435	196.61
788.616	169.98
788.797	258.04
788.978	245.76
789.159	198.65
789.34	219.13
789.522	153.6
789.703	147.45
789.884	188.41
790.065	206.84
790.246	139.26
790.427	161.79
790.607	155.65
790.788	169.98
790.969	137.21
791.15	194.56
791.331	178.17
791.512	180.22
791.693	167.93
791.874	204.8
792.054	129.02
792.235	227.32
792.416	155.65
792.597	188.41
792.778	198.65
792.958	188.41
793.139	180.22
793.32	110.59
793.5	147.45
793.681	206.84
793.862	69.63
794.042	124.93
794.223	169.98
794.404	169.98
794.584	139.26
794.765	206.84
794.945	143.36
795.126	178.17
795.306	188.41
795.487	122.88
795.667	149.5
795.848	86.01
796.028	176.13
796.209	129.02
796.389	206.84
796.57	135.17
796.75	137.21
796.93	73.73
797.111	77.82
797.291	94.21
797.471	131.07
797.652	149.5
797.832	112.64
798.012	100.35
798.192	153.6
798.373	108.54
798.553	96.25
798.733	186.37
798.913	143.36
799.093	145.41
799.274	137.21
799.454	200.7
799.634	196.61
799.814	98.3
799.994	198.65
800.174	108.54
800.354	145.41
800.534	96.25
800.714	147.45
800.894	172.03
801.074	102.4
801.254	137.21
801.434	108.54
801.614	94.21
801.794	81.92
801.974	278.52
802.154	110.59
802.334	90.11
802.514	116.73
802.693	178.17
802.873	79.87
803.053	135.17
803.233	131.07
803.413	169.98
803.592	133.12
803.772	139.26
803.952	114.69
804.131	104.45
804.311	104.45
804.491	163.84
804.67	114.69
804.85	96.25
805.03	114.69
805.209	120.83
805.389	28.67
805.568	69.63
805.748	32.77
805.928	83.97
806.107	129.02
806.287	139.26
806.466	73.73
806.646	65.54
806.825	88.06
807.004	106.49
807.184	120.83
807.363	159.74
807.543	137.21
807.722	114.69
807.901	96.25
808.081	59.39
808.26	57.34
808.439	114.69
808.619	122.88
808.798	135.17
808.977	106.49
809.156	28.67
809.336	100.35
809.515	108.54
809.694	38.91
809.873	100.35
810.052	67.58
810.231	104.45
810.411	104.45
810.59	151.55
810.769	75.77
810.948	67.58
811.127	79.87
811.306	65.54
811.485	75.77
811.664	141.31
811.843	4.1
812.022	100.35
812.201	131.07
812.38	139.26
812.559	153.6
812.737	49.15
812.916	65.54
813.095	73.73
813.274	43.01
813.453	124.93
813.632	116.73
813.811	51.2
813.989	88.06
814.168	90.11
814.347	59.39
814.526	98.3
814.704	98.3
814.883	102.4
815.062	71.68
815.24	92.16
815.419	104.45
815.598	120.83
815.776	77.82
815.955	131.07
816.133	96.25
816.312	55.3
816.49	63.49
816.669	98.3
816.847	43.01
817.026	65.54
817.204	106.49
817.383	90.11
817.561	63.49
817.74	57.34
817.918	81.92
818.097	98.3
818.275	69.63
818.453	86.01
818.632	96.25
818.81	112.64
818.988	69.63
819.167	47.1
819.345	104.45
819.523	30.72
819.701	75.77
819.879	8.19
820.058	77.82
820.236	86.01
820.414	28.67
820.592	104.45
820.77	53.25
820.948	-14.34
821.127	81.92
821.305	65.54
821.483	51.2
821.661	45.06
821.839	34.82
822.017	110.59
822.195	116.73
822.373	45.06
822.551	98.3
822.729	45.06
822.907	112.64
823.085	28.67
823.262	51.2
823.44	-16.38
823.618	81.92
823.796	34.82
823.974	-2.05
824.152	36.86
824.329	2.05
824.507	45.06
824.685	124.93
824.863	98.3
825.04	32.77
825.218	69.63
825.396	59.39
825.574	34.82
825.751	16.38
825.929	96.25
826.107	57.34
826.284	-34.82
826.462	10.24
826.639	65.54
826.817	83.97
826.994	6.14
827.172	8.19
827.349	71.68
827.527	59.39
827.704	102.4
827.882	65.54
828.059	14.34
828.237	6.14
828.414	96.25
828.591	49.15
828.769	45.06
828.946	53.25
829.124	51.2
829.301	57.34
829.478	190.46
829.655	65.54
829.833	86.01
830.01	55.3
830.187	122.88
830.364	86.01
830.542	8.19
830.719	22.53
830.896	43.01
831.073	73.73
831.25	59.39
831.427	-18.43
831.604	69.63
831.782	-18.43
831.959	32.77
832.136	0
832.313	94.21
832.49	53.25
832.667	32.77
832.844	49.15
833.021	65.54
833.198	49.15
833.374	59.39
833.551	40.96
833.728	32.77
833.905	71.68
834.082	-10.24
834.259	45.06
834.436	38.91
834.612	36.86
834.789	75.77
834.966	6.14
835.143	40.96
835.319	12.29
835.496	55.3
835.673	28.67
835.85	26.62
836.026	38.91
836.203	-18.43
836.38	18.43
836.556	94.21
836.733	49.15
836.909	51.2
837.086	63.49
837.262	73.73
837.439	43.01
837.616	18.43
837.792	-55.3
837.968	110.59
838.145	88.06
838.321	55.3
838.498	34.82
838.674	55.3
838.851	24.58
839.027	6.14
839.203	116.73
839.38	-8.19
839.556	-28.67
839.732	88.06
839.909	65.54
840.085	-2.05
840.261	75.77
840.437	98.3
840.614	0
840.79	47.1
840.966	51.2
841.142	43.01
841.318	81.92
841.494	36.86
841.671	38.91
841.847	-51.2
842.023	94.21
842.199	135.17
842.375	34.82
842.551	-4.1
842.727	-67.58
842.903	-6.14
843.079	43.01
843.255	75.77
843.431	2.05
843.607	49.15
843.783	47.1
843.959	110.59
844.134	65.54
844.31	14.34
844.486	49.15
844.662	40.96
844.838	65.54
845.013	55.3
845.189	12.29
845.365	22.53
845.541	10.24
845.716	-55.3
845.892	20.48
846.068	-24.58
846.244	24.58
846.419	57.34
846.595	90.11
846.77	-22.53
846.946	71.68
847.122	38.91
847.297	36.86
847.473	47.1
847.648	71.68
847.824	-36.86
847.999	-16.38
848.175	96.25
848.35	34.82
848.526	6.14
848.701	53.25
848.876	69.63
849.052	73.73
849.227	10.24
849.403	4.1
849.578	77.82
849.753	34.82
849.929	73.73
850.104	-2.05
850.279	63.49
850.454	-22.53
850.63	10.24
850.805	40.96
850.98	-8.19
851.155	-30.72
851.33	16.38
851.505	22.53
851.681	14.34
851.856	24.58
852.031	0
852.206	-4.1
852.381	67.58
852.556	-22.53
852.731	26.62
852.906	47.1
853.081	8.19
853.256	36.86
853.431	40.96
853.606	49.15
853.781	-18.43
853.956	18.43
854.131	-18.43
854.305	43.01
854.48	-67.58
854.655	18.43
854.83	14.34
855.005	34.82
855.18	94.21
855.354	16.38
855.529	-43.01
855.704	40.96
855.879	96.25
856.053	18.43
856.228	40.96
856.403	-38.91
856.577	-2.05
856.752	2.05
856.926	71.68
857.101	20.48
857.276	38.91
857.45	45.06
857.625	43.01
857.799	-14.34
857.974	16.38
858.148	16.38
858.323	38.91
858.497	43.01
858.672	-79.87
858.846	32.77
859.02	69.63
859.195	18.43
859.369	47.1
859.543	24.58
859.718	69.63
859.892	45.06
860.066	-26.62
860.241	-20.48
860.415	0
860.589	-20.48
860.763	77.82
860.938	26.62
861.112	57.34
861.286	24.58
861.46	12.29
861.634	-20.48
861.808	-14.34
861.982	-28.67
862.157	-32.77
862.331	-55.3
862.505	-40.96
862.679	34.82
862.853	14.34
863.027	4.1
863.201	18.43
863.375	10.24
863.549	-14.34
863.722	110.59
863.896	71.68
864.07	16.38
864.244	16.38
864.418	38.91
864.592	14.34
864.766	75.77
864.939	-73.73
865.113	69.63
865.287	57.34
865.461	18.43
865.634	4.1
865.808	-61.44
865.982	38.91
866.156	47.1
866.329	-59.39
866.503	8.19
866.676	28.67
866.85	12.29
867.024	51.2
867.197	59.39
867.371	-6.14
867.544	8.19
867.718	-53.25
867.891	53.25
868.065	-45.06
868.238	57.34
868.412	34.82
868.585	-12.29
868.759	14.34
868.932	-40.96
869.105	-14.34
869.279	-10.24
869.452	2.05
869.625	67.58
869.799	63.49
869.972	-45.06
870.145	61.44
870.319	59.39
870.492	2.05
870.665	4.1
870.838	38.91
871.011	6.14
871.185	-18.43
871.358	14.34
871.531	55.3
871.704	30.72
871.877	40.96
872.05	0
872.223	106.49
872.396	40.96
872.569	49.15
872.742	22.53
872.915	22.53
873.088	16.38
873.261	-22.53
873.434	20.48
873.607	16.38
873.78	2.05
873.953	4.1
874.126	18.43
874.299	8.19
874.471	26.62
874.644	71.68
874.817	12.29
874.99	38.91
875.163	-8.19
875.335	4.1
875.508	38.91
875.681	0
875.853	6.14
876.026	63.49
876.199	-45.06
876.371	14.34
876.544	69.63
876.717	55.3
876.889	38.91
877.062	90.11
877.234	6.14
877.407	34.82
877.579	2.05
877.752	-18.43
877.924	69.63
878.097	-8.19
878.269	34.82
878.442	67.58
878.614	4.1
878.786	-43.01
878.959	2.05
879.131	26.62
879.303	0
879.476	71.68
879.648	69.63
879.82	-12.29
879.993	45.06
880.165	-57.34
880.337	-12.29
880.509	43.01
880.681	20.48
880.854	-22.53
881.026	6.14
881.198	67.58
881.37	-32.77
881.542	-34.82
881.714	18.43
881.886	18.43
882.058	-28.67
882.23	-10.24
882.402	34.82
882.574	-2.05
882.746	26.62
882.918	2.05
883.09	-6.14
883.262	12.29
883.434	0
883.606	155.65
883.778	-16.38
883.95	12.29
884.122	57.34
884.293	116.73
884.465	0
884.637	10.24
884.809	59.39
884.98	75.77
885.152	20.48
885.324	-8.19
885.496	0
885.667	-18.43
885.839	-55.3
886.011	100.35
886.182	38.91
886.354	18.43
886.525	22.53
886.697	-4.1
886.869	38.91
887.04	0
887.212	6.14
887.383	71.68
887.555	18.43
887.726	53.25
887.897	14.34
888.069	96.25
888.24	8.19
888.412	51.2
888.583	-28.67
888.754	6.14
888.926	-14.34
889.097	0
889.268	67.58
889.44	45.06
889.611	-49.15
889.782	-10.24
889.953	-26.62
890.125	-6.14
890.296	18.43
890.467	-53.25
890.638	63.49
890.809	10.24
890.98	22.53
891.151	36.86
891.323	2.05
891.494	-47.1
891.665	71.68
891.836	-28.67
892.007	18.43
892.178	-2.05
892.349	-2.05
892.52	6.14
892.691	-20.48
892.862	28.67
893.032	-2.05
893.203	-8.19
893.374	53.25
893.545	24.58
893.716	18.43
893.887	8.19
894.057	61.44
894.228	-34.82
894.399	-63.49
894.57	49.15
894.74	55.3
894.911	65.54
895.082	30.72
895.253	12.29
895.423	-34.82
895.594	-30.72
895.764	-59.39
895.935	51.2
896.106	28.67
896.276	96.25
896.447	110.59
896.617	-8.19
896.788	-6.14
896.958	-34.82
897.129	36.86
897.299	24.58
897.47	-10.24
897.64	83.97
897.81	30.72
897.981	14.34
898.151	90.11
898.322	30.72
898.492	-61.44
898.662	47.1
898.832	16.38
899.003	59.39
899.173	-22.53
899.343	36.86
899.513	0
