Data from USB4F104151__34__12-53-40-265.txt Node

Date: Fri Mar 14 12:53:40 EDT 2025
User: louis
Spectrometer: USB4F10415
Trigger mode: 4
Integration Time (sec): 1.000000E-2
Scans to average: 1
Electric dark correction enabled: true
Nonlinearity correction enabled: false
Boxcar width: 0
XAxis mode: Wavelengths
Number of Pixels in Spectrum: 3648
>>>>>Begin Spectral Data<<<<<
178.204	-93.69
178.424	-93.69
178.644	-93.69
178.864	-17.92
179.084	31.23
179.304	43.52
179.524	51.71
179.744	-30.21
179.964	23.04
180.184	0.51
180.404	10.75
180.624	-36.35
180.844	-38.4
181.064	-1.54
181.283	6.66
181.503	-48.64
181.723	18.94
181.943	-7.68
182.163	59.9
182.383	35.33
182.602	-3.58
182.822	37.38
183.042	18.94
183.262	-1.54
183.482	-5.63
183.701	-19.97
183.921	-15.87
184.141	29.18
184.361	27.14
184.58	-54.78
184.8	-26.11
185.02	37.38
185.239	8.7
185.459	23.04
185.679	51.71
185.898	-9.73
186.118	23.04
186.338	18.94
186.557	31.23
186.777	53.76
186.997	51.71
187.216	18.94
187.436	23.04
187.655	47.62
187.875	45.57
188.095	4.61
188.314	41.47
188.534	-26.11
188.753	16.9
188.973	20.99
189.192	70.14
189.412	-34.3
189.631	10.75
189.851	4.61
190.07	115.2
190.29	129.53
190.509	47.62
190.729	74.24
190.948	2.56
191.168	109.05
191.387	-5.63
191.607	-7.68
191.826	76.29
192.045	-56.83
192.265	-60.93
192.484	64
192.704	-17.92
192.923	45.57
193.142	47.62
193.362	66.05
193.581	-52.74
193.8	66.05
194.02	23.04
194.239	-24.06
194.458	-3.58
194.678	12.8
194.897	53.76
195.116	37.38
195.335	88.57
195.555	35.33
195.774	8.7
195.993	-34.3
196.212	39.42
196.432	31.23
196.651	18.94
196.87	23.04
197.089	68.09
197.308	12.8
197.528	18.94
197.747	10.75
197.966	23.04
198.185	102.91
198.404	31.23
198.623	45.57
198.842	72.19
199.062	61.95
199.281	68.09
199.5	29.18
199.719	2.56
199.938	102.91
200.157	68.09
200.376	31.23
200.595	80.38
200.814	37.38
201.033	4.61
201.252	4.61
201.471	35.33
201.69	88.57
201.909	84.48
202.128	-1.54
202.347	10.75
202.566	12.8
202.785	55.81
203.004	59.9
203.223	64
203.442	18.94
203.661	-5.63
203.879	53.76
204.098	4.61
204.317	27.14
204.536	-15.87
204.755	-7.68
204.974	27.14
205.193	39.42
205.411	113.15
205.63	68.09
205.849	102.91
206.068	64
206.287	27.14
206.505	59.9
206.724	-83.45
206.943	-50.69
207.162	66.05
207.381	55.81
207.599	47.62
207.818	29.18
208.037	102.91
208.255	0.51
208.474	18.94
208.693	92.67
208.911	74.24
209.13	59.9
209.349	86.53
209.567	76.29
209.786	113.15
210.005	-34.3
210.223	-38.4
210.442	70.14
210.661	53.76
210.879	29.18
211.098	16.9
211.316	66.05
211.535	53.76
211.753	-11.78
211.972	41.47
212.191	49.66
212.409	6.66
212.628	-28.16
212.846	2.56
213.065	66.05
213.283	23.04
213.502	-1.54
213.72	4.61
213.938	39.42
214.157	-5.63
214.375	41.47
214.594	14.85
214.812	39.42
215.031	-1.54
215.249	43.52
215.467	70.14
215.686	4.61
215.904	29.18
216.122	41.47
216.341	20.99
216.559	51.71
216.778	-3.58
216.996	6.66
217.214	-22.02
217.432	59.9
217.651	-3.58
217.869	45.57
218.087	23.04
218.306	53.76
218.524	14.85
218.742	20.99
218.96	49.66
219.179	66.05
219.397	53.76
219.615	55.81
219.833	33.28
220.051	27.14
220.27	-36.35
220.488	115.2
220.706	49.66
220.924	102.91
221.142	12.8
221.36	14.85
221.578	12.8
221.796	68.09
222.015	-24.06
222.233	14.85
222.451	43.52
222.669	4.61
222.887	45.57
223.105	10.75
223.323	43.52
223.541	20.99
223.759	33.28
223.977	94.72
224.195	51.71
224.413	-13.82
224.631	29.18
224.849	33.28
225.067	33.28
225.285	-22.02
225.503	51.71
225.721	-11.78
225.939	72.19
226.157	2.56
226.375	47.62
226.592	55.81
226.81	18.94
227.028	98.81
227.246	33.28
227.464	-13.82
227.682	109.05
227.9	53.76
228.117	-22.02
228.335	-17.92
228.553	-5.63
228.771	33.28
228.989	94.72
229.206	-3.58
229.424	25.09
229.642	-19.97
229.86	35.33
230.077	74.24
230.295	-42.5
230.513	55.81
230.731	92.67
230.948	33.28
231.166	16.9
231.384	61.95
231.601	57.86
231.819	43.52
232.037	39.42
232.254	84.48
232.472	35.33
232.689	-46.59
232.907	8.7
233.125	55.81
233.342	-11.78
233.56	43.52
233.777	86.53
233.995	-38.4
234.213	57.86
234.43	18.94
234.648	72.19
234.865	37.38
235.083	88.57
235.3	64
235.518	10.75
235.735	12.8
235.953	61.95
236.17	-1.54
236.388	59.9
236.605	16.9
236.822	117.25
237.04	55.81
237.257	29.18
237.475	-7.68
237.692	49.66
237.909	37.38
238.127	10.75
238.344	4.61
238.562	49.66
238.779	41.47
238.996	61.95
239.214	45.57
239.431	29.18
239.648	70.14
239.865	45.57
240.083	68.09
240.3	-3.58
240.517	20.99
240.735	-1.54
240.952	123.39
241.169	47.62
241.386	31.23
241.603	27.14
241.821	33.28
242.038	82.43
242.255	68.09
242.472	18.94
242.689	51.71
242.907	35.33
243.124	23.04
243.341	43.52
243.558	-5.63
243.775	57.86
243.992	-15.87
244.209	86.53
244.426	57.86
244.643	39.42
244.86	-5.63
245.078	37.38
245.295	-11.78
245.512	70.14
245.729	37.38
245.946	25.09
246.163	35.33
246.38	100.86
246.597	33.28
246.814	55.81
247.031	107.01
247.248	4.61
247.464	39.42
247.681	16.9
247.898	84.48
248.115	47.62
248.332	98.81
248.549	100.86
248.766	2.56
248.983	72.19
249.2	51.71
249.417	35.33
249.633	80.38
249.85	109.05
250.067	-56.83
250.284	27.14
250.501	64
250.717	90.62
250.934	66.05
251.151	57.86
251.368	45.57
251.585	10.75
251.801	12.8
252.018	68.09
252.235	55.81
252.451	51.71
252.668	14.85
252.885	53.76
253.102	66.05
253.318	10.75
253.535	14.85
253.752	27.14
253.968	41.47
254.185	-38.4
254.401	10.75
254.618	35.33
254.835	35.33
255.051	18.94
255.268	68.09
255.484	35.33
255.701	-19.97
255.917	10.75
256.134	4.61
256.351	61.95
256.567	39.42
256.784	39.42
257	-19.97
257.217	20.99
257.433	25.09
257.65	41.47
257.866	55.81
258.082	-9.73
258.299	82.43
258.515	-28.16
258.732	35.33
258.948	35.33
259.165	39.42
259.381	61.95
259.597	35.33
259.814	14.85
260.03	0.51
260.246	74.24
260.463	76.29
260.679	98.81
260.895	102.91
261.112	88.57
261.328	68.09
261.544	47.62
261.761	41.47
261.977	10.75
262.193	14.85
262.409	2.56
262.626	14.85
262.842	133.63
263.058	39.42
263.274	70.14
263.49	41.47
263.707	2.56
263.923	76.29
264.139	8.7
264.355	37.38
264.571	53.76
264.787	104.96
265.004	25.09
265.22	51.71
265.436	59.9
265.652	27.14
265.868	-19.97
266.084	23.04
266.3	-30.21
266.516	43.52
266.732	-3.58
266.948	33.28
267.164	66.05
267.38	-9.73
267.596	-22.02
267.812	43.52
268.028	-15.87
268.244	51.71
268.46	37.38
268.676	-30.21
268.892	53.76
269.108	12.8
269.324	84.48
269.54	29.18
269.756	27.14
269.972	-11.78
270.188	74.24
270.403	39.42
270.619	23.04
270.835	25.09
271.051	-30.21
271.267	90.62
271.483	61.95
271.698	14.85
271.914	80.38
272.13	70.14
272.346	20.99
272.562	-7.68
272.777	74.24
272.993	41.47
273.209	18.94
273.425	78.33
273.64	8.7
273.856	86.53
274.072	47.62
274.287	37.38
274.503	86.53
274.719	-24.06
274.934	31.23
275.15	-5.63
275.366	82.43
275.581	-11.78
275.797	27.14
276.012	0.51
276.228	129.53
276.444	35.33
276.659	53.76
276.875	33.28
277.09	96.77
277.306	-1.54
277.521	133.63
277.737	-5.63
277.952	72.19
278.168	-26.11
278.383	76.29
278.599	-9.73
278.814	53.76
279.03	-17.92
279.245	31.23
279.461	49.66
279.676	-58.88
279.892	-32.26
280.107	20.99
280.322	-19.97
280.538	64
280.753	12.8
280.969	-85.5
281.184	115.2
281.399	80.38
281.615	127.49
281.83	-19.97
282.045	27.14
282.26	53.76
282.476	14.85
282.691	70.14
282.906	104.96
283.122	-28.16
283.337	-32.26
283.552	43.52
283.767	16.9
283.983	107.01
284.198	6.66
284.413	82.43
284.628	68.09
284.843	14.85
285.058	33.28
285.274	100.86
285.489	8.7
285.704	6.66
285.919	92.67
286.134	6.66
286.349	-11.78
286.564	64
286.779	51.71
286.995	86.53
287.21	47.62
287.425	47.62
287.64	82.43
287.855	76.29
288.07	20.99
288.285	80.38
288.5	72.19
288.715	59.9
288.93	35.33
289.145	59.9
289.36	57.86
289.575	-11.78
289.79	53.76
290.004	29.18
290.219	20.99
290.434	53.76
290.649	18.94
290.864	61.95
291.079	-1.54
291.294	10.75
291.509	33.28
291.724	80.38
291.938	20.99
292.153	68.09
292.368	25.09
292.583	102.91
292.798	-28.16
293.012	-30.21
293.227	84.48
293.442	64
293.657	14.85
293.871	-30.21
294.086	90.62
294.301	53.76
294.516	45.57
294.73	74.24
294.945	25.09
295.16	-22.02
295.374	94.72
295.589	70.14
295.804	-32.26
296.018	-44.54
296.233	25.09
296.447	27.14
296.662	10.75
296.877	162.3
297.091	47.62
297.306	57.86
297.52	102.91
297.735	115.2
297.949	25.09
298.164	29.18
298.378	37.38
298.593	-28.16
298.807	23.04
299.022	45.57
299.236	76.29
299.451	66.05
299.665	0.51
299.88	14.85
300.094	53.76
300.309	6.66
300.523	70.14
300.737	59.9
300.952	86.53
301.166	96.77
301.381	-30.21
301.595	35.33
301.809	-7.68
302.024	92.67
302.238	-1.54
302.452	53.76
302.667	-15.87
302.881	180.73
303.095	86.53
303.309	45.57
303.524	20.99
303.738	47.62
303.952	-19.97
304.166	72.19
304.381	64
304.595	66.05
304.809	14.85
305.023	29.18
305.237	41.47
305.452	29.18
305.666	41.47
305.88	70.14
306.094	98.81
306.308	23.04
306.522	23.04
306.736	35.33
306.95	86.53
307.164	20.99
307.379	8.7
307.593	51.71
307.807	43.52
308.021	59.9
308.235	33.28
308.449	27.14
308.663	92.67
308.877	80.38
309.091	18.94
309.305	61.95
309.519	37.38
309.733	27.14
309.947	-15.87
310.161	51.71
310.374	33.28
310.588	-3.58
310.802	27.14
311.016	-13.82
311.23	-30.21
311.444	23.04
311.658	53.76
311.872	111.1
312.085	82.43
312.299	25.09
312.513	82.43
312.727	-3.58
312.941	55.81
313.154	137.73
313.368	96.77
313.582	33.28
313.796	100.86
314.009	90.62
314.223	68.09
314.437	-17.92
314.651	-30.21
314.864	31.23
315.078	-1.54
315.292	78.33
315.505	70.14
315.719	-3.58
315.933	51.71
316.146	10.75
316.36	31.23
316.573	14.85
316.787	45.57
317.001	59.9
317.214	33.28
317.428	8.7
317.641	49.66
317.855	57.86
318.068	18.94
318.282	6.66
318.495	59.9
318.709	12.8
318.922	-36.35
319.136	139.77
319.349	78.33
319.563	-60.93
319.776	41.47
319.99	2.56
320.203	-17.92
320.417	45.57
320.63	123.39
320.843	113.15
321.057	6.66
321.27	14.85
321.483	37.38
321.697	18.94
321.91	-52.74
322.124	51.71
322.337	49.66
322.55	20.99
322.763	98.81
322.977	51.71
323.19	6.66
323.403	92.67
323.617	25.09
323.83	125.44
324.043	64
324.256	-17.92
324.469	-22.02
324.683	64
324.896	6.66
325.109	33.28
325.322	12.8
325.535	27.14
325.748	35.33
325.962	25.09
326.175	31.23
326.388	23.04
326.601	152.06
326.814	49.66
327.027	16.9
327.24	92.67
327.453	14.85
327.666	76.29
327.879	-17.92
328.092	92.67
328.305	72.19
328.518	47.62
328.731	-22.02
328.944	66.05
329.157	-13.82
329.37	-13.82
329.583	4.61
329.796	129.53
330.009	90.62
330.222	2.56
330.435	25.09
330.648	4.61
330.861	16.9
331.073	16.9
331.286	53.76
331.499	43.52
331.712	64
331.925	53.76
332.138	117.25
332.35	31.23
332.563	43.52
332.776	92.67
332.989	20.99
333.202	102.91
333.414	-17.92
333.627	61.95
333.84	6.66
334.053	29.18
334.265	51.71
334.478	33.28
334.691	49.66
334.903	61.95
335.116	-5.63
335.329	57.86
335.541	39.42
335.754	10.75
335.966	8.7
336.179	-3.58
336.392	98.81
336.604	55.81
336.817	41.47
337.029	100.86
337.242	31.23
337.454	123.39
337.667	-1.54
337.88	35.33
338.092	111.1
338.305	55.81
338.517	27.14
338.729	53.76
338.942	14.85
339.154	39.42
339.367	64
339.579	39.42
339.792	25.09
340.004	70.14
340.217	47.62
340.429	31.23
340.641	90.62
340.854	10.75
341.066	31.23
341.278	119.29
341.491	57.86
341.703	10.75
341.915	-7.68
342.128	86.53
342.34	70.14
342.552	35.33
342.764	25.09
342.977	88.57
343.189	74.24
343.401	125.44
343.613	78.33
343.826	20.99
344.038	57.86
344.25	45.57
344.462	49.66
344.674	115.2
344.886	29.18
345.099	27.14
345.311	107.01
345.523	-3.58
345.735	18.94
345.947	127.49
346.159	-9.73
346.371	37.38
346.583	14.85
346.795	102.91
347.007	47.62
347.219	25.09
347.431	53.76
347.643	41.47
347.855	18.94
348.067	76.29
348.279	18.94
348.491	100.86
348.703	94.72
348.915	10.75
349.127	102.91
349.339	78.33
349.551	35.33
349.763	82.43
349.975	29.18
350.187	43.52
350.399	49.66
350.61	49.66
350.822	31.23
351.034	37.38
351.246	-9.73
351.458	20.99
351.669	72.19
351.881	-32.26
352.093	55.81
352.305	18.94
352.517	68.09
352.728	92.67
352.94	51.71
353.152	111.1
353.363	59.9
353.575	84.48
353.787	12.8
353.999	72.19
354.21	84.48
354.422	27.14
354.633	18.94
354.845	37.38
355.057	33.28
355.268	78.33
355.48	66.05
355.692	-7.68
355.903	64
356.115	37.38
356.326	27.14
356.538	88.57
356.749	115.2
356.961	47.62
357.172	53.76
357.384	72.19
357.595	12.8
357.807	168.45
358.018	-28.16
358.23	68.09
358.441	147.97
358.653	10.75
358.864	59.9
359.075	35.33
359.287	29.18
359.498	70.14
359.709	133.63
359.921	55.81
360.132	57.86
360.344	123.39
360.555	-1.54
360.766	23.04
360.977	72.19
361.189	141.82
361.4	27.14
361.611	102.91
361.823	66.05
362.034	41.47
362.245	-13.82
362.456	84.48
362.667	66.05
362.879	-24.06
363.09	29.18
363.301	72.19
363.512	25.09
363.723	61.95
363.935	-7.68
364.146	53.76
364.357	4.61
364.568	80.38
364.779	68.09
364.99	39.42
365.201	41.47
365.412	25.09
365.623	-30.21
365.834	27.14
366.045	43.52
366.256	53.76
366.467	23.04
366.678	12.8
366.889	2.56
367.1	51.71
367.311	94.72
367.522	59.9
367.733	51.71
367.944	47.62
368.155	90.62
368.366	37.38
368.577	76.29
368.788	-5.63
368.999	-13.82
369.209	55.81
369.42	27.14
369.631	55.81
369.842	-36.35
370.053	135.68
370.264	94.72
370.474	-5.63
370.685	59.9
370.896	47.62
371.107	31.23
371.317	127.49
371.528	37.38
371.739	33.28
371.95	-65.02
372.16	12.8
372.371	121.34
372.582	72.19
372.792	-3.58
373.003	39.42
373.214	8.7
373.424	53.76
373.635	53.76
373.846	119.29
374.056	80.38
374.267	16.9
374.477	94.72
374.688	33.28
374.898	35.33
375.109	111.1
375.319	37.38
375.53	102.91
375.74	2.56
375.951	37.38
376.161	14.85
376.372	66.05
376.582	12.8
376.793	23.04
377.003	-9.73
377.214	6.66
377.424	23.04
377.635	88.57
377.845	-44.54
378.055	68.09
378.266	51.71
378.476	-9.73
378.686	-42.5
378.897	16.9
379.107	111.1
379.317	37.38
379.528	37.38
379.738	29.18
379.948	43.52
380.158	78.33
380.369	109.05
380.579	47.62
380.789	64
380.999	53.76
381.21	25.09
381.42	111.1
381.63	86.53
381.84	64
382.05	-9.73
382.261	57.86
382.471	53.76
382.681	51.71
382.891	90.62
383.101	64
383.311	2.56
383.521	59.9
383.731	76.29
383.941	100.86
384.151	33.28
384.361	70.14
384.571	35.33
384.781	10.75
384.991	74.24
385.201	35.33
385.411	49.66
385.621	76.29
385.831	90.62
386.041	59.9
386.251	129.53
386.461	68.09
386.671	0.51
386.881	88.57
387.091	6.66
387.301	90.62
387.511	49.66
387.72	117.25
387.93	59.9
388.14	74.24
388.35	27.14
388.56	80.38
388.769	68.09
388.979	102.91
389.189	57.86
389.399	84.48
389.609	82.43
389.818	113.15
390.028	78.33
390.238	78.33
390.447	41.47
390.657	31.23
390.867	66.05
391.076	121.34
391.286	20.99
391.496	57.86
391.705	43.52
391.915	53.76
392.125	90.62
392.334	94.72
392.544	35.33
392.753	45.57
392.963	45.57
393.172	20.99
393.382	14.85
393.591	43.52
393.801	2.56
394.01	84.48
394.22	64
394.429	86.53
394.639	37.38
394.848	125.44
395.058	92.67
395.267	68.09
395.477	-32.26
395.686	86.53
395.895	16.9
396.105	113.15
396.314	80.38
396.524	117.25
396.733	64
396.942	123.39
397.152	61.95
397.361	29.18
397.57	64
397.78	129.53
397.989	80.38
398.198	35.33
398.407	76.29
398.617	53.76
398.826	-32.26
399.035	98.81
399.244	76.29
399.453	119.29
399.663	66.05
399.872	111.1
400.081	86.53
400.29	86.53
400.499	129.53
400.708	107.01
400.917	90.62
401.127	141.82
401.336	88.57
401.545	80.38
401.754	41.47
401.963	68.09
402.172	166.4
402.381	-17.92
402.59	68.09
402.799	43.52
403.008	78.33
403.217	117.25
403.426	107.01
403.635	150.01
403.844	109.05
404.053	80.38
404.262	121.34
404.471	96.77
404.68	133.63
404.888	78.33
405.097	78.33
405.306	94.72
405.515	86.53
405.724	8.7
405.933	94.72
406.142	129.53
406.35	139.77
406.559	150.01
406.768	76.29
406.977	123.39
407.185	123.39
407.394	147.97
407.603	111.1
407.812	84.48
408.02	184.83
408.229	184.83
408.438	121.34
408.646	166.4
408.855	207.36
409.064	152.06
409.272	143.87
409.481	195.07
409.69	205.31
409.898	131.58
410.107	121.34
410.315	158.21
410.524	121.34
410.733	213.5
410.941	170.49
411.15	227.84
411.358	188.93
411.567	213.5
411.775	182.78
411.984	172.54
412.192	264.7
412.401	205.31
412.609	287.23
412.818	246.27
413.026	229.88
413.234	350.71
413.443	291.32
413.651	276.99
413.86	291.32
414.068	360.95
414.276	365.05
414.485	254.46
414.693	334.33
414.901	381.43
415.11	383.48
415.318	377.34
415.526	315.9
415.734	348.67
415.943	412.15
416.151	453.11
416.359	408.06
416.567	463.35
416.776	479.74
416.984	434.68
417.192	475.64
417.4	567.8
417.608	494.07
417.817	588.28
418.025	516.6
418.233	612.85
418.441	571.9
418.649	621.05
418.857	588.28
419.065	659.96
419.273	580.09
419.481	643.57
419.689	733.68
419.897	803.32
420.105	766.45
420.313	715.25
420.521	813.56
420.729	862.71
420.937	827.89
421.145	858.61
421.353	936.43
421.561	1018.35
421.769	870.9
421.977	1004.02
422.185	950.77
422.393	1034.74
422.601	1192.43
422.809	1083.89
423.017	1102.32
423.224	1272.3
423.432	1247.72
423.64	1219.05
423.848	1354.22
424.056	1257.96
424.263	1452.52
424.471	1360.36
424.679	1384.94
424.887	1477.1
425.094	1538.54
425.302	1534.44
425.51	1642.98
425.718	1634.79
425.925	1661.41
426.133	1694.18
426.341	1851.88
426.548	1970.66
426.756	1923.55
426.964	1931.75
427.171	1948.13
427.379	2120.16
427.586	1991.14
427.794	2189.79
428.001	2281.95
428.209	2380.25
428.417	2286.05
428.624	2597.34
428.832	2443.74
429.039	2587.1
429.247	2568.66
429.454	2656.73
429.662	2879.96
429.869	2738.65
430.076	2886.1
430.284	2836.95
430.491	2953.68
430.699	2992.59
430.906	3191.25
431.114	3072.47
431.321	3156.43
431.528	3314.13
431.736	3590.6
431.943	3705.29
432.15	3574.22
432.358	3660.23
432.565	3928.52
432.772	3951.04
432.979	4123.07
433.187	4157.89
433.394	4118.98
433.601	4313.53
433.808	4520.38
434.016	4381.12
434.223	4424.12
434.43	4843.96
434.637	4858.29
434.844	5132.72
435.052	5206.45
435.259	5165.49
435.466	5136.82
435.673	5167.54
435.88	5552.56
436.087	5892.52
436.294	5775.78
436.501	5554.6
436.708	5843.37
436.915	6039.97
437.122	6285.73
437.329	6183.33
437.537	6410.65
437.743	6547.87
437.95	6502.81
438.157	6822.3
438.364	7020.95
438.571	7072.15
438.778	7227.79
438.985	7772.55
439.192	7471.5
439.399	7764.36
439.606	7565.71
439.813	7778.7
440.02	8374.66
440.227	8518.01
440.433	8120.71
440.64	8462.72
440.847	8386.94
441.054	8728.95
441.261	9345.39
441.467	9101.69
441.674	9228.66
441.881	9754.99
442.088	9548.14
442.294	9347.44
442.501	9871.72
442.708	10107.24
442.914	10563.93
443.121	10860.89
443.328	10387.81
443.534	11252.05
443.741	10959.19
443.948	10709.34
444.154	11675.98
444.361	11524.43
444.568	11471.18
444.774	11635.02
444.981	11723.09
445.187	12202.31
445.394	12656.96
445.6	12634.43
445.807	13746.48
446.013	12986.68
446.22	13416.76
446.426	13666.61
446.633	13900.08
446.839	14600.48
447.046	13992.23
447.252	14596.39
447.459	14659.87
447.665	14672.16
447.871	15243.54
448.078	16087.31
448.284	15302.93
448.491	15743.25
448.697	16261.38
448.903	16644.35
449.11	16611.59
449.316	16271.62
449.522	16869.63
449.728	17068.28
449.935	17279.22
450.141	17316.09
450.347	17854.7
450.553	17209.59
450.76	17510.64
450.966	18309.35
451.172	17576.18
451.378	18313.45
451.584	17893.61
451.791	18188.52
451.997	18106.6
452.203	18731.23
452.409	18690.27
452.615	18491.62
452.821	17832.18
453.027	17422.58
453.233	18510.05
453.44	17977.58
453.646	18127.08
453.852	18110.7
454.058	18419.94
454.264	17854.7
454.47	18215.15
454.676	17582.32
454.882	18356.46
455.088	16716.03
455.294	16955.65
455.5	17277.18
455.705	17412.34
455.911	16742.66
456.117	16640.26
456.323	16212.23
456.529	15632.66
456.735	15976.72
456.941	15722.77
457.147	15337.75
457.352	14960.92
457.558	14934.3
457.764	14911.77
457.97	14678.3
458.176	14278.95
458.381	14168.36
458.587	13527.35
458.793	13521.2
458.999	12960.06
459.204	13740.33
459.41	13187.38
459.616	12622.14
459.821	12646.72
460.027	12546.37
460.233	12224.84
460.438	11557.2
460.644	11991.37
460.85	11151.7
461.055	11053.4
461.261	10957.14
461.466	10203.49
461.672	9974.12
461.878	10690.91
462.083	9877.87
462.289	10021.22
462.494	9630.06
462.7	9320.82
462.905	9021.81
463.111	9210.23
463.316	9365.87
463.522	9179.51
463.727	9093.49
463.932	9068.92
464.138	8907.13
464.343	9267.57
464.549	8948.09
464.754	9288.05
464.959	9032.05
465.165	9058.68
465.37	8843.64
465.575	8501.63
465.781	8812.92
465.986	8946.04
466.191	8558.97
466.397	8350.08
466.602	8036.74
466.807	8436.1
467.012	8276.35
467.218	8391.04
467.423	8149.38
467.628	8337.79
467.833	8659.32
468.038	8405.38
468.244	8067.46
468.449	8204.67
468.654	8198.53
468.859	8032.65
469.064	7905.67
469.269	7711.11
469.474	7797.13
469.679	7942.53
469.885	7616.91
470.09	7723.4
470.295	8012.17
470.5	7537.04
470.705	7698.83
470.91	7465.36
471.115	7401.87
471.32	7528.85
471.525	7522.7
471.73	7190.93
471.935	7262.61
472.139	6924.69
472.344	7176.59
472.549	6994.33
472.754	6934.93
472.959	6867.35
473.164	6607.26
473.369	6459.81
473.574	6773.14
473.778	6803.86
473.983	6842.78
474.188	6693.27
474.393	6330.78
474.598	6283.68
474.802	6418.85
475.007	6267.3
475.212	6197.67
475.417	6089.12
475.621	6009.25
475.826	6132.13
476.031	5777.83
476.235	5710.25
476.44	5915.05
476.645	5790.12
476.849	5769.64
477.054	5783.98
477.259	5607.85
477.463	5530.03
477.668	5493.16
477.872	5566.89
478.077	5564.84
478.282	5286.32
478.486	5378.48
478.691	5202.35
478.895	5296.56
479.1	5239.22
479.304	5278.13
479.509	5263.79
479.713	5081.52
479.918	5067.19
480.122	5071.28
480.326	5153.2
480.531	5015.99
480.735	4829.62
480.94	4999.6
481.144	5124.53
481.348	4925.88
481.553	4872.63
481.757	4925.88
481.961	4786.61
482.166	4819.38
482.37	4956.6
482.574	4897.21
482.778	4839.86
482.983	4921.78
483.187	4839.86
483.391	4786.61
483.595	4852.15
483.8	4759.99
484.004	4911.54
484.208	4919.73
484.412	4743.61
484.616	4919.73
484.821	4944.31
485.025	4852.15
485.229	4942.26
485.433	4829.62
485.637	4841.91
485.841	4858.29
486.045	4907.45
486.249	4874.68
486.453	4946.36
486.657	4975.03
486.861	4796.85
487.065	4794.81
487.269	4942.26
487.473	4929.97
487.677	4913.59
487.881	5063.09
488.085	4934.07
488.289	4817.33
488.493	4938.16
488.697	4927.92
488.901	4979.12
489.105	4932.02
489.309	5003.7
489.512	5036.47
489.716	5081.52
489.92	5073.33
490.124	4983.22
490.328	5216.69
490.531	5163.44
490.735	4981.17
490.939	5192.11
491.143	5210.54
491.346	4975.03
491.55	5208.5
491.754	5261.74
491.958	5276.08
492.161	5157.3
492.365	5335.47
492.569	5259.7
492.772	5355.95
492.976	5423.53
493.18	5419.44
493.383	5579.18
493.587	5544.36
493.79	5482.92
493.994	5640.62
494.197	5507.5
494.401	5669.29
494.605	5757.35
494.808	5657
495.012	5657
495.215	5775.78
495.419	5820.84
495.622	5814.7
495.825	6113.7
496.029	6015.4
496.232	6154.66
496.436	6017.44
496.639	6457.76
496.843	6326.69
497.046	6629.79
497.249	6513.05
497.453	6535.58
497.656	6855.06
497.859	6625.69
498.063	6748.57
498.266	6820.25
498.469	6820.25
498.673	6967.7
498.876	7152.02
499.079	6990.23
499.282	7098.77
499.485	7254.42
499.689	7551.37
499.892	7375.25
500.095	7557.52
500.298	7797.13
500.501	7772.55
500.705	7911.82
500.908	7963.01
501.111	8055.17
501.314	8227.2
501.517	8452.48
501.72	8456.57
501.923	8481.15
502.126	8681.85
502.329	8771.96
502.532	9136.5
502.735	9183.6
502.938	9212.28
503.141	9193.84
503.344	9488.75
503.547	9568.62
503.75	9566.57
503.953	9869.67
504.156	9838.95
504.359	9857.39
504.562	10191.2
504.765	10305.89
504.968	10525.02
505.17	10695
505.373	10957.14
505.576	10705.24
505.779	11125.08
505.982	11120.98
506.185	11350.35
506.387	11409.75
506.59	11751.76
506.793	11848.01
506.996	11731.28
507.198	12302.66
507.401	12087.62
507.604	12357.96
507.807	12540.22
508.009	12689.73
508.212	13068.6
508.415	13046.07
508.617	13148.47
508.82	13367.6
509.022	13347.12
509.225	13766.96
509.428	13848.88
509.63	14027.05
509.833	14131.5
510.035	14547.23
510.238	14450.98
510.44	14625.06
510.643	15042.84
510.845	15198.49
511.048	15417.62
511.25	15567.12
511.453	15626.51
511.655	16275.72
511.858	16013.58
512.06	16109.83
512.262	16265.48
512.465	16447.75
512.667	16836.86
512.87	16931.07
513.072	17180.92
513.274	17219.83
513.477	17701.11
513.679	17916.14
513.881	17959.15
514.084	18088.17
514.286	18417.89
514.488	18393.32
514.69	19067.1
514.893	19060.96
515.095	19161.31
515.297	19531.99
515.499	19591.38
515.701	19652.82
515.904	19931.34
516.106	20281.55
516.308	20365.51
516.51	20793.54
516.712	20805.83
516.914	20822.21
517.116	21629.11
517.318	21653.69
517.52	21919.92
517.722	22022.32
517.925	22059.18
518.127	22497.45
518.329	22452.39
518.531	22679.72
518.733	22974.63
518.935	23253.15
519.136	23398.55
519.338	23720.09
519.54	23648.41
519.742	24060.05
519.944	24176.78
520.146	24719.49
520.348	24758.41
520.55	24991.87
520.752	24912
520.954	25712.76
521.155	25405.56
521.357	26024.05
521.559	25876.6
521.761	26429.55
521.963	26534
522.164	26493.04
522.366	26587.24
522.568	27127.91
522.77	26986.6
522.971	27617.37
523.173	27168.87
523.375	27633.75
523.576	28188.75
523.778	27789.4
523.98	28399.69
524.181	28678.22
524.383	28524.62
524.584	28917.83
524.786	29167.68
524.988	29169.73
525.189	29632.57
525.391	29384.77
525.592	29691.96
525.794	29968.44
525.995	29917.24
526.197	29986.87
526.398	30003.25
526.6	30552.11
526.801	30369.84
527.003	30697.52
527.204	30576.69
527.406	31322.15
527.607	31096.87
527.808	31053.86
528.01	30761
528.211	31148.07
528.412	31842.33
528.614	31594.53
528.815	31434.78
529.016	31756.32
529.218	31907.87
529.419	31627.29
529.62	32010.26
529.822	31987.74
530.023	32172.05
530.224	32229.4
530.425	32167.96
530.626	31938.58
530.828	32038.94
531.029	32819.21
531.23	32237.59
531.431	32638.99
531.632	32653.33
531.833	33048.58
532.035	32720.91
532.236	32755.72
532.437	33210.37
532.638	32600.08
532.839	32899.08
533.04	33150.98
533.241	32727.05
533.442	33888.25
533.643	33189.89
533.844	33048.58
534.045	33533.95
534.246	33085.45
534.447	33761.28
534.648	33470.47
534.849	33468.42
535.05	33681.41
535.251	33775.61
535.451	33433.6
535.652	33677.31
535.853	33593.34
536.054	33896.44
536.255	33824.76
536.456	33509.38
536.657	34344.95
536.857	33497.09
537.058	33642.49
537.259	33959.93
537.46	34064.38
537.66	33941.5
537.861	33843.2
538.062	34107.38
538.263	33968.12
538.463	33851.39
538.664	33683.45
538.865	34070.52
539.065	34631.66
539.266	33869.82
539.466	34684.91
539.667	33679.36
539.868	34594.8
540.068	34297.84
540.269	33933.31
540.469	34543.6
540.67	33882.11
540.87	34533.36
541.071	34414.58
541.271	34394.1
541.472	34611.18
541.672	34420.72
541.873	34478.07
542.073	33755.13
542.274	34193.4
542.474	34236.41
542.675	34162.68
542.875	34752.49
543.075	34721.77
543.276	34117.62
543.476	34598.9
543.676	34615.28
543.877	34643.95
544.077	34850.8
544.277	34588.66
544.478	34658.29
544.678	34756.59
544.878	34215.93
545.078	34512.88
545.279	34373.62
545.479	34463.73
545.679	35157.99
545.879	34754.54
546.079	34303.99
546.28	34586.61
546.48	34482.16
546.68	34662.38
546.88	34760.69
547.08	34801.64
547.28	34514.93
547.48	34232.31
547.68	34473.97
547.88	34332.66
548.081	35020.78
548.281	34772.97
548.481	34807.79
548.681	34623.47
548.881	34684.91
549.081	34910.19
549.28	34721.77
549.48	34805.74
549.68	34697.2
549.88	34834.41
550.08	34430.96
550.28	34539.5
550.48	34818.03
550.68	34836.46
550.88	34379.76
551.08	34924.52
551.279	34830.32
551.479	34613.23
551.679	34705.39
551.879	34619.38
552.079	35221.48
552.278	34326.52
552.478	34928.62
552.678	34781.17
552.878	35014.63
553.077	34508.79
553.277	34686.96
553.477	34918.38
553.676	34918.38
553.876	34803.69
554.076	34316.28
554.275	34383.86
554.475	34160.63
554.674	34879.47
554.874	34637.81
555.074	34605.04
555.273	34547.7
555.473	34955.24
555.672	34553.84
555.872	34701.29
556.071	34588.66
556.271	34676.72
556.47	34545.65
556.67	34004.99
556.869	34508.79
557.068	34486.26
557.268	34437.11
557.467	34361.33
557.667	34506.74
557.866	34764.78
558.065	34369.52
558.265	34447.35
558.464	34293.75
558.663	34525.17
558.863	33951.74
559.062	34902
559.261	33888.25
559.461	34482.16
559.66	33847.29
559.859	34256.89
560.058	33738.75
560.258	34441.2
560.457	33755.13
560.656	34312.18
560.855	34004.99
561.054	34086.9
561.253	33875.96
561.453	33970.17
561.652	34162.68
561.851	34189.3
562.05	33968.12
562.249	33732.61
562.448	33783.8
562.647	33853.44
562.846	33757.18
563.045	33863.68
563.244	33466.37
563.443	34361.33
563.642	33720.32
563.841	33949.69
564.04	33490.94
564.239	34136.06
564.438	33425.41
564.637	33640.45
564.836	33652.73
565.035	33603.58
565.234	33714.17
565.432	33744.89
565.631	33679.36
565.83	33374.21
566.029	33230.85
566.228	33411.07
566.427	33378.31
566.625	33275.91
566.824	33077.26
567.023	33306.63
567.222	32686.09
567.42	33677.31
567.619	32864.27
567.818	32952.33
568.016	32874.51
568.215	33378.31
568.414	33126.41
568.612	33437.7
568.811	33071.11
569.01	32765.96
569.208	32606.22
569.407	32999.43
569.605	32663.57
569.804	32999.43
570.002	32655.37
570.201	33091.59
570.4	32475.15
570.598	32456.72
570.797	32137.24
570.995	32473.1
571.193	32022.55
571.392	32411.67
571.59	32270.36
571.789	31975.45
571.987	31885.34
572.186	32272.4
572.384	31983.64
572.582	32045.08
572.781	31973.4
572.979	31766.56
573.177	31852.57
573.376	32098.33
573.574	31719.45
573.772	31985.69
573.971	31367.2
574.169	31406.11
574.367	31408.16
574.565	31651.87
574.763	31436.83
574.962	31506.46
575.16	30883.88
575.358	31344.67
575.556	30830.63
575.754	31119.4
575.952	30943.27
576.151	31244.32
576.349	30842.92
576.547	30949.42
576.745	30715.95
576.943	30804.01
577.141	30752.81
577.339	30754.86
577.537	30492.72
577.735	30466.1
577.933	30591.02
578.131	30464.05
578.329	30400.56
578.527	30623.79
578.725	30255.15
578.923	30529.58
579.121	30128.18
579.319	30021.69
579.516	30111.8
579.714	30251.06
579.912	29970.49
580.11	29577.28
580.308	29900.86
580.506	29708.35
580.704	29429.82
580.901	29884.47
581.099	29552.7
581.297	29409.34
581.495	29241.41
581.692	29444.16
581.89	29175.87
582.088	29249.6
582.285	29012.04
582.483	29333.57
582.681	28837.96
582.878	28627.02
583.076	28528.72
583.274	28780.62
583.471	28713.03
583.669	28440.65
583.866	28508.24
584.064	28799.05
584.262	28401.74
584.459	28577.87
584.657	28309.58
584.854	28366.93
585.052	27766.87
585.249	28287.06
585.447	28239.95
585.644	28055.64
585.841	28121.17
586.039	28129.36
586.236	27459.68
586.434	27949.14
586.631	27498.59
586.828	27549.79
587.026	27592.79
587.223	27547.74
587.42	27551.84
587.618	27541.6
587.815	27175.01
588.012	27293.79
588.21	27101.28
588.407	27383.9
588.604	26980.45
588.801	26699.88
588.999	27068.51
589.196	26703.98
589.393	26972.26
589.59	26421.36
589.787	26341.49
589.984	26288.24
590.182	26118.26
590.379	26232.94
590.576	26407.02
590.773	26339.44
590.97	25761.91
591.167	26114.16
591.364	25688.18
591.561	25872.5
591.758	25577.59
591.955	26103.92
592.152	25847.93
592.349	25380.99
592.546	25766.01
592.743	25763.96
592.94	25063.55
593.137	25526.39
593.334	25462.91
593.531	24887.43
593.727	25030.79
593.924	24963.2
594.121	24920.2
594.318	25108.61
594.515	24750.21
594.712	24782.98
594.908	24748.17
595.105	24737.93
595.302	24529.03
595.499	24582.28
595.696	24502.41
595.892	24363.15
596.089	24516.75
596.286	24252.56
596.482	24019.09
596.679	24289.42
596.876	24070.29
597.072	24043.67
597.269	23935.12
597.466	23398.55
597.662	23750.81
597.859	23924.88
598.055	23783.57
598.252	23388.32
598.448	23435.42
598.645	23277.72
598.841	23046.3
599.038	23306.4
599.234	23347.36
599.431	22796.45
599.627	22812.84
599.824	23109.79
600.02	22988.96
600.217	23079.07
600.413	22698.15
600.609	22724.77
600.806	22538.41
601.002	22698.15
601.198	22503.59
601.395	22184.11
601.591	22274.22
601.787	22241.45
601.984	22038.7
602.18	22395.05
602.376	22225.07
602.572	21852.34
602.769	21964.98
602.965	21823.67
603.161	22376.62
603.357	21815.48
603.553	21756.08
603.75	21539
603.946	21512.38
604.142	21788.85
604.338	21391.55
604.534	21407.93
604.73	21024.96
604.926	21176.51
605.122	20940.99
605.318	20922.56
605.514	20943.04
605.71	20795.59
605.906	20965.57
606.102	20877.51
606.298	20967.62
606.494	20736.2
606.69	20660.42
606.886	20854.98
607.082	20254.92
607.278	20701.38
607.474	20537.54
607.67	20629.7
607.866	19912.91
608.062	20572.36
608.257	20158.67
608.453	20484.3
608.649	20250.83
608.845	20146.38
609.041	20334.79
609.236	20060.37
609.432	20216.01
609.628	20041.93
609.824	20005.07
610.019	19671.25
610.215	19800.27
610.411	20031.69
610.606	19595.48
610.802	19546.33
610.998	19964.11
611.193	19652.82
611.389	19822.8
611.584	19611.86
611.78	19341.53
611.976	19460.31
612.171	19654.87
612.367	19413.21
612.562	19278.04
612.758	19218.65
612.953	19206.36
613.149	19282.14
613.344	19138.78
613.539	19157.21
613.735	19052.77
613.93	19212.51
614.126	19028.19
614.321	19235.03
614.517	18888.93
614.712	18743.52
614.907	18997.47
615.103	18827.49
615.298	18868.45
615.493	18915.55
615.688	18632.93
615.884	19017.95
616.079	18479.33
616.274	18675.94
616.47	18573.54
616.665	18776.29
616.86	18546.92
617.055	18442.47
617.25	18368.74
617.445	18405.61
617.641	18249.96
617.836	18378.98
618.031	18075.88
618.226	18247.91
618.421	18145.52
618.616	18297.06
618.811	17752.31
619.006	17924.33
619.201	17527.03
619.396	17619.19
619.591	17375.48
619.786	17766.64
619.981	17355
620.176	17520.88
620.371	17232.12
620.566	17475.83
620.761	17207.55
620.956	17342.71
621.151	17185.02
621.346	17064.19
621.541	16980.22
621.735	16992.51
621.93	16761.09
622.125	16406.79
622.32	16400.65
622.515	16703.75
622.709	16177.42
622.904	16406.79
623.099	16107.79
623.294	16167.18
623.488	16273.67
623.683	16144.65
623.878	15784.21
624.072	15999.24
624.267	15952.14
624.462	15745.3
624.656	15675.66
624.851	15544.59
625.046	15354.13
625.24	15374.61
625.435	15180.06
625.629	15229.21
625.824	14977.31
626.018	15108.38
626.213	14774.56
626.407	15012.12
626.602	14563.62
626.796	14639.39
626.991	14643.49
627.185	14549.28
627.38	14563.62
627.574	14389.54
627.768	14012.71
627.963	14405.92
628.157	13867.31
628.352	14256.42
628.546	13992.23
628.74	14240.04
628.935	14094.63
629.129	14061.87
629.323	13828.4
629.517	13713.71
629.712	13490.48
629.906	13510.96
630.1	13373.75
630.294	13349.17
630.489	13242.68
630.683	13476.15
630.877	13187.38
631.071	13230.39
631.265	13449.52
631.459	13271.35
631.653	13121.85
631.848	12908.86
632.042	12835.13
632.236	12929.34
632.43	12761.41
632.624	12761.41
632.818	12603.71
633.012	12372.29
633.206	12323.14
633.4	12538.18
633.594	12355.91
633.788	12308.8
633.982	12128.58
634.176	12194.12
634.369	12122.44
634.563	12026.18
634.757	12038.47
634.951	11942.22
635.145	11895.11
635.339	11968.84
635.533	11788.62
635.726	11970.89
635.92	11546.96
636.114	11659.6
636.308	11487.57
636.501	11329.88
636.695	11309.4
636.889	11192.66
637.083	11278.68
637.276	11215.19
637.47	11026.78
637.664	10916.19
637.857	10938.71
638.051	11077.97
638.244	10754.4
638.438	10971.48
638.632	10541.41
638.825	10484.06
639.019	10604.89
639.212	10359.14
639.406	10490.21
639.599	10467.68
639.793	10592.61
639.986	10133.86
640.18	10080.61
640.373	10260.84
640.567	9959.78
640.76	9965.93
640.954	9951.59
641.147	9791.85
641.34	9800.04
641.534	9621.87
641.727	9501.04
641.92	9603.44
642.114	9542
642.307	9544.05
642.5	9417.07
642.694	9314.67
642.887	9079.16
643.08	9234.8
643.273	9027.96
643.467	8948.09
643.66	8829.31
643.853	8876.41
644.046	8786.3
644.239	8792.44
644.432	8735.1
644.626	8706.43
644.819	8511.87
645.012	8513.92
645.205	8581.5
645.398	8395.14
645.591	8440.19
645.784	8499.58
645.977	8171.91
646.17	8155.52
646.363	8171.91
646.556	8151.43
646.749	8030.6
646.942	8014.21
647.135	8028.55
647.328	7895.43
647.521	7879.05
647.714	7696.78
647.907	7829.9
648.099	7809.42
648.292	7735.69
648.485	7549.32
648.678	7563.66
648.871	7584.14
649.064	7639.44
649.256	7324.05
649.449	7285.14
649.642	7256.47
649.835	7297.42
650.027	7145.87
650.22	7203.22
650.413	6951.32
650.605	7098.77
650.798	6943.13
650.991	7033.24
651.183	6859.16
651.376	6791.58
651.568	6803.86
651.761	6746.52
651.954	6652.31
652.146	6840.73
652.339	6627.74
652.531	6556.06
652.724	6517.15
652.916	6461.85
653.109	6744.47
653.301	6416.8
653.494	6560.16
653.686	6306.21
653.879	6429.09
654.071	6171.04
654.263	6308.26
654.456	6156.71
654.648	6183.33
654.84	6197.67
655.033	6220.19
655.225	5960.1
655.417	6089.12
655.61	5921.19
655.802	6021.54
655.994	5876.13
656.186	5980.58
656.379	5829.03
656.571	5896.61
656.763	5781.93
656.955	5781.93
657.148	5861.8
657.34	5657
657.532	5700.01
657.724	5581.23
657.916	5568.94
658.108	5544.36
658.3	5554.6
658.492	5441.96
658.684	5429.68
658.876	5392.81
659.068	5470.64
659.26	5249.46
659.452	5401.01
659.644	5394.86
659.836	5104.05
660.028	5212.59
660.22	5165.49
660.412	5220.78
660.604	5167.54
660.796	5032.37
660.988	5075.38
661.18	4952.5
661.372	4962.74
661.563	4964.79
661.755	4784.57
661.947	4782.52
662.139	4874.68
662.331	4825.53
662.522	4686.26
662.714	4594.11
662.906	4643.26
663.097	4614.59
663.289	4626.87
663.481	4483.52
663.673	4612.54
663.864	4639.16
664.056	4473.28
664.247	4323.77
664.439	4305.34
664.631	4403.64
664.822	4424.12
665.014	4381.12
665.205	4377.02
665.397	4223.42
665.588	4295.1
665.78	4045.25
665.971	4215.23
666.163	4094.4
666.354	4098.5
666.546	4196.8
666.737	4080.07
666.929	4055.49
667.12	3885.51
667.311	3959.24
667.503	4032.96
667.694	3879.36
667.885	3891.65
668.077	3803.59
668.268	3762.63
668.459	3877.32
668.651	3742.15
668.842	3797.45
669.033	3678.66
669.224	3746.25
669.416	3654.09
669.607	3744.2
669.798	3525.07
669.989	3688.9
670.18	3447.24
670.371	3666.38
670.563	3590.6
670.754	3617.22
670.945	3469.77
671.136	3582.41
671.327	3443.15
671.518	3430.86
671.709	3320.27
671.9	3551.69
672.091	3346.89
672.282	3449.29
672.473	3391.95
672.664	3285.45
672.855	3402.19
673.046	3297.74
673.237	3394
673.428	3252.69
673.619	3240.4
673.809	3250.64
674	3094.99
674.191	3254.73
674.382	3275.21
674.573	3178.96
674.764	3277.26
674.954	3172.82
675.145	3135.95
675.336	3162.58
675.527	3066.32
675.717	3181.01
675.908	3168.72
676.099	3080.66
676.289	3045.84
676.48	3094.99
676.671	3074.51
676.861	3164.62
677.052	3131.86
677.243	2922.96
677.433	2945.49
677.624	3056.08
677.814	3088.85
678.005	2931.16
678.195	3105.23
678.386	2980.31
678.576	2853.33
678.767	2961.87
678.957	2951.63
679.148	2902.48
679.338	2968.02
679.529	2959.83
679.719	2890.2
679.909	3051.99
680.1	2888.15
680.29	2894.29
680.481	2920.92
680.671	2867.67
680.861	2863.57
681.052	2965.97
681.242	2994.64
681.432	2849.24
681.622	2810.33
681.813	2775.51
682.003	2879.96
682.193	2812.37
682.383	2863.57
682.573	2798.04
682.764	2888.15
682.954	2865.62
683.144	2798.04
683.334	2875.86
683.524	2945.49
683.714	2828.76
683.904	2904.53
684.094	2859.48
684.284	2882
684.474	2873.81
684.664	2904.53
684.854	2865.62
685.044	2882
685.234	2968.02
685.424	2775.51
685.614	2845.14
685.804	2810.33
685.994	2867.67
686.184	2953.68
686.374	2884.05
686.564	2865.62
686.753	2908.63
686.943	2789.85
687.133	2920.92
687.323	2851.28
687.513	2841.04
687.702	2890.2
687.892	2974.16
688.082	2888.15
688.272	2931.16
688.461	2933.2
688.651	2789.85
688.841	2937.3
689.03	3017.17
689.22	2771.41
689.41	2900.44
689.599	2904.53
689.789	2857.43
689.979	2845.14
690.168	2890.2
690.358	2818.52
690.547	2816.47
690.737	2963.92
690.926	2961.87
691.116	2771.41
691.305	2935.25
691.495	2865.62
691.684	2861.52
691.874	2869.72
692.063	2886.1
692.252	2894.29
692.442	2886.1
692.631	2757.08
692.82	2943.44
693.01	2785.75
693.199	2744.79
693.388	2853.33
693.578	2986.45
693.767	2922.96
693.956	2783.7
694.146	2707.93
694.335	2795.99
694.524	2763.22
694.713	2892.24
694.902	2898.39
695.092	2910.68
695.281	2646.49
695.47	2865.62
695.659	2771.41
695.848	2740.69
696.037	2726.36
696.226	2677.21
696.415	2752.98
696.604	2728.41
696.793	2689.49
696.982	2822.61
697.171	2666.97
697.36	2777.56
697.549	2626.01
697.738	2574.81
697.927	2726.36
698.116	2732.5
698.305	2595.29
698.494	2691.54
698.683	2552.28
698.872	2654.68
699.061	2634.2
699.25	2513.37
699.438	2642.39
699.627	2558.42
699.816	2548.19
700.005	2677.21
700.193	2531.8
700.382	2527.71
700.571	2556.38
700.76	2441.69
700.948	2460.12
701.137	2501.08
701.326	2542.04
701.514	2390.49
701.703	2550.23
701.892	2546.14
702.08	2415.07
702.269	2539.99
702.457	2357.72
702.646	2413.02
702.834	2445.79
703.023	2417.12
703.212	2453.98
703.4	2406.88
703.589	2451.93
703.777	2355.68
703.965	2306.52
704.154	2339.29
704.342	2310.62
704.531	2372.06
704.719	2392.54
704.907	2279.9
705.096	2206.17
705.284	2257.37
705.472	2136.54
705.661	2214.37
705.849	2230.75
706.037	2304.48
706.226	2249.18
706.414	2275.81
706.602	2226.65
706.79	2173.41
706.979	2103.78
707.167	2296.28
707.355	2150.88
707.543	2091.49
707.731	2118.11
707.919	2087.39
708.107	1991.14
708.296	2044.38
708.484	2062.82
708.672	2028
708.86	2005.47
709.048	1976.8
709.236	2109.92
709.424	2017.76
709.612	1954.27
709.8	2013.67
709.988	1950.18
710.176	1919.46
710.364	2019.81
710.551	2054.62
710.739	2071.01
710.927	1868.26
711.115	1905.12
711.303	1833.44
711.491	1888.74
711.679	1991.14
711.866	1837.54
712.054	1870.31
712.242	1880.55
712.43	1929.7
712.617	1946.08
712.805	1796.58
712.993	1946.08
713.181	1804.77
713.368	1843.68
713.556	1747.43
713.744	1788.39
713.931	1929.7
714.119	1876.45
714.306	1778.15
714.494	1815.01
714.682	1806.82
714.869	1741.29
715.057	1714.66
715.244	1651.17
715.432	1819.11
715.619	1782.24
715.807	1700.33
715.994	1718.76
716.182	1796.58
716.369	1653.22
716.556	1714.66
716.744	1622.5
716.931	1645.03
717.119	1661.41
717.306	1628.65
717.493	1624.55
717.681	1634.79
717.868	1569.26
718.055	1638.89
718.242	1729
718.43	1683.94
718.617	1536.49
718.804	1489.39
718.991	1602.02
719.179	1507.82
719.366	1659.37
719.553	1516.01
719.74	1475.05
719.927	1575.4
720.114	1462.76
720.301	1452.52
720.488	1575.4
720.676	1473
720.863	1497.58
721.05	1411.56
721.237	1460.71
721.424	1427.95
721.611	1501.67
721.798	1384.94
721.985	1501.67
722.172	1509.86
722.358	1368.56
722.545	1395.18
722.732	1429.99
722.919	1311.21
723.106	1462.76
723.293	1427.95
723.48	1350.12
723.667	1376.75
723.853	1307.12
724.04	1421.8
724.227	1477.1
724.414	1360.36
724.6	1413.61
724.787	1307.12
724.974	1300.97
725.161	1194.48
725.347	1313.26
725.534	1276.4
725.72	1343.98
725.907	1264.11
726.094	1280.49
726.28	1233.39
726.467	1323.5
726.653	1249.77
726.84	1346.03
727.027	1235.44
727.213	1214.96
727.4	1171.95
727.586	1198.57
727.773	1145.33
727.959	1194.48
728.145	1204.72
728.332	1300.97
728.518	1257.96
728.705	1233.39
728.891	1178.09
729.077	1186.29
729.264	1139.18
729.45	1151.47
729.636	1249.77
729.823	1137.13
730.009	1124.85
730.195	1112.56
730.382	1210.86
730.568	1081.84
730.754	1208.81
730.94	1133.04
731.126	1161.71
731.313	1141.23
731.499	1079.79
731.685	1157.61
731.871	1085.94
732.057	1038.83
732.243	1057.26
732.429	1090.03
732.615	1038.83
732.801	1053.17
732.987	1030.64
733.173	1049.07
733.359	999.92
733.545	1024.5
733.731	997.87
733.917	1126.89
734.103	1034.74
734.289	999.92
734.475	1016.3
734.661	1020.4
734.847	1018.35
735.033	1042.93
735.219	948.72
735.404	920.05
735.59	950.77
735.776	954.87
735.962	932.34
736.148	1079.79
736.333	1020.4
736.519	1020.4
736.705	899.57
736.89	1010.16
737.076	930.29
737.262	1004.02
737.447	932.34
737.633	903.67
737.819	922.1
738.004	920.05
738.19	897.52
738.375	879.09
738.561	997.87
738.747	930.29
738.932	823.8
739.118	848.37
739.303	913.91
739.489	932.34
739.674	858.61
739.859	887.28
740.045	854.51
740.23	788.98
740.416	840.18
740.601	879.09
740.786	887.28
740.972	866.8
741.157	831.99
741.342	756.21
741.528	805.36
741.713	844.28
741.898	737.78
742.084	913.91
742.269	801.27
742.454	766.45
742.639	791.03
742.824	811.51
743.01	858.61
743.195	813.56
743.38	721.4
743.565	846.32
743.75	741.88
743.935	811.51
744.12	780.79
744.305	748.02
744.49	791.03
744.675	772.6
744.86	733.68
745.045	758.26
745.23	711.16
745.415	784.88
745.6	739.83
745.785	666.1
745.97	762.36
746.155	682.49
746.34	672.25
746.525	768.5
746.71	659.96
746.895	764.4
747.079	727.54
747.264	659.96
747.449	682.49
747.634	725.49
747.819	649.72
748.003	670.2
748.188	694.77
748.373	729.59
748.557	748.02
748.742	608.76
748.927	649.72
749.111	717.3
749.296	657.91
749.481	651.77
749.665	619
749.85	578.04
750.034	627.19
750.219	621.05
750.404	596.47
750.588	670.2
750.773	598.52
750.957	637.43
751.141	639.48
751.326	635.38
751.51	657.91
751.695	567.8
751.879	633.33
752.064	629.24
752.248	637.43
752.432	584.18
752.617	547.32
752.801	569.85
752.985	600.57
753.17	528.89
753.354	586.23
753.538	555.51
753.722	545.27
753.907	563.7
754.091	518.65
754.275	520.7
754.459	573.94
754.643	616.95
754.828	475.64
755.012	541.18
755.196	512.5
755.38	578.04
755.564	524.79
755.748	561.66
755.932	498.17
756.116	496.12
756.3	436.73
756.484	541.18
756.668	451.07
756.852	512.5
757.036	416.25
757.22	518.65
757.404	539.13
757.588	451.07
757.772	584.18
757.956	428.54
758.14	457.21
758.323	393.72
758.507	506.36
758.691	528.89
758.875	475.64
759.059	463.35
759.242	492.02
759.426	446.97
759.61	389.63
759.794	403.96
759.977	498.17
760.161	489.98
760.345	408.06
760.528	535.03
760.712	481.78
760.895	481.78
761.079	436.73
761.263	426.49
761.446	453.11
761.63	483.83
761.813	483.83
761.997	479.74
762.18	469.5
762.364	432.63
762.547	320
762.731	397.82
762.914	395.77
763.098	381.43
763.281	371.19
763.464	457.21
763.648	375.29
763.831	451.07
764.015	416.25
764.198	395.77
764.381	410.11
764.564	340.47
764.748	430.59
764.931	385.53
765.114	408.06
765.297	418.3
765.481	401.91
765.664	426.49
765.847	412.15
766.03	453.11
766.213	330.23
766.397	373.24
766.58	434.68
766.763	436.73
766.946	360.95
767.129	338.43
767.312	385.53
767.495	444.92
767.678	371.19
767.861	379.39
768.044	379.39
768.227	383.48
768.41	285.18
768.593	418.3
768.776	348.67
768.959	455.16
769.142	463.35
769.324	397.82
769.507	453.11
769.69	381.43
769.873	395.77
770.056	381.43
770.239	373.24
770.421	377.34
770.604	365.05
770.787	395.77
770.97	457.21
771.152	363
771.335	342.52
771.518	354.81
771.7	346.62
771.883	375.29
772.066	352.76
772.248	342.52
772.431	346.62
772.613	346.62
772.796	303.61
772.978	371.19
773.161	406.01
773.343	453.11
773.526	393.72
773.708	315.9
773.891	440.83
774.073	367.1
774.256	283.13
774.438	346.62
774.621	266.75
774.803	332.28
774.985	410.11
775.168	387.58
775.35	383.48
775.532	291.32
775.715	281.08
775.897	436.73
776.079	260.6
776.261	385.53
776.444	303.61
776.626	293.37
776.808	297.47
776.99	299.52
777.173	373.24
777.355	315.9
777.537	293.37
777.719	379.39
777.901	313.85
778.083	377.34
778.265	295.42
778.447	356.86
778.629	324.09
778.811	256.51
778.993	246.27
779.175	297.47
779.357	264.7
779.539	293.37
779.721	258.56
779.903	289.28
780.085	324.09
780.267	315.9
780.449	256.51
780.631	219.64
780.812	248.32
780.994	217.6
781.176	283.13
781.358	313.85
781.54	270.84
781.721	168.45
781.903	285.18
782.085	244.22
782.267	238.08
782.448	246.27
782.63	258.56
782.812	272.89
782.993	240.12
783.175	223.74
783.357	252.41
783.538	221.69
783.72	215.55
783.901	233.98
784.083	297.47
784.264	262.65
784.446	229.88
784.627	152.06
784.809	252.41
784.99	309.76
785.172	252.41
785.353	250.36
785.535	195.07
785.716	236.03
785.897	328.19
786.079	211.45
786.26	152.06
786.441	272.89
786.623	225.79
786.804	182.78
786.985	248.32
787.167	143.87
787.348	225.79
787.529	186.88
787.71	203.26
787.891	236.03
788.073	203.26
788.254	184.83
788.435	186.88
788.616	252.41
788.797	225.79
788.978	156.16
789.159	199.16
789.34	201.21
789.522	166.4
789.703	139.77
789.884	195.07
790.065	150.01
790.246	115.2
790.427	231.93
790.607	303.61
790.788	211.45
790.969	184.83
791.15	223.74
791.331	190.97
791.512	168.45
791.693	246.27
791.874	131.58
792.054	197.12
792.235	166.4
792.416	154.11
792.597	76.29
792.778	174.59
792.958	225.79
793.139	158.21
793.32	231.93
793.5	84.48
793.681	152.06
793.862	137.73
794.042	246.27
794.223	180.73
794.404	164.35
794.584	164.35
794.765	178.69
794.945	137.73
795.126	168.45
795.306	113.15
795.487	158.21
795.667	154.11
795.848	100.86
796.028	115.2
796.209	109.05
796.389	129.53
796.57	162.3
796.75	109.05
796.93	215.55
797.111	70.14
797.291	174.59
797.471	100.86
797.652	107.01
797.832	129.53
798.012	193.02
798.192	168.45
798.373	166.4
798.553	147.97
798.733	180.73
798.913	135.68
799.093	174.59
799.274	111.1
799.454	70.14
799.634	207.36
799.814	190.97
799.994	180.73
800.174	139.77
800.354	90.62
800.534	111.1
800.714	92.67
800.894	57.86
801.074	68.09
801.254	162.3
801.434	137.73
801.614	166.4
801.794	154.11
801.974	395.77
802.154	195.07
802.334	188.93
802.514	94.72
802.693	98.81
802.873	119.29
803.053	123.39
803.233	59.9
803.413	96.77
803.592	125.44
803.772	137.73
803.952	141.82
804.131	49.66
804.311	164.35
804.491	160.25
804.67	156.16
804.85	55.81
805.03	74.24
805.209	53.76
805.389	2.56
805.568	137.73
805.748	59.9
805.928	100.86
806.107	107.01
806.287	86.53
806.466	141.82
806.646	59.9
806.825	96.77
807.004	55.81
807.184	127.49
807.363	147.97
807.543	109.05
807.722	80.38
807.901	109.05
808.081	137.73
808.26	51.71
808.439	55.81
808.619	156.16
808.798	94.72
808.977	141.82
809.156	78.33
809.336	168.45
809.515	133.63
809.694	94.72
809.873	121.34
810.052	96.77
810.231	94.72
810.411	119.29
810.59	78.33
810.769	100.86
810.948	123.39
811.127	109.05
811.306	92.67
811.485	119.29
811.664	78.33
811.843	131.58
812.022	84.48
812.201	102.91
812.38	51.71
812.559	78.33
812.737	74.24
812.916	12.8
813.095	111.1
813.274	119.29
813.453	113.15
813.632	154.11
813.811	43.52
813.989	102.91
814.168	170.49
814.347	137.73
814.526	80.38
814.704	131.58
814.883	109.05
815.062	80.38
815.24	78.33
815.419	90.62
815.598	84.48
815.776	16.9
815.955	137.73
816.133	64
816.312	125.44
816.49	150.01
816.669	174.59
816.847	117.25
817.026	123.39
817.204	80.38
817.383	43.52
817.561	31.23
817.74	78.33
817.918	78.33
818.097	61.95
818.275	23.04
818.453	94.72
818.632	51.71
818.81	113.15
818.988	100.86
819.167	61.95
819.345	80.38
819.523	111.1
819.701	49.66
819.879	43.52
820.058	92.67
820.236	43.52
820.414	66.05
820.592	150.01
820.77	55.81
820.948	59.9
821.127	113.15
821.305	86.53
821.483	53.76
821.661	88.57
821.839	121.34
822.017	25.09
822.195	80.38
822.373	121.34
822.551	53.76
822.729	35.33
822.907	33.28
823.085	102.91
823.262	57.86
823.44	35.33
823.618	45.57
823.796	37.38
823.974	-3.58
824.152	43.52
824.329	27.14
824.507	80.38
824.685	74.24
824.863	35.33
825.04	82.43
825.218	12.8
825.396	61.95
825.574	74.24
825.751	96.77
825.929	4.61
826.107	25.09
826.284	121.34
826.462	66.05
826.639	109.05
826.817	100.86
826.994	84.48
827.172	27.14
827.349	70.14
827.527	-9.73
827.704	156.16
827.882	82.43
828.059	41.47
828.237	23.04
828.414	43.52
828.591	43.52
828.769	139.77
828.946	80.38
829.124	55.81
829.301	49.66
829.478	66.05
829.655	39.42
829.833	115.2
830.01	25.09
830.187	80.38
830.364	64
830.542	88.57
830.719	61.95
830.896	61.95
831.073	88.57
831.25	100.86
831.427	33.28
831.604	41.47
831.782	86.53
831.959	68.09
832.136	57.86
832.313	74.24
832.49	-3.58
832.667	49.66
832.844	-26.11
833.021	117.25
833.198	8.7
833.374	74.24
833.551	88.57
833.728	-1.54
833.905	39.42
834.082	80.38
834.259	96.77
834.436	47.62
834.612	43.52
834.789	68.09
834.966	43.52
835.143	92.67
835.319	33.28
835.496	104.96
835.673	-1.54
835.85	72.19
836.026	139.77
836.203	113.15
836.38	20.99
836.556	29.18
836.733	53.76
836.909	74.24
837.086	35.33
837.262	10.75
837.439	72.19
837.616	-30.21
837.792	88.57
837.968	100.86
838.145	14.85
838.321	121.34
838.498	23.04
838.674	102.91
838.851	100.86
839.027	-48.64
839.203	72.19
839.38	23.04
839.556	117.25
839.732	92.67
839.909	86.53
840.085	14.85
840.261	78.33
840.437	49.66
840.614	35.33
840.79	16.9
840.966	41.47
841.142	14.85
841.318	-13.82
841.494	90.62
841.671	33.28
841.847	53.76
842.023	27.14
842.199	70.14
842.375	2.56
842.551	35.33
842.727	61.95
842.903	82.43
843.079	-69.12
843.255	27.14
843.431	-22.02
843.607	43.52
843.783	16.9
843.959	14.85
844.134	61.95
844.31	86.53
844.486	45.57
844.662	47.62
844.838	68.09
845.013	-13.82
845.189	117.25
845.365	123.39
845.541	6.66
845.716	96.77
845.892	59.9
846.068	14.85
846.244	6.66
846.419	18.94
846.595	51.71
846.77	-36.35
846.946	33.28
847.122	14.85
847.297	14.85
847.473	20.99
847.648	18.94
847.824	92.67
847.999	-40.45
848.175	45.57
848.35	86.53
848.526	45.57
848.701	76.29
848.876	31.23
849.052	-19.97
849.227	41.47
849.403	-26.11
849.578	-19.97
849.753	57.86
849.929	39.42
850.104	10.75
850.279	23.04
850.454	80.38
850.63	78.33
850.805	6.66
850.98	4.61
851.155	45.57
851.33	141.82
851.505	29.18
851.681	115.2
851.856	8.7
852.031	2.56
852.206	-22.02
852.381	31.23
852.556	-9.73
852.731	90.62
852.906	43.52
853.081	55.81
853.256	55.81
853.431	-36.35
853.606	20.99
853.781	-3.58
853.956	-9.73
854.131	10.75
854.305	-30.21
854.48	86.53
854.655	-11.78
854.83	-7.68
855.005	82.43
855.18	51.71
855.354	27.14
855.529	-3.58
855.704	47.62
855.879	61.95
856.053	12.8
856.228	100.86
856.403	-26.11
856.577	96.77
856.752	-24.06
856.926	66.05
857.101	55.81
857.276	39.42
857.45	43.52
857.625	41.47
857.799	43.52
857.974	86.53
858.148	4.61
858.323	109.05
858.497	-17.92
858.672	68.09
858.846	-3.58
859.02	33.28
859.195	59.9
859.369	43.52
859.543	18.94
859.718	64
859.892	20.99
860.066	10.75
860.241	-9.73
860.415	111.1
860.589	-26.11
860.763	53.76
860.938	43.52
861.112	-15.87
861.286	45.57
861.46	33.28
861.634	78.33
861.808	72.19
861.982	39.42
862.157	-54.78
862.331	-13.82
862.505	78.33
862.679	-11.78
862.853	92.67
863.027	-15.87
863.201	64
863.375	-1.54
863.549	70.14
863.722	-17.92
863.896	74.24
864.07	18.94
864.244	66.05
864.418	20.99
864.592	59.9
864.766	-32.26
864.939	39.42
865.113	4.61
865.287	20.99
865.461	53.76
865.634	29.18
865.808	37.38
865.982	47.62
866.156	-28.16
866.329	2.56
866.503	-40.45
866.676	53.76
866.85	-7.68
867.024	51.71
867.197	66.05
867.371	18.94
867.544	16.9
867.718	94.72
867.891	53.76
868.065	23.04
868.238	100.86
868.412	121.34
868.585	-11.78
868.759	20.99
868.932	14.85
869.105	78.33
869.279	94.72
869.452	20.99
869.625	18.94
869.799	66.05
869.972	43.52
870.145	-24.06
870.319	23.04
870.492	4.61
870.665	-9.73
870.838	-40.45
871.011	96.77
871.185	20.99
871.358	4.61
871.531	31.23
871.704	-13.82
871.877	20.99
872.05	-19.97
872.223	-13.82
872.396	37.38
872.569	-17.92
872.742	12.8
872.915	47.62
873.088	-50.69
873.261	43.52
873.434	20.99
873.607	23.04
873.78	35.33
873.953	6.66
874.126	27.14
874.299	109.05
874.471	68.09
874.644	37.38
874.817	51.71
874.99	23.04
875.163	33.28
875.335	47.62
875.508	27.14
875.681	43.52
875.853	6.66
876.026	61.95
876.199	39.42
876.371	66.05
876.544	4.61
876.717	64
876.889	-3.58
877.062	-3.58
877.234	-19.97
877.407	47.62
877.579	-32.26
877.752	39.42
877.924	88.57
878.097	-15.87
878.269	-9.73
878.442	8.7
878.614	59.9
878.786	49.66
878.959	43.52
879.131	18.94
879.303	-9.73
879.476	2.56
879.648	68.09
879.82	39.42
879.993	59.9
880.165	10.75
880.337	2.56
880.509	96.77
880.681	-19.97
880.854	20.99
881.026	-15.87
881.198	86.53
881.37	10.75
881.542	51.71
881.714	-17.92
881.886	10.75
882.058	59.9
882.23	12.8
882.402	10.75
882.574	49.66
882.746	25.09
882.918	6.66
883.09	6.66
883.262	-32.26
883.434	35.33
883.606	80.38
883.778	47.62
883.95	37.38
884.122	-32.26
884.293	51.71
884.465	37.38
884.637	27.14
884.809	53.76
884.98	37.38
885.152	25.09
885.324	8.7
885.496	-34.3
885.667	43.52
885.839	-11.78
886.011	49.66
886.182	53.76
886.354	59.9
886.525	0.51
886.697	70.14
886.869	-46.59
887.04	16.9
887.212	53.76
887.383	61.95
887.555	10.75
887.726	70.14
887.897	31.23
888.069	6.66
888.24	27.14
888.412	6.66
888.583	-13.82
888.754	-46.59
888.926	-40.45
889.097	6.66
889.268	57.86
889.44	2.56
889.611	6.66
889.782	16.9
889.953	-1.54
890.125	82.43
890.296	-5.63
890.467	66.05
890.638	-1.54
890.809	45.57
890.98	78.33
891.151	43.52
891.323	43.52
891.494	57.86
891.665	-52.74
891.836	-17.92
892.007	20.99
892.178	16.9
892.349	18.94
892.52	37.38
892.691	-54.78
892.862	29.18
893.032	12.8
893.203	0.51
893.374	64
893.545	4.61
893.716	-15.87
893.887	0.51
894.057	-17.92
894.228	39.42
894.399	-7.68
894.57	41.47
894.74	43.52
894.911	0.51
895.082	59.9
895.253	-9.73
895.423	-22.02
895.594	4.61
895.764	-11.78
895.935	47.62
896.106	20.99
896.276	31.23
896.447	51.71
896.617	-5.63
896.788	16.9
896.958	47.62
897.129	-28.16
897.299	-30.21
897.47	49.66
897.64	37.38
897.81	23.04
897.981	68.09
898.151	-3.58
898.322	68.09
898.492	82.43
898.662	82.43
898.832	43.52
899.003	-26.11
899.173	100.86
899.343	98.81
899.513	-28.16
