Data from USB4F104151__79__12-54-43-338.txt Node

Date: Fri Mar 14 12:54:43 EDT 2025
User: louis
Spectrometer: USB4F10415
Trigger mode: 4
Integration Time (sec): 1.000000E-2
Scans to average: 1
Electric dark correction enabled: true
Nonlinearity correction enabled: false
Boxcar width: 0
XAxis mode: Wavelengths
Number of Pixels in Spectrum: 3648
>>>>>Begin Spectral Data<<<<<
178.204	-16.73
178.424	-16.73
178.644	-16.73
178.864	-69.97
179.084	26.28
179.304	-22.87
179.524	-2.39
179.744	-22.87
179.964	-12.63
180.184	32.43
180.404	-14.68
180.624	-22.87
180.844	-12.63
181.064	11.95
181.283	71.34
181.503	-0.34
181.723	-4.44
181.943	36.52
182.163	-4.44
182.383	-37.2
182.602	3.75
182.822	46.76
183.042	22.19
183.262	-8.53
183.482	38.57
183.701	-4.44
183.921	-2.39
184.141	-0.34
184.361	106.15
184.58	7.85
184.8	11.95
185.02	24.23
185.239	59.05
185.459	-31.06
185.679	48.81
185.898	28.33
186.118	7.85
186.338	-10.58
186.557	50.86
186.777	42.67
186.997	100.01
187.216	-53.59
187.436	34.47
187.655	34.47
187.875	-4.44
188.095	3.75
188.314	93.87
188.534	11.95
188.753	7.85
188.973	20.14
189.192	40.62
189.412	59.05
189.631	44.71
189.851	71.34
190.07	134.82
190.29	46.76
190.509	40.62
190.729	26.28
190.948	44.71
191.168	61.1
191.387	16.04
191.607	3.75
191.826	-53.59
192.045	46.76
192.265	44.71
192.484	-26.96
192.704	-20.82
192.923	-43.35
193.142	120.49
193.362	24.23
193.581	38.57
193.8	1.71
194.02	69.29
194.239	-33.11
194.458	18.09
194.678	28.33
194.897	-6.49
195.116	-16.73
195.335	-8.53
195.555	26.28
195.774	22.19
195.993	34.47
196.212	3.75
196.432	46.76
196.651	-14.68
196.87	42.67
197.089	26.28
197.308	71.34
197.528	81.58
197.747	13.99
197.966	24.23
198.185	34.47
198.404	65.19
198.623	87.72
198.842	-6.49
199.062	-10.58
199.281	16.04
199.5	36.52
199.719	7.85
199.938	22.19
200.157	73.39
200.376	-8.53
200.595	22.19
200.814	7.85
201.033	28.33
201.252	-33.11
201.471	-10.58
201.69	-0.34
201.909	36.52
202.128	-4.44
202.347	34.47
202.566	36.52
202.785	42.67
203.004	-8.53
203.223	73.39
203.442	106.15
203.661	48.81
203.879	-16.73
204.098	16.04
204.317	-39.25
204.536	59.05
204.755	71.34
204.974	63.15
205.193	16.04
205.411	93.87
205.63	24.23
205.849	-0.34
206.068	13.99
206.287	16.04
206.505	89.77
206.724	7.85
206.943	-29.01
207.162	1.71
207.381	54.95
207.599	83.63
207.818	-0.34
208.037	63.15
208.255	-63.83
208.474	44.71
208.693	42.67
208.911	-63.83
209.13	22.19
209.349	-12.63
209.567	38.57
209.786	69.29
210.005	73.39
210.223	50.86
210.442	9.9
210.661	81.58
210.879	-10.58
211.098	57
211.316	-6.49
211.535	30.38
211.753	52.91
211.972	42.67
212.191	61.1
212.409	38.57
212.628	52.91
212.846	-4.44
213.065	36.52
213.283	18.09
213.502	20.14
213.72	22.19
213.938	63.15
214.157	40.62
214.375	42.67
214.594	-6.49
214.812	50.86
215.031	57
215.249	63.15
215.467	30.38
215.686	28.33
215.904	59.05
216.122	95.91
216.341	87.72
216.559	28.33
216.778	40.62
216.996	-16.73
217.214	24.23
217.432	-12.63
217.651	18.09
217.869	22.19
218.087	87.72
218.306	54.95
218.524	24.23
218.742	-12.63
218.96	108.2
219.179	44.71
219.397	91.82
219.615	32.43
219.833	54.95
220.051	13.99
220.27	32.43
220.488	46.76
220.706	46.76
220.924	-26.96
221.142	28.33
221.36	83.63
221.578	9.9
221.796	-0.34
222.015	9.9
222.233	-12.63
222.451	30.38
222.669	-2.39
222.887	30.38
223.105	-2.39
223.323	-84.31
223.541	28.33
223.759	40.62
223.977	-35.16
224.195	-18.77
224.413	-10.58
224.631	46.76
224.849	42.67
225.067	73.39
225.285	122.54
225.503	44.71
225.721	-24.92
225.939	-43.35
226.157	34.47
226.375	89.77
226.592	28.33
226.81	34.47
227.028	-0.34
227.246	73.39
227.464	-0.34
227.682	7.85
227.9	3.75
228.117	81.58
228.335	34.47
228.553	-22.87
228.771	22.19
228.989	38.57
229.206	-33.11
229.424	48.81
229.642	-33.11
229.86	44.71
230.077	59.05
230.295	95.91
230.513	42.67
230.731	11.95
230.948	44.71
231.166	16.04
231.384	9.9
231.601	73.39
231.819	32.43
232.037	-18.77
232.254	-10.58
232.472	1.71
232.689	9.9
232.907	9.9
233.125	89.77
233.342	16.04
233.56	34.47
233.777	18.09
233.995	32.43
234.213	73.39
234.43	32.43
234.648	50.86
234.865	7.85
235.083	81.58
235.3	3.75
235.518	77.48
235.735	26.28
235.953	87.72
236.17	42.67
236.388	26.28
236.605	97.96
236.822	81.58
237.04	59.05
237.257	30.38
237.475	48.81
237.692	18.09
237.909	100.01
238.127	38.57
238.344	100.01
238.562	38.57
238.779	18.09
238.996	-6.49
239.214	71.34
239.431	44.71
239.648	30.38
239.865	18.09
240.083	34.47
240.3	34.47
240.517	20.14
240.735	36.52
240.952	48.81
241.169	57
241.386	69.29
241.603	59.05
241.821	24.23
242.038	9.9
242.255	30.38
242.472	-26.96
242.689	32.43
242.907	-10.58
243.124	-6.49
243.341	9.9
243.558	42.67
243.775	7.85
243.992	20.14
244.209	-12.63
244.426	110.25
244.643	63.15
244.86	-39.25
245.078	-33.11
245.295	54.95
245.512	11.95
245.729	5.8
245.946	34.47
246.163	83.63
246.38	-14.68
246.597	69.29
246.814	22.19
247.031	42.67
247.248	13.99
247.464	5.8
247.681	48.81
247.898	1.71
248.115	61.1
248.332	54.95
248.549	18.09
248.766	-12.63
248.983	-4.44
249.2	-2.39
249.417	48.81
249.633	67.24
249.85	28.33
250.067	24.23
250.284	36.52
250.501	30.38
250.717	44.71
250.934	-55.64
251.151	18.09
251.368	61.1
251.585	104.11
251.801	7.85
252.018	-2.39
252.235	28.33
252.451	71.34
252.668	13.99
252.885	18.09
253.102	32.43
253.318	57
253.535	48.81
253.752	26.28
253.968	22.19
254.185	83.63
254.401	16.04
254.618	36.52
254.835	38.57
255.051	54.95
255.268	36.52
255.484	95.91
255.701	18.09
255.917	32.43
256.134	11.95
256.351	73.39
256.567	34.47
256.784	11.95
257	40.62
257.217	46.76
257.433	22.19
257.65	81.58
257.866	138.92
258.082	9.9
258.299	-12.63
258.515	11.95
258.732	44.71
258.948	87.72
259.165	-4.44
259.381	28.33
259.597	-0.34
259.814	108.2
260.03	16.04
260.246	59.05
260.463	77.48
260.679	59.05
260.895	34.47
261.112	73.39
261.328	87.72
261.544	18.09
261.761	87.72
261.977	26.28
262.193	85.67
262.409	52.91
262.626	7.85
262.842	38.57
263.058	59.05
263.274	32.43
263.49	5.8
263.707	63.15
263.923	-4.44
264.139	24.23
264.355	40.62
264.571	-16.73
264.787	-0.34
265.004	32.43
265.22	28.33
265.436	73.39
265.652	63.15
265.868	-18.77
266.084	20.14
266.3	28.33
266.516	38.57
266.732	34.47
266.948	32.43
267.164	-24.92
267.38	71.34
267.596	-18.77
267.812	22.19
268.028	3.75
268.244	67.24
268.46	7.85
268.676	-8.53
268.892	77.48
269.108	30.38
269.324	20.14
269.54	48.81
269.756	9.9
269.972	52.91
270.188	48.81
270.403	18.09
270.619	50.86
270.835	38.57
271.051	20.14
271.267	-8.53
271.483	34.47
271.698	-20.82
271.914	28.33
272.13	67.24
272.346	1.71
272.562	63.15
272.777	24.23
272.993	-8.53
273.209	61.1
273.425	13.99
273.64	-41.3
273.856	1.71
274.072	16.04
274.287	95.91
274.503	18.09
274.719	28.33
274.934	63.15
275.15	-96.6
275.366	5.8
275.581	46.76
275.797	-22.87
276.012	-22.87
276.228	46.76
276.444	-45.4
276.659	7.85
276.875	20.14
277.09	75.43
277.306	85.67
277.521	13.99
277.737	11.95
277.952	38.57
278.168	-47.44
278.383	42.67
278.599	36.52
278.814	36.52
279.03	110.25
279.245	54.95
279.461	-16.73
279.676	-24.92
279.892	61.1
280.107	-51.54
280.322	-2.39
280.538	-22.87
280.753	85.67
280.969	75.43
281.184	50.86
281.399	67.24
281.615	73.39
281.83	-20.82
282.045	32.43
282.26	42.67
282.476	44.71
282.691	-10.58
282.906	-35.16
283.122	22.19
283.337	44.71
283.552	89.77
283.767	69.29
283.983	7.85
284.198	28.33
284.413	-0.34
284.628	-47.44
284.843	-12.63
285.058	-31.06
285.274	-24.92
285.489	-35.16
285.704	34.47
285.919	42.67
286.134	81.58
286.349	26.28
286.564	42.67
286.779	71.34
286.995	7.85
287.21	57
287.425	42.67
287.64	40.62
287.855	20.14
288.07	13.99
288.285	81.58
288.5	13.99
288.715	34.47
288.93	22.19
289.145	-2.39
289.36	-0.34
289.575	26.28
289.79	13.99
290.004	30.38
290.219	30.38
290.434	42.67
290.649	26.28
290.864	75.43
291.079	-10.58
291.294	7.85
291.509	48.81
291.724	13.99
291.938	-10.58
292.153	40.62
292.368	36.52
292.583	-14.68
292.798	50.86
293.012	1.71
293.227	40.62
293.442	40.62
293.657	30.38
293.871	65.19
294.086	-16.73
294.301	52.91
294.516	18.09
294.73	46.76
294.945	24.23
295.16	73.39
295.374	42.67
295.589	40.62
295.804	1.71
296.018	32.43
296.233	104.11
296.447	7.85
296.662	50.86
296.877	30.38
297.091	26.28
297.306	38.57
297.52	50.86
297.735	73.39
297.949	48.81
298.164	3.75
298.378	59.05
298.593	52.91
298.807	44.71
299.022	65.19
299.236	32.43
299.451	9.9
299.665	-2.39
299.88	3.75
300.094	54.95
300.309	38.57
300.523	-33.11
300.737	50.86
300.952	26.28
301.166	44.71
301.381	110.25
301.595	16.04
301.809	32.43
302.024	13.99
302.238	50.86
302.452	48.81
302.667	26.28
302.881	57
303.095	30.38
303.309	-6.49
303.524	-31.06
303.738	30.38
303.952	42.67
304.166	63.15
304.381	30.38
304.595	1.71
304.809	36.52
305.023	36.52
305.237	59.05
305.452	1.71
305.666	-2.39
305.88	104.11
306.094	106.15
306.308	24.23
306.522	20.14
306.736	28.33
306.95	40.62
307.164	30.38
307.379	-53.59
307.593	34.47
307.807	24.23
308.021	32.43
308.235	9.9
308.449	11.95
308.663	-10.58
308.877	-14.68
309.091	57
309.305	65.19
309.519	-33.11
309.733	63.15
309.947	-2.39
310.161	20.14
310.374	18.09
310.588	89.77
310.802	20.14
311.016	5.8
311.23	63.15
311.444	134.82
311.658	57
311.872	73.39
312.085	73.39
312.299	83.63
312.513	81.58
312.727	73.39
312.941	48.81
313.154	30.38
313.368	44.71
313.582	44.71
313.796	5.8
314.009	112.3
314.223	-0.34
314.437	126.63
314.651	46.76
314.864	83.63
315.078	-29.01
315.292	7.85
315.505	34.47
315.719	75.43
315.933	85.67
316.146	11.95
316.36	48.81
316.573	24.23
316.787	-26.96
317.001	93.87
317.214	32.43
317.428	67.24
317.641	24.23
317.855	11.95
318.068	54.95
318.282	59.05
318.495	79.53
318.709	30.38
318.922	-33.11
319.136	54.95
319.349	-6.49
319.563	34.47
319.776	30.38
319.99	-26.96
320.203	57
320.417	-10.58
320.63	-16.73
320.843	38.57
321.057	-39.25
321.27	48.81
321.483	24.23
321.697	63.15
321.91	-4.44
322.124	-12.63
322.337	52.91
322.55	54.95
322.763	5.8
322.977	7.85
323.19	54.95
323.403	54.95
323.617	-12.63
323.83	9.9
324.043	28.33
324.256	-12.63
324.469	48.81
324.683	46.76
324.896	54.95
325.109	-20.82
325.322	50.86
325.535	89.77
325.748	69.29
325.962	67.24
326.175	24.23
326.388	22.19
326.601	-2.39
326.814	63.15
327.027	97.96
327.24	11.95
327.453	57
327.666	67.24
327.879	26.28
328.092	95.91
328.305	26.28
328.518	32.43
328.731	50.86
328.944	38.57
329.157	38.57
329.37	-45.4
329.583	100.01
329.796	104.11
330.009	1.71
330.222	52.91
330.435	61.1
330.648	-2.39
330.861	32.43
331.073	73.39
331.286	61.1
331.499	18.09
331.712	-24.92
331.925	-53.59
332.138	5.8
332.35	-0.34
332.563	-2.39
332.776	91.82
332.989	22.19
333.202	13.99
333.414	85.67
333.627	79.53
333.84	59.05
334.053	9.9
334.265	22.19
334.478	-26.96
334.691	-4.44
334.903	40.62
335.116	40.62
335.329	79.53
335.541	52.91
335.754	-8.53
335.966	13.99
336.179	-31.06
336.392	-39.25
336.604	-10.58
336.817	-6.49
337.029	40.62
337.242	71.34
337.454	91.82
337.667	73.39
337.88	57
338.092	89.77
338.305	59.05
338.517	-14.68
338.729	54.95
338.942	83.63
339.154	18.09
339.367	28.33
339.579	7.85
339.792	75.43
340.004	24.23
340.217	-6.49
340.429	75.43
340.641	26.28
340.854	30.38
341.066	42.67
341.278	-14.68
341.491	71.34
341.703	13.99
341.915	-18.77
342.128	46.76
342.34	61.1
342.552	22.19
342.764	63.15
342.977	32.43
343.189	28.33
343.401	73.39
343.613	1.71
343.826	28.33
344.038	44.71
344.25	-6.49
344.462	73.39
344.674	-59.73
344.886	61.1
345.099	75.43
345.311	-8.53
345.523	57
345.735	102.06
345.947	32.43
346.159	38.57
346.371	-18.77
346.583	59.05
346.795	46.76
347.007	16.04
347.219	81.58
347.431	26.28
347.643	40.62
347.855	3.75
348.067	48.81
348.279	-43.35
348.491	1.71
348.703	93.87
348.915	20.14
349.127	22.19
349.339	61.1
349.551	7.85
349.763	22.19
349.975	46.76
350.187	30.38
350.399	-24.92
350.61	106.15
350.822	52.91
351.034	-22.87
351.246	71.34
351.458	13.99
351.669	95.91
351.881	63.15
352.093	28.33
352.305	83.63
352.517	54.95
352.728	18.09
352.94	16.04
353.152	24.23
353.363	30.38
353.575	-2.39
353.787	32.43
353.999	93.87
354.21	20.14
354.422	54.95
354.633	40.62
354.845	48.81
355.057	81.58
355.268	83.63
355.48	75.43
355.692	-6.49
355.903	34.47
356.115	30.38
356.326	-65.88
356.538	147.11
356.749	50.86
356.961	18.09
357.172	71.34
357.384	50.86
357.595	77.48
357.807	42.67
358.018	44.71
358.23	9.9
358.441	40.62
358.653	46.76
358.864	-24.92
359.075	54.95
359.287	71.34
359.498	81.58
359.709	36.52
359.921	36.52
360.132	40.62
360.344	-8.53
360.555	32.43
360.766	79.53
360.977	81.58
361.189	34.47
361.4	54.95
361.611	5.8
361.823	22.19
362.034	-16.73
362.245	-31.06
362.456	44.71
362.667	57
362.879	32.43
363.09	65.19
363.301	-10.58
363.512	-16.73
363.723	38.57
363.935	93.87
364.146	48.81
364.357	11.95
364.568	28.33
364.779	-4.44
364.99	48.81
365.201	5.8
365.412	40.62
365.623	-14.68
365.834	18.09
366.045	-22.87
366.256	-39.25
366.467	28.33
366.678	16.04
366.889	67.24
367.1	71.34
367.311	89.77
367.522	104.11
367.733	59.05
367.944	24.23
368.155	-8.53
368.366	81.58
368.577	83.63
368.788	-0.34
368.999	5.8
369.209	48.81
369.42	16.04
369.631	83.63
369.842	7.85
370.053	34.47
370.264	18.09
370.474	-6.49
370.685	36.52
370.896	77.48
371.107	42.67
371.317	-35.16
371.528	83.63
371.739	83.63
371.95	65.19
372.16	97.96
372.371	32.43
372.582	13.99
372.792	11.95
373.003	-18.77
373.214	38.57
373.424	36.52
373.635	44.71
373.846	-0.34
374.056	-18.77
374.267	-8.53
374.477	22.19
374.688	26.28
374.898	48.81
375.109	34.47
375.319	93.87
375.53	54.95
375.74	34.47
375.951	28.33
376.161	42.67
376.372	54.95
376.582	50.86
376.793	54.95
377.003	34.47
377.214	81.58
377.424	-8.53
377.635	50.86
377.845	77.48
378.055	11.95
378.266	30.38
378.476	87.72
378.686	50.86
378.897	108.2
379.107	87.72
379.317	28.33
379.528	52.91
379.738	59.05
379.948	110.25
380.158	63.15
380.369	65.19
380.579	63.15
380.789	67.24
380.999	75.43
381.21	18.09
381.42	140.97
381.63	57
381.84	18.09
382.05	48.81
382.261	24.23
382.471	-2.39
382.681	1.71
382.891	18.09
383.101	57
383.311	-31.06
383.521	75.43
383.731	46.76
383.941	50.86
384.151	136.87
384.361	91.82
384.571	50.86
384.781	18.09
384.991	71.34
385.201	71.34
385.411	26.28
385.621	26.28
385.831	13.99
386.041	7.85
386.251	1.71
386.461	71.34
386.671	102.06
386.881	114.34
387.091	20.14
387.301	38.57
387.511	11.95
387.72	44.71
387.93	3.75
388.14	38.57
388.35	44.71
388.56	40.62
388.769	9.9
388.979	79.53
389.189	48.81
389.399	104.11
389.609	-2.39
389.818	24.23
390.028	18.09
390.238	24.23
390.447	36.52
390.657	5.8
390.867	-10.58
391.076	54.95
391.286	93.87
391.496	-6.49
391.705	48.81
391.915	81.58
392.125	13.99
392.334	89.77
392.544	30.38
392.753	71.34
392.963	42.67
393.172	126.63
393.382	116.39
393.591	71.34
393.801	13.99
394.01	57
394.22	59.05
394.429	50.86
394.639	61.1
394.848	42.67
395.058	61.1
395.267	81.58
395.477	48.81
395.686	48.81
395.895	46.76
396.105	-49.49
396.314	91.82
396.524	-16.73
396.733	44.71
396.942	30.38
397.152	-0.34
397.361	67.24
397.57	52.91
397.78	44.71
397.989	71.34
398.198	42.67
398.407	57
398.617	112.3
398.826	118.44
399.035	50.86
399.244	71.34
399.453	138.92
399.663	104.11
399.872	145.06
400.081	48.81
400.29	59.05
400.499	67.24
400.708	50.86
400.917	52.91
401.127	91.82
401.336	5.8
401.545	59.05
401.754	57
401.963	13.99
402.172	-0.34
402.381	-0.34
402.59	54.95
402.799	71.34
403.008	91.82
403.217	83.63
403.426	126.63
403.635	36.52
403.844	71.34
404.053	67.24
404.262	52.91
404.471	120.49
404.68	71.34
404.888	79.53
405.097	73.39
405.306	93.87
405.515	71.34
405.724	132.78
405.933	75.43
406.142	175.78
406.35	44.71
406.559	161.45
406.768	114.34
406.977	93.87
407.185	93.87
407.394	108.2
407.603	149.16
407.812	138.92
408.02	161.45
408.229	122.54
408.438	120.49
408.646	165.54
408.855	100.01
409.064	97.96
409.272	91.82
409.481	145.06
409.69	147.11
409.898	126.63
410.107	155.3
410.315	179.88
410.524	171.69
410.733	188.07
410.941	278.18
411.15	280.23
411.358	159.4
411.567	216.74
411.775	216.74
411.984	220.84
412.192	239.27
412.401	198.31
412.609	261.8
412.818	286.37
413.026	333.48
413.234	349.86
413.443	235.18
413.651	296.61
413.86	274.09
414.068	292.52
414.276	353.96
414.485	345.77
414.693	310.95
414.901	253.61
415.11	425.64
415.318	392.87
415.526	380.58
415.734	437.92
415.943	411.3
416.151	487.08
416.359	499.36
416.567	409.25
416.776	505.51
416.984	480.93
417.192	505.51
417.4	607.91
417.608	552.61
417.817	556.71
418.025	609.95
418.233	638.62
418.441	560.8
418.649	655.01
418.857	679.58
419.065	681.63
419.273	671.39
419.481	710.3
419.689	765.6
419.897	788.13
420.105	767.65
420.313	835.23
420.521	839.33
420.729	796.32
420.937	941.72
421.145	1062.55
421.353	1033.88
421.561	982.68
421.769	1044.12
421.977	997.02
422.185	1058.46
422.393	1101.47
422.601	1263.26
422.809	1177.24
423.017	1123.99
423.224	1390.23
423.432	1242.78
423.64	1353.37
423.848	1431.19
424.056	1377.94
424.263	1472.15
424.471	1466
424.679	1545.88
424.887	1668.75
425.094	1695.38
425.302	1611.41
425.51	1760.91
425.718	1785.49
425.925	1906.32
426.133	1918.61
426.341	2035.34
426.548	2166.41
426.756	2043.53
426.964	2107.02
427.171	2244.23
427.379	2299.53
427.586	2295.43
427.794	2442.89
428.001	2471.56
428.209	2731.65
428.417	2545.28
428.624	2674.31
428.832	2731.65
429.039	2692.74
429.247	2713.22
429.454	2915.97
429.662	3112.57
429.869	2928.25
430.076	3030.65
430.284	3012.22
430.491	3223.16
430.699	3581.56
430.906	3378.81
431.114	3501.69
431.321	3722.87
431.528	3604.08
431.736	3962.48
431.943	4025.97
432.15	3835.5
432.358	4062.83
432.565	4181.61
432.772	4130.41
432.979	4472.42
433.187	4552.29
433.394	4464.23
433.601	4914.78
433.808	4796
434.016	4798.05
434.223	5011.04
434.43	5377.62
434.637	5232.22
434.844	5545.56
435.052	5754.45
435.259	5641.81
435.466	5764.69
435.673	5572.18
435.88	6018.64
436.087	6190.67
436.294	6186.57
436.501	6231.63
436.708	6264.4
436.915	6780.48
437.122	6796.87
437.329	6753.86
437.537	6950.46
437.743	7138.88
437.95	7194.17
438.157	7501.37
438.364	7704.12
438.571	7718.45
438.778	7667.25
438.985	8492.59
439.192	8087.09
439.399	8390.19
439.606	8252.97
439.813	8797.73
440.02	9041.44
440.227	8986.15
440.433	8873.51
440.64	9225.76
440.847	9051.68
441.054	9582.1
441.261	10042.9
441.467	9952.79
441.674	10202.64
441.881	10485.26
442.088	10544.65
442.294	10438.16
442.501	10688.01
442.708	10810.89
442.914	11331.07
443.121	11757.05
443.328	11322.88
443.534	12197.36
443.741	11990.52
443.948	11582.97
444.154	12875.24
444.361	12678.63
444.568	12768.74
444.774	12785.13
444.981	12967.4
445.187	13245.92
445.394	13807.06
445.6	13559.26
445.807	14966.21
446.013	14435.79
446.22	14466.51
446.426	15099.33
446.633	15332.8
446.839	16090.55
447.046	15283.65
447.252	16068.02
447.459	16125.36
447.665	16041.4
447.871	16702.89
448.078	17468.83
448.284	16954.79
448.491	16987.56
448.697	17675.68
448.903	18197.91
449.11	18103.7
449.316	17847.71
449.522	18150.81
449.728	18613.65
449.935	18779.53
450.141	19117.45
450.347	19225.99
450.553	18589.07
450.76	19000.71
450.966	19721.6
451.172	19613.06
451.378	20065.66
451.584	19400.07
451.791	19881.34
451.997	20051.32
452.203	20340.08
452.409	20571.5
452.615	20346.23
452.821	19438.98
453.027	19322.24
453.233	20292.98
453.44	19305.86
453.646	19645.82
453.852	19907.96
454.058	20215.16
454.264	19776.89
454.47	19744.13
454.676	19400.07
454.882	20063.61
455.088	18462.1
455.294	18587.02
455.5	18875.79
455.705	18875.79
455.911	18384.27
456.117	18017.69
456.323	17802.65
456.529	17055.14
456.735	17522.08
456.941	17204.64
457.147	16854.44
457.352	16215.48
457.558	16389.55
457.764	16209.33
457.97	15637.95
458.176	15435.2
458.381	15478.21
458.587	14597.58
458.793	14751.18
458.999	14028.24
459.204	14996.93
459.41	14640.59
459.616	13733.34
459.821	13637.08
460.027	13829.59
460.233	13344.22
460.438	12531.18
460.644	12647.91
460.85	12164.59
461.055	12019.19
461.261	12248.56
461.466	11083.27
461.672	10921.48
461.878	11290.11
462.083	10601.99
462.289	10309.13
462.494	10241.55
462.7	10124.82
462.905	9926.16
463.111	10112.53
463.316	10092.05
463.522	9803.29
463.727	10139.15
463.932	9948.69
464.138	9696.79
464.343	9838.1
464.549	9549.34
464.754	9911.83
464.959	9745.94
465.165	9801.24
465.37	9405.98
465.575	9147.94
465.781	9397.79
465.986	9510.43
466.191	9387.55
466.397	9090.59
466.602	8484.39
466.807	8926.75
467.012	8986.15
467.218	8793.64
467.423	8717.86
467.628	8793.64
467.833	9178.65
468.038	8728.1
468.244	8580.65
468.449	8861.22
468.654	8744.49
468.859	8613.42
469.064	8615.46
469.269	8250.92
469.474	8101.42
469.679	8435.24
469.885	8295.98
470.09	8279.6
470.295	8107.57
470.5	8162.86
470.705	8033.84
470.91	8025.65
471.115	7831.09
471.32	7929.39
471.525	7925.3
471.73	7566.9
471.935	7650.87
472.139	7534.14
472.344	7554.62
472.549	7437.88
472.754	7454.26
472.959	7208.51
473.164	7128.64
473.369	6997.57
473.574	7249.47
473.778	7175.74
473.983	6993.47
474.188	7054.91
474.393	6598.21
474.598	6796.87
474.802	6598.21
475.007	6485.58
475.212	6688.32
475.417	6510.15
475.621	6522.44
475.826	6592.07
476.031	6145.61
476.235	6110.8
476.44	6241.87
476.645	6096.46
476.849	6166.09
477.054	6202.96
477.259	5930.58
477.463	6110.8
477.668	5867.09
477.872	6069.84
478.077	5914.19
478.282	5666.39
478.486	5721.68
478.691	5695.06
478.895	5731.92
479.1	5576.28
479.304	5645.91
479.509	5473.88
479.713	5592.66
479.918	5348.95
480.122	5310.04
480.326	5351
480.531	5379.67
480.735	5408.34
480.94	5273.18
481.144	5451.35
481.348	5170.78
481.553	5172.83
481.757	5342.81
481.961	5338.71
482.166	5267.03
482.37	5303.9
482.574	5394.01
482.778	5113.44
482.983	5363.29
483.187	5262.94
483.391	5332.57
483.595	5277.27
483.8	5285.47
484.004	5168.73
484.208	5404.25
484.412	5164.64
484.616	5287.51
484.821	5127.77
485.025	5150.3
485.229	5295.71
485.433	5129.82
485.637	5232.22
485.841	5285.47
486.045	5209.69
486.249	5316.19
486.453	5307.99
486.657	5379.67
486.861	5195.36
487.065	5279.32
487.269	4963.93
487.473	5166.68
487.677	5226.07
487.881	5334.62
488.085	5248.6
488.289	5201.5
488.493	5277.27
488.697	5170.78
488.901	5342.81
489.105	5301.85
489.309	5299.8
489.512	5355.1
489.716	5307.99
489.92	5379.67
490.124	5213.79
490.328	5357.14
490.531	5322.33
490.735	5572.18
490.939	5262.94
491.143	5240.41
491.346	5447.26
491.55	5447.26
491.754	5426.78
491.958	5443.16
492.161	5615.19
492.365	5463.64
492.569	5627.48
492.772	5611.09
492.976	5576.28
493.18	5746.26
493.383	5742.16
493.587	5856.85
493.79	5686.87
493.994	5740.12
494.197	5738.07
494.401	5940.82
494.605	5817.94
494.808	6028.88
495.012	5918.29
495.215	6147.66
495.419	6102.61
495.622	6098.51
495.825	6125.13
496.029	6159.95
496.232	6266.44
496.436	6293.07
496.639	6397.51
496.843	6446.66
497.046	6620.74
497.249	6645.32
497.453	6673.99
497.656	6751.81
497.859	6739.52
498.063	6952.51
498.266	7001.66
498.469	7032.38
498.673	7239.23
498.876	7026.24
499.079	7132.73
499.282	6954.56
499.485	7288.38
499.689	7560.76
499.892	7525.94
500.095	7630.39
500.298	7687.73
500.501	7632.44
500.705	7839.28
500.908	8023.6
501.111	8252.97
501.314	8240.68
501.517	8152.62
501.72	8453.67
501.923	8463.91
502.126	8664.61
502.329	8525.35
502.532	8523.3
502.735	8781.35
502.938	8922.66
503.141	9102.88
503.344	8918.56
503.547	9111.07
503.75	9133.6
503.953	9360.92
504.156	9571.86
504.359	9354.78
504.562	9610.78
504.765	9815.57
504.968	10038.8
505.17	10133.01
505.373	9903.64
505.576	10135.06
505.779	10300.94
505.982	10544.65
506.185	10608.14
506.387	10814.98
506.59	10696.2
506.793	11083.27
506.996	10925.57
507.198	11341.31
507.401	11226.62
507.604	11490.81
507.807	11658.74
508.009	11695.61
508.212	11724.28
508.415	11843.06
508.617	12334.57
508.82	12062.19
509.022	12254.7
509.225	12400.11
509.428	12721.64
509.63	12629.48
509.833	12848.61
510.035	12844.52
510.238	12975.59
510.44	13106.66
510.643	13299.17
510.845	13608.41
511.048	13501.92
511.25	13903.32
511.453	13772.25
511.655	14190.03
511.858	14185.94
512.06	14147.03
512.262	14566.86
512.465	14460.37
512.667	14491.09
512.87	14953.93
513.072	15089.09
513.274	15189.44
513.477	15508.93
513.679	15408.58
513.881	15490.49
514.084	16047.54
514.286	16014.77
514.488	16131.51
514.69	16369.07
514.893	16627.12
515.095	16483.76
515.297	16661.93
515.499	16553.39
515.701	17132.97
515.904	17216.93
516.106	17407.39
516.308	17503.65
516.51	17687.96
516.712	17798.56
516.914	17757.6
517.116	18165.14
517.318	18275.73
517.52	18627.98
517.722	18394.51
517.925	18693.52
518.127	19064.2
518.329	19074.44
518.531	18924.94
518.733	19334.53
518.935	19447.17
519.136	19586.43
519.338	19907.96
519.54	20045.18
519.742	20198.77
519.944	20108.66
520.146	20444.53
520.348	20694.38
520.55	20575.6
520.752	21038.44
520.954	21276.01
521.155	20841.84
521.357	21384.55
521.559	21785.95
521.761	21751.13
521.963	21568.87
522.164	21824.86
522.366	22007.13
522.568	22113.63
522.77	22177.11
522.971	22662.48
523.173	22795.6
523.375	22531.41
523.576	22799.69
523.778	22625.62
523.98	23256.39
524.181	23143.75
524.383	23094.6
524.584	23471.43
524.786	23465.28
524.988	23792.96
525.189	23954.75
525.391	23954.75
525.592	23993.66
525.794	24008
525.995	23995.71
526.197	24079.68
526.398	24309.05
526.6	24491.32
526.801	24096.06
527.003	24565.04
527.204	24595.76
527.406	24786.22
527.607	24595.76
527.808	24915.25
528.01	24640.82
528.211	24851.76
528.412	25285.93
528.614	25218.35
528.815	25339.18
529.016	25562.4
529.218	25300.26
529.419	25396.52
529.62	25302.31
529.822	25556.26
530.023	25578.79
530.224	25654.56
530.425	25451.81
530.626	25560.36
530.828	25242.92
531.029	26207.51
531.23	25664.8
531.431	25625.89
531.632	25597.22
531.833	25937.18
532.035	26103.07
532.236	25693.47
532.437	25949.47
532.638	25799.97
532.839	26178.84
533.04	26043.68
533.241	25832.74
533.442	26123.55
533.643	25998.62
533.844	25660.71
534.045	26262.81
534.246	25838.88
534.447	25885.98
534.648	26049.82
534.849	26141.98
535.05	25765.15
535.251	26123.55
535.451	25935.13
535.652	26402.07
535.853	25996.57
536.054	25888.03
536.255	26326.3
536.456	25705.76
536.657	26488.09
536.857	25836.83
537.058	26301.72
537.259	26205.47
537.46	26133.79
537.66	26227.99
537.861	25996.57
538.062	26080.54
538.263	26199.32
538.463	26133.79
538.664	25900.32
538.865	26336.54
539.065	26445.08
539.266	26080.54
539.466	26350.87
539.667	25896.22
539.868	26285.34
540.068	26107.16
540.269	26119.45
540.469	26416.41
540.67	25982.24
540.87	25998.62
541.071	25863.46
541.271	26397.98
541.472	25873.7
541.672	25521.45
541.873	25724.19
542.073	25670.95
542.274	26141.98
542.474	25847.07
542.675	25900.32
542.875	26195.23
543.075	26041.63
543.276	25638.18
543.476	25974.05
543.676	26154.27
543.877	26096.92
544.077	26064.16
544.277	25625.89
544.478	25804.06
544.678	26156.32
544.878	25992.48
545.078	25779.49
545.279	25881.89
545.479	25720.1
545.679	26080.54
545.879	25683.23
546.079	25738.53
546.28	25765.15
546.48	25480.49
546.68	25564.45
546.88	25842.98
547.08	25750.82
547.28	25804.06
547.48	25353.51
547.68	25935.13
547.88	25460.01
548.081	26045.73
548.281	25713.95
548.481	25425.19
548.681	25867.55
548.881	25611.56
549.081	25634.08
549.28	25482.53
549.48	25742.63
549.68	25496.87
549.88	26129.69
550.08	25388.33
550.28	25498.92
550.48	25316.65
550.68	25953.57
550.88	25441.57
551.08	25824.54
551.279	25554.21
551.479	25310.5
551.679	25552.16
551.879	25371.94
552.079	25722.15
552.278	25652.52
552.478	25373.99
552.678	25429.29
552.878	25945.37
553.077	25730.34
553.277	25371.94
553.477	25636.13
553.676	25560.36
553.876	25367.85
554.076	25482.53
554.275	25118
554.475	25036.08
554.674	25539.88
554.874	25144.62
555.074	25265.45
555.273	25521.45
555.473	25373.99
555.672	25281.83
555.872	25208.11
556.071	25015.6
556.271	25498.92
556.47	25253.16
556.67	24872.24
556.869	25120.04
557.068	25072.94
557.268	25234.73
557.467	25277.74
557.667	25017.64
557.866	24890.67
558.065	25226.54
558.265	24798.51
558.464	24827.18
558.663	24923.44
558.863	24528.18
559.062	24890.67
559.261	24644.91
559.461	25068.84
559.66	24587.57
559.859	24732.98
560.058	24474.93
560.258	24849.71
560.457	24440.12
560.656	24759.6
560.855	24401.21
561.054	24644.91
561.253	24399.16
561.453	24573.24
561.652	24382.77
561.851	24591.67
562.05	24368.44
562.249	24495.41
562.448	24624.43
562.647	24679.73
562.846	24405.3
563.045	24282.42
563.244	23985.47
563.443	24479.03
563.642	23893.31
563.841	24331.58
564.04	24079.68
564.239	24323.38
564.438	24132.92
564.637	23938.37
564.836	23870.78
565.035	23895.36
565.234	24229.18
565.432	23866.69
565.631	23866.69
565.83	23852.35
566.029	23766.34
566.228	23588.16
566.427	23782.72
566.625	23645.51
566.824	23524.68
567.023	23659.84
567.222	23393.61
567.42	23620.93
567.619	23424.33
567.818	23450.95
568.016	23362.89
568.215	23909.69
568.414	23256.39
568.612	23496
568.811	23057.74
569.01	23215.43
569.208	23133.51
569.407	23203.14
569.605	23213.38
569.804	23049.55
570.002	23004.49
570.201	23053.64
570.4	22877.52
570.598	22824.27
570.797	22922.57
570.995	22791.5
571.193	22402.39
571.392	22801.74
571.59	22068.57
571.789	22457.68
571.987	22818.13
572.186	22463.83
572.384	22416.72
572.582	22664.53
572.781	22558.03
572.979	22011.23
573.177	22179.16
573.376	22236.5
573.574	22275.41
573.772	22168.92
573.971	21839.2
574.169	21855.58
574.367	22031.71
574.565	21783.9
574.763	22062.43
574.962	22043.99
575.16	21515.62
575.358	22050.14
575.556	21495.14
575.754	21503.33
575.952	21257.57
576.151	21425.51
576.349	21466.47
576.547	21589.35
576.745	21302.63
576.943	21513.57
577.141	21302.63
577.339	21372.26
577.537	20903.28
577.735	21083.5
577.933	20960.62
578.131	21304.68
578.329	21020.01
578.527	21001.58
578.725	21112.17
578.923	20872.56
579.121	20583.79
579.319	20591.98
579.516	20956.52
579.714	20727.15
579.912	20692.33
580.11	20567.41
580.308	20452.72
580.506	20444.53
580.704	20624.75
580.901	20348.28
581.099	20518.26
581.297	20335.99
581.495	20254.07
581.692	20069.75
581.89	20166.01
582.088	20237.69
582.285	20034.94
582.483	19938.68
582.681	19805.56
582.878	19930.49
583.076	19645.82
583.274	19725.69
583.471	19754.37
583.669	19676.54
583.866	19654.01
584.064	19719.55
584.262	19254.66
584.459	19576.19
584.657	19447.17
584.854	19524.99
585.052	19273.09
585.249	18941.32
585.447	19496.32
585.644	19139.97
585.841	19150.21
586.039	19146.12
586.236	18849.16
586.434	18935.18
586.631	19174.79
586.828	18857.35
587.026	18711.95
587.223	18869.64
587.42	19043.72
587.618	18693.52
587.815	18488.72
588.012	18558.35
588.21	18496.91
588.407	18496.91
588.604	18347.41
588.801	18554.26
588.999	18306.45
589.196	18206.1
589.393	18138.52
589.59	18300.31
589.787	17927.58
589.984	18113.94
590.182	17823.13
590.379	18115.99
590.576	18034.07
590.773	17986.97
590.97	17964.44
591.167	17925.53
591.364	17620.38
591.561	17796.51
591.758	17567.13
591.955	17669.53
592.152	17556.89
592.349	17397.15
592.546	17431.97
592.743	17280.42
592.94	16979.37
593.137	17411.49
593.334	17243.56
593.531	17110.44
593.727	17155.49
593.924	17155.49
594.121	16997.8
594.318	17114.53
594.515	16831.91
594.712	17178.02
594.908	16475.57
595.105	16844.2
595.302	16784.81
595.499	16831.91
595.696	16676.27
595.892	16696.75
596.089	16637.36
596.286	16575.92
596.482	16598.45
596.679	16598.45
596.876	16563.63
597.072	16352.69
597.269	16240.05
597.466	16176.56
597.662	16049.59
597.859	16162.23
598.055	16483.76
598.252	15947.19
598.448	16000.44
598.645	16125.36
598.841	16121.27
599.038	16055.73
599.234	15910.33
599.431	15646.14
599.627	15830.46
599.824	15889.85
600.02	15592.89
600.217	15762.87
600.413	15431.1
600.609	15246.79
600.806	15459.77
601.002	15709.63
601.198	15197.63
601.395	15330.75
601.591	15097.28
601.787	15283.65
601.984	15171.01
602.18	15498.69
602.376	14955.97
602.572	15048.13
602.769	14980.55
602.965	14845.38
603.161	15009.22
603.357	14929.35
603.553	14964.17
603.75	14892.49
603.946	14675.4
604.142	14902.73
604.338	14495.18
604.534	14714.31
604.73	14548.43
604.926	14472.65
605.122	14505.42
605.318	14317.01
605.514	14323.15
605.71	14388.69
605.906	14206.42
606.102	14329.3
606.298	14155.22
606.494	14114.26
606.69	14351.82
606.886	14151.12
607.082	13936.09
607.278	14239.19
607.474	13813.21
607.67	14187.99
607.866	13888.98
608.062	13878.74
608.257	13719
608.453	13733.34
608.649	13723.1
608.845	13897.17
609.041	13759.96
609.236	13878.74
609.432	13600.22
609.628	13655.51
609.824	13686.23
610.019	13417.95
610.215	13624.79
610.411	13467.1
610.606	13501.92
610.802	13628.89
610.998	13518.3
611.193	13307.36
611.389	13407.71
611.584	13397.47
611.78	13313.5
611.976	13622.75
612.171	13077.99
612.367	13379.04
612.562	13417.95
612.758	13231.58
612.953	13092.32
613.149	13278.69
613.344	13211.11
613.539	13102.56
613.735	13016.55
613.93	12910.05
614.126	12928.49
614.321	13018.6
614.517	12801.51
614.712	12891.62
614.907	12832.23
615.103	12879.33
615.298	12867.05
615.493	12875.24
615.688	12758.5
615.884	12989.92
616.079	12834.28
616.274	12680.68
616.47	12596.71
616.665	12690.92
616.86	12473.84
617.055	12596.71
617.25	12555.76
617.445	12367.34
617.641	12500.46
617.836	12666.35
618.031	12152.31
618.226	12479.98
618.421	12303.85
618.616	12461.55
618.811	12158.45
619.006	12430.83
619.201	11886.07
619.396	12144.11
619.591	11890.17
619.786	12029.43
619.981	11847.16
620.176	11867.64
620.371	11859.45
620.566	11695.61
620.761	11830.77
620.956	11906.55
621.151	11625.98
621.346	11912.69
621.541	11679.22
621.735	11550.2
621.93	11425.28
622.125	11447.8
622.32	11218.43
622.515	11226.62
622.709	11154.94
622.904	11156.99
623.099	11226.62
623.294	11212.29
623.488	10966.53
623.683	10903.04
623.878	10835.46
624.072	10860.04
624.267	10604.04
624.462	10731.01
624.656	10458.64
624.851	10558.99
625.046	10683.91
625.24	10583.56
625.435	10532.36
625.629	10493.45
625.824	10264.08
626.018	10317.33
626.213	10176.02
626.407	10221.07
626.602	9946.64
626.796	10159.63
626.991	10053.14
627.185	9922.07
627.38	9829.91
627.574	9768.47
627.768	9704.98
627.963	9741.85
628.157	9629.21
628.352	9629.21
628.546	9580.06
628.74	9571.86
628.935	9385.5
629.129	9434.65
629.323	9381.4
629.517	9139.74
629.712	9408.03
629.906	9367.07
630.1	9047.58
630.294	9115.17
630.489	9084.45
630.683	9092.64
630.877	8902.18
631.071	8853.03
631.265	8914.47
631.459	8936.99
631.653	8885.8
631.848	8939.04
632.042	8699.43
632.236	8728.1
632.43	8724.01
632.624	8887.84
632.818	8681
633.012	8455.72
633.206	8603.18
633.4	8398.38
633.594	8283.69
633.788	8338.99
633.982	8336.94
634.176	8379.95
634.369	8220.21
634.563	8199.73
634.757	7921.2
634.951	8082.99
635.145	8062.51
635.339	8175.15
635.533	8166.96
635.726	7904.82
635.92	7925.3
636.114	7687.73
636.308	7626.29
636.501	7824.95
636.695	7730.74
636.889	7835.19
637.083	7779.89
637.276	7587.38
637.47	7550.52
637.664	7827
637.857	7509.56
638.051	7435.83
638.244	7419.45
638.438	7560.76
638.632	7323.19
638.825	7261.76
639.019	7296.57
639.212	7292.48
639.406	7218.75
639.599	6977.09
639.793	7116.35
639.986	6921.79
640.18	7243.32
640.373	7091.77
640.567	6737.48
640.76	7032.38
640.954	6825.54
641.147	6833.73
641.34	6665.8
641.534	6772.29
641.727	6815.3
641.92	6794.82
642.114	6710.85
642.307	6704.71
642.5	6606.41
642.694	6608.45
642.887	6577.73
643.08	6553.16
643.273	6291.02
643.467	6364.75
643.66	6243.92
643.853	6166.09
644.046	6256.2
644.239	6252.11
644.432	6207.05
644.626	6084.17
644.819	5897.81
645.012	6129.23
645.205	6047.31
645.398	6088.27
645.591	5834.32
645.784	6045.26
645.977	5914.19
646.17	5959.25
646.363	5938.77
646.556	5742.16
646.749	5768.79
646.942	5772.88
647.135	5607
647.328	5672.53
647.521	5807.7
647.714	5625.43
647.907	5715.54
648.099	5637.72
648.292	5520.98
648.485	5555.8
648.678	5396.06
648.871	5514.84
649.064	5463.64
649.256	5338.71
649.449	5475.93
649.642	5367.38
649.835	5394.01
650.027	5291.61
650.22	5367.38
650.413	5269.08
650.605	5375.58
650.798	5191.26
650.991	5183.07
651.183	5146.2
651.376	4965.98
651.568	5064.29
651.761	4939.36
651.954	5066.33
652.146	5037.66
652.339	4994.65
652.531	4976.22
652.724	4836.96
652.916	4697.7
653.109	4849.25
653.301	4871.78
653.494	4828.77
653.686	4720.23
653.879	4755.04
654.071	4785.76
654.263	4564.58
654.456	4703.84
654.648	4744.8
654.84	4576.87
655.033	4615.78
655.225	4650.6
655.417	4408.94
655.61	4642.4
655.802	4484.71
655.994	4345.45
656.186	4394.6
656.379	4501.09
656.571	4427.37
656.763	4376.17
656.955	4292.2
657.148	4327.02
657.34	4374.12
657.532	4179.56
657.724	4298.35
657.916	4316.78
658.108	4157.04
658.3	4066.92
658.492	4177.51
658.684	4036.21
658.876	4195.95
659.068	4093.55
659.26	4005.49
659.452	4075.12
659.644	4056.68
659.836	3858.03
660.028	3804.78
660.22	3917.42
660.412	3835.5
660.604	3847.79
660.796	3778.16
660.988	3786.35
661.18	3722.87
661.372	3726.96
661.563	3718.77
661.755	3630.71
661.947	3686
662.139	3620.47
662.331	3776.11
662.522	3815.02
662.714	3675.76
662.906	3761.78
663.097	3694.19
663.289	3532.4
663.481	3630.71
663.673	3626.61
663.864	3393.14
664.056	3442.29
664.247	3634.8
664.439	3423.86
664.631	3366.52
664.822	3501.69
665.014	3270.26
665.205	3456.63
665.397	3366.52
665.588	3393.14
665.78	3307.13
665.971	3319.42
666.163	3274.36
666.354	3294.84
666.546	3229.31
666.737	3245.69
666.929	3169.91
667.12	3186.3
667.311	3208.83
667.503	3223.16
667.694	3178.11
667.885	3053.18
668.077	2999.93
668.268	3085.95
668.459	3108.48
668.651	3075.71
668.842	3034.75
669.033	2969.21
669.224	2956.93
669.416	3077.76
669.607	2991.74
669.798	2934.4
669.989	2958.97
670.18	2920.06
670.371	2956.93
670.563	2963.07
670.754	2983.55
670.945	2838.14
671.136	2827.9
671.327	2838.14
671.518	2903.68
671.709	2733.7
671.9	2786.94
672.091	2741.89
672.282	2774.66
672.473	2823.81
672.664	2895.49
672.855	2741.89
673.046	2778.75
673.237	2791.04
673.428	2725.51
673.619	2639.49
673.809	2690.69
674	2735.74
674.191	2625.15
674.382	2510.47
674.573	2545.28
674.764	2588.29
674.954	2612.87
675.145	2627.2
675.336	2565.76
675.527	2567.81
675.717	2557.57
675.908	2494.08
676.099	2530.95
676.289	2565.76
676.48	2487.94
676.671	2571.91
676.861	2633.35
677.052	2432.65
677.243	2391.69
677.433	2569.86
677.624	2551.43
677.814	2440.84
678.005	2520.71
678.195	2547.33
678.386	2428.55
678.576	2436.74
678.767	2422.41
678.957	2438.79
679.148	2360.97
679.338	2365.06
679.529	2428.55
679.719	2512.52
679.909	2385.54
680.1	2395.78
680.29	2424.45
680.481	2401.93
680.671	2344.58
680.861	2299.53
681.052	2262.66
681.242	2315.91
681.432	2297.48
681.622	2260.62
681.813	2303.62
682.003	2287.24
682.193	2260.62
682.383	2268.81
682.573	2342.53
682.764	2227.85
682.954	2236.04
683.144	2354.82
683.334	2274.95
683.524	2254.47
683.714	2277
683.904	2238.09
684.094	2248.33
684.284	2377.35
684.474	2219.66
684.664	2164.36
684.854	2207.37
685.044	2227.85
685.234	2119.31
685.424	2307.72
685.614	2240.14
685.804	2180.75
685.994	2180.75
686.184	2317.96
686.374	2266.76
686.564	2219.66
686.753	2088.59
686.943	2168.46
687.133	2178.7
687.323	2076.3
687.513	2154.12
687.702	2145.93
687.892	2064.01
688.082	2166.41
688.272	2092.68
688.461	2154.12
688.651	2086.54
688.841	1984.14
689.03	2127.5
689.22	2035.34
689.41	2074.25
689.599	1904.27
689.789	2117.26
689.979	1973.9
690.168	1961.61
690.358	2027.15
690.547	2035.34
690.737	2066.06
690.926	1949.32
691.116	1973.9
691.305	1963.66
691.495	1973.9
691.684	1949.32
691.874	1980.04
692.063	1965.71
692.252	1996.43
692.442	1971.85
692.631	1967.76
692.82	1949.32
693.01	1920.65
693.199	1912.46
693.388	1951.37
693.578	1959.56
693.767	1885.84
693.956	1967.76
694.146	1914.51
694.335	1867.41
694.524	1848.97
694.713	1965.71
694.902	1840.78
695.092	1875.6
695.281	1824.4
695.47	1920.65
695.659	1826.45
695.848	1808.02
696.037	1885.84
696.226	1805.97
696.415	1861.26
696.604	1750.67
696.793	1834.64
696.982	1830.54
697.171	1726.1
697.36	1855.12
697.549	1730.19
697.738	1742.48
697.927	1832.59
698.116	1765.01
698.305	1783.44
698.494	1724.05
698.683	1775.25
698.872	1734.29
699.061	1826.45
699.25	1769.1
699.438	1726.1
699.627	1707.66
699.816	1724.05
700.005	1795.73
700.193	1717.9
700.382	1701.52
700.571	1748.62
700.76	1676.95
700.948	1728.14
701.137	1736.34
701.326	1668.75
701.514	1615.51
701.703	1648.27
701.892	1609.36
702.08	1693.33
702.269	1605.27
702.457	1656.47
702.646	1549.97
702.834	1652.37
703.023	1709.71
703.212	1638.03
703.4	1705.62
703.589	1674.9
703.777	1654.42
703.965	1709.71
704.154	1621.65
704.342	1703.57
704.531	1670.8
704.719	1572.5
704.907	1537.68
705.096	1590.93
705.284	1556.11
705.472	1652.37
705.661	1552.02
705.849	1599.12
706.037	1537.68
706.226	1584.79
706.414	1564.31
706.602	1455.76
706.79	1533.59
706.979	1513.11
707.167	1490.58
707.355	1576.59
707.543	1537.68
707.731	1447.57
707.919	1601.17
708.107	1496.72
708.296	1513.11
708.484	1406.61
708.672	1527.44
708.86	1562.26
709.048	1504.92
709.236	1549.97
709.424	1414.81
709.612	1531.54
709.8	1447.57
709.988	1439.38
710.176	1425.04
710.364	1605.27
710.551	1461.91
710.739	1431.19
710.927	1453.72
711.115	1459.86
711.303	1474.2
711.491	1527.44
711.679	1412.76
711.866	1379.99
712.054	1531.54
712.242	1423
712.43	1394.33
712.617	1406.61
712.805	1425.04
712.993	1470.1
713.181	1341.08
713.368	1326.74
713.556	1355.41
713.744	1343.13
713.931	1406.61
714.119	1326.74
714.306	1375.89
714.494	1339.03
714.682	1375.89
714.869	1400.47
715.057	1351.32
715.244	1341.08
715.432	1347.22
715.619	1300.12
715.807	1367.7
715.994	1404.57
716.182	1318.55
716.369	1384.09
716.556	1269.4
716.744	1359.51
716.931	1267.35
717.119	1324.69
717.306	1265.3
717.493	1332.89
717.681	1298.07
717.868	1332.89
718.055	1269.4
718.242	1310.36
718.43	1261.21
718.617	1304.21
718.804	1353.37
718.991	1214.1
719.179	1277.59
719.366	1224.34
719.553	1228.44
719.74	1201.82
719.927	1312.41
720.114	1242.78
720.301	1181.34
720.488	1248.92
720.676	1236.63
720.863	1242.78
721.05	1242.78
721.237	1226.39
721.424	1271.45
721.611	1214.1
721.798	1132.19
721.985	1173.14
722.172	1099.42
722.358	1189.53
722.545	1156.76
722.732	1179.29
722.919	1259.16
723.106	1113.75
723.293	1126.04
723.48	1140.38
723.667	1130.14
723.853	1164.95
724.04	1169.05
724.227	1060.51
724.414	1103.51
724.6	1189.53
724.787	1097.37
724.974	1189.53
725.161	1175.19
725.347	1060.51
725.534	1185.43
725.72	1087.13
725.907	1207.96
726.094	1113.75
726.28	1132.19
726.467	1205.91
726.653	1201.82
726.84	1136.28
727.027	1119.9
727.213	1101.47
727.4	1150.62
727.586	1083.03
727.773	1171.1
727.959	1115.8
728.145	1107.61
728.332	1187.48
728.518	1193.62
728.705	1140.38
728.891	1078.94
729.077	1089.18
729.264	1056.41
729.45	1214.1
729.636	1119.9
729.823	1121.95
730.009	1058.46
730.195	1040.03
730.382	1144.47
730.568	1150.62
730.754	1089.18
730.94	1062.55
731.126	1097.37
731.313	1144.47
731.499	1031.83
731.685	1066.65
731.871	1111.71
732.057	1085.08
732.243	1044.12
732.429	1083.03
732.615	1054.36
732.801	954.01
732.987	1066.65
733.173	1093.27
733.359	1021.6
733.545	1046.17
733.731	1046.17
733.917	1093.27
734.103	1146.52
734.289	1037.98
734.475	1087.13
734.661	1062.55
734.847	1132.19
735.033	982.68
735.219	1107.61
735.404	1003.16
735.59	1011.36
735.776	986.78
735.962	1128.09
736.148	1005.21
736.333	1076.89
736.519	984.73
736.705	1033.88
736.89	980.64
737.076	1033.88
737.262	982.68
737.447	976.54
737.633	1003.16
737.819	1076.89
738.004	992.92
738.19	1033.88
738.375	1035.93
738.561	986.78
738.747	964.25
738.932	1017.5
739.118	956.06
739.303	1068.7
739.489	990.88
739.674	1005.21
739.859	927.39
740.045	1029.79
740.23	1001.12
740.416	900.76
740.601	986.78
740.786	990.88
740.972	894.62
741.157	1001.12
741.342	974.49
741.528	931.48
741.713	921.24
741.898	1019.55
742.084	968.35
742.269	925.34
742.454	947.87
742.639	994.97
742.824	898.72
743.01	900.76
743.195	835.23
743.38	915.1
743.565	898.72
743.75	882.33
743.935	970.4
744.12	964.25
744.305	931.48
744.49	898.72
744.675	958.11
744.86	872.09
745.045	816.8
745.23	886.43
745.415	810.65
745.6	925.34
745.785	937.63
745.97	890.53
746.155	861.85
746.34	859.81
746.525	792.22
746.71	792.22
746.895	857.76
747.079	816.8
747.264	886.43
747.449	892.57
747.634	753.31
747.819	837.28
748.003	837.28
748.188	794.27
748.373	837.28
748.557	806.56
748.742	868
748.927	726.69
749.111	855.71
749.296	790.17
749.481	886.43
749.665	698.02
749.85	865.95
750.034	763.55
750.219	794.27
750.404	792.22
750.588	714.4
750.773	738.98
750.957	800.41
751.141	751.26
751.326	767.65
751.51	824.99
751.695	769.69
751.879	816.8
752.064	728.74
752.248	759.46
752.432	810.65
752.617	687.78
752.801	775.84
752.985	665.25
753.17	708.26
753.354	700.06
753.538	663.2
753.722	779.93
753.907	665.25
754.091	788.13
754.275	695.97
754.459	691.87
754.643	712.35
754.828	673.44
755.012	646.82
755.196	630.43
755.38	681.63
755.564	601.76
755.748	685.73
755.932	618.15
756.116	691.87
756.3	644.77
756.484	659.1
756.668	607.91
756.852	630.43
757.036	573.09
757.22	624.29
757.404	614.05
757.588	683.68
757.772	560.8
757.956	661.15
758.14	681.63
758.323	628.39
758.507	577.19
758.691	585.38
758.875	622.24
759.059	614.05
759.242	571.04
759.426	558.75
759.61	515.75
759.794	554.66
759.977	628.39
760.161	519.84
760.345	603.81
760.528	638.62
760.712	556.71
760.895	530.08
761.079	544.42
761.263	573.09
761.446	521.89
761.63	515.75
761.813	564.9
761.997	528.03
762.18	591.52
762.364	476.84
762.547	515.75
762.731	497.32
762.914	517.79
763.098	538.27
763.281	548.51
763.464	568.99
763.648	542.37
763.831	495.27
764.015	528.03
764.198	523.94
764.381	509.6
764.564	509.6
764.748	485.03
764.931	581.28
765.114	558.75
765.297	513.7
765.481	485.03
765.664	560.8
765.847	497.32
766.03	558.75
766.213	521.89
766.397	540.32
766.58	448.16
766.763	450.21
766.946	511.65
767.129	480.93
767.312	503.46
767.495	456.36
767.678	439.97
767.861	454.31
768.044	390.82
768.227	489.12
768.41	505.51
768.593	468.64
768.776	525.99
768.959	458.4
769.142	427.68
769.324	421.54
769.507	435.88
769.69	401.06
769.873	476.84
770.056	401.06
770.239	480.93
770.421	448.16
770.604	462.5
770.787	419.49
770.97	435.88
771.152	429.73
771.335	448.16
771.518	472.74
771.7	540.32
771.883	396.96
772.066	411.3
772.248	384.68
772.431	396.96
772.613	396.96
772.796	360.1
772.978	423.59
773.161	464.55
773.343	411.3
773.526	431.78
773.708	339.62
773.891	394.92
774.073	509.6
774.256	435.88
774.438	388.77
774.621	368.29
774.803	384.68
774.985	399.01
775.168	386.72
775.35	345.77
775.532	421.54
775.715	343.72
775.897	347.81
776.079	368.29
776.261	333.48
776.444	272.04
776.626	317.09
776.808	337.57
776.99	384.68
777.173	353.96
777.355	339.62
777.537	382.63
777.719	335.53
777.901	325.29
778.083	382.63
778.265	356.01
778.447	380.58
778.629	323.24
778.811	321.19
778.993	306.85
779.175	286.37
779.357	272.04
779.539	358.05
779.721	257.7
779.903	349.86
780.085	368.29
780.267	251.56
780.449	356.01
780.631	313
780.812	280.23
780.994	222.89
781.176	323.24
781.358	298.66
781.54	298.66
781.721	278.18
781.903	347.81
782.085	276.13
782.267	317.09
782.448	280.23
782.63	310.95
782.812	278.18
782.993	300.71
783.175	321.19
783.357	265.89
783.538	300.71
783.72	272.04
783.901	292.52
784.083	292.52
784.264	237.22
784.446	257.7
784.627	302.76
784.809	263.85
784.99	259.75
785.172	290.47
785.353	337.57
785.535	286.37
785.716	179.88
785.897	243.37
786.079	265.89
786.26	235.18
786.441	259.75
786.623	212.65
786.804	208.55
786.985	253.61
787.167	284.33
787.348	222.89
787.529	237.22
787.71	212.65
787.891	276.13
788.073	222.89
788.254	157.35
788.435	251.56
788.616	186.02
788.797	204.46
788.978	239.27
789.159	183.98
789.34	179.88
789.522	245.41
789.703	226.98
789.884	212.65
790.065	212.65
790.246	241.32
790.427	183.98
790.607	247.46
790.788	169.64
790.969	235.18
791.15	224.94
791.331	163.5
791.512	216.74
791.693	206.5
791.874	181.93
792.054	226.98
792.235	229.03
792.416	218.79
792.597	247.46
792.778	237.22
792.958	216.74
793.139	106.15
793.32	208.55
793.5	188.07
793.681	179.88
793.862	175.78
794.042	118.44
794.223	181.93
794.404	206.5
794.584	153.26
794.765	145.06
794.945	157.35
795.126	155.3
795.306	183.98
795.487	147.11
795.667	128.68
795.848	177.83
796.028	128.68
796.209	229.03
796.389	175.78
796.57	222.89
796.75	220.84
796.93	224.94
797.111	138.92
797.291	83.63
797.471	186.02
797.652	95.91
797.832	138.92
798.012	120.49
798.192	179.88
798.373	179.88
798.553	114.34
798.733	149.16
798.913	89.77
799.093	151.21
799.274	81.58
799.454	169.64
799.634	202.41
799.814	145.06
799.994	175.78
800.174	124.58
800.354	149.16
800.534	132.78
800.714	120.49
800.894	138.92
801.074	171.69
801.254	120.49
801.434	108.2
801.614	145.06
801.794	124.58
801.974	386.72
802.154	100.01
802.334	161.45
802.514	106.15
802.693	145.06
802.873	136.87
803.053	106.15
803.233	112.3
803.413	93.87
803.592	61.1
803.772	140.97
803.952	3.75
804.131	155.3
804.311	181.93
804.491	134.82
804.67	163.5
804.85	163.5
805.03	93.87
805.209	171.69
805.389	151.21
805.568	108.2
805.748	89.77
805.928	116.39
806.107	132.78
806.287	42.67
806.466	63.15
806.646	126.63
806.825	73.39
807.004	147.11
807.184	77.48
807.363	102.06
807.543	95.91
807.722	130.73
807.901	128.68
808.081	155.3
808.26	79.53
808.439	147.11
808.619	73.39
808.798	122.54
808.977	145.06
809.156	126.63
809.336	122.54
809.515	118.44
809.694	75.43
809.873	114.34
810.052	206.5
810.231	128.68
810.411	120.49
810.59	192.17
810.769	153.26
810.948	194.22
811.127	102.06
811.306	91.82
811.485	100.01
811.664	73.39
811.843	116.39
812.022	130.73
812.201	57
812.38	122.54
812.559	50.86
812.737	67.24
812.916	5.8
813.095	20.14
813.274	124.58
813.453	126.63
813.632	118.44
813.811	104.11
813.989	155.3
814.168	40.62
814.347	97.96
814.526	120.49
814.704	153.26
814.883	95.91
815.062	104.11
815.24	81.58
815.419	134.82
815.598	79.53
815.776	67.24
815.955	95.91
816.133	81.58
816.312	69.29
816.49	52.91
816.669	112.3
816.847	46.76
817.026	71.34
817.204	69.29
817.383	73.39
817.561	71.34
817.74	124.58
817.918	44.71
818.097	52.91
818.275	13.99
818.453	114.34
818.632	87.72
818.81	75.43
818.988	95.91
819.167	38.57
819.345	95.91
819.523	73.39
819.701	122.54
819.879	100.01
820.058	102.06
820.236	57
820.414	48.81
820.592	73.39
820.77	3.75
820.948	52.91
821.127	128.68
821.305	63.15
821.483	32.43
821.661	46.76
821.839	122.54
822.017	57
822.195	67.24
822.373	118.44
822.551	61.1
822.729	85.67
822.907	61.1
823.085	7.85
823.262	57
823.44	38.57
823.618	46.76
823.796	54.95
823.974	16.04
824.152	46.76
824.329	69.29
824.507	71.34
824.685	38.57
824.863	89.77
825.04	9.9
825.218	104.11
825.396	87.72
825.574	36.52
825.751	36.52
825.929	87.72
826.107	44.71
826.284	71.34
826.462	26.28
826.639	52.91
826.817	30.38
826.994	63.15
827.172	104.11
827.349	44.71
827.527	85.67
827.704	61.1
827.882	44.71
828.059	73.39
828.237	59.05
828.414	30.38
828.591	-29.01
828.769	67.24
828.946	69.29
829.124	40.62
829.301	32.43
829.478	106.15
829.655	5.8
829.833	40.62
830.01	40.62
830.187	130.73
830.364	28.33
830.542	20.14
830.719	57
830.896	71.34
831.073	44.71
831.25	87.72
831.427	65.19
831.604	87.72
831.782	89.77
831.959	46.76
832.136	95.91
832.313	110.25
832.49	11.95
832.667	65.19
832.844	22.19
833.021	63.15
833.198	13.99
833.374	104.11
833.551	42.67
833.728	71.34
833.905	140.97
834.082	1.71
834.259	61.1
834.436	65.19
834.612	13.99
834.789	87.72
834.966	87.72
835.143	73.39
835.319	52.91
835.496	22.19
835.673	104.11
835.85	59.05
836.026	61.1
836.203	40.62
836.38	32.43
836.556	100.01
836.733	-29.01
836.909	44.71
837.086	67.24
837.262	106.15
837.439	-10.58
837.616	22.19
837.792	69.29
837.968	-18.77
838.145	67.24
838.321	11.95
838.498	50.86
838.674	114.34
838.851	79.53
839.027	-8.53
839.203	34.47
839.38	87.72
839.556	-0.34
839.732	65.19
839.909	44.71
840.085	18.09
840.261	-35.16
840.437	106.15
840.614	38.57
840.79	30.38
840.966	-65.88
841.142	26.28
841.318	52.91
841.494	112.3
841.671	57
841.847	20.14
842.023	13.99
842.199	24.23
842.375	91.82
842.551	81.58
842.727	11.95
842.903	116.39
843.079	50.86
843.255	104.11
843.431	7.85
843.607	44.71
843.783	-41.3
843.959	32.43
844.134	50.86
844.31	73.39
844.486	52.91
844.662	95.91
844.838	-10.58
845.013	50.86
845.189	1.71
845.365	63.15
845.541	42.67
845.716	9.9
845.892	122.54
846.068	69.29
846.244	57
846.419	7.85
846.595	-22.87
846.77	22.19
846.946	104.11
847.122	91.82
847.297	9.9
847.473	83.63
847.648	1.71
847.824	73.39
847.999	50.86
848.175	83.63
848.35	69.29
848.526	34.47
848.701	46.76
848.876	9.9
849.052	83.63
849.227	38.57
849.403	13.99
849.578	-49.49
849.753	-18.77
849.929	26.28
850.104	32.43
850.279	-0.34
850.454	87.72
850.63	79.53
850.805	30.38
850.98	42.67
851.155	65.19
851.33	112.3
851.505	11.95
851.681	42.67
851.856	9.9
852.031	20.14
852.206	24.23
852.381	112.3
852.556	7.85
852.731	65.19
852.906	-31.06
853.081	89.77
853.256	5.8
853.431	30.38
853.606	54.95
853.781	50.86
853.956	54.95
854.131	-14.68
854.305	-31.06
854.48	65.19
854.655	20.14
854.83	79.53
855.005	-8.53
855.18	18.09
855.354	20.14
855.529	5.8
855.704	63.15
855.879	89.77
856.053	-57.68
856.228	34.47
856.403	-0.34
856.577	13.99
856.752	16.04
856.926	46.76
857.101	13.99
857.276	46.76
857.45	42.67
857.625	-33.11
857.799	77.48
857.974	48.81
858.148	34.47
858.323	54.95
858.497	5.8
858.672	69.29
858.846	104.11
859.02	79.53
859.195	1.71
859.369	57
859.543	34.47
859.718	44.71
859.892	36.52
860.066	65.19
860.241	9.9
860.415	-49.49
860.589	71.34
860.763	46.76
860.938	30.38
861.112	93.87
861.286	1.71
861.46	30.38
861.634	-26.96
861.808	7.85
861.982	63.15
862.157	42.67
862.331	9.9
862.505	-20.82
862.679	-33.11
862.853	13.99
863.027	7.85
863.201	87.72
863.375	-69.97
863.549	-6.49
863.722	50.86
863.896	36.52
864.07	87.72
864.244	11.95
864.418	50.86
864.592	-0.34
864.766	54.95
864.939	79.53
865.113	-6.49
865.287	40.62
865.461	-4.44
865.634	75.43
865.808	73.39
865.982	-18.77
866.156	-26.96
866.329	24.23
866.503	24.23
866.676	57
866.85	24.23
867.024	20.14
867.197	-6.49
867.371	-16.73
867.544	22.19
867.718	63.15
867.891	-6.49
868.065	-18.77
868.238	-39.25
868.412	81.58
868.585	32.43
868.759	-10.58
868.932	-4.44
869.105	-18.77
869.279	-14.68
869.452	67.24
869.625	63.15
869.799	-26.96
869.972	46.76
870.145	22.19
870.319	54.95
870.492	18.09
870.665	-6.49
870.838	-33.11
871.011	5.8
871.185	26.28
871.358	7.85
871.531	50.86
871.704	54.95
871.877	-18.77
872.05	-8.53
872.223	54.95
872.396	-31.06
872.569	18.09
872.742	13.99
872.915	118.44
873.088	-0.34
873.261	63.15
873.434	81.58
873.607	32.43
873.78	57
873.953	-12.63
874.126	-74.07
874.299	71.34
874.471	-12.63
874.644	-43.35
874.817	59.05
874.99	79.53
875.163	30.38
875.335	13.99
875.508	5.8
875.681	-10.58
875.853	-18.77
876.026	83.63
876.199	54.95
876.371	20.14
876.544	26.28
876.717	-29.01
876.889	-22.87
877.062	48.81
877.234	71.34
877.407	18.09
877.579	57
877.752	11.95
877.924	7.85
878.097	11.95
878.269	46.76
878.442	89.77
878.614	75.43
878.786	16.04
878.959	30.38
879.131	24.23
879.303	-63.83
879.476	89.77
879.648	34.47
879.82	-51.54
879.993	-33.11
880.165	-18.77
880.337	50.86
880.509	3.75
880.681	61.1
880.854	18.09
881.026	83.63
881.198	73.39
881.37	46.76
881.542	24.23
881.714	-10.58
881.886	83.63
882.058	7.85
882.23	40.62
882.402	-0.34
882.574	9.9
882.746	54.95
882.918	50.86
883.09	3.75
883.262	22.19
883.434	13.99
883.606	7.85
883.778	30.38
883.95	13.99
884.122	38.57
884.293	40.62
884.465	-0.34
884.637	5.8
884.809	3.75
884.98	5.8
885.152	71.34
885.324	-12.63
885.496	73.39
885.667	3.75
885.839	9.9
886.011	-10.58
886.182	7.85
886.354	24.23
886.525	-8.53
886.697	5.8
886.869	-14.68
887.04	-29.01
887.212	61.1
887.383	122.54
887.555	-39.25
887.726	-8.53
887.897	-16.73
888.069	7.85
888.24	44.71
888.412	85.67
888.583	42.67
888.754	30.38
888.926	22.19
889.097	16.04
889.268	36.52
889.44	57
889.611	67.24
889.782	69.29
889.953	-18.77
890.125	-12.63
890.296	30.38
890.467	32.43
890.638	40.62
890.809	40.62
890.98	-78.16
891.151	-16.73
891.323	7.85
891.494	50.86
891.665	-6.49
891.836	-6.49
892.007	122.54
892.178	7.85
892.349	-18.77
892.52	-6.49
892.691	91.82
892.862	32.43
893.032	77.48
893.203	-22.87
893.374	69.29
893.545	18.09
893.716	-26.96
893.887	7.85
894.057	36.52
894.228	40.62
894.399	34.47
894.57	-0.34
894.74	57
894.911	28.33
895.082	-10.58
895.253	42.67
895.423	-8.53
895.594	28.33
895.764	1.71
895.935	-4.44
896.106	16.04
896.276	48.81
896.447	-12.63
896.617	3.75
896.788	20.14
896.958	18.09
897.129	24.23
897.299	30.38
897.47	22.19
897.64	-4.44
897.81	57
897.981	44.71
898.151	20.14
898.322	-69.97
898.492	-0.34
898.662	-2.39
898.832	81.58
899.003	50.86
899.173	16.04
899.343	-57.68
899.513	18.09
