Data from USB4F104151__4__12-53-04-689.txt Node

Date: Fri Mar 14 12:53:04 EDT 2025
User: louis
Spectrometer: USB4F10415
Trigger mode: 4
Integration Time (sec): 1.000000E-2
Scans to average: 1
Electric dark correction enabled: true
Nonlinearity correction enabled: false
Boxcar width: 0
XAxis mode: Wavelengths
Number of Pixels in Spectrum: 3648
>>>>>Begin Spectral Data<<<<<
178.204	15.7
178.424	15.7
178.644	15.7
178.864	-60.07
179.084	-19.11
179.304	5.46
179.524	34.13
179.744	17.75
179.964	-23.21
180.184	17.75
180.404	25.94
180.624	-72.36
180.844	-15.02
181.064	-15.02
181.283	13.65
181.503	17.75
181.723	-6.83
181.943	-29.35
182.163	79.19
182.383	38.23
182.602	50.52
182.822	30.04
183.042	1.37
183.262	17.75
183.482	54.61
183.701	-12.97
183.921	36.18
184.141	19.8
184.361	-8.87
184.58	-68.27
184.8	34.13
185.02	27.99
185.239	71
185.459	-41.64
185.679	89.43
185.898	-0.68
186.118	116.05
186.338	23.89
186.557	25.94
186.777	62.8
186.997	40.28
187.216	-39.59
187.436	1.37
187.655	-10.92
187.875	46.42
188.095	-27.31
188.314	54.61
188.534	40.28
188.753	-6.83
188.973	25.94
189.192	5.46
189.412	23.89
189.631	38.23
189.851	23.89
190.07	56.66
190.29	-33.45
190.509	23.89
190.729	46.42
190.948	50.52
191.168	11.61
191.387	25.94
191.607	30.04
191.826	50.52
192.045	-29.35
192.265	-33.45
192.484	5.46
192.704	48.47
192.923	-25.26
193.142	52.56
193.362	-55.98
193.581	71
193.8	38.23
194.02	23.89
194.239	-43.69
194.458	3.41
194.678	-39.59
194.897	87.38
195.116	46.42
195.335	-10.92
195.555	62.8
195.774	-12.97
195.993	42.32
196.212	32.08
196.432	5.46
196.651	15.7
196.87	-23.21
197.089	-37.55
197.308	38.23
197.528	91.48
197.747	89.43
197.966	93.52
198.185	95.57
198.404	-45.74
198.623	30.04
198.842	-35.5
199.062	30.04
199.281	-31.4
199.5	7.51
199.719	1.37
199.938	38.23
200.157	9.56
200.376	3.41
200.595	-6.83
200.814	23.89
201.033	42.32
201.252	25.94
201.471	-25.26
201.69	-12.97
201.909	-31.4
202.128	30.04
202.347	40.28
202.566	68.95
202.785	42.32
203.004	3.41
203.223	-4.78
203.442	15.7
203.661	58.71
203.879	30.04
204.098	58.71
204.317	-27.31
204.536	79.19
204.755	-4.78
204.974	9.56
205.193	44.37
205.411	-2.73
205.63	54.61
205.849	-60.07
206.068	-25.26
206.287	56.66
206.505	-31.4
206.724	-53.93
206.943	56.66
207.162	-27.31
207.381	-90.79
207.599	-39.59
207.818	-15.02
208.037	79.19
208.255	13.65
208.474	54.61
208.693	-2.73
208.911	62.8
209.13	19.8
209.349	17.75
209.567	15.7
209.786	52.56
210.005	25.94
210.223	25.94
210.442	38.23
210.661	17.75
210.879	-0.68
211.098	68.95
211.316	5.46
211.535	75.09
211.753	17.75
211.972	42.32
212.191	71
212.409	-43.69
212.628	89.43
212.846	-8.87
213.065	-12.97
213.283	87.38
213.502	-12.97
213.72	23.89
213.938	17.75
214.157	19.8
214.375	114
214.594	38.23
214.812	-2.73
215.031	25.94
215.249	44.37
215.467	66.9
215.686	-0.68
215.904	38.23
216.122	91.48
216.341	30.04
216.559	-39.59
216.778	21.84
216.996	36.18
217.214	13.65
217.432	66.9
217.651	11.61
217.869	56.66
218.087	40.28
218.306	-39.59
218.524	60.76
218.742	-17.07
218.96	19.8
219.179	5.46
219.397	13.65
219.615	17.75
219.833	21.84
220.051	9.56
220.27	54.61
220.488	40.28
220.706	-23.21
220.924	-10.92
221.142	5.46
221.36	42.32
221.578	9.56
221.796	-45.74
222.015	48.47
222.233	93.52
222.451	54.61
222.669	40.28
222.887	48.47
223.105	32.08
223.323	11.61
223.541	25.94
223.759	7.51
223.977	89.43
224.195	32.08
224.413	60.76
224.631	97.62
224.849	40.28
225.067	11.61
225.285	56.66
225.503	40.28
225.721	52.56
225.939	42.32
226.157	-2.73
226.375	89.43
226.592	64.85
226.81	1.37
227.028	-19.11
227.246	9.56
227.464	27.99
227.682	62.8
227.9	32.08
228.117	52.56
228.335	-33.45
228.553	30.04
228.771	38.23
228.989	71
229.206	-10.92
229.424	-4.78
229.642	42.32
229.86	-8.87
230.077	3.41
230.295	-10.92
230.513	-10.92
230.731	25.94
230.948	-0.68
231.166	62.8
231.384	50.52
231.601	23.89
231.819	40.28
232.037	1.37
232.254	23.89
232.472	13.65
232.689	25.94
232.907	58.71
233.125	62.8
233.342	38.23
233.56	-23.21
233.777	11.61
233.995	7.51
234.213	38.23
234.43	19.8
234.648	-2.73
234.865	-29.35
235.083	89.43
235.3	9.56
235.518	48.47
235.735	52.56
235.953	81.24
236.17	-17.07
236.388	42.32
236.605	89.43
236.822	30.04
237.04	15.7
237.257	30.04
237.475	23.89
237.692	23.89
237.909	40.28
238.127	-8.87
238.344	27.99
238.562	23.89
238.779	-4.78
238.996	11.61
239.214	-2.73
239.431	17.75
239.648	32.08
239.865	66.9
240.083	60.76
240.3	62.8
240.517	50.52
240.735	13.65
240.952	23.89
241.169	-4.78
241.386	50.52
241.603	13.65
241.821	-2.73
242.038	89.43
242.255	9.56
242.472	13.65
242.689	46.42
242.907	42.32
243.124	11.61
243.341	30.04
243.558	-17.07
243.775	68.95
243.992	-10.92
244.209	62.8
244.426	-8.87
244.643	19.8
244.86	-25.26
245.078	62.8
245.295	32.08
245.512	68.95
245.729	79.19
245.946	19.8
246.163	30.04
246.38	79.19
246.597	25.94
246.814	62.8
247.031	-6.83
247.248	99.67
247.464	50.52
247.681	-12.97
247.898	-41.64
248.115	-2.73
248.332	-12.97
248.549	60.76
248.766	-35.5
248.983	-25.26
249.2	-43.69
249.417	17.75
249.633	17.75
249.85	89.43
250.067	-64.17
250.284	-6.83
250.501	-8.87
250.717	34.13
250.934	64.85
251.151	32.08
251.368	83.28
251.585	-0.68
251.801	-2.73
252.018	21.84
252.235	-74.41
252.451	-49.83
252.668	54.61
252.885	75.09
253.102	-17.07
253.318	-4.78
253.535	21.84
253.752	48.47
253.968	23.89
254.185	38.23
254.401	68.95
254.618	-41.64
254.835	19.8
255.051	42.32
255.268	66.9
255.484	71
255.701	52.56
255.917	150.87
256.134	-8.87
256.351	-19.11
256.567	40.28
256.784	79.19
257	50.52
257.217	23.89
257.433	85.33
257.65	48.47
257.866	64.85
258.082	7.51
258.299	27.99
258.515	54.61
258.732	-12.97
258.948	5.46
259.165	27.99
259.381	64.85
259.597	-66.22
259.814	21.84
260.03	17.75
260.246	30.04
260.463	21.84
260.679	32.08
260.895	-2.73
261.112	23.89
261.328	15.7
261.544	44.37
261.761	54.61
261.977	-17.07
262.193	40.28
262.409	11.61
262.626	44.37
262.842	1.37
263.058	17.75
263.274	71
263.49	-0.68
263.707	62.8
263.923	54.61
264.139	-4.78
264.355	25.94
264.571	40.28
264.787	-0.68
265.004	-12.97
265.22	44.37
265.436	-15.02
265.652	40.28
265.868	40.28
266.084	-31.4
266.3	89.43
266.516	19.8
266.732	52.56
266.948	19.8
267.164	-0.68
267.38	27.99
267.596	56.66
267.812	19.8
268.028	3.41
268.244	-17.07
268.46	87.38
268.676	-15.02
268.892	52.56
269.108	30.04
269.324	54.61
269.54	7.51
269.756	38.23
269.972	-88.75
270.188	19.8
270.403	17.75
270.619	68.95
270.835	1.37
271.051	58.71
271.267	48.47
271.483	77.14
271.698	46.42
271.914	44.37
272.13	-39.59
272.346	-0.68
272.562	75.09
272.777	75.09
272.993	-27.31
273.209	1.37
273.425	5.46
273.64	85.33
273.856	62.8
274.072	25.94
274.287	-15.02
274.503	34.13
274.719	60.76
274.934	11.61
275.15	13.65
275.366	11.61
275.581	3.41
275.797	89.43
276.012	50.52
276.228	27.99
276.444	38.23
276.659	79.19
276.875	38.23
277.09	27.99
277.306	73.04
277.521	77.14
277.737	83.28
277.952	38.23
278.168	62.8
278.383	-21.16
278.599	-41.64
278.814	-23.21
279.03	-96.94
279.245	30.04
279.461	87.38
279.676	30.04
279.892	-15.02
280.107	9.56
280.322	-17.07
280.538	36.18
280.753	50.52
280.969	56.66
281.184	7.51
281.399	91.48
281.615	-12.97
281.83	97.62
282.045	7.51
282.26	9.56
282.476	-21.16
282.691	73.04
282.906	34.13
283.122	44.37
283.337	-10.92
283.552	7.51
283.767	56.66
283.983	81.24
284.198	-39.59
284.413	5.46
284.628	-25.26
284.843	21.84
285.058	-25.26
285.274	9.56
285.489	17.75
285.704	54.61
285.919	107.86
286.134	1.37
286.349	58.71
286.564	-0.68
286.779	52.56
286.995	56.66
287.21	-12.97
287.425	7.51
287.64	30.04
287.855	50.52
288.07	-6.83
288.285	42.32
288.5	-39.59
288.715	58.71
288.93	40.28
289.145	62.8
289.36	3.41
289.575	17.75
289.79	15.7
290.004	27.99
290.219	120.15
290.434	27.99
290.649	-12.97
290.864	9.56
291.079	66.9
291.294	56.66
291.509	-19.11
291.724	71
291.938	60.76
292.153	62.8
292.368	-29.35
292.583	1.37
292.798	17.75
293.012	52.56
293.227	79.19
293.442	30.04
293.657	50.52
293.871	32.08
294.086	-6.83
294.301	116.05
294.516	56.66
294.73	99.67
294.945	9.56
295.16	23.89
295.374	62.8
295.589	85.33
295.804	3.41
296.018	25.94
296.233	21.84
296.447	40.28
296.662	27.99
296.877	40.28
297.091	105.81
297.306	42.32
297.52	81.24
297.735	66.9
297.949	-12.97
298.164	36.18
298.378	50.52
298.593	5.46
298.807	3.41
299.022	-12.97
299.236	-0.68
299.451	23.89
299.665	36.18
299.88	19.8
300.094	-41.64
300.309	27.99
300.523	-0.68
300.737	40.28
300.952	75.09
301.166	-19.11
301.381	46.42
301.595	54.61
301.809	-35.5
302.024	11.61
302.238	7.51
302.452	-29.35
302.667	-15.02
302.881	56.66
303.095	3.41
303.309	40.28
303.524	34.13
303.738	-17.07
303.952	54.61
304.166	56.66
304.381	-15.02
304.595	62.8
304.809	34.13
305.023	58.71
305.237	38.23
305.452	7.51
305.666	95.57
305.88	30.04
306.094	46.42
306.308	36.18
306.522	11.61
306.736	21.84
306.95	1.37
307.164	60.76
307.379	40.28
307.593	13.65
307.807	17.75
308.021	52.56
308.235	54.61
308.449	3.41
308.663	32.08
308.877	38.23
309.091	95.57
309.305	46.42
309.519	-4.78
309.733	30.04
309.947	11.61
310.161	85.33
310.374	38.23
310.588	81.24
310.802	-25.26
311.016	30.04
311.23	21.84
311.444	56.66
311.658	71
311.872	30.04
312.085	15.7
312.299	38.23
312.513	-33.45
312.727	34.13
312.941	-25.26
313.154	50.52
313.368	9.56
313.582	48.47
313.796	-25.26
314.009	19.8
314.223	-8.87
314.437	165.2
314.651	7.51
314.864	19.8
315.078	21.84
315.292	-45.74
315.505	30.04
315.719	95.57
315.933	-23.21
316.146	60.76
316.36	-64.17
316.573	66.9
316.787	11.61
317.001	30.04
317.214	9.56
317.428	128.34
317.641	7.51
317.855	64.85
318.068	-17.07
318.282	77.14
318.495	52.56
318.709	-31.4
318.922	-0.68
319.136	114
319.349	83.28
319.563	91.48
319.776	60.76
319.99	30.04
320.203	9.56
320.417	44.37
320.63	64.85
320.843	85.33
321.057	107.86
321.27	91.48
321.483	19.8
321.697	95.57
321.91	-15.02
322.124	34.13
322.337	40.28
322.55	7.51
322.763	71
322.977	40.28
323.19	46.42
323.403	50.52
323.617	71
323.83	40.28
324.043	132.44
324.256	38.23
324.469	-0.68
324.683	52.56
324.896	-35.5
325.109	19.8
325.322	11.61
325.535	-25.26
325.748	36.18
325.962	27.99
326.175	1.37
326.388	56.66
326.601	38.23
326.814	-6.83
327.027	87.38
327.24	-2.73
327.453	7.51
327.666	48.47
327.879	-10.92
328.092	9.56
328.305	60.76
328.518	19.8
328.731	71
328.944	25.94
329.157	25.94
329.37	1.37
329.583	9.56
329.796	48.47
330.009	1.37
330.222	34.13
330.435	19.8
330.648	68.95
330.861	54.61
331.073	9.56
331.286	54.61
331.499	87.38
331.712	19.8
331.925	5.46
332.138	34.13
332.35	5.46
332.563	-39.59
332.776	19.8
332.989	46.42
333.202	40.28
333.414	68.95
333.627	-27.31
333.84	9.56
334.053	38.23
334.265	-25.26
334.478	32.08
334.691	-29.35
334.903	48.47
335.116	7.51
335.329	44.37
335.541	3.41
335.754	124.24
335.966	-19.11
336.179	42.32
336.392	71
336.604	71
336.817	68.95
337.029	71
337.242	91.48
337.454	68.95
337.667	38.23
337.88	93.52
338.092	9.56
338.305	11.61
338.517	25.94
338.729	58.71
338.942	7.51
339.154	-15.02
339.367	15.7
339.579	21.84
339.792	-12.97
340.004	58.71
340.217	56.66
340.429	13.65
340.641	9.56
340.854	9.56
341.066	40.28
341.278	-10.92
341.491	27.99
341.703	32.08
341.915	91.48
342.128	97.62
342.34	66.9
342.552	46.42
342.764	3.41
342.977	42.32
343.189	62.8
343.401	-29.35
343.613	-8.87
343.826	81.24
344.038	23.89
344.25	15.7
344.462	-62.12
344.674	-10.92
344.886	5.46
345.099	38.23
345.311	17.75
345.523	21.84
345.735	27.99
345.947	13.65
346.159	54.61
346.371	93.52
346.583	3.41
346.795	23.89
347.007	68.95
347.219	25.94
347.431	-15.02
347.643	42.32
347.855	23.89
348.067	48.47
348.279	3.41
348.491	-2.73
348.703	93.52
348.915	50.52
349.127	-43.69
349.339	-37.55
349.551	17.75
349.763	44.37
349.975	-35.5
350.187	73.04
350.399	5.46
350.61	13.65
350.822	46.42
351.034	23.89
351.246	58.71
351.458	-17.07
351.669	50.52
351.881	79.19
352.093	97.62
352.305	42.32
352.517	-12.97
352.728	73.04
352.94	-27.31
353.152	-8.87
353.363	27.99
353.575	68.95
353.787	40.28
353.999	64.85
354.21	25.94
354.422	21.84
354.633	56.66
354.845	73.04
355.057	54.61
355.268	75.09
355.48	27.99
355.692	34.13
355.903	5.46
356.115	54.61
356.326	50.52
356.538	52.56
356.749	27.99
356.961	62.8
357.172	91.48
357.384	19.8
357.595	25.94
357.807	5.46
358.018	11.61
358.23	-8.87
358.441	87.38
358.653	40.28
358.864	17.75
359.075	54.61
359.287	68.95
359.498	81.24
359.709	36.18
359.921	111.96
360.132	85.33
360.344	-15.02
360.555	60.76
360.766	32.08
360.977	68.95
361.189	128.34
361.4	-21.16
361.611	-6.83
361.823	-0.68
362.034	60.76
362.245	9.56
362.456	21.84
362.667	52.56
362.879	73.04
363.09	32.08
363.301	60.76
363.512	38.23
363.723	68.95
363.935	38.23
364.146	73.04
364.357	-4.78
364.568	83.28
364.779	-8.87
364.99	62.8
365.201	-25.26
365.412	27.99
365.623	25.94
365.834	64.85
366.045	52.56
366.256	54.61
366.467	27.99
366.678	71
366.889	38.23
367.1	77.14
367.311	-17.07
367.522	23.89
367.733	36.18
367.944	73.04
368.155	50.52
368.366	56.66
368.577	75.09
368.788	54.61
368.999	-21.16
369.209	68.95
369.42	75.09
369.631	56.66
369.842	30.04
370.053	-35.5
370.264	9.56
370.474	50.52
370.685	56.66
370.896	46.42
371.107	87.38
371.317	52.56
371.528	-12.97
371.739	79.19
371.95	9.56
372.16	27.99
372.371	60.76
372.582	71
372.792	-41.64
373.003	32.08
373.214	68.95
373.424	97.62
373.635	3.41
373.846	62.8
374.056	87.38
374.267	36.18
374.477	105.81
374.688	-35.5
374.898	-29.35
375.109	38.23
375.319	5.46
375.53	128.34
375.74	-31.4
375.951	75.09
376.161	111.96
376.372	95.57
376.582	27.99
376.793	83.28
377.003	38.23
377.214	40.28
377.424	-21.16
377.635	34.13
377.845	89.43
378.055	40.28
378.266	13.65
378.476	44.37
378.686	44.37
378.897	46.42
379.107	99.67
379.317	36.18
379.528	95.57
379.738	64.85
379.948	-6.83
380.158	66.9
380.369	60.76
380.579	13.65
380.789	-12.97
380.999	23.89
381.21	71
381.42	85.33
381.63	-0.68
381.84	13.65
382.05	50.52
382.261	62.8
382.471	114
382.681	46.42
382.891	85.33
383.101	46.42
383.311	-0.68
383.521	30.04
383.731	122.2
383.941	89.43
384.151	13.65
384.361	32.08
384.571	73.04
384.781	93.52
384.991	79.19
385.201	68.95
385.411	7.51
385.621	99.67
385.831	144.72
386.041	62.8
386.251	46.42
386.461	89.43
386.671	75.09
386.881	25.94
387.091	52.56
387.301	58.71
387.511	52.56
387.72	77.14
387.93	30.04
388.14	50.52
388.35	-12.97
388.56	32.08
388.769	54.61
388.979	66.9
389.189	32.08
389.399	111.96
389.609	9.56
389.818	-23.21
390.028	58.71
390.238	48.47
390.447	40.28
390.657	46.42
390.867	50.52
391.076	27.99
391.286	54.61
391.496	64.85
391.705	85.33
391.915	73.04
392.125	93.52
392.334	-6.83
392.544	64.85
392.753	50.52
392.963	126.29
393.172	99.67
393.382	95.57
393.591	101.72
393.801	107.86
394.01	91.48
394.22	17.75
394.429	64.85
394.639	19.8
394.848	109.91
395.058	52.56
395.267	44.37
395.477	64.85
395.686	-17.07
395.895	114
396.105	99.67
396.314	58.71
396.524	56.66
396.733	50.52
396.942	89.43
397.152	73.04
397.361	79.19
397.57	89.43
397.78	54.61
397.989	50.52
398.198	83.28
398.407	73.04
398.617	81.24
398.826	89.43
399.035	40.28
399.244	77.14
399.453	91.48
399.663	56.66
399.872	54.61
400.081	85.33
400.29	138.58
400.499	62.8
400.708	130.39
400.917	138.58
401.127	111.96
401.336	44.37
401.545	109.91
401.754	107.86
401.963	13.65
402.172	114
402.381	105.81
402.59	25.94
402.799	73.04
403.008	99.67
403.217	142.68
403.426	3.41
403.635	97.62
403.844	97.62
404.053	91.48
404.262	169.3
404.471	150.87
404.68	77.14
404.888	68.95
405.097	159.06
405.306	152.91
405.515	66.9
405.724	105.81
405.933	101.72
406.142	111.96
406.35	144.72
406.559	148.82
406.768	109.91
406.977	154.96
407.185	128.34
407.394	142.68
407.603	154.96
407.812	150.87
408.02	114
408.229	105.81
408.438	193.87
408.646	71
408.855	130.39
409.064	165.2
409.272	187.73
409.481	240.98
409.69	300.37
409.898	179.54
410.107	214.35
410.315	290.13
410.524	232.79
410.733	253.27
410.941	191.83
411.15	273.75
411.358	212.31
411.567	367.95
411.775	247.12
411.984	302.42
412.192	329.04
412.401	243.03
412.609	281.94
412.818	333.14
413.026	222.55
413.234	312.66
413.443	357.71
413.651	367.95
413.86	439.63
414.068	394.58
414.276	435.53
414.485	439.63
414.693	509.26
414.901	527.69
415.11	441.68
415.318	505.17
415.526	546.12
415.734	542.03
415.943	496.97
416.151	529.74
416.359	660.81
416.567	578.89
416.776	623.95
416.984	709.96
417.192	677.19
417.4	679.24
417.608	664.91
417.817	714.06
418.025	759.11
418.233	783.69
418.441	834.89
418.649	824.65
418.857	851.27
419.065	892.23
419.273	824.65
419.481	884.04
419.689	1060.17
419.897	1039.69
420.105	1129.8
420.313	1117.51
420.521	1097.03
420.729	1058.12
420.937	1193.28
421.145	1205.57
421.353	1217.86
421.561	1258.82
421.769	1303.87
421.977	1316.16
422.185	1342.78
422.393	1400.13
422.601	1488.19
422.809	1414.46
423.017	1561.92
423.224	1580.35
423.432	1674.56
423.64	1688.89
423.848	1817.91
424.056	1813.82
424.263	1869.11
424.471	1914.17
424.679	1987.89
424.887	2139.44
425.094	2071.86
425.302	2116.92
425.51	2250.03
425.718	2446.64
425.925	2360.63
426.133	2411.82
426.341	2602.29
426.548	2546.99
426.756	2735.4
426.964	2819.37
427.171	2907.43
427.379	2911.53
427.586	2979.11
427.794	3065.13
428.001	3183.91
428.209	3407.14
428.417	3327.27
428.624	3538.21
428.832	3568.93
429.039	3478.82
429.247	3480.86
429.454	3859.74
429.662	4179.22
429.869	3841.31
430.076	4125.97
430.284	4023.58
430.491	4236.56
430.699	4420.88
430.906	4441.36
431.114	4510.99
431.321	4719.89
431.528	4814.09
431.736	5076.23
431.943	5274.88
432.15	5145.86
432.358	5248.26
432.565	5477.63
432.772	5590.27
432.979	5831.93
433.187	5823.74
433.394	5985.53
433.601	6401.27
433.808	6358.26
434.016	6329.59
434.223	6704.37
434.43	7105.77
434.637	6753.52
434.844	7396.58
435.052	7298.28
435.259	7349.48
435.466	7484.64
435.673	7599.33
435.88	7898.33
436.087	8406.23
436.294	8176.86
436.501	8187.1
436.708	8371.41
436.915	8699.09
437.122	8989.9
437.329	8856.78
437.537	9379.01
437.743	9194.7
437.95	9395.4
438.157	9848
438.364	10048.7
438.571	10132.67
438.778	10310.84
438.985	11203.75
439.192	10847.41
439.399	11001.01
439.606	10882.22
439.813	11457.7
440.02	12084.38
440.227	11932.83
440.433	11742.37
440.64	12199.07
440.847	12043.42
441.054	12504.21
441.261	13126.8
441.467	12907.66
441.674	13145.23
441.881	13755.52
442.088	13943.94
442.294	13419.66
442.501	14062.72
442.708	14400.63
442.914	14894.19
443.121	15416.43
443.328	14894.19
443.534	16223.33
443.741	15838.31
443.948	15467.63
444.154	16897.11
444.361	16325.72
444.568	16792.66
444.774	16565.34
444.981	16856.15
445.187	17499.21
445.394	17949.76
445.6	17849.41
445.807	19516.46
446.013	18662.46
446.22	19070
446.426	19641.39
446.633	19919.91
446.839	21013.52
447.046	19747.88
447.252	21165.07
447.459	21232.66
447.665	21132.31
447.871	21672.97
448.078	22748.15
448.284	21933.06
448.491	22172.67
448.697	23288.82
448.903	23733.23
449.11	23571.44
449.316	23528.43
449.522	23708.65
449.728	24155.11
449.935	24599.52
450.141	24654.81
450.347	25183.19
450.553	24558.56
450.76	24728.54
450.966	25801.68
451.172	25123.8
451.378	25918.41
451.584	25328.59
451.791	25773
451.997	26414.02
452.203	26387.39
452.409	26383.3
452.615	26002.38
452.821	25310.16
453.027	25031.64
453.233	26340.29
453.44	25392.08
453.646	25621.45
453.852	25791.44
454.058	26063.82
454.264	25363.41
454.47	25732.04
454.676	25334.74
454.882	25996.23
455.088	23753.71
455.294	24296.42
455.5	24486.88
455.705	24765.4
455.911	23923.69
456.117	23342.07
456.323	23196.66
456.529	21965.83
456.735	23122.93
456.941	22287.36
457.147	21935.11
457.352	21357.58
457.558	21183.51
457.764	20976.66
457.97	20847.64
458.176	20390.94
458.381	20341.79
458.587	19311.66
458.793	19399.73
458.999	18400.32
459.204	19532.84
459.41	19078.19
459.616	17716.29
459.821	17759.3
460.027	17933.38
460.233	17534.03
460.438	16839.76
460.644	17040.47
460.85	15869.03
461.055	15756.39
461.261	15936.61
461.466	14916.72
461.672	14320.76
461.878	15107.18
462.083	14242.94
462.289	14091.39
462.494	13819.01
462.7	13085.84
462.905	13055.12
463.111	13036.69
463.316	13325.45
463.522	13057.17
463.727	13266.06
463.932	13159.56
464.138	12977.3
464.343	12971.15
464.549	12784.79
464.754	13345.93
464.959	13073.55
465.165	12864.66
465.37	12430.49
465.575	12111
465.781	12520.6
465.986	12678.29
466.191	12547.22
466.397	11875.49
466.602	11445.41
466.807	11889.82
467.012	11781.28
467.218	11599.01
467.423	11560.1
467.628	11709.6
467.833	12207.26
468.038	11895.97
468.244	11396.26
468.449	11881.63
468.654	11582.63
468.859	11390.12
469.064	11414.7
469.269	10867.89
469.474	10955.95
469.679	11056.3
469.885	10894.51
470.09	11203.75
470.295	11003.05
470.5	10769.58
470.705	10515.64
470.91	10335.42
471.115	10667.19
471.32	10529.97
471.525	10368.18
471.73	10208.44
471.935	10089.66
472.139	9772.22
472.344	10050.75
472.549	9733.31
472.754	9958.59
472.959	9475.27
473.164	9323.72
473.369	9387.21
473.574	9774.27
473.778	9501.89
473.983	9395.4
474.188	9385.16
474.393	9075.91
474.598	8860.88
474.802	8781.01
475.007	8977.61
475.212	8871.12
475.417	8500.44
475.621	8471.76
475.826	8424.66
476.031	8303.83
476.235	8242.39
476.44	8328.41
476.645	8244.44
476.849	8213.72
477.054	7980.25
477.259	7914.72
477.463	7826.65
477.668	7726.3
477.872	7853.28
478.077	7845.09
478.282	7525.6
478.486	7345.38
478.691	7431.4
478.895	7394.53
479.1	7230.69
479.304	7384.29
479.509	7075.05
479.713	7232.74
479.918	7087.34
480.122	7146.73
480.326	7103.72
480.531	7109.86
480.735	7015.66
480.94	7124.2
481.144	7169.26
481.348	6927.6
481.553	6993.13
481.757	6876.4
481.961	7038.19
482.166	7163.11
482.37	6980.84
482.574	6939.88
482.778	6872.3
482.983	6989.03
483.187	7017.71
483.391	6989.03
483.595	6810.86
483.8	6855.92
484.004	6786.29
484.208	6968.56
484.412	6917.36
484.616	6898.92
484.821	6802.67
485.025	6831.34
485.229	7003.37
485.433	6943.98
485.637	6739.18
485.841	6700.27
486.045	6970.6
486.249	7066.86
486.453	6851.82
486.657	6907.12
486.861	7013.61
487.065	6774
487.269	6913.26
487.473	6692.08
487.677	6894.83
487.881	6980.84
488.085	6851.82
488.289	7087.34
488.493	6860.01
488.697	7132.39
488.901	6946.03
489.105	7236.84
489.309	7019.75
489.512	7087.34
489.716	7294.18
489.92	7159.02
490.124	7085.29
490.328	7083.24
490.531	7316.71
490.735	7431.4
490.939	7343.33
491.143	7165.16
491.346	7425.25
491.55	7406.82
491.754	7441.64
491.958	7562.47
492.161	7460.07
492.365	7781.6
492.569	7451.88
492.772	7552.23
492.976	7773.41
493.18	7664.86
493.383	7763.17
493.587	7873.76
493.79	7902.43
493.994	7961.82
494.197	7939.29
494.401	8119.51
494.605	8111.32
494.808	8303.83
495.012	8375.51
495.215	8193.24
495.419	8318.17
495.622	8336.6
495.825	8602.83
496.029	8361.17
496.232	8760.53
496.436	8850.64
496.639	9034.96
496.843	8848.59
497.046	9123.02
497.249	9151.69
497.453	9366.73
497.656	9475.27
497.859	9362.63
498.063	9768.13
498.266	9770.18
498.469	9917.63
498.673	9696.45
498.876	9966.78
499.079	10167.48
499.282	10237.11
499.485	10560.69
499.689	10638.51
499.892	10577.08
500.095	10990.77
500.298	10966.19
500.501	11066.54
500.705	11123.88
500.908	11478.18
501.111	11588.77
501.314	11545.77
501.517	11822.24
501.72	12045.47
501.923	11795.62
502.126	12223.64
502.329	12496.02
502.532	12493.97
502.735	12725.4
502.938	13110.41
503.141	12907.66
503.344	13186.19
503.547	13255.82
503.75	13653.12
503.953	13751.43
504.156	13884.55
504.359	13931.65
504.562	14179.45
504.765	14531.7
504.968	14388.35
505.17	14810.23
505.373	14933.11
505.576	15078.51
505.779	15146.09
505.982	15590.5
506.185	15832.16
506.387	15948.9
506.59	15881.31
506.793	16327.77
506.996	16426.07
507.198	16665.69
507.401	16723.03
507.604	16811.09
507.807	17261.65
508.009	17497.16
508.212	17429.58
508.415	17873.99
508.617	18000.96
508.82	18250.81
509.022	18064.45
509.225	18740.28
509.428	18912.31
509.63	18859.06
509.833	19063.86
510.035	19780.65
510.238	19749.93
510.44	19864.61
510.643	20325.41
510.845	20194.34
511.048	20300.83
511.25	20771.86
511.453	20911.13
511.655	21564.43
511.858	21195.79
512.06	21605.39
512.262	21881.86
512.465	21871.62
512.667	22414.34
512.87	22486.01
513.072	22703.1
513.274	23059.45
513.477	23460.85
513.679	23514.09
513.881	23933.93
514.084	24187.88
514.286	24210.4
514.488	24339.43
514.69	25084.89
514.893	25099.22
515.095	25306.07
515.297	25840.59
515.499	25693.13
515.701	26186.69
515.904	26280.9
516.106	26291.14
516.308	26686.4
516.51	26864.57
516.712	27067.32
516.914	27333.56
517.116	27845.55
517.318	27954.09
517.52	28353.44
517.722	28310.44
517.925	28601.25
518.127	29264.79
518.329	29459.35
518.531	29199.26
518.733	29764.5
518.935	30208.9
519.136	29866.89
519.338	30772.1
519.54	30735.23
519.742	31259.51
519.944	30874.49
520.146	31738.74
520.348	31671.15
520.55	31839.09
520.752	32084.84
520.954	32742.24
521.155	32416.61
521.357	32863.07
521.559	33366.87
521.761	33604.44
521.963	33774.42
522.164	34145.1
522.366	34536.26
522.568	34136.91
522.77	34407.24
522.971	34822.98
523.173	34902.85
523.375	35300.15
523.576	35046.21
523.778	35533.62
523.98	35709.75
524.181	35918.64
524.383	35640.12
524.584	36684.58
524.786	36340.52
524.988	36649.77
525.189	37040.93
525.391	37071.65
525.592	37360.41
525.794	37126.94
525.995	37546.78
526.197	37485.34
526.398	37661.46
526.6	37878.55
526.801	37933.84
527.003	38462.22
527.204	37858.07
527.406	38353.68
527.607	38566.66
527.808	38699.78
528.01	38179.6
528.211	38624.01
528.412	39850.74
528.614	39328.51
528.815	39316.22
529.016	39768.82
529.218	39119.62
529.419	39701.24
529.62	39742.2
529.822	39422.72
530.023	39500.54
530.224	39863.03
530.425	39914.23
530.626	39742.2
530.828	39813.88
531.029	40194.8
531.23	40327.92
531.431	40213.23
531.632	40139.5
531.833	40741.61
532.035	40307.44
532.236	40653.54
532.437	40846.05
532.638	40344.3
532.839	40911.59
533.04	40674.02
533.241	40473.32
533.442	41571.03
533.643	40825.57
533.844	40633.07
534.045	41065.19
534.246	40661.74
534.447	41106.15
534.648	40690.41
534.849	41044.71
535.05	40577.77
535.251	41640.67
535.451	41106.15
535.652	41102.05
535.853	41435.87
536.054	41575.13
536.255	41140.96
536.456	41204.45
536.657	42029.78
536.857	41450.2
537.058	41202.4
537.259	41411.29
537.46	41548.51
537.66	41423.58
537.861	41980.63
538.062	41659.1
538.263	41622.23
538.463	41542.36
538.664	41423.58
538.865	41630.43
539.065	41859.8
539.266	41292.51
539.466	41685.72
539.667	41525.98
539.868	41568.99
540.068	41462.49
540.269	41435.87
540.469	41847.51
540.67	41788.12
540.87	41704.15
541.071	42033.88
541.271	41779.93
541.472	41624.28
541.672	41616.09
541.873	41900.76
542.073	41138.91
542.274	42207.95
542.474	42054.36
542.675	41538.27
542.875	42056.4
543.075	41706.2
543.276	41366.24
543.476	42408.65
543.676	41882.33
543.877	41638.62
544.077	42060.5
544.277	41593.56
544.478	42005.2
544.678	42076.88
544.878	41876.18
545.078	41734.87
545.279	41667.29
545.479	41695.96
545.679	41888.47
545.879	41960.15
546.079	41683.67
546.28	41968.34
546.48	41573.08
546.68	42345.17
546.88	41763.54
547.08	42105.55
547.28	41898.71
547.48	41573.08
547.68	41820.89
547.88	41747.16
548.081	41765.59
548.281	42185.43
548.481	42037.97
548.681	42037.97
548.881	41513.69
549.081	41435.87
549.28	41681.63
549.48	42070.74
549.68	41521.88
549.88	42394.32
550.08	41999.06
550.28	41804.5
550.48	41939.67
550.68	42283.73
550.88	41505.5
551.08	41921.24
551.279	42031.83
551.479	41386.72
551.679	41943.77
551.879	41517.79
552.079	41777.88
552.278	41110.24
552.478	41368.29
552.678	42074.84
552.878	41943.77
553.077	41476.83
553.277	41399.01
553.477	42511.05
553.676	41341.66
553.876	41796.31
554.076	41411.29
554.275	41568.99
554.475	41280.22
554.674	41743.06
554.874	41867.99
555.074	41358.05
555.273	41700.06
555.473	41581.27
555.672	41284.32
555.872	41650.91
556.071	41577.18
556.271	41720.54
556.47	41452.25
556.67	40973.03
556.869	41173.73
557.068	41528.03
557.268	41229.02
557.467	41269.98
557.667	40964.84
557.866	41095.91
558.065	41315.04
558.265	41472.73
558.464	40639.21
558.663	41720.54
558.863	40686.31
559.062	41269.98
559.261	40977.12
559.461	41573.08
559.66	41003.75
559.859	41292.51
560.058	40901.35
560.258	41186.02
560.457	40975.08
560.656	41222.88
560.855	40860.39
561.054	41093.86
561.253	40776.42
561.453	41251.55
561.652	41147.11
561.851	41100
562.05	40909.54
562.249	40504.04
562.448	40932.07
562.647	40772.33
562.846	40440.56
563.045	40948.45
563.244	40452.84
563.443	41024.23
563.642	40114.93
563.841	40712.94
564.04	40338.16
564.239	40952.55
564.438	40411.88
564.637	40719.08
564.836	40934.12
565.035	40286.96
565.234	40538.86
565.432	40207.09
565.631	40379.12
565.83	41054.95
566.029	39994.1
566.228	40964.84
566.427	40264.43
566.625	39787.25
566.824	39797.49
567.023	40399.6
567.222	39738.1
567.42	40164.08
567.619	40084.21
567.818	39817.97
568.016	40162.03
568.215	39998.19
568.414	39852.79
568.612	40643.31
568.811	40315.63
569.01	39824.12
569.208	39256.83
569.407	40157.94
569.605	39238.4
569.804	39838.45
570.002	39797.49
570.201	39631.61
570.4	39631.61
570.598	39666.42
570.797	39373.56
570.995	39676.66
571.193	39267.07
571.392	39512.83
571.59	39011.07
571.789	39258.88
571.987	39369.47
572.186	39281.41
572.384	39115.52
572.582	39219.97
572.781	39021.31
572.979	38664.97
573.177	38834.95
573.376	39506.68
573.574	39033.6
573.772	39027.46
573.971	38589.19
574.169	38589.19
574.367	38245.13
574.565	38845.19
574.763	38632.2
574.962	38408.97
575.16	37956.37
575.358	38140.69
575.556	37853.97
575.754	38171.41
575.952	38185.74
576.151	38146.83
576.349	37839.64
576.547	37856.02
576.745	38062.86
576.943	37823.25
577.141	37825.3
577.339	37690.13
577.537	37466.91
577.735	37808.92
577.933	37268.25
578.131	37401.37
578.329	36985.63
578.527	37243.68
578.725	37501.72
578.923	37206.81
579.121	36733.73
579.319	37208.86
579.516	36944.67
579.714	36825.89
579.912	36924.19
580.11	36629.29
580.308	36946.72
580.506	36807.46
580.704	36369.19
580.901	36635.43
581.099	36737.83
581.297	36092.72
581.495	36252.46
581.692	36309.8
581.89	36395.82
582.088	36412.2
582.285	36264.75
582.483	36195.12
582.681	36006.7
582.878	35877.68
583.076	35582.77
583.274	36006.7
583.471	35214.14
583.669	35332.92
583.866	35281.72
584.064	35420.98
584.262	34845.51
584.459	35330.87
584.657	35035.97
584.854	35130.17
585.052	34691.91
585.249	34913.09
585.447	34935.62
585.644	34653
585.841	34716.48
586.039	35076.93
586.236	34304.84
586.434	34220.88
586.631	34136.91
586.828	34083.66
587.026	34382.66
587.223	34216.78
587.42	33917.78
587.618	34048.85
587.815	33588.05
588.012	33514.33
588.21	33588.05
588.407	33715.03
588.604	33549.14
588.801	33448.79
588.999	33215.32
589.196	33002.33
589.393	33262.43
589.59	33295.19
589.787	32955.23
589.984	33028.96
590.182	32428.9
590.379	33153.88
590.576	32858.98
590.773	32519.01
590.97	32416.61
591.167	32723.81
591.364	32299.88
591.561	32363.37
591.758	31916.91
591.955	32019.31
592.152	32179.05
592.349	31748.98
592.546	31753.07
592.743	31814.51
592.94	31628.15
593.137	31458.17
593.334	31529.84
593.531	31337.34
593.727	31279.99
593.924	31550.32
594.121	31208.31
594.318	31220.6
594.515	31001.47
594.712	31175.55
594.908	30876.54
595.105	31216.5
595.302	30768
595.499	30952.32
595.696	30448.52
595.892	30380.93
596.089	30669.7
596.286	30335.88
596.482	30716.8
596.679	30364.55
596.876	30153.61
597.072	29735.82
597.269	30311.3
597.466	29754.26
597.662	29719.44
597.859	29805.45
598.055	30004.11
598.252	29445.01
598.448	29514.64
598.645	29291.41
598.841	29166.49
599.038	29397.91
599.234	29283.22
599.431	28851.1
599.627	29090.71
599.824	28984.22
600.02	28695.46
600.217	28793.76
600.413	28681.12
600.609	28709.79
600.806	28738.46
601.002	28748.7
601.198	28449.7
601.395	28453.8
601.591	28089.26
601.787	28126.12
601.984	27685.81
602.18	28294.05
602.376	27927.47
602.572	27839.4
602.769	27724.72
602.965	27368.37
603.161	27687.85
603.357	27579.31
603.553	27343.8
603.75	27214.77
603.946	27333.56
604.142	27165.62
604.338	26663.87
604.534	27395
604.73	26848.19
604.926	26964.92
605.122	27128.76
605.318	26655.68
605.514	26635.2
605.71	26180.55
605.906	26518.46
606.102	26227.65
606.298	26155.97
606.494	26262.47
606.69	26063.82
606.886	26438.59
607.082	25859.02
607.278	25852.87
607.474	25748.43
607.67	25893.83
607.866	25484.24
608.062	25848.78
608.257	25824.2
608.453	25734.09
608.649	25809.87
608.845	25414.61
609.041	25670.61
609.236	25482.19
609.432	25269.2
609.628	25402.32
609.824	25465.81
610.019	24849.37
610.215	25361.36
610.411	25484.24
610.606	25080.79
610.802	25275.35
610.998	25070.55
611.193	25162.71
611.389	24654.81
611.584	24779.74
611.78	24679.39
611.976	24814.55
612.171	24718.3
612.367	24974.3
612.562	24650.72
612.758	24171.49
612.953	24364
613.149	24671.2
613.344	24228.84
613.539	24996.82
613.735	24474.59
613.93	24663
614.126	24130.53
614.321	24685.53
614.517	24255.46
614.712	24312.8
614.907	24028.13
615.103	24288.23
615.298	24105.96
615.493	24198.12
615.688	23538.67
615.884	24159.2
616.079	23954.41
616.274	24259.56
616.47	23800.81
616.665	24032.23
616.86	23573.49
617.055	23233.52
617.25	23448.56
617.445	23866.35
617.641	23323.63
617.836	23436.27
618.031	22916.09
618.226	23376.88
618.421	23172.08
618.616	23360.5
618.811	22955
619.006	23245.81
619.201	22664.19
619.396	22930.42
619.591	22490.11
619.786	23030.77
619.981	22311.94
620.176	22629.37
620.371	22154.24
620.566	22297.6
620.761	22031.37
620.956	22313.98
621.151	21726.22
621.346	22029.32
621.541	21644.3
621.735	21859.34
621.93	21206.03
622.125	21558.28
622.32	21345.3
622.515	21451.79
622.709	21142.55
622.904	21173.27
623.099	20986.9
623.294	20818.97
623.488	20845.59
623.683	20677.66
623.878	20552.73
624.072	20446.24
624.267	20634.65
624.462	20089.89
624.656	20083.75
624.851	20073.51
625.046	19946.53
625.24	19881
625.435	19881
625.629	19659.82
625.824	19592.23
626.018	19147.83
626.213	19219.5
626.407	19385.39
626.602	19024.95
626.796	19301.42
626.991	18861.11
627.185	18981.94
627.38	18803.77
627.574	18431.04
627.768	18291.77
627.963	18302.01
628.157	18121.79
628.352	18140.22
628.546	17716.29
628.74	18224.19
628.935	17925.19
629.129	17972.29
629.323	17534.03
629.517	17753.16
629.712	17581.13
629.906	17308.75
630.1	17198.16
630.294	17308.75
630.489	17128.53
630.683	17294.41
630.877	16692.31
631.071	16835.67
631.265	17044.56
631.459	16796.76
631.653	16710.74
631.848	16551
632.042	16317.53
632.236	16630.87
632.43	16346.2
632.624	16372.83
632.818	16370.78
633.012	16026.72
633.206	15891.55
633.4	16043.1
633.594	15946.85
633.788	15920.23
633.982	15735.91
634.176	15488.1
634.369	15438.95
634.563	15488.1
634.757	15539.3
634.951	15410.28
635.145	15291.5
635.339	15363.18
635.533	14898.29
635.726	15072.37
635.92	14865.52
636.114	14963.83
636.308	14736.5
636.501	14806.13
636.695	14695.54
636.889	14521.46
637.083	14251.13
637.276	14644.34
637.47	14214.27
637.664	14234.75
637.857	14019.71
638.051	14503.03
638.244	13821.06
638.438	13960.32
638.632	13716.61
638.825	13800.58
639.019	13581.45
639.212	13671.56
639.406	13792.39
639.599	13704.32
639.793	13540.49
639.986	13419.66
640.18	13358.22
640.373	13458.57
640.567	13024.4
640.76	13241.48
640.954	12874.9
641.147	12844.18
641.34	13018.25
641.534	12876.94
641.727	13055.12
641.92	12938.38
642.114	12653.72
642.307	12391.58
642.5	12645.52
642.694	12334.23
642.887	12377.24
643.08	12285.08
643.273	12410.01
643.467	12115.1
643.66	12158.11
643.853	12047.52
644.046	12033.18
644.239	11902.11
644.432	11883.68
644.626	11809.95
644.819	11773.09
645.012	11416.74
645.205	11588.77
645.398	11576.48
645.591	11424.93
645.784	11564.2
645.977	11388.07
646.17	11476.13
646.363	10984.62
646.556	11191.47
646.749	11185.32
646.942	10888.37
647.135	10865.84
647.328	10896.56
647.521	10861.74
647.714	10554.55
647.907	10749.11
648.099	10661.04
648.292	10554.55
648.485	10398.9
648.678	10388.66
648.871	10241.21
649.064	10108.09
649.256	10509.49
649.449	10015.93
649.642	10208.44
649.835	10024.12
650.027	10003.64
650.22	10157.24
650.413	9891.01
650.605	9891.01
650.798	9735.36
650.991	9757.89
651.183	9651.39
651.376	9434.31
651.568	9546.95
651.761	9663.68
651.954	9428.17
652.146	9440.45
652.339	9487.56
652.531	9368.77
652.724	9299.14
652.916	9094.35
653.109	9229.51
653.301	9280.71
653.494	8805.58
653.686	8842.45
653.879	9069.77
654.071	8940.75
654.263	8803.53
654.456	8746.19
654.648	8961.23
654.84	8484.05
655.033	8658.13
655.225	8684.75
655.417	8633.55
655.61	8535.25
655.802	8633.55
655.994	8459.48
656.186	8279.25
656.379	8215.77
656.571	8215.77
656.763	8129.75
656.955	8121.56
657.148	8135.9
657.34	8096.99
657.532	7845.09
657.724	8029.4
657.916	8074.46
658.108	7957.72
658.3	7830.75
658.492	7775.45
658.684	7681.25
658.876	7605.47
659.068	7722.21
659.26	7503.07
659.452	7709.92
659.644	7648.48
659.836	7343.33
660.028	7425.25
660.22	7374.05
660.412	7470.31
660.604	7122.15
660.796	7118.06
660.988	7073
661.18	7165.16
661.372	7058.67
661.563	6933.74
661.755	6915.31
661.947	6978.79
662.139	7013.61
662.331	6765.81
662.522	6712.56
662.714	6714.61
662.906	6630.64
663.097	6595.82
663.289	6618.35
663.481	6436.08
663.673	6405.36
663.864	6360.31
664.056	6319.35
664.247	6141.18
664.439	6401.27
664.631	6272.25
664.822	6380.79
665.014	6214.9
665.205	6231.29
665.397	5985.53
665.588	6075.64
665.78	5960.95
665.971	5940.47
666.163	6053.11
666.354	6032.63
666.546	5782.78
666.737	5901.56
666.929	5723.39
667.12	5854.46
667.311	5731.58
667.503	5754.11
667.694	5838.08
667.885	5670.14
668.077	5661.95
668.268	5758.21
668.459	5623.04
668.651	5494.02
668.842	5338.37
669.033	5393.67
669.224	5422.34
669.416	5436.67
669.607	5326.08
669.798	5256.45
669.989	5350.66
670.18	5289.22
670.371	5233.93
670.563	5096.71
670.754	5147.91
670.945	4969.74
671.136	5039.37
671.327	5133.57
671.518	5012.74
671.709	5025.03
671.9	5002.51
672.091	4918.54
672.282	4838.67
672.473	4853
672.664	4898.06
672.855	4846.86
673.046	4781.32
673.237	4912.39
673.428	4797.71
673.619	4637.97
673.809	4697.36
674	4644.11
674.191	4625.68
674.382	4613.39
674.573	4748.56
674.764	4541.71
674.954	4586.77
675.145	4465.94
675.336	4433.17
675.527	4465.94
675.717	4539.66
675.908	4369.68
676.099	4422.93
676.289	4414.74
676.48	4353.3
676.671	4433.17
676.861	4343.06
677.052	4265.24
677.243	4326.68
677.433	4162.84
677.624	4289.81
677.814	4236.56
678.005	4273.43
678.195	4166.93
678.386	4199.7
678.576	4132.12
678.767	4220.18
678.957	4052.25
679.148	4082.97
679.338	4093.21
679.529	4044.06
679.719	4019.48
679.909	4050.2
680.1	4044.06
680.29	4027.67
680.481	3792.16
680.671	3937.56
680.861	3900.7
681.052	3835.16
681.242	3917.08
681.432	3874.07
681.622	3923.23
681.813	3804.44
682.003	3915.03
682.193	3849.5
682.383	3951.9
682.573	3769.63
682.764	3769.63
682.954	3773.72
683.144	3849.5
683.334	3755.29
683.524	3747.1
683.714	3740.96
683.904	3726.62
684.094	3863.83
684.284	3773.72
684.474	3847.45
684.664	3661.09
684.854	3779.87
685.044	3704.09
685.234	3650.85
685.424	3634.46
685.614	3611.93
685.804	3710.24
685.994	3503.39
686.184	3753.24
686.374	3595.55
686.564	3585.31
686.753	3683.61
686.943	3499.3
687.133	3585.31
687.323	3466.53
687.513	3495.2
687.702	3550.5
687.892	3499.3
688.082	3441.95
688.272	3437.86
688.461	3521.82
688.651	3409.19
688.841	3435.81
689.03	3444
689.22	3417.38
689.41	3429.66
689.599	3466.53
689.789	3468.58
689.979	3325.22
690.168	3509.54
690.358	3419.43
690.547	3347.75
690.737	3202.34
690.926	3253.54
691.116	3261.73
691.305	3353.89
691.495	3357.99
691.684	3257.64
691.874	3347.75
692.063	3194.15
692.252	3202.34
692.442	3147.05
692.631	3349.79
692.82	3165.48
693.01	3237.16
693.199	3278.12
693.388	3128.61
693.578	3192.1
693.767	3226.92
693.956	3278.12
694.146	3134.76
694.335	3147.05
694.524	3112.23
694.713	3179.81
694.902	3161.38
695.092	3061.03
695.281	3050.79
695.47	3118.37
695.659	3069.22
695.848	3054.89
696.037	3046.69
696.226	3075.37
696.415	2958.63
696.604	3036.45
696.793	2936.1
696.982	2913.58
697.171	2938.15
697.36	3022.12
697.549	3073.32
697.738	2911.53
697.927	2923.82
698.116	2835.75
698.305	2782.51
698.494	2802.99
698.683	2831.66
698.872	2735.4
699.061	2719.02
699.25	2663.72
699.438	2882.86
699.627	2766.12
699.816	2950.44
700.005	2710.83
700.193	2807.08
700.382	2870.57
700.571	2753.84
700.76	2735.4
700.948	2735.4
701.137	2694.44
701.326	2792.75
701.514	2747.69
701.703	2610.48
701.892	2544.94
702.08	2782.51
702.269	2563.37
702.457	2510.13
702.646	2467.12
702.834	2608.43
703.023	2635.05
703.212	2479.41
703.4	2422.06
703.589	2549.04
703.777	2432.3
703.965	2514.22
704.154	2479.41
704.342	2526.51
704.531	2467.12
704.719	2362.67
704.907	2383.15
705.096	2420.02
705.284	2366.77
705.472	2415.92
705.661	2393.39
705.849	2428.21
706.037	2258.23
706.226	2446.64
706.414	2370.87
706.602	2325.81
706.79	2446.64
706.979	2200.88
707.167	2264.37
707.355	2250.03
707.543	2311.47
707.731	2196.79
707.919	2174.26
708.107	2245.94
708.296	2164.02
708.484	2245.94
708.672	2188.6
708.86	2166.07
709.048	2168.12
709.236	2129.2
709.424	2166.07
709.612	2051.38
709.8	2133.3
709.988	2133.3
710.176	2104.63
710.364	2090.29
710.551	2084.15
710.739	1944.89
710.927	2024.76
711.115	1916.22
711.303	2032.95
711.491	1973.56
711.679	1973.56
711.866	2041.14
712.054	2057.53
712.242	2010.42
712.43	1881.4
712.617	1957.18
712.805	1903.93
712.993	1930.55
713.181	1881.4
713.368	1934.65
713.556	1899.83
713.744	1881.4
713.931	1922.36
714.119	1826.11
714.306	1815.87
714.494	1842.49
714.682	1791.29
714.869	1783.1
715.057	1764.67
715.244	1729.85
715.432	1815.87
715.619	1799.48
715.807	1768.76
715.994	1746.23
716.182	1742.14
716.369	1705.28
716.556	1819.96
716.744	1666.36
716.931	1752.38
717.119	1666.36
717.306	1699.13
717.493	1680.7
717.681	1735.99
717.868	1625.4
718.055	1756.47
718.242	1635.64
718.43	1676.6
718.617	1578.3
718.804	1477.95
718.991	1627.45
719.179	1576.25
719.366	1621.31
719.553	1678.65
719.74	1635.64
719.927	1504.57
720.114	1523.01
720.301	1574.21
720.488	1623.36
720.676	1533.25
720.863	1539.39
721.05	1547.58
721.237	1467.71
721.424	1406.27
721.611	1518.91
721.798	1426.75
721.985	1484.09
722.172	1396.03
722.358	1480
722.545	1473.85
722.732	1418.56
722.919	1391.94
723.106	1424.7
723.293	1332.54
723.48	1402.18
723.667	1398.08
723.853	1400.13
724.04	1293.63
724.227	1361.22
724.414	1353.02
724.6	1258.82
724.787	1291.59
724.974	1412.42
725.161	1363.26
725.347	1230.15
725.534	1246.53
725.72	1391.94
725.907	1228.1
726.094	1301.83
726.28	1312.07
726.467	1203.52
726.653	1305.92
726.84	1283.39
727.027	1252.67
727.213	1217.86
727.4	1295.68
727.586	1256.77
727.773	1228.1
727.959	1174.85
728.145	1205.57
728.332	1144.13
728.518	1156.42
728.705	1232.19
728.891	1172.8
729.077	1066.31
729.264	1119.56
729.45	1092.93
729.636	1164.61
729.823	1158.47
730.009	1127.75
730.195	1103.17
730.382	1140.04
730.568	1142.08
730.754	1121.6
730.94	1131.84
731.126	1121.6
731.313	1142.08
731.499	1119.56
731.685	1105.22
731.871	1060.17
732.057	1148.23
732.243	1092.93
732.429	1039.69
732.615	1051.97
732.801	1176.9
732.987	1168.71
733.173	1039.69
733.359	1013.06
733.545	1099.08
733.731	1035.59
733.917	1035.59
734.103	963.91
734.289	988.49
734.475	972.1
734.661	984.39
734.847	972.1
735.033	998.73
735.219	953.67
735.404	988.49
735.59	974.15
735.776	996.68
735.962	904.52
736.148	986.44
736.333	898.38
736.519	992.58
736.705	877.9
736.89	931.14
737.076	902.47
737.262	886.09
737.447	935.24
737.633	857.42
737.819	853.32
738.004	873.8
738.19	900.42
738.375	791.88
738.561	890.18
738.747	925
738.932	900.42
739.118	933.19
739.303	855.37
739.489	841.03
739.674	859.46
739.859	906.57
740.045	808.26
740.23	859.46
740.416	752.97
740.601	855.37
740.786	890.18
740.972	793.93
741.157	759.11
741.342	810.31
741.528	755.02
741.713	771.4
741.898	732.49
742.084	843.08
742.269	798.03
742.454	834.89
742.639	789.83
742.824	757.07
743.01	777.55
743.195	816.46
743.38	767.31
743.565	726.35
743.75	675.15
743.935	703.82
744.12	759.11
744.305	705.87
744.49	703.82
744.675	658.76
744.86	736.59
745.045	783.69
745.23	677.19
745.415	705.87
745.6	666.96
745.785	806.22
745.97	679.24
746.155	720.2
746.34	730.44
746.525	793.93
746.71	666.96
746.895	679.24
747.079	677.19
747.264	656.72
747.449	607.56
747.634	697.67
747.819	636.24
748.003	632.14
748.188	615.76
748.373	626
748.557	634.19
748.742	677.19
748.927	662.86
749.111	554.32
749.296	650.57
749.481	564.56
749.665	582.99
749.85	611.66
750.034	638.28
750.219	607.56
750.404	582.99
750.588	660.81
750.773	615.76
750.957	656.72
751.141	527.69
751.326	535.89
751.51	537.93
751.695	544.08
751.879	589.13
752.064	585.04
752.248	546.12
752.432	611.66
752.617	552.27
752.801	591.18
752.985	505.17
753.17	587.08
753.354	509.26
753.538	519.5
753.722	529.74
753.907	523.6
754.091	488.78
754.275	537.93
754.459	499.02
754.643	562.51
754.828	478.54
755.012	560.46
755.196	521.55
755.38	531.79
755.564	529.74
755.748	476.49
755.932	486.73
756.116	535.89
756.3	503.12
756.484	494.93
756.668	421.2
756.852	488.78
757.036	408.91
757.22	404.82
757.404	456.01
757.588	544.08
757.772	458.06
757.956	417.1
758.14	427.34
758.323	494.93
758.507	531.79
758.691	398.67
758.875	480.59
759.059	507.21
759.242	388.43
759.426	345.42
759.61	404.82
759.794	445.77
759.977	392.53
760.161	425.29
760.345	449.87
760.528	472.4
760.712	441.68
760.895	400.72
761.079	447.82
761.263	449.87
761.446	382.29
761.63	390.48
761.813	437.58
761.997	441.68
762.18	419.15
762.364	415.05
762.547	322.9
762.731	402.77
762.914	316.75
763.098	353.62
763.281	386.38
763.464	406.86
763.648	439.63
763.831	392.53
764.015	341.33
764.198	421.2
764.381	372.05
764.564	408.91
764.748	423.25
764.931	365.9
765.114	363.86
765.297	359.76
765.481	324.94
765.664	431.44
765.847	445.77
766.03	486.73
766.213	394.58
766.397	441.68
766.58	374.1
766.763	392.53
766.946	351.57
767.129	310.61
767.312	341.33
767.495	324.94
767.678	400.72
767.861	429.39
768.044	359.76
768.227	396.62
768.41	404.82
768.593	429.39
768.776	415.05
768.959	380.24
769.142	341.33
769.324	302.42
769.507	345.42
769.69	359.76
769.873	288.08
770.056	482.64
770.239	357.71
770.421	300.37
770.604	349.52
770.787	492.88
770.97	361.81
771.152	408.91
771.335	318.8
771.518	341.33
771.7	413.01
771.883	390.48
772.066	382.29
772.248	402.77
772.431	400.72
772.613	300.37
772.796	359.76
772.978	396.62
773.161	320.85
773.343	308.56
773.526	449.87
773.708	320.85
773.891	294.22
774.073	265.55
774.256	372.05
774.438	314.7
774.621	365.9
774.803	355.66
774.985	361.81
775.168	343.38
775.35	281.94
775.532	320.85
775.715	279.89
775.897	355.66
776.079	359.76
776.261	357.71
776.444	312.66
776.626	347.47
776.808	355.66
776.99	329.04
777.173	261.46
777.355	218.45
777.537	197.97
777.719	318.8
777.901	302.42
778.083	349.52
778.265	300.37
778.447	279.89
778.629	296.27
778.811	335.18
778.993	195.92
779.175	308.56
779.357	324.94
779.539	251.22
779.721	300.37
779.903	281.94
780.085	320.85
780.267	183.63
780.449	255.31
780.631	240.98
780.812	255.31
780.994	302.42
781.176	275.79
781.358	220.5
781.54	224.59
781.721	302.42
781.903	290.13
782.085	277.84
782.267	290.13
782.448	243.03
782.63	228.69
782.812	193.87
782.993	257.36
783.175	318.8
783.357	335.18
783.538	257.36
783.72	251.22
783.901	187.73
784.083	286.03
784.264	214.35
784.446	185.68
784.627	195.92
784.809	210.26
784.99	259.41
785.172	189.78
785.353	230.74
785.535	210.26
785.716	189.78
785.897	232.79
786.079	224.59
786.26	243.03
786.441	292.18
786.623	214.35
786.804	212.31
786.985	197.97
787.167	193.87
787.348	216.4
787.529	140.63
787.71	130.39
787.891	267.6
788.073	177.49
788.254	181.59
788.435	173.39
788.616	218.45
788.797	197.97
788.978	234.83
789.159	85.33
789.34	175.44
789.522	154.96
789.703	150.87
789.884	181.59
790.065	193.87
790.246	177.49
790.427	136.53
790.607	150.87
790.788	195.92
790.969	191.83
791.15	107.86
791.331	179.54
791.512	177.49
791.693	183.63
791.874	116.05
792.054	245.07
792.235	175.44
792.416	103.76
792.597	208.21
792.778	191.83
792.958	185.68
793.139	185.68
793.32	134.48
793.5	202.07
793.681	177.49
793.862	124.24
794.042	175.44
794.223	150.87
794.404	109.91
794.584	148.82
794.765	101.72
794.945	122.2
795.126	163.15
795.306	169.3
795.487	187.73
795.667	157.01
795.848	214.35
796.028	165.2
796.209	101.72
796.389	179.54
796.57	191.83
796.75	150.87
796.93	146.77
797.111	103.76
797.291	175.44
797.471	79.19
797.652	132.44
797.832	152.91
798.012	146.77
798.192	101.72
798.373	66.9
798.553	107.86
798.733	152.91
798.913	105.81
799.093	132.44
799.274	42.32
799.454	114
799.634	146.77
799.814	62.8
799.994	107.86
800.174	140.63
800.354	114
800.534	93.52
800.714	126.29
800.894	75.09
801.074	75.09
801.254	167.25
801.434	111.96
801.614	66.9
801.794	107.86
801.974	413.01
802.154	157.01
802.334	89.43
802.514	163.15
802.693	99.67
802.873	109.91
803.053	60.76
803.233	171.35
803.413	91.48
803.592	85.33
803.772	111.96
803.952	99.67
804.131	83.28
804.311	60.76
804.491	118.1
804.67	81.24
804.85	140.63
805.03	93.52
805.209	79.19
805.389	116.05
805.568	79.19
805.748	40.28
805.928	40.28
806.107	64.85
806.287	210.26
806.466	79.19
806.646	68.95
806.825	66.9
807.004	71
807.184	66.9
807.363	142.68
807.543	34.13
807.722	75.09
807.901	50.52
808.081	58.71
808.26	62.8
808.439	91.48
808.619	128.34
808.798	105.81
808.977	93.52
809.156	95.57
809.336	60.76
809.515	157.01
809.694	118.1
809.873	68.95
810.052	107.86
810.231	71
810.411	42.32
810.59	120.15
810.769	38.23
810.948	95.57
811.127	136.53
811.306	114
811.485	73.04
811.664	81.24
811.843	95.57
812.022	66.9
812.201	3.41
812.38	97.62
812.559	73.04
812.737	75.09
812.916	85.33
813.095	126.29
813.274	36.18
813.453	116.05
813.632	85.33
813.811	91.48
813.989	73.04
814.168	118.1
814.347	130.39
814.526	89.43
814.704	89.43
814.883	103.76
815.062	99.67
815.24	73.04
815.419	87.38
815.598	91.48
815.776	54.61
815.955	124.24
816.133	56.66
816.312	111.96
816.49	44.37
816.669	62.8
816.847	130.39
817.026	40.28
817.204	81.24
817.383	54.61
817.561	103.76
817.74	25.94
817.918	95.57
818.097	62.8
818.275	60.76
818.453	46.42
818.632	83.28
818.81	66.9
818.988	23.89
819.167	64.85
819.345	91.48
819.523	48.47
819.701	42.32
819.879	109.91
820.058	32.08
820.236	83.28
820.414	56.66
820.592	56.66
820.77	103.76
820.948	97.62
821.127	79.19
821.305	111.96
821.483	17.75
821.661	71
821.839	85.33
822.017	17.75
822.195	34.13
822.373	95.57
822.551	36.18
822.729	87.38
822.907	42.32
823.085	105.81
823.262	-4.78
823.44	54.61
823.618	44.37
823.796	25.94
823.974	111.96
824.152	38.23
824.329	126.29
824.507	107.86
824.685	44.37
824.863	13.65
825.04	-12.97
825.218	23.89
825.396	34.13
825.574	-21.16
825.751	40.28
825.929	91.48
826.107	85.33
826.284	87.38
826.462	13.65
826.639	50.52
826.817	87.38
826.994	58.71
827.172	30.04
827.349	42.32
827.527	40.28
827.704	54.61
827.882	68.95
828.059	60.76
828.237	34.13
828.414	66.9
828.591	62.8
828.769	71
828.946	89.43
829.124	75.09
829.301	27.99
829.478	38.23
829.655	38.23
829.833	46.42
830.01	30.04
830.187	58.71
830.364	11.61
830.542	79.19
830.719	-10.92
830.896	101.72
831.073	42.32
831.25	-2.73
831.427	25.94
831.604	54.61
831.782	5.46
831.959	97.62
832.136	1.37
832.313	83.28
832.49	30.04
832.667	21.84
832.844	19.8
833.021	66.9
833.198	-58.03
833.374	103.76
833.551	23.89
833.728	68.95
833.905	40.28
834.082	-15.02
834.259	66.9
834.436	11.61
834.612	38.23
834.789	23.89
834.966	38.23
835.143	48.47
835.319	3.41
835.496	46.42
835.673	15.7
835.85	-10.92
836.026	1.37
836.203	17.75
836.38	27.99
836.556	56.66
836.733	23.89
836.909	87.38
837.086	89.43
837.262	81.24
837.439	-37.55
837.616	46.42
837.792	79.19
837.968	19.8
838.145	-41.64
838.321	54.61
838.498	50.52
838.674	48.47
838.851	83.28
839.027	-12.97
839.203	3.41
839.38	79.19
839.556	34.13
839.732	25.94
839.909	21.84
840.085	17.75
840.261	56.66
840.437	50.52
840.614	-4.78
840.79	21.84
840.966	50.52
841.142	66.9
841.318	116.05
841.494	60.76
841.671	-15.02
841.847	64.85
842.023	-51.88
842.199	23.89
842.375	38.23
842.551	21.84
842.727	77.14
842.903	19.8
843.079	-21.16
843.255	23.89
843.431	34.13
843.607	58.71
843.783	-49.83
843.959	-4.78
844.134	7.51
844.31	40.28
844.486	21.84
844.662	159.06
844.838	-33.45
845.013	111.96
845.189	19.8
845.365	79.19
845.541	15.7
845.716	7.51
845.892	-10.92
846.068	54.61
846.244	-6.83
846.419	17.75
846.595	19.8
846.77	101.72
846.946	75.09
847.122	7.51
847.297	-12.97
847.473	87.38
847.648	-41.64
847.824	71
847.999	13.65
848.175	114
848.35	17.75
848.526	64.85
848.701	99.67
848.876	19.8
849.052	-6.83
849.227	42.32
849.403	64.85
849.578	56.66
849.753	75.09
849.929	-35.5
850.104	15.7
850.279	-10.92
850.454	-25.26
850.63	23.89
850.805	-8.87
850.98	19.8
851.155	-6.83
851.33	40.28
851.505	54.61
851.681	60.76
851.856	-19.11
852.031	36.18
852.206	34.13
852.381	62.8
852.556	23.89
852.731	27.99
852.906	30.04
853.081	11.61
853.256	32.08
853.431	87.38
853.606	40.28
853.781	52.56
853.956	23.89
854.131	75.09
854.305	62.8
854.48	42.32
854.655	58.71
854.83	48.47
855.005	23.89
855.18	30.04
855.354	13.65
855.529	17.75
855.704	-21.16
855.879	42.32
856.053	71
856.228	1.37
856.403	-0.68
856.577	7.51
856.752	40.28
856.926	48.47
857.101	-10.92
857.276	-0.68
857.45	23.89
857.625	38.23
857.799	32.08
857.974	15.7
858.148	-6.83
858.323	32.08
858.497	-10.92
858.672	62.8
858.846	-19.11
859.02	109.91
859.195	25.94
859.369	-27.31
859.543	62.8
859.718	5.46
859.892	44.37
860.066	-66.22
860.241	7.51
860.415	68.95
860.589	-19.11
860.763	58.71
860.938	5.46
861.112	54.61
861.286	56.66
861.46	-39.59
861.634	19.8
861.808	-2.73
861.982	23.89
862.157	42.32
862.331	7.51
862.505	-4.78
862.679	-0.68
862.853	-10.92
863.027	-80.55
863.201	122.2
863.375	-49.83
863.549	34.13
863.722	-19.11
863.896	5.46
864.07	-31.4
864.244	50.52
864.418	62.8
864.592	25.94
864.766	48.47
864.939	46.42
865.113	34.13
865.287	21.84
865.461	17.75
865.634	-2.73
865.808	-35.5
865.982	-4.78
866.156	44.37
866.329	7.51
866.503	42.32
866.676	-8.87
866.85	32.08
867.024	-29.35
867.197	62.8
867.371	-29.35
867.544	13.65
867.718	48.47
867.891	13.65
868.065	-35.5
868.238	-37.55
868.412	79.19
868.585	-21.16
868.759	-70.31
868.932	21.84
869.105	1.37
869.279	-17.07
869.452	-0.68
869.625	11.61
869.799	-23.21
869.972	-29.35
870.145	75.09
870.319	-58.03
870.492	3.41
870.665	5.46
870.838	15.7
871.011	-39.59
871.185	77.14
871.358	30.04
871.531	87.38
871.704	-2.73
871.877	-6.83
872.05	-37.55
872.223	-6.83
872.396	38.23
872.569	11.61
872.742	-23.21
872.915	30.04
873.088	56.66
873.261	-25.26
873.434	-2.73
873.607	62.8
873.78	81.24
873.953	-74.41
874.126	-15.02
874.299	-6.83
874.471	-23.21
874.644	42.32
874.817	64.85
874.99	99.67
875.163	30.04
875.335	-60.07
875.508	-23.21
875.681	48.47
875.853	50.52
876.026	-25.26
876.199	25.94
876.371	32.08
876.544	77.14
876.717	54.61
876.889	36.18
877.062	42.32
877.234	42.32
877.407	-2.73
877.579	46.42
877.752	46.42
877.924	-0.68
878.097	13.65
878.269	-8.87
878.442	30.04
878.614	-12.97
878.786	36.18
878.959	21.84
879.131	50.52
879.303	-27.31
879.476	-19.11
879.648	36.18
879.82	23.89
879.993	-29.35
880.165	23.89
880.337	-17.07
880.509	50.52
880.681	-23.21
880.854	54.61
881.026	-41.64
881.198	40.28
881.37	-15.02
881.542	83.28
881.714	25.94
881.886	42.32
882.058	-6.83
882.23	-25.26
882.402	42.32
882.574	5.46
882.746	17.75
882.918	19.8
883.09	46.42
883.262	-49.83
883.434	11.61
883.606	-8.87
883.778	64.85
883.95	71
884.122	11.61
884.293	62.8
884.465	1.37
884.637	79.19
884.809	32.08
884.98	11.61
885.152	1.37
885.324	56.66
885.496	42.32
885.667	19.8
885.839	13.65
886.011	30.04
886.182	42.32
886.354	-10.92
886.525	21.84
886.697	73.04
886.869	3.41
887.04	7.51
887.212	3.41
887.383	-31.4
887.555	54.61
887.726	32.08
887.897	77.14
888.069	5.46
888.24	13.65
888.412	34.13
888.583	7.51
888.754	73.04
888.926	-25.26
889.097	-8.87
889.268	-27.31
889.44	11.61
889.611	-17.07
889.782	15.7
889.953	48.47
890.125	91.48
890.296	-4.78
890.467	23.89
890.638	-12.97
890.809	25.94
890.98	-23.21
891.151	40.28
891.323	7.51
891.494	46.42
891.665	-19.11
891.836	5.46
892.007	-2.73
892.178	42.32
892.349	44.37
892.52	54.61
892.691	34.13
892.862	32.08
893.032	54.61
893.203	25.94
893.374	75.09
893.545	15.7
893.716	25.94
893.887	62.8
894.057	-4.78
894.228	93.52
894.399	9.56
894.57	81.24
894.74	-33.45
894.911	-49.83
895.082	56.66
895.253	30.04
895.423	-27.31
895.594	-51.88
895.764	27.99
895.935	-19.11
896.106	-4.78
896.276	38.23
896.447	15.7
896.617	21.84
896.788	48.47
896.958	62.8
897.129	27.99
897.299	46.42
897.47	-19.11
897.64	-35.5
897.81	91.48
897.981	77.14
898.151	48.47
898.322	56.66
898.492	50.52
898.662	-23.21
898.832	-2.73
899.003	-121.51
899.173	19.8
899.343	7.51
899.513	40.28
