Data from USB4F104151__50__12-53-55-694.txt Node

Date: Fri Mar 14 12:53:55 EDT 2025
User: louis
Spectrometer: USB4F10415
Trigger mode: 4
Integration Time (sec): 1.000000E-2
Scans to average: 1
Electric dark correction enabled: true
Nonlinearity correction enabled: false
Boxcar width: 0
XAxis mode: Wavelengths
Number of Pixels in Spectrum: 3648
>>>>>Begin Spectral Data<<<<<
178.204	-32.94
178.424	-32.94
178.644	-32.94
178.864	-94.38
179.084	-61.61
179.304	59.22
179.524	-16.55
179.744	-26.79
179.964	10.07
180.184	-30.89
180.404	-43.18
180.624	-41.13
180.844	83.8
181.064	32.6
181.283	42.84
181.503	-45.23
181.723	-24.75
181.943	-12.46
182.163	32.6
182.383	-16.55
182.602	-45.23
182.822	24.4
183.042	67.41
183.262	48.98
183.482	10.07
183.701	-37.03
183.921	10.07
184.141	-0.17
184.361	-24.75
184.58	46.93
184.8	-26.79
185.02	-4.27
185.239	-6.31
185.459	40.79
185.679	3.93
185.898	61.27
186.118	65.36
186.338	-0.17
186.557	51.03
186.777	63.32
186.997	59.22
187.216	-55.47
187.436	1.88
187.655	38.74
187.875	34.64
188.095	57.17
188.314	42.84
188.534	-6.31
188.753	20.31
188.973	14.17
189.192	10.07
189.412	-0.17
189.631	-39.08
189.851	34.64
190.07	48.98
190.29	-63.66
190.509	46.93
190.729	-34.99
190.948	16.21
191.168	51.03
191.387	10.07
191.607	53.08
191.826	-10.41
192.045	36.69
192.265	-12.46
192.484	36.69
192.704	14.17
192.923	12.12
193.142	28.5
193.362	46.93
193.581	48.98
193.8	36.69
194.02	8.02
194.239	3.93
194.458	18.26
194.678	51.03
194.897	3.93
195.116	-18.6
195.335	10.07
195.555	42.84
195.774	20.31
195.993	69.46
196.212	-22.7
196.432	20.31
196.651	44.88
196.87	20.31
197.089	-18.6
197.308	-8.36
197.528	48.98
197.747	-41.13
197.966	8.02
198.185	-0.17
198.404	1.88
198.623	24.4
198.842	1.88
199.062	46.93
199.281	42.84
199.5	1.88
199.719	63.32
199.938	-6.31
200.157	28.5
200.376	-0.17
200.595	40.79
200.814	-2.22
201.033	-49.32
201.252	34.64
201.471	42.84
201.69	-22.7
201.909	65.36
202.128	46.93
202.347	36.69
202.566	-8.36
202.785	32.6
203.004	-6.31
203.223	18.26
203.442	26.45
203.661	-4.27
203.879	-2.22
204.098	69.46
204.317	12.12
204.536	48.98
204.755	-26.79
204.974	48.98
205.193	61.27
205.411	8.02
205.63	81.75
205.849	14.17
206.068	-37.03
206.287	-14.51
206.505	-12.46
206.724	38.74
206.943	-18.6
207.162	10.07
207.381	-8.36
207.599	44.88
207.818	-6.31
208.037	-0.17
208.255	48.98
208.474	16.21
208.693	20.31
208.911	5.97
209.13	40.79
209.349	26.45
209.567	30.55
209.786	-8.36
210.005	3.93
210.223	51.03
210.442	-24.75
210.661	40.79
210.879	-20.65
211.098	10.07
211.316	12.12
211.535	120.66
211.753	-16.55
211.972	69.46
212.191	-53.42
212.409	-39.08
212.628	53.08
212.846	26.45
213.065	-14.51
213.283	71.51
213.502	-22.7
213.72	32.6
213.938	-12.46
214.157	122.71
214.375	28.5
214.594	12.12
214.812	-6.31
215.031	36.69
215.249	-10.41
215.467	-16.55
215.686	-73.9
215.904	42.84
216.122	26.45
216.341	10.07
216.559	-4.27
216.778	28.5
216.996	8.02
217.214	-47.27
217.432	8.02
217.651	10.07
217.869	-12.46
218.087	46.93
218.306	34.64
218.524	-24.75
218.742	-12.46
218.96	-18.6
219.179	8.02
219.397	34.64
219.615	96.08
219.833	-0.17
220.051	-18.6
220.27	51.03
220.488	73.56
220.706	59.22
220.924	-20.65
221.142	-39.08
221.36	22.36
221.578	16.21
221.796	-12.46
222.015	83.8
222.233	-12.46
222.451	28.5
222.669	63.32
222.887	5.97
223.105	1.88
223.323	44.88
223.541	48.98
223.759	30.55
223.977	36.69
224.195	85.84
224.413	53.08
224.631	28.5
224.849	65.36
225.067	83.8
225.285	96.08
225.503	-18.6
225.721	8.02
225.939	48.98
226.157	116.56
226.375	10.07
226.592	3.93
226.81	83.8
227.028	-59.56
227.246	79.7
227.464	30.55
227.682	42.84
227.9	12.12
228.117	1.88
228.335	-8.36
228.553	32.6
228.771	-0.17
228.989	14.17
229.206	-26.79
229.424	30.55
229.642	26.45
229.86	26.45
230.077	-14.51
230.295	-0.17
230.513	24.4
230.731	53.08
230.948	-47.27
231.166	-39.08
231.384	-6.31
231.601	32.6
231.819	42.84
232.037	8.02
232.254	32.6
232.472	32.6
232.689	57.17
232.907	51.03
233.125	5.97
233.342	-34.99
233.56	-18.6
233.777	-16.55
233.995	32.6
234.213	28.5
234.43	-41.13
234.648	51.03
234.865	-2.22
235.083	51.03
235.3	-32.94
235.518	-39.08
235.735	32.6
235.953	20.31
236.17	14.17
236.388	30.55
236.605	-2.22
236.822	3.93
237.04	53.08
237.257	-10.41
237.475	24.4
237.692	5.97
237.909	5.97
238.127	46.93
238.344	-8.36
238.562	-14.51
238.779	-2.22
238.996	18.26
239.214	-34.99
239.431	48.98
239.648	32.6
239.865	36.69
240.083	10.07
240.3	32.6
240.517	1.88
240.735	10.07
240.952	67.41
241.169	18.26
241.386	46.93
241.603	51.03
241.821	44.88
242.038	26.45
242.255	10.07
242.472	59.22
242.689	-4.27
242.907	36.69
243.124	24.4
243.341	-2.22
243.558	53.08
243.775	-10.41
243.992	-49.32
244.209	34.64
244.426	77.65
244.643	57.17
244.86	14.17
245.078	16.21
245.295	-0.17
245.512	48.98
245.729	-28.84
245.946	-2.22
246.163	-26.79
246.38	12.12
246.597	77.65
246.814	-20.65
247.031	12.12
247.248	116.56
247.464	112.47
247.681	65.36
247.898	-14.51
248.115	42.84
248.332	34.64
248.549	-14.51
248.766	-45.23
248.983	65.36
249.2	63.32
249.417	106.32
249.633	16.21
249.85	-22.7
250.067	-26.79
250.284	-6.31
250.501	10.07
250.717	42.84
250.934	5.97
251.151	57.17
251.368	10.07
251.585	8.02
251.801	32.6
252.018	42.84
252.235	-8.36
252.451	18.26
252.668	40.79
252.885	22.36
253.102	16.21
253.318	83.8
253.535	-10.41
253.752	91.99
253.968	-39.08
254.185	10.07
254.401	-2.22
254.618	42.84
254.835	-8.36
255.051	87.89
255.268	26.45
255.484	61.27
255.701	10.07
255.917	-4.27
256.134	24.4
256.351	-2.22
256.567	59.22
256.784	57.17
257	42.84
257.217	53.08
257.433	59.22
257.65	46.93
257.866	-2.22
258.082	-0.17
258.299	14.17
258.515	61.27
258.732	-14.51
258.948	65.36
259.165	42.84
259.381	-10.41
259.597	48.98
259.814	22.36
260.03	-22.7
260.246	-8.36
260.463	46.93
260.679	30.55
260.895	38.74
261.112	30.55
261.328	-30.89
261.544	12.12
261.761	12.12
261.977	-12.46
262.193	-0.17
262.409	51.03
262.626	-20.65
262.842	16.21
263.058	-30.89
263.274	-28.84
263.49	18.26
263.707	-6.31
263.923	51.03
264.139	3.93
264.355	22.36
264.571	-0.17
264.787	55.12
265.004	51.03
265.22	34.64
265.436	-12.46
265.652	-39.08
265.868	16.21
266.084	34.64
266.3	-6.31
266.516	42.84
266.732	10.07
266.948	-10.41
267.164	53.08
267.38	30.55
267.596	-24.75
267.812	-4.27
268.028	5.97
268.244	3.93
268.46	85.84
268.676	53.08
268.892	-6.31
269.108	-4.27
269.324	73.56
269.54	75.6
269.756	71.51
269.972	-8.36
270.188	12.12
270.403	32.6
270.619	42.84
270.835	71.51
271.051	14.17
271.267	16.21
271.483	59.22
271.698	38.74
271.914	-45.23
272.13	-28.84
272.346	-41.13
272.562	79.7
272.777	-10.41
272.993	-10.41
273.209	16.21
273.425	10.07
273.64	10.07
273.856	87.89
274.072	53.08
274.287	-53.42
274.503	12.12
274.719	28.5
274.934	-14.51
275.15	18.26
275.366	-8.36
275.581	-20.65
275.797	89.94
276.012	18.26
276.228	122.71
276.444	55.12
276.659	67.41
276.875	-53.42
277.09	14.17
277.306	-12.46
277.521	16.21
277.737	-6.31
277.952	-39.08
278.168	1.88
278.383	65.36
278.599	-0.17
278.814	-59.56
279.03	3.93
279.245	-12.46
279.461	63.32
279.676	32.6
279.892	26.45
280.107	-41.13
280.322	30.55
280.538	36.69
280.753	30.55
280.969	81.75
281.184	30.55
281.399	28.5
281.615	14.17
281.83	22.36
282.045	-39.08
282.26	14.17
282.476	14.17
282.691	10.07
282.906	14.17
283.122	5.97
283.337	53.08
283.552	30.55
283.767	-20.65
283.983	-6.31
284.198	40.79
284.413	22.36
284.628	32.6
284.843	42.84
285.058	10.07
285.274	69.46
285.489	-18.6
285.704	28.5
285.919	-34.99
286.134	63.32
286.349	-8.36
286.564	22.36
286.779	-2.22
286.995	-16.55
287.21	-32.94
287.425	5.97
287.64	-2.22
287.855	44.88
288.07	40.79
288.285	36.69
288.5	22.36
288.715	63.32
288.93	48.98
289.145	-18.6
289.36	-41.13
289.575	67.41
289.79	40.79
290.004	-22.7
290.219	73.56
290.434	-6.31
290.649	8.02
290.864	26.45
291.079	32.6
291.294	20.31
291.509	-0.17
291.724	3.93
291.938	5.97
292.153	-8.36
292.368	42.84
292.583	46.93
292.798	5.97
293.012	24.4
293.227	42.84
293.442	-14.51
293.657	20.31
293.871	-2.22
294.086	12.12
294.301	-16.55
294.516	63.32
294.73	24.4
294.945	-6.31
295.16	-0.17
295.374	5.97
295.589	-14.51
295.804	18.26
296.018	-57.51
296.233	-53.42
296.447	32.6
296.662	-6.31
296.877	51.03
297.091	59.22
297.306	57.17
297.52	30.55
297.735	24.4
297.949	24.4
298.164	-16.55
298.378	-4.27
298.593	87.89
298.807	8.02
299.022	67.41
299.236	28.5
299.451	53.08
299.665	42.84
299.88	40.79
300.094	32.6
300.309	32.6
300.523	-4.27
300.737	14.17
300.952	22.36
301.166	10.07
301.381	69.46
301.595	48.98
301.809	24.4
302.024	51.03
302.238	16.21
302.452	-37.03
302.667	42.84
302.881	79.7
303.095	16.21
303.309	-90.28
303.524	24.4
303.738	32.6
303.952	-65.71
304.166	46.93
304.381	-22.7
304.595	18.26
304.809	20.31
305.023	26.45
305.237	8.02
305.452	53.08
305.666	-0.17
305.88	44.88
306.094	-37.03
306.308	24.4
306.522	32.6
306.736	38.74
306.95	-22.7
307.164	44.88
307.379	-43.18
307.593	-0.17
307.807	61.27
308.021	38.74
308.235	24.4
308.449	-20.65
308.663	71.51
308.877	36.69
309.091	-12.46
309.305	-26.79
309.519	38.74
309.733	77.65
309.947	-12.46
310.161	44.88
310.374	-18.6
310.588	-32.94
310.802	46.93
311.016	34.64
311.23	48.98
311.444	8.02
311.658	16.21
311.872	-45.23
312.085	1.88
312.299	16.21
312.513	94.04
312.727	-16.55
312.941	61.27
313.154	-0.17
313.368	22.36
313.582	57.17
313.796	18.26
314.009	12.12
314.223	22.36
314.437	59.22
314.651	67.41
314.864	38.74
315.078	-14.51
315.292	-14.51
315.505	-4.27
315.719	53.08
315.933	53.08
316.146	98.13
316.36	-16.55
316.573	36.69
316.787	28.5
317.001	40.79
317.214	-37.03
317.428	-37.03
317.641	-14.51
317.855	34.64
318.068	-12.46
318.282	91.99
318.495	-12.46
318.709	75.6
318.922	8.02
319.136	63.32
319.349	-18.6
319.563	42.84
319.776	48.98
319.99	-14.51
320.203	71.51
320.417	-24.75
320.63	-20.65
320.843	8.02
321.057	63.32
321.27	59.22
321.483	-39.08
321.697	46.93
321.91	59.22
322.124	81.75
322.337	-30.89
322.55	-10.41
322.763	3.93
322.977	22.36
323.19	10.07
323.403	8.02
323.617	1.88
323.83	98.13
324.043	63.32
324.256	-45.23
324.469	30.55
324.683	24.4
324.896	-6.31
325.109	28.5
325.322	-18.6
325.535	61.27
325.748	-22.7
325.962	42.84
326.175	-16.55
326.388	42.84
326.601	69.46
326.814	-14.51
327.027	63.32
327.24	32.6
327.453	14.17
327.666	73.56
327.879	114.52
328.092	3.93
328.305	-10.41
328.518	-6.31
328.731	26.45
328.944	14.17
329.157	-14.51
329.37	32.6
329.583	75.6
329.796	67.41
330.009	-14.51
330.222	5.97
330.435	36.69
330.648	48.98
330.861	-28.84
331.073	44.88
331.286	-26.79
331.499	120.66
331.712	-6.31
331.925	53.08
332.138	135
332.35	-32.94
332.563	-32.94
332.776	32.6
332.989	-24.75
333.202	61.27
333.414	3.93
333.627	-71.85
333.84	24.4
334.053	46.93
334.265	51.03
334.478	-39.08
334.691	-24.75
334.903	-24.75
335.116	53.08
335.329	-2.22
335.541	18.26
335.754	16.21
335.966	5.97
336.179	5.97
336.392	-4.27
336.604	8.02
336.817	-39.08
337.029	-0.17
337.242	38.74
337.454	5.97
337.667	16.21
337.88	28.5
338.092	22.36
338.305	-28.84
338.517	34.64
338.729	67.41
338.942	-2.22
339.154	81.75
339.367	65.36
339.579	38.74
339.792	-4.27
340.004	16.21
340.217	-80.04
340.429	22.36
340.641	-39.08
340.854	34.64
341.066	1.88
341.278	24.4
341.491	-43.18
341.703	24.4
341.915	-45.23
342.128	8.02
342.34	53.08
342.552	32.6
342.764	-37.03
342.977	51.03
343.189	-8.36
343.401	-45.23
343.613	81.75
343.826	-16.55
344.038	-6.31
344.25	1.88
344.462	5.97
344.674	30.55
344.886	55.12
345.099	65.36
345.311	26.45
345.523	122.71
345.735	120.66
345.947	12.12
346.159	28.5
346.371	36.69
346.583	12.12
346.795	65.36
347.007	59.22
347.219	40.79
347.431	51.03
347.643	67.41
347.855	32.6
348.067	57.17
348.279	48.98
348.491	36.69
348.703	1.88
348.915	-4.27
349.127	20.31
349.339	-18.6
349.551	-39.08
349.763	83.8
349.975	-69.8
350.187	-28.84
350.399	-6.31
350.61	32.6
350.822	-0.17
351.034	63.32
351.246	48.98
351.458	36.69
351.669	14.17
351.881	-6.31
352.093	-65.71
352.305	55.12
352.517	85.84
352.728	12.12
352.94	83.8
353.152	-49.32
353.363	-8.36
353.575	34.64
353.787	-6.31
353.999	-4.27
354.21	40.79
354.422	-39.08
354.633	-24.75
354.845	-39.08
355.057	1.88
355.268	59.22
355.48	42.84
355.692	51.03
355.903	16.21
356.115	34.64
356.326	-2.22
356.538	75.6
356.749	38.74
356.961	87.89
357.172	124.76
357.384	-16.55
357.595	26.45
357.807	32.6
358.018	5.97
358.23	14.17
358.441	-0.17
358.653	12.12
358.864	-10.41
359.075	12.12
359.287	-22.7
359.498	69.46
359.709	28.5
359.921	28.5
360.132	18.26
360.344	44.88
360.555	104.28
360.766	69.46
360.977	-12.46
361.189	40.79
361.4	63.32
361.611	-14.51
361.823	-12.46
362.034	-4.27
362.245	-37.03
362.456	-32.94
362.667	-22.7
362.879	-22.7
363.09	-20.65
363.301	16.21
363.512	57.17
363.723	46.93
363.935	32.6
364.146	38.74
364.357	8.02
364.568	42.84
364.779	-43.18
364.99	-14.51
365.201	-22.7
365.412	26.45
365.623	-37.03
365.834	-4.27
366.045	-22.7
366.256	3.93
366.467	69.46
366.678	-12.46
366.889	69.46
367.1	-28.84
367.311	42.84
367.522	28.5
367.733	73.56
367.944	-6.31
368.155	32.6
368.366	59.22
368.577	8.02
368.788	96.08
368.999	-28.84
369.209	38.74
369.42	14.17
369.631	16.21
369.842	1.88
370.053	-14.51
370.264	77.65
370.474	81.75
370.685	-26.79
370.896	-37.03
371.107	44.88
371.317	36.69
371.528	-0.17
371.739	77.65
371.95	75.6
372.16	26.45
372.371	28.5
372.582	38.74
372.792	-41.13
373.003	-55.47
373.214	20.31
373.424	30.55
373.635	-2.22
373.846	-2.22
374.056	48.98
374.267	-43.18
374.477	83.8
374.688	30.55
374.898	-2.22
375.109	3.93
375.319	77.65
375.53	57.17
375.74	-8.36
375.951	77.65
376.161	59.22
376.372	8.02
376.582	61.27
376.793	5.97
377.003	20.31
377.214	79.7
377.424	63.32
377.635	65.36
377.845	-18.6
378.055	-16.55
378.266	61.27
378.476	26.45
378.686	28.5
378.897	16.21
379.107	-12.46
379.317	79.7
379.528	61.27
379.738	22.36
379.948	26.45
380.158	71.51
380.369	26.45
380.579	63.32
380.789	1.88
380.999	-18.6
381.21	14.17
381.42	10.07
381.63	77.65
381.84	20.31
382.05	14.17
382.261	65.36
382.471	26.45
382.681	71.51
382.891	67.41
383.101	63.32
383.311	42.84
383.521	1.88
383.731	-16.55
383.941	51.03
384.151	118.61
384.361	48.98
384.571	-26.79
384.781	3.93
384.991	30.55
385.201	46.93
385.411	5.97
385.621	44.88
385.831	44.88
386.041	106.32
386.251	-16.55
386.461	40.79
386.671	-4.27
386.881	36.69
387.091	-10.41
387.301	26.45
387.511	61.27
387.72	38.74
387.93	42.84
388.14	55.12
388.35	53.08
388.56	65.36
388.769	63.32
388.979	44.88
389.189	-12.46
389.399	-2.22
389.609	14.17
389.818	53.08
390.028	-34.99
390.238	94.04
390.447	34.64
390.657	73.56
390.867	-16.55
391.076	-28.84
391.286	-12.46
391.496	-22.7
391.705	38.74
391.915	57.17
392.125	104.28
392.334	10.07
392.544	16.21
392.753	61.27
392.963	16.21
393.172	36.69
393.382	87.89
393.591	79.7
393.801	-32.94
394.01	89.94
394.22	-12.46
394.429	12.12
394.639	-0.17
394.848	65.36
395.058	61.27
395.267	63.32
395.477	-4.27
395.686	75.6
395.895	96.08
396.105	77.65
396.314	18.26
396.524	42.84
396.733	85.84
396.942	24.4
397.152	67.41
397.361	79.7
397.57	16.21
397.78	40.79
397.989	57.17
398.198	112.47
398.407	-28.84
398.617	-14.51
398.826	-14.51
399.035	69.46
399.244	36.69
399.453	61.27
399.663	32.6
399.872	91.99
400.081	3.93
400.29	-0.17
400.499	32.6
400.708	85.84
400.917	71.51
401.127	-8.36
401.336	-2.22
401.545	73.56
401.754	36.69
401.963	100.18
402.172	34.64
402.381	12.12
402.59	-22.7
402.799	69.46
403.008	20.31
403.217	16.21
403.426	57.17
403.635	32.6
403.844	30.55
404.053	81.75
404.262	94.04
404.471	59.22
404.68	30.55
404.888	38.74
405.097	-4.27
405.306	5.97
405.515	61.27
405.724	44.88
405.933	51.03
406.142	-47.27
406.35	71.51
406.559	59.22
406.768	-22.7
406.977	83.8
407.185	22.36
407.394	130.9
407.603	51.03
407.812	75.6
408.02	75.6
408.229	67.41
408.438	71.51
408.646	24.4
408.855	30.55
409.064	57.17
409.272	65.36
409.481	73.56
409.69	100.18
409.898	75.6
410.107	44.88
410.315	85.84
410.524	38.74
410.733	79.7
410.941	87.89
411.15	153.43
411.358	83.8
411.567	79.7
411.775	-59.56
411.984	79.7
412.192	100.18
412.401	118.61
412.609	153.43
412.818	118.61
413.026	122.71
413.234	57.17
413.443	204.63
413.651	98.13
413.86	100.18
414.068	128.85
414.276	22.36
414.485	132.95
414.693	196.43
414.901	190.29
415.11	139.09
415.318	163.67
415.526	157.52
415.734	206.67
415.943	167.76
416.151	155.47
416.359	122.71
416.567	163.67
416.776	157.52
416.984	165.71
417.192	241.49
417.4	188.24
417.608	163.67
417.817	243.54
418.025	270.16
418.233	243.54
418.441	235.35
418.649	313.17
418.857	208.72
419.065	266.07
419.273	311.12
419.481	223.06
419.689	229.2
419.897	288.59
420.105	270.16
420.313	223.06
420.521	270.16
420.729	294.74
420.937	364.37
421.145	423.76
421.353	329.55
421.561	323.41
421.769	446.29
421.977	429.9
422.185	384.85
422.393	345.94
422.601	436.05
422.809	444.24
423.017	366.42
423.224	464.72
423.432	534.35
423.64	425.81
423.848	487.25
424.056	485.2
424.263	520.01
424.471	538.45
424.679	503.63
424.887	567.12
425.094	560.97
425.302	649.04
425.51	593.74
425.718	599.88
425.925	665.42
426.133	626.51
426.341	685.9
426.548	761.67
426.756	790.35
426.964	741.19
427.171	857.93
427.379	765.77
427.586	714.57
427.794	806.73
428.001	859.98
428.209	948.04
428.417	935.75
428.624	909.13
428.832	948.04
429.039	896.84
429.247	941.89
429.454	1007.43
429.662	1177.41
429.869	1101.64
430.076	1101.64
430.284	1050.44
430.491	1165.12
430.699	1179.46
430.906	1204.03
431.114	1212.23
431.321	1326.91
431.528	1236.8
431.736	1439.55
431.943	1410.88
432.15	1478.46
432.358	1406.78
432.565	1451.84
432.772	1482.56
432.979	1625.92
433.187	1623.87
433.394	1580.86
433.601	1611.58
433.808	1683.26
434.016	1802.04
434.223	1716.03
434.43	1834.81
434.637	1898.3
434.844	1969.98
435.052	1998.65
435.259	1974.07
435.466	2006.84
435.673	1998.65
435.88	2094.9
436.087	2273.07
436.294	2158.39
436.501	2236.21
436.708	2217.78
436.915	2363.19
437.122	2354.99
437.329	2318.13
437.537	2496.3
437.743	2617.13
437.95	2524.97
438.157	2643.76
438.364	2647.85
438.571	2817.83
438.778	2875.18
438.985	3032.87
439.192	2817.83
439.399	2922.28
439.606	2813.74
439.813	3030.82
440.02	3223.33
440.227	3276.58
440.433	3168.04
440.64	3256.1
440.847	3247.91
441.054	3290.92
441.261	3544.86
441.467	3501.86
441.674	3641.12
441.881	3700.51
442.088	3798.81
442.294	3706.65
442.501	3792.67
442.708	3708.7
442.914	3847.96
443.121	4069.14
443.328	4017.94
443.534	4419.35
443.741	4292.37
443.948	4075.29
444.154	4390.67
444.361	4296.47
444.568	4450.07
444.774	4300.56
444.981	4491.02
445.187	4661.01
445.394	4955.91
445.6	4632.33
445.807	5158.66
446.013	4964.11
446.22	5035.78
446.426	5230.34
446.633	5330.69
446.839	5437.19
447.046	5332.74
447.252	5572.35
447.459	5615.36
447.665	5502.72
447.871	5873.4
448.078	5897.98
448.284	5891.84
448.491	5924.6
448.697	6143.74
448.903	6254.33
449.11	6399.73
449.316	6326
449.522	6342.39
449.728	6575.86
449.935	6504.18
450.141	6512.37
450.347	6657.78
450.553	6389.49
450.76	6700.78
450.966	6772.46
451.172	6797.04
451.378	6975.21
451.584	6856.43
451.791	7102.18
451.997	6901.48
452.203	6909.68
452.409	7110.38
452.615	7028.46
452.821	6731.5
453.027	6803.18
453.233	7118.57
453.44	6915.82
453.646	6797.04
453.852	6979.31
454.058	7012.07
454.264	6831.85
454.47	7016.17
454.676	6772.46
454.882	7048.94
455.088	6401.78
455.294	6524.66
455.5	6692.59
455.705	6723.31
455.911	6442.74
456.117	6311.67
456.323	6178.55
456.529	5771.01
456.735	6344.44
456.941	6006.52
457.147	5959.42
457.352	5861.12
457.558	5723.9
457.764	5768.96
457.97	5728
458.176	5547.78
458.381	5617.41
458.587	5330.69
458.793	5291.78
458.999	5078.79
459.204	5490.43
459.41	5375.75
459.616	5005.06
459.821	4910.86
460.027	4781.84
460.233	4910.86
460.438	4615.95
460.644	4704.01
460.85	4316.95
461.055	4470.55
461.261	4341.52
461.466	4011.8
461.672	3995.42
461.878	4226.84
462.083	4075.29
462.289	3884.83
462.494	3831.58
462.7	3694.36
462.905	3583.77
463.111	3682.08
463.316	3807
463.522	3737.37
463.727	3716.89
463.932	3778.33
464.138	3602.21
464.343	3680.03
464.549	3661.6
464.754	3581.73
464.959	3540.77
465.165	3643.17
465.37	3532.58
465.575	3325.73
465.781	3473.18
465.986	3596.06
466.191	3487.52
466.397	3354.4
466.602	3178.28
466.807	3276.58
467.012	3362.59
467.218	3231.52
467.423	3438.37
467.628	3262.24
467.833	3452.7
468.038	3385.12
468.244	3262.24
468.449	3288.87
468.654	3313.44
468.859	3295.01
469.064	3239.72
469.269	3163.94
469.474	3120.93
469.679	3190.56
469.885	3100.45
470.09	3122.98
470.295	3098.41
470.5	2955.05
470.705	3125.03
470.91	3012.39
471.115	3022.63
471.32	2973.48
471.525	2993.96
471.73	2926.38
471.935	2959.14
472.139	2895.66
472.344	2844.46
472.549	2914.09
472.754	2795.31
472.959	2871.08
473.164	2592.56
473.369	2545.45
473.574	2746.16
473.778	2617.13
473.983	2621.23
474.188	2723.63
474.393	2551.6
474.598	2535.21
474.802	2438.96
475.007	2559.79
475.212	2461.49
475.417	2451.25
475.621	2557.74
475.826	2441.01
476.031	2424.62
476.235	2336.56
476.44	2379.57
476.645	2234.16
476.849	2354.99
477.054	2275.12
477.259	2297.65
477.463	2287.41
477.668	2174.77
477.872	2260.79
478.077	2197.3
478.282	2133.81
478.486	2144.05
478.691	2017.08
478.895	2139.96
479.1	2123.57
479.304	2055.99
479.509	2078.52
479.713	1994.55
479.918	2099
480.122	2000.69
480.326	1939.26
480.531	1910.58
480.735	2090.81
480.94	1984.31
481.144	1986.36
481.348	1879.86
481.553	1967.93
481.757	1904.44
481.961	1974.07
482.166	1994.55
482.37	1935.16
482.574	1908.54
482.778	2027.32
482.983	1972.02
483.187	1920.82
483.391	1994.55
483.595	1986.36
483.8	2027.32
484.004	1892.15
484.208	2023.22
484.412	1939.26
484.616	2111.29
484.821	2029.37
485.025	2002.74
485.229	1992.5
485.433	1883.96
485.637	2019.13
485.841	1982.26
486.045	1957.69
486.249	1875.77
486.453	2035.51
486.657	2002.74
486.861	1910.58
487.065	1926.97
487.269	2062.13
487.473	2064.18
487.677	2068.28
487.881	2068.28
488.085	1945.4
488.289	2162.48
488.493	2043.7
488.697	2182.96
488.901	2080.57
489.105	2074.42
489.309	2150.2
489.512	2080.57
489.716	2094.9
489.92	2096.95
490.124	2121.52
490.328	2195.25
490.531	2113.33
490.735	2277.17
490.939	2225.97
491.143	2234.16
491.346	2131.76
491.55	2305.84
491.754	2185.01
491.958	2281.27
492.161	2207.54
492.365	2277.17
492.569	2176.82
492.772	2307.89
492.976	2346.8
493.18	2219.83
493.383	2359.09
493.587	2336.56
493.79	2432.82
493.994	2303.79
494.197	2412.34
494.401	2510.64
494.605	2447.15
494.808	2481.97
495.012	2486.06
495.215	2522.93
495.419	2561.84
495.622	2471.73
495.825	2488.11
496.029	2705.2
496.232	2619.18
496.436	2686.76
496.639	2873.13
496.843	2754.35
497.046	2903.85
497.249	3024.68
497.453	2862.89
497.656	2862.89
497.859	2926.38
498.063	2856.75
498.266	3073.83
498.469	3018.54
498.673	3055.4
498.876	3221.28
499.079	3184.42
499.282	3131.17
499.485	3245.86
499.689	3227.43
499.892	3340.07
500.095	3378.98
500.298	3569.44
500.501	3587.87
500.705	3518.24
500.908	3532.58
501.111	3493.66
501.314	3649.31
501.517	3667.74
501.72	3796.76
501.923	3829.53
502.126	3864.35
502.329	3997.46
502.532	4013.85
502.735	3931.93
502.938	4265.75
503.141	4124.44
503.344	4237.08
503.547	4108.05
503.75	4316.95
503.953	4409.11
504.156	4314.9
504.359	4374.29
504.562	4613.9
504.765	4759.31
504.968	4724.49
505.17	4759.31
505.373	4818.7
505.576	4798.22
505.779	4876.04
505.982	5134.09
506.185	5048.07
506.387	5185.29
506.59	5203.72
506.793	5308.16
506.996	5263.11
507.198	5746.43
507.401	5492.48
507.604	5605.12
507.807	5725.95
508.009	5830.4
508.212	5930.75
508.415	5713.66
508.617	5973.75
508.82	6020.86
509.022	6133.5
509.225	6143.74
509.428	6375.16
509.63	6276.85
509.833	6283
510.035	6426.36
510.238	6565.62
510.44	6631.15
510.643	6778.61
510.845	6776.56
511.048	6962.92
511.25	7046.89
511.453	7055.08
511.655	7157.48
511.858	7223.02
512.06	7347.94
512.262	7413.48
512.465	7431.91
512.667	7630.56
512.87	7579.36
513.072	7929.56
513.274	8019.67
513.477	7909.08
513.679	7958.24
513.881	8103.64
514.084	8273.62
514.286	8222.42
514.488	8511.19
514.69	8732.37
514.893	8394.45
515.095	8720.08
515.297	8779.47
515.499	8879.82
515.701	9090.76
515.904	9250.5
516.106	9125.58
516.308	9234.12
516.51	9354.95
516.712	9459.4
516.914	9586.37
517.116	9541.32
517.318	9774.78
517.52	9750.21
517.722	9846.46
517.925	10098.36
518.127	10436.28
518.329	10198.71
518.531	10309.3
518.733	10401.46
518.935	10448.57
519.136	10708.66
519.338	10768.05
519.54	10688.18
519.742	10978.99
519.944	10866.35
520.146	11275.95
520.348	11323.05
520.55	11185.83
520.752	11484.84
520.954	11533.99
521.155	11431.59
521.357	11751.07
521.559	11894.43
521.761	11937.44
521.963	12033.69
522.164	11984.54
522.366	11935.39
522.568	12103.32
522.77	12418.71
522.971	12426.9
523.173	12715.67
523.375	12592.79
523.576	12586.65
523.778	12699.28
523.98	12807.83
524.181	12850.83
524.383	13043.34
524.584	13565.57
524.786	13291.15
524.988	13035.15
525.189	13569.67
525.391	13538.95
525.592	13614.73
525.794	13696.64
525.995	13577.86
526.197	13753.99
526.398	13827.71
526.6	13825.67
526.801	13938.3
527.003	14079.61
527.204	14171.77
527.406	14169.73
527.607	14186.11
527.808	14521.98
528.01	14044.8
528.211	14255.74
528.412	14640.76
528.614	14345.85
528.815	14489.21
529.016	14737.01
529.218	14538.36
529.419	14669.43
529.62	14544.5
529.822	14620.28
530.023	14829.17
530.224	14669.43
530.425	15011.44
530.626	14765.68
530.828	14777.97
531.029	15195.76
531.23	14937.71
531.431	15251.05
531.632	15308.4
531.833	15294.06
532.035	15160.94
532.236	15343.21
532.437	15472.23
532.638	15242.86
532.839	15105.65
533.04	15449.71
533.241	15343.21
533.442	15599.21
533.643	15613.54
533.844	15345.26
534.045	15511.14
534.246	15335.02
534.447	15523.43
534.648	15658.6
534.849	15554.15
535.05	15457.9
535.251	15742.57
535.451	15593.06
535.652	15545.96
535.853	15539.82
536.054	15959.65
536.255	15830.63
536.456	15500.9
536.657	15976.03
536.857	15607.4
537.058	15840.87
537.259	15914.59
537.46	15996.51
537.66	15842.92
537.861	16060
538.062	15978.08
538.263	15912.55
538.463	15949.41
538.664	15894.11
538.865	16109.15
539.065	16121.44
539.266	15930.98
539.466	16332.38
539.667	15761
539.868	16244.32
540.068	15890.02
540.269	16002.66
540.469	16320.09
540.67	16107.1
540.87	16326.24
541.071	16272.99
541.271	16152.16
541.472	16578.14
541.672	16031.33
541.873	16047.71
542.073	15994.47
542.274	16316
542.474	16277.08
542.675	16016.99
542.875	16428.63
543.075	16471.64
543.276	16219.74
543.476	16035.42
543.676	16449.11
543.877	16449.11
544.077	16449.11
544.277	16555.61
544.478	16242.27
544.678	16227.93
544.878	16361.05
545.078	16256.61
545.279	16240.22
545.479	16371.29
545.679	16438.87
545.879	16416.35
546.079	16375.39
546.28	16477.79
546.48	16461.4
546.68	16526.94
546.88	16539.22
547.08	16567.9
547.28	16240.22
547.48	16293.47
547.68	16496.22
547.88	16481.88
548.081	16557.66
548.281	16356.96
548.481	16707.16
548.681	16557.66
548.881	16428.63
549.081	16356.96
549.28	16504.41
549.48	16559.7
549.68	16481.88
549.88	16899.67
550.08	16488.03
550.28	16514.65
550.48	16485.98
550.68	16635.48
550.88	16549.46
551.08	16412.25
551.279	16631.38
551.479	16449.11
551.679	16586.33
551.879	16395.87
552.079	16574.04
552.278	16402.01
552.478	16391.77
552.678	16502.36
552.878	16408.15
553.077	16555.61
553.277	16406.11
553.477	16653.91
553.676	16436.83
553.876	16318.04
554.076	16469.59
554.275	16420.44
554.475	16524.89
554.674	16471.64
554.874	16778.84
555.074	16660.06
555.273	16508.51
555.473	16426.59
555.672	16322.14
555.872	16254.56
556.071	16528.99
556.271	16383.58
556.47	16615
556.67	16471.64
556.869	16447.07
557.068	16457.31
557.268	16346.72
557.467	16422.49
557.667	16406.11
557.866	16404.06
558.065	16313.95
558.265	16207.45
558.464	16254.56
558.663	16508.51
558.863	16303.71
559.062	16533.08
559.261	16316
559.461	16746.07
559.66	16057.95
559.859	16270.94
560.058	16277.08
560.258	16422.49
560.457	16146.01
560.656	16455.26
560.855	16082.53
561.054	16330.33
561.253	16277.08
561.453	16219.74
561.652	16318.04
561.851	16352.86
562.05	16213.6
562.249	16088.67
562.448	16234.08
562.647	16193.12
562.846	16180.83
563.045	16225.89
563.244	16164.45
563.443	16199.26
563.642	15867.49
563.841	16264.8
564.04	16008.8
564.239	16078.43
564.438	16143.97
564.637	16279.13
564.836	16238.17
565.035	15986.27
565.234	16281.18
565.432	15924.83
565.631	16027.23
565.83	15906.4
566.029	16285.28
566.228	15955.55
566.427	16307.8
566.625	15924.83
566.824	15763.04
567.023	16072.29
567.222	15758.95
567.42	16053.86
567.619	15847.01
567.818	15736.42
568.016	15785.57
568.215	16229.98
568.414	16025.18
568.612	16137.82
568.811	15916.64
569.01	16016.99
569.208	15847.01
569.407	16090.72
569.605	15640.17
569.804	15804
570.002	15754.85
570.201	15881.83
570.4	15750.76
570.598	15545.96
570.797	15890.02
570.995	16135.78
571.193	15595.11
571.392	15652.45
571.59	15742.57
571.789	15783.52
571.987	15457.9
572.186	15541.86
572.384	15629.93
572.582	15474.28
572.781	15857.25
572.979	15312.49
573.177	15658.6
573.376	15642.21
573.574	15537.77
573.772	15509.1
573.971	15468.14
574.169	15214.19
574.367	15298.16
574.565	15226.48
574.763	15519.34
574.962	15269.48
575.16	15056.5
575.358	15138.41
575.556	15031.92
575.754	15222.38
575.952	15132.27
576.151	15427.18
576.349	15015.54
576.547	14966.38
576.745	15384.17
576.943	15042.16
577.141	14999.15
577.339	15154.8
577.537	14902.9
577.735	14952.05
577.933	14728.82
578.131	15040.11
578.329	14423.67
578.527	14861.94
578.725	14894.71
578.923	14945.91
579.121	14599.8
579.319	14628.47
579.516	14753.4
579.714	14728.82
579.912	14683.77
580.11	14505.59
580.308	14448.25
580.506	14360.19
580.704	14239.36
580.901	14411.39
581.099	14456.44
581.297	14196.35
581.495	14470.78
581.692	14202.49
581.89	14343.8
582.088	14263.93
582.285	14149.25
582.483	14253.69
582.681	14214.78
582.878	13887.11
583.076	14153.34
583.274	14089.85
583.471	13823.62
583.669	14278.27
583.866	13780.61
584.064	13844.1
584.262	13753.99
584.459	14014.08
584.657	13817.47
584.854	14030.46
585.052	13647.49
585.249	13901.44
585.447	13766.28
585.644	13596.29
585.841	13723.27
586.039	13844.1
586.236	13661.83
586.434	13577.86
586.631	13596.29
586.828	13682.31
587.026	13352.59
587.223	13538.95
587.42	13500.04
587.618	13452.94
587.815	13231.76
588.012	13242
588.21	13409.93
588.407	13106.83
588.604	13115.02
588.801	13289.1
588.999	13196.94
589.196	13155.98
589.393	12981.9
589.59	12895.89
589.787	13020.81
589.984	13108.88
590.182	12897.94
590.379	13096.59
590.576	12906.13
590.773	12926.61
590.97	12875.41
591.167	12856.98
591.364	12811.92
591.561	12523.16
591.758	12689.04
591.955	12768.91
592.152	12746.39
592.349	12453.53
592.546	12441.24
592.743	12461.72
592.94	12615.32
593.137	12533.4
593.334	12418.71
593.531	12175
593.727	12476.05
593.924	12543.64
594.121	12457.62
594.318	12383.9
594.515	12138.14
594.712	12580.5
594.908	12250.78
595.105	12265.11
595.302	12015.26
595.499	12111.52
595.696	12052.13
595.892	11998.88
596.089	11949.73
596.286	12205.72
596.482	12115.61
596.679	11884.19
596.876	11980.45
597.072	11785.89
597.269	11777.7
597.466	11505.32
597.662	11824.8
597.859	11800.23
598.055	11650.72
598.252	11390.63
598.448	11796.13
598.645	11456.17
598.841	11527.85
599.038	11503.27
599.234	11667.11
599.431	11364.01
599.627	11333.29
599.824	11558.56
600.02	11351.72
600.217	11361.96
600.413	11148.97
600.609	11323.05
600.806	11222.7
601.002	11394.73
601.198	11124.4
601.395	10886.83
601.591	11028.14
601.787	10995.37
601.984	10905.26
602.18	11153.07
602.376	11017.9
602.572	10819.25
602.769	11089.58
602.965	10679.99
603.161	10819.25
603.357	10897.07
603.553	10593.97
603.75	10739.38
603.946	10849.97
604.142	10796.72
604.338	10544.82
604.534	10655.41
604.73	10512.05
604.926	10411.7
605.122	10499.77
605.318	10438.33
605.514	10237.63
605.71	10385.08
605.906	10321.59
606.102	10335.93
606.298	10204.86
606.494	10243.77
606.69	9969.34
606.886	10215.1
607.082	10122.94
607.278	10204.86
607.474	10069.69
607.67	10303.16
607.866	10016.44
608.062	10264.25
608.257	10018.49
608.453	10094.27
608.649	10014.4
608.845	9825.98
609.041	9875.13
609.236	9903.81
609.432	9881.28
609.628	9887.42
609.824	9643.71
610.019	9705.15
610.215	9739.97
610.411	9889.47
610.606	9690.82
610.802	9846.46
610.998	9649.86
611.193	9701.06
611.389	9735.87
611.584	9582.28
611.78	9752.26
611.976	9737.92
612.171	9608.9
612.367	9397.96
612.562	9551.56
612.758	9631.43
612.953	9385.67
613.149	9649.86
613.344	9479.88
613.539	9576.13
613.735	9357
613.93	9488.07
614.126	9367.24
614.321	9346.76
614.517	9438.92
614.712	9434.82
614.907	9387.72
615.103	9477.83
615.298	9109.19
615.493	9303.75
615.688	9313.99
615.884	9352.9
616.079	9266.89
616.274	9301.7
616.47	9141.96
616.665	9094.86
616.86	9133.77
617.055	9043.66
617.25	9031.37
617.445	9264.84
617.641	9027.28
617.836	9031.37
618.031	8969.93
618.226	8961.74
618.421	8767.18
618.616	9127.63
618.811	8814.29
619.006	8781.52
619.201	8761.04
619.396	8871.63
619.591	8593.11
619.786	8781.52
619.981	8476.37
620.176	8744.66
620.371	8400.6
620.566	8572.63
620.761	8316.63
620.956	8546
621.151	8476.37
621.346	8468.18
621.541	8316.63
621.735	8400.6
621.93	8136.41
622.125	8249.05
622.32	7976.67
622.515	8206.04
622.709	7960.28
622.904	7976.67
623.099	8097.5
623.294	8099.55
623.488	7913.18
623.683	7896.8
623.878	7818.97
624.072	7855.84
624.267	7730.91
624.462	7814.88
624.656	7651.04
624.851	7597.79
625.046	7794.4
625.24	7595.75
625.435	7511.78
625.629	7386.85
625.824	7499.49
626.018	7464.68
626.213	7339.75
626.407	7108.33
626.602	7403.24
626.796	7290.6
626.991	7210.73
627.185	7196.39
627.38	7137
627.574	7190.25
627.768	7196.39
627.963	7061.23
628.157	6942.44
628.352	7001.83
628.546	6905.58
628.74	6907.63
628.935	6874.86
629.129	6881
629.323	6663.92
629.517	6727.41
629.712	6627.06
629.906	6622.96
630.1	6551.28
630.294	6661.87
630.489	6573.81
630.683	6674.16
630.877	6567.67
631.071	6391.54
631.265	6506.23
631.459	6289.14
631.653	6209.27
631.848	6389.49
632.042	6129.4
632.236	6342.39
632.43	6131.45
632.624	6233.85
632.818	6301.43
633.012	6022.91
633.206	6067.96
633.4	6209.27
633.594	5887.74
633.788	5963.51
633.982	6080.25
634.176	5867.26
634.369	6012.67
634.563	5924.6
634.757	5891.84
634.951	5877.5
635.145	5824.25
635.339	5750.53
635.533	5922.55
635.726	5762.81
635.92	5674.75
636.114	5779.2
636.308	5689.09
636.501	5609.22
636.695	5637.89
636.889	5541.63
637.083	5584.64
637.276	5506.82
637.47	5555.97
637.664	5443.33
637.857	5525.25
638.051	5265.16
638.244	5267.2
638.438	5119.75
638.632	5283.59
638.825	5216.01
639.019	5136.13
639.212	5093.13
639.406	5308.16
639.599	5127.94
639.793	5232.39
639.986	5043.98
640.18	5134.09
640.373	5086.98
640.567	4962.06
640.76	4917
640.954	4982.54
641.147	4992.78
641.34	4851.47
641.534	4912.91
641.727	4859.66
641.92	4869.9
642.114	4714.25
642.307	4663.05
642.5	4937.48
642.694	4726.54
642.887	4564.75
643.08	4726.54
643.273	4718.35
643.467	4644.62
643.66	4636.43
643.853	4411.15
644.046	4384.53
644.239	4443.92
644.432	4386.58
644.626	4314.9
644.819	4548.37
645.012	4507.41
645.205	4282.13
645.398	4417.3
645.591	4306.71
645.784	4167.45
645.977	4089.62
646.17	4280.08
646.363	4177.69
646.556	4114.2
646.749	4267.8
646.942	4069.14
647.135	4169.49
647.328	3940.12
647.521	4146.97
647.714	4058.9
647.907	4063
648.099	4052.76
648.292	4112.15
648.485	3999.51
648.678	3858.2
648.871	3755.8
649.064	3841.82
649.256	3710.75
649.449	3802.91
649.642	3759.9
649.835	3745.56
650.027	3698.46
650.22	3784.48
650.413	3741.47
650.605	3729.18
650.798	3600.16
650.991	3680.03
651.183	3663.65
651.376	3589.92
651.568	3555.1
651.761	3548.96
651.954	3462.94
652.146	3520.29
652.339	3471.14
652.531	3462.94
652.724	3364.64
652.916	3426.08
653.109	3331.87
653.301	3370.79
653.494	3444.51
653.686	3278.63
653.879	3288.87
654.071	3221.28
654.263	3292.96
654.456	3391.27
654.648	3151.65
654.84	3120.93
655.033	3206.95
655.225	3053.35
655.417	3176.23
655.61	3233.57
655.802	3061.54
655.994	3012.39
656.186	3088.17
656.379	3120.93
656.571	3055.4
656.763	2922.28
656.955	2922.28
657.148	2928.42
657.34	2830.12
657.532	2828.07
657.724	2934.57
657.916	2740.01
658.108	2834.22
658.3	2899.75
658.492	2805.55
658.684	2778.92
658.876	2715.44
659.068	2762.54
659.26	2836.27
659.452	2715.44
659.644	2703.15
659.836	2676.52
660.028	2711.34
660.22	2598.7
660.412	2643.76
660.604	2610.99
660.796	2701.1
660.988	2522.93
661.18	2567.98
661.372	2373.43
661.563	2461.49
661.755	2410.29
661.947	2449.2
662.139	2541.36
662.331	2447.15
662.522	2381.62
662.714	2266.93
662.906	2303.79
663.097	2359.09
663.289	2314.03
663.481	2254.64
663.673	2242.36
663.864	2176.82
664.056	2277.17
664.247	2338.61
664.439	2197.3
664.631	2148.15
664.822	2174.77
665.014	2074.42
665.205	2117.43
665.397	2144.05
665.588	2121.52
665.78	2088.76
665.971	2025.27
666.163	1939.26
666.354	2107.19
666.546	1998.65
666.737	2012.98
666.929	1888.06
667.12	1986.36
667.311	1918.78
667.503	2094.9
667.694	1986.36
667.885	1963.83
668.077	1992.5
668.268	1763.13
668.459	1828.67
668.651	1867.58
668.842	1797.95
669.033	1892.15
669.224	1779.51
669.416	1900.34
669.607	1810.23
669.798	1689.4
669.989	1783.61
670.18	1857.34
670.371	1756.99
670.563	1744.7
670.754	1652.54
670.945	1724.22
671.136	1742.65
671.327	1664.83
671.518	1650.49
671.709	1713.98
671.9	1656.64
672.091	1640.25
672.282	1550.14
672.473	1625.92
672.664	1587.01
672.855	1584.96
673.046	1521.47
673.237	1589.05
673.428	1613.63
673.619	1548.09
673.809	1468.22
674	1625.92
674.191	1498.94
674.382	1474.37
674.573	1500.99
674.764	1505.09
674.954	1484.61
675.145	1507.13
675.336	1509.18
675.527	1574.72
675.717	1451.84
675.908	1410.88
676.099	1439.55
676.289	1417.02
676.48	1417.02
676.671	1521.47
676.861	1419.07
677.052	1478.46
677.243	1408.83
677.433	1378.11
677.624	1410.88
677.814	1378.11
678.005	1380.16
678.195	1367.87
678.386	1367.87
678.576	1394.5
678.767	1365.82
678.957	1433.41
679.148	1376.06
679.338	1390.4
679.529	1339.2
679.719	1288
679.909	1288
680.1	1283.91
680.29	1277.76
680.481	1277.76
680.671	1277.76
680.861	1292.1
681.052	1355.58
681.242	1275.71
681.432	1308.48
681.622	1247.04
681.813	1195.84
682.003	1300.29
682.193	1331.01
682.383	1290.05
682.573	1300.29
682.764	1300.29
682.954	1265.47
683.144	1267.52
683.334	1232.71
683.524	1318.72
683.714	1222.47
683.904	1281.86
684.094	1201.99
684.284	1183.56
684.474	1318.72
684.664	1292.1
684.854	1255.23
685.044	1265.47
685.234	1285.95
685.424	1263.43
685.614	1228.61
685.804	1195.84
685.994	1150.79
686.184	1228.61
686.374	1306.43
686.564	1222.47
686.753	1181.51
686.943	1269.57
687.133	1249.09
687.323	1255.23
687.513	1314.63
687.702	1189.7
687.892	1171.27
688.082	1212.23
688.272	1238.85
688.461	1257.28
688.651	1251.14
688.841	1292.1
689.03	1130.31
689.22	1267.52
689.41	1187.65
689.599	1253.19
689.789	1247.04
689.979	1214.27
690.168	1220.42
690.358	1281.86
690.547	1234.75
690.737	1212.23
690.926	1232.71
691.116	1167.17
691.305	1265.47
691.495	1257.28
691.684	1199.94
691.874	1181.51
692.063	1236.8
692.252	1197.89
692.442	1271.62
692.631	1195.84
692.82	1230.66
693.01	1359.68
693.199	1179.46
693.388	1195.84
693.578	1249.09
693.767	1247.04
693.956	1218.37
694.146	1216.32
694.335	1247.04
694.524	1214.27
694.713	1269.57
694.902	1210.18
695.092	1216.32
695.281	1242.95
695.47	1257.28
695.659	1214.27
695.848	1187.65
696.037	1101.64
696.226	1247.04
696.415	1109.83
696.604	1234.75
696.793	1175.36
696.982	1150.79
697.171	1156.93
697.36	1212.23
697.549	1152.84
697.738	1134.4
697.927	1136.45
698.116	1161.03
698.305	1107.78
698.494	1140.55
698.683	1163.08
698.872	1181.51
699.061	1122.12
699.25	1128.26
699.438	1115.97
699.627	1095.49
699.816	1132.36
700.005	1103.68
700.193	1136.45
700.382	1183.56
700.571	1148.74
700.76	1136.45
700.948	1156.93
701.137	1095.49
701.326	1107.78
701.514	1013.57
701.703	1044.29
701.892	952.13
702.08	1191.75
702.269	1007.43
702.457	1023.81
702.646	1130.31
702.834	958.28
703.023	995.14
703.212	1101.64
703.4	1052.49
703.589	1023.81
703.777	1015.62
703.965	876.36
704.154	960.33
704.342	976.71
704.531	1009.48
704.719	997.19
704.907	1009.48
705.096	1011.53
705.284	999.24
705.472	898.89
705.661	1027.91
705.849	1060.68
706.037	980.81
706.226	962.37
706.414	890.7
706.602	972.61
706.79	937.8
706.979	1011.53
707.167	948.04
707.355	933.7
707.543	939.85
707.731	1113.92
707.919	968.52
708.107	894.79
708.296	907.08
708.484	956.23
708.672	937.8
708.86	933.7
709.048	995.14
709.236	870.22
709.424	989
709.612	960.33
709.8	915.27
709.988	814.92
710.176	991.05
710.364	816.97
710.551	923.46
710.739	802.63
710.927	878.41
711.115	853.83
711.303	872.26
711.491	917.32
711.679	810.82
711.866	857.93
712.054	821.06
712.242	853.83
712.43	843.59
712.617	829.26
712.805	778.06
712.993	747.34
713.181	767.82
713.368	849.74
713.556	763.72
713.744	825.16
713.931	839.5
714.119	730.95
714.306	825.16
714.494	751.43
714.682	749.39
714.869	753.48
715.057	755.53
715.244	694.09
715.432	687.95
715.619	733
715.807	706.38
715.994	745.29
716.182	757.58
716.369	857.93
716.556	722.76
716.744	712.52
716.931	718.67
717.119	733
717.306	728.91
717.493	714.57
717.681	714.57
717.868	716.62
718.055	675.66
718.242	694.09
718.43	743.24
718.617	681.8
718.804	776.01
718.991	679.75
719.179	689.99
719.366	726.86
719.553	673.61
719.74	708.43
719.927	663.37
720.114	610.12
720.301	661.32
720.488	657.23
720.676	671.56
720.863	620.36
721.05	622.41
721.237	620.36
721.424	706.38
721.611	663.37
721.798	540.49
721.985	696.14
722.172	612.17
722.358	606.03
722.545	481.1
722.732	548.68
722.919	560.97
723.106	657.23
723.293	567.12
723.48	687.95
723.667	585.55
723.853	622.41
724.04	565.07
724.227	614.22
724.414	581.45
724.6	638.8
724.787	585.55
724.974	597.84
725.161	526.16
725.347	507.73
725.534	513.87
725.72	618.32
725.907	538.45
726.094	571.21
726.28	550.73
726.467	569.16
726.653	538.45
726.84	563.02
727.027	511.82
727.213	556.88
727.4	526.16
727.586	483.15
727.773	483.15
727.959	569.16
728.145	569.16
728.332	536.4
728.518	542.54
728.705	581.45
728.891	501.58
729.077	501.58
729.264	511.82
729.45	489.29
729.636	526.16
729.823	440.14
730.009	522.06
730.195	526.16
730.382	497.49
730.568	411.47
730.754	460.62
730.94	491.34
731.126	497.49
731.313	515.92
731.499	378.7
731.685	425.81
731.871	382.8
732.057	417.61
732.243	434
732.429	556.88
732.615	401.23
732.801	454.48
732.987	479.05
733.173	464.72
733.359	405.33
733.545	474.96
733.731	462.67
733.917	477.01
734.103	386.9
734.289	458.57
734.475	438.09
734.661	419.66
734.847	462.67
735.033	485.2
735.219	421.71
735.404	442.19
735.59	442.19
735.776	429.9
735.962	431.95
736.148	429.9
736.333	468.81
736.519	319.31
736.705	417.61
736.89	417.61
737.076	362.32
737.262	386.9
737.447	405.33
737.633	415.57
737.819	327.5
738.004	390.99
738.19	411.47
738.375	368.46
738.561	358.22
738.747	352.08
738.932	386.9
739.118	395.09
739.303	378.7
739.489	337.74
739.674	280.4
739.859	304.98
740.045	302.93
740.23	376.66
740.416	345.94
740.601	376.66
740.786	393.04
740.972	362.32
741.157	319.31
741.342	325.46
741.528	298.83
741.713	327.5
741.898	354.13
742.084	311.12
742.269	325.46
742.454	403.28
742.639	325.46
742.824	364.37
743.01	370.51
743.195	345.94
743.38	327.5
743.565	313.17
743.75	333.65
743.935	278.35
744.12	436.05
744.305	313.17
744.49	274.26
744.675	325.46
744.86	241.49
745.045	319.31
745.23	276.31
745.415	307.02
745.6	331.6
745.785	347.98
745.97	251.73
746.155	382.8
746.34	358.22
746.525	280.4
746.71	294.74
746.895	311.12
747.079	231.25
747.264	247.63
747.449	307.02
747.634	225.11
747.819	368.46
748.003	272.21
748.188	294.74
748.373	286.54
748.557	282.45
748.742	360.27
748.927	286.54
749.111	302.93
749.296	264.02
749.481	272.21
749.665	286.54
749.85	304.98
750.034	247.63
750.219	231.25
750.404	225.11
750.588	284.5
750.773	288.59
750.957	282.45
751.141	292.69
751.326	274.26
751.51	212.82
751.695	370.51
751.879	321.36
752.064	202.58
752.248	233.3
752.432	302.93
752.617	266.07
752.801	204.63
752.985	192.34
753.17	257.87
753.354	243.54
753.538	261.97
753.722	227.15
753.907	159.57
754.091	247.63
754.275	212.82
754.459	272.21
754.643	259.92
754.828	186.19
755.012	229.2
755.196	239.44
755.38	182.1
755.564	147.28
755.748	208.72
755.932	237.39
756.116	192.34
756.3	261.97
756.484	206.67
756.668	245.59
756.852	188.24
757.036	231.25
757.22	186.19
757.404	229.2
757.588	245.59
757.772	241.49
757.956	194.39
758.14	194.39
758.323	192.34
758.507	143.19
758.691	237.39
758.875	264.02
759.059	241.49
759.242	206.67
759.426	214.87
759.61	118.61
759.794	180.05
759.977	206.67
760.161	237.39
760.345	182.1
760.528	155.47
760.712	261.97
760.895	212.82
761.079	159.57
761.263	167.76
761.446	221.01
761.63	159.57
761.813	180.05
761.997	132.95
762.18	196.43
762.364	200.53
762.547	231.25
762.731	106.32
762.914	186.19
763.098	200.53
763.281	182.1
763.464	169.81
763.648	161.62
763.831	139.09
764.015	96.08
764.198	159.57
764.381	81.75
764.564	147.28
764.748	73.56
764.931	192.34
765.114	178
765.297	128.85
765.481	151.38
765.664	221.01
765.847	147.28
766.03	137.04
766.213	46.93
766.397	153.43
766.58	157.52
766.763	182.1
766.946	143.19
767.129	171.86
767.312	122.71
767.495	182.1
767.678	141.14
767.861	108.37
768.044	171.86
768.227	165.71
768.41	167.76
768.593	106.32
768.776	132.95
768.959	208.72
769.142	141.14
769.324	141.14
769.507	157.52
769.69	194.39
769.873	163.67
770.056	175.95
770.239	163.67
770.421	137.04
770.604	112.47
770.787	192.34
770.97	178
771.152	100.18
771.335	114.52
771.518	79.7
771.7	153.43
771.883	184.15
772.066	167.76
772.248	120.66
772.431	190.29
772.613	167.76
772.796	192.34
772.978	149.33
773.161	157.52
773.343	198.48
773.526	184.15
773.708	182.1
773.891	151.38
774.073	83.8
774.256	104.28
774.438	83.8
774.621	124.76
774.803	196.43
774.985	153.43
775.168	137.04
775.35	135
775.532	182.1
775.715	155.47
775.897	237.39
776.079	130.9
776.261	194.39
776.444	126.8
776.626	67.41
776.808	98.13
776.99	132.95
777.173	100.18
777.355	116.56
777.537	81.75
777.719	130.9
777.901	132.95
778.083	163.67
778.265	120.66
778.447	202.58
778.629	141.14
778.811	57.17
778.993	116.56
779.175	173.91
779.357	118.61
779.539	147.28
779.721	139.09
779.903	128.85
780.085	118.61
780.267	155.47
780.449	118.61
780.631	141.14
780.812	106.32
780.994	71.51
781.176	63.32
781.358	128.85
781.54	114.52
781.721	155.47
781.903	112.47
782.085	155.47
782.267	81.75
782.448	139.09
782.63	141.14
782.812	149.33
782.993	48.98
783.175	85.84
783.357	157.52
783.538	69.46
783.72	108.37
783.901	132.95
784.083	135
784.264	102.23
784.446	102.23
784.627	118.61
784.809	106.32
784.99	65.36
785.172	104.28
785.353	130.9
785.535	40.79
785.716	173.91
785.897	42.84
786.079	55.12
786.26	153.43
786.441	116.56
786.623	110.42
786.804	73.56
786.985	51.03
787.167	98.13
787.348	57.17
787.529	8.02
787.71	118.61
787.891	102.23
788.073	81.75
788.254	100.18
788.435	130.9
788.616	63.32
788.797	75.6
788.978	155.47
789.159	73.56
789.34	98.13
789.522	91.99
789.703	30.55
789.884	114.52
790.065	96.08
790.246	100.18
790.427	112.47
790.607	79.7
790.788	81.75
790.969	71.51
791.15	96.08
791.331	106.32
791.512	63.32
791.693	100.18
791.874	114.52
792.054	63.32
792.235	96.08
792.416	32.6
792.597	114.52
792.778	73.56
792.958	75.6
793.139	73.56
793.32	104.28
793.5	102.23
793.681	83.8
793.862	79.7
794.042	81.75
794.223	42.84
794.404	102.23
794.584	85.84
794.765	73.56
794.945	124.76
795.126	46.93
795.306	118.61
795.487	69.46
795.667	67.41
795.848	63.32
796.028	114.52
796.209	77.65
796.389	28.5
796.57	-2.22
796.75	83.8
796.93	18.26
797.111	-16.55
797.291	81.75
797.471	73.56
797.652	34.64
797.832	42.84
798.012	83.8
798.192	44.88
798.373	61.27
798.553	14.17
798.733	81.75
798.913	83.8
799.093	81.75
799.274	44.88
799.454	53.08
799.634	26.45
799.814	96.08
799.994	122.71
800.174	75.6
800.354	36.69
800.534	30.55
800.714	46.93
800.894	40.79
801.074	65.36
801.254	51.03
801.434	14.17
801.614	36.69
801.794	30.55
801.974	317.26
802.154	22.36
802.334	85.84
802.514	-8.36
802.693	94.04
802.873	18.26
803.053	69.46
803.233	73.56
803.413	-47.27
803.592	20.31
803.772	28.5
803.952	59.22
804.131	67.41
804.311	96.08
804.491	51.03
804.67	18.26
804.85	34.64
805.03	85.84
805.209	34.64
805.389	-34.99
805.568	63.32
805.748	143.19
805.928	67.41
806.107	28.5
806.287	81.75
806.466	32.6
806.646	67.41
806.825	55.12
807.004	77.65
807.184	8.02
807.363	34.64
807.543	48.98
807.722	10.07
807.901	38.74
808.081	85.84
808.26	36.69
808.439	10.07
808.619	67.41
808.798	-12.46
808.977	57.17
809.156	5.97
809.336	48.98
809.515	40.79
809.694	-61.61
809.873	40.79
810.052	40.79
810.231	89.94
810.411	32.6
810.59	116.56
810.769	40.79
810.948	-10.41
811.127	-28.84
811.306	10.07
811.485	120.66
811.664	114.52
811.843	14.17
812.022	63.32
812.201	89.94
812.38	81.75
812.559	22.36
812.737	91.99
812.916	34.64
813.095	10.07
813.274	-4.27
813.453	71.51
813.632	-39.08
813.811	44.88
813.989	59.22
814.168	46.93
814.347	57.17
814.526	91.99
814.704	67.41
814.883	44.88
815.062	1.88
815.24	85.84
815.419	57.17
815.598	26.45
815.776	10.07
815.955	16.21
816.133	85.84
816.312	12.12
816.49	1.88
816.669	32.6
816.847	-12.46
817.026	63.32
817.204	40.79
817.383	-8.36
817.561	26.45
817.74	73.56
817.918	53.08
818.097	10.07
818.275	48.98
818.453	87.89
818.632	-16.55
818.81	36.69
818.988	-22.7
819.167	40.79
819.345	73.56
819.523	5.97
819.701	-4.27
819.879	28.5
820.058	42.84
820.236	22.36
820.414	28.5
820.592	42.84
820.77	73.56
820.948	22.36
821.127	69.46
821.305	24.4
821.483	42.84
821.661	-2.22
821.839	-2.22
822.017	-22.7
822.195	-57.51
822.373	36.69
822.551	110.42
822.729	89.94
822.907	40.79
823.085	51.03
823.262	20.31
823.44	-20.65
823.618	-26.79
823.796	59.22
823.974	-24.75
824.152	18.26
824.329	65.36
824.507	57.17
824.685	51.03
824.863	-2.22
825.04	73.56
825.218	48.98
825.396	-4.27
825.574	53.08
825.751	28.5
825.929	46.93
826.107	-0.17
826.284	40.79
826.462	22.36
826.639	-4.27
826.817	38.74
826.994	81.75
827.172	38.74
827.349	85.84
827.527	5.97
827.704	-77.99
827.882	36.69
828.059	-8.36
828.237	8.02
828.414	40.79
828.591	-22.7
828.769	44.88
828.946	5.97
829.124	28.5
829.301	16.21
829.478	53.08
829.655	55.12
829.833	-14.51
830.01	110.42
830.187	46.93
830.364	8.02
830.542	51.03
830.719	-4.27
830.896	118.61
831.073	-39.08
831.25	79.7
831.427	-22.7
831.604	-14.51
831.782	44.88
831.959	14.17
832.136	104.28
832.313	-8.36
832.49	-22.7
832.667	51.03
832.844	-6.31
833.021	10.07
833.198	-0.17
833.374	30.55
833.551	12.12
833.728	-16.55
833.905	83.8
834.082	-12.46
834.259	16.21
834.436	71.51
834.612	16.21
834.789	-24.75
834.966	34.64
835.143	-34.99
835.319	79.7
835.496	-55.47
835.673	12.12
835.85	89.94
836.026	12.12
836.203	-2.22
836.38	89.94
836.556	16.21
836.733	5.97
836.909	81.75
837.086	61.27
837.262	-0.17
837.439	20.31
837.616	79.7
837.792	-30.89
837.968	85.84
838.145	48.98
838.321	20.31
838.498	46.93
838.674	83.8
838.851	16.21
839.027	-41.13
839.203	-16.55
839.38	28.5
839.556	-32.94
839.732	94.04
839.909	-0.17
840.085	32.6
840.261	69.46
840.437	106.32
840.614	-16.55
840.79	46.93
840.966	24.4
841.142	73.56
841.318	102.23
841.494	18.26
841.671	-12.46
841.847	16.21
842.023	10.07
842.199	96.08
842.375	59.22
842.551	16.21
842.727	-12.46
842.903	36.69
843.079	14.17
843.255	81.75
843.431	-51.37
843.607	-18.6
843.783	-30.89
843.959	-57.51
844.134	30.55
844.31	85.84
844.486	34.64
844.662	38.74
844.838	-0.17
845.013	40.79
845.189	12.12
845.365	44.88
845.541	20.31
845.716	51.03
845.892	-6.31
846.068	-43.18
846.244	-53.42
846.419	48.98
846.595	24.4
846.77	20.31
846.946	36.69
847.122	-34.99
847.297	77.65
847.473	40.79
847.648	-0.17
847.824	-34.99
847.999	14.17
848.175	22.36
848.35	16.21
848.526	104.28
848.701	-24.75
848.876	20.31
849.052	14.17
849.227	10.07
849.403	-10.41
849.578	48.98
849.753	32.6
849.929	44.88
850.104	59.22
850.279	-2.22
850.454	16.21
850.63	-41.13
850.805	38.74
850.98	28.5
851.155	46.93
851.33	65.36
851.505	-45.23
851.681	30.55
851.856	-18.6
852.031	87.89
852.206	42.84
852.381	-6.31
852.556	12.12
852.731	-18.6
852.906	26.45
853.081	69.46
853.256	10.07
853.431	-12.46
853.606	46.93
853.781	34.64
853.956	32.6
854.131	-14.51
854.305	-16.55
854.48	-10.41
854.655	-30.89
854.83	8.02
855.005	24.4
855.18	46.93
855.354	53.08
855.529	28.5
855.704	-20.65
855.879	77.65
856.053	-65.71
856.228	18.26
856.403	-20.65
856.577	-12.46
856.752	-24.75
856.926	-12.46
857.101	51.03
857.276	46.93
857.45	-71.85
857.625	53.08
857.799	-4.27
857.974	51.03
858.148	55.12
858.323	-26.79
858.497	-12.46
858.672	22.36
858.846	28.5
859.02	51.03
859.195	22.36
859.369	-20.65
859.543	20.31
859.718	-22.7
859.892	10.07
860.066	-14.51
860.241	-12.46
860.415	18.26
860.589	24.4
860.763	18.26
860.938	83.8
861.112	24.4
861.286	-22.7
861.46	-0.17
861.634	12.12
861.808	77.65
861.982	-6.31
862.157	-18.6
862.331	-39.08
862.505	20.31
862.679	32.6
862.853	14.17
863.027	-10.41
863.201	-14.51
863.375	36.69
863.549	-6.31
863.722	46.93
863.896	28.5
864.07	14.17
864.244	30.55
864.418	65.36
864.592	-22.7
864.766	3.93
864.939	22.36
865.113	42.84
865.287	40.79
865.461	30.55
865.634	-16.55
865.808	-28.84
865.982	-112.81
866.156	-18.6
866.329	-20.65
866.503	3.93
866.676	81.75
866.85	-0.17
867.024	14.17
867.197	3.93
867.371	8.02
867.544	-2.22
867.718	12.12
867.891	34.64
868.065	24.4
868.238	-24.75
868.412	24.4
868.585	44.88
868.759	8.02
868.932	48.98
869.105	30.55
869.279	-69.8
869.452	-14.51
869.625	10.07
869.799	12.12
869.972	-0.17
870.145	1.88
870.319	22.36
870.492	40.79
870.665	22.36
870.838	-32.94
871.011	-16.55
871.185	-14.51
871.358	-86.19
871.531	65.36
871.704	-43.18
871.877	-6.31
872.05	38.74
872.223	18.26
872.396	20.31
872.569	-30.89
872.742	1.88
872.915	3.93
873.088	-10.41
873.261	1.88
873.434	28.5
873.607	-37.03
873.78	-75.95
873.953	-22.7
874.126	53.08
874.299	38.74
874.471	73.56
874.644	-0.17
874.817	-0.17
874.99	16.21
875.163	24.4
875.335	-39.08
875.508	-57.51
875.681	114.52
875.853	3.93
876.026	40.79
876.199	34.64
876.371	73.56
876.544	36.69
876.717	67.41
876.889	32.6
877.062	-30.89
877.234	65.36
877.407	61.27
877.579	-90.28
877.752	40.79
877.924	-6.31
878.097	-14.51
878.269	75.6
878.442	30.55
878.614	48.98
878.786	65.36
878.959	57.17
879.131	-4.27
879.303	57.17
879.476	55.12
879.648	-12.46
879.82	57.17
879.993	-26.79
880.165	-2.22
880.337	-26.79
880.509	24.4
880.681	32.6
880.854	44.88
881.026	57.17
881.198	100.18
881.37	-2.22
881.542	51.03
881.714	-24.75
881.886	67.41
882.058	34.64
882.23	22.36
882.402	-8.36
882.574	57.17
882.746	26.45
882.918	61.27
883.09	12.12
883.262	65.36
883.434	14.17
883.606	-75.95
883.778	24.4
883.95	51.03
884.122	12.12
884.293	14.17
884.465	-37.03
884.637	38.74
884.809	12.12
884.98	110.42
885.152	-14.51
885.324	-32.94
885.496	-59.56
885.667	53.08
885.839	-4.27
886.011	18.26
886.182	42.84
886.354	44.88
886.525	26.45
886.697	96.08
886.869	32.6
887.04	-41.13
887.212	5.97
887.383	-8.36
887.555	-30.89
887.726	77.65
887.897	44.88
888.069	16.21
888.24	-4.27
888.412	8.02
888.583	-20.65
888.754	85.84
888.926	-16.55
889.097	8.02
889.268	-96.43
889.44	-4.27
889.611	59.22
889.782	38.74
889.953	-57.51
890.125	-12.46
890.296	57.17
890.467	22.36
890.638	-0.17
890.809	10.07
890.98	26.45
891.151	30.55
891.323	-24.75
891.494	-49.32
891.665	96.08
891.836	61.27
892.007	-2.22
892.178	57.17
892.349	-24.75
892.52	-26.79
892.691	-10.41
892.862	18.26
893.032	26.45
893.203	65.36
893.374	-2.22
893.545	32.6
893.716	28.5
893.887	-6.31
894.057	71.51
894.228	83.8
894.399	-114.86
894.57	36.69
894.74	3.93
894.911	10.07
895.082	-16.55
895.253	34.64
895.423	-16.55
895.594	12.12
895.764	46.93
895.935	48.98
896.106	-96.43
896.276	-0.17
896.447	26.45
896.617	46.93
896.788	18.26
896.958	-49.32
897.129	-59.56
897.299	-22.7
897.47	-63.66
897.64	-14.51
897.81	28.5
897.981	5.97
898.151	34.64
898.322	-24.75
898.492	38.74
898.662	36.69
898.832	46.93
899.003	-24.75
899.173	14.17
899.343	22.36
899.513	-20.65
