Data from USB4F104151__87__12-54-49-078.txt Node

Date: Fri Mar 14 12:54:49 EDT 2025
User: louis
Spectrometer: USB4F10415
Trigger mode: 4
Integration Time (sec): 1.000000E-2
Scans to average: 1
Electric dark correction enabled: true
Nonlinearity correction enabled: false
Boxcar width: 0
XAxis mode: Wavelengths
Number of Pixels in Spectrum: 3648
>>>>>Begin Spectral Data<<<<<
178.204	-73.56
178.424	-73.56
178.644	-73.56
178.864	-83.8
179.084	16.55
179.304	47.27
179.524	-59.22
179.744	22.7
179.964	-12.12
180.184	6.31
180.404	18.6
180.624	18.6
180.844	14.51
181.064	14.51
181.283	-71.51
181.503	-20.31
181.723	20.65
181.943	-14.17
182.163	110.76
182.383	-10.07
182.602	-8.02
182.822	18.6
183.042	-20.31
183.262	-16.21
183.482	39.08
183.701	10.41
183.921	41.13
184.141	71.85
184.361	112.81
184.58	-36.69
184.8	69.8
185.02	-53.08
185.239	65.71
185.459	12.46
185.679	45.23
185.898	-20.31
186.118	55.47
186.338	0.17
186.557	0.17
186.777	12.46
186.997	4.27
187.216	61.61
187.436	63.66
187.655	22.7
187.875	22.7
188.095	-16.21
188.314	12.46
188.534	-32.6
188.753	43.18
188.973	6.31
189.192	67.75
189.412	2.22
189.631	-22.36
189.851	-73.56
190.07	18.6
190.29	53.42
190.509	65.71
190.729	0.17
190.948	80.04
191.168	53.42
191.387	4.27
191.607	49.32
191.826	47.27
192.045	-36.69
192.265	6.31
192.484	4.27
192.704	-71.51
192.923	-38.74
193.142	-75.6
193.362	6.31
193.581	30.89
193.8	16.55
194.02	18.6
194.239	69.8
194.458	6.31
194.678	-26.45
194.897	24.75
195.116	67.75
195.335	90.28
195.555	-18.26
195.774	106.67
195.993	57.51
196.212	26.79
196.432	-12.12
196.651	39.08
196.87	-1.88
197.089	43.18
197.308	12.46
197.528	61.61
197.747	10.41
197.966	84.14
198.185	39.08
198.404	43.18
198.623	-14.17
198.842	71.85
199.062	30.89
199.281	102.57
199.5	43.18
199.719	10.41
199.938	51.37
200.157	-3.93
200.376	0.17
200.595	-8.02
200.814	-14.17
201.033	16.55
201.252	59.56
201.471	55.47
201.69	6.31
201.909	-12.12
202.128	77.99
202.347	-61.27
202.566	26.79
202.785	-12.12
203.004	41.13
203.223	63.66
203.442	34.99
203.661	0.17
203.879	65.71
204.098	8.36
204.317	28.84
204.536	133.29
204.755	-32.6
204.974	41.13
205.193	51.37
205.411	51.37
205.63	16.55
205.849	-10.07
206.068	-20.31
206.287	-38.74
206.505	55.47
206.724	22.7
206.943	-10.07
207.162	8.36
207.381	-12.12
207.599	63.66
207.818	18.6
208.037	-22.36
208.255	20.65
208.474	18.6
208.693	-16.21
208.911	30.89
209.13	69.8
209.349	51.37
209.567	-34.64
209.786	22.7
210.005	8.36
210.223	75.95
210.442	-1.88
210.661	98.47
210.879	-26.45
211.098	28.84
211.316	-28.5
211.535	34.99
211.753	41.13
211.972	39.08
212.191	26.79
212.409	0.17
212.628	51.37
212.846	-1.88
213.065	10.41
213.283	-8.02
213.502	12.46
213.72	-48.98
213.938	47.27
214.157	8.36
214.375	32.94
214.594	30.89
214.812	43.18
215.031	14.51
215.249	30.89
215.467	-26.45
215.686	4.27
215.904	26.79
216.122	32.94
216.341	-24.4
216.559	-30.55
216.778	43.18
216.996	2.22
217.214	0.17
217.432	4.27
217.651	-36.69
217.869	14.51
218.087	20.65
218.306	39.08
218.524	51.37
218.742	-14.17
218.96	6.31
219.179	59.56
219.397	53.42
219.615	-8.02
219.833	-8.02
220.051	43.18
220.27	41.13
220.488	43.18
220.706	26.79
220.924	-14.17
221.142	80.04
221.36	8.36
221.578	22.7
221.796	-10.07
222.015	67.75
222.233	53.42
222.451	37.03
222.669	51.37
222.887	-3.93
223.105	20.65
223.323	71.85
223.541	8.36
223.759	88.23
223.977	14.51
224.195	28.84
224.413	61.61
224.631	-3.93
224.849	100.52
225.067	39.08
225.285	26.79
225.503	-38.74
225.721	12.46
225.939	67.75
226.157	14.51
226.375	32.94
226.592	0.17
226.81	24.75
227.028	-20.31
227.246	10.41
227.464	0.17
227.682	-30.55
227.9	-8.02
228.117	98.47
228.335	53.42
228.553	22.7
228.771	108.71
228.989	0.17
229.206	88.23
229.424	37.03
229.642	22.7
229.86	39.08
230.077	-3.93
230.295	20.65
230.513	22.7
230.731	65.71
230.948	84.14
231.166	57.51
231.384	45.23
231.601	-1.88
231.819	-63.32
232.037	24.75
232.254	26.79
232.472	10.41
232.689	37.03
232.907	24.75
233.125	-1.88
233.342	-30.55
233.56	-42.84
233.777	45.23
233.995	37.03
234.213	112.81
234.43	-12.12
234.648	34.99
234.865	-46.93
235.083	22.7
235.3	-12.12
235.518	28.84
235.735	-16.21
235.953	2.22
236.17	39.08
236.388	2.22
236.605	22.7
236.822	121
237.04	77.99
237.257	18.6
237.475	53.42
237.692	18.6
237.909	22.7
238.127	26.79
238.344	96.43
238.562	14.51
238.779	-20.31
238.996	22.7
239.214	-24.4
239.431	18.6
239.648	18.6
239.865	47.27
240.083	67.75
240.3	45.23
240.517	67.75
240.735	6.31
240.952	45.23
241.169	-28.5
241.386	59.56
241.603	39.08
241.821	16.55
242.038	55.47
242.255	45.23
242.472	-30.55
242.689	-40.79
242.907	75.95
243.124	34.99
243.341	18.6
243.558	16.55
243.775	-18.26
243.992	8.36
244.209	57.51
244.426	20.65
244.643	-10.07
244.86	0.17
245.078	14.51
245.295	-24.4
245.512	20.65
245.729	34.99
245.946	73.9
246.163	88.23
246.38	-24.4
246.597	65.71
246.814	57.51
247.031	-69.46
247.248	10.41
247.464	20.65
247.681	-18.26
247.898	37.03
248.115	-26.45
248.332	-10.07
248.549	2.22
248.766	-14.17
248.983	4.27
249.2	2.22
249.417	34.99
249.633	37.03
249.85	65.71
250.067	-5.97
250.284	-32.6
250.501	8.36
250.717	71.85
250.934	53.42
251.151	82.09
251.368	49.32
251.585	39.08
251.801	32.94
252.018	10.41
252.235	-73.56
252.451	37.03
252.668	8.36
252.885	24.75
253.102	-1.88
253.318	49.32
253.535	28.84
253.752	0.17
253.968	39.08
254.185	12.46
254.401	77.99
254.618	26.79
254.835	-73.56
255.051	84.14
255.268	-22.36
255.484	30.89
255.701	32.94
255.917	73.9
256.134	43.18
256.351	20.65
256.567	96.43
256.784	57.51
257	63.66
257.217	39.08
257.433	16.55
257.65	24.75
257.866	80.04
258.082	14.51
258.299	-8.02
258.515	32.94
258.732	2.22
258.948	-38.74
259.165	-20.31
259.381	14.51
259.597	18.6
259.814	30.89
260.03	88.23
260.246	16.55
260.463	20.65
260.679	51.37
260.895	71.85
261.112	47.27
261.328	-32.6
261.544	-26.45
261.761	26.79
261.977	-32.6
262.193	32.94
262.409	55.47
262.626	4.27
262.842	82.09
263.058	4.27
263.274	32.94
263.49	4.27
263.707	37.03
263.923	49.32
264.139	14.51
264.355	20.65
264.571	26.79
264.787	30.89
265.004	-14.17
265.22	37.03
265.436	-24.4
265.652	51.37
265.868	30.89
266.084	-3.93
266.3	45.23
266.516	63.66
266.732	43.18
266.948	26.79
267.164	-59.22
267.38	53.42
267.596	24.75
267.812	-12.12
268.028	59.56
268.244	26.79
268.46	14.51
268.676	6.31
268.892	8.36
269.108	-20.31
269.324	32.94
269.54	16.55
269.756	-38.74
269.972	-32.6
270.188	12.46
270.403	16.55
270.619	49.32
270.835	6.31
271.051	84.14
271.267	41.13
271.483	8.36
271.698	41.13
271.914	12.46
272.13	45.23
272.346	51.37
272.562	14.51
272.777	41.13
272.993	37.03
273.209	-10.07
273.425	-32.6
273.64	-16.21
273.856	-5.97
274.072	-24.4
274.287	41.13
274.503	4.27
274.719	41.13
274.934	-8.02
275.15	-18.26
275.366	-12.12
275.581	55.47
275.797	-3.93
276.012	-26.45
276.228	6.31
276.444	47.27
276.659	0.17
276.875	-5.97
277.09	12.46
277.306	16.55
277.521	24.75
277.737	30.89
277.952	16.55
278.168	0.17
278.383	43.18
278.599	4.27
278.814	16.55
279.03	63.66
279.245	65.71
279.461	63.66
279.676	63.66
279.892	55.47
280.107	55.47
280.322	12.46
280.538	20.65
280.753	10.41
280.969	43.18
281.184	82.09
281.399	86.19
281.615	37.03
281.83	-5.97
282.045	-30.55
282.26	18.6
282.476	14.51
282.691	12.46
282.906	-30.55
283.122	20.65
283.337	24.75
283.552	55.47
283.767	30.89
283.983	-10.07
284.198	-1.88
284.413	37.03
284.628	-1.88
284.843	2.22
285.058	-20.31
285.274	-18.26
285.489	61.61
285.704	53.42
285.919	55.47
286.134	-40.79
286.349	41.13
286.564	24.75
286.779	51.37
286.995	69.8
287.21	6.31
287.425	2.22
287.64	-12.12
287.855	59.56
288.07	2.22
288.285	-14.17
288.5	-61.27
288.715	8.36
288.93	6.31
289.145	-48.98
289.36	73.9
289.575	-32.6
289.79	-14.17
290.004	106.67
290.219	55.47
290.434	18.6
290.649	0.17
290.864	28.84
291.079	0.17
291.294	39.08
291.509	51.37
291.724	-36.69
291.938	-8.02
292.153	92.33
292.368	-24.4
292.583	8.36
292.798	51.37
293.012	53.42
293.227	55.47
293.442	22.7
293.657	43.18
293.871	30.89
294.086	-10.07
294.301	2.22
294.516	-44.88
294.73	67.75
294.945	16.55
295.16	53.42
295.374	47.27
295.589	-16.21
295.804	73.9
296.018	32.94
296.233	57.51
296.447	-12.12
296.662	24.75
296.877	51.37
297.091	12.46
297.306	20.65
297.52	14.51
297.735	-12.12
297.949	-1.88
298.164	16.55
298.378	-16.21
298.593	26.79
298.807	-10.07
299.022	-3.93
299.236	12.46
299.451	-1.88
299.665	18.6
299.88	90.28
300.094	32.94
300.309	45.23
300.523	57.51
300.737	63.66
300.952	55.47
301.166	90.28
301.381	20.65
301.595	-10.07
301.809	-1.88
302.024	32.94
302.238	45.23
302.452	57.51
302.667	-14.17
302.881	73.9
303.095	51.37
303.309	-51.03
303.524	-26.45
303.738	49.32
303.952	-22.36
304.166	0.17
304.381	-28.5
304.595	30.89
304.809	32.94
305.023	-81.75
305.237	-8.02
305.452	16.55
305.666	67.75
305.88	26.79
306.094	14.51
306.308	22.7
306.522	-5.97
306.736	41.13
306.95	-36.69
307.164	57.51
307.379	65.71
307.593	8.36
307.807	24.75
308.021	2.22
308.235	-42.84
308.449	30.89
308.663	0.17
308.877	24.75
309.091	37.03
309.305	-10.07
309.519	2.22
309.733	-32.6
309.947	110.76
310.161	43.18
310.374	30.89
310.588	90.28
310.802	51.37
311.016	-3.93
311.23	-22.36
311.444	12.46
311.658	-5.97
311.872	12.46
312.085	59.56
312.299	41.13
312.513	67.75
312.727	0.17
312.941	-1.88
313.154	-12.12
313.368	-12.12
313.582	-55.12
313.796	45.23
314.009	24.75
314.223	69.8
314.437	24.75
314.651	12.46
314.864	30.89
315.078	0.17
315.292	-26.45
315.505	-20.31
315.719	67.75
315.933	2.22
316.146	8.36
316.36	22.7
316.573	-14.17
316.787	49.32
317.001	-5.97
317.214	6.31
317.428	88.23
317.641	-14.17
317.855	18.6
318.068	28.84
318.282	26.79
318.495	37.03
318.709	67.75
318.922	34.99
319.136	-12.12
319.349	6.31
319.563	71.85
319.776	12.46
319.99	26.79
320.203	14.51
320.417	55.47
320.63	-10.07
320.843	73.9
321.057	49.32
321.27	51.37
321.483	63.66
321.697	32.94
321.91	-20.31
322.124	49.32
322.337	39.08
322.55	65.71
322.763	73.9
322.977	-65.36
323.19	18.6
323.403	59.56
323.617	69.8
323.83	123.05
324.043	-12.12
324.256	47.27
324.469	65.71
324.683	32.94
324.896	8.36
325.109	49.32
325.322	102.57
325.535	65.71
325.748	-1.88
325.962	30.89
326.175	-3.93
326.388	6.31
326.601	39.08
326.814	43.18
327.027	12.46
327.24	28.84
327.453	14.51
327.666	123.05
327.879	8.36
328.092	39.08
328.305	2.22
328.518	82.09
328.731	18.6
328.944	-1.88
329.157	8.36
329.37	-14.17
329.583	77.99
329.796	75.95
330.009	12.46
330.222	-36.69
330.435	8.36
330.648	24.75
330.861	6.31
331.073	14.51
331.286	6.31
331.499	63.66
331.712	75.95
331.925	69.8
332.138	2.22
332.35	32.94
332.563	26.79
332.776	0.17
332.989	71.85
333.202	47.27
333.414	-30.55
333.627	30.89
333.84	24.75
334.053	6.31
334.265	10.41
334.478	71.85
334.691	43.18
334.903	-8.02
335.116	28.84
335.329	18.6
335.541	55.47
335.754	30.89
335.966	-42.84
336.179	8.36
336.392	-38.74
336.604	34.99
336.817	53.42
337.029	2.22
337.242	82.09
337.454	45.23
337.667	14.51
337.88	51.37
338.092	100.52
338.305	-32.6
338.517	-26.45
338.729	61.61
338.942	43.18
339.154	14.51
339.367	59.56
339.579	18.6
339.792	-8.02
340.004	-1.88
340.217	-48.98
340.429	30.89
340.641	57.51
340.854	34.99
341.066	61.61
341.278	47.27
341.491	55.47
341.703	131.24
341.915	22.7
342.128	57.51
342.34	4.27
342.552	22.7
342.764	20.65
342.977	14.51
343.189	-8.02
343.401	65.71
343.613	37.03
343.826	110.76
344.038	-36.69
344.25	16.55
344.462	-32.6
344.674	24.75
344.886	96.43
345.099	-1.88
345.311	49.32
345.523	47.27
345.735	-3.93
345.947	65.71
346.159	114.86
346.371	80.04
346.583	-20.31
346.795	82.09
347.007	-42.84
347.219	-59.22
347.431	28.84
347.643	45.23
347.855	-34.64
348.067	57.51
348.279	51.37
348.491	16.55
348.703	55.47
348.915	37.03
349.127	-83.8
349.339	53.42
349.551	24.75
349.763	84.14
349.975	-12.12
350.187	-59.22
350.399	16.55
350.61	73.9
350.822	22.7
351.034	2.22
351.246	51.37
351.458	108.71
351.669	55.47
351.881	18.6
352.093	-48.98
352.305	96.43
352.517	57.51
352.728	20.65
352.94	6.31
353.152	34.99
353.363	37.03
353.575	-3.93
353.787	8.36
353.999	10.41
354.21	65.71
354.422	133.29
354.633	77.99
354.845	59.56
355.057	94.38
355.268	34.99
355.48	22.7
355.692	14.51
355.903	2.22
356.115	73.9
356.326	4.27
356.538	-65.36
356.749	53.42
356.961	-5.97
357.172	43.18
357.384	43.18
357.595	16.55
357.807	0.17
358.018	30.89
358.23	6.31
358.441	6.31
358.653	121
358.864	51.37
359.075	49.32
359.287	6.31
359.498	47.27
359.709	39.08
359.921	47.27
360.132	108.71
360.344	34.99
360.555	-51.03
360.766	14.51
360.977	86.19
361.189	102.57
361.4	-5.97
361.611	6.31
361.823	57.51
362.034	6.31
362.245	26.79
362.456	24.75
362.667	6.31
362.879	67.75
363.09	-51.03
363.301	49.32
363.512	121
363.723	63.66
363.935	30.89
364.146	22.7
364.357	26.79
364.568	53.42
364.779	55.47
364.99	63.66
365.201	32.94
365.412	53.42
365.623	8.36
365.834	-10.07
366.045	69.8
366.256	82.09
366.467	2.22
366.678	39.08
366.889	24.75
367.1	49.32
367.311	86.19
367.522	26.79
367.733	-24.4
367.944	26.79
368.155	26.79
368.366	14.51
368.577	39.08
368.788	20.65
368.999	-16.21
369.209	22.7
369.42	61.61
369.631	100.52
369.842	47.27
370.053	84.14
370.264	28.84
370.474	-26.45
370.685	32.94
370.896	26.79
371.107	49.32
371.317	26.79
371.528	8.36
371.739	22.7
371.95	-40.79
372.16	24.75
372.371	-20.31
372.582	8.36
372.792	-3.93
373.003	4.27
373.214	92.33
373.424	20.65
373.635	-55.12
373.846	26.79
374.056	-42.84
374.267	32.94
374.477	94.38
374.688	53.42
374.898	100.52
375.109	34.99
375.319	84.14
375.53	39.08
375.74	55.47
375.951	18.6
376.161	34.99
376.372	22.7
376.582	22.7
376.793	18.6
377.003	108.71
377.214	8.36
377.424	-3.93
377.635	16.55
377.845	28.84
378.055	90.28
378.266	65.71
378.476	6.31
378.686	43.18
378.897	-3.93
379.107	106.67
379.317	10.41
379.528	51.37
379.738	90.28
379.948	0.17
380.158	-8.02
380.369	-20.31
380.579	61.61
380.789	10.41
380.999	41.13
381.21	41.13
381.42	75.95
381.63	-67.41
381.84	84.14
382.05	51.37
382.261	63.66
382.471	20.65
382.681	16.55
382.891	37.03
383.101	104.62
383.311	45.23
383.521	77.99
383.731	-18.26
383.941	77.99
384.151	-65.36
384.361	153.77
384.571	-16.21
384.781	22.7
384.991	32.94
385.201	80.04
385.411	69.8
385.621	63.66
385.831	49.32
386.041	69.8
386.251	67.75
386.461	2.22
386.671	104.62
386.881	16.55
387.091	4.27
387.301	-42.84
387.511	-3.93
387.72	24.75
387.93	32.94
388.14	18.6
388.35	47.27
388.56	47.27
388.769	59.56
388.979	98.47
389.189	67.75
389.399	4.27
389.609	53.42
389.818	-34.64
390.028	16.55
390.238	32.94
390.447	47.27
390.657	39.08
390.867	39.08
391.076	-8.02
391.286	104.62
391.496	39.08
391.705	55.47
391.915	41.13
392.125	16.55
392.334	39.08
392.544	65.71
392.753	30.89
392.963	-8.02
393.172	59.56
393.382	6.31
393.591	104.62
393.801	41.13
394.01	59.56
394.22	-10.07
394.429	59.56
394.639	12.46
394.848	37.03
395.058	71.85
395.267	37.03
395.477	47.27
395.686	86.19
395.895	77.99
396.105	98.47
396.314	63.66
396.524	47.27
396.733	39.08
396.942	129.19
397.152	71.85
397.361	34.99
397.57	131.24
397.78	53.42
397.989	88.23
398.198	28.84
398.407	67.75
398.617	-10.07
398.826	131.24
399.035	22.7
399.244	53.42
399.453	-16.21
399.663	55.47
399.872	2.22
400.081	34.99
400.29	16.55
400.499	73.9
400.708	47.27
400.917	55.47
401.127	80.04
401.336	37.03
401.545	110.76
401.754	57.51
401.963	65.71
402.172	51.37
402.381	30.89
402.59	39.08
402.799	90.28
403.008	112.81
403.217	151.72
403.426	100.52
403.635	145.58
403.844	55.47
404.053	118.95
404.262	61.61
404.471	123.05
404.68	80.04
404.888	57.51
405.097	32.94
405.306	110.76
405.515	108.71
405.724	143.53
405.933	90.28
406.142	104.62
406.35	96.43
406.559	139.43
406.768	49.32
406.977	161.96
407.185	108.71
407.394	51.37
407.603	57.51
407.812	123.05
408.02	129.19
408.229	149.67
408.438	131.24
408.646	77.99
408.855	77.99
409.064	84.14
409.272	71.85
409.481	118.95
409.69	202.92
409.898	153.77
410.107	135.34
410.315	96.43
410.524	137.38
410.733	147.62
410.941	166.06
411.15	188.58
411.358	147.62
411.567	168.1
411.775	141.48
411.984	176.3
412.192	65.71
412.401	157.86
412.609	211.11
412.818	198.82
413.026	211.11
413.234	211.11
413.443	231.59
413.651	258.21
413.86	237.74
414.068	276.65
414.276	260.26
414.485	325.8
414.693	293.03
414.901	385.19
415.11	252.07
415.318	223.4
415.526	317.61
415.734	233.64
415.943	385.19
416.151	329.89
416.359	364.71
416.567	405.67
416.776	338.09
416.984	399.52
417.192	430.24
417.4	405.67
417.608	362.66
417.817	465.06
418.025	473.25
418.233	514.21
418.441	483.49
418.649	432.29
418.857	614.56
419.065	575.65
419.273	544.93
419.481	606.37
419.689	716.96
419.897	782.49
420.105	708.77
420.313	757.92
420.521	723.1
420.729	739.49
420.937	762.02
421.145	827.55
421.353	743.58
421.561	829.6
421.769	897.18
421.977	864.41
422.185	936.09
422.393	1007.77
422.601	1083.55
422.809	997.53
423.017	999.58
423.224	1058.97
423.432	1013.92
423.64	1167.51
423.848	1159.32
424.056	1185.94
424.263	1288.34
424.471	1302.68
424.679	1284.25
424.887	1407.13
425.094	1310.87
425.302	1439.89
425.51	1454.23
425.718	1456.28
425.925	1464.47
426.133	1581.2
426.341	1622.16
426.548	1597.59
426.756	1718.42
426.964	1747.09
427.171	1851.53
427.379	1867.92
427.586	1878.16
427.794	2138.25
428.001	2074.76
428.209	2211.98
428.417	2160.78
428.624	2259.08
428.832	2308.23
429.039	2349.19
429.247	2345.09
429.454	2422.92
429.662	2629.76
429.869	2506.88
430.076	2717.83
430.284	2625.67
430.491	2668.67
430.699	2879.61
430.906	2939.01
431.114	2939.01
431.321	3039.36
431.528	2943.1
431.736	3348.6
431.943	3426.42
432.15	3324.02
432.358	3311.74
432.565	3512.44
432.772	3532.92
432.979	3674.23
433.187	3731.57
433.394	3915.89
433.601	4006
433.808	4114.54
434.016	3991.66
434.223	4157.55
434.43	4505.7
434.637	4354.15
434.844	4722.79
435.052	4739.17
435.259	4692.07
435.466	4622.44
435.673	4874.34
435.88	5142.62
436.087	5249.11
436.294	5314.65
436.501	5288.03
436.708	5234.78
436.915	5546.07
437.122	5693.52
437.329	5720.15
437.537	5953.62
437.743	5992.53
437.95	5834.83
438.157	6264.91
438.364	6398.03
438.571	6473.8
438.778	6486.09
438.985	6934.59
439.192	6754.37
439.399	7002.18
439.606	6824
439.813	7323.71
440.02	7526.46
440.227	7348.28
440.433	7419.96
440.64	7532.6
440.847	7661.62
441.054	7786.55
441.261	8292.4
441.467	8241.2
441.674	8470.57
441.881	8609.83
442.088	8753.19
442.294	8701.99
442.501	8894.5
442.708	9017.38
442.914	9314.33
443.121	9795.61
443.328	9631.77
443.534	10229.77
443.741	9934.87
443.948	9676.82
444.154	10522.63
444.361	10600.46
444.568	10471.43
444.774	10598.41
444.981	10665.99
445.187	11085.83
445.394	11587.58
445.6	11294.72
445.807	12343.28
446.013	11775.99
446.22	11966.45
446.426	12326.89
446.633	12455.92
446.839	13176.8
447.046	12558.32
447.252	13076.45
447.459	13463.52
447.665	13416.41
447.871	13844.44
448.078	14518.22
448.284	13795.29
448.491	14125.01
448.697	14751.69
448.903	15050.69
449.11	14917.58
449.316	14858.18
449.522	15280.07
449.728	15548.35
449.935	15888.31
450.141	15654.84
450.347	16046.01
450.553	15595.45
450.76	15843.26
450.966	16105.4
451.172	16099.25
451.378	16220.08
451.584	16220.08
451.791	16676.78
451.997	16326.58
452.203	17106.85
452.409	16809.9
452.615	16822.19
452.821	16347.06
453.027	16134.07
453.233	16773.03
453.44	16291.76
453.646	16258.99
453.852	16283.57
454.058	16709.55
454.264	16150.45
454.47	16592.81
454.676	15984.57
454.882	16590.77
455.088	14895.05
455.294	15480.77
455.5	15525.82
455.705	15609.79
455.911	15318.98
456.117	14884.81
456.323	14344.14
456.529	14096.34
456.735	14581.71
456.941	14098.39
457.147	13766.62
457.352	13711.32
457.558	13352.93
457.764	13320.16
457.97	13191.14
458.176	12867.56
458.381	12941.29
458.587	12267.5
458.793	12314.61
458.999	11483.13
459.204	12410.86
459.41	12208.11
459.616	11356.16
459.821	11331.58
460.027	11345.92
460.233	10934.28
460.438	10459.15
460.644	10633.22
460.85	10217.49
461.055	10041.36
461.261	9816.08
461.466	9197.6
461.672	8984.61
461.878	9492.51
462.083	9021.47
462.289	8728.61
462.494	8462.38
462.7	8394.79
462.905	7905.33
463.111	8192.05
463.316	8314.92
463.522	8007.73
463.727	8112.17
463.932	8183.85
464.138	8077.36
464.343	8190
464.549	7888.95
464.754	8161.33
464.959	8026.16
465.165	7907.38
465.37	7594.04
465.575	7430.2
465.781	7772.21
465.986	7890.99
466.191	7454.78
466.397	7331.9
466.602	7014.46
466.807	7319.61
467.012	7321.66
467.218	7268.41
467.423	7235.64
467.628	7301.18
467.833	7620.66
468.038	7206.97
468.244	7094.33
468.449	7239.74
468.654	7159.87
468.859	7200.83
469.064	7131.2
469.269	6654.02
469.474	6772.8
469.679	6879.3
469.885	6688.84
470.09	6912.07
470.295	6807.62
470.5	6625.35
470.705	6744.13
470.91	6459.46
471.115	6461.51
471.32	6817.86
471.525	6529.1
471.73	6373.45
471.935	6416.46
472.139	6105.17
472.344	6254.67
472.549	6127.69
472.754	6250.57
472.959	5879.89
473.164	5937.23
473.369	5963.86
473.574	5908.56
473.778	5947.47
473.983	5765.2
474.188	5773.39
474.393	5576.79
474.598	5603.41
474.802	5503.06
475.007	5466.2
475.212	5466.2
475.417	5462.1
475.621	5345.37
475.826	5359.7
476.031	5480.54
476.235	5077.09
476.44	5255.26
476.645	5070.94
476.849	5001.31
477.054	5142.62
477.259	5118.04
477.463	4905.06
477.668	4864.1
477.872	4999.26
478.077	4819.04
478.282	4747.36
478.486	4661.35
478.691	4624.48
478.895	4642.92
479.1	4651.11
479.304	4591.72
479.509	4429.93
479.713	4479.08
479.918	4456.55
480.122	4290.67
480.326	4507.75
480.531	4399.21
480.735	4341.86
480.94	4444.26
481.144	4264.04
481.348	4309.1
481.553	4397.16
481.757	4405.35
481.961	4325.48
482.166	4431.98
482.37	4319.34
482.574	4104.3
482.778	4214.89
482.983	4307.05
483.187	4180.07
483.391	4221.03
483.595	4272.23
483.8	4186.22
484.004	4202.6
484.208	4294.76
484.412	4204.65
484.616	4274.28
484.821	4376.68
485.025	4218.99
485.229	4302.95
485.433	4341.86
485.637	4429.93
485.841	4284.52
486.045	4288.62
486.249	4421.74
486.453	4245.61
486.657	4214.89
486.861	4223.08
487.065	4223.08
487.269	4288.62
487.473	4135.02
487.677	4378.73
487.881	4411.5
488.085	4270.19
488.289	4264.04
488.493	4341.86
488.697	4491.37
488.901	4440.17
489.105	4462.69
489.309	4376.68
489.512	4282.47
489.716	4458.6
489.92	4436.07
490.124	4405.35
490.328	4411.5
490.531	4481.13
490.735	4589.67
490.939	4520.04
491.143	4421.74
491.346	4507.75
491.55	4397.16
491.754	4339.82
491.958	4474.98
492.161	4382.82
492.365	4538.47
492.569	4632.68
492.772	4597.86
492.976	4671.59
493.18	4542.57
493.383	4741.22
493.587	4730.98
493.79	4706.4
493.994	4862.05
494.197	4649.06
494.401	4911.2
494.605	4841.57
494.808	4884.58
495.012	4884.58
495.215	4954.21
495.419	4997.21
495.622	5040.22
495.825	5179.48
496.029	5118.04
496.232	5101.66
496.436	5208.16
496.639	5349.47
496.843	5363.8
497.046	5347.42
497.249	5271.64
497.453	5468.25
497.656	5478.49
497.859	5478.49
498.063	5501.01
498.266	5757.01
498.469	5605.46
498.673	5699.67
498.876	5785.68
499.079	5902.42
499.282	5802.07
499.485	6037.58
499.689	6037.58
499.892	6137.93
500.095	6115.41
500.298	6172.75
500.501	6191.18
500.705	6400.07
500.908	6584.39
501.111	6506.57
501.314	6774.85
501.517	6760.52
501.72	6729.8
501.923	6746.18
502.126	6811.71
502.329	7110.72
502.532	7249.98
502.735	7280.7
502.938	7338.04
503.141	7327.8
503.344	7559.22
503.547	7407.67
503.75	7637.05
503.953	7714.87
504.156	7854.13
504.359	7934
504.562	7897.14
504.765	8044.59
504.968	8085.55
505.17	8233.01
505.373	8325.16
505.576	8505.38
505.779	8425.51
505.982	8507.43
506.185	8710.18
506.387	8781.86
506.59	8716.33
506.793	9087.01
506.996	8937.51
507.198	9246.75
507.401	9287.71
507.604	9349.15
507.807	9449.5
508.009	9496.6
508.212	9668.63
508.415	9783.32
508.617	9945.11
508.82	9889.81
509.022	9873.43
509.225	10072.08
509.428	10201.1
509.63	10233.87
509.833	10366.99
510.035	10551.31
510.238	10551.31
510.44	10721.29
510.643	10692.62
510.845	11053.06
511.048	10909.7
511.25	11231.23
511.453	11182.08
511.655	11589.63
511.858	11581.43
512.06	11534.33
512.262	11675.64
512.465	11655.16
512.667	11892.73
512.87	12158.96
513.072	12308.46
513.274	12429.29
513.477	12412.91
513.679	12705.77
513.881	12578.79
514.084	12851.17
514.286	12959.72
514.488	13049.83
514.69	13228
514.893	13379.55
515.095	13305.82
515.297	13703.13
515.499	13516.76
515.701	13879.25
515.904	13883.35
516.106	13934.55
516.308	14008.28
516.51	14616.52
516.712	14473.17
516.914	14788.55
517.116	14800.84
517.318	14659.53
517.52	15300.55
517.722	15110.08
517.925	15175.62
518.127	15570.88
518.329	15417.28
518.531	15452.09
518.733	16035.77
518.935	15902.65
519.136	15974.33
519.338	16228.28
519.54	16086.97
519.742	16295.86
519.944	16422.83
520.146	16676.78
520.348	16977.83
520.55	16801.71
520.752	16883.63
520.954	17174.44
521.155	16973.74
521.357	17518.5
521.559	17553.31
521.761	17680.28
521.963	17629.09
522.164	17864.6
522.366	17801.12
522.568	17940.38
522.77	18198.42
522.971	18587.54
523.173	18317.2
523.375	18517.9
523.576	18401.17
523.778	18644.88
523.98	19038.09
524.181	18945.93
524.383	19064.71
524.584	18990.98
524.786	19144.58
524.988	19038.09
525.189	19412.87
525.391	19474.31
525.592	19615.62
525.794	19623.81
525.995	19447.68
526.197	19771.26
526.398	19748.73
526.6	20080.5
526.801	20021.11
527.003	19840.89
527.204	20055.93
527.406	20262.77
527.607	20465.52
527.808	20576.11
528.01	20207.48
528.211	20377.46
528.412	20545.39
528.614	20658.03
528.815	20363.12
529.016	20721.52
529.218	20453.23
529.419	20770.67
529.62	20815.73
529.822	20576.11
530.023	20584.3
530.224	20727.66
530.425	20905.84
530.626	20926.32
530.828	20649.84
531.029	21075.82
531.23	21104.49
531.431	20866.92
531.632	21325.67
531.833	20981.61
532.035	21012.33
532.236	21436.26
532.437	21200.74
532.638	21374.82
532.839	21059.43
533.04	21204.84
533.241	20963.18
533.442	21700.45
533.643	21235.56
533.844	21049.19
534.045	21321.57
534.246	20856.68
534.447	21493.6
534.648	21174.12
534.849	21264.23
535.05	21268.33
535.251	21372.77
535.451	21311.33
535.652	21335.91
535.853	21092.2
536.054	21489.51
536.255	21481.31
536.456	21311.33
536.657	21550.95
536.857	21235.56
537.058	21337.96
537.259	21493.6
537.46	21452.64
537.66	21378.92
537.861	21335.91
538.062	21524.32
538.263	21557.09
538.463	21352.29
538.664	21297
538.865	21307.24
539.065	21389.16
539.266	21016.43
539.466	21524.32
539.667	21194.6
539.868	21391.2
540.068	21223.27
540.269	21215.08
540.469	21348.2
540.67	21313.38
540.87	21182.31
541.071	21210.98
541.271	21276.52
541.472	21505.89
541.672	20971.37
541.873	21297
542.073	21073.77
542.274	21544.8
542.474	21251.94
542.675	21153.64
542.875	21303.14
543.075	21333.86
543.276	21047.15
543.476	21172.07
543.676	21036.91
543.877	21387.11
544.077	21444.45
544.277	21229.41
544.478	21108.58
544.678	20862.83
544.878	21127.02
545.078	21165.93
545.279	20903.79
545.479	21018.47
545.679	21241.7
545.879	21180.26
546.079	20995.95
546.28	21055.34
546.48	20830.06
546.68	21010.28
546.88	21104.49
547.08	20957.03
547.28	21022.57
547.48	20871.02
547.68	21210.98
547.88	21124.97
548.081	21069.67
548.281	21284.71
548.481	20977.51
548.681	21014.38
548.881	21010.28
549.081	21096.3
549.28	20635.5
549.48	20973.42
549.68	20698.99
549.88	21069.67
550.08	20801.39
550.28	20961.13
550.48	20991.85
550.68	21063.53
550.88	20977.51
551.08	20920.17
551.279	20854.64
551.479	20696.94
551.679	21030.76
551.879	21135.21
552.079	20989.8
552.278	20649.84
552.478	20711.28
552.678	20860.78
552.878	21223.27
553.077	20549.49
553.277	20809.58
553.477	21178.22
553.676	20946.8
553.876	20688.75
554.076	20950.89
554.275	20739.95
554.475	20588.4
554.674	20553.59
554.874	20766.57
555.074	20535.15
555.273	20815.73
555.473	20748.14
555.672	20731.76
555.872	20557.68
556.071	20676.46
556.271	20785.01
556.47	20594.54
556.67	20481.91
556.869	20717.42
557.068	20848.49
557.268	20686.7
557.467	20350.84
557.667	20451.19
557.866	20520.82
558.065	20213.62
558.265	20277.11
558.464	20256.63
558.663	20563.82
558.863	20115.32
559.062	20344.69
559.261	20068.22
559.461	20453.23
559.66	20213.62
559.859	19978.11
560.058	20008.83
560.258	20168.57
560.457	19797.88
560.656	20162.42
560.855	19969.91
561.054	20254.58
561.253	20031.35
561.453	20119.42
561.652	20240.25
561.851	19918.71
562.05	19894.14
562.249	19550.08
562.448	19967.87
562.647	19812.22
562.846	19847.04
563.045	19578.75
563.244	19582.85
563.443	19851.13
563.642	19668.86
563.841	20041.59
564.04	19763.07
564.239	19711.87
564.438	19451.78
564.637	19806.08
564.836	19754.88
565.035	19427.2
565.234	19574.66
565.432	19541.89
565.631	19511.17
565.83	19558.27
566.029	19068.81
566.228	19285.89
566.427	19175.3
566.625	18909.07
566.824	19060.62
567.023	19445.63
567.222	18810.76
567.42	19408.77
567.619	19068.81
567.818	19203.97
568.016	19021.7
568.215	19031.94
568.414	18872.2
568.612	19197.83
568.811	18861.96
569.01	18829.2
569.208	18749.32
569.407	18958.22
569.605	18667.41
569.804	18778
570.002	18235.28
570.201	18663.31
570.4	18614.16
570.598	18505.62
570.797	18274.2
570.995	18542.48
571.193	18438.03
571.392	18757.52
571.59	18210.71
571.789	18388.88
571.987	18421.65
572.186	18216.85
572.384	18206.61
572.582	18139.03
572.781	18233.24
572.979	18014.1
573.177	17979.29
573.376	18188.18
573.574	17905.56
573.772	17768.35
573.971	17889.18
574.169	17817.5
574.367	17618.85
574.565	17770.4
574.763	17436.58
574.962	17475.49
575.16	17436.58
575.358	17409.95
575.556	17444.77
575.754	17758.11
575.952	17295.27
576.151	17559.45
576.349	17160.1
576.547	17272.74
576.745	17209.25
576.943	17334.18
577.141	17092.52
577.339	17266.6
577.537	16897.96
577.735	17246.12
577.933	16967.59
578.131	16854.95
578.329	16834.47
578.527	16674.73
578.725	16828.33
578.923	16709.55
579.121	16660.4
579.319	16641.96
579.516	17049.51
579.714	16801.71
579.912	16545.71
580.11	16680.88
580.308	16506.8
580.506	16215.99
580.704	16396.21
580.901	16496.56
581.099	16670.64
581.297	16418.74
581.495	16162.74
581.692	16261.04
581.89	16035.77
582.088	16281.52
582.285	16134.07
582.483	16250.8
582.681	16029.62
582.878	16097.21
583.076	15988.66
583.274	16064.44
583.471	15857.59
583.669	15841.21
583.866	15855.54
584.064	15787.96
584.262	15529.92
584.459	15878.07
584.657	15767.48
584.854	15650.75
585.052	15450.05
585.249	15527.87
585.447	15577.02
585.644	15122.37
585.841	15407.04
586.039	15527.87
586.236	15345.6
586.434	15312.83
586.631	15247.3
586.828	15040.45
587.026	15204.29
587.223	15097.8
587.42	15146.95
587.618	15091.65
587.815	14815.18
588.012	14804.94
588.21	15044.55
588.407	14882.76
588.604	14686.15
588.801	14370.77
588.999	14663.63
589.196	14936.01
589.393	14421.97
589.59	14852.04
589.787	14548.94
589.984	14501.84
590.182	14276.56
590.379	14747.59
590.576	14311.38
590.773	14348.24
590.97	14454.73
591.167	14505.93
591.364	14241.75
591.561	14264.27
591.758	14131.16
591.955	14307.28
592.152	14153.68
592.349	14096.34
592.546	14135.25
592.743	14301.14
592.94	13967.32
593.137	13897.69
593.334	14036.95
593.531	13830.1
593.727	13885.4
593.924	13989.85
594.121	13604.83
594.318	13924.31
594.515	13520.86
594.712	13756.38
594.908	13678.55
595.105	13670.36
595.302	13453.28
595.499	13473.76
595.696	13467.61
595.892	13365.21
596.089	13574.11
596.286	13363.17
596.482	13176.8
596.679	13357.02
596.876	13455.33
597.072	12976.1
597.269	13017.06
597.466	13131.75
597.662	13037.54
597.859	13223.9
598.055	13152.23
598.252	12986.34
598.448	12943.33
598.645	12875.75
598.841	12861.41
599.038	12738.54
599.234	12711.91
599.431	12664.81
599.627	12908.52
599.824	12736.49
600.02	12548.08
600.217	12617.71
600.413	12603.37
600.609	12419.05
600.806	12290.03
601.002	12341.23
601.198	12210.16
601.395	12085.23
601.591	12163.06
601.787	12353.52
601.984	12183.54
602.18	12173.3
602.376	12107.76
602.572	12115.95
602.769	12218.35
602.965	11857.91
603.161	12298.22
603.357	12163.06
603.553	12007.41
603.75	11571.19
603.946	11941.88
604.142	12040.18
604.338	11565.05
604.534	11806.71
604.73	11554.81
604.926	11581.43
605.122	11704.31
605.318	11577.34
605.514	11405.31
605.71	11407.36
605.906	11456.51
606.102	11515.9
606.298	11517.95
606.494	11427.84
606.69	11472.89
606.886	11347.97
607.082	11237.38
607.278	11401.21
607.474	11225.09
607.67	11405.31
607.866	11147.26
608.062	11153.41
608.257	11155.46
608.453	11206.66
608.649	11225.09
608.845	11102.21
609.041	11079.68
609.236	10977.28
609.432	10932.23
609.628	10788.87
609.824	10969.09
610.019	10952.71
610.215	10831.88
610.411	10715.14
610.606	10862.6
610.802	10907.65
610.998	10756.1
611.193	10747.91
611.389	10700.81
611.584	10844.17
611.78	10786.82
611.976	10403.85
612.171	10592.27
612.367	10633.22
612.562	10434.57
612.758	10606.6
612.953	10639.37
613.149	10551.31
613.344	10399.76
613.539	10719.24
613.735	10539.02
613.93	10514.44
614.126	10641.42
614.321	10596.36
614.517	10393.61
614.712	10371.08
614.907	10319.89
615.103	10489.87
615.298	10311.69
615.493	10375.18
615.688	10233.87
615.884	10354.7
616.079	10178.58
616.274	10289.17
616.47	10074.13
616.665	10147.86
616.86	10315.79
617.055	10137.62
617.25	10147.86
617.445	10178.58
617.641	9877.52
617.836	10295.31
618.031	9816.08
618.226	10076.18
618.421	9621.53
618.616	10016.79
618.811	9820.18
619.006	9893.91
619.201	9689.11
619.396	9758.74
619.591	9420.83
619.786	9594.9
619.981	9560.09
620.176	9596.95
620.371	9506.84
620.566	9572.38
620.761	9416.73
620.956	9437.21
621.151	9340.96
621.346	9355.29
621.541	9175.07
621.735	9469.98
621.93	9140.26
622.125	9189.41
622.32	8831.01
622.515	9130.02
622.709	9021.47
622.904	8962.08
623.099	8931.36
623.294	8964.13
623.488	8773.67
623.683	8822.82
623.878	8925.22
624.072	8581.16
624.267	8652.84
624.462	8634.41
624.656	8765.48
624.851	8478.76
625.046	8351.79
625.24	8534.06
625.435	8329.26
625.629	8208.43
625.824	8470.57
626.018	8306.73
626.213	8060.98
626.407	8220.72
626.602	8042.54
626.796	8130.61
626.991	8108.08
627.185	7905.33
627.38	8013.87
627.574	7886.9
627.768	7796.79
627.963	7788.6
628.157	7780.4
628.352	7737.4
628.546	7725.11
628.74	7659.57
628.935	7657.53
629.129	7731.25
629.323	7456.82
629.517	7512.12
629.712	7401.53
629.906	7471.16
630.1	7229.5
630.294	7262.27
630.489	7249.98
630.683	7282.75
630.877	7241.79
631.071	7155.77
631.265	7077.95
631.459	7125.05
631.653	7202.88
631.848	7272.51
632.042	7057.47
632.236	7002.18
632.43	6912.07
632.624	6940.74
632.818	6844.48
633.012	6686.79
633.206	6824
633.4	6690.88
633.594	6617.16
633.788	6727.75
633.982	6553.67
634.176	6662.21
634.369	6443.08
634.563	6598.73
634.757	6469.7
634.951	6539.33
635.145	6361.16
635.339	6357.07
635.533	6312.01
635.726	6467.66
635.92	6240.33
636.114	6279.24
636.308	6160.46
636.501	6289.48
636.695	6326.35
636.889	6148.17
637.083	6158.41
637.276	6086.73
637.47	6144.08
637.664	6027.34
637.857	6017.1
638.051	6033.49
638.244	5972.05
638.438	6023.25
638.632	5886.03
638.825	5763.15
639.019	5838.93
639.212	5818.45
639.406	5808.21
639.599	5666.9
639.793	5638.23
639.986	5560.41
640.18	5636.18
640.373	5722.2
640.567	5415
640.76	5603.41
640.954	5652.56
641.147	5312.6
641.34	5283.93
641.534	5427.29
641.727	5415
641.92	5412.95
642.114	5161.05
642.307	5216.35
642.5	5308.51
642.694	5052.51
642.887	5128.28
643.08	5183.58
643.273	5191.77
643.467	5083.23
643.66	5183.58
643.853	5056.61
644.046	5054.56
644.239	4984.93
644.432	4995.17
644.626	4894.82
644.819	4837.47
645.012	4903.01
645.205	4888.67
645.398	5048.41
645.591	4827.23
645.784	4812.9
645.977	4782.18
646.17	4681.83
646.363	4612.2
646.556	4716.64
646.749	4561
646.942	4690.02
647.135	4638.82
647.328	4583.52
647.521	4481.13
647.714	4485.22
647.907	4532.33
648.099	4622.44
648.292	4360.3
648.485	4466.79
648.678	4550.76
648.871	4429.93
649.064	4309.1
649.256	4307.05
649.449	4305
649.642	4180.07
649.835	4206.7
650.027	4341.86
650.22	4298.86
650.413	4159.6
650.605	4151.4
650.798	4106.35
650.991	4163.69
651.183	4141.16
651.376	4120.68
651.568	4124.78
651.761	4030.57
651.954	4026.48
652.146	4014.19
652.339	3999.85
652.531	3876.98
652.724	3983.47
652.916	3922.03
653.109	3795.06
653.301	3758.19
653.494	3887.22
653.686	3905.65
653.879	3768.43
654.071	3766.39
654.263	3809.39
654.456	3831.92
654.648	3711.09
654.84	3678.32
655.033	3729.52
655.225	3764.34
655.417	3661.94
655.61	3735.67
655.802	3709.04
655.994	3545.2
656.186	3678.32
656.379	3633.27
656.571	3508.34
656.763	3528.82
656.955	3475.57
657.148	3371.13
657.34	3356.79
657.532	3565.68
657.724	3446.9
657.916	3426.42
658.108	3395.7
658.3	3346.55
658.492	3270.78
658.684	3276.92
658.876	3360.89
659.068	3244.15
659.26	3367.03
659.452	3203.19
659.644	3125.37
659.836	3123.32
660.028	3287.16
660.22	3002.49
660.412	3102.84
660.604	3151.99
660.796	3029.12
660.988	3178.62
661.18	2984.06
661.372	2986.11
661.563	2965.63
661.755	3012.73
661.947	3008.64
662.139	2850.94
662.331	2977.92
662.522	2934.91
662.714	2816.13
662.906	2945.15
663.097	2889.85
663.289	2904.19
663.481	2842.75
663.673	2861.18
663.864	2893.95
664.056	2785.41
664.247	2908.29
664.439	2754.69
664.631	2812.03
664.822	2783.36
665.014	2756.74
665.205	2787.46
665.397	2721.92
665.588	2693.25
665.78	2717.83
665.971	2586.76
666.163	2652.29
666.354	2644.1
666.546	2728.07
666.737	2576.52
666.929	2494.6
667.12	2539.65
667.311	2607.23
667.503	2496.64
667.694	2439.3
667.885	2545.8
668.077	2541.7
668.268	2332.81
668.459	2515.08
668.651	2504.84
668.842	2396.29
669.033	2504.84
669.224	2398.34
669.416	2455.69
669.607	2349.19
669.798	2408.58
669.989	2332.81
670.18	2486.4
670.371	2293.9
670.563	2416.77
670.754	2334.86
670.945	2234.5
671.136	2252.94
671.327	2277.51
671.518	2281.61
671.709	2234.5
671.9	2240.65
672.091	2263.18
672.282	2242.7
672.473	2209.93
672.664	2205.83
672.855	2179.21
673.046	2238.6
673.237	2113.67
673.428	2117.77
673.619	2140.3
673.809	2136.2
674	2201.74
674.191	2080.91
674.382	2173.07
674.573	2181.26
674.764	2111.63
674.954	2082.95
675.145	2037.9
675.336	2138.25
675.527	2150.54
675.717	2091.15
675.908	2082.95
676.099	2046.09
676.289	2066.57
676.48	1867.92
676.671	2021.52
676.861	2013.32
677.052	2066.57
677.243	1945.74
677.433	2048.14
677.624	2054.28
677.814	2042
678.005	1937.55
678.195	1982.6
678.386	1958.03
678.576	1933.45
678.767	1939.6
678.957	1923.21
679.148	2001.04
679.338	1994.89
679.529	1937.55
679.719	1968.27
679.909	1978.51
680.1	1984.65
680.29	1829.01
680.481	1966.22
680.671	1853.58
680.861	1939.6
681.052	1843.34
681.242	1837.2
681.432	2019.47
681.622	1933.45
681.813	1777.81
682.003	1949.84
682.193	1892.49
682.383	1951.88
682.573	1845.39
682.764	1878.16
682.954	1833.1
683.144	1849.49
683.334	1802.38
683.524	1833.1
683.714	1851.53
683.904	1806.48
684.094	1908.88
684.284	1847.44
684.474	1849.49
684.664	1915.02
684.854	1937.55
685.044	1802.38
685.234	1910.93
685.424	1794.19
685.614	1820.81
685.804	1771.66
685.994	1702.03
686.184	1800.34
686.374	1843.34
686.564	1732.75
686.753	1695.89
686.943	1910.93
687.133	1876.11
687.323	1740.94
687.513	1747.09
687.702	1718.42
687.892	1742.99
688.082	1753.23
688.272	1685.65
688.461	1792.14
688.651	1763.47
688.841	1728.66
689.03	1749.14
689.22	1798.29
689.41	1724.56
689.599	1697.94
689.789	1632.4
689.979	1781.9
690.168	1757.33
690.358	1601.68
690.547	1499.28
690.737	1736.85
690.926	1661.07
691.116	1679.51
691.305	1796.24
691.495	1726.61
691.684	1564.82
691.874	1638.55
692.063	1523.86
692.252	1579.15
692.442	1642.64
692.631	1640.59
692.82	1595.54
693.01	1550.48
693.199	1575.06
693.388	1585.3
693.578	1573.01
693.767	1575.06
693.956	1532.05
694.146	1738.9
694.335	1482.9
694.524	1589.39
694.713	1630.35
694.902	1556.63
695.092	1597.59
695.281	1493.14
695.47	1564.82
695.659	1540.24
695.848	1566.87
696.037	1521.81
696.226	1517.72
696.415	1431.7
696.604	1570.96
696.793	1443.99
696.982	1507.48
697.171	1462.42
697.36	1441.94
697.549	1505.43
697.738	1347.73
697.927	1554.58
698.116	1460.37
698.305	1450.13
698.494	1452.18
698.683	1575.06
698.872	1523.86
699.061	1448.08
699.25	1454.23
699.438	1439.89
699.627	1482.9
699.816	1409.17
700.005	1489.04
700.193	1456.28
700.382	1503.38
700.571	1497.24
700.76	1423.51
700.948	1425.56
701.137	1407.13
701.326	1446.04
701.514	1415.32
701.703	1382.55
701.892	1409.17
702.08	1398.93
702.269	1394.84
702.457	1476.76
702.646	1376.41
702.834	1441.94
703.023	1390.74
703.212	1378.45
703.4	1374.36
703.589	1302.68
703.777	1415.32
703.965	1212.57
704.154	1372.31
704.342	1364.12
704.531	1269.91
704.719	1355.93
704.907	1355.93
705.096	1310.87
705.284	1237.14
705.472	1362.07
705.661	1341.59
705.849	1218.71
706.037	1345.69
706.226	1366.17
706.414	1239.19
706.602	1280.15
706.79	1364.12
706.979	1271.96
707.167	1386.65
707.355	1257.62
707.543	1206.42
707.731	1317.01
707.919	1337.49
708.107	1243.29
708.296	1312.92
708.484	1265.82
708.672	1300.63
708.86	1366.17
709.048	1351.83
709.236	1243.29
709.424	1220.76
709.612	1196.18
709.8	1304.73
709.988	1226.9
710.176	1231
710.364	1321.11
710.551	1239.19
710.739	1187.99
710.927	1224.86
711.115	1231
711.303	1226.9
711.491	1292.44
711.679	1327.25
711.866	1267.86
712.054	1194.14
712.242	1210.52
712.43	1120.41
712.617	1216.66
712.805	1214.62
712.993	1183.9
713.181	1165.46
713.368	1187.99
713.556	1220.76
713.744	1073.31
713.931	1190.04
714.119	1226.9
714.306	1155.23
714.494	1333.4
714.682	1151.13
714.869	1194.14
715.057	1169.56
715.244	1138.84
715.432	1106.07
715.619	1142.94
715.807	1177.75
715.994	1147.03
716.182	1169.56
716.369	1249.43
716.556	1261.72
716.744	1130.65
716.931	1063.07
717.119	1185.94
717.306	1181.85
717.493	1161.37
717.681	1190.04
717.868	1120.41
718.055	1161.37
718.242	1204.38
718.43	1052.83
718.617	1122.46
718.804	1138.84
718.991	1093.79
719.179	1171.61
719.366	1042.59
719.553	1032.35
719.74	1122.46
719.927	1149.08
720.114	1091.74
720.301	1202.33
720.488	1028.25
720.676	1079.45
720.863	1216.66
721.05	1118.36
721.237	1108.12
721.424	1044.63
721.611	1079.45
721.798	1101.98
721.985	1108.12
722.172	1036.44
722.358	1112.22
722.545	1044.63
722.732	1108.12
722.919	1231
723.106	1065.11
723.293	1085.59
723.48	1024.16
723.667	1087.64
723.853	1147.03
724.04	1022.11
724.227	1122.46
724.414	1099.93
724.6	1097.88
724.787	1034.39
724.974	1083.55
725.161	1038.49
725.347	1065.11
725.534	983.2
725.72	1081.5
725.907	1081.5
726.094	1101.98
726.28	934.04
726.467	1095.83
726.653	1153.18
726.84	1061.02
727.027	1099.93
727.213	1022.11
727.4	1044.63
727.586	1044.63
727.773	1034.39
727.959	1104.03
728.145	1052.83
728.332	997.53
728.518	952.48
728.705	1022.11
728.891	1056.92
729.077	1030.3
729.264	1132.7
729.45	1061.02
729.636	1071.26
729.823	950.43
730.009	1034.39
730.195	1034.39
730.382	995.48
730.568	1081.5
730.754	938.14
730.94	975
731.126	1044.63
731.313	1073.31
731.499	1022.11
731.685	948.38
731.871	1054.87
732.057	993.44
732.243	938.14
732.429	1009.82
732.615	1063.07
732.801	1026.2
732.987	1030.3
733.173	1046.68
733.359	989.34
733.545	991.39
733.731	991.39
733.917	1026.2
734.103	1007.77
734.289	1052.83
734.475	1077.4
734.661	962.72
734.847	936.09
735.033	1018.01
735.219	1038.49
735.404	1001.63
735.59	948.38
735.776	987.29
735.962	962.72
736.148	997.53
736.333	979.1
736.519	1022.11
736.705	997.53
736.89	929.95
737.076	936.09
737.262	919.71
737.447	979.1
737.633	991.39
737.819	1018.01
738.004	958.62
738.19	919.71
738.375	1026.2
738.561	1114.27
738.747	977.05
738.932	946.33
739.118	983.2
739.303	960.67
739.489	903.32
739.674	919.71
739.859	983.2
740.045	966.81
740.23	950.43
740.416	854.17
740.601	1042.59
740.786	972.96
740.972	958.62
741.157	987.29
741.342	874.65
741.528	919.71
741.713	940.19
741.898	936.09
742.084	981.15
742.269	966.81
742.454	864.41
742.639	985.24
742.824	952.48
743.01	868.51
743.195	866.46
743.38	925.85
743.565	827.55
743.75	897.18
743.935	997.53
744.12	911.52
744.305	831.65
744.49	839.84
744.675	968.86
744.86	921.76
745.045	876.7
745.23	917.66
745.415	899.23
745.6	893.09
745.785	927.9
745.97	886.94
746.155	878.75
746.34	925.85
746.525	841.89
746.71	886.94
746.895	827.55
747.079	905.37
747.264	796.83
747.449	850.08
747.634	960.67
747.819	843.93
748.003	766.11
748.188	794.78
748.373	821.41
748.557	940.19
748.742	776.35
748.927	776.35
749.111	819.36
749.296	747.68
749.481	897.18
749.665	800.93
749.85	784.54
750.034	905.37
750.219	817.31
750.404	786.59
750.588	723.1
750.773	755.87
750.957	696.48
751.141	719.01
751.326	696.48
751.51	741.54
751.695	759.97
751.879	764.06
752.064	727.2
752.248	727.2
752.432	735.39
752.617	741.54
752.801	704.67
752.985	725.15
753.17	805.02
753.354	762.02
753.538	610.47
753.722	655.52
753.907	643.23
754.091	659.62
754.275	741.54
754.459	661.66
754.643	692.38
754.828	766.11
755.012	653.47
755.196	667.81
755.38	686.24
755.564	700.58
755.748	700.58
755.932	678.05
756.116	616.61
756.3	655.52
756.484	622.75
756.668	694.43
756.852	739.49
757.036	637.09
757.22	647.33
757.404	612.51
757.588	628.9
757.772	555.17
757.956	653.47
758.14	598.18
758.323	661.66
758.507	516.26
758.691	563.36
758.875	594.08
759.059	577.7
759.242	632.99
759.426	577.7
759.61	587.94
759.794	497.83
759.977	536.74
760.161	635.04
760.345	536.74
760.528	604.32
760.712	606.37
760.895	567.46
761.079	530.59
761.263	594.08
761.446	546.98
761.63	540.83
761.813	479.4
761.997	555.17
762.18	516.26
762.364	518.31
762.547	530.59
762.731	467.11
762.914	503.97
763.098	596.13
763.281	493.73
763.464	555.17
763.648	454.82
763.831	508.07
764.015	555.17
764.198	567.46
764.381	456.87
764.564	532.64
764.748	454.82
764.931	534.69
765.114	489.64
765.297	530.59
765.481	403.62
765.664	577.7
765.847	581.79
766.03	555.17
766.213	401.57
766.397	487.59
766.58	411.81
766.763	481.44
766.946	485.54
767.129	440.48
767.312	487.59
767.495	452.77
767.678	399.52
767.861	452.77
768.044	499.88
768.227	489.64
768.41	516.26
768.593	479.4
768.776	524.45
768.959	356.52
769.142	465.06
769.324	481.44
769.507	469.16
769.69	448.68
769.873	407.72
770.056	538.79
770.239	465.06
770.421	411.81
770.604	456.87
770.787	434.34
770.97	432.29
771.152	381.09
771.335	379.04
771.518	407.72
771.7	434.34
771.883	374.95
772.066	491.68
772.248	420
772.431	403.62
772.613	465.06
772.796	422.05
772.978	387.24
773.161	379.04
773.343	448.68
773.526	430.24
773.708	368.81
773.891	264.36
774.073	430.24
774.256	415.91
774.438	413.86
774.621	387.24
774.803	407.72
774.985	438.44
775.168	417.96
775.35	436.39
775.532	389.28
775.715	387.24
775.897	395.43
776.079	350.37
776.261	323.75
776.444	391.33
776.626	309.41
776.808	325.8
776.99	389.28
777.173	374.95
777.355	305.32
777.537	250.02
777.719	348.33
777.901	317.61
778.083	381.09
778.265	352.42
778.447	233.64
778.629	325.8
778.811	338.09
778.993	422.05
779.175	348.33
779.357	333.99
779.539	350.37
779.721	344.23
779.903	354.47
780.085	268.45
780.267	313.51
780.449	333.99
780.631	309.41
780.812	225.45
780.994	327.85
781.176	372.9
781.358	333.99
781.54	276.65
781.721	309.41
781.903	254.12
782.085	319.65
782.267	223.4
782.448	348.33
782.63	217.26
782.812	311.46
782.993	258.21
783.175	317.61
783.357	317.61
783.538	182.44
783.72	256.17
783.901	223.4
784.083	209.06
784.264	258.21
784.446	317.61
784.627	178.34
784.809	270.5
784.99	211.11
785.172	196.78
785.353	243.88
785.535	217.26
785.716	250.02
785.897	252.07
786.079	219.3
786.26	252.07
786.441	276.65
786.623	217.26
786.804	268.45
786.985	229.54
787.167	268.45
787.348	200.87
787.529	270.5
787.71	241.83
787.891	245.93
788.073	129.19
788.254	190.63
788.435	274.6
788.616	180.39
788.797	227.5
788.978	223.4
789.159	223.4
789.34	221.35
789.522	217.26
789.703	219.3
789.884	172.2
790.065	196.78
790.246	176.3
790.427	272.55
790.607	184.49
790.788	204.97
790.969	258.21
791.15	202.92
791.331	182.44
791.512	155.82
791.693	176.3
791.874	231.59
792.054	176.3
792.235	176.3
792.416	225.45
792.597	180.39
792.778	131.24
792.958	184.49
793.139	180.39
793.32	186.54
793.5	108.71
793.681	139.43
793.862	176.3
794.042	239.78
794.223	176.3
794.404	192.68
794.584	121
794.765	178.34
794.945	112.81
795.126	213.16
795.306	180.39
795.487	139.43
795.667	127.14
795.848	262.31
796.028	143.53
796.209	168.1
796.389	180.39
796.57	168.1
796.75	116.9
796.93	184.49
797.111	159.91
797.291	143.53
797.471	123.05
797.652	153.77
797.832	125.1
798.012	186.54
798.192	213.16
798.373	131.24
798.553	67.75
798.733	112.81
798.913	172.2
799.093	166.06
799.274	174.25
799.454	118.95
799.634	149.67
799.814	104.62
799.994	94.38
800.174	110.76
800.354	170.15
800.534	92.33
800.714	157.86
800.894	164.01
801.074	84.14
801.254	106.67
801.434	137.38
801.614	176.3
801.794	80.04
801.974	295.08
802.154	84.14
802.334	116.9
802.514	145.58
802.693	207.02
802.873	143.53
803.053	172.2
803.233	204.97
803.413	131.24
803.592	45.23
803.772	92.33
803.952	106.67
804.131	139.43
804.311	96.43
804.491	145.58
804.67	108.71
804.85	141.48
805.03	55.47
805.209	129.19
805.389	67.75
805.568	102.57
805.748	49.32
805.928	133.29
806.107	118.95
806.287	114.86
806.466	192.68
806.646	127.14
806.825	141.48
807.004	121
807.184	75.95
807.363	100.52
807.543	100.52
807.722	114.86
807.901	157.86
808.081	20.65
808.26	67.75
808.439	161.96
808.619	114.86
808.798	63.66
808.977	110.76
809.156	118.95
809.336	34.99
809.515	129.19
809.694	137.38
809.873	69.8
810.052	143.53
810.231	98.47
810.411	88.23
810.59	69.8
810.769	67.75
810.948	166.06
811.127	63.66
811.306	159.91
811.485	39.08
811.664	90.28
811.843	24.75
812.022	69.8
812.201	151.72
812.38	104.62
812.559	133.29
812.737	176.3
812.916	102.57
813.095	106.67
813.274	96.43
813.453	104.62
813.632	88.23
813.811	133.29
813.989	157.86
814.168	96.43
814.347	135.34
814.526	67.75
814.704	82.09
814.883	73.9
815.062	84.14
815.24	118.95
815.419	24.75
815.598	127.14
815.776	41.13
815.955	84.14
816.133	18.6
816.312	67.75
816.49	63.66
816.669	49.32
816.847	-16.21
817.026	118.95
817.204	84.14
817.383	84.14
817.561	53.42
817.74	145.58
817.918	145.58
818.097	104.62
818.275	63.66
818.453	141.48
818.632	106.67
818.81	82.09
818.988	49.32
819.167	80.04
819.345	67.75
819.523	94.38
819.701	4.27
819.879	102.57
820.058	61.61
820.236	80.04
820.414	71.85
820.592	37.03
820.77	20.65
820.948	73.9
821.127	41.13
821.305	172.2
821.483	41.13
821.661	86.19
821.839	82.09
822.017	106.67
822.195	143.53
822.373	90.28
822.551	57.51
822.729	112.81
822.907	57.51
823.085	82.09
823.262	75.95
823.44	49.32
823.618	104.62
823.796	41.13
823.974	53.42
824.152	149.67
824.329	32.94
824.507	-26.45
824.685	110.76
824.863	59.56
825.04	45.23
825.218	14.51
825.396	43.18
825.574	47.27
825.751	28.84
825.929	73.9
826.107	98.47
826.284	63.66
826.462	88.23
826.639	92.33
826.817	61.61
826.994	98.47
827.172	20.65
827.349	82.09
827.527	-10.07
827.704	47.27
827.882	12.46
828.059	-1.88
828.237	49.32
828.414	96.43
828.591	-5.97
828.769	123.05
828.946	139.43
829.124	82.09
829.301	8.36
829.478	112.81
829.655	63.66
829.833	80.04
830.01	-8.02
830.187	84.14
830.364	45.23
830.542	155.82
830.719	80.04
830.896	69.8
831.073	47.27
831.25	16.55
831.427	84.14
831.604	-32.6
831.782	55.47
831.959	37.03
832.136	-38.74
832.313	92.33
832.49	94.38
832.667	94.38
832.844	39.08
833.021	71.85
833.198	43.18
833.374	41.13
833.551	88.23
833.728	30.89
833.905	114.86
834.082	8.36
834.259	37.03
834.436	112.81
834.612	125.1
834.789	39.08
834.966	65.71
835.143	-12.12
835.319	39.08
835.496	131.24
835.673	24.75
835.85	30.89
836.026	26.79
836.203	141.48
836.38	88.23
836.556	51.37
836.733	84.14
836.909	61.61
837.086	22.7
837.262	106.67
837.439	-34.64
837.616	63.66
837.792	104.62
837.968	59.56
838.145	8.36
838.321	45.23
838.498	55.47
838.674	-24.4
838.851	49.32
839.027	63.66
839.203	63.66
839.38	-5.97
839.556	82.09
839.732	57.51
839.909	49.32
840.085	37.03
840.261	49.32
840.437	77.99
840.614	-34.64
840.79	51.37
840.966	-12.12
841.142	32.94
841.318	-26.45
841.494	-8.02
841.671	32.94
841.847	-30.55
842.023	51.37
842.199	12.46
842.375	10.41
842.551	26.79
842.727	24.75
842.903	45.23
843.079	104.62
843.255	80.04
843.431	41.13
843.607	73.9
843.783	39.08
843.959	-22.36
844.134	75.95
844.31	116.9
844.486	-55.12
844.662	22.7
844.838	0.17
845.013	77.99
845.189	77.99
845.365	12.46
845.541	-12.12
845.716	43.18
845.892	69.8
846.068	-3.93
846.244	20.65
846.419	92.33
846.595	-8.02
846.77	84.14
846.946	34.99
847.122	-10.07
847.297	104.62
847.473	-22.36
847.648	16.55
847.824	57.51
847.999	32.94
848.175	-5.97
848.35	53.42
848.526	71.85
848.701	26.79
848.876	-18.26
849.052	96.43
849.227	-5.97
849.403	41.13
849.578	80.04
849.753	37.03
849.929	69.8
850.104	-16.21
850.279	32.94
850.454	41.13
850.63	77.99
850.805	-16.21
850.98	63.66
851.155	30.89
851.33	-18.26
851.505	24.75
851.681	8.36
851.856	12.46
852.031	-16.21
852.206	-1.88
852.381	8.36
852.556	18.6
852.731	49.32
852.906	41.13
853.081	90.28
853.256	39.08
853.431	53.42
853.606	37.03
853.781	80.04
853.956	51.37
854.131	71.85
854.305	12.46
854.48	59.56
854.655	-10.07
854.83	24.75
855.005	16.55
855.18	47.27
855.354	-55.12
855.529	12.46
855.704	98.47
855.879	-26.45
856.053	69.8
856.228	12.46
856.403	-8.02
856.577	51.37
856.752	10.41
856.926	49.32
857.101	-36.69
857.276	-1.88
857.45	26.79
857.625	12.46
857.799	24.75
857.974	-28.5
858.148	14.51
858.323	86.19
858.497	14.51
858.672	-30.55
858.846	-20.31
859.02	18.6
859.195	34.99
859.369	67.75
859.543	16.55
859.718	43.18
859.892	57.51
860.066	39.08
860.241	96.43
860.415	32.94
860.589	51.37
860.763	53.42
860.938	4.27
861.112	-18.26
861.286	-30.55
861.46	6.31
861.634	57.51
861.808	100.52
861.982	4.27
862.157	18.6
862.331	-26.45
862.505	16.55
862.679	43.18
862.853	24.75
863.027	41.13
863.201	18.6
863.375	12.46
863.549	-10.07
863.722	43.18
863.896	12.46
864.07	20.65
864.244	0.17
864.418	55.47
864.592	47.27
864.766	37.03
864.939	-22.36
865.113	6.31
865.287	67.75
865.461	30.89
865.634	110.76
865.808	53.42
865.982	-32.6
866.156	-30.55
866.329	-12.12
866.503	59.56
866.676	6.31
866.85	10.41
867.024	12.46
867.197	-24.4
867.371	80.04
867.544	51.37
867.718	59.56
867.891	32.94
868.065	84.14
868.238	82.09
868.412	71.85
868.585	2.22
868.759	90.28
868.932	-24.4
869.105	69.8
869.279	53.42
869.452	-12.12
869.625	6.31
869.799	51.37
869.972	55.47
870.145	67.75
870.319	10.41
870.492	-14.17
870.665	-8.02
870.838	24.75
871.011	10.41
871.185	8.36
871.358	51.37
871.531	6.31
871.704	-1.88
871.877	-8.02
872.05	30.89
872.223	69.8
872.396	-12.12
872.569	34.99
872.742	69.8
872.915	53.42
873.088	-20.31
873.261	51.37
873.434	55.47
873.607	-26.45
873.78	51.37
873.953	49.32
874.126	-5.97
874.299	69.8
874.471	28.84
874.644	14.51
874.817	2.22
874.99	77.99
875.163	-83.8
875.335	18.6
875.508	14.51
875.681	43.18
875.853	-12.12
876.026	73.9
876.199	39.08
876.371	77.99
876.544	-22.36
876.717	14.51
876.889	77.99
877.062	28.84
877.234	-71.51
877.407	18.6
877.579	-5.97
877.752	-10.07
877.924	-26.45
878.097	45.23
878.269	63.66
878.442	65.71
878.614	6.31
878.786	-22.36
878.959	-30.55
879.131	63.66
879.303	39.08
879.476	69.8
879.648	-40.79
879.82	98.47
879.993	18.6
880.165	10.41
880.337	-10.07
880.509	24.75
880.681	28.84
880.854	-1.88
881.026	6.31
881.198	30.89
881.37	-8.02
881.542	45.23
881.714	67.75
881.886	-51.03
882.058	-16.21
882.23	0.17
882.402	16.55
882.574	61.61
882.746	57.51
882.918	-1.88
883.09	49.32
883.262	-22.36
883.434	22.7
883.606	30.89
883.778	106.67
883.95	34.99
884.122	4.27
884.293	-1.88
884.465	32.94
884.637	55.47
884.809	12.46
884.98	28.84
885.152	41.13
885.324	100.52
885.496	59.56
885.667	41.13
885.839	18.6
886.011	22.7
886.182	8.36
886.354	34.99
886.525	18.6
886.697	4.27
886.869	12.46
887.04	-81.75
887.212	34.99
887.383	28.84
887.555	18.6
887.726	34.99
887.897	-46.93
888.069	-40.79
888.24	41.13
888.412	26.79
888.583	24.75
888.754	22.7
888.926	24.75
889.097	24.75
889.268	20.65
889.44	6.31
889.611	-8.02
889.782	-28.5
889.953	61.61
890.125	24.75
890.296	55.47
890.467	-32.6
890.638	-5.97
890.809	-10.07
890.98	-1.88
891.151	-8.02
891.323	0.17
891.494	18.6
891.665	34.99
891.836	2.22
892.007	53.42
892.178	22.7
892.349	-40.79
892.52	51.37
892.691	-38.74
892.862	6.31
893.032	-61.27
893.203	51.37
893.374	24.75
893.545	41.13
893.716	51.37
893.887	71.85
894.057	16.55
894.228	47.27
894.399	-48.98
894.57	92.33
894.74	67.75
894.911	37.03
895.082	14.51
895.253	43.18
895.423	-1.88
895.594	-20.31
895.764	43.18
895.935	-20.31
896.106	67.75
896.276	22.7
896.447	-51.03
896.617	14.51
896.788	-14.17
896.958	14.51
897.129	-34.64
897.299	-24.4
897.47	-8.02
897.64	22.7
897.81	20.65
897.981	77.99
898.151	-14.17
898.322	53.42
898.492	43.18
898.662	41.13
898.832	24.75
899.003	8.36
899.173	-48.98
899.343	41.13
899.513	39.08
