Data from USB4F104151__86__12-54-48-798.txt Node

Date: Fri Mar 14 12:54:48 EDT 2025
User: louis
Spectrometer: USB4F10415
Trigger mode: 4
Integration Time (sec): 1.000000E-2
Scans to average: 1
Electric dark correction enabled: true
Nonlinearity correction enabled: false
Boxcar width: 0
XAxis mode: Wavelengths
Number of Pixels in Spectrum: 3648
>>>>>Begin Spectral Data<<<<<
178.204	-29.35
178.424	-29.35
178.644	-29.35
178.864	-60.07
179.084	44.37
179.304	-2.73
179.524	-6.83
179.744	36.18
179.964	-23.21
180.184	23.89
180.404	-12.97
180.624	42.32
180.844	46.42
181.064	-80.55
181.283	44.37
181.503	1.37
181.723	-68.27
181.943	-33.45
182.163	34.13
182.383	-25.26
182.602	42.32
182.822	79.19
183.042	54.61
183.262	27.99
183.482	38.23
183.701	17.75
183.921	85.33
184.141	-0.68
184.361	38.23
184.58	19.8
184.8	32.08
185.02	46.42
185.239	93.52
185.459	-10.92
185.679	46.42
185.898	42.32
186.118	36.18
186.338	21.85
186.557	-4.78
186.777	27.99
186.997	25.94
187.216	23.89
187.436	-55.98
187.655	-8.87
187.875	111.96
188.095	-8.87
188.314	5.46
188.534	52.56
188.753	13.65
188.973	7.51
189.192	-4.78
189.412	-21.16
189.631	-19.11
189.851	30.04
190.07	32.08
190.29	-8.87
190.509	60.76
190.729	-39.59
190.948	101.72
191.168	7.51
191.387	60.76
191.607	-41.64
191.826	15.7
192.045	58.71
192.265	-94.89
192.484	17.75
192.704	5.46
192.923	54.61
193.142	52.56
193.362	25.94
193.581	-10.92
193.8	-6.83
194.02	-4.78
194.239	-41.64
194.458	13.65
194.678	32.08
194.897	89.43
195.116	-2.73
195.335	-29.35
195.555	-15.02
195.774	21.85
195.993	75.09
196.212	58.71
196.432	-0.68
196.651	46.42
196.87	7.51
197.089	46.42
197.308	-37.55
197.528	58.71
197.747	73.04
197.966	75.09
198.185	3.41
198.404	40.28
198.623	83.28
198.842	101.72
199.062	34.13
199.281	11.61
199.5	-33.45
199.719	-2.73
199.938	-43.69
200.157	-2.73
200.376	32.08
200.595	23.89
200.814	44.37
201.033	19.8
201.252	-19.11
201.471	89.43
201.69	25.94
201.909	36.18
202.128	-15.02
202.347	50.52
202.566	-45.74
202.785	3.41
203.004	-21.16
203.223	152.91
203.442	1.37
203.661	32.08
203.879	73.04
204.098	11.61
204.317	-60.07
204.536	60.76
204.755	46.42
204.974	93.52
205.193	42.32
205.411	97.62
205.63	-23.21
205.849	17.75
206.068	52.56
206.287	54.61
206.505	7.51
206.724	11.61
206.943	3.41
207.162	19.8
207.381	48.47
207.599	-12.97
207.818	30.04
208.037	1.37
208.255	40.28
208.474	-58.03
208.693	13.65
208.911	83.28
209.13	56.66
209.349	30.04
209.567	7.51
209.786	30.04
210.005	-72.36
210.223	85.33
210.442	-15.02
210.661	9.56
210.879	-39.59
211.098	42.32
211.316	-2.73
211.535	101.72
211.753	1.37
211.972	19.8
212.191	19.8
212.409	1.37
212.628	-8.87
212.846	-15.02
213.065	-23.21
213.283	66.9
213.502	34.13
213.72	5.46
213.938	97.62
214.157	54.61
214.375	40.28
214.594	52.56
214.812	17.75
215.031	5.46
215.249	58.71
215.467	46.42
215.686	21.85
215.904	34.13
216.122	66.9
216.341	-82.6
216.559	3.41
216.778	38.23
216.996	3.41
217.214	5.46
217.432	48.47
217.651	95.57
217.869	52.56
218.087	25.94
218.306	-8.87
218.524	48.47
218.742	11.61
218.96	71
219.179	7.51
219.397	-21.16
219.615	-6.83
219.833	52.56
220.051	-10.92
220.27	66.9
220.488	5.46
220.706	5.46
220.924	62.8
221.142	30.04
221.36	77.14
221.578	32.08
221.796	-21.16
222.015	116.05
222.233	15.7
222.451	58.71
222.669	-51.88
222.887	5.46
223.105	-35.5
223.323	23.89
223.541	9.56
223.759	27.99
223.977	58.71
224.195	3.41
224.413	68.95
224.631	32.08
224.849	56.66
225.067	-19.11
225.285	54.61
225.503	1.37
225.721	-39.59
225.939	-21.16
226.157	54.61
226.375	85.33
226.592	7.51
226.81	36.18
227.028	60.76
227.246	-78.51
227.464	-33.45
227.682	17.75
227.9	64.85
228.117	21.85
228.335	38.23
228.553	66.9
228.771	11.61
228.989	64.85
229.206	32.08
229.424	77.14
229.642	19.8
229.86	56.66
230.077	13.65
230.295	111.96
230.513	68.95
230.731	-78.51
230.948	32.08
231.166	103.76
231.384	-64.17
231.601	114
231.819	7.51
232.037	-31.4
232.254	73.04
232.472	60.76
232.689	-62.12
232.907	-10.92
233.125	-10.92
233.342	11.61
233.56	81.24
233.777	32.08
233.995	38.23
234.213	30.04
234.43	75.09
234.648	7.51
234.865	7.51
235.083	11.61
235.3	56.66
235.518	46.42
235.735	-10.92
235.953	30.04
236.17	-10.92
236.388	44.37
236.605	-53.93
236.822	93.52
237.04	52.56
237.257	13.65
237.475	66.9
237.692	36.18
237.909	7.51
238.127	25.94
238.344	62.8
238.562	109.91
238.779	-12.97
238.996	-17.07
239.214	-2.73
239.431	83.28
239.648	-23.21
239.865	-23.21
240.083	34.13
240.3	-21.16
240.517	56.66
240.735	-45.74
240.952	27.99
241.169	17.75
241.386	27.99
241.603	79.19
241.821	5.46
242.038	46.42
242.255	-19.11
242.472	68.95
242.689	17.75
242.907	30.04
243.124	-2.73
243.341	3.41
243.558	19.8
243.775	-2.73
243.992	21.85
244.209	-25.26
244.426	17.75
244.643	107.86
244.86	15.7
245.078	27.99
245.295	32.08
245.512	5.46
245.729	50.52
245.946	-17.07
246.163	-41.64
246.38	58.71
246.597	-27.31
246.814	17.75
247.031	21.85
247.248	58.71
247.464	58.71
247.681	109.91
247.898	36.18
248.115	30.04
248.332	-10.92
248.549	52.56
248.766	85.33
248.983	-55.98
249.2	-27.31
249.417	-43.69
249.633	-39.59
249.85	5.46
250.067	-0.68
250.284	-33.45
250.501	19.8
250.717	15.7
250.934	25.94
251.151	64.85
251.368	-31.4
251.585	-39.59
251.801	30.04
252.018	52.56
252.235	25.94
252.451	32.08
252.668	11.61
252.885	-76.46
253.102	36.18
253.318	15.7
253.535	-27.31
253.752	9.56
253.968	1.37
254.185	-33.45
254.401	-55.98
254.618	23.89
254.835	32.08
255.051	-12.97
255.268	-39.59
255.484	120.15
255.701	34.13
255.917	79.19
256.134	56.66
256.351	81.24
256.567	-8.87
256.784	1.37
257	5.46
257.217	-10.92
257.433	101.72
257.65	13.65
257.866	7.51
258.082	52.56
258.299	34.13
258.515	-27.31
258.732	-17.07
258.948	81.24
259.165	75.09
259.381	19.8
259.597	-2.73
259.814	3.41
260.03	68.95
260.246	62.8
260.463	-0.68
260.679	-21.16
260.895	44.37
261.112	-35.5
261.328	-25.26
261.544	-2.73
261.761	9.56
261.977	60.76
262.193	54.61
262.409	27.99
262.626	44.37
262.842	9.56
263.058	-49.83
263.274	50.52
263.49	-21.16
263.707	3.41
263.923	3.41
264.139	-15.02
264.355	79.19
264.571	-41.64
264.787	32.08
265.004	-58.03
265.22	19.8
265.436	-27.31
265.652	13.65
265.868	95.57
266.084	-43.69
266.3	7.51
266.516	-21.16
266.732	34.13
266.948	75.09
267.164	40.28
267.38	25.94
267.596	17.75
267.812	71
268.028	-45.74
268.244	-0.68
268.46	32.08
268.676	52.56
268.892	7.51
269.108	-0.68
269.324	-23.21
269.54	-4.78
269.756	17.75
269.972	3.41
270.188	126.29
270.403	-6.83
270.619	79.19
270.835	-10.92
271.051	75.09
271.267	38.23
271.483	38.23
271.698	-31.4
271.914	66.9
272.13	-4.78
272.346	-29.35
272.562	15.7
272.777	-23.21
272.993	50.52
273.209	48.47
273.425	-4.78
273.64	-0.68
273.856	17.75
274.072	36.18
274.287	11.61
274.503	62.8
274.719	79.19
274.934	75.09
275.15	42.32
275.366	19.8
275.581	-43.69
275.797	-53.93
276.012	13.65
276.228	-0.68
276.444	-12.97
276.659	44.37
276.875	9.56
277.09	75.09
277.306	-19.11
277.521	36.18
277.737	21.85
277.952	50.52
278.168	-17.07
278.383	27.99
278.599	-6.83
278.814	13.65
279.03	3.41
279.245	64.85
279.461	46.42
279.676	85.33
279.892	5.46
280.107	-21.16
280.322	-19.11
280.538	42.32
280.753	9.56
280.969	64.85
281.184	21.85
281.399	52.56
281.615	44.37
281.83	-31.4
282.045	-12.97
282.26	1.37
282.476	15.7
282.691	-12.97
282.906	44.37
283.122	79.19
283.337	23.89
283.552	-12.97
283.767	7.51
283.983	50.52
284.198	30.04
284.413	52.56
284.628	-2.73
284.843	-12.97
285.058	11.61
285.274	-2.73
285.489	-19.11
285.704	52.56
285.919	9.56
286.134	-2.73
286.349	-49.83
286.564	-6.83
286.779	27.99
286.995	50.52
287.21	-31.4
287.425	17.75
287.64	17.75
287.855	58.71
288.07	36.18
288.285	-25.26
288.5	32.08
288.715	-29.35
288.93	-39.59
289.145	58.71
289.36	32.08
289.575	-19.11
289.79	111.96
290.004	-17.07
290.219	21.85
290.434	-0.68
290.649	-37.55
290.864	48.47
291.079	-33.45
291.294	-19.11
291.509	-27.31
291.724	-27.31
291.938	58.71
292.153	54.61
292.368	75.09
292.583	-19.11
292.798	-23.21
293.012	101.72
293.227	23.89
293.442	11.61
293.657	54.61
293.871	-15.02
294.086	52.56
294.301	36.18
294.516	-4.78
294.73	23.89
294.945	-0.68
295.16	54.61
295.374	42.32
295.589	21.85
295.804	-21.16
296.018	79.19
296.233	13.65
296.447	9.56
296.662	81.24
296.877	11.61
297.091	-21.16
297.306	-2.73
297.52	38.23
297.735	13.65
297.949	-12.97
298.164	36.18
298.378	60.76
298.593	-21.16
298.807	7.51
299.022	23.89
299.236	-15.02
299.451	-2.73
299.665	15.7
299.88	32.08
300.094	19.8
300.309	34.13
300.523	58.71
300.737	77.14
300.952	13.65
301.166	-37.55
301.381	25.94
301.595	36.18
301.809	1.37
302.024	-4.78
302.238	23.89
302.452	1.37
302.667	17.75
302.881	54.61
303.095	-27.31
303.309	30.04
303.524	-27.31
303.738	21.85
303.952	-31.4
304.166	25.94
304.381	-76.46
304.595	36.18
304.809	-27.31
305.023	48.47
305.237	21.85
305.452	5.46
305.666	13.65
305.88	48.47
306.094	30.04
306.308	56.66
306.522	64.85
306.736	48.47
306.95	23.89
307.164	-10.92
307.379	62.8
307.593	40.28
307.807	5.46
308.021	27.99
308.235	40.28
308.449	44.37
308.663	7.51
308.877	-12.97
309.091	13.65
309.305	23.89
309.519	-19.11
309.733	46.42
309.947	-49.83
310.161	36.18
310.374	-8.87
310.588	58.71
310.802	40.28
311.016	64.85
311.23	-6.83
311.444	-47.79
311.658	3.41
311.872	42.32
312.085	89.43
312.299	-33.45
312.513	71
312.727	101.72
312.941	21.85
313.154	52.56
313.368	54.61
313.582	48.47
313.796	-17.07
314.009	36.18
314.223	30.04
314.437	44.37
314.651	83.28
314.864	60.76
315.078	9.56
315.292	93.52
315.505	1.37
315.719	-21.16
315.933	50.52
316.146	13.65
316.36	71
316.573	19.8
316.787	-53.93
317.001	25.94
317.214	71
317.428	48.47
317.641	30.04
317.855	60.76
318.068	34.13
318.282	30.04
318.495	36.18
318.709	27.99
318.922	-2.73
319.136	91.48
319.349	-8.87
319.563	11.61
319.776	38.23
319.99	3.41
320.203	93.52
320.417	-4.78
320.63	38.23
320.843	122.2
321.057	-8.87
321.27	15.7
321.483	30.04
321.697	23.89
321.91	-8.87
322.124	13.65
322.337	-19.11
322.55	48.47
322.763	107.86
322.977	36.18
323.19	9.56
323.403	60.76
323.617	-10.92
323.83	15.7
324.043	32.08
324.256	15.7
324.469	11.61
324.683	71
324.896	3.41
325.109	42.32
325.322	50.52
325.535	52.56
325.748	64.85
325.962	73.04
326.175	48.47
326.388	-12.97
326.601	54.61
326.814	64.85
327.027	-31.4
327.24	93.52
327.453	-41.64
327.666	95.57
327.879	48.47
328.092	101.72
328.305	-31.4
328.518	46.42
328.731	-25.26
328.944	85.33
329.157	30.04
329.37	13.65
329.583	87.38
329.796	56.66
330.009	44.37
330.222	-10.92
330.435	7.51
330.648	36.18
330.861	-74.41
331.073	15.7
331.286	40.28
331.499	17.75
331.712	-19.11
331.925	73.04
332.138	-43.69
332.35	79.19
332.563	87.38
332.776	44.37
332.989	109.91
333.202	3.41
333.414	19.8
333.627	23.89
333.84	-29.35
334.053	87.38
334.265	-10.92
334.478	32.08
334.691	85.33
334.903	-2.73
335.116	73.04
335.329	-12.97
335.541	-21.16
335.754	17.75
335.966	-47.79
336.179	27.99
336.392	3.41
336.604	48.47
336.817	17.75
337.029	56.66
337.242	-29.35
337.454	75.09
337.667	-15.02
337.88	5.46
338.092	-0.68
338.305	-4.78
338.517	-31.4
338.729	42.32
338.942	93.52
339.154	46.42
339.367	-17.07
339.579	17.75
339.792	50.52
340.004	11.61
340.217	58.71
340.429	5.46
340.641	19.8
340.854	25.94
341.066	36.18
341.278	62.8
341.491	15.7
341.703	46.42
341.915	77.14
342.128	27.99
342.34	66.9
342.552	114
342.764	34.13
342.977	-17.07
343.189	-37.55
343.401	1.37
343.613	32.08
343.826	34.13
344.038	60.76
344.25	46.42
344.462	40.28
344.674	71
344.886	64.85
345.099	-4.78
345.311	103.76
345.523	93.52
345.735	5.46
345.947	44.37
346.159	1.37
346.371	54.61
346.583	-2.73
346.795	5.46
347.007	-62.12
347.219	62.8
347.431	9.56
347.643	97.62
347.855	23.89
348.067	44.37
348.279	36.18
348.491	30.04
348.703	38.23
348.915	40.28
349.127	-17.07
349.339	40.28
349.551	66.9
349.763	13.65
349.975	-6.83
350.187	68.95
350.399	19.8
350.61	11.61
350.822	-41.64
351.034	40.28
351.246	27.99
351.458	73.04
351.669	25.94
351.881	21.85
352.093	-15.02
352.305	36.18
352.517	56.66
352.728	21.85
352.94	-53.93
353.152	52.56
353.363	27.99
353.575	3.41
353.787	21.85
353.999	-8.87
354.21	50.52
354.422	27.99
354.633	19.8
354.845	60.76
355.057	11.61
355.268	50.52
355.48	11.61
355.692	44.37
355.903	40.28
356.115	101.72
356.326	5.46
356.538	60.76
356.749	-0.68
356.961	19.8
357.172	-23.21
357.384	68.95
357.595	107.86
357.807	-21.16
358.018	-37.55
358.23	11.61
358.441	73.04
358.653	40.28
358.864	-29.35
359.075	-19.11
359.287	7.51
359.498	68.95
359.709	52.56
359.921	71
360.132	3.41
360.344	-10.92
360.555	-21.16
360.766	25.94
360.977	58.71
361.189	44.37
361.4	-37.55
361.611	-12.97
361.823	13.65
362.034	46.42
362.245	23.89
362.456	-21.16
362.667	-12.97
362.879	23.89
363.09	48.47
363.301	44.37
363.512	62.8
363.723	5.46
363.935	40.28
364.146	50.52
364.357	21.85
364.568	3.41
364.779	30.04
364.99	44.37
365.201	11.61
365.412	23.89
365.623	68.95
365.834	11.61
366.045	40.28
366.256	77.14
366.467	11.61
366.678	87.38
366.889	-29.35
367.1	30.04
367.311	54.61
367.522	60.76
367.733	27.99
367.944	23.89
368.155	40.28
368.366	107.86
368.577	56.66
368.788	-21.16
368.999	27.99
369.209	60.76
369.42	17.75
369.631	-17.07
369.842	75.09
370.053	1.37
370.264	19.8
370.474	27.99
370.685	56.66
370.896	-6.83
371.107	-53.93
371.317	-2.73
371.528	-53.93
371.739	25.94
371.95	38.23
372.16	5.46
372.371	-21.16
372.582	46.42
372.792	32.08
373.003	77.14
373.214	-31.4
373.424	75.09
373.635	1.37
373.846	56.66
374.056	38.23
374.267	62.8
374.477	52.56
374.688	5.46
374.898	3.41
375.109	-2.73
375.319	48.47
375.53	36.18
375.74	36.18
375.951	87.38
376.161	130.39
376.372	66.9
376.582	-17.07
376.793	64.85
377.003	-2.73
377.214	-6.83
377.424	19.8
377.635	27.99
377.845	-62.12
378.055	60.76
378.266	-19.11
378.476	85.33
378.686	85.33
378.897	44.37
379.107	5.46
379.317	11.61
379.528	-0.68
379.738	25.94
379.948	42.32
380.158	42.32
380.369	13.65
380.579	48.47
380.789	66.9
380.999	60.76
381.21	13.65
381.42	40.28
381.63	36.18
381.84	95.57
382.05	15.7
382.261	19.8
382.471	54.61
382.681	46.42
382.891	64.85
383.101	9.56
383.311	15.7
383.521	-17.07
383.731	-4.78
383.941	66.9
384.151	64.85
384.361	9.56
384.571	54.61
384.781	-12.97
384.991	-17.07
385.201	25.94
385.411	136.53
385.621	9.56
385.831	56.66
386.041	56.66
386.251	13.65
386.461	-17.07
386.671	23.89
386.881	3.41
387.091	-25.26
387.301	32.08
387.511	38.23
387.72	99.67
387.93	66.9
388.14	44.37
388.35	17.75
388.56	27.99
388.769	48.47
388.979	-25.26
389.189	36.18
389.399	36.18
389.609	9.56
389.818	1.37
390.028	-17.07
390.238	38.23
390.447	44.37
390.657	32.08
390.867	25.94
391.076	25.94
391.286	-33.45
391.496	32.08
391.705	-41.64
391.915	42.32
392.125	48.47
392.334	23.89
392.544	54.61
392.753	-27.31
392.963	25.94
393.172	32.08
393.382	11.61
393.591	95.57
393.801	7.51
394.01	60.76
394.22	60.76
394.429	114
394.639	62.8
394.848	60.76
395.058	-2.73
395.267	77.14
395.477	27.99
395.686	101.72
395.895	140.63
396.105	27.99
396.314	30.04
396.524	36.18
396.733	32.08
396.942	36.18
397.152	48.47
397.361	48.47
397.57	116.05
397.78	23.89
397.989	34.13
398.198	27.99
398.407	66.9
398.617	60.76
398.826	118.1
399.035	114
399.244	95.57
399.453	58.71
399.663	19.8
399.872	77.14
400.081	-43.69
400.29	122.2
400.499	13.65
400.708	95.57
400.917	-37.55
401.127	62.8
401.336	13.65
401.545	85.33
401.754	-6.83
401.963	13.65
402.172	50.52
402.381	-2.73
402.59	48.47
402.799	62.8
403.008	30.04
403.217	46.42
403.426	58.71
403.635	103.76
403.844	30.04
404.053	60.76
404.262	17.75
404.471	77.14
404.68	66.9
404.888	77.14
405.097	77.14
405.306	-21.16
405.515	77.14
405.724	97.62
405.933	109.91
406.142	103.76
406.35	124.24
406.559	111.96
406.768	36.18
406.977	128.34
407.185	21.85
407.394	126.29
407.603	132.44
407.812	109.91
408.02	128.34
408.229	169.3
408.438	132.44
408.646	140.63
408.855	23.89
409.064	181.59
409.272	71
409.481	173.39
409.69	161.11
409.898	146.77
410.107	83.28
410.315	222.55
410.524	185.68
410.733	177.49
410.941	218.45
411.15	208.21
411.358	89.43
411.567	265.55
411.775	140.63
411.984	200.02
412.192	218.45
412.401	212.31
412.609	212.31
412.818	253.27
413.026	228.69
413.234	138.58
413.443	183.63
413.651	183.63
413.86	281.94
414.068	273.75
414.276	273.75
414.485	304.46
414.693	314.7
414.901	329.04
415.11	259.41
415.318	292.18
415.526	343.38
415.734	365.9
415.943	363.86
416.151	374.1
416.359	365.9
416.567	404.82
416.776	343.38
416.984	421.2
417.192	466.25
417.4	421.2
417.608	439.63
417.817	347.47
418.025	537.93
418.233	515.41
418.441	519.5
418.649	482.64
418.857	613.71
419.065	607.56
419.273	564.56
419.481	623.95
419.689	642.38
419.897	636.24
420.105	617.8
420.313	666.96
420.521	709.96
420.729	677.19
420.937	765.26
421.145	849.22
421.353	824.65
421.561	867.66
421.769	836.94
421.977	908.62
422.185	894.28
422.393	996.68
422.601	1092.93
422.809	945.48
423.017	978.25
423.224	1027.4
423.432	1109.32
423.64	1137.99
423.848	1226.05
424.056	1154.37
424.263	1295.68
424.471	1217.86
424.679	1277.25
424.887	1408.32
425.094	1361.22
425.302	1398.08
425.51	1422.66
425.718	1551.68
425.925	1590.59
426.133	1502.53
426.341	1635.64
426.548	1750.33
426.756	1711.42
426.964	1795.39
427.171	1916.22
427.379	1883.45
427.586	1873.21
427.794	1985.85
428.001	2057.53
428.209	2145.59
428.417	2168.12
428.624	2284.85
428.832	2284.85
429.039	2233.65
429.247	2379.06
429.454	2657.58
429.662	2622.77
429.869	2495.79
430.076	2692.4
430.284	2542.89
430.491	2688.3
430.699	2868.52
430.906	2944.3
431.114	2954.54
431.321	3151.14
431.528	2962.73
431.736	3294.5
431.943	3304.74
432.15	3329.31
432.358	3407.14
432.565	3620.13
432.772	3595.55
432.979	3759.39
433.187	3747.1
433.394	3929.37
433.601	3978.52
433.808	4232.47
434.016	4048.15
434.223	4058.39
434.43	4351.25
434.637	4498.7
434.844	4613.39
435.052	4785.42
435.259	4590.86
435.466	4701.45
435.673	4640.01
435.88	5035.27
436.087	5246.21
436.294	5274.88
436.501	5117.19
436.708	5307.65
436.915	5430.53
437.122	5780.73
437.329	5635.33
437.537	5870.84
437.743	5991.67
437.95	5932.28
438.157	6219
438.364	6431.99
438.571	6153.46
438.778	6448.37
438.985	7062.76
439.192	6804.72
439.399	7019.75
439.606	6767.85
439.813	7333.09
440.02	7660.77
440.227	7423.2
440.433	7412.96
440.64	7769.31
440.847	7544.03
441.054	7693.54
441.261	8256.73
441.467	8269.02
441.674	8250.58
441.881	8660.18
442.088	8651.99
442.294	8879.31
442.501	8883.41
442.708	9073.87
442.914	9344.2
443.121	9772.22
443.328	9510.08
443.534	10122.43
443.741	10005.69
443.948	9725.12
444.154	10472.63
444.361	10632.37
444.568	10482.87
444.774	10583.22
444.981	10790.06
445.187	11150.51
445.394	11435.17
445.6	11261.1
445.807	12280.99
446.013	11916.45
446.22	11979.93
446.426	12534.93
446.633	12582.04
446.839	13159.56
447.046	12659.86
447.252	13470.86
447.459	13212.81
447.665	13184.14
447.871	13921.41
448.078	14523.51
448.284	13823.11
448.491	14050.43
448.697	14955.63
448.903	15201.39
449.11	15174.77
449.316	14799.99
449.522	15084.66
449.728	15555.69
449.935	15584.36
450.141	15922.27
450.347	16100.45
450.553	15584.36
450.76	15793.25
450.966	15942.75
451.172	16235.61
451.378	16770.13
451.584	16000.1
451.791	16598.1
451.997	16536.66
452.203	16882.77
452.409	16780.37
452.615	16778.33
452.821	16053.34
453.027	16016.48
453.233	16686.17
453.44	16493.66
453.646	16297.05
453.852	16288.86
454.058	16743.51
454.264	15983.71
454.47	16571.48
454.676	16065.63
454.882	16647.26
455.088	15295.6
455.294	15426.67
455.5	15533.16
455.705	15731.81
455.911	15373.42
456.117	14912.63
456.323	14953.59
456.529	13798.53
456.735	14560.38
456.941	14148.73
457.147	13812.87
457.352	13646.98
457.558	13362.31
457.764	13286.54
457.97	13223.05
458.176	12844.18
458.381	12825.75
458.587	12319.9
458.793	12242.07
458.999	11506.85
459.204	12336.28
459.41	12018.85
459.616	11392.17
459.821	11087.02
460.027	11115.69
460.233	10845.36
460.438	10489.01
460.644	10382.52
460.85	9934.01
461.055	9872.57
461.261	9950.4
461.466	9198.79
461.672	8920.27
461.878	9544.9
462.083	8883.41
462.289	8785.1
462.494	8762.58
462.7	8269.02
462.905	8086.75
463.111	8492.24
463.316	8432.85
463.522	8004.83
463.727	8291.54
463.932	8113.37
464.138	8142.04
464.343	8076.51
464.549	7898.33
464.754	8099.03
464.959	8234.2
465.165	8049.88
465.37	7709.92
465.575	7322.85
465.781	7984.35
465.986	7720.16
466.191	7458.02
466.397	7460.07
466.602	7025.9
466.807	7513.31
467.012	7318.76
467.218	7511.27
467.423	7376.1
467.628	7253.22
467.833	7634.14
468.038	7296.23
468.244	6948.08
468.449	7290.09
468.654	7212.26
468.859	7042.28
469.064	7089.39
469.269	6896.88
469.474	6653.17
469.679	6933.74
469.885	6753.52
470.09	6898.92
470.295	6827.25
470.5	6497.52
470.705	6737.13
470.91	6499.57
471.115	6530.29
471.32	6518
471.525	6554.87
471.73	6421.75
471.935	6382.84
472.139	6216.95
472.344	6233.33
472.549	6251.77
472.754	6044.92
472.959	5995.77
473.164	6063.35
473.369	5821.69
473.574	5803.26
473.778	5919.99
473.983	5776.64
474.188	5958.91
474.393	5592.32
474.598	5541.12
474.802	5528.83
475.007	5362.95
475.212	5657.85
475.417	5319.94
475.621	5434.63
475.826	5328.13
476.031	5199.11
476.235	5252.36
476.44	5195.01
476.645	4943.11
476.849	5254.41
477.054	5049.61
477.259	4994.31
477.463	5039.37
477.668	4877.58
477.872	5016.84
478.077	4977.93
478.282	4637.97
478.486	4662.54
478.691	4529.42
478.895	4590.86
479.1	4519.18
479.304	4707.6
479.509	4447.51
479.713	4537.62
479.918	4496.66
480.122	4467.99
480.326	4424.98
480.531	4484.37
480.735	4386.07
480.94	4357.39
481.144	4338.96
481.348	4189.46
481.553	4377.87
481.757	4275.48
481.961	4406.55
482.166	4298
482.37	4220.18
482.574	4279.57
482.778	4324.63
482.983	4429.07
483.187	4240.66
483.391	4345.11
483.595	4312.34
483.8	4191.51
484.004	4263.19
484.208	4345.11
484.412	4144.41
484.616	4181.27
484.821	4267.28
485.025	4246.8
485.229	4191.51
485.433	4255
485.637	4216.09
485.841	4261.14
486.045	4281.62
486.249	4326.68
486.453	4146.45
486.657	4300.05
486.861	4439.31
487.065	4226.32
487.269	4226.32
487.473	4197.65
487.677	4191.51
487.881	4355.35
488.085	4205.85
488.289	4304.15
488.493	4308.24
488.697	4412.69
488.901	4402.45
489.105	4410.64
489.309	4269.33
489.512	4394.26
489.716	4361.49
489.92	4234.52
490.124	4263.19
490.328	4435.22
490.531	4361.49
490.735	4490.51
490.939	4336.92
491.143	4304.15
491.346	4508.94
491.55	4496.66
491.754	4513.04
491.958	4597.01
492.161	4375.83
492.365	4658.45
492.569	4525.33
492.772	4455.7
492.976	4644.11
493.18	4523.28
493.383	4660.49
493.587	4693.26
493.79	4642.06
493.994	4762.89
494.197	4633.87
494.401	4750.6
494.605	4775.18
494.808	4853
495.012	4859.15
495.215	4814.09
495.419	4795.66
495.622	4896.01
495.825	4906.25
496.029	5090.57
496.232	5078.28
496.436	5119.24
496.639	5235.97
496.843	5209.35
497.046	5276.93
497.249	5319.94
497.453	5332.23
497.656	5440.77
497.859	5514.5
498.063	5569.79
498.266	5764.35
498.469	5686.53
498.673	5528.83
498.876	5887.23
499.079	5799.16
499.282	5944.57
499.485	5922.04
499.689	6094.07
499.892	6010.11
500.095	6089.98
500.298	6558.96
500.501	6302.97
500.705	6411.51
500.908	6522.1
501.111	6417.65
501.314	6632.69
501.517	6739.18
501.72	6872.3
501.923	6935.79
502.126	6954.22
502.329	6948.08
502.532	7097.58
502.735	7230.69
502.938	7331.05
503.141	7486.69
503.344	7501.03
503.547	7255.27
503.75	7541.99
503.953	7804.13
504.156	7822.56
504.359	7900.38
504.562	7742.69
504.765	7988.44
504.968	8115.42
505.17	8490.2
505.373	8232.15
505.576	8320.21
505.779	8531.16
505.982	8512.72
506.185	8821.97
506.387	8582.35
506.59	8912.08
506.793	8834.25
506.996	9110.73
507.198	9243.85
507.401	9112.78
507.604	9237.7
507.807	9495.75
508.009	9663.68
508.212	9604.29
508.415	9745.6
508.617	9919.68
508.82	9866.43
509.022	9827.52
509.225	10099.9
509.428	10337.46
509.63	10423.48
509.833	10181.82
510.035	10577.08
510.238	10577.08
510.44	10695.86
510.643	10949.81
510.845	10867.89
511.048	10978.48
511.25	11203.75
511.453	11275.43
511.655	11785.38
511.858	11560.1
512.06	11742.37
512.262	11906.21
512.465	11660.45
512.667	11846.82
512.87	12233.88
513.072	11959.45
513.274	12551.32
513.477	12424.34
513.679	12663.96
513.881	12901.52
514.084	13026.45
514.286	13042.83
514.488	13057.17
514.69	13687.94
514.893	13255.82
515.095	13345.93
515.297	13534.34
515.499	13780.1
515.701	13864.07
515.904	14023.81
516.106	14040.19
516.308	14148.73
516.51	14214.27
516.712	14439.54
516.914	14742.64
517.116	15051.89
517.318	14912.63
517.52	15033.46
517.722	15137.9
517.925	15205.49
518.127	15266.92
518.329	15441
518.531	15481.96
518.733	15914.08
518.935	15731.81
519.136	15952.99
519.338	16008.29
519.54	16274.52
519.742	16376.92
519.944	16485.47
520.146	16671.83
520.348	16890.96
520.55	16917.59
520.752	16974.93
520.954	17101.9
521.155	17079.38
521.357	17405
521.559	17687.62
521.761	17876.04
521.963	17726.53
522.164	17730.63
522.366	17779.78
522.568	18181.18
522.77	18072.64
522.971	18562.11
523.173	18275.39
523.375	18541.63
523.576	18570.3
523.778	18601.02
523.98	18807.86
524.181	18713.66
524.383	18906.16
524.584	19129.39
524.786	19225.65
524.988	19229.74
525.189	19340.33
525.391	19287.09
525.592	19711.02
525.794	19764.26
525.995	19657.77
526.197	19817.51
526.398	19737.64
526.6	20057.12
526.801	20130.85
527.003	20040.74
527.204	20175.91
527.406	20030.5
527.607	20376.61
527.808	20147.23
528.01	20180
528.211	20442.14
528.412	20687.9
528.614	20444.19
528.815	20782.1
529.016	20892.69
529.218	20616.22
529.419	20589.6
529.62	20839.45
529.822	20575.26
530.023	20487.2
530.224	20597.79
530.425	20747.29
530.626	20507.68
530.828	20966.42
531.029	21156.88
531.23	20790.3
531.431	21027.86
531.632	20870.17
531.833	21396.49
532.035	21203.99
532.236	20792.34
532.437	21640.2
532.638	21175.31
532.839	21416.97
533.04	21341.2
533.241	21177.36
533.442	21548.04
533.643	21335.06
533.844	21445.65
534.045	21136.4
534.246	21036.05
534.447	21541.9
534.648	20970.52
534.849	21251.09
535.05	20984.85
535.251	21459.98
535.451	21449.74
535.652	21419.02
535.853	21259.28
536.054	21380.11
536.255	21529.61
536.456	21134.35
536.657	21523.47
536.857	21287.95
537.058	21060.63
537.259	21412.88
537.46	21251.09
537.66	21386.25
537.861	21715.98
538.062	21257.23
538.263	21249.04
538.463	21191.7
538.664	21326.86
538.865	21115.92
539.065	21593.1
539.266	21085.2
539.466	21466.13
539.667	21359.63
539.868	21435.41
540.068	21036.05
540.269	21214.23
540.469	21400.59
540.67	21009.43
540.87	21238.8
541.071	21193.75
541.271	21404.69
541.472	21386.25
541.672	21394.45
541.873	21138.45
542.073	20753.43
542.274	21636.11
542.474	21165.07
542.675	21126.16
542.875	21396.49
543.075	21187.6
543.276	21005.33
543.476	21261.33
543.676	21095.44
543.877	21150.74
544.077	21005.33
544.277	21029.91
544.478	21107.73
544.678	21064.72
544.878	21093.4
545.078	21203.99
545.279	20964.37
545.479	20978.71
545.679	20939.8
545.879	21156.88
546.079	21152.79
546.28	20970.52
546.48	20929.56
546.68	21179.41
546.88	21064.72
547.08	21234.71
547.28	21249.04
547.48	20876.31
547.68	21582.86
547.88	20548.64
548.081	21062.68
548.281	20780.06
548.481	20927.51
548.681	20972.57
548.881	20966.42
549.081	21165.07
549.28	20691.99
549.48	21042.2
549.68	21085.2
549.88	21281.81
550.08	20921.37
550.28	21216.27
550.48	20728.86
550.68	20894.74
550.88	20941.85
551.08	20968.47
551.279	20868.12
551.479	20694.04
551.679	20997.14
551.879	20859.93
552.079	20853.78
552.278	20821.02
552.478	20890.65
552.678	20894.74
552.878	20845.59
553.077	20634.65
553.277	20698.14
553.477	20794.39
553.676	20685.85
553.876	20798.49
554.076	20636.7
554.275	20919.32
554.475	20517.92
554.674	20671.51
554.874	20653.08
555.074	20704.28
555.273	20937.75
555.473	20849.69
555.672	20722.71
555.872	20679.71
556.071	20595.74
556.271	20522.01
556.47	20589.6
556.67	20335.65
556.869	20352.03
557.068	20667.42
557.268	20364.32
557.467	20749.34
557.667	20442.14
557.866	20397.09
558.065	20685.85
558.265	20153.38
558.464	20116.51
558.663	20409.37
558.863	20108.32
559.062	20534.3
559.261	19938.34
559.461	20227.1
559.66	20050.98
559.859	20247.58
560.058	20100.13
560.258	20163.62
560.457	19964.96
560.656	20081.7
560.855	20210.72
561.054	20180
561.253	19967.01
561.453	20231.2
561.652	19911.72
561.851	20073.51
562.05	20059.17
562.249	19819.56
562.448	19706.92
562.647	19817.51
562.846	19842.09
563.045	19983.4
563.244	19754.02
563.443	19743.78
563.642	19559.47
563.841	19657.77
564.04	19805.22
564.239	19917.86
564.438	19534.89
564.637	19668.01
564.836	19721.26
565.035	19309.61
565.234	19641.39
565.432	19463.21
565.631	19424.3
565.83	19440.68
566.029	19274.8
566.228	19092.53
566.427	19434.54
566.625	19434.54
566.824	19199.02
567.023	19313.71
567.222	18822.2
567.42	19078.19
567.619	18861.11
567.818	19156.02
568.016	19219.5
568.215	19289.13
568.414	18797.62
568.612	19186.74
568.811	18981.94
569.01	18617.4
569.208	18580.54
569.407	18940.98
569.605	18619.45
569.804	18803.77
570.002	18613.31
570.201	18678.84
570.4	18463.8
570.598	18529.34
570.797	18500.67
570.995	18570.3
571.193	18426.94
571.392	18521.15
571.59	18349.12
571.789	18558.01
571.987	18469.95
572.186	18306.11
572.384	18140.22
572.582	18320.45
572.781	18324.54
572.979	18041.92
573.177	18252.86
573.376	18035.78
573.574	17859.65
573.772	18252.86
573.971	17871.94
574.169	17847.36
574.367	17765.45
574.565	17896.52
574.763	17591.37
574.962	17617.99
575.16	17468.49
575.358	17620.04
575.556	17298.51
575.754	17718.34
575.952	17370.19
576.151	17568.84
576.349	17495.11
576.547	17337.42
576.745	17022.03
576.943	17554.51
577.141	17185.87
577.339	17120.34
577.537	17112.14
577.735	17292.37
577.933	16927.83
578.131	17058.9
578.329	16862.29
578.527	16731.22
578.725	17003.6
578.923	17067.09
579.121	16950.35
579.319	16686.17
579.516	16862.29
579.714	16966.74
579.912	16829.52
580.11	16546.9
580.308	16718.93
580.506	16583.77
580.704	16350.3
580.901	16544.86
581.099	16481.37
581.297	16266.33
581.495	16317.53
581.692	16391.26
581.89	16295
582.088	16301.15
582.285	15893.6
582.483	16360.54
582.681	16159.84
582.878	16039.01
583.076	15805.54
583.274	15991.91
583.471	15703.14
583.669	15846.5
583.866	15783.01
584.064	15709.29
584.262	15770.72
584.459	15936.61
584.657	15567.98
584.854	15850.6
585.052	15416.43
585.249	15576.17
585.447	15658.09
585.644	15342.7
585.841	15520.87
586.039	15608.94
586.236	15299.69
586.434	15340.65
586.631	15158.38
586.828	15176.81
587.026	15268.97
587.223	15070.32
587.42	15236.2
587.618	15258.73
587.815	14859.38
588.012	14974.06
588.21	14756.98
588.407	15146.09
588.604	14765.17
588.801	14728.31
588.999	14769.27
589.196	14642.29
589.393	14668.92
589.59	14533.75
589.787	14505.08
589.984	14638.2
590.182	14326.91
590.379	14670.97
590.576	14468.22
590.773	14529.66
590.97	14161.02
591.167	14437.5
591.364	14314.62
591.561	14179.45
591.758	13962.37
591.955	14109.82
592.152	14210.17
592.349	14081.15
592.546	14183.55
592.743	13866.11
592.94	13837.44
593.137	13778.05
593.334	14079.1
593.531	13829.25
593.727	13835.39
593.924	13956.22
594.121	13546.63
594.318	13579.4
594.515	13640.84
594.712	13905.03
594.908	13433.99
595.105	13651.08
595.302	13409.42
595.499	13352.07
595.696	13589.64
595.892	13417.61
596.089	13431.94
596.286	13272.2
596.482	13227.15
596.679	13288.59
596.876	13354.12
597.072	13192.33
597.269	13360.27
597.466	12926.1
597.662	13122.7
597.859	12803.22
598.055	12926.1
598.252	12645.52
598.448	13036.69
598.645	12770.45
598.841	12659.86
599.038	12768.4
599.234	12854.42
599.431	12670.1
599.627	12688.53
599.824	12569.75
600.02	12489.88
600.217	12491.93
600.413	12487.83
600.609	12657.81
600.806	12473.49
601.002	12303.51
601.198	12309.66
601.395	12463.26
601.591	12301.47
601.787	12473.49
601.984	12125.34
602.18	12215.45
602.376	11945.12
602.572	12047.52
602.769	12029.09
602.965	11869.34
603.161	11986.08
603.357	11705.51
603.553	12031.13
603.75	11947.17
603.946	11863.2
604.142	12010.65
604.338	11953.31
604.534	11814.05
604.73	11615.4
604.926	11605.16
605.122	11713.7
605.318	11406.5
605.514	11453.61
605.71	11623.59
605.906	11422.89
606.102	11504.81
606.298	11351.21
606.494	11396.26
606.69	11369.64
606.886	11482.28
607.082	11134.12
607.278	11349.16
607.474	11242.67
607.67	11234.47
607.866	11232.43
608.062	11314.34
608.257	11058.35
608.453	11394.22
608.649	11127.98
608.845	11322.54
609.041	11148.46
609.236	11087.02
609.432	11185.32
609.628	10871.98
609.824	10984.62
610.019	10986.67
610.215	10910.89
610.411	10912.94
610.606	10783.92
610.802	10904.75
610.998	10898.61
611.193	10910.89
611.389	10867.89
611.584	10691.76
611.78	10675.38
611.976	10767.54
612.171	10773.68
612.367	10699.95
612.562	10546.36
612.758	10341.56
612.953	10419.38
613.149	10718.39
613.344	10378.42
613.539	10652.85
613.735	10521.78
613.93	10392.76
614.126	10400.95
614.321	10329.27
614.517	10333.37
614.712	10163.39
614.907	10314.94
615.103	10382.52
615.298	10296.5
615.493	10446.01
615.688	10144.95
615.884	10331.32
616.079	10233.02
616.274	10163.39
616.47	10263.74
616.665	10220.73
616.86	10144.95
617.055	10190.01
617.25	10179.77
617.445	10169.53
617.641	9866.43
617.836	10048.7
618.031	9839.81
618.226	9925.82
618.421	10017.98
618.616	9907.39
618.811	9796.8
619.006	9862.33
619.201	9639.11
619.396	9792.7
619.591	9544.9
619.786	9565.38
619.981	9440.45
620.176	9665.73
620.371	9204.94
620.566	9557.19
620.761	9635.01
620.956	9448.65
621.151	9262.28
621.346	9407.69
621.541	9252.04
621.735	9233.61
621.93	8989.9
622.125	9163.98
622.32	9018.57
622.515	9090.25
622.709	8969.42
622.904	8817.87
623.099	8826.06
623.294	8871.12
623.488	8660.18
623.683	8971.47
623.878	8699.09
624.072	8776.91
624.267	8715.47
624.462	8494.29
624.656	8701.14
624.851	8697.04
625.046	8449.24
625.24	8312.02
625.435	8443.09
625.629	8338.65
625.824	8324.31
626.018	8326.36
626.213	8045.79
626.407	8197.34
626.602	8121.56
626.796	8191.19
626.991	8109.27
627.185	7834.85
627.38	7886.04
627.574	7814.37
627.768	7804.13
627.963	7744.74
628.157	7716.06
628.352	7861.47
628.546	7707.87
628.74	7752.93
628.935	7607.52
629.129	7412.96
629.323	7400.68
629.517	7517.41
629.712	7359.72
629.906	7486.69
630.1	7290.09
630.294	7271.65
630.489	7482.6
630.683	7312.61
630.877	7156.97
631.071	7144.68
631.265	7265.51
631.459	7165.16
631.653	7216.36
631.848	7040.23
632.042	7156.97
632.236	7111.91
632.43	6888.68
632.624	6923.5
632.818	6888.68
633.012	6683.89
633.206	6769.9
633.4	6919.4
633.594	6712.56
633.788	6696.18
633.982	6700.27
634.176	6706.41
634.369	6487.28
634.563	6505.71
634.757	6522.1
634.951	6620.4
635.145	6335.73
635.339	6448.37
635.533	6280.44
635.726	6409.46
635.92	6278.39
636.114	6243.57
636.308	6278.39
636.501	6190.33
636.695	6302.97
636.889	6171.9
637.083	6126.84
637.276	6147.32
637.47	6024.44
637.664	5938.43
637.857	5989.63
638.051	5975.29
638.244	5938.43
638.438	5807.36
638.632	5979.39
638.825	5709.05
639.019	5854.46
639.212	5776.64
639.406	5831.93
639.599	5790.97
639.793	5616.9
639.986	5704.96
640.18	5668.09
640.373	5700.86
640.567	5588.22
640.76	5694.72
640.954	5352.71
641.147	5502.21
641.34	5412.1
641.534	5483.78
641.727	5311.75
641.92	5338.37
642.114	5274.88
642.307	5299.46
642.5	5149.96
642.694	5293.32
642.887	5049.61
643.08	5162.25
643.273	5192.97
643.467	5092.62
643.66	5117.19
643.853	5080.33
644.046	4977.93
644.239	5076.23
644.432	4998.41
644.626	4920.59
644.819	5057.8
645.012	4994.31
645.205	4939.02
645.398	4689.17
645.591	4869.39
645.784	4832.52
645.977	4881.67
646.17	4705.55
646.363	4754.7
646.556	4703.5
646.749	4517.14
646.942	4744.46
647.135	4539.66
647.328	4736.27
647.521	4556.05
647.714	4427.03
647.907	4601.1
648.099	4463.89
648.292	4470.03
648.485	4506.9
648.678	4502.8
648.871	4345.11
649.064	4295.96
649.256	4367.63
649.449	4265.24
649.642	4394.26
649.835	4164.89
650.027	4351.25
650.22	4160.79
650.413	4175.13
650.605	4144.41
650.798	4140.31
650.991	4193.56
651.183	4152.6
651.376	4017.43
651.568	4052.25
651.761	4019.48
651.954	3945.75
652.146	4097.3
652.339	4031.77
652.531	3962.14
652.724	3919.13
652.916	3851.55
653.109	3857.69
653.301	3861.79
653.494	3912.99
653.686	3855.64
653.879	3855.64
654.071	3839.26
654.263	3636.51
654.456	3912.99
654.648	3783.96
654.84	3728.67
655.033	3603.74
655.225	3820.83
655.417	3779.87
655.61	3702.04
655.802	3642.65
655.994	3499.3
656.186	3704.09
656.379	3628.32
656.571	3480.86
656.763	3499.3
656.955	3521.82
657.148	3366.18
657.34	3411.23
657.532	3370.27
657.724	3312.93
657.916	3271.97
658.108	3276.07
658.3	3282.21
658.492	3460.38
658.684	3392.8
658.876	3278.12
659.068	3298.59
659.26	3298.59
659.452	3323.17
659.644	3181.86
659.836	3214.63
660.028	3263.78
660.22	3175.72
660.412	3063.08
660.604	3134.76
660.796	3112.23
660.988	3034.41
661.18	3142.95
661.372	3048.74
661.563	2991.4
661.755	2864.43
661.947	3071.27
662.139	2903.34
662.331	2972.97
662.522	2778.41
662.714	3003.69
662.906	2897.19
663.097	2903.34
663.289	2757.93
663.481	2829.61
663.673	2766.12
663.864	2727.21
664.056	2817.32
664.247	2784.55
664.439	2811.18
664.631	2733.36
664.822	2817.32
665.014	2796.84
665.205	2719.02
665.397	2577.71
665.588	2641.2
665.78	2768.17
665.971	2682.16
666.163	2544.94
666.354	2637.1
666.546	2579.76
666.737	2469.17
666.929	2546.99
667.12	2620.72
667.311	2448.69
667.503	2442.54
667.694	2577.71
667.885	2487.6
668.077	2469.17
668.268	2491.7
668.459	2430.26
668.651	2438.45
668.842	2436.4
669.033	2362.67
669.224	2379.06
669.416	2473.26
669.607	2381.11
669.798	2377.01
669.989	2377.01
670.18	2356.53
670.371	2243.89
670.563	2317.62
670.754	2399.54
670.945	2374.96
671.136	2272.56
671.327	2317.62
671.518	2207.03
671.709	2293.04
671.9	2270.51
672.091	2235.7
672.282	2116.92
672.473	2260.27
672.664	2225.46
672.855	2180.4
673.046	2180.4
673.237	2172.21
673.428	2229.56
673.619	2200.88
673.809	2055.48
674	2012.47
674.191	2129.2
674.382	2196.79
674.573	2202.93
674.764	2088.25
674.954	2221.36
675.145	2127.16
675.336	2129.2
675.527	2086.2
675.717	2067.77
675.908	2030.9
676.099	1971.51
676.289	2137.4
676.48	2061.62
676.671	1989.94
676.861	1975.61
677.052	2067.77
677.243	2055.48
677.433	1987.89
677.624	1946.94
677.814	2039.09
678.005	1979.7
678.195	1963.32
678.386	1918.26
678.576	2022.71
678.767	2012.47
678.957	1987.89
679.148	1916.22
679.338	1985.85
679.529	1873.21
679.719	1901.88
679.909	1979.7
680.1	1887.54
680.29	1991.99
680.481	1905.98
680.671	1862.97
680.861	1885.5
681.052	1948.98
681.242	1707.32
681.432	1867.06
681.622	1881.4
681.813	1914.17
682.003	1961.27
682.193	1879.35
682.383	1936.7
682.573	2002.23
682.764	1912.12
682.954	1873.21
683.144	1953.08
683.334	1805.63
683.524	1828.15
683.714	1910.07
683.904	1711.42
684.094	1813.82
684.284	1854.78
684.474	1785.15
684.664	1844.54
684.854	1705.28
685.044	1813.82
685.234	1781.05
685.424	1875.26
685.614	1764.67
685.804	1932.6
685.994	1762.62
686.184	1740.09
686.374	1795.39
686.564	1834.3
686.753	1832.25
686.943	1809.72
687.133	1697.08
687.323	1830.2
687.513	1809.72
687.702	1717.56
687.892	1754.43
688.082	1666.36
688.272	1795.39
688.461	1803.58
688.651	1688.89
688.841	1703.23
689.03	1721.66
689.22	1731.9
689.41	1709.37
689.599	1785.15
689.789	1686.84
689.979	1701.18
690.168	1760.57
690.358	1703.23
690.547	1774.91
690.737	1645.88
690.926	1662.27
691.116	1604.92
691.305	1629.5
691.495	1582.4
691.684	1537.34
691.874	1645.88
692.063	1666.36
692.252	1535.29
692.442	1619.26
692.631	1574.21
692.82	1590.59
693.01	1647.93
693.199	1572.16
693.388	1533.25
693.578	1568.06
693.767	1561.92
693.956	1574.21
694.146	1496.38
694.335	1514.81
694.524	1527.1
694.713	1529.15
694.902	1617.21
695.092	1494.33
695.281	1463.61
695.47	1465.66
695.659	1621.31
695.848	1500.48
696.037	1527.1
696.226	1543.49
696.415	1484.09
696.604	1570.11
696.793	1486.14
696.982	1514.81
697.171	1469.76
697.36	1561.92
697.549	1480
697.738	1457.47
697.927	1443.14
698.116	1459.52
698.305	1551.68
698.494	1408.32
698.683	1566.01
698.872	1389.89
699.061	1516.86
699.25	1441.09
699.438	1418.56
699.627	1391.94
699.816	1484.09
700.005	1445.18
700.193	1402.18
700.382	1406.27
700.571	1398.08
700.76	1418.56
700.948	1465.66
701.137	1412.42
701.326	1498.43
701.514	1387.84
701.703	1367.36
701.892	1363.26
702.08	1359.17
702.269	1293.63
702.457	1348.93
702.646	1355.07
702.834	1463.61
703.023	1420.61
703.212	1314.11
703.4	1355.07
703.589	1398.08
703.777	1260.87
703.965	1375.55
704.154	1371.46
704.342	1289.54
704.531	1340.74
704.719	1375.55
704.907	1246.53
705.096	1287.49
705.284	1348.93
705.472	1322.31
705.661	1291.59
705.849	1412.42
706.037	1371.46
706.226	1185.09
706.414	1318.21
706.602	1291.59
706.79	1285.44
706.979	1191.24
707.167	1426.75
707.355	1297.73
707.543	1355.07
707.731	1381.7
707.919	1277.25
708.107	1258.82
708.296	1285.44
708.484	1316.16
708.672	1248.58
708.86	1256.77
709.048	1316.16
709.236	1232.19
709.424	1330.5
709.612	1310.02
709.8	1289.54
709.988	1283.39
710.176	1219.91
710.364	1283.39
710.551	1264.96
710.739	1238.34
710.927	1260.87
711.115	1123.65
711.303	1273.15
711.491	1273.15
711.679	1215.81
711.866	1258.82
712.054	1213.76
712.242	1207.62
712.43	1166.66
712.617	1181
712.805	1224
712.993	1140.04
713.181	1166.66
713.368	1170.76
713.556	1203.52
713.744	1211.71
713.931	1201.47
714.119	1148.23
714.306	1150.28
714.494	1076.55
714.682	1166.66
714.869	1092.93
715.057	1140.04
715.244	1176.9
715.432	1252.67
715.619	1160.52
715.807	1199.43
715.994	1156.42
716.182	1162.56
716.369	1189.19
716.556	1137.99
716.744	1172.8
716.931	1176.9
717.119	1131.84
717.306	1117.51
717.493	1068.36
717.681	1107.27
717.868	1133.89
718.055	1101.12
718.242	1090.88
718.43	1209.67
718.617	1189.19
718.804	1185.09
718.991	1056.07
719.179	1035.59
719.366	1133.89
719.553	1054.02
719.74	1160.52
719.927	1078.6
720.114	1140.04
720.301	1256.77
720.488	1127.75
720.676	1142.08
720.863	1076.55
721.05	1092.93
721.237	1097.03
721.424	1150.28
721.611	1101.12
721.798	1037.64
721.985	1068.36
722.172	1103.17
722.358	1080.64
722.545	1041.73
722.732	1015.11
722.919	1060.17
723.106	1088.84
723.293	1060.17
723.48	1088.84
723.667	1031.49
723.853	922.95
724.04	1092.93
724.227	1035.59
724.414	1045.83
724.6	1137.99
724.787	1115.46
724.974	994.63
725.161	1101.12
725.347	980.29
725.534	1045.83
725.72	988.49
725.907	1041.73
726.094	982.34
726.28	994.63
726.467	1115.46
726.653	1146.18
726.84	1086.79
727.027	1011.01
727.213	1019.21
727.4	1140.04
727.586	1039.69
727.773	1023.3
727.959	968.01
728.145	1013.06
728.332	1006.92
728.518	1004.87
728.705	1140.04
728.891	927.05
729.077	974.15
729.264	1006.92
729.45	988.49
729.636	1021.25
729.823	1043.78
730.009	1021.25
730.195	961.86
730.382	1047.88
730.568	1115.46
730.754	972.1
730.94	1060.17
731.126	1064.26
731.313	1043.78
731.499	1008.97
731.685	1111.36
731.871	1035.59
732.057	1043.78
732.243	992.58
732.429	1142.08
732.615	1025.35
732.801	998.73
732.987	1092.93
733.173	1078.6
733.359	1013.06
733.545	1015.11
733.731	992.58
733.917	1129.8
734.103	1049.93
734.289	1004.87
734.475	1033.54
734.661	992.58
734.847	1070.4
735.033	963.91
735.219	996.68
735.404	1013.06
735.59	1027.4
735.776	996.68
735.962	965.96
736.148	931.14
736.333	953.67
736.519	1025.35
736.705	961.86
736.89	953.67
737.076	955.72
737.262	1008.97
737.447	1027.4
737.633	1015.11
737.819	953.67
738.004	937.29
738.19	982.34
738.375	931.14
738.561	996.68
738.747	986.44
738.932	994.63
739.118	965.96
739.303	1004.87
739.489	994.63
739.674	902.47
739.859	988.49
740.045	998.73
740.23	881.99
740.416	963.91
740.601	1002.82
740.786	951.62
740.972	1027.4
741.157	943.43
741.342	961.86
741.528	914.76
741.713	998.73
741.898	988.49
742.084	998.73
742.269	945.48
742.454	988.49
742.639	984.39
742.824	929.1
743.01	890.18
743.195	1019.21
743.38	873.8
743.565	861.51
743.75	937.29
743.935	875.85
744.12	965.96
744.305	888.14
744.49	892.23
744.675	867.66
744.86	894.28
745.045	978.25
745.23	896.33
745.415	834.89
745.6	847.18
745.785	830.79
745.97	873.8
746.155	845.13
746.34	832.84
746.525	900.42
746.71	691.53
746.895	953.67
747.079	871.75
747.264	759.11
747.449	888.14
747.634	791.88
747.819	843.08
748.003	773.45
748.188	855.37
748.373	750.92
748.557	730.44
748.742	853.32
748.927	871.75
749.111	781.64
749.296	804.17
749.481	822.6
749.665	746.83
749.85	777.55
750.034	814.41
750.219	765.26
750.404	802.12
750.588	828.74
750.773	740.68
750.957	699.72
751.141	740.68
751.326	767.31
751.51	705.87
751.695	724.3
751.879	666.96
752.064	785.74
752.248	806.22
752.432	693.58
752.617	703.82
752.801	691.53
752.985	705.87
753.17	701.77
753.354	644.43
753.538	716.11
753.722	736.59
753.907	650.57
754.091	742.73
754.275	765.26
754.459	660.81
754.643	632.14
754.828	566.6
755.012	679.24
755.196	615.76
755.38	642.38
755.564	691.53
755.748	607.56
755.932	626
756.116	697.67
756.3	632.14
756.484	617.8
756.668	597.32
756.852	679.24
757.036	580.94
757.22	638.28
757.404	599.37
757.588	709.96
757.772	660.81
757.956	660.81
758.14	589.13
758.323	636.24
758.507	611.66
758.691	652.62
758.875	603.47
759.059	529.74
759.242	558.41
759.426	527.69
759.61	451.92
759.794	621.9
759.977	644.43
760.161	576.84
760.345	511.31
760.528	470.35
760.712	587.08
760.895	537.93
761.079	587.08
761.263	574.8
761.446	595.28
761.63	574.8
761.813	611.66
761.997	486.73
762.18	546.12
762.364	552.27
762.547	505.17
762.731	558.41
762.914	564.56
763.098	585.04
763.281	415.05
763.464	482.64
763.648	517.45
763.831	408.91
764.015	462.16
764.198	470.35
764.381	558.41
764.564	537.93
764.748	496.97
764.931	513.36
765.114	513.36
765.297	476.49
765.481	521.55
765.664	445.77
765.847	537.93
766.03	492.88
766.213	517.45
766.397	451.92
766.58	464.21
766.763	537.93
766.946	521.55
767.129	453.97
767.312	451.92
767.495	527.69
767.678	427.34
767.861	519.5
768.044	484.69
768.227	492.88
768.41	464.21
768.593	466.25
768.776	404.82
768.959	443.73
769.142	568.65
769.324	380.24
769.507	439.63
769.69	507.21
769.873	496.97
770.056	511.31
770.239	456.01
770.421	400.72
770.604	474.45
770.787	423.25
770.97	398.67
771.152	439.63
771.335	462.16
771.518	453.97
771.7	404.82
771.883	388.43
772.066	462.16
772.248	439.63
772.431	433.49
772.613	488.78
772.796	404.82
772.978	466.25
773.161	421.2
773.343	462.16
773.526	480.59
773.708	443.73
773.891	394.58
774.073	355.66
774.256	380.24
774.438	396.62
774.621	441.68
774.803	394.58
774.985	443.73
775.168	365.9
775.35	331.09
775.532	427.34
775.715	351.57
775.897	290.13
776.079	376.14
776.261	343.38
776.444	337.23
776.626	314.7
776.808	310.61
776.99	331.09
777.173	359.76
777.355	447.82
777.537	306.51
777.719	341.33
777.901	365.9
778.083	365.9
778.265	263.51
778.447	361.81
778.629	386.38
778.811	355.66
778.993	351.57
779.175	281.94
779.357	363.86
779.539	300.37
779.721	279.89
779.903	331.09
780.085	333.14
780.267	337.23
780.449	292.18
780.631	263.51
780.812	382.29
780.994	232.79
781.176	277.84
781.358	306.51
781.54	318.8
781.721	335.18
781.903	314.7
782.085	269.65
782.267	314.7
782.448	265.55
782.63	286.03
782.812	275.79
782.993	298.32
783.175	296.27
783.357	290.13
783.538	212.31
783.72	251.22
783.901	240.98
784.083	271.7
784.264	277.84
784.446	255.31
784.627	240.98
784.809	281.94
784.99	236.88
785.172	179.54
785.353	263.51
785.535	202.07
785.716	265.55
785.897	175.44
786.079	259.41
786.26	302.42
786.441	243.03
786.623	189.78
786.804	191.83
786.985	243.03
787.167	243.03
787.348	218.45
787.529	234.83
787.71	175.44
787.891	114
788.073	234.83
788.254	216.4
788.435	210.26
788.616	214.35
788.797	161.11
788.978	206.16
789.159	175.44
789.34	193.87
789.522	105.81
789.703	128.34
789.884	183.63
790.065	197.97
790.246	200.02
790.427	214.35
790.607	228.69
790.788	267.6
790.969	165.2
791.15	152.91
791.331	130.39
791.512	243.03
791.693	154.96
791.874	216.4
792.054	187.73
792.235	185.68
792.416	240.98
792.597	159.06
792.778	218.45
792.958	202.07
793.139	116.05
793.32	183.63
793.5	206.16
793.681	173.39
793.862	165.2
794.042	230.74
794.223	136.53
794.404	206.16
794.584	208.21
794.765	136.53
794.945	144.72
795.126	109.91
795.306	197.97
795.487	243.03
795.667	105.81
795.848	204.11
796.028	81.24
796.209	251.22
796.389	124.24
796.57	138.58
796.75	169.3
796.93	95.57
797.111	130.39
797.291	68.95
797.471	181.59
797.652	124.24
797.832	97.62
798.012	161.11
798.192	171.35
798.373	95.57
798.553	114
798.733	175.44
798.913	120.15
799.093	200.02
799.274	85.33
799.454	95.57
799.634	150.87
799.814	163.15
799.994	167.25
800.174	136.53
800.354	146.77
800.534	167.25
800.714	134.48
800.894	179.54
801.074	54.61
801.254	146.77
801.434	79.19
801.614	109.91
801.794	175.44
801.974	355.66
802.154	150.87
802.334	185.68
802.514	73.04
802.693	93.52
802.873	83.28
803.053	150.87
803.233	111.96
803.413	193.87
803.592	91.48
803.772	93.52
803.952	122.2
804.131	62.8
804.311	134.48
804.491	140.63
804.67	128.34
804.85	89.43
805.03	68.95
805.209	157.01
805.389	103.76
805.568	99.67
805.748	136.53
805.928	46.42
806.107	175.44
806.287	52.56
806.466	130.39
806.646	130.39
806.825	44.37
807.004	83.28
807.184	48.47
807.363	79.19
807.543	167.25
807.722	114
807.901	97.62
808.081	142.68
808.26	99.67
808.439	101.72
808.619	142.68
808.798	97.62
808.977	105.81
809.156	38.23
809.336	99.67
809.515	157.01
809.694	71
809.873	134.48
810.052	85.33
810.231	105.81
810.411	87.38
810.59	109.91
810.769	234.83
810.948	54.61
811.127	105.81
811.306	99.67
811.485	161.11
811.664	120.15
811.843	87.38
812.022	111.96
812.201	71
812.38	120.15
812.559	91.48
812.737	99.67
812.916	11.61
813.095	134.48
813.274	138.58
813.453	163.15
813.632	89.43
813.811	50.52
813.989	81.24
814.168	148.82
814.347	52.56
814.526	62.8
814.704	122.2
814.883	93.52
815.062	101.72
815.24	91.48
815.419	50.52
815.598	44.37
815.776	38.23
815.955	99.67
816.133	38.23
816.312	15.7
816.49	85.33
816.669	85.33
816.847	50.52
817.026	122.2
817.204	81.24
817.383	52.56
817.561	87.38
817.74	91.48
817.918	56.66
818.097	46.42
818.275	30.04
818.453	105.81
818.632	-4.78
818.81	50.52
818.988	109.91
819.167	-17.07
819.345	118.1
819.523	30.04
819.701	109.91
819.879	124.24
820.058	93.52
820.236	62.8
820.414	38.23
820.592	95.57
820.77	85.33
820.948	79.19
821.127	-2.73
821.305	89.43
821.483	77.14
821.661	48.47
821.839	71
822.017	66.9
822.195	32.08
822.373	58.71
822.551	134.48
822.729	120.15
822.907	38.23
823.085	36.18
823.262	30.04
823.44	101.72
823.618	87.38
823.796	120.15
823.974	38.23
824.152	75.09
824.329	7.51
824.507	68.95
824.685	34.13
824.863	66.9
825.04	21.85
825.218	40.28
825.396	34.13
825.574	77.14
825.751	9.56
825.929	71
826.107	48.47
826.284	87.38
826.462	73.04
826.639	64.85
826.817	50.52
826.994	77.14
827.172	38.23
827.349	23.89
827.527	13.65
827.704	38.23
827.882	36.18
828.059	93.52
828.237	58.71
828.414	44.37
828.591	-35.5
828.769	13.65
828.946	85.33
829.124	103.76
829.301	111.96
829.478	68.95
829.655	54.61
829.833	68.95
830.01	54.61
830.187	93.52
830.364	48.47
830.542	64.85
830.719	85.33
830.896	75.09
831.073	21.85
831.25	85.33
831.427	42.32
831.604	107.86
831.782	48.47
831.959	-12.97
832.136	-43.69
832.313	58.71
832.49	103.76
832.667	97.62
832.844	3.41
833.021	1.37
833.198	71
833.374	27.99
833.551	66.9
833.728	95.57
833.905	44.37
834.082	68.95
834.259	-17.07
834.436	30.04
834.612	-45.74
834.789	-0.68
834.966	48.47
835.143	11.61
835.319	30.04
835.496	81.24
835.673	36.18
835.85	66.9
836.026	36.18
836.203	134.48
836.38	40.28
836.556	-10.92
836.733	54.61
836.909	25.94
837.086	54.61
837.262	15.7
837.439	15.7
837.616	68.95
837.792	3.41
837.968	140.63
838.145	118.1
838.321	54.61
838.498	99.67
838.674	-21.16
838.851	17.75
839.027	68.95
839.203	109.91
839.38	58.71
839.556	23.89
839.732	11.61
839.909	42.32
840.085	77.14
840.261	44.37
840.437	11.61
840.614	38.23
840.79	27.99
840.966	52.56
841.142	68.95
841.318	-29.35
841.494	91.48
841.671	50.52
841.847	-4.78
842.023	83.28
842.199	44.37
842.375	5.46
842.551	7.51
842.727	17.75
842.903	105.81
843.079	50.52
843.255	60.76
843.431	-12.97
843.607	56.66
843.783	36.18
843.959	-21.16
844.134	40.28
844.31	75.09
844.486	1.37
844.662	-8.87
844.838	68.95
845.013	126.29
845.189	44.37
845.365	11.61
845.541	73.04
845.716	9.56
845.892	11.61
846.068	-21.16
846.244	58.71
846.419	27.99
846.595	81.24
846.77	-17.07
846.946	17.75
847.122	73.04
847.297	15.7
847.473	60.76
847.648	95.57
847.824	40.28
847.999	27.99
848.175	3.41
848.35	71
848.526	81.24
848.701	42.32
848.876	17.75
849.052	114
849.227	62.8
849.403	-33.45
849.578	38.23
849.753	-6.83
849.929	75.09
850.104	50.52
850.279	38.23
850.454	91.48
850.63	42.32
850.805	5.46
850.98	60.76
851.155	30.04
851.33	36.18
851.505	85.33
851.681	-0.68
851.856	19.8
852.031	132.44
852.206	-41.64
852.381	30.04
852.556	81.24
852.731	19.8
852.906	-27.31
853.081	75.09
853.256	11.61
853.431	77.14
853.606	44.37
853.781	1.37
853.956	13.65
854.131	1.37
854.305	66.9
854.48	73.04
854.655	54.61
854.83	-25.26
855.005	46.42
855.18	30.04
855.354	50.52
855.529	-21.16
855.704	27.99
855.879	85.33
856.053	-33.45
856.228	19.8
856.403	9.56
856.577	60.76
856.752	-37.55
856.926	1.37
857.101	1.37
857.276	75.09
857.45	-4.78
857.625	93.52
857.799	-33.45
857.974	50.52
858.148	-17.07
858.323	46.42
858.497	-17.07
858.672	40.28
858.846	32.08
859.02	-8.87
859.195	-2.73
859.369	34.13
859.543	5.46
859.718	66.9
859.892	-12.97
860.066	36.18
860.241	36.18
860.415	124.24
860.589	5.46
860.763	52.56
860.938	62.8
861.112	23.89
861.286	-25.26
861.46	-25.26
861.634	7.51
861.808	50.52
861.982	21.85
862.157	81.24
862.331	15.7
862.505	-2.73
862.679	-39.59
862.853	32.08
863.027	46.42
863.201	-2.73
863.375	25.94
863.549	32.08
863.722	-27.31
863.896	68.95
864.07	-19.11
864.244	-31.4
864.418	40.28
864.592	-27.31
864.766	30.04
864.939	-4.78
865.113	75.09
865.287	36.18
865.461	138.58
865.634	-43.69
865.808	25.94
865.982	9.56
866.156	-29.35
866.329	30.04
866.503	5.46
866.676	40.28
866.85	15.7
867.024	3.41
867.197	-0.68
867.371	-6.83
867.544	11.61
867.718	40.28
867.891	99.67
868.065	-6.83
868.238	46.42
868.412	91.48
868.585	-29.35
868.759	42.32
868.932	114
869.105	-45.74
869.279	-2.73
869.452	5.46
869.625	3.41
869.799	62.8
869.972	-33.45
870.145	-49.83
870.319	71
870.492	97.62
870.665	-64.17
870.838	5.46
871.011	-33.45
871.185	50.52
871.358	17.75
871.531	-2.73
871.704	-8.87
871.877	5.46
872.05	27.99
872.223	-47.79
872.396	19.8
872.569	-4.78
872.742	-17.07
872.915	-19.11
873.088	-0.68
873.261	34.13
873.434	-2.73
873.607	54.61
873.78	32.08
873.953	-0.68
874.126	-2.73
874.299	23.89
874.471	7.51
874.644	27.99
874.817	-27.31
874.99	89.43
875.163	9.56
875.335	-25.26
875.508	27.99
875.681	48.47
875.853	52.56
876.026	60.76
876.199	-31.4
876.371	79.19
876.544	64.85
876.717	46.42
876.889	-33.45
877.062	5.46
877.234	30.04
877.407	-2.73
877.579	17.75
877.752	48.47
877.924	-2.73
878.097	64.85
878.269	38.23
878.442	-62.12
878.614	-31.4
878.786	52.56
878.959	-15.02
879.131	-25.26
879.303	79.19
879.476	73.04
879.648	3.41
879.82	13.65
879.993	-0.68
880.165	-27.31
880.337	-45.74
880.509	19.8
880.681	-55.98
880.854	17.75
881.026	-37.55
881.198	58.71
881.37	-19.11
881.542	-19.11
881.714	1.37
881.886	81.24
882.058	-8.87
882.23	-29.35
882.402	95.57
882.574	-66.22
882.746	99.67
882.918	52.56
883.09	62.8
883.262	32.08
883.434	48.47
883.606	3.41
883.778	-10.92
883.95	7.51
884.122	5.46
884.293	15.7
884.465	-29.35
884.637	-4.78
884.809	-12.97
884.98	36.18
885.152	17.75
885.324	-53.93
885.496	-4.78
885.667	23.89
885.839	-17.07
886.011	64.85
886.182	79.19
886.354	19.8
886.525	-6.83
886.697	-21.16
886.869	-29.35
887.04	89.43
887.212	60.76
887.383	-2.73
887.555	36.18
887.726	15.7
887.897	27.99
888.069	62.8
888.24	-64.17
888.412	5.46
888.583	11.61
888.754	44.37
888.926	36.18
889.097	-23.21
889.268	52.56
889.44	-39.59
889.611	-51.88
889.782	-8.87
889.953	-33.45
890.125	15.7
890.296	1.37
890.467	-29.35
890.638	27.99
890.809	42.32
890.98	13.65
891.151	68.95
891.323	81.24
891.494	38.23
891.665	-12.97
891.836	71
892.007	34.13
892.178	27.99
892.349	66.9
892.52	81.24
892.691	-51.88
892.862	-37.55
893.032	46.42
893.203	73.04
893.374	36.18
893.545	27.99
893.716	-62.12
893.887	3.41
894.057	-0.68
894.228	52.56
894.399	44.37
894.57	-17.07
894.74	23.89
894.911	-29.35
895.082	23.89
895.253	40.28
895.423	-19.11
895.594	73.04
895.764	-33.45
895.935	-4.78
896.106	34.13
896.276	-66.22
896.447	9.56
896.617	36.18
896.788	-25.26
896.958	17.75
897.129	13.65
897.299	15.7
897.47	-6.83
897.64	83.28
897.81	71
897.981	-39.59
898.151	-25.26
898.322	13.65
898.492	54.61
898.662	-8.87
898.832	-25.26
899.003	60.76
899.173	-33.45
899.343	54.61
899.513	50.52
