Data from USB4F104151__27__12-53-36-206.txt Node

Date: Fri Mar 14 12:53:36 EDT 2025
User: louis
Spectrometer: USB4F10415
Trigger mode: 4
Integration Time (sec): 1.000000E-2
Scans to average: 1
Electric dark correction enabled: true
Nonlinearity correction enabled: false
Boxcar width: 0
XAxis mode: Wavelengths
Number of Pixels in Spectrum: 3648
>>>>>Begin Spectral Data<<<<<
178.204	-33.11
178.424	-33.11
178.644	-33.11
178.864	-90.45
179.084	-6.49
179.304	-59.73
179.524	22.19
179.744	-14.68
179.964	-45.4
180.184	67.24
180.404	126.63
180.624	3.75
180.844	-29.01
181.064	3.75
181.283	-53.59
181.503	-24.92
181.723	3.75
181.943	-43.35
182.163	-0.34
182.383	36.52
182.602	22.19
182.822	5.8
183.042	71.34
183.262	38.57
183.482	-57.68
183.701	-2.39
183.921	-4.44
184.141	59.05
184.361	44.71
184.58	-31.06
184.8	30.38
185.02	28.33
185.239	-18.77
185.459	24.23
185.679	57
185.898	18.09
186.118	13.99
186.338	-16.73
186.557	-0.34
186.777	11.95
186.997	3.75
187.216	42.67
187.436	-12.63
187.655	30.38
187.875	-2.39
188.095	7.85
188.314	-41.3
188.534	13.99
188.753	-24.92
188.973	-22.87
189.192	65.19
189.412	48.81
189.631	-31.06
189.851	20.14
190.07	13.99
190.29	9.9
190.509	26.28
190.729	-2.39
190.948	44.71
191.168	83.63
191.387	9.9
191.607	5.8
191.826	63.15
192.045	34.47
192.265	42.67
192.484	85.67
192.704	-4.44
192.923	11.95
193.142	63.15
193.362	-61.78
193.581	71.34
193.8	28.33
194.02	46.76
194.239	7.85
194.458	18.09
194.678	36.52
194.897	-29.01
195.116	52.91
195.335	-20.82
195.555	11.95
195.774	50.86
195.993	65.19
196.212	-22.87
196.432	18.09
196.651	95.91
196.87	13.99
197.089	9.9
197.308	-22.87
197.528	59.05
197.747	-14.68
197.966	-2.39
198.185	-26.96
198.404	-0.34
198.623	-0.34
198.842	52.91
199.062	-20.82
199.281	40.62
199.5	50.86
199.719	11.95
199.938	1.71
200.157	5.8
200.376	52.91
200.595	26.28
200.814	-37.2
201.033	13.99
201.252	65.19
201.471	-18.77
201.69	50.86
201.909	-26.96
202.128	22.19
202.347	65.19
202.566	46.76
202.785	28.33
203.004	-2.39
203.223	-10.58
203.442	-4.44
203.661	5.8
203.879	32.43
204.098	28.33
204.317	44.71
204.536	59.05
204.755	28.33
204.974	52.91
205.193	-16.73
205.411	38.57
205.63	-16.73
205.849	48.81
206.068	-4.44
206.287	-2.39
206.505	42.67
206.724	61.1
206.943	-29.01
207.162	40.62
207.381	-2.39
207.599	32.43
207.818	9.9
208.037	24.23
208.255	-53.59
208.474	36.52
208.693	26.28
208.911	-22.87
209.13	-80.21
209.349	42.67
209.567	3.75
209.786	79.53
210.005	-26.96
210.223	11.95
210.442	16.04
210.661	-65.88
210.879	13.99
211.098	3.75
211.316	38.57
211.535	85.67
211.753	13.99
211.972	32.43
212.191	32.43
212.409	16.04
212.628	7.85
212.846	-6.49
213.065	-16.73
213.283	26.28
213.502	-102.74
213.72	1.71
213.938	44.71
214.157	28.33
214.375	-22.87
214.594	-53.59
214.812	11.95
215.031	-94.55
215.249	38.57
215.467	-18.77
215.686	-39.25
215.904	24.23
216.122	-49.49
216.341	40.62
216.559	-31.06
216.778	3.75
216.996	1.71
217.214	34.47
217.432	-41.3
217.651	-33.11
217.869	-31.06
218.087	5.8
218.306	5.8
218.524	36.52
218.742	20.14
218.96	9.9
219.179	-22.87
219.397	48.81
219.615	-45.4
219.833	-47.44
220.051	-45.4
220.27	48.81
220.488	-2.39
220.706	13.99
220.924	-2.39
221.142	-10.58
221.36	42.67
221.578	5.8
221.796	63.15
222.015	34.47
222.233	-22.87
222.451	34.47
222.669	-31.06
222.887	34.47
223.105	57
223.323	46.76
223.541	-2.39
223.759	3.75
223.977	-10.58
224.195	-8.53
224.413	38.57
224.631	32.43
224.849	3.75
225.067	-4.44
225.285	5.8
225.503	-35.16
225.721	-0.34
225.939	7.85
226.157	-41.3
226.375	42.67
226.592	85.67
226.81	1.71
227.028	13.99
227.246	26.28
227.464	26.28
227.682	-39.25
227.9	-29.01
228.117	30.38
228.335	-18.77
228.553	3.75
228.771	32.43
228.989	-37.2
229.206	79.53
229.424	34.47
229.642	-12.63
229.86	26.28
230.077	-6.49
230.295	87.72
230.513	-72.02
230.731	-31.06
230.948	57
231.166	-20.82
231.384	38.57
231.601	42.67
231.819	46.76
232.037	-14.68
232.254	63.15
232.472	26.28
232.689	-12.63
232.907	34.47
233.125	-14.68
233.342	63.15
233.56	18.09
233.777	38.57
233.995	7.85
234.213	16.04
234.43	22.19
234.648	-6.49
234.865	3.75
235.083	9.9
235.3	-12.63
235.518	40.62
235.735	1.71
235.953	18.09
236.17	120.49
236.388	-39.25
236.605	-78.16
236.822	-22.87
237.04	32.43
237.257	22.19
237.475	-31.06
237.692	40.62
237.909	48.81
238.127	44.71
238.344	18.09
238.562	-2.39
238.779	-10.58
238.996	71.34
239.214	-45.4
239.431	30.38
239.648	38.57
239.865	34.47
240.083	67.24
240.3	34.47
240.517	18.09
240.735	18.09
240.952	61.1
241.169	-35.16
241.386	79.53
241.603	13.99
241.821	-14.68
242.038	-6.49
242.255	69.29
242.472	-2.39
242.689	20.14
242.907	124.58
243.124	-22.87
243.341	-10.58
243.558	3.75
243.775	-29.01
243.992	30.38
244.209	18.09
244.426	-24.92
244.643	91.82
244.86	16.04
245.078	30.38
245.295	11.95
245.512	81.58
245.729	40.62
245.946	71.34
246.163	30.38
246.38	-10.58
246.597	34.47
246.814	-53.59
247.031	-59.73
247.248	61.1
247.464	13.99
247.681	-0.34
247.898	13.99
248.115	9.9
248.332	32.43
248.549	9.9
248.766	13.99
248.983	3.75
249.2	100.01
249.417	28.33
249.633	-20.82
249.85	-4.44
250.067	-33.11
250.284	-4.44
250.501	44.71
250.717	-6.49
250.934	30.38
251.151	13.99
251.368	-43.35
251.585	34.47
251.801	44.71
252.018	36.52
252.235	-4.44
252.451	-86.36
252.668	50.86
252.885	28.33
253.102	-10.58
253.318	50.86
253.535	61.1
253.752	-51.54
253.968	40.62
254.185	81.58
254.401	-31.06
254.618	26.28
254.835	-4.44
255.051	7.85
255.268	-26.96
255.484	26.28
255.701	-8.53
255.917	-49.49
256.134	1.71
256.351	50.86
256.567	-100.69
256.784	63.15
257	-35.16
257.217	-47.44
257.433	18.09
257.65	-16.73
257.866	13.99
258.082	-14.68
258.299	-8.53
258.515	18.09
258.732	-18.77
258.948	26.28
259.165	34.47
259.381	16.04
259.597	54.95
259.814	-10.58
260.03	52.91
260.246	20.14
260.463	5.8
260.679	30.38
260.895	16.04
261.112	20.14
261.328	48.81
261.544	-12.63
261.761	65.19
261.977	3.75
262.193	24.23
262.409	42.67
262.626	3.75
262.842	24.23
263.058	50.86
263.274	50.86
263.49	-10.58
263.707	61.1
263.923	7.85
264.139	34.47
264.355	20.14
264.571	124.58
264.787	11.95
265.004	44.71
265.22	32.43
265.436	13.99
265.652	-6.49
265.868	30.38
266.084	-20.82
266.3	13.99
266.516	40.62
266.732	28.33
266.948	18.09
267.164	59.05
267.38	-4.44
267.596	20.14
267.812	24.23
268.028	7.85
268.244	-84.31
268.46	59.05
268.676	-4.44
268.892	24.23
269.108	30.38
269.324	83.63
269.54	18.09
269.756	85.67
269.972	52.91
270.188	-57.68
270.403	-39.25
270.619	1.71
270.835	30.38
271.051	9.9
271.267	83.63
271.483	36.52
271.698	-29.01
271.914	22.19
272.13	30.38
272.346	-41.3
272.562	59.05
272.777	40.62
272.993	-12.63
273.209	59.05
273.425	30.38
273.64	-24.92
273.856	-10.58
274.072	52.91
274.287	48.81
274.503	3.75
274.719	-18.77
274.934	-8.53
275.15	-12.63
275.366	-0.34
275.581	20.14
275.797	-0.34
276.012	-47.44
276.228	-47.44
276.444	75.43
276.659	5.8
276.875	-35.16
277.09	-0.34
277.306	5.8
277.521	9.9
277.737	22.19
277.952	3.75
278.168	79.53
278.383	5.8
278.599	20.14
278.814	28.33
279.03	73.39
279.245	44.71
279.461	20.14
279.676	52.91
279.892	26.28
280.107	52.91
280.322	3.75
280.538	32.43
280.753	-22.87
280.969	77.48
281.184	46.76
281.399	36.52
281.615	24.23
281.83	-12.63
282.045	5.8
282.26	-29.01
282.476	-16.73
282.691	34.47
282.906	18.09
283.122	-37.2
283.337	-39.25
283.552	-20.82
283.767	5.8
283.983	44.71
284.198	91.82
284.413	36.52
284.628	-39.25
284.843	44.71
285.058	83.63
285.274	38.57
285.489	-6.49
285.704	91.82
285.919	18.09
286.134	61.1
286.349	9.9
286.564	69.29
286.779	34.47
286.995	-0.34
287.21	13.99
287.425	5.8
287.64	-2.39
287.855	1.71
288.07	-22.87
288.285	38.57
288.5	91.82
288.715	24.23
288.93	65.19
289.145	18.09
289.36	1.71
289.575	3.75
289.79	34.47
290.004	102.06
290.219	34.47
290.434	-47.44
290.649	61.1
290.864	65.19
291.079	13.99
291.294	-8.53
291.509	44.71
291.724	32.43
291.938	-20.82
292.153	36.52
292.368	73.39
292.583	24.23
292.798	22.19
293.012	91.82
293.227	30.38
293.442	30.38
293.657	57
293.871	9.9
294.086	9.9
294.301	38.57
294.516	79.53
294.73	13.99
294.945	-20.82
295.16	87.72
295.374	63.15
295.589	61.1
295.804	-31.06
296.018	-37.2
296.233	36.52
296.447	-31.06
296.662	-80.21
296.877	7.85
297.091	-8.53
297.306	18.09
297.52	-18.77
297.735	65.19
297.949	3.75
298.164	28.33
298.378	59.05
298.593	52.91
298.807	46.76
299.022	20.14
299.236	20.14
299.451	73.39
299.665	130.73
299.88	34.47
300.094	1.71
300.309	63.15
300.523	44.71
300.737	118.44
300.952	20.14
301.166	46.76
301.381	1.71
301.595	1.71
301.809	30.38
302.024	-10.58
302.238	52.91
302.452	-2.39
302.667	61.1
302.881	54.95
303.095	26.28
303.309	11.95
303.524	-43.35
303.738	36.52
303.952	-10.58
304.166	5.8
304.381	28.33
304.595	9.9
304.809	87.72
305.023	11.95
305.237	50.86
305.452	28.33
305.666	13.99
305.88	36.52
306.094	46.76
306.308	36.52
306.522	5.8
306.736	-26.96
306.95	75.43
307.164	-57.68
307.379	9.9
307.593	5.8
307.807	26.28
308.021	54.95
308.235	3.75
308.449	32.43
308.663	48.81
308.877	28.33
309.091	24.23
309.305	32.43
309.519	-49.49
309.733	-53.59
309.947	-4.44
310.161	61.1
310.374	26.28
310.588	9.9
310.802	83.63
311.016	20.14
311.23	-26.96
311.444	48.81
311.658	22.19
311.872	-2.39
312.085	65.19
312.299	89.77
312.513	24.23
312.727	52.91
312.941	-33.11
313.154	75.43
313.368	18.09
313.582	52.91
313.796	5.8
314.009	36.52
314.223	54.95
314.437	22.19
314.651	46.76
314.864	28.33
315.078	97.96
315.292	-2.39
315.505	52.91
315.719	44.71
315.933	46.76
316.146	-16.73
316.36	83.63
316.573	9.9
316.787	26.28
317.001	69.29
317.214	28.33
317.428	-10.58
317.641	20.14
317.855	42.67
318.068	-16.73
318.282	91.82
318.495	63.15
318.709	26.28
318.922	83.63
319.136	34.47
319.349	38.57
319.563	-12.63
319.776	44.71
319.99	-0.34
320.203	-53.59
320.417	24.23
320.63	9.9
320.843	61.1
321.057	77.48
321.27	52.91
321.483	-45.4
321.697	120.49
321.91	42.67
322.124	-6.49
322.337	48.81
322.55	-8.53
322.763	34.47
322.977	36.52
323.19	-35.16
323.403	3.75
323.617	40.62
323.83	42.67
324.043	11.95
324.256	59.05
324.469	-12.63
324.683	1.71
324.896	7.85
325.109	-37.2
325.322	46.76
325.535	81.58
325.748	-4.44
325.962	30.38
326.175	40.62
326.388	32.43
326.601	-8.53
326.814	71.34
327.027	38.57
327.24	79.53
327.453	34.47
327.666	67.24
327.879	34.47
328.092	-26.96
328.305	110.25
328.518	26.28
328.731	18.09
328.944	38.57
329.157	36.52
329.37	52.91
329.583	24.23
329.796	50.86
330.009	-55.64
330.222	59.05
330.435	89.77
330.648	-6.49
330.861	69.29
331.073	28.33
331.286	-14.68
331.499	-24.92
331.712	36.52
331.925	52.91
332.138	9.9
332.35	1.71
332.563	-47.44
332.776	54.95
332.989	61.1
333.202	34.47
333.414	3.75
333.627	34.47
333.84	1.71
334.053	34.47
334.265	-4.44
334.478	50.86
334.691	18.09
334.903	67.24
335.116	28.33
335.329	61.1
335.541	-39.25
335.754	50.86
335.966	20.14
336.179	79.53
336.392	-12.63
336.604	1.71
336.817	71.34
337.029	-43.35
337.242	38.57
337.454	50.86
337.667	-18.77
337.88	83.63
338.092	-18.77
338.305	38.57
338.517	75.43
338.729	52.91
338.942	3.75
339.154	-12.63
339.367	-14.68
339.579	1.71
339.792	57
340.004	40.62
340.217	13.99
340.429	32.43
340.641	38.57
340.854	7.85
341.066	30.38
341.278	77.48
341.491	44.71
341.703	-2.39
341.915	22.19
342.128	9.9
342.34	-18.77
342.552	30.38
342.764	-10.58
342.977	77.48
343.189	34.47
343.401	71.34
343.613	5.8
343.826	20.14
344.038	77.48
344.25	18.09
344.462	48.81
344.674	18.09
344.886	34.47
345.099	36.52
345.311	-12.63
345.523	16.04
345.735	-0.34
345.947	32.43
346.159	28.33
346.371	-29.01
346.583	28.33
346.795	26.28
347.007	79.53
347.219	85.67
347.431	44.71
347.643	34.47
347.855	-18.77
348.067	-14.68
348.279	-22.87
348.491	52.91
348.703	95.91
348.915	30.38
349.127	3.75
349.339	104.11
349.551	38.57
349.763	65.19
349.975	-24.92
350.187	91.82
350.399	18.09
350.61	73.39
350.822	36.52
351.034	42.67
351.246	91.82
351.458	69.29
351.669	75.43
351.881	95.91
352.093	79.53
352.305	40.62
352.517	-14.68
352.728	40.62
352.94	16.04
353.152	120.49
353.363	38.57
353.575	59.05
353.787	54.95
353.999	7.85
354.21	30.38
354.422	77.48
354.633	30.38
354.845	36.52
355.057	63.15
355.268	42.67
355.48	48.81
355.692	-24.92
355.903	110.25
356.115	34.47
356.326	-2.39
356.538	-14.68
356.749	5.8
356.961	26.28
357.172	42.67
357.384	-20.82
357.595	24.23
357.807	-29.01
358.018	-10.58
358.23	11.95
358.441	93.87
358.653	11.95
358.864	34.47
359.075	69.29
359.287	-4.44
359.498	61.1
359.709	18.09
359.921	63.15
360.132	69.29
360.344	-12.63
360.555	1.71
360.766	18.09
360.977	34.47
361.189	69.29
361.4	1.71
361.611	18.09
361.823	5.8
362.034	-37.2
362.245	9.9
362.456	-8.53
362.667	-2.39
362.879	81.58
363.09	81.58
363.301	-0.34
363.512	18.09
363.723	36.52
363.935	1.71
364.146	11.95
364.357	20.14
364.568	89.77
364.779	42.67
364.99	89.77
365.201	-26.96
365.412	36.52
365.623	32.43
365.834	65.19
366.045	30.38
366.256	34.47
366.467	48.81
366.678	50.86
366.889	16.04
367.1	34.47
367.311	46.76
367.522	89.77
367.733	3.75
367.944	52.91
368.155	-18.77
368.366	67.24
368.577	63.15
368.788	3.75
368.999	57
369.209	-2.39
369.42	36.52
369.631	67.24
369.842	79.53
370.053	1.71
370.264	91.82
370.474	89.77
370.685	-2.39
370.896	-35.16
371.107	83.63
371.317	42.67
371.528	9.9
371.739	48.81
371.95	16.04
372.16	100.01
372.371	-12.63
372.582	79.53
372.792	13.99
373.003	87.72
373.214	44.71
373.424	-22.87
373.635	7.85
373.846	65.19
374.056	93.87
374.267	24.23
374.477	59.05
374.688	9.9
374.898	13.99
375.109	-6.49
375.319	67.24
375.53	26.28
375.74	85.67
375.951	26.28
376.161	34.47
376.372	61.1
376.582	-22.87
376.793	40.62
377.003	7.85
377.214	93.87
377.424	1.71
377.635	30.38
377.845	38.57
378.055	13.99
378.266	30.38
378.476	20.14
378.686	108.2
378.897	108.2
379.107	22.19
379.317	-33.11
379.528	106.15
379.738	40.62
379.948	9.9
380.158	18.09
380.369	97.96
380.579	42.67
380.789	-2.39
380.999	63.15
381.21	40.62
381.42	16.04
381.63	-6.49
381.84	36.52
382.05	87.72
382.261	102.06
382.471	40.62
382.681	112.3
382.891	48.81
383.101	7.85
383.311	-24.92
383.521	77.48
383.731	3.75
383.941	11.95
384.151	24.23
384.361	77.48
384.571	81.58
384.781	65.19
384.991	93.87
385.201	1.71
385.411	77.48
385.621	79.53
385.831	73.39
386.041	104.11
386.251	57
386.461	3.75
386.671	69.29
386.881	75.43
387.091	34.47
387.301	3.75
387.511	59.05
387.72	48.81
387.93	40.62
388.14	59.05
388.35	32.43
388.56	59.05
388.769	77.48
388.979	77.48
389.189	79.53
389.399	1.71
389.609	18.09
389.818	9.9
390.028	9.9
390.238	100.01
390.447	61.1
390.657	46.76
390.867	67.24
391.076	61.1
391.286	42.67
391.496	79.53
391.705	-8.53
391.915	79.53
392.125	18.09
392.334	26.28
392.544	57
392.753	13.99
392.963	42.67
393.172	75.43
393.382	79.53
393.591	85.67
393.801	5.8
394.01	50.86
394.22	61.1
394.429	100.01
394.639	-4.44
394.848	28.33
395.058	54.95
395.267	132.78
395.477	3.75
395.686	100.01
395.895	77.48
396.105	89.77
396.314	44.71
396.524	128.68
396.733	20.14
396.942	44.71
397.152	102.06
397.361	34.47
397.57	38.57
397.78	48.81
397.989	50.86
398.198	48.81
398.407	18.09
398.617	22.19
398.826	85.67
399.035	91.82
399.244	24.23
399.453	85.67
399.663	108.2
399.872	100.01
400.081	89.77
400.29	93.87
400.499	73.39
400.708	97.96
400.917	44.71
401.127	77.48
401.336	52.91
401.545	100.01
401.754	36.52
401.963	83.63
402.172	9.9
402.381	112.3
402.59	106.15
402.799	22.19
403.008	30.38
403.217	44.71
403.426	124.58
403.635	89.77
403.844	75.43
404.053	-18.77
404.262	59.05
404.471	145.06
404.68	89.77
404.888	110.25
405.097	63.15
405.306	130.73
405.515	77.48
405.724	79.53
405.933	79.53
406.142	124.58
406.35	102.06
406.559	149.16
406.768	138.92
406.977	165.54
407.185	69.29
407.394	143.02
407.603	61.1
407.812	157.35
408.02	71.34
408.229	112.3
408.438	122.54
408.646	138.92
408.855	167.59
409.064	161.45
409.272	179.88
409.481	157.35
409.69	165.54
409.898	253.61
410.107	210.6
410.315	179.88
410.524	237.22
410.733	214.7
410.941	276.13
411.15	208.55
411.358	198.31
411.567	204.46
411.775	269.99
411.984	241.32
412.192	229.03
412.401	261.8
412.609	304.81
412.818	294.57
413.026	292.52
413.234	317.09
413.443	243.37
413.651	349.86
413.86	319.14
414.068	317.09
414.276	235.18
414.485	364.2
414.693	349.86
414.901	310.95
415.11	466.6
415.318	407.2
415.526	482.98
415.734	427.68
415.943	382.63
416.151	546.47
416.359	462.5
416.567	515.75
416.776	392.87
416.984	544.42
417.192	556.71
417.4	544.42
417.608	640.67
417.817	538.27
418.025	583.33
418.233	691.87
418.441	599.71
418.649	679.58
418.857	747.17
419.065	691.87
419.273	816.8
419.481	718.5
419.689	784.03
419.897	788.13
420.105	820.89
420.313	923.29
420.521	894.62
420.729	908.96
420.937	978.59
421.145	1033.88
421.353	1099.42
421.561	982.68
421.769	1076.89
421.977	1113.75
422.185	1218.2
422.393	1156.76
422.601	1277.59
422.809	1203.86
423.017	1265.3
423.224	1271.45
423.432	1388.18
423.64	1427.09
423.848	1498.77
424.056	1521.3
424.263	1597.07
424.471	1529.49
424.679	1556.11
424.887	1687.18
425.094	1760.91
425.302	1767.06
425.51	1842.83
425.718	1922.7
425.925	2002.57
426.133	1930.89
426.341	2115.21
426.548	2143.88
426.756	2053.77
426.964	2168.46
427.171	2322.06
427.379	2418.31
427.586	2430.6
427.794	2373.25
428.001	2612.87
428.209	2768.51
428.417	2809.47
428.624	2893.44
428.832	2934.4
429.039	2813.57
429.247	2854.53
429.454	3227.26
429.662	3382.9
429.869	3137.15
430.076	3436.15
430.284	3360.38
430.491	3493.49
430.699	3671.67
430.906	3499.64
431.114	3579.51
431.321	3706.48
431.528	3870.32
431.736	4179.56
431.943	4312.68
432.15	4079.21
432.358	4247.15
432.565	4468.33
432.772	4378.22
432.979	4765.28
433.187	4882.02
433.394	4765.28
433.601	5066.33
433.808	5275.23
434.016	5037.66
434.223	5389.91
434.43	5662.29
434.637	5568.09
434.844	6022.73
435.052	6002.26
435.259	5985.87
435.466	6225.48
435.673	5969.49
435.88	6450.76
436.087	6553.16
436.294	6745.67
436.501	6653.51
436.708	6643.27
436.915	6989.38
437.122	7325.24
437.329	7265.85
437.537	7376.44
437.743	7546.42
437.95	7564.86
438.157	7956.02
438.364	8166.96
438.571	8273.45
438.778	8222.25
438.985	8967.71
439.192	8652.33
439.399	9094.69
439.606	8504.87
439.813	9131.55
440.02	9694.74
440.227	9559.58
440.433	9537.05
440.64	9901.59
440.847	9688.6
441.054	10061.33
441.261	10481.16
441.467	10741.25
441.674	10759.69
441.881	11404.8
442.088	10987.01
442.294	11056.64
442.501	11390.46
442.708	11671.03
442.914	12320.24
443.121	12506.6
443.328	12195.31
443.534	13073.89
443.741	12809.7
443.948	12539.37
444.154	13600.22
444.361	13714.91
444.568	13456.86
444.774	13762.01
444.981	13643.23
445.187	14200.27
445.394	14407.12
445.6	14689.74
445.807	15740.35
446.013	15308.23
446.22	15783.35
446.426	16104.88
446.633	16158.13
446.839	16813.48
447.046	15969.72
447.252	16967.08
447.459	17065.38
447.665	17227.17
447.871	17792.41
448.078	18621.84
448.284	17726.88
448.491	17950.1
448.697	18681.23
448.903	19006.86
449.11	19357.06
449.316	18685.33
449.522	19158.41
449.728	19932.54
449.935	19905.91
450.141	20063.61
450.347	20366.71
450.553	19815.8
450.76	20137.34
450.966	20622.7
451.172	20606.32
451.378	21187.94
451.584	20575.6
451.791	21210.47
451.997	21013.87
452.203	21382.5
452.409	21448.04
452.615	21558.63
452.821	20407.67
453.027	20530.55
453.233	21353.83
453.44	20579.7
453.646	20657.52
453.852	20958.57
454.058	21398.88
454.264	20622.7
454.47	21132.65
454.676	20352.37
454.882	21269.86
455.088	19563.9
455.294	19858.81
455.5	20235.64
455.705	20235.64
455.911	19676.54
456.117	19062.15
456.323	18533.78
456.529	17876.38
456.735	18738.57
456.941	18171.29
457.147	17708.44
457.352	17290.66
457.558	17223.08
457.764	17057.19
457.97	16915.88
458.176	16643.5
458.381	16659.88
458.587	15816.12
458.793	15578.56
458.999	14831.05
459.204	16020.92
459.41	15508.93
459.616	14507.47
459.821	14575.05
460.027	14452.17
460.233	14144.98
460.438	13688.28
460.644	13675.99
460.85	12996.07
461.055	12729.83
461.261	12908.01
461.466	12062.19
461.672	11560.44
461.878	12504.56
462.083	11374.08
462.289	11439.61
462.494	11558.39
462.7	10901
462.905	10554.89
463.111	10743.3
463.316	10931.72
463.522	10708.49
463.727	10645
463.932	10688.01
464.138	10724.87
464.343	10556.94
464.549	10446.35
464.754	10634.76
464.959	10450.44
465.165	10462.73
465.37	9995.79
465.575	9784.85
465.781	10032.66
465.986	10343.95
466.191	9905.68
466.397	9704.98
466.602	9285.15
466.807	9649.69
467.012	9643.54
467.218	9522.71
467.423	9494.04
467.628	9446.94
467.833	9881.11
468.038	9604.63
468.244	9195.04
468.449	9723.41
468.654	9309.72
468.859	9391.64
469.064	9291.29
469.269	8719.91
469.474	8853.03
469.679	9295.39
469.885	8850.98
470.09	9061.92
470.295	8801.83
470.5	8699.43
470.705	8590.89
470.91	8492.59
471.115	8580.65
471.32	8607.27
471.525	8715.81
471.73	8320.56
471.935	8261.16
472.139	8056.37
472.344	8117.81
472.549	8085.04
472.754	8214.06
472.959	7966.26
473.164	7722.55
473.369	7589.43
473.574	7804.47
473.778	7767.6
473.983	7648.82
474.188	7800.37
474.393	7499.32
474.598	7372.35
474.802	7243.32
475.007	7157.31
475.212	7102.01
475.417	6964.8
475.621	7009.86
475.826	7124.54
476.031	6899.27
476.235	6651.46
476.44	6927.94
476.645	6676.04
476.849	6651.46
477.054	6680.13
477.259	6520.39
477.463	6481.48
477.668	6436.42
477.872	6444.62
478.077	6202.96
478.282	6125.13
478.486	6135.37
478.691	6059.6
478.895	6090.32
479.1	5910.1
479.304	5985.87
479.509	5842.51
479.713	5865.04
479.918	5887.57
480.122	5836.37
480.326	5740.12
480.531	5725.78
480.735	5584.47
480.94	5658.2
481.144	5744.21
481.348	5623.38
481.553	5672.53
481.757	5502.55
481.961	5586.52
482.166	5580.37
482.37	5604.95
482.574	5551.7
482.778	5703.25
482.983	5733.97
483.187	5604.95
483.391	5545.56
483.595	5654.1
483.8	5523.03
484.004	5561.94
484.208	5506.65
484.412	5547.61
484.616	5645.91
484.821	5654.1
485.025	5590.61
485.229	5551.7
485.433	5617.24
485.637	5647.96
485.841	5643.86
486.045	5547.61
486.249	5752.4
486.453	5557.85
486.657	5588.57
486.861	5547.61
487.065	5520.98
487.269	5736.02
487.473	5488.21
487.677	5582.42
487.881	5781.07
488.085	5627.48
488.289	5664.34
488.493	5664.34
488.697	5832.27
488.901	5676.63
489.105	5596.76
489.309	5756.5
489.512	5815.89
489.716	5617.24
489.92	5746.26
490.124	5688.92
490.328	6012.49
490.531	5738.07
490.735	5885.52
490.939	5854.8
491.143	6106.7
491.346	5910.1
491.55	6104.65
491.754	6092.37
491.958	6002.26
492.161	5967.44
492.365	6032.97
492.569	6092.37
492.772	6131.28
492.976	6243.92
493.18	6202.96
493.383	6366.79
493.587	6442.57
493.79	6387.27
493.994	6284.87
494.197	6374.99
494.401	6504.01
494.605	6516.3
494.808	6682.18
495.012	6694.47
495.215	6827.59
495.419	6895.17
495.622	6917.7
495.825	6987.33
496.029	6966.85
496.232	7153.21
496.436	6966.85
496.639	7278.14
496.843	7093.82
497.046	7382.59
497.249	7444.03
497.453	7431.74
497.656	7507.51
497.859	7521.85
498.063	7642.68
498.266	7880.24
498.469	8021.55
498.673	8080.94
498.876	8089.14
499.079	8252.97
499.282	8228.4
499.485	8394.28
499.689	8650.28
499.892	8470.06
500.095	8724.01
500.298	8861.22
500.501	8906.27
500.705	9154.08
500.908	9313.82
501.111	9524.76
501.314	9254.43
501.517	9496.09
501.72	9813.52
501.923	9887.25
502.126	9952.79
502.329	10182.16
502.532	10208.78
502.735	10288.65
502.938	10487.31
503.141	10669.58
503.344	10755.59
503.547	10720.78
503.75	11111.94
503.953	11134.46
504.156	11185.66
504.359	11396.6
504.562	11574.78
504.765	11777.53
504.968	11800.05
505.17	12045.81
505.373	12162.55
505.576	12398.06
505.779	12703.21
505.982	12469.74
506.185	12846.57
506.387	13131.23
506.59	13082.08
506.793	13460.96
506.996	13530.59
507.198	13802.97
507.401	13557.21
507.604	13893.08
507.807	14138.83
508.009	14312.91
508.212	14345.68
508.415	14685.64
508.617	14697.93
508.82	14964.17
509.022	15115.72
509.225	15330.75
509.428	15527.36
509.63	15723.96
509.833	15855.03
510.035	16229.81
510.238	16508.33
510.44	16631.21
510.643	16842.15
510.845	16823.72
511.048	16817.58
511.25	17329.57
511.453	17350.05
511.655	17808.79
511.858	17745.31
512.06	17845.66
512.262	18238.87
512.465	18185.62
512.667	18619.79
512.87	18781.58
513.072	18779.53
513.274	19434.88
513.477	19551.62
513.679	19748.22
513.881	19805.56
514.084	20067.7
514.286	20143.48
514.488	20432.24
514.69	21052.78
514.893	20995.43
515.095	21060.97
515.297	21335.4
515.499	21493.09
515.701	21603.68
515.904	21955.93
516.106	22334.81
516.308	22537.55
516.51	22588.75
516.712	22756.69
516.914	23264.58
517.116	23153.99
517.318	23858.49
517.52	23704.9
517.722	23448.9
517.925	24288.57
518.127	24472.89
518.329	24651.06
518.531	24581.43
518.733	25224.49
518.935	25443.62
519.136	25304.36
519.338	25818.4
519.54	25797.92
519.742	26125.6
519.944	26373.4
520.146	26588.44
520.348	26713.36
520.55	27002.13
520.752	27268.36
520.954	27874.56
521.155	27569.41
521.357	27989.25
521.559	28165.37
521.761	28218.62
521.963	28671.22
522.164	28826.87
522.366	29072.62
522.568	29103.34
522.77	29021.42
522.971	29732.07
523.173	29367.53
523.375	29682.92
523.576	30192.86
523.778	29979.87
523.98	30385.37
524.181	30606.55
524.383	30565.59
524.584	31010
524.786	31055.06
524.988	31116.5
525.189	31315.15
525.391	31497.42
525.592	31950.02
525.794	31587.53
525.995	32046.27
526.197	32087.23
526.398	32191.68
526.6	32554.17
526.801	32691.38
527.003	32769.21
527.204	32902.32
527.406	33180.85
527.607	33072.31
527.808	33225.9
528.01	32668.86
528.211	33471.66
528.412	34028.71
528.614	33928.36
528.815	33569.96
529.016	34354.33
529.218	33588.39
529.419	33764.52
529.62	34077.86
529.822	33688.74
530.023	34161.83
530.224	34352.29
530.425	34055.33
530.626	34141.35
530.828	34237.6
531.029	34950.29
531.23	34469.02
531.431	34567.32
531.632	34755.74
531.833	35304.59
532.035	35122.32
532.236	34954.39
532.437	35077.27
532.638	34628.76
532.839	35757.19
533.04	35597.45
533.241	34913.43
533.442	35857.54
533.643	35495.05
533.844	35415.18
534.045	35417.23
534.246	35443.85
534.447	35816.58
534.648	35286.16
534.849	35689.61
535.05	35859.59
535.251	35685.51
535.451	35806.34
535.652	35660.94
535.853	35654.79
536.054	36045.96
536.255	35982.47
536.456	35628.17
536.657	36371.58
536.857	36013.19
537.058	35968.13
537.259	36496.51
537.46	36146.31
537.66	35777.67
537.861	35861.64
538.062	36340.86
538.263	36627.58
538.463	35931.27
538.664	35929.22
538.865	36260.99
539.065	36232.32
539.266	36066.44
539.466	36619.39
539.667	35783.82
539.868	36664.44
540.068	36246.66
540.269	36326.53
540.469	36588.67
540.67	36209.79
540.87	36199.55
541.071	36306.05
541.271	36426.88
541.472	36201.6
541.672	36285.57
541.873	36713.59
542.073	36088.96
542.274	36564.09
542.474	36488.32
542.675	36400.26
542.875	36914.3
543.075	36615.29
543.276	36181.12
543.476	36582.52
543.676	35814.54
543.877	36639.87
544.077	36824.18
544.277	36795.51
544.478	36656.25
544.678	36740.22
544.878	36547.71
545.078	36877.43
545.279	36627.58
545.479	36410.5
545.679	37069.94
545.879	36775.03
546.079	36308.1
546.28	36664.44
546.48	36721.79
546.68	36625.53
546.88	36566.14
547.08	36746.36
547.28	36772.99
547.48	36611.2
547.68	36727.93
547.88	36531.33
548.081	37096.56
548.281	36887.67
548.481	36549.76
548.681	36877.43
548.881	36713.59
549.081	36869.24
549.28	36721.79
549.48	36705.4
549.68	36519.04
549.88	37043.32
550.08	36519.04
550.28	37055.61
550.48	36502.65
550.68	36848.76
550.88	36770.94
551.08	36414.59
551.279	36627.58
551.479	36600.96
551.679	36873.34
551.879	36902.01
552.079	36879.48
552.278	36799.61
552.478	36705.4
552.678	36557.95
552.878	36928.63
553.077	36893.82
553.277	36187.27
553.477	37155.96
553.676	36832.38
553.876	37008.5
554.076	36359.3
554.275	36912.25
554.475	36265.09
554.674	36646.01
554.874	36824.18
555.074	36576.38
555.273	36703.35
555.473	36451.45
555.672	36246.66
555.872	36160.64
556.071	36140.16
556.271	36418.69
556.47	36426.88
556.67	36136.07
556.869	36568.19
557.068	36207.75
557.268	36160.64
557.467	36273.28
557.667	36488.32
557.866	36226.18
558.065	36324.48
558.265	36252.8
558.464	36013.19
558.663	36424.83
558.863	36009.09
559.062	36220.03
559.261	36297.86
559.461	36584.57
559.66	36050.05
559.859	35929.22
560.058	35925.13
560.258	36252.8
560.457	35830.92
560.656	36142.21
560.855	35927.17
561.054	35966.09
561.253	35650.7
561.453	36160.64
561.652	36129.92
561.851	36304
562.05	35918.98
562.249	35855.5
562.448	35771.53
562.647	35955.85
562.846	35898.5
563.045	36029.57
563.244	36005
563.443	35947.65
563.642	35165.33
563.841	35687.56
564.04	35593.36
564.239	35933.32
564.438	35710.09
564.637	35781.77
564.836	35753.1
565.035	35310.74
565.234	35654.79
565.432	35638.41
565.631	35441.81
565.83	35705.99
566.029	35439.76
566.228	35286.16
566.427	35529.87
566.625	35294.35
566.824	34878.61
567.023	35603.6
567.222	34972.82
567.42	35384.46
567.619	35392.65
567.818	35314.83
568.016	35136.66
568.215	35325.07
568.414	34833.56
568.612	35714.19
568.811	35191.95
569.01	35374.22
569.208	34643.1
569.407	35275.92
569.605	34653.34
569.804	35030.16
570.002	34761.88
570.201	35001.49
570.4	35114.13
570.598	34757.78
570.797	34376.86
570.995	34761.88
571.193	34161.83
571.392	34778.26
571.59	34124.96
571.789	34559.13
571.987	34651.29
572.186	34176.16
572.384	33909.93
572.582	34192.54
572.781	34284.7
572.979	34067.62
573.177	34143.39
573.376	34004.13
573.574	34018.47
573.772	34219.17
573.971	33674.41
574.169	33701.03
574.367	33424.56
574.565	33836.2
574.763	33637.55
574.962	33756.33
575.16	32912.56
575.358	33598.63
575.556	32855.22
575.754	33698.98
575.952	33074.35
576.151	33483.95
576.349	32967.86
576.547	32922.8
576.745	33150.13
576.943	32677.05
577.141	33068.21
577.339	33115.31
577.537	32898.23
577.735	32832.69
577.933	32259.26
578.131	32646.33
578.329	32525.5
578.527	32568.51
578.725	32484.54
578.923	32099.52
579.121	32275.65
579.319	32347.33
579.516	32644.28
579.714	31933.64
579.912	32038.08
580.11	31829.19
580.308	32015.55
580.506	32019.65
580.704	31651.02
580.901	31884.48
581.099	32042.18
581.297	31331.53
581.495	31589.58
581.692	31745.22
581.89	30997.71
582.088	31730.89
582.285	31153.36
582.483	31571.14
582.681	31403.21
582.878	31331.53
583.076	30747.86
583.274	31323.34
583.471	30291.16
583.669	31034.58
583.866	30737.62
584.064	30717.14
584.262	30098.66
584.459	30610.65
584.657	30438.62
584.854	30543.06
585.052	30076.13
585.249	30076.13
585.447	30354.65
585.644	30137.57
585.841	29891.81
586.039	30196.96
586.236	29756.64
586.434	29844.71
586.631	29324.52
586.828	29682.92
587.026	29463.79
587.223	29836.52
587.42	29297.9
587.618	29525.22
587.815	29330.67
588.012	29353.19
588.21	29166.83
588.407	29435.11
588.604	28935.41
588.801	28964.08
588.999	29117.68
589.196	28947.7
589.393	29009.14
589.59	28607.73
589.787	28564.73
589.984	28552.44
590.182	27831.55
590.379	28189.95
590.576	28163.32
590.773	28538.1
590.97	28091.65
591.167	28159.23
591.364	27792.64
591.561	27907.33
591.758	27690.24
591.955	27542.79
592.152	27991.3
592.349	27618.57
592.546	27741.44
592.743	27479.3
592.94	27198.73
593.137	27661.57
593.334	27290.89
593.531	27049.23
593.727	27067.66
593.924	26791.19
594.121	26895.63
594.318	26989.84
594.515	26862.86
594.712	26909.97
594.908	26567.96
595.105	26995.98
595.302	26514.71
595.499	26434.84
595.696	26453.27
595.892	26094.88
596.089	26408.22
596.286	26066.2
596.482	26172.7
596.679	26141.98
596.876	26039.58
597.072	25779.49
597.269	26113.31
597.466	25732.39
597.662	25511.21
597.859	25269.55
598.055	25562.4
598.252	25343.27
598.448	25455.91
598.645	25251.11
598.841	25226.54
599.038	25417
599.234	25154.86
599.431	24966.45
599.627	24661.3
599.824	25066.8
600.02	24567.09
600.217	24683.83
600.413	24698.16
600.609	24390.97
600.806	24374.58
601.002	24585.52
601.198	24382.77
601.395	24317.24
601.591	24339.77
601.787	24249.66
601.984	24233.27
602.18	24198.46
602.376	23862.59
602.572	24083.77
602.769	24079.68
602.965	23850.3
603.161	23809.34
603.357	23663.94
603.553	23811.39
603.75	23549.25
603.946	23526.72
604.142	23766.34
604.338	23201.1
604.534	23237.96
604.73	23266.63
604.926	22752.59
605.122	23176.52
605.318	22854.99
605.514	22828.37
605.71	22758.74
605.906	22646.1
606.102	22725.97
606.298	22670.67
606.494	22383.96
606.69	22375.77
606.886	22646.1
607.082	22199.64
607.278	22447.44
607.474	22242.65
607.67	22504.79
607.866	21865.82
608.062	22601.04
608.257	21798.24
608.453	22138.2
608.649	22152.54
608.845	21970.27
609.041	21874.01
609.236	21953.88
609.432	21669.22
609.628	21874.01
609.824	21550.43
610.019	21509.47
610.215	21331.3
610.411	21914.97
610.606	21316.97
610.802	21523.81
610.998	21308.77
611.193	21439.84
611.389	21187.94
611.584	21306.73
611.78	21243.24
611.976	20919.66
612.171	21237.09
612.367	21048.68
612.562	21112.17
612.758	20743.53
612.953	20809.07
613.149	20944.24
613.344	20399.48
613.539	21069.16
613.735	20678
613.93	20868.46
614.126	20487.54
614.321	21001.58
614.517	20632.94
614.712	20254.07
614.907	20381.04
615.103	20624.75
615.298	20084.09
615.493	20657.52
615.688	20000.12
615.884	20577.65
616.079	20018.55
616.274	20206.97
616.47	20331.89
616.665	20159.86
616.86	20186.49
617.055	20039.03
617.25	19944.83
617.445	20209.01
617.641	19445.12
617.836	20151.67
618.031	19549.57
618.226	19828.09
618.421	19234.18
618.616	19588.48
618.811	19375.49
619.006	19723.65
619.201	19064.2
619.396	18986.38
619.591	18996.62
619.786	19410.31
619.981	18902.41
620.176	19158.41
620.371	18812.3
620.566	19260.8
620.761	18541.97
620.956	18988.42
621.151	18347.41
621.346	18826.64
621.541	18101.65
621.735	18445.71
621.93	18134.42
622.125	18412.95
622.32	18005.4
622.515	17919.39
622.709	17933.72
622.904	17841.56
623.099	17565.09
623.294	17497.5
623.488	17225.12
623.683	17374.63
623.878	17401.25
624.072	17350.05
624.267	16979.37
624.462	17173.92
624.656	16807.34
624.851	16852.39
625.046	16819.63
625.24	16983.46
625.435	16584.11
625.629	16610.73
625.824	16352.69
626.018	16426.42
626.213	16158.13
626.407	16281.01
626.602	16301.49
626.796	16027.06
626.991	15973.81
627.185	16051.64
627.38	15658.43
627.574	15412.67
627.768	15539.65
627.963	15644.09
628.157	15246.79
628.352	15605.18
628.546	15240.64
628.74	15254.98
628.935	15117.76
629.129	15134.15
629.323	14865.86
629.517	14849.48
629.712	14849.48
629.906	14730.7
630.1	14495.18
630.294	14575.05
630.489	14665.16
630.683	14503.37
630.877	14122.45
631.071	14173.65
631.265	14237.14
631.459	14089.68
631.653	13903.32
631.848	13983.19
632.042	13882.84
632.236	13833.69
632.43	13675.99
632.624	13805.02
632.818	13884.89
633.012	13479.39
633.206	13587.93
633.4	13622.75
633.594	13141.47
633.788	13561.31
633.982	13192.67
634.176	13184.48
634.369	13280.74
634.563	12957.16
634.757	13000.16
634.951	13006.31
635.145	12891.62
635.339	12809.7
635.533	12740.07
635.726	12711.4
635.92	12289.52
636.114	12537.32
636.308	12477.93
636.501	12334.57
636.695	12209.65
636.889	12385.77
637.083	12400.11
637.276	11988.47
637.47	12219.89
637.664	12070.39
637.857	11957.75
638.051	11988.47
638.244	11861.49
638.438	11755
638.632	11816.44
638.825	11537.91
639.019	11601.4
639.212	11460.09
639.406	11367.93
639.599	11236.86
639.793	11273.73
639.986	11171.33
640.18	11398.65
640.373	10987.01
640.567	11228.67
640.76	10984.96
640.954	10890.76
641.147	10950.15
641.34	10718.73
641.534	10884.61
641.727	10636.81
641.92	10771.97
642.114	10366.48
642.307	10378.76
642.5	10522.12
642.694	10036.75
642.887	10268.17
643.08	10133.01
643.273	10253.84
643.467	10159.63
643.66	10120.72
643.853	9993.75
644.046	9780.76
644.239	9985.55
644.432	9854.48
644.626	9750.04
644.819	9709.08
645.012	9682.45
645.205	9756.18
645.398	9489.95
645.591	9543.19
645.784	9610.78
645.977	9442.84
646.17	9485.85
646.363	9231.9
646.556	9211.42
646.749	9242.14
646.942	9260.57
647.135	8799.78
647.328	8930.85
647.521	9023.01
647.714	8773.16
647.907	8785.44
648.099	8584.74
648.292	8732.2
648.485	8564.26
648.678	8650.28
648.871	8582.7
649.064	8326.7
649.256	8408.62
649.449	8285.74
649.642	8472.11
649.835	8275.5
650.027	8347.18
650.22	8128.05
650.413	8005.17
650.605	8201.77
650.798	8091.18
650.991	8109.61
651.183	7921.2
651.376	7790.13
651.568	7865.91
651.761	7759.41
651.954	7896.63
652.146	7730.74
652.339	7632.44
652.531	7595.57
652.724	7550.52
652.916	7409.21
653.109	7527.99
653.301	7484.98
653.494	7349.82
653.686	7290.43
653.879	7525.94
654.071	7343.67
654.263	7145.02
654.456	7038.53
654.648	7228.99
654.84	7020.1
655.033	6923.84
655.225	7030.34
655.417	6985.28
655.61	6921.79
655.802	6725.19
655.994	6872.64
656.186	6944.32
656.379	6764.1
656.571	6727.24
656.763	6712.9
656.955	6534.73
657.148	6647.37
657.34	6436.42
657.532	6463.05
657.724	6313.55
657.916	6524.49
658.108	6381.13
658.3	6409.8
658.492	6383.18
658.684	6241.87
658.876	6096.46
659.068	6286.92
659.26	6002.26
659.452	6039.12
659.644	5981.78
659.836	5785.17
660.028	5938.77
660.22	5862.99
660.412	5957.2
660.604	5697.11
660.796	5736.02
660.988	5676.63
661.18	5615.19
661.372	5672.53
661.563	5594.71
661.755	5563.99
661.947	5549.65
662.139	5379.67
662.331	5369.43
662.522	5369.43
662.714	5342.81
662.906	5307.99
663.097	5234.27
663.289	5226.07
663.481	5178.97
663.673	5203.55
663.864	5062.24
664.056	5107.29
664.247	5062.24
664.439	4972.13
664.631	4773.47
664.822	4994.65
665.014	4824.67
665.205	4998.75
665.397	4836.96
665.588	4783.71
665.78	4841.06
665.971	4775.52
666.163	4834.91
666.354	4632.16
666.546	4636.26
666.737	4558.44
666.929	4660.84
667.12	4566.63
667.311	4396.65
667.503	4453.99
667.694	4593.25
667.885	4304.49
668.077	4273.77
668.268	4189.8
668.459	4296.3
668.651	4236.91
668.842	4132.46
669.033	4150.89
669.224	4210.28
669.416	4171.37
669.607	4146.8
669.798	4101.74
669.989	4105.84
670.18	3950.19
670.371	4064.88
670.563	3905.14
670.754	3929.71
670.945	3892.85
671.136	3970.67
671.327	3825.26
671.518	3913.33
671.709	3806.83
671.9	3898.99
672.091	3759.73
672.282	3655.28
672.473	3729.01
672.664	3726.96
672.855	3675.76
673.046	3712.63
673.237	3681.91
673.428	3591.8
673.619	3675.76
673.809	3651.19
674	3677.81
674.191	3661.43
674.382	3565.17
674.573	3597.94
674.764	3542.64
674.954	3440.25
675.145	3507.83
675.336	3495.54
675.527	3430.01
675.717	3360.38
675.908	3425.91
676.099	3425.91
676.289	3294.84
676.48	3348.09
676.671	3321.46
676.861	3389.05
677.052	3221.11
677.243	3192.44
677.433	3274.36
677.624	3249.79
677.814	3311.22
678.005	3120.76
678.195	3274.36
678.386	3178.11
678.576	3206.78
678.767	3114.62
678.957	3149.43
679.148	3077.76
679.338	3198.59
679.529	3174.01
679.719	3059.32
679.909	3036.8
680.1	3178.11
680.29	3001.98
680.481	3090.04
680.671	2989.69
680.861	2985.6
681.052	2989.69
681.242	3067.52
681.432	2952.83
681.622	3001.98
681.813	3032.7
682.003	2969.21
682.193	3040.89
682.383	3012.22
682.573	2938.49
682.764	2932.35
682.954	2918.01
683.144	2987.65
683.334	2856.58
683.524	2977.41
683.714	2895.49
683.904	2942.59
684.094	2918.01
684.284	2987.65
684.474	2864.77
684.664	2907.77
684.854	2907.77
685.044	2926.21
685.234	2948.73
685.424	2899.58
685.614	2938.49
685.804	2797.18
685.994	2809.47
686.184	2913.92
686.374	2899.58
686.564	2881.15
686.753	2799.23
686.943	2766.46
687.133	2858.62
687.323	2840.19
687.513	2875.01
687.702	2950.78
687.892	2793.09
688.082	2788.99
688.272	2782.85
688.461	2901.63
688.651	2825.86
688.841	2739.84
689.03	2858.62
689.22	2844.29
689.41	2983.55
689.599	2801.28
689.789	2834.05
689.979	2832
690.168	2772.61
690.358	2852.48
690.547	2807.42
690.737	2823.81
690.926	2850.43
691.116	2805.38
691.305	2848.38
691.495	2694.79
691.684	2856.58
691.874	2688.64
692.063	2809.47
692.252	2922.11
692.442	2913.92
692.631	2817.66
692.82	2813.57
693.01	2856.58
693.199	2696.83
693.388	2692.74
693.578	2668.16
693.767	2723.46
693.956	2752.13
694.146	2801.28
694.335	2713.22
694.524	2774.66
694.713	2676.35
694.902	2743.94
695.092	2625.15
695.281	2776.7
695.47	2651.78
695.659	2584.2
695.848	2616.96
696.037	2672.26
696.226	2625.15
696.415	2635.39
696.604	2668.16
696.793	2608.77
696.982	2729.6
697.171	2670.21
697.36	2524.8
697.549	2510.47
697.738	2442.89
697.927	2649.73
698.116	2623.11
698.305	2606.72
698.494	2557.57
698.683	2510.47
698.872	2444.93
699.061	2608.77
699.25	2510.47
699.438	2586.24
699.627	2432.65
699.816	2459.27
700.005	2475.65
700.193	2500.23
700.382	2471.56
700.571	2412.17
700.76	2365.06
700.948	2430.6
701.137	2412.17
701.326	2371.21
701.514	2360.97
701.703	2444.93
701.892	2358.92
702.08	2268.81
702.269	2262.66
702.457	2279.05
702.646	2393.73
702.834	2328.2
703.023	2317.96
703.212	2397.83
703.4	2264.71
703.589	2221.7
703.777	2342.53
703.965	2178.7
704.154	2303.62
704.342	2137.74
704.531	2248.33
704.719	2264.71
704.907	2225.8
705.096	2025.1
705.284	2188.94
705.472	2162.31
705.661	2082.44
705.849	2199.18
706.037	2139.79
706.226	2094.73
706.414	2051.72
706.602	2018.96
706.79	2094.73
706.979	2092.68
707.167	2147.98
707.355	2000.52
707.543	2051.72
707.731	1973.9
707.919	2002.57
708.107	1996.43
708.296	1943.18
708.484	2021
708.672	1930.89
708.86	2100.87
709.048	2012.81
709.236	1853.07
709.424	1859.21
709.612	1945.23
709.8	1996.43
709.988	1902.22
710.176	1836.69
710.364	1934.99
710.551	1820.3
710.739	1959.56
710.927	1713.81
711.115	1844.88
711.303	1820.3
711.491	1828.49
711.679	1900.17
711.866	1824.4
712.054	1805.97
712.242	1722
712.43	1844.88
712.617	1756.82
712.805	1758.86
712.993	1820.3
713.181	1619.6
713.368	1793.68
713.556	1646.23
713.744	1756.82
713.931	1728.14
714.119	1654.42
714.306	1582.74
714.494	1719.95
714.682	1689.23
714.869	1668.75
715.057	1627.79
715.244	1719.95
715.432	1676.95
715.619	1664.66
715.807	1607.31
715.994	1635.99
716.182	1625.75
716.369	1607.31
716.556	1543.83
716.744	1615.51
716.931	1531.54
717.119	1597.07
717.306	1519.25
717.493	1552.02
717.681	1484.44
717.868	1488.53
718.055	1531.54
718.242	1617.55
718.43	1404.57
718.617	1552.02
718.804	1390.23
718.991	1427.09
719.179	1392.28
719.366	1502.87
719.553	1500.82
719.74	1396.37
719.927	1480.34
720.114	1396.37
720.301	1412.76
720.488	1423
720.676	1361.56
720.863	1334.93
721.05	1320.6
721.237	1341.08
721.424	1363.61
721.611	1445.52
721.798	1275.54
721.985	1318.55
722.172	1296.02
722.358	1386.13
722.545	1339.03
722.732	1298.07
722.919	1361.56
723.106	1304.21
723.293	1382.04
723.48	1263.26
723.667	1265.3
723.853	1312.41
724.04	1234.58
724.227	1296.02
724.414	1320.6
724.6	1281.69
724.787	1308.31
724.974	1179.29
725.161	1242.78
725.347	1238.68
725.534	1226.39
725.72	1308.31
725.907	1199.77
726.094	1164.95
726.28	1214.1
726.467	1123.99
726.653	1173.14
726.84	1162.9
727.027	1130.14
727.213	1115.8
727.4	1074.84
727.586	1089.18
727.773	1138.33
727.959	1140.38
728.145	1101.47
728.332	1181.34
728.518	1087.13
728.705	1164.95
728.891	1062.55
729.077	1035.93
729.264	1064.6
729.45	1052.31
729.636	1005.21
729.823	990.88
730.009	1044.12
730.195	1101.47
730.382	1023.64
730.568	1046.17
730.754	962.2
730.94	904.86
731.126	1083.03
731.313	1101.47
731.499	1033.88
731.685	1056.41
731.871	968.35
732.057	1117.85
732.243	1076.89
732.429	1107.61
732.615	1005.21
732.801	966.3
732.987	964.25
733.173	949.92
733.359	898.72
733.545	1029.79
733.731	906.91
733.917	970.4
734.103	964.25
734.289	908.96
734.475	911
734.661	964.25
734.847	921.24
735.033	898.72
735.219	927.39
735.404	837.28
735.59	898.72
735.776	882.33
735.962	954.01
736.148	872.09
736.333	806.56
736.519	904.86
736.705	878.24
736.89	917.15
737.076	859.81
737.262	806.56
737.447	865.95
737.633	851.61
737.819	833.18
738.004	884.38
738.19	755.36
738.375	784.03
738.561	853.66
738.747	829.09
738.932	851.61
739.118	845.47
739.303	749.22
739.489	831.13
739.674	765.6
739.859	822.94
740.045	761.5
740.23	769.69
740.416	728.74
740.601	722.59
740.786	689.82
740.972	792.22
741.157	796.32
741.342	671.39
741.528	698.02
741.713	710.3
741.898	710.3
742.084	741.02
742.269	710.3
742.454	816.8
742.639	683.68
742.824	650.91
743.01	722.59
743.195	700.06
743.38	698.02
743.565	708.26
743.75	753.31
743.935	843.42
744.12	734.88
744.305	706.21
744.49	648.86
744.675	634.53
744.86	655.01
745.045	710.3
745.23	702.11
745.415	685.73
745.6	673.44
745.785	636.58
745.97	646.82
746.155	634.53
746.34	640.67
746.525	708.26
746.71	595.62
746.895	628.39
747.079	597.67
747.264	630.43
747.449	673.44
747.634	581.28
747.819	579.23
748.003	585.38
748.188	556.71
748.373	603.81
748.557	632.48
748.742	593.57
748.927	595.62
749.111	614.05
749.296	577.19
749.481	546.47
749.665	601.76
749.85	630.43
750.034	564.9
750.219	612
750.404	564.9
750.588	530.08
750.773	489.12
750.957	581.28
751.141	525.99
751.326	562.85
751.51	511.65
751.695	478.88
751.879	538.27
752.064	530.08
752.248	507.55
752.432	536.23
752.617	517.79
752.801	546.47
752.985	554.66
753.17	476.84
753.354	487.08
753.538	554.66
753.722	466.6
753.907	517.79
754.091	525.99
754.275	493.22
754.459	435.88
754.643	546.47
754.828	472.74
755.012	448.16
755.196	407.2
755.38	521.89
755.564	497.32
755.748	448.16
755.932	452.26
756.116	439.97
756.3	431.78
756.484	468.64
756.668	415.4
756.852	446.12
757.036	489.12
757.22	507.55
757.404	456.36
757.588	411.3
757.772	427.68
757.956	499.36
758.14	423.59
758.323	435.88
758.507	446.12
758.691	366.25
758.875	401.06
759.059	376.48
759.242	362.15
759.426	464.55
759.61	421.54
759.794	351.91
759.977	378.53
760.161	423.59
760.345	401.06
760.528	485.03
760.712	489.12
760.895	343.72
761.079	380.58
761.263	378.53
761.446	347.81
761.63	427.68
761.813	380.58
761.997	396.96
762.18	446.12
762.364	394.92
762.547	347.81
762.731	319.14
762.914	374.44
763.098	372.39
763.281	317.09
763.464	325.29
763.648	390.82
763.831	364.2
764.015	345.77
764.198	360.1
764.381	356.01
764.564	439.97
764.748	345.77
764.931	413.35
765.114	310.95
765.297	380.58
765.481	345.77
765.664	351.91
765.847	413.35
766.03	362.15
766.213	339.62
766.397	347.81
766.58	351.91
766.763	351.91
766.946	345.77
767.129	333.48
767.312	308.9
767.495	315.05
767.678	263.85
767.861	278.18
768.044	413.35
768.227	382.63
768.41	300.71
768.593	319.14
768.776	417.44
768.959	446.12
769.142	464.55
769.324	310.95
769.507	272.04
769.69	292.52
769.873	327.33
770.056	341.67
770.239	339.62
770.421	356.01
770.604	353.96
770.787	331.43
770.97	259.75
771.152	329.38
771.335	333.48
771.518	278.18
771.7	405.16
771.883	333.48
772.066	394.92
772.248	374.44
772.431	349.86
772.613	325.29
772.796	329.38
772.978	265.89
773.161	267.94
773.343	280.23
773.526	382.63
773.708	368.29
773.891	249.51
774.073	265.89
774.256	224.94
774.438	306.85
774.621	255.65
774.803	382.63
774.985	380.58
775.168	376.48
775.35	239.27
775.532	261.8
775.715	358.05
775.897	251.56
776.079	212.65
776.261	267.94
776.444	335.53
776.626	231.08
776.808	233.13
776.99	284.33
777.173	175.78
777.355	304.81
777.537	249.51
777.719	280.23
777.901	231.08
778.083	263.85
778.265	337.57
778.447	263.85
778.629	220.84
778.811	231.08
778.993	259.75
779.175	313
779.357	321.19
779.539	315.05
779.721	282.28
779.903	253.61
780.085	269.99
780.267	261.8
780.449	226.98
780.631	192.17
780.812	274.09
780.994	261.8
781.176	214.7
781.358	257.7
781.54	233.13
781.721	216.74
781.903	212.65
782.085	241.32
782.267	249.51
782.448	171.69
782.63	147.11
782.812	159.4
782.993	315.05
783.175	233.13
783.357	224.94
783.538	284.33
783.72	208.55
783.901	171.69
784.083	192.17
784.264	259.75
784.446	206.5
784.627	259.75
784.809	128.68
784.99	206.5
785.172	239.27
785.353	147.11
785.535	200.36
785.716	194.22
785.897	224.94
786.079	212.65
786.26	159.4
786.441	155.3
786.623	198.31
786.804	171.69
786.985	93.87
787.167	192.17
787.348	233.13
787.529	181.93
787.71	188.07
787.891	224.94
788.073	128.68
788.254	124.58
788.435	165.54
788.616	188.07
788.797	175.78
788.978	130.73
789.159	200.36
789.34	239.27
789.522	206.5
789.703	136.87
789.884	157.35
790.065	165.54
790.246	183.98
790.427	165.54
790.607	143.02
790.788	216.74
790.969	241.32
791.15	179.88
791.331	212.65
791.512	177.83
791.693	179.88
791.874	190.12
792.054	165.54
792.235	167.59
792.416	134.82
792.597	116.39
792.778	177.83
792.958	188.07
793.139	122.54
793.32	79.53
793.5	124.58
793.681	157.35
793.862	190.12
794.042	218.79
794.223	118.44
794.404	177.83
794.584	87.72
794.765	100.01
794.945	128.68
795.126	173.74
795.306	155.3
795.487	122.54
795.667	-14.68
795.848	130.73
796.028	114.34
796.209	151.21
796.389	108.2
796.57	112.3
796.75	198.31
796.93	171.69
797.111	83.63
797.291	100.01
797.471	161.45
797.652	169.64
797.832	71.34
798.012	69.29
798.192	147.11
798.373	161.45
798.553	93.87
798.733	140.97
798.913	147.11
799.093	89.77
799.274	124.58
799.454	122.54
799.634	61.1
799.814	167.59
799.994	97.96
800.174	163.5
800.354	83.63
800.534	145.06
800.714	54.95
800.894	95.91
801.074	91.82
801.254	138.92
801.434	134.82
801.614	100.01
801.794	126.63
801.974	313
802.154	116.39
802.334	73.39
802.514	95.91
802.693	83.63
802.873	118.44
803.053	128.68
803.233	114.34
803.413	118.44
803.592	102.06
803.772	104.11
803.952	104.11
804.131	95.91
804.311	50.86
804.491	26.28
804.67	104.11
804.85	100.01
805.03	54.95
805.209	122.54
805.389	30.38
805.568	114.34
805.748	63.15
805.928	83.63
806.107	100.01
806.287	112.3
806.466	57
806.646	93.87
806.825	57
807.004	79.53
807.184	65.19
807.363	30.38
807.543	50.86
807.722	143.02
807.901	83.63
808.081	75.43
808.26	93.87
808.439	79.53
808.619	59.05
808.798	114.34
808.977	91.82
809.156	124.58
809.336	81.58
809.515	11.95
809.694	87.72
809.873	1.71
810.052	63.15
810.231	36.52
810.411	54.95
810.59	97.96
810.769	79.53
810.948	116.39
811.127	13.99
811.306	73.39
811.485	116.39
811.664	91.82
811.843	116.39
812.022	108.2
812.201	132.78
812.38	112.3
812.559	3.75
812.737	112.3
812.916	122.54
813.095	36.52
813.274	95.91
813.453	9.9
813.632	26.28
813.811	108.2
813.989	65.19
814.168	59.05
814.347	81.58
814.526	54.95
814.704	102.06
814.883	83.63
815.062	46.76
815.24	122.54
815.419	36.52
815.598	77.48
815.776	34.47
815.955	-12.63
816.133	50.86
816.312	85.67
816.49	81.58
816.669	50.86
816.847	28.33
817.026	81.58
817.204	73.39
817.383	93.87
817.561	50.86
817.74	59.05
817.918	128.68
818.097	93.87
818.275	59.05
818.453	36.52
818.632	100.01
818.81	44.71
818.988	85.67
819.167	44.71
819.345	57
819.523	42.67
819.701	-10.58
819.879	106.15
820.058	18.09
820.236	-2.39
820.414	-4.44
820.592	5.8
820.77	57
820.948	81.58
821.127	30.38
821.305	93.87
821.483	67.24
821.661	65.19
821.839	38.57
822.017	97.96
822.195	48.81
822.373	28.33
822.551	34.47
822.729	34.47
822.907	52.91
823.085	24.23
823.262	83.63
823.44	61.1
823.618	5.8
823.796	34.47
823.974	93.87
824.152	73.39
824.329	9.9
824.507	73.39
824.685	48.81
824.863	87.72
825.04	18.09
825.218	16.04
825.396	-6.49
825.574	61.1
825.751	42.67
825.929	108.2
826.107	36.52
826.284	-12.63
826.462	59.05
826.639	1.71
826.817	9.9
826.994	65.19
827.172	16.04
827.349	34.47
827.527	38.57
827.704	87.72
827.882	22.19
828.059	18.09
828.237	9.9
828.414	50.86
828.591	1.71
828.769	87.72
828.946	100.01
829.124	22.19
829.301	59.05
829.478	46.76
829.655	-16.73
829.833	-41.3
830.01	13.99
830.187	50.86
830.364	34.47
830.542	102.06
830.719	46.76
830.896	61.1
831.073	46.76
831.25	95.91
831.427	26.28
831.604	65.19
831.782	59.05
831.959	83.63
832.136	42.67
832.313	50.86
832.49	26.28
832.667	-4.44
832.844	-33.11
833.021	42.67
833.198	11.95
833.374	28.33
833.551	16.04
833.728	3.75
833.905	112.3
834.082	38.57
834.259	20.14
834.436	38.57
834.612	13.99
834.789	52.91
834.966	-31.06
835.143	57
835.319	50.86
835.496	48.81
835.673	-14.68
835.85	11.95
836.026	46.76
836.203	69.29
836.38	65.19
836.556	-69.97
836.733	-20.82
836.909	18.09
837.086	67.24
837.262	-49.49
837.439	34.47
837.616	36.52
837.792	44.71
837.968	89.77
838.145	13.99
838.321	-84.31
838.498	32.43
838.674	77.48
838.851	9.9
839.027	9.9
839.203	77.48
839.38	22.19
839.556	38.57
839.732	-26.96
839.909	73.39
840.085	-24.92
840.261	-41.3
840.437	63.15
840.614	-8.53
840.79	75.43
840.966	22.19
841.142	63.15
841.318	28.33
841.494	59.05
841.671	13.99
841.847	30.38
842.023	20.14
842.199	16.04
842.375	24.23
842.551	24.23
842.727	24.23
842.903	59.05
843.079	-10.58
843.255	-31.06
843.431	-43.35
843.607	-55.64
843.783	38.57
843.959	32.43
844.134	-10.58
844.31	-2.39
844.486	67.24
844.662	1.71
844.838	28.33
845.013	42.67
845.189	3.75
845.365	44.71
845.541	69.29
845.716	9.9
845.892	40.62
846.068	91.82
846.244	-6.49
846.419	5.8
846.595	124.58
846.77	26.28
846.946	42.67
847.122	18.09
847.297	-6.49
847.473	16.04
847.648	1.71
847.824	24.23
847.999	32.43
848.175	30.38
848.35	-24.92
848.526	50.86
848.701	42.67
848.876	32.43
849.052	34.47
849.227	-6.49
849.403	-22.87
849.578	102.06
849.753	-37.2
849.929	18.09
850.104	54.95
850.279	71.34
850.454	-63.83
850.63	44.71
850.805	59.05
850.98	67.24
851.155	-35.16
851.33	20.14
851.505	-53.59
851.681	-8.53
851.856	-20.82
852.031	44.71
852.206	3.75
852.381	24.23
852.556	46.76
852.731	-4.44
852.906	75.43
853.081	13.99
853.256	7.85
853.431	75.43
853.606	-10.58
853.781	42.67
853.956	52.91
854.131	91.82
854.305	40.62
854.48	77.48
854.655	22.19
854.83	22.19
855.005	20.14
855.18	32.43
855.354	46.76
855.529	73.39
855.704	-24.92
855.879	16.04
856.053	11.95
856.228	-0.34
856.403	54.95
856.577	61.1
856.752	-12.63
856.926	91.82
857.101	-65.88
857.276	-22.87
857.45	20.14
857.625	5.8
857.799	-8.53
857.974	61.1
858.148	-6.49
858.323	-6.49
858.497	32.43
858.672	36.52
858.846	-4.44
859.02	26.28
859.195	13.99
859.369	1.71
859.543	5.8
859.718	18.09
859.892	26.28
860.066	24.23
860.241	-6.49
860.415	-18.77
860.589	-18.77
860.763	42.67
860.938	63.15
861.112	1.71
861.286	59.05
861.46	24.23
861.634	65.19
861.808	16.04
861.982	-61.78
862.157	18.09
862.331	79.53
862.505	34.47
862.679	-2.39
862.853	40.62
863.027	38.57
863.201	-10.58
863.375	28.33
863.549	-26.96
863.722	-35.16
863.896	1.71
864.07	22.19
864.244	-4.44
864.418	-2.39
864.592	20.14
864.766	9.9
864.939	-10.58
865.113	24.23
865.287	5.8
865.461	-33.11
865.634	-29.01
865.808	-4.44
865.982	13.99
866.156	-31.06
866.329	36.52
866.503	48.81
866.676	69.29
866.85	-43.35
867.024	28.33
867.197	9.9
867.371	13.99
867.544	13.99
867.718	-10.58
867.891	3.75
868.065	5.8
868.238	3.75
868.412	65.19
868.585	1.71
868.759	24.23
868.932	38.57
869.105	1.71
869.279	7.85
869.452	-6.49
869.625	-24.92
869.799	18.09
869.972	-2.39
870.145	3.75
870.319	-6.49
870.492	-4.44
870.665	-4.44
870.838	30.38
871.011	-14.68
871.185	16.04
871.358	32.43
871.531	-6.49
871.704	-10.58
871.877	38.57
872.05	-76.12
872.223	30.38
872.396	1.71
872.569	93.87
872.742	-45.4
872.915	36.52
873.088	7.85
873.261	-47.44
873.434	20.14
873.607	77.48
873.78	65.19
873.953	18.09
874.126	-22.87
874.299	16.04
874.471	38.57
874.644	11.95
874.817	79.53
874.99	26.28
875.163	-37.2
875.335	42.67
875.508	7.85
875.681	57
875.853	81.58
876.026	32.43
876.199	18.09
876.371	18.09
876.544	26.28
876.717	-12.63
876.889	22.19
877.062	-37.2
877.234	-47.44
877.407	28.33
877.579	-0.34
877.752	7.85
877.924	-4.44
878.097	42.67
878.269	40.62
878.442	16.04
878.614	-14.68
878.786	16.04
878.959	-6.49
879.131	52.91
879.303	-37.2
879.476	75.43
879.648	-0.34
879.82	34.47
879.993	-6.49
880.165	-74.07
880.337	48.81
880.509	-12.63
880.681	-33.11
880.854	-39.25
881.026	52.91
881.198	67.24
881.37	16.04
881.542	-72.02
881.714	-24.92
881.886	-26.96
882.058	26.28
882.23	20.14
882.402	5.8
882.574	26.28
882.746	20.14
882.918	-29.01
883.09	5.8
883.262	20.14
883.434	-43.35
883.606	-10.58
883.778	13.99
883.95	81.58
884.122	48.81
884.293	40.62
884.465	-12.63
884.637	-8.53
884.809	-29.01
884.98	-10.58
885.152	22.19
885.324	-2.39
885.496	-29.01
885.667	50.86
885.839	73.39
886.011	-0.34
886.182	-14.68
886.354	34.47
886.525	-10.58
886.697	71.34
886.869	22.19
887.04	-12.63
887.212	69.29
887.383	-20.82
887.555	5.8
887.726	36.52
887.897	-0.34
888.069	-14.68
888.24	11.95
888.412	1.71
888.583	-8.53
888.754	-29.01
888.926	3.75
889.097	18.09
889.268	-14.68
889.44	28.33
889.611	18.09
889.782	-41.3
889.953	-26.96
890.125	67.24
890.296	22.19
890.467	1.71
890.638	9.9
890.809	26.28
890.98	9.9
891.151	-20.82
891.323	7.85
891.494	-6.49
891.665	11.95
891.836	-45.4
892.007	13.99
892.178	104.11
892.349	-29.01
892.52	18.09
892.691	22.19
892.862	-10.58
893.032	-16.73
893.203	16.04
893.374	-31.06
893.545	38.57
893.716	-18.77
893.887	-47.44
894.057	-14.68
894.228	5.8
894.399	40.62
894.57	32.43
894.74	36.52
894.911	36.52
895.082	18.09
895.253	-33.11
895.423	-45.4
895.594	67.24
895.764	18.09
895.935	24.23
896.106	24.23
896.276	-24.92
896.447	-24.92
896.617	-12.63
896.788	-26.96
896.958	91.82
897.129	-22.87
897.299	50.86
897.47	59.05
897.64	50.86
897.81	54.95
897.981	67.24
898.151	26.28
898.322	-4.44
898.492	-33.11
898.662	-16.73
898.832	-80.21
899.003	-6.49
899.173	-16.73
899.343	-22.87
899.513	32.43
