Data from USB4F104151__1__12-53-03-810.txt Node

Date: Fri Mar 14 12:53:03 EDT 2025
User: louis
Spectrometer: USB4F10415
Trigger mode: 4
Integration Time (sec): 1.000000E-2
Scans to average: 1
Electric dark correction enabled: true
Nonlinearity correction enabled: false
Boxcar width: 0
XAxis mode: Wavelengths
Number of Pixels in Spectrum: 3648
>>>>>Begin Spectral Data<<<<<
178.204	-79.53
178.424	-79.53
178.644	-79.53
178.864	-69.29
179.084	-52.91
179.304	0.34
179.524	-13.99
179.744	-40.62
179.964	16.73
180.184	-7.85
180.404	74.07
180.624	-26.28
180.844	-7.85
181.064	-22.19
181.283	-7.85
181.503	51.54
181.723	-16.04
181.943	8.53
182.163	51.54
182.383	-13.99
182.602	0.34
182.822	72.02
183.042	24.92
183.262	29.01
183.482	-11.95
183.701	22.87
183.921	-28.33
184.141	-67.24
184.361	37.2
184.58	14.68
184.8	-5.8
185.02	-13.99
185.239	43.35
185.459	20.82
185.679	4.44
185.898	-16.04
186.118	45.4
186.338	33.11
186.557	12.63
186.777	-32.43
186.997	24.92
187.216	29.01
187.436	20.82
187.655	47.44
187.875	31.06
188.095	2.39
188.314	61.78
188.534	74.07
188.753	0.34
188.973	4.44
189.192	63.83
189.412	39.25
189.631	18.77
189.851	59.73
190.07	-30.38
190.29	-71.34
190.509	80.21
190.729	22.87
190.948	-13.99
191.168	69.97
191.387	31.06
191.607	-16.04
191.826	18.77
192.045	45.4
192.265	24.92
192.484	-11.95
192.704	18.77
192.923	92.5
193.142	117.08
193.362	2.39
193.581	-11.95
193.8	-20.14
194.02	33.11
194.239	-24.23
194.458	-1.71
194.678	61.78
194.897	24.92
195.116	4.44
195.335	0.34
195.555	-1.71
195.774	24.92
195.993	-13.99
196.212	-9.9
196.432	65.88
196.651	18.77
196.87	86.36
197.089	86.36
197.308	12.63
197.528	18.77
197.747	-9.9
197.966	45.4
198.185	45.4
198.404	-46.76
198.623	-24.23
198.842	43.35
199.062	63.83
199.281	35.16
199.5	24.92
199.719	31.06
199.938	2.39
200.157	4.44
200.376	24.92
200.595	-5.8
200.814	-3.75
201.033	18.77
201.252	-28.33
201.471	10.58
201.69	0.34
201.909	-26.28
202.128	6.49
202.347	-9.9
202.566	16.73
202.785	33.11
203.004	96.6
203.223	88.4
203.442	55.64
203.661	26.96
203.879	78.16
204.098	65.88
204.317	24.92
204.536	72.02
204.755	20.82
204.974	-24.23
205.193	18.77
205.411	-28.33
205.63	35.16
205.849	76.12
206.068	39.25
206.287	22.87
206.505	-46.76
206.724	12.63
206.943	14.68
207.162	18.77
207.381	8.53
207.599	51.54
207.818	35.16
208.037	-9.9
208.255	33.11
208.474	100.69
208.693	51.54
208.911	-7.85
209.13	22.87
209.349	18.77
209.567	-5.8
209.786	53.59
210.005	4.44
210.223	6.49
210.442	-32.43
210.661	22.87
210.879	35.16
211.098	-24.23
211.316	2.39
211.535	49.49
211.753	12.63
211.972	35.16
212.191	-24.23
212.409	-34.47
212.628	53.59
212.846	22.87
213.065	43.35
213.283	-7.85
213.502	-5.8
213.72	-36.52
213.938	-7.85
214.157	-65.19
214.375	-1.71
214.594	16.73
214.812	57.68
215.031	4.44
215.249	-44.71
215.467	4.44
215.686	-63.15
215.904	-36.52
216.122	24.92
216.341	-46.76
216.559	39.25
216.778	119.12
216.996	22.87
217.214	-42.67
217.432	10.58
217.651	2.39
217.869	-44.71
218.087	74.07
218.306	-38.57
218.524	6.49
218.742	-1.71
218.96	2.39
219.179	-65.19
219.397	59.73
219.615	82.26
219.833	18.77
220.051	-3.75
220.27	4.44
220.488	22.87
220.706	-38.57
220.924	12.63
221.142	33.11
221.36	43.35
221.578	-26.28
221.796	0.34
222.015	47.44
222.233	-24.23
222.451	-11.95
222.669	39.25
222.887	65.88
223.105	-63.15
223.323	8.53
223.541	8.53
223.759	49.49
223.977	-5.8
224.195	6.49
224.413	-11.95
224.631	-63.15
224.849	-22.19
225.067	-5.8
225.285	67.92
225.503	37.2
225.721	-5.8
225.939	-87.72
226.157	-13.99
226.375	53.59
226.592	74.07
226.81	55.64
227.028	-18.09
227.246	47.44
227.464	22.87
227.682	82.26
227.9	8.53
228.117	26.96
228.335	0.34
228.553	-3.75
228.771	-9.9
228.989	2.39
229.206	-57
229.424	-3.75
229.642	-50.86
229.86	24.92
230.077	6.49
230.295	0.34
230.513	63.83
230.731	24.92
230.948	8.53
231.166	14.68
231.384	-40.62
231.601	-7.85
231.819	18.77
232.037	35.16
232.254	2.39
232.472	-18.09
232.689	4.44
232.907	20.82
233.125	29.01
233.342	-22.19
233.56	14.68
233.777	24.92
233.995	-5.8
234.213	29.01
234.43	-3.75
234.648	-63.15
234.865	33.11
235.083	0.34
235.3	10.58
235.518	53.59
235.735	22.87
235.953	55.64
236.17	-26.28
236.388	31.06
236.605	41.3
236.822	29.01
237.04	20.82
237.257	108.88
237.475	-38.57
237.692	45.4
237.909	43.35
238.127	47.44
238.344	55.64
238.562	-32.43
238.779	6.49
238.996	8.53
239.214	-13.99
239.431	8.53
239.648	16.73
239.865	-40.62
240.083	14.68
240.3	0.34
240.517	24.92
240.735	67.92
240.952	37.2
241.169	12.63
241.386	-11.95
241.603	31.06
241.821	-48.81
242.038	51.54
242.255	-28.33
242.472	24.92
242.689	-7.85
242.907	90.45
243.124	8.53
243.341	6.49
243.558	12.63
243.775	74.07
243.992	63.83
244.209	92.5
244.426	-67.24
244.643	-36.52
244.86	29.01
245.078	90.45
245.295	2.39
245.512	47.44
245.729	-59.05
245.946	-46.76
246.163	26.96
246.38	10.58
246.597	-57
246.814	-50.86
247.031	8.53
247.248	31.06
247.464	67.92
247.681	76.12
247.898	-18.09
248.115	2.39
248.332	6.49
248.549	33.11
248.766	8.53
248.983	18.77
249.2	-40.62
249.417	59.73
249.633	-22.19
249.85	-7.85
250.067	47.44
250.284	-38.57
250.501	69.97
250.717	76.12
250.934	47.44
251.151	-7.85
251.368	0.34
251.585	-54.95
251.801	-32.43
252.018	41.3
252.235	18.77
252.451	18.77
252.668	39.25
252.885	-5.8
253.102	59.73
253.318	45.4
253.535	-48.81
253.752	22.87
253.968	55.64
254.185	45.4
254.401	43.35
254.618	-13.99
254.835	2.39
255.051	16.73
255.268	26.96
255.484	14.68
255.701	10.58
255.917	78.16
256.134	-52.91
256.351	10.58
256.567	4.44
256.784	100.69
257	29.01
257.217	20.82
257.433	-11.95
257.65	43.35
257.866	-7.85
258.082	10.58
258.299	29.01
258.515	61.78
258.732	10.58
258.948	45.4
259.165	51.54
259.381	10.58
259.597	39.25
259.814	29.01
260.03	-71.34
260.246	-16.04
260.463	69.97
260.679	76.12
260.895	67.92
261.112	53.59
261.328	67.92
261.544	26.96
261.761	8.53
261.977	-18.09
262.193	-28.33
262.409	67.92
262.626	-28.33
262.842	-18.09
263.058	-54.95
263.274	-20.14
263.49	-54.95
263.707	69.97
263.923	35.16
264.139	31.06
264.355	-26.28
264.571	-3.75
264.787	53.59
265.004	18.77
265.22	24.92
265.436	0.34
265.652	-24.23
265.868	2.39
266.084	-7.85
266.3	86.36
266.516	-1.71
266.732	8.53
266.948	22.87
267.164	39.25
267.38	20.82
267.596	-7.85
267.812	-13.99
268.028	59.73
268.244	39.25
268.46	0.34
268.676	72.02
268.892	6.49
269.108	-30.38
269.324	22.87
269.54	84.31
269.756	12.63
269.972	-30.38
270.188	59.73
270.403	-3.75
270.619	-11.95
270.835	-7.85
271.051	63.83
271.267	18.77
271.483	43.35
271.698	-24.23
271.914	-5.8
272.13	65.88
272.346	37.2
272.562	94.55
272.777	153.94
272.993	49.49
273.209	16.73
273.425	67.92
273.64	4.44
273.856	18.77
274.072	4.44
274.287	49.49
274.503	49.49
274.719	22.87
274.934	14.68
275.15	22.87
275.366	82.26
275.581	-73.39
275.797	16.73
276.012	41.3
276.228	55.64
276.444	-24.23
276.659	12.63
276.875	22.87
277.09	-16.04
277.306	24.92
277.521	2.39
277.737	18.77
277.952	-9.9
278.168	26.96
278.383	26.96
278.599	12.63
278.814	47.44
279.03	18.77
279.245	49.49
279.461	4.44
279.676	26.96
279.892	-3.75
280.107	104.79
280.322	2.39
280.538	24.92
280.753	29.01
280.969	69.97
281.184	92.5
281.399	-7.85
281.615	39.25
281.83	45.4
282.045	-5.8
282.26	39.25
282.476	10.58
282.691	-18.09
282.906	65.88
283.122	61.78
283.337	-65.19
283.552	119.12
283.767	65.88
283.983	0.34
284.198	6.49
284.413	51.54
284.628	33.11
284.843	16.73
285.058	41.3
285.274	-18.09
285.489	-32.43
285.704	18.77
285.919	10.58
286.134	6.49
286.349	12.63
286.564	10.58
286.779	59.73
286.995	88.4
287.21	-52.91
287.425	35.16
287.64	59.73
287.855	-5.8
288.07	-13.99
288.285	26.96
288.5	6.49
288.715	-30.38
288.93	-46.76
289.145	59.73
289.36	-28.33
289.575	39.25
289.79	-13.99
290.004	35.16
290.219	115.03
290.434	47.44
290.649	12.63
290.864	-46.76
291.079	49.49
291.294	47.44
291.509	106.84
291.724	53.59
291.938	47.44
292.153	53.59
292.368	8.53
292.583	2.39
292.798	47.44
293.012	16.73
293.227	-11.95
293.442	53.59
293.657	65.88
293.871	41.3
294.086	59.73
294.301	110.93
294.516	39.25
294.73	41.3
294.945	31.06
295.16	43.35
295.374	8.53
295.589	57.68
295.804	63.83
296.018	2.39
296.233	18.77
296.447	12.63
296.662	18.77
296.877	-26.28
297.091	-22.19
297.306	18.77
297.52	10.58
297.735	-9.9
297.949	35.16
298.164	49.49
298.378	29.01
298.593	45.4
298.807	18.77
299.022	-16.04
299.236	43.35
299.451	37.2
299.665	8.53
299.88	45.4
300.094	-11.95
300.309	26.96
300.523	37.2
300.737	-5.8
300.952	29.01
301.166	61.78
301.381	-46.76
301.595	-5.8
301.809	-50.86
302.024	78.16
302.238	10.58
302.452	-20.14
302.667	33.11
302.881	24.92
303.095	49.49
303.309	61.78
303.524	33.11
303.738	49.49
303.952	49.49
304.166	33.11
304.381	94.55
304.595	84.31
304.809	67.92
305.023	41.3
305.237	-3.75
305.452	-28.33
305.666	31.06
305.88	37.2
306.094	-16.04
306.308	31.06
306.522	33.11
306.736	2.39
306.95	26.96
307.164	-28.33
307.379	24.92
307.593	8.53
307.807	0.34
308.021	-9.9
308.235	115.03
308.449	18.77
308.663	53.59
308.877	-40.62
309.091	-20.14
309.305	10.58
309.519	43.35
309.733	59.73
309.947	2.39
310.161	18.77
310.374	2.39
310.588	49.49
310.802	-11.95
311.016	41.3
311.23	31.06
311.444	24.92
311.658	51.54
311.872	61.78
312.085	12.63
312.299	-11.95
312.513	45.4
312.727	20.82
312.941	0.34
313.154	78.16
313.368	26.96
313.582	86.36
313.796	0.34
314.009	57.68
314.223	74.07
314.437	84.31
314.651	6.49
314.864	-26.28
315.078	16.73
315.292	59.73
315.505	61.78
315.719	47.44
315.933	37.2
316.146	-32.43
316.36	-20.14
316.573	57.68
316.787	33.11
317.001	49.49
317.214	10.58
317.428	18.77
317.641	-26.28
317.855	0.34
318.068	-95.91
318.282	26.96
318.495	88.4
318.709	57.68
318.922	-20.14
319.136	16.73
319.349	72.02
319.563	82.26
319.776	18.77
319.99	-67.24
320.203	74.07
320.417	8.53
320.63	90.45
320.843	4.44
321.057	16.73
321.27	69.97
321.483	88.4
321.697	31.06
321.91	37.2
322.124	149.84
322.337	-1.71
322.55	47.44
322.763	-18.09
322.977	59.73
323.19	8.53
323.403	-32.43
323.617	12.63
323.83	49.49
324.043	18.77
324.256	33.11
324.469	-11.95
324.683	59.73
324.896	22.87
325.109	26.96
325.322	-38.57
325.535	-38.57
325.748	10.58
325.962	61.78
326.175	2.39
326.388	45.4
326.601	49.49
326.814	65.88
327.027	-18.09
327.24	80.21
327.453	14.68
327.666	35.16
327.879	8.53
328.092	41.3
328.305	37.2
328.518	96.6
328.731	-30.38
328.944	41.3
329.157	26.96
329.37	20.82
329.583	47.44
329.796	88.4
330.009	18.77
330.222	33.11
330.435	4.44
330.648	8.53
330.861	33.11
331.073	57.68
331.286	14.68
331.499	29.01
331.712	51.54
331.925	-5.8
332.138	-28.33
332.35	4.44
332.563	104.79
332.776	37.2
332.989	2.39
333.202	6.49
333.414	63.83
333.627	35.16
333.84	-22.19
334.053	78.16
334.265	51.54
334.478	12.63
334.691	65.88
334.903	-9.9
335.116	88.4
335.329	57.68
335.541	-1.71
335.754	74.07
335.966	47.44
336.179	39.25
336.392	-36.52
336.604	41.3
336.817	51.54
337.029	63.83
337.242	51.54
337.454	51.54
337.667	43.35
337.88	92.5
338.092	51.54
338.305	80.21
338.517	49.49
338.729	-11.95
338.942	41.3
339.154	63.83
339.367	63.83
339.579	14.68
339.792	96.6
340.004	8.53
340.217	80.21
340.429	10.58
340.641	-7.85
340.854	26.96
341.066	12.63
341.278	18.77
341.491	39.25
341.703	-11.95
341.915	2.39
342.128	8.53
342.34	20.82
342.552	20.82
342.764	47.44
342.977	45.4
343.189	0.34
343.401	18.77
343.613	-26.28
343.826	41.3
344.038	-13.99
344.25	29.01
344.462	59.73
344.674	-32.43
344.886	-3.75
345.099	47.44
345.311	49.49
345.523	69.97
345.735	37.2
345.947	24.92
346.159	59.73
346.371	12.63
346.583	47.44
346.795	-61.1
347.007	29.01
347.219	18.77
347.431	45.4
347.643	-9.9
347.855	12.63
348.067	74.07
348.279	16.73
348.491	24.92
348.703	35.16
348.915	80.21
349.127	39.25
349.339	29.01
349.551	16.73
349.763	10.58
349.975	65.88
350.187	47.44
350.399	57.68
350.61	53.59
350.822	33.11
351.034	-16.04
351.246	158.03
351.458	98.64
351.669	31.06
351.881	29.01
352.093	35.16
352.305	43.35
352.517	92.5
352.728	-3.75
352.94	41.3
353.152	84.31
353.363	37.2
353.575	-57
353.787	96.6
353.999	35.16
354.21	6.49
354.422	8.53
354.633	-24.23
354.845	-13.99
355.057	139.6
355.268	-38.57
355.48	41.3
355.692	8.53
355.903	69.97
356.115	74.07
356.326	0.34
356.538	72.02
356.749	41.3
356.961	51.54
357.172	45.4
357.384	65.88
357.595	16.73
357.807	41.3
358.018	24.92
358.23	18.77
358.441	39.25
358.653	47.44
358.864	47.44
359.075	35.16
359.287	57.68
359.498	-13.99
359.709	61.78
359.921	20.82
360.132	-48.81
360.344	29.01
360.555	8.53
360.766	135.51
360.977	14.68
361.189	63.83
361.4	102.74
361.611	20.82
361.823	24.92
362.034	45.4
362.245	57.68
362.456	8.53
362.667	121.17
362.879	16.73
363.09	67.92
363.301	49.49
363.512	14.68
363.723	-3.75
363.935	88.4
364.146	86.36
364.357	51.54
364.568	63.83
364.779	90.45
364.99	-1.71
365.201	57.68
365.412	49.49
365.623	53.59
365.834	45.4
366.045	45.4
366.256	22.87
366.467	8.53
366.678	37.2
366.889	41.3
367.1	-32.43
367.311	51.54
367.522	49.49
367.733	92.5
367.944	72.02
368.155	-7.85
368.366	16.73
368.577	18.77
368.788	80.21
368.999	88.4
369.209	31.06
369.42	72.02
369.631	49.49
369.842	94.55
370.053	35.16
370.264	69.97
370.474	37.2
370.685	-24.23
370.896	76.12
371.107	43.35
371.317	47.44
371.528	49.49
371.739	47.44
371.95	4.44
372.16	26.96
372.371	47.44
372.582	29.01
372.792	-13.99
373.003	20.82
373.214	29.01
373.424	18.77
373.635	55.64
373.846	166.23
374.056	63.83
374.267	65.88
374.477	-40.62
374.688	49.49
374.898	39.25
375.109	12.63
375.319	57.68
375.53	49.49
375.74	41.3
375.951	16.73
376.161	74.07
376.372	67.92
376.582	127.32
376.793	41.3
377.003	45.4
377.214	47.44
377.424	47.44
377.635	86.36
377.845	22.87
378.055	51.54
378.266	39.25
378.476	24.92
378.686	-16.04
378.897	35.16
379.107	10.58
379.317	86.36
379.528	47.44
379.738	69.97
379.948	63.83
380.158	31.06
380.369	41.3
380.579	51.54
380.789	35.16
380.999	35.16
381.21	47.44
381.42	16.73
381.63	24.92
381.84	51.54
382.05	-22.19
382.261	8.53
382.471	78.16
382.681	106.84
382.891	84.31
383.101	24.92
383.311	72.02
383.521	67.92
383.731	59.73
383.941	61.78
384.151	84.31
384.361	80.21
384.571	53.59
384.781	16.73
384.991	125.27
385.201	26.96
385.411	86.36
385.621	65.88
385.831	74.07
386.041	0.34
386.251	45.4
386.461	39.25
386.671	6.49
386.881	55.64
387.091	102.74
387.301	145.75
387.511	-3.75
387.72	57.68
387.93	16.73
388.14	24.92
388.35	31.06
388.56	51.54
388.769	92.5
388.979	59.73
389.189	69.97
389.399	74.07
389.609	45.4
389.818	45.4
390.028	-26.28
390.238	61.78
390.447	-32.43
390.657	90.45
390.867	84.31
391.076	47.44
391.286	16.73
391.496	43.35
391.705	61.78
391.915	53.59
392.125	57.68
392.334	172.37
392.544	37.2
392.753	20.82
392.963	45.4
393.172	12.63
393.382	98.64
393.591	39.25
393.801	63.83
394.01	39.25
394.22	74.07
394.429	76.12
394.639	92.5
394.848	80.21
395.058	-24.23
395.267	49.49
395.477	63.83
395.686	49.49
395.895	82.26
396.105	82.26
396.314	125.27
396.524	74.07
396.733	4.44
396.942	45.4
397.152	78.16
397.361	76.12
397.57	55.64
397.78	92.5
397.989	86.36
398.198	82.26
398.407	102.74
398.617	131.41
398.826	31.06
399.035	4.44
399.244	100.69
399.453	80.21
399.663	102.74
399.872	63.83
400.081	61.78
400.29	74.07
400.499	74.07
400.708	82.26
400.917	47.44
401.127	119.12
401.336	78.16
401.545	127.32
401.754	117.08
401.963	96.6
402.172	76.12
402.381	88.4
402.59	166.23
402.799	76.12
403.008	43.35
403.217	67.92
403.426	166.23
403.635	137.56
403.844	82.26
404.053	57.68
404.262	94.55
404.471	88.4
404.68	141.65
404.888	106.84
405.097	129.36
405.306	143.7
405.515	123.22
405.724	100.69
405.933	108.88
406.142	155.99
406.35	119.12
406.559	92.5
406.768	141.65
406.977	112.98
407.185	135.51
407.394	201.04
407.603	127.32
407.812	127.32
408.02	143.7
408.229	151.89
408.438	172.37
408.646	141.65
408.855	153.94
409.064	178.51
409.272	229.71
409.481	235.86
409.69	207.19
409.898	186.71
410.107	145.75
410.315	231.76
410.524	205.14
410.733	287.06
410.941	231.76
411.15	295.25
411.358	207.19
411.567	280.91
411.775	252.24
411.984	244.05
412.192	297.3
412.401	358.74
412.609	293.2
412.818	379.22
413.026	248.15
413.234	391.5
413.443	428.37
413.651	360.78
413.86	387.41
414.068	477.52
414.276	397.65
414.485	471.37
414.693	323.92
414.901	436.56
415.11	397.65
415.318	534.86
415.526	555.34
415.734	502.09
415.943	543.05
416.151	536.91
416.359	676.17
416.567	647.5
416.776	649.55
416.984	661.84
417.192	678.22
417.4	713.03
417.608	678.22
417.817	745.8
418.025	727.37
418.233	749.9
418.441	790.86
418.649	770.38
418.857	858.44
419.065	856.39
419.273	919.88
419.481	975.17
419.689	1024.33
419.897	1005.89
420.105	1016.13
420.313	1106.24
420.521	1112.39
420.729	1106.24
420.937	1255.75
421.145	1091.91
421.353	1255.75
421.561	1220.93
421.769	1413.44
421.977	1380.67
422.185	1308.99
422.393	1440.06
422.601	1564.99
422.809	1556.8
423.017	1622.33
423.224	1597.76
423.432	1702.2
423.64	1704.25
423.848	1829.18
424.056	1868.09
424.263	1929.53
424.471	1982.78
424.679	1878.33
424.887	2079.03
425.094	2185.52
425.302	2126.13
425.51	2271.54
425.718	2283.83
425.925	2380.08
426.133	2533.68
426.341	2535.73
426.548	2705.71
426.756	2713.9
426.964	2668.84
427.171	2877.74
427.379	2930.98
427.586	2980.14
427.794	3049.77
428.001	3211.56
428.209	3287.33
428.417	3273
428.624	3582.24
428.832	3553.57
429.039	3586.33
429.247	3457.31
429.454	3903.77
429.662	4030.74
429.869	3797.28
430.076	4161.81
430.284	4026.65
430.491	4387.09
430.699	4385.04
430.906	4395.28
431.114	4477.2
431.321	4663.57
431.528	4821.26
431.736	4950.28
431.943	5210.37
432.15	5024.01
432.358	5202.18
432.565	5597.44
432.772	5497.09
432.979	5810.43
433.187	5871.87
433.394	5804.28
433.601	6433.01
433.808	6414.58
434.016	6437.11
434.223	6547.7
434.43	6977.77
434.637	6865.13
434.844	7473.38
435.052	7526.63
435.259	7534.82
435.466	7469.28
435.673	7340.26
435.88	7858.4
436.087	8290.52
436.294	8143.07
436.501	8116.44
436.708	8321.24
436.915	8798.42
437.122	9072.84
437.329	8962.25
437.537	9240.78
437.743	9439.43
437.95	9169.1
438.157	9871.55
438.364	10119.35
438.571	10043.58
438.778	10207.42
438.985	11118.76
439.192	10608.82
439.399	11040.94
439.606	10903.73
439.813	11577.51
440.02	11960.48
440.227	12126.36
440.433	11956.38
440.64	12114.08
440.847	11874.46
441.054	12247.19
441.261	13117.58
441.467	12976.27
441.674	13199.5
441.881	13656.2
442.088	13547.65
442.294	13521.03
442.501	13721.73
442.708	14499.96
442.914	14737.52
443.121	15388.78
443.328	15218.8
443.534	16367.71
443.741	15521.9
443.948	15591.53
444.154	16851.03
444.361	16580.7
444.568	16568.41
444.774	16699.48
444.981	16986.19
445.187	17518.67
445.394	17969.22
445.6	17829.96
445.807	19351.6
446.013	18894.9
446.22	19089.46
446.426	19816.49
446.633	19859.49
446.839	20721.69
447.046	19925.03
447.252	21016.6
447.459	20869.14
447.665	21028.88
447.871	21979.14
448.078	22831.1
448.284	21553.16
448.491	22290.43
448.697	22986.74
448.903	23414.77
449.11	23724.01
449.316	23117.81
449.522	23543.79
449.728	24442.85
449.935	24657.89
450.141	24506.34
450.347	25083.86
450.553	24166.37
450.76	24688.6
450.966	25518.03
451.172	25067.48
451.378	25812.94
451.584	25259.99
451.791	25817.04
451.997	25841.61
452.203	26292.16
452.409	26148.81
452.615	26451.91
452.821	25200.6
453.027	25120.73
453.233	26296.26
453.44	25145.3
453.646	25704.4
453.852	25573.33
454.058	26261.44
454.264	25589.71
454.47	26056.65
454.676	25167.83
454.882	26236.87
455.088	23994.34
455.294	24178.66
455.5	24567.77
455.705	24866.78
455.911	23807.98
456.117	23474.16
456.323	23085.05
456.529	21876.74
456.735	22917.11
456.941	22366.21
457.147	22034.44
457.352	21061.65
457.558	20895.77
457.764	21190.67
457.97	20383.77
458.176	20224.03
458.381	20219.94
458.587	19267.63
458.793	19443.76
458.999	18276.41
459.204	19558.44
459.41	19028.02
459.616	17637.45
459.821	17989.7
460.027	17662.02
460.233	17494.09
460.438	16687.19
460.644	16830.55
460.85	16109.66
461.055	15612.01
461.261	15777.89
461.466	14577.78
461.672	14229.63
461.878	15190.13
462.083	14233.72
462.289	14157.95
462.494	13844.61
462.7	13260.94
462.905	12863.63
463.111	13478.02
463.316	13451.4
463.522	12992.66
463.727	13181.07
463.932	13023.37
464.138	12898.45
464.343	13011.09
464.549	12642.45
464.754	13113.49
464.959	12826.77
465.165	13099.15
465.37	12347.54
465.575	12028.06
465.781	12421.27
465.986	12789.91
466.191	12329.11
466.397	11933.86
466.602	11352.23
466.807	11940
467.012	11944.1
467.218	12023.97
467.423	11626.66
467.628	11583.65
467.833	12388.5
468.038	11731.11
468.244	11634.85
468.449	11880.61
468.654	11630.76
468.859	11534.5
469.064	11565.22
469.269	11051.18
469.474	10807.47
469.679	11356.33
469.885	10971.31
470.09	11028.65
470.295	10858.67
470.5	10936.49
470.705	10743.99
470.91	10457.27
471.115	10483.89
471.32	10662.07
471.525	10592.44
471.73	10483.89
471.935	10309.82
472.139	9830.59
472.344	9771.2
472.549	9863.36
472.754	9777.34
472.959	9777.34
473.164	9556.16
473.369	9259.21
473.574	9769.15
473.778	9418.95
473.983	9601.22
474.188	9586.88
474.393	9062.6
474.598	8835.28
474.802	8786.13
475.007	8874.19
475.212	8806.61
475.417	8644.82
475.621	8454.36
475.826	8616.15
476.031	8440.02
476.235	8296.66
476.44	8255.7
476.645	8224.98
476.849	8370.39
477.054	8104.15
477.259	7973.08
477.463	8083.67
477.668	7739.62
477.872	7839.97
478.077	7588.07
478.282	7497.95
478.486	7551.2
478.691	7311.59
478.895	7313.64
479.1	7409.89
479.304	7301.35
479.509	6951.15
479.713	7069.93
479.918	7127.27
480.122	7112.94
480.326	7164.14
480.531	7139.56
480.735	7037.16
480.94	6912.24
481.144	7205.1
481.348	6932.72
481.553	7051.5
481.757	6672.62
481.961	7057.64
482.166	6797.55
482.37	6850.8
482.574	6807.79
482.778	6799.6
482.983	7112.94
483.187	6981.87
483.391	7059.69
483.595	7016.68
483.8	6717.68
484.004	6852.84
484.208	7065.83
484.412	6787.31
484.616	6953.2
484.821	6865.13
485.025	6824.17
485.229	6785.26
485.433	6691.06
485.637	6916.33
485.841	6883.56
486.045	6963.44
486.249	6883.56
486.453	6891.76
486.657	6990.06
486.861	6826.22
487.065	6658.29
487.269	7016.68
487.473	6955.24
487.677	6973.67
487.881	6889.71
488.085	7080.17
488.289	7026.92
488.493	6996.2
488.697	7020.78
488.901	7127.27
489.105	6959.34
489.309	6988.01
489.512	7211.24
489.716	7039.21
489.92	7258.34
490.124	7057.64
490.328	7250.15
490.531	7225.58
490.735	7344.36
490.939	7397.6
491.143	7293.16
491.346	7530.72
491.55	7416.04
491.754	7397.6
491.958	7446.76
492.161	7575.78
492.365	7643.36
492.569	7473.38
492.772	7719.14
492.976	7747.81
493.18	7655.65
493.383	7870.69
493.587	7891.16
493.79	8065.24
493.994	7934.17
494.197	7954.65
494.401	7899.36
494.605	8143.07
494.808	8227.03
495.012	8276.18
495.215	8454.36
495.419	8685.78
495.622	8421.59
495.825	8571.09
496.029	8472.79
496.232	8849.61
496.436	8704.21
496.639	9046.22
496.843	9068.75
497.046	9339.08
497.249	9171.15
497.453	9214.15
497.656	9312.46
497.859	9277.64
498.063	9775.3
498.266	9834.69
498.469	9939.13
498.673	9869.5
498.876	10160.31
499.079	10231.99
499.282	10148.03
499.485	10741.94
499.689	10739.89
499.892	10508.47
500.095	10557.62
500.298	11008.17
500.501	10772.66
500.705	11544.74
500.908	11503.78
501.111	11591.84
501.314	11806.88
501.517	11833.5
501.72	11964.57
501.923	11884.7
502.126	12472.47
502.329	12212.38
502.532	12695.7
502.735	12593.3
502.938	12896.4
503.141	12818.58
503.344	13430.92
503.547	13295.75
503.75	13617.29
503.953	13850.75
504.156	13865.09
504.359	13897.86
504.562	14076.03
504.765	14342.27
504.968	14717.04
505.17	14882.93
505.373	14782.58
505.576	15032.43
505.779	15134.83
505.982	15341.68
506.185	15589.48
506.387	15751.27
506.59	15937.63
506.793	16425.05
506.996	16187.49
507.198	16818.26
507.401	16521.31
507.604	17162.32
507.807	17014.87
508.009	17457.23
508.212	17576.01
508.415	17840.2
508.617	18075.71
508.82	18001.99
509.022	18389.05
509.225	18638.9
509.428	18679.86
509.63	19324.97
509.833	19175.47
510.035	19589.16
510.238	19417.13
510.44	20103.2
510.643	20389.92
510.845	20437.02
511.048	20176.93
511.25	20701.21
511.453	20873.24
511.655	21448.72
511.858	21170.19
512.06	21467.15
512.262	21913.61
512.465	21862.41
512.667	22247.43
512.87	22484.99
513.072	22638.59
513.274	22859.77
513.477	23590.89
513.679	23670.76
513.881	23746.54
514.084	24053.73
514.286	24322.02
514.488	24393.7
514.69	24924.12
514.893	24971.22
515.095	25270.23
515.297	25657.29
515.499	25700.3
515.701	25921.48
515.904	26337.22
516.106	26435.52
516.308	26816.44
516.51	26894.27
516.712	27115.45
516.914	27666.35
517.116	27903.92
517.318	28043.18
517.52	28315.56
517.722	28280.74
517.925	28884.89
518.127	29116.31
518.329	29286.29
518.531	29085.59
518.733	30017.42
518.935	30107.53
519.136	30353.29
519.338	30830.46
519.54	30996.35
519.742	30900.09
519.944	31063.93
520.146	31424.37
520.348	31788.91
520.55	31809.39
520.752	32296.81
520.954	32773.99
521.155	32438.12
521.357	32968.54
521.559	33339.22
521.761	33584.98
521.963	33890.13
522.164	33791.83
522.366	33838.93
522.568	34678.6
522.77	34606.92
522.971	34901.82
523.173	34901.82
523.375	35221.31
523.576	35399.48
523.778	35305.27
523.98	35774.26
524.181	35872.56
524.383	36058.93
524.584	36271.92
524.786	36822.82
524.988	36146.99
525.189	36775.72
525.391	36822.82
525.592	36835.11
525.794	37570.33
525.995	37240.61
526.197	37611.29
526.398	37441.31
526.6	38172.43
526.801	37879.57
527.003	38000.4
527.204	37953.3
527.406	38569.74
527.607	38471.43
527.808	38844.16
528.01	38379.28
528.211	39055.11
528.412	39524.09
528.614	39182.08
528.815	39460.6
529.016	39714.55
529.218	39313.15
529.419	39546.62
529.62	39288.57
529.822	39405.31
530.023	39610.1
530.224	39894.77
530.425	39771.89
530.626	39718.65
530.828	39876.34
531.029	40894.18
531.23	40222.45
531.431	40562.41
531.632	40365.81
531.833	40496.88
532.035	40828.65
532.236	40449.77
532.437	40865.51
532.638	40718.06
532.839	40910.57
533.04	41252.58
533.241	40627.95
533.442	41084.64
533.643	41365.21
533.844	41103.07
534.045	40888.04
534.246	40793.83
534.447	41449.18
534.648	40955.62
534.849	41365.21
535.05	41166.56
535.251	41176.8
535.451	41070.31
535.652	41527
535.853	41328.35
536.054	41193.18
536.255	41658.07
536.456	41010.92
536.657	41754.33
536.857	41172.71
537.058	41127.65
537.259	41709.27
537.46	41383.65
537.66	41406.17
537.861	41322.21
538.062	41311.97
538.263	41950.93
538.463	41674.46
538.664	41606.87
538.865	41699.03
539.065	41998.04
539.266	41146.08
539.466	41725.66
539.667	41590.49
539.868	42018.52
540.068	41750.23
540.269	41793.24
540.469	41944.79
540.67	41625.31
540.87	41807.58
541.071	41922.26
541.271	42084.05
541.472	42100.43
541.672	41510.62
541.873	41524.96
542.073	41395.93
542.274	42014.42
542.474	41774.81
542.675	41414.37
542.875	41797.34
543.075	42094.29
543.276	41535.2
543.476	42213.07
543.676	41461.47
543.877	42032.85
544.077	41905.88
544.277	42030.8
544.478	41815.77
544.678	41983.7
544.878	41955.03
545.078	41692.89
545.279	42039
545.479	41443.04
545.679	42116.82
545.879	42131.15
546.079	42219.22
546.28	42149.59
546.48	41586.39
546.68	41903.83
546.88	42311.38
547.08	42000.08
547.28	41619.16
547.48	41436.89
547.68	41965.27
547.88	41920.21
548.081	42225.36
548.281	42165.97
548.481	41912.02
548.681	42223.31
548.881	41660.12
549.081	41893.59
549.28	41600.73
549.48	42284.75
549.68	41756.38
549.88	42249.94
550.08	42106.58
550.28	42139.35
550.48	41731.8
550.68	42000.08
550.88	41539.29
551.08	41860.82
551.279	41871.06
551.479	41627.35
551.679	41711.32
551.879	41610.97
552.079	41793.24
552.278	41914.07
552.478	41688.79
552.678	41793.24
552.878	42159.83
553.077	41842.39
553.277	41271.01
553.477	42086.1
553.676	41559.77
553.876	41688.79
554.076	41502.43
554.275	41391.84
554.475	41197.28
554.674	41565.92
554.874	41754.33
555.074	41555.68
555.273	41893.59
555.473	41963.22
555.672	41234.14
555.872	41678.55
556.071	41393.89
556.271	42153.68
556.47	41533.15
556.67	41058.02
556.869	41049.83
557.068	41649.88
557.268	41199.33
557.467	41314.01
557.667	41148.13
557.866	41203.42
558.065	41117.41
558.265	41010.92
558.464	41029.35
558.663	41559.77
558.863	41182.94
559.062	41426.65
559.261	40607.47
559.461	41348.83
559.66	40888.04
559.859	41039.59
560.058	40400.62
560.258	40668.9
560.457	40632.04
560.656	41252.58
560.855	41105.12
561.054	41309.92
561.253	40695.53
561.453	41115.36
561.652	41137.89
561.851	40863.46
562.05	40619.75
562.249	40818.41
562.448	41058.02
562.647	41004.77
562.846	40849.13
563.045	40808.17
563.244	40236.78
563.443	41203.42
563.642	40513.26
563.841	40691.43
564.04	40318.7
564.239	40611.56
564.438	40410.86
564.637	41072.35
564.836	40929
565.035	40419.05
565.234	40396.52
565.432	40535.79
565.631	40394.48
565.83	40201.97
566.029	40230.64
566.228	40652.52
566.427	40267.5
566.625	40443.63
566.824	39925.49
567.023	40447.72
567.222	40081.14
567.42	40527.59
567.619	40369.9
567.818	39974.64
568.016	40285.93
568.215	40199.92
568.414	39997.17
568.612	40279.79
568.811	39558.91
569.01	40029.94
569.208	39460.6
569.407	40091.38
569.605	39485.18
569.804	40222.45
570.002	39497.47
570.201	39747.32
570.4	39522.04
570.598	39558.91
570.797	39352.06
570.995	39497.47
571.193	38893.32
571.392	39446.27
571.59	39137.02
571.789	38977.28
571.987	39151.36
572.186	39032.58
572.384	39132.93
572.582	39372.54
572.781	39489.27
572.979	38702.85
573.177	39120.64
573.376	39094.02
573.574	38827.78
573.772	39024.39
573.971	39071.49
574.169	38956.8
574.367	38213.39
574.565	38577.93
574.763	38682.38
574.962	38383.37
575.16	38362.89
575.358	38485.77
575.556	38057.74
575.754	38205.2
575.952	37938.96
576.151	38094.61
576.349	37785.36
576.547	37709.59
576.745	38035.22
576.943	38043.41
577.141	37803.8
577.339	37969.68
577.537	37494.55
577.735	37424.92
577.933	37478.17
578.131	37592.86
578.329	37228.32
578.527	37322.52
578.725	37189.41
578.923	37406.49
579.121	37459.74
579.319	36910.88
579.516	37228.32
579.714	36865.83
579.912	36966.18
580.11	36679.46
580.308	36869.92
580.506	36452.14
580.704	36165.42
580.901	36529.96
581.099	36646.69
581.297	36206.38
581.495	36359.98
581.692	36181.81
581.89	35721.01
582.088	36257.58
582.285	35876.66
582.483	36337.45
582.681	36142.89
582.878	35727.16
583.076	35714.87
583.274	35966.77
583.471	35247.93
583.669	35804.98
583.866	35270.46
584.064	35731.25
584.262	35290.94
584.459	35577.65
584.657	34842.43
584.854	35520.31
585.052	34764.61
585.249	34744.13
585.447	35182.4
585.644	34557.77
585.841	34932.54
586.039	34797.38
586.236	34436.94
586.434	34613.06
586.631	34324.3
586.828	34586.44
587.026	34232.14
587.223	34166.6
587.42	33804.11
587.618	34135.88
587.815	33496.92
588.012	33924.94
588.21	33640.28
588.407	33945.42
588.604	33486.68
588.801	33464.15
588.999	33335.13
589.196	33103.71
589.393	33249.11
589.59	32933.73
589.787	33124.19
589.984	33075.04
590.182	32632.68
590.379	32960.35
590.576	32513.89
590.773	33236.83
590.97	32345.96
591.167	32587.62
591.364	32608.1
591.561	32192.36
591.758	31776.62
591.955	32165.74
592.152	32274.28
592.349	32391.02
592.546	32145.26
592.743	32163.69
592.94	31477.62
593.137	31872.88
593.334	32008.04
593.531	31334.26
593.727	31483.76
593.924	31287.16
594.121	31113.08
594.318	31360.89
594.515	30939.01
594.712	31407.99
594.908	30924.67
595.105	31235.96
595.302	30898.05
595.499	30840.7
595.696	30695.3
595.892	30502.79
596.089	30498.69
596.286	30668.67
596.482	30074.76
596.679	30322.57
596.876	30424.97
597.072	30328.71
597.269	30285.7
597.466	29857.68
597.662	29847.44
597.859	29472.66
598.055	30058.38
598.252	29450.13
598.448	29454.23
598.645	29310.87
598.841	29097.88
599.038	29374.36
599.234	29495.19
599.431	28983.2
599.627	28825.5
599.824	29276.05
600.02	28835.74
600.217	28903.32
600.413	28757.92
600.609	28542.88
600.806	28913.56
601.002	28460.96
601.198	28499.87
601.395	28237.73
601.591	28229.54
601.787	27910.06
601.984	27994.03
602.18	28041.13
602.376	27905.96
602.572	27625.39
602.769	27723.69
602.965	27590.58
603.161	27891.63
603.357	27336.63
603.553	27527.09
603.75	27471.79
603.946	27244.47
604.142	27375.54
604.338	26834.88
604.534	27086.78
604.73	27011
604.926	26922.94
605.122	26562.5
605.318	26722.24
605.514	26345.41
605.71	26316.74
605.906	26632.13
606.102	26363.84
606.298	26445.76
606.494	25960.39
606.69	26343.36
606.886	26288.07
607.082	26167.24
607.278	26525.63
607.474	25683.92
607.67	26193.86
607.866	25610.19
608.062	26298.31
608.257	25511.89
608.453	25831.37
608.649	25515.98
608.845	25458.64
609.041	25401.3
609.236	25712.59
609.432	25417.68
609.628	25657.29
609.824	25423.83
610.019	25122.77
610.215	25167.83
610.411	25608.14
610.606	25176.02
610.802	25348.05
610.998	25126.87
611.193	24989.66
611.389	24872.92
611.584	24590.3
611.78	24911.83
611.976	25157.59
612.171	24829.91
612.367	24674.27
612.562	24758.24
612.758	24377.31
612.953	24457.18
613.149	24528.86
613.344	24166.37
613.539	24573.92
613.735	24428.51
613.93	24465.38
614.126	24293.35
614.321	24674.27
614.517	24365.03
614.712	24412.13
614.907	23883.75
615.103	24420.32
615.298	24078.31
615.493	24291.3
615.688	23781.35
615.884	24369.12
616.079	23681
616.274	24045.54
616.47	23691.24
616.665	23869.42
616.86	23769.07
617.055	23406.58
617.25	23566.32
617.445	23685.1
617.641	23275.51
617.836	23404.53
618.031	22753.27
618.226	23345.14
618.421	22921.21
618.616	23420.91
618.811	22738.94
619.006	23310.32
619.201	22636.54
619.396	22943.74
619.591	22556.67
619.786	22743.03
619.981	22249.47
620.176	22753.27
620.371	22034.44
620.566	22261.76
620.761	22059.01
620.956	22298.63
621.151	22042.63
621.346	22024.2
621.541	21839.88
621.735	21757.96
621.93	21364.75
622.125	21479.44
622.32	20844.57
622.515	21532.68
622.709	20897.81
622.904	21262.35
623.099	21078.04
623.294	20949.01
623.488	20338.72
623.683	20690.97
623.878	20291.62
624.072	20480.03
624.267	20520.99
624.462	19929.13
624.656	19857.45
624.851	19970.08
625.046	19816.49
625.24	19978.28
625.435	19494.96
625.629	19861.54
625.824	19210.29
626.018	19392.56
626.213	19075.12
626.407	19081.27
626.602	18833.46
626.796	18888.76
626.991	19044.4
627.185	19154.99
627.38	18841.65
627.574	18556.99
627.768	18677.82
627.963	18440.25
628.157	18260.03
628.352	18298.94
628.546	18055.23
628.74	17965.12
628.935	17592.39
629.129	17975.36
629.323	17518.67
629.517	17539.15
629.712	17500.23
629.906	17563.72
630.1	17328.2
630.294	17360.97
630.489	17145.94
630.683	17160.27
630.877	16898.13
631.071	16740.44
631.265	16846.93
631.459	16922.71
631.653	16773.21
631.848	16758.87
632.042	16482.39
632.236	16500.83
632.43	16265.31
632.624	16275.55
632.818	16431.19
633.012	15931.49
633.206	15984.74
633.4	16027.74
633.594	15626.34
633.788	15628.39
633.982	15777.89
634.176	15577.19
634.369	15634.53
634.563	15614.06
634.757	15368.3
634.951	15392.87
635.145	15243.37
635.339	15206.51
635.533	14958.71
635.726	15190.13
635.92	14913.65
636.114	14854.26
636.308	14790.77
636.501	14809.2
636.695	14518.39
636.889	14514.3
637.083	14342.27
637.276	14356.6
637.47	14354.55
637.664	14352.51
637.857	14368.89
638.051	14213.24
638.244	13934.72
638.438	13955.2
638.632	13994.11
638.825	13846.66
639.019	13797.51
639.212	13605
639.406	13586.57
639.599	13510.79
639.793	13553.8
639.986	13226.12
640.18	13516.94
640.373	13346.95
640.567	13201.55
640.76	13217.93
640.954	13193.36
641.147	12886.16
641.34	13031.57
641.534	12978.32
641.727	12640.4
641.92	12626.07
642.114	12677.27
642.307	12517.53
642.5	12509.33
642.694	12175.52
642.887	12277.91
643.08	12294.3
643.273	12259.48
643.467	12089.5
643.66	12308.63
643.853	12118.17
644.046	11950.24
644.239	11899.04
644.432	11866.27
644.626	11651.24
644.819	11665.57
645.012	11825.31
645.205	11567.27
645.398	11448.49
645.591	11485.35
645.784	11411.62
645.977	11288.75
646.17	11180.2
646.363	11206.83
646.556	11030.7
646.749	11110.57
646.942	11038.89
647.135	10948.78
647.328	11018.41
647.521	10811.57
647.714	10768.56
647.907	10655.92
648.099	10666.16
648.292	10807.47
648.485	10649.78
648.678	10199.23
648.871	10506.42
649.064	10381.49
649.256	10373.3
649.449	10131.64
649.642	10225.85
649.835	10084.54
650.027	10006.72
650.22	9787.58
650.413	9842.88
650.605	10019
650.798	9828.54
650.991	9695.43
651.183	9580.74
651.376	9554.12
651.568	9683.14
651.761	9550.02
651.954	9593.03
652.146	9578.69
652.339	9480.39
652.531	9349.32
652.724	9363.65
652.916	9109.71
653.109	9191.63
653.301	9111.75
653.494	9158.86
653.686	8937.68
653.879	9124.04
654.071	8831.18
654.263	8982.73
654.456	8683.73
654.648	8773.84
654.84	8687.82
655.033	8589.52
655.225	8583.38
655.417	8564.95
655.61	8399.06
655.802	8542.42
655.994	8495.32
656.186	8419.54
656.379	8372.44
656.571	8165.59
656.763	8145.11
656.955	8270.04
657.148	7946.46
657.34	7999.71
657.532	8032.47
657.724	7874.78
657.916	7940.32
658.108	7807.2
658.3	7839.97
658.492	7846.11
658.684	7729.38
658.876	7682.27
659.068	7710.94
659.26	7667.94
659.452	7405.8
659.644	7442.66
659.836	7370.98
660.028	7389.41
660.22	7311.59
660.412	7387.36
660.604	7325.93
660.796	7104.74
660.988	7168.23
661.18	7225.58
661.372	7098.6
661.563	6973.67
661.755	6873.32
661.947	6830.32
662.139	6951.15
662.331	6801.65
662.522	6707.44
662.714	6635.76
662.906	6697.2
663.097	6652.14
663.289	6582.51
663.481	6627.57
663.673	6430.96
663.864	6605.04
664.056	6258.93
664.247	6336.76
664.439	6201.59
664.631	6457.59
664.822	6404.34
665.014	6152.44
665.205	6314.23
665.397	6107.38
665.588	6060.28
665.78	6064.38
665.971	5978.36
666.163	5961.98
666.354	5914.88
666.546	5873.92
666.737	5861.63
666.929	5869.82
667.12	5785.85
667.311	5740.8
667.503	5720.32
667.694	5697.79
667.885	5497.09
668.077	5566.72
668.268	5550.34
668.459	5558.53
668.651	5417.22
668.842	5413.12
669.033	5310.72
669.224	5452.03
669.416	5427.46
669.607	5216.52
669.798	5298.44
669.989	5390.6
670.18	5210.37
670.371	5181.7
670.563	5128.46
670.754	5216.52
670.945	5062.92
671.136	5112.07
671.327	5011.72
671.518	4970.76
671.709	4851.98
671.9	5021.96
672.091	5036.3
672.282	5077.26
672.473	4962.57
672.664	4874.51
672.855	4712.72
673.046	4909.32
673.237	4743.44
673.428	4854.03
673.619	4737.29
673.809	4692.24
674	4626.7
674.191	4573.46
674.382	4569.36
674.573	4653.33
674.764	4571.41
674.954	4546.83
675.145	4473.11
675.336	4393.23
675.527	4499.73
675.717	4491.54
675.908	4462.87
676.099	4364.56
676.289	4415.76
676.48	4219.16
676.671	4397.33
676.861	4303.12
677.052	4280.6
677.243	4202.77
677.433	4241.68
677.624	4258.07
677.814	4145.43
678.005	4333.84
678.195	4276.5
678.386	4196.63
678.576	4172.05
678.767	4137.24
678.957	4196.63
679.148	4100.37
679.338	4083.99
679.529	4102.42
679.719	4127
679.909	4094.23
680.1	4034.84
680.29	4045.08
680.481	3895.58
680.671	3995.93
680.861	4092.18
681.052	3924.25
681.242	3840.28
681.432	3871
681.622	3868.95
681.813	3887.39
682.003	3866.91
682.193	3787.04
682.383	3862.81
682.573	3766.56
682.764	3834.14
682.954	3850.52
683.144	3684.64
683.334	3770.65
683.524	3848.47
683.714	3715.36
683.904	3711.26
684.094	3641.63
684.284	3834.14
684.474	3813.66
684.664	3637.53
684.854	3703.07
685.044	3660.06
685.234	3709.21
685.424	3645.73
685.614	3692.83
685.804	3553.57
685.994	3578.14
686.184	3629.34
686.374	3541.28
686.564	3676.45
686.753	3623.2
686.943	3557.66
687.133	3643.68
687.323	3518.75
687.513	3391.78
687.702	3504.42
687.892	3512.61
688.082	3369.25
688.272	3416.35
688.461	3467.55
688.651	3473.7
688.841	3506.46
689.03	3416.35
689.22	3449.12
689.41	3471.65
689.599	3453.22
689.789	3391.78
689.979	3547.42
690.168	3465.5
690.358	3391.78
690.547	3361.06
690.737	3279.14
690.926	3295.52
691.116	3277.09
691.305	3260.71
691.495	3279.14
691.684	3289.38
691.874	3354.91
692.063	3346.72
692.252	3297.57
692.442	3254.56
692.631	3268.9
692.82	3227.94
693.01	3146.02
693.199	3215.65
693.388	3221.8
693.578	3242.28
693.767	3168.55
693.956	3215.65
694.146	3125.54
694.335	3250.47
694.524	3172.64
694.713	3074.34
694.902	3023.14
695.092	3199.27
695.281	3006.76
695.47	3090.73
695.659	3051.81
695.848	2973.99
696.037	3068.2
696.226	3055.91
696.415	3045.67
696.604	3035.43
696.793	3023.14
696.982	2937.13
697.171	2971.94
697.36	2853.16
697.549	3064.1
697.738	2967.85
697.927	2885.93
698.116	2892.07
698.305	2937.13
698.494	2789.67
698.683	2853.16
698.872	2887.98
699.061	2703.66
699.25	2830.63
699.438	2814.25
699.627	2713.9
699.816	2793.77
700.005	2812.2
700.193	2705.71
700.382	2769.2
700.571	2722.09
700.76	2603.31
700.948	2613.55
701.137	2650.41
701.326	2697.52
701.514	2711.85
701.703	2732.33
701.892	2621.74
702.08	2660.65
702.269	2619.69
702.457	2554.16
702.646	2535.73
702.834	2593.07
703.023	2402.61
703.212	2478.38
703.4	2584.88
703.589	2433.33
703.777	2488.62
703.965	2439.47
704.154	2408.75
704.342	2396.46
704.531	2492.72
704.719	2404.66
704.907	2486.58
705.096	2369.84
705.284	2437.42
705.472	2390.32
705.661	2255.15
705.849	2335.03
706.037	2394.42
706.226	2345.27
706.414	2279.73
706.602	2357.55
706.79	2326.83
706.979	2318.64
707.167	2251.06
707.355	2347.31
707.543	2220.34
707.731	2269.49
707.919	2234.68
708.107	2115.89
708.296	2136.37
708.484	2222.39
708.672	2171.19
708.86	2246.96
709.048	2154.8
709.236	2068.79
709.424	2111.8
709.612	2072.89
709.8	2103.61
709.988	2023.73
710.176	1976.63
710.364	2132.28
710.551	2068.79
710.739	2109.75
710.927	2031.93
711.115	1947.96
711.303	1884.47
711.491	1974.58
711.679	1966.39
711.866	1976.63
712.054	1962.3
712.242	1915.19
712.43	1986.87
712.617	1947.96
712.805	1937.72
712.993	1933.62
713.181	1857.85
713.368	1995.06
713.556	1868.09
713.744	1974.58
713.931	1941.82
714.119	1913.14
714.306	1863.99
714.494	1943.86
714.682	1866.04
714.869	1904.95
715.057	1837.37
715.244	1829.18
715.432	1804.6
715.619	1687.87
715.807	1734.97
715.994	1706.3
716.182	1726.78
716.369	1741.11
716.556	1718.59
716.744	1644.86
716.931	1722.68
717.119	1749.31
717.306	1747.26
717.493	1562.94
717.681	1595.71
717.868	1671.48
718.055	1681.72
718.242	1540.41
718.43	1642.81
718.617	1608
718.804	1630.52
718.991	1612.09
719.179	1601.85
719.366	1550.65
719.553	1581.37
719.74	1597.76
719.927	1564.99
720.114	1507.65
720.301	1599.8
720.488	1501.5
720.676	1497.41
720.863	1417.54
721.05	1567.04
721.237	1474.88
721.424	1524.03
721.611	1558.85
721.798	1368.38
721.985	1483.07
722.172	1343.81
722.358	1435.97
722.545	1493.31
722.732	1440.06
722.919	1395.01
723.106	1362.24
723.293	1392.96
723.48	1370.43
723.667	1345.86
723.853	1339.71
724.04	1341.76
724.227	1362.24
724.414	1325.38
724.6	1280.32
724.787	1247.55
724.974	1259.84
725.161	1257.79
725.347	1255.75
725.534	1388.86
725.72	1280.32
725.907	1288.51
726.094	1284.42
726.28	1333.57
726.467	1237.31
726.653	1186.12
726.84	1210.69
727.027	1222.98
727.213	1220.93
727.4	1173.83
727.586	1255.75
727.773	1220.93
727.959	1214.79
728.145	1259.84
728.332	1179.97
728.518	1202.5
728.705	1231.17
728.891	1165.64
729.077	1063.24
729.264	1132.87
729.45	1149.25
729.636	1091.91
729.823	1102.15
730.009	1220.93
730.195	1118.53
730.382	1151.3
730.568	1024.33
730.754	1120.58
730.94	1087.81
731.126	1102.15
731.313	1147.2
731.499	1206.59
731.685	1018.18
731.871	1100.1
732.057	991.56
732.243	1089.86
732.429	1069.38
732.615	1089.86
732.801	964.93
732.987	1175.88
733.173	1040.71
733.359	991.56
733.545	983.37
733.731	942.41
733.917	979.27
734.103	1024.33
734.289	995.65
734.475	950.6
734.661	1042.76
734.847	991.56
735.033	1048.9
735.219	1009.99
735.404	991.56
735.59	969.03
735.776	940.36
735.962	1046.85
736.148	919.88
736.333	901.45
736.519	923.98
736.705	876.87
736.89	993.61
737.076	942.41
737.262	913.74
737.447	827.72
737.633	942.41
737.819	934.22
738.004	909.64
738.19	956.74
738.375	893.26
738.561	985.41
738.747	915.78
738.932	903.5
739.118	903.5
739.303	803.15
739.489	817.48
739.674	944.45
739.859	780.62
740.045	854.34
740.23	864.58
740.416	762.19
740.601	891.21
740.786	784.71
740.972	878.92
741.157	831.82
741.342	764.23
741.528	827.72
741.713	827.72
741.898	753.99
742.084	723.27
742.269	762.19
742.454	692.55
742.639	803.15
742.824	786.76
743.01	776.52
743.195	710.99
743.38	753.99
743.565	753.99
743.75	721.23
743.935	708.94
744.12	772.43
744.305	676.17
744.49	827.72
744.675	733.51
744.86	717.13
745.045	739.66
745.23	618.83
745.415	715.08
745.6	647.5
745.785	723.27
745.97	637.26
746.155	737.61
746.34	657.74
746.525	631.12
746.71	659.79
746.895	760.14
747.079	616.78
747.264	674.12
747.449	643.4
747.634	680.27
747.819	684.36
748.003	577.87
748.188	559.44
748.373	661.84
748.557	610.64
748.742	624.97
748.927	608.59
749.111	622.92
749.296	641.36
749.481	592.2
749.665	608.59
749.85	631.12
750.034	592.2
750.219	598.35
750.404	649.55
750.588	571.72
750.773	635.21
750.957	637.26
751.141	569.68
751.326	541.01
751.51	561.48
751.695	520.53
751.879	604.49
752.064	604.49
752.248	588.11
752.432	541.01
752.617	596.3
752.801	538.96
752.985	569.68
753.17	563.53
753.354	485.71
753.538	510.29
753.722	547.15
753.907	528.72
754.091	549.2
754.275	590.16
754.459	512.33
754.643	452.94
754.828	530.77
755.012	549.2
755.196	420.17
755.38	538.96
755.564	467.28
755.748	581.96
755.932	524.62
756.116	424.27
756.3	547.15
756.484	536.91
756.668	495.95
756.852	498
757.036	459.09
757.22	428.37
757.404	504.14
757.588	459.09
757.772	467.28
757.956	520.53
758.14	485.71
758.323	428.37
758.507	485.71
758.691	428.37
758.875	436.56
759.059	493.9
759.242	405.84
759.426	487.76
759.61	428.37
759.794	373.07
759.977	469.33
760.161	457.04
760.345	434.51
760.528	491.85
760.712	422.22
760.895	373.07
761.079	373.07
761.263	475.47
761.446	459.09
761.63	426.32
761.813	473.42
761.997	395.6
762.18	352.59
762.364	426.32
762.547	422.22
762.731	420.17
762.914	393.55
763.098	389.46
763.281	401.74
763.464	328.02
763.648	336.21
763.831	375.12
764.015	328.02
764.198	436.56
764.381	352.59
764.564	420.17
764.748	377.17
764.931	498
765.114	336.21
765.297	438.61
765.481	334.16
765.664	342.35
765.847	352.59
766.03	360.78
766.213	362.83
766.397	373.07
766.58	336.21
766.763	475.47
766.946	389.46
767.129	373.07
767.312	362.83
767.495	393.55
767.678	276.82
767.861	344.4
768.044	340.3
768.227	385.36
768.41	420.17
768.593	385.36
768.776	358.74
768.959	387.41
769.142	340.3
769.324	381.26
769.507	387.41
769.69	377.17
769.873	309.58
770.056	436.56
770.239	383.31
770.421	338.26
770.604	334.16
770.787	305.49
770.97	358.74
771.152	379.22
771.335	387.41
771.518	254.29
771.7	340.3
771.883	383.31
772.066	401.74
772.248	278.87
772.431	330.06
772.613	311.63
772.796	364.88
772.978	340.3
773.161	352.59
773.343	274.77
773.526	319.82
773.708	362.83
773.891	338.26
774.073	332.11
774.256	325.97
774.438	305.49
774.621	330.06
774.803	342.35
774.985	328.02
775.168	287.06
775.35	252.24
775.532	272.72
775.715	321.87
775.897	270.67
776.079	231.76
776.261	336.21
776.444	332.11
776.626	252.24
776.808	227.67
776.99	311.63
777.173	340.3
777.355	239.95
777.537	325.97
777.719	262.48
777.901	319.82
778.083	258.39
778.265	248.15
778.447	317.78
778.629	307.54
778.811	287.06
778.993	282.96
779.175	338.26
779.357	260.43
779.539	317.78
779.721	264.53
779.903	276.82
780.085	285.01
780.267	219.47
780.449	309.58
780.631	303.44
780.812	205.14
780.994	289.1
781.176	180.56
781.358	209.23
781.54	262.48
781.721	258.39
781.903	272.72
782.085	209.23
782.267	215.38
782.448	248.15
782.63	297.3
782.812	248.15
782.993	272.72
783.175	221.52
783.357	184.66
783.538	242
783.72	250.19
783.901	170.32
784.083	178.51
784.264	198.99
784.446	223.57
784.627	182.61
784.809	178.51
784.99	252.24
785.172	217.43
785.353	190.8
785.535	260.43
785.716	225.62
785.897	188.75
786.079	196.95
786.26	227.67
786.441	233.81
786.623	166.23
786.804	162.13
786.985	137.56
787.167	231.76
787.348	139.6
787.529	188.75
787.71	211.28
787.891	92.5
788.073	119.12
788.254	235.86
788.435	166.23
788.616	252.24
788.797	215.38
788.978	172.37
789.159	182.61
789.34	158.03
789.522	131.41
789.703	186.71
789.884	166.23
790.065	164.18
790.246	153.94
790.427	207.19
790.607	246.1
790.788	180.56
790.969	59.73
791.15	184.66
791.331	194.9
791.512	172.37
791.693	219.47
791.874	121.17
792.054	166.23
792.235	86.36
792.416	184.66
792.597	129.36
792.778	137.56
792.958	186.71
793.139	141.65
793.32	143.7
793.5	158.03
793.681	180.56
793.862	108.88
794.042	145.75
794.223	57.68
794.404	176.47
794.584	123.22
794.765	67.92
794.945	106.84
795.126	172.37
795.306	82.26
795.487	137.56
795.667	178.51
795.848	125.27
796.028	117.08
796.209	147.8
796.389	164.18
796.57	151.89
796.75	125.27
796.93	139.6
797.111	127.32
797.291	133.46
797.471	168.27
797.652	133.46
797.832	61.78
798.012	158.03
798.192	94.55
798.373	94.55
798.553	160.08
798.733	207.19
798.913	162.13
799.093	84.31
799.274	72.02
799.454	141.65
799.634	43.35
799.814	112.98
799.994	123.22
800.174	110.93
800.354	104.79
800.534	90.45
800.714	100.69
800.894	106.84
801.074	53.59
801.254	141.65
801.434	127.32
801.614	47.44
801.794	-5.8
801.974	371.02
802.154	115.03
802.334	117.08
802.514	141.65
802.693	188.75
802.873	92.5
803.053	80.21
803.233	88.4
803.413	106.84
803.592	141.65
803.772	94.55
803.952	47.44
804.131	100.69
804.311	186.71
804.491	147.8
804.67	135.51
804.85	45.4
805.03	137.56
805.209	24.92
805.389	80.21
805.568	106.84
805.748	145.75
805.928	137.56
806.107	117.08
806.287	192.85
806.466	72.02
806.646	133.46
806.825	86.36
807.004	12.63
807.184	123.22
807.363	125.27
807.543	137.56
807.722	162.13
807.901	45.4
808.081	26.96
808.26	35.16
808.439	84.31
808.619	96.6
808.798	123.22
808.977	67.92
809.156	170.32
809.336	74.07
809.515	117.08
809.694	74.07
809.873	67.92
810.052	51.54
810.231	45.4
810.411	82.26
810.59	63.83
810.769	47.44
810.948	37.2
811.127	82.26
811.306	49.49
811.485	65.88
811.664	67.92
811.843	69.97
812.022	53.59
812.201	47.44
812.38	31.06
812.559	78.16
812.737	119.12
812.916	59.73
813.095	-18.09
813.274	65.88
813.453	88.4
813.632	82.26
813.811	47.44
813.989	12.63
814.168	57.68
814.347	82.26
814.526	108.88
814.704	63.83
814.883	24.92
815.062	59.73
815.24	90.45
815.419	90.45
815.598	26.96
815.776	102.74
815.955	96.6
816.133	-7.85
816.312	49.49
816.49	74.07
816.669	74.07
816.847	98.64
817.026	57.68
817.204	18.77
817.383	31.06
817.561	63.83
817.74	72.02
817.918	33.11
818.097	31.06
818.275	82.26
818.453	74.07
818.632	59.73
818.81	37.2
818.988	0.34
819.167	139.6
819.345	4.44
819.523	24.92
819.701	106.84
819.879	65.88
820.058	72.02
820.236	2.39
820.414	108.88
820.592	33.11
820.77	-28.33
820.948	51.54
821.127	45.4
821.305	37.2
821.483	14.68
821.661	110.93
821.839	-11.95
822.017	55.64
822.195	14.68
822.373	26.96
822.551	72.02
822.729	86.36
822.907	78.16
823.085	22.87
823.262	0.34
823.44	123.22
823.618	18.77
823.796	31.06
823.974	115.03
824.152	57.68
824.329	0.34
824.507	33.11
824.685	125.27
824.863	29.01
825.04	53.59
825.218	41.3
825.396	0.34
825.574	45.4
825.751	20.82
825.929	98.64
826.107	6.49
826.284	24.92
826.462	112.98
826.639	125.27
826.817	-44.71
826.994	-13.99
827.172	-20.14
827.349	90.45
827.527	43.35
827.704	22.87
827.882	-13.99
828.059	80.21
828.237	16.73
828.414	100.69
828.591	-3.75
828.769	39.25
828.946	22.87
829.124	24.92
829.301	0.34
829.478	16.73
829.655	16.73
829.833	-7.85
830.01	-18.09
830.187	90.45
830.364	51.54
830.542	-20.14
830.719	86.36
830.896	92.5
831.073	-13.99
831.25	127.32
831.427	-7.85
831.604	22.87
831.782	-7.85
831.959	43.35
832.136	-46.76
832.313	67.92
832.49	76.12
832.667	22.87
832.844	2.39
833.021	-11.95
833.198	-26.28
833.374	78.16
833.551	26.96
833.728	-20.14
833.905	18.77
834.082	-16.04
834.259	51.54
834.436	-22.19
834.612	69.97
834.789	94.55
834.966	90.45
835.143	10.58
835.319	59.73
835.496	106.84
835.673	-5.8
835.85	65.88
836.026	10.58
836.203	12.63
836.38	14.68
836.556	26.96
836.733	6.49
836.909	45.4
837.086	35.16
837.262	35.16
837.439	-40.62
837.616	35.16
837.792	26.96
837.968	57.68
838.145	63.83
838.321	41.3
838.498	29.01
838.674	45.4
838.851	35.16
839.027	76.12
839.203	41.3
839.38	106.84
839.556	4.44
839.732	12.63
839.909	10.58
840.085	86.36
840.261	69.97
840.437	-13.99
840.614	59.73
840.79	37.2
840.966	-3.75
841.142	90.45
841.318	33.11
841.494	22.87
841.671	80.21
841.847	18.77
842.023	-13.99
842.199	-13.99
842.375	37.2
842.551	37.2
842.727	0.34
842.903	49.49
843.079	-36.52
843.255	76.12
843.431	22.87
843.607	35.16
843.783	59.73
843.959	18.77
844.134	53.59
844.31	37.2
844.486	24.92
844.662	16.73
844.838	8.53
845.013	14.68
845.189	-38.57
845.365	22.87
845.541	4.44
845.716	43.35
845.892	104.79
846.068	35.16
846.244	16.73
846.419	59.73
846.595	37.2
846.77	-1.71
846.946	39.25
847.122	26.96
847.297	31.06
847.473	-1.71
847.648	31.06
847.824	29.01
847.999	14.68
848.175	-11.95
848.35	-44.71
848.526	57.68
848.701	47.44
848.876	41.3
849.052	47.44
849.227	31.06
849.403	37.2
849.578	33.11
849.753	-16.04
849.929	72.02
850.104	-48.81
850.279	-16.04
850.454	10.58
850.63	29.01
850.805	51.54
850.98	-13.99
851.155	-3.75
851.33	31.06
851.505	-1.71
851.681	0.34
851.856	-30.38
852.031	-20.14
852.206	0.34
852.381	-3.75
852.556	8.53
852.731	55.64
852.906	-11.95
853.081	65.88
853.256	33.11
853.431	39.25
853.606	-40.62
853.781	37.2
853.956	-11.95
854.131	14.68
854.305	18.77
854.48	-40.62
854.655	-32.43
854.83	-65.19
855.005	49.49
855.18	41.3
855.354	-20.14
855.529	-67.24
855.704	-11.95
855.879	98.64
856.053	-30.38
856.228	-52.91
856.403	26.96
856.577	-69.29
856.752	-36.52
856.926	51.54
857.101	-1.71
857.276	84.31
857.45	26.96
857.625	8.53
857.799	26.96
857.974	-24.23
858.148	0.34
858.323	55.64
858.497	51.54
858.672	18.77
858.846	-24.23
859.02	39.25
859.195	55.64
859.369	-20.14
859.543	47.44
859.718	45.4
859.892	0.34
860.066	26.96
860.241	37.2
860.415	55.64
860.589	31.06
860.763	51.54
860.938	-73.39
861.112	6.49
861.286	4.44
861.46	41.3
861.634	12.63
861.808	8.53
861.982	45.4
862.157	-13.99
862.331	-22.19
862.505	-7.85
862.679	18.77
862.853	-20.14
863.027	47.44
863.201	80.21
863.375	-63.15
863.549	43.35
863.722	-46.76
863.896	-67.24
864.07	-34.47
864.244	24.92
864.418	0.34
864.592	-7.85
864.766	53.59
864.939	37.2
865.113	43.35
865.287	82.26
865.461	53.59
865.634	-40.62
865.808	6.49
865.982	0.34
866.156	-48.81
866.329	-7.85
866.503	63.83
866.676	-3.75
866.85	45.4
867.024	22.87
867.197	20.82
867.371	10.58
867.544	47.44
867.718	-13.99
867.891	39.25
868.065	-22.19
868.238	84.31
868.412	26.96
868.585	-3.75
868.759	55.64
868.932	-7.85
869.105	57.68
869.279	26.96
869.452	-32.43
869.625	8.53
869.799	-42.67
869.972	-28.33
870.145	20.82
870.319	-1.71
870.492	33.11
870.665	10.58
870.838	10.58
871.011	-20.14
871.185	18.77
871.358	37.2
871.531	16.73
871.704	-22.19
871.877	22.87
872.05	12.63
872.223	35.16
872.396	4.44
872.569	6.49
872.742	-13.99
872.915	-13.99
873.088	-67.24
873.261	12.63
873.434	26.96
873.607	-1.71
873.78	18.77
873.953	8.53
874.126	22.87
874.299	82.26
874.471	14.68
874.644	-22.19
874.817	-28.33
874.99	-30.38
875.163	12.63
875.335	82.26
875.508	18.77
875.681	-16.04
875.853	100.69
876.026	-24.23
876.199	26.96
876.371	14.68
876.544	10.58
876.717	43.35
876.889	74.07
877.062	31.06
877.234	8.53
877.407	14.68
877.579	67.92
877.752	18.77
877.924	67.92
878.097	31.06
878.269	12.63
878.442	-50.86
878.614	26.96
878.786	88.4
878.959	29.01
879.131	-5.8
879.303	-71.34
879.476	2.39
879.648	16.73
879.82	-36.52
879.993	-20.14
880.165	-20.14
880.337	-38.57
880.509	59.73
880.681	-11.95
880.854	-18.09
881.026	-48.81
881.198	53.59
881.37	-67.24
881.542	-22.19
881.714	47.44
881.886	10.58
882.058	-40.62
882.23	59.73
882.402	31.06
882.574	6.49
882.746	35.16
882.918	43.35
883.09	-32.43
883.262	45.4
883.434	22.87
883.606	29.01
883.778	-5.8
883.95	76.12
884.122	29.01
884.293	14.68
884.465	76.12
884.637	-20.14
884.809	43.35
884.98	45.4
885.152	22.87
885.324	41.3
885.496	-7.85
885.667	-42.67
885.839	-3.75
886.011	-11.95
886.182	-13.99
886.354	-54.95
886.525	53.59
886.697	39.25
886.869	53.59
887.04	2.39
887.212	2.39
887.383	8.53
887.555	-9.9
887.726	-9.9
887.897	45.4
888.069	37.2
888.24	12.63
888.412	26.96
888.583	-24.23
888.754	80.21
888.926	-97.96
889.097	-11.95
889.268	-30.38
889.44	-11.95
889.611	-28.33
889.782	-44.71
889.953	4.44
890.125	51.54
890.296	-26.28
890.467	-5.8
890.638	26.96
890.809	49.49
890.98	-3.75
891.151	69.97
891.323	22.87
891.494	4.44
891.665	8.53
891.836	8.53
892.007	96.6
892.178	39.25
892.349	-83.63
892.52	-32.43
892.691	-18.09
892.862	-7.85
893.032	6.49
893.203	-13.99
893.374	-9.9
893.545	-34.47
893.716	-5.8
893.887	10.58
894.057	39.25
894.228	2.39
894.399	-24.23
894.57	-32.43
894.74	-9.9
894.911	69.97
895.082	39.25
895.253	6.49
895.423	-28.33
895.594	6.49
895.764	20.82
895.935	10.58
896.106	20.82
896.276	59.73
896.447	41.3
896.617	-61.1
896.788	-54.95
896.958	24.92
897.129	22.87
897.299	-5.8
897.47	2.39
897.64	24.92
897.81	-7.85
897.981	84.31
898.151	-100.01
898.322	-73.39
898.492	35.16
898.662	-59.05
898.832	47.44
899.003	16.73
899.173	10.58
899.343	4.44
899.513	-22.19
