Data from USB4F104151__31__12-53-39-385.txt Node

Date: Fri Mar 14 12:53:39 EDT 2025
User: louis
Spectrometer: USB4F10415
Trigger mode: 4
Integration Time (sec): 1.000000E-2
Scans to average: 1
Electric dark correction enabled: true
Nonlinearity correction enabled: false
Boxcar width: 0
XAxis mode: Wavelengths
Number of Pixels in Spectrum: 3648
>>>>>Begin Spectral Data<<<<<
178.204	-0.17
178.424	-0.17
178.644	-0.17
178.864	-65.71
179.084	-16.55
179.304	-45.23
179.524	-32.94
179.744	30.55
179.964	-6.31
180.184	1.88
180.404	1.88
180.624	16.21
180.844	-24.75
181.064	28.5
181.283	36.69
181.503	-14.51
181.723	8.02
181.943	-49.32
182.163	94.04
182.383	-6.31
182.602	53.08
182.822	57.17
183.042	16.21
183.262	-75.95
183.482	-43.18
183.701	-16.55
183.921	55.12
184.141	-8.36
184.361	16.21
184.58	-22.7
184.8	40.79
185.02	16.21
185.239	48.98
185.459	38.74
185.679	14.17
185.898	65.36
186.118	51.03
186.338	61.27
186.557	-37.03
186.777	-18.6
186.997	-0.17
187.216	3.93
187.436	79.7
187.655	26.45
187.875	65.36
188.095	-26.79
188.314	38.74
188.534	59.22
188.753	51.03
188.973	8.02
189.192	-18.6
189.412	55.12
189.631	96.08
189.851	40.79
190.07	85.84
190.29	75.6
190.509	14.17
190.729	-10.41
190.948	48.98
191.168	38.74
191.387	-20.65
191.607	-4.27
191.826	100.18
192.045	34.64
192.265	79.7
192.484	57.17
192.704	-104.62
192.923	65.36
193.142	116.56
193.362	16.21
193.581	20.31
193.8	-22.7
194.02	57.17
194.239	14.17
194.458	34.64
194.678	77.65
194.897	24.4
195.116	96.08
195.335	40.79
195.555	34.64
195.774	3.93
195.993	40.79
196.212	28.5
196.432	53.08
196.651	-28.84
196.87	67.41
197.089	79.7
197.308	-51.37
197.528	22.36
197.747	1.88
197.966	22.36
198.185	87.89
198.404	36.69
198.623	139.09
198.842	22.36
199.062	53.08
199.281	63.32
199.5	67.41
199.719	40.79
199.938	46.93
200.157	89.94
200.376	40.79
200.595	65.36
200.814	-0.17
201.033	55.12
201.252	42.84
201.471	32.6
201.69	26.45
201.909	63.32
202.128	5.97
202.347	65.36
202.566	22.36
202.785	132.95
203.004	-14.51
203.223	8.02
203.442	102.23
203.661	-18.6
203.879	38.74
204.098	16.21
204.317	32.6
204.536	77.65
204.755	26.45
204.974	20.31
205.193	44.88
205.411	116.56
205.63	12.12
205.849	63.32
206.068	57.17
206.287	32.6
206.505	87.89
206.724	55.12
206.943	-8.36
207.162	-2.22
207.381	-59.56
207.599	44.88
207.818	24.4
208.037	51.03
208.255	81.75
208.474	-14.51
208.693	96.08
208.911	30.55
209.13	26.45
209.349	38.74
209.567	59.22
209.786	79.7
210.005	34.64
210.223	5.97
210.442	51.03
210.661	98.13
210.879	30.55
211.098	-12.46
211.316	1.88
211.535	91.99
211.753	16.21
211.972	69.46
212.191	-26.79
212.409	26.45
212.628	-20.65
212.846	59.22
213.065	10.07
213.283	53.08
213.502	63.32
213.72	63.32
213.938	20.31
214.157	42.84
214.375	106.32
214.594	85.84
214.812	-24.75
215.031	48.98
215.249	104.28
215.467	34.64
215.686	-59.56
215.904	46.93
216.122	67.41
216.341	63.32
216.559	-41.13
216.778	73.56
216.996	87.89
217.214	34.64
217.432	12.12
217.651	30.55
217.869	38.74
218.087	46.93
218.306	57.17
218.524	30.55
218.742	12.12
218.96	89.94
219.179	-4.27
219.397	28.5
219.615	-8.36
219.833	14.17
220.051	51.03
220.27	81.75
220.488	57.17
220.706	36.69
220.924	8.02
221.142	40.79
221.36	87.89
221.578	-4.27
221.796	61.27
222.015	57.17
222.233	120.66
222.451	89.94
222.669	106.32
222.887	32.6
223.105	-8.36
223.323	73.56
223.541	91.99
223.759	57.17
223.977	-37.03
224.195	65.36
224.413	16.21
224.631	34.64
224.849	30.55
225.067	59.22
225.285	85.84
225.503	8.02
225.721	67.41
225.939	1.88
226.157	42.84
226.375	26.45
226.592	24.4
226.81	26.45
227.028	-8.36
227.246	73.56
227.464	87.89
227.682	67.41
227.9	63.32
228.117	28.5
228.335	30.55
228.553	87.89
228.771	28.5
228.989	22.36
229.206	61.27
229.424	94.04
229.642	51.03
229.86	118.61
230.077	91.99
230.295	69.46
230.513	48.98
230.731	79.7
230.948	36.69
231.166	36.69
231.384	-16.55
231.601	-16.55
231.819	8.02
232.037	91.99
232.254	65.36
232.472	8.02
232.689	67.41
232.907	34.64
233.125	116.56
233.342	87.89
233.56	-6.31
233.777	55.12
233.995	38.74
234.213	30.55
234.43	118.61
234.648	59.22
234.865	-26.79
235.083	79.7
235.3	67.41
235.518	81.75
235.735	53.08
235.953	59.22
236.17	75.6
236.388	40.79
236.605	10.07
236.822	85.84
237.04	55.12
237.257	44.88
237.475	34.64
237.692	118.61
237.909	-16.55
238.127	110.42
238.344	-4.27
238.562	63.32
238.779	94.04
238.996	53.08
239.214	85.84
239.431	30.55
239.648	75.6
239.865	28.5
240.083	26.45
240.3	112.47
240.517	-8.36
240.735	63.32
240.952	38.74
241.169	83.8
241.386	12.12
241.603	100.18
241.821	-2.22
242.038	55.12
242.255	73.56
242.472	-14.51
242.689	24.4
242.907	63.32
243.124	89.94
243.341	34.64
243.558	51.03
243.775	40.79
243.992	118.61
244.209	-14.51
244.426	32.6
244.643	24.4
244.86	48.98
245.078	42.84
245.295	87.89
245.512	59.22
245.729	36.69
245.946	77.65
246.163	-16.55
246.38	34.64
246.597	81.75
246.814	-0.17
247.031	-37.03
247.248	75.6
247.464	24.4
247.681	-18.6
247.898	63.32
248.115	38.74
248.332	14.17
248.549	22.36
248.766	104.28
248.983	71.51
249.2	75.6
249.417	63.32
249.633	22.36
249.85	-18.6
250.067	24.4
250.284	-32.94
250.501	108.37
250.717	46.93
250.934	-26.79
251.151	22.36
251.368	51.03
251.585	57.17
251.801	5.97
252.018	12.12
252.235	12.12
252.451	65.36
252.668	57.17
252.885	59.22
253.102	28.5
253.318	30.55
253.535	65.36
253.752	26.45
253.968	5.97
254.185	57.17
254.401	30.55
254.618	-22.7
254.835	14.17
255.051	28.5
255.268	53.08
255.484	98.13
255.701	-32.94
255.917	98.13
256.134	30.55
256.351	53.08
256.567	-28.84
256.784	65.36
257	55.12
257.217	63.32
257.433	14.17
257.65	22.36
257.866	132.95
258.082	-2.22
258.299	18.26
258.515	34.64
258.732	40.79
258.948	53.08
259.165	-4.27
259.381	89.94
259.597	59.22
259.814	63.32
260.03	51.03
260.246	151.38
260.463	-6.31
260.679	77.65
260.895	-8.36
261.112	44.88
261.328	110.42
261.544	63.32
261.761	81.75
261.977	-32.94
262.193	-10.41
262.409	36.69
262.626	14.17
262.842	77.65
263.058	18.26
263.274	3.93
263.49	57.17
263.707	128.85
263.923	12.12
264.139	30.55
264.355	77.65
264.571	28.5
264.787	53.08
265.004	94.04
265.22	32.6
265.436	3.93
265.652	28.5
265.868	30.55
266.084	83.8
266.3	8.02
266.516	1.88
266.732	-28.84
266.948	73.56
267.164	36.69
267.38	14.17
267.596	22.36
267.812	122.71
268.028	-20.65
268.244	32.6
268.46	157.52
268.676	77.65
268.892	100.18
269.108	38.74
269.324	94.04
269.54	5.97
269.756	32.6
269.972	-55.47
270.188	104.28
270.403	-2.22
270.619	32.6
270.835	-26.79
271.051	-0.17
271.267	59.22
271.483	53.08
271.698	-6.31
271.914	44.88
272.13	59.22
272.346	38.74
272.562	5.97
272.777	83.8
272.993	12.12
273.209	59.22
273.425	38.74
273.64	61.27
273.856	83.8
274.072	-4.27
274.287	40.79
274.503	108.37
274.719	-8.36
274.934	89.94
275.15	36.69
275.366	-39.08
275.581	26.45
275.797	1.88
276.012	3.93
276.228	20.31
276.444	3.93
276.659	-12.46
276.875	8.02
277.09	-24.75
277.306	98.13
277.521	32.6
277.737	1.88
277.952	81.75
278.168	8.02
278.383	12.12
278.599	34.64
278.814	3.93
279.03	1.88
279.245	67.41
279.461	79.7
279.676	63.32
279.892	77.65
280.107	-10.41
280.322	77.65
280.538	67.41
280.753	26.45
280.969	3.93
281.184	10.07
281.399	106.32
281.615	42.84
281.83	30.55
282.045	18.26
282.26	85.84
282.476	83.8
282.691	42.84
282.906	87.89
283.122	24.4
283.337	30.55
283.552	12.12
283.767	-30.89
283.983	67.41
284.198	-6.31
284.413	87.89
284.628	-16.55
284.843	14.17
285.058	10.07
285.274	124.76
285.489	-45.23
285.704	53.08
285.919	36.69
286.134	63.32
286.349	5.97
286.564	73.56
286.779	100.18
286.995	20.31
287.21	73.56
287.425	87.89
287.64	48.98
287.855	10.07
288.07	65.36
288.285	32.6
288.5	59.22
288.715	34.64
288.93	-39.08
289.145	59.22
289.36	12.12
289.575	10.07
289.79	46.93
290.004	-26.79
290.219	48.98
290.434	116.56
290.649	18.26
290.864	24.4
291.079	10.07
291.294	55.12
291.509	14.17
291.724	32.6
291.938	36.69
292.153	55.12
292.368	-6.31
292.583	12.12
292.798	38.74
293.012	28.5
293.227	30.55
293.442	100.18
293.657	38.74
293.871	96.08
294.086	3.93
294.301	55.12
294.516	-2.22
294.73	55.12
294.945	46.93
295.16	-18.6
295.374	102.23
295.589	-0.17
295.804	63.32
296.018	34.64
296.233	65.36
296.447	87.89
296.662	46.93
296.877	44.88
297.091	12.12
297.306	63.32
297.52	55.12
297.735	81.75
297.949	63.32
298.164	59.22
298.378	83.8
298.593	116.56
298.807	16.21
299.022	38.74
299.236	32.6
299.451	22.36
299.665	20.31
299.88	57.17
300.094	65.36
300.309	79.7
300.523	83.8
300.737	42.84
300.952	-0.17
301.166	71.51
301.381	28.5
301.595	71.51
301.809	85.84
302.024	-32.94
302.238	26.45
302.452	51.03
302.667	89.94
302.881	44.88
303.095	71.51
303.309	69.46
303.524	-26.79
303.738	22.36
303.952	91.99
304.166	46.93
304.381	61.27
304.595	34.64
304.809	71.51
305.023	-4.27
305.237	3.93
305.452	83.8
305.666	46.93
305.88	3.93
306.094	40.79
306.308	69.46
306.522	67.41
306.736	38.74
306.95	24.4
307.164	-39.08
307.379	55.12
307.593	18.26
307.807	63.32
308.021	77.65
308.235	53.08
308.449	-2.22
308.663	22.36
308.877	89.94
309.091	94.04
309.305	122.71
309.519	79.7
309.733	36.69
309.947	-4.27
310.161	16.21
310.374	32.6
310.588	73.56
310.802	81.75
311.016	87.89
311.23	42.84
311.444	-49.32
311.658	75.6
311.872	28.5
312.085	73.56
312.299	112.47
312.513	53.08
312.727	30.55
312.941	26.45
313.154	10.07
313.368	75.6
313.582	57.17
313.796	38.74
314.009	55.12
314.223	59.22
314.437	3.93
314.651	24.4
314.864	34.64
315.078	14.17
315.292	87.89
315.505	38.74
315.719	126.8
315.933	38.74
316.146	83.8
316.36	3.93
316.573	79.7
316.787	55.12
317.001	87.89
317.214	59.22
317.428	55.12
317.641	28.5
317.855	65.36
318.068	24.4
318.282	-18.6
318.495	61.27
318.709	20.31
318.922	53.08
319.136	5.97
319.349	-14.51
319.563	34.64
319.776	65.36
319.99	96.08
320.203	32.6
320.417	100.18
320.63	3.93
320.843	67.41
321.057	46.93
321.27	24.4
321.483	59.22
321.697	116.56
321.91	65.36
322.124	32.6
322.337	34.64
322.55	48.98
322.763	71.51
322.977	55.12
323.19	24.4
323.403	61.27
323.617	57.17
323.83	51.03
324.043	32.6
324.256	14.17
324.469	46.93
324.683	57.17
324.896	22.36
325.109	24.4
325.322	12.12
325.535	112.47
325.748	65.36
325.962	24.4
326.175	-2.22
326.388	67.41
326.601	42.84
326.814	22.36
327.027	28.5
327.24	100.18
327.453	46.93
327.666	75.6
327.879	-2.22
328.092	96.08
328.305	85.84
328.518	104.28
328.731	79.7
328.944	59.22
329.157	14.17
329.37	102.23
329.583	38.74
329.796	24.4
330.009	65.36
330.222	46.93
330.435	46.93
330.648	8.02
330.861	48.98
331.073	55.12
331.286	102.23
331.499	100.18
331.712	3.93
331.925	-18.6
332.138	94.04
332.35	83.8
332.563	-6.31
332.776	75.6
332.989	22.36
333.202	46.93
333.414	14.17
333.627	75.6
333.84	120.66
334.053	108.37
334.265	1.88
334.478	16.21
334.691	59.22
334.903	36.69
335.116	61.27
335.329	55.12
335.541	-2.22
335.754	126.8
335.966	42.84
336.179	46.93
336.392	18.26
336.604	16.21
336.817	108.37
337.029	65.36
337.242	126.8
337.454	171.86
337.667	-18.6
337.88	85.84
338.092	118.61
338.305	73.56
338.517	12.12
338.729	34.64
338.942	36.69
339.154	89.94
339.367	12.12
339.579	-6.31
339.792	55.12
340.004	34.64
340.217	116.56
340.429	81.75
340.641	51.03
340.854	40.79
341.066	48.98
341.278	110.42
341.491	46.93
341.703	112.47
341.915	-14.51
342.128	75.6
342.34	1.88
342.552	10.07
342.764	18.26
342.977	16.21
343.189	28.5
343.401	79.7
343.613	130.9
343.826	69.46
344.038	26.45
344.25	42.84
344.462	53.08
344.674	34.64
344.886	55.12
345.099	-0.17
345.311	135
345.523	61.27
345.735	67.41
345.947	30.55
346.159	16.21
346.371	8.02
346.583	44.88
346.795	63.32
347.007	-24.75
347.219	48.98
347.431	18.26
347.643	71.51
347.855	79.7
348.067	108.37
348.279	44.88
348.491	73.56
348.703	59.22
348.915	-4.27
349.127	65.36
349.339	77.65
349.551	65.36
349.763	48.98
349.975	87.89
350.187	83.8
350.399	26.45
350.61	81.75
350.822	51.03
351.034	61.27
351.246	24.4
351.458	94.04
351.669	46.93
351.881	16.21
352.093	75.6
352.305	89.94
352.517	12.12
352.728	75.6
352.94	75.6
353.152	-20.65
353.363	81.75
353.575	87.89
353.787	18.26
353.999	40.79
354.21	44.88
354.422	51.03
354.633	89.94
354.845	30.55
355.057	67.41
355.268	16.21
355.48	87.89
355.692	40.79
355.903	30.55
356.115	-4.27
356.326	42.84
356.538	40.79
356.749	14.17
356.961	34.64
357.172	63.32
357.384	63.32
357.595	122.71
357.807	55.12
358.018	77.65
358.23	57.17
358.441	71.51
358.653	104.28
358.864	-18.6
359.075	87.89
359.287	16.21
359.498	36.69
359.709	79.7
359.921	61.27
360.132	30.55
360.344	36.69
360.555	30.55
360.766	75.6
360.977	10.07
361.189	3.93
361.4	53.08
361.611	91.99
361.823	51.03
362.034	63.32
362.245	5.97
362.456	26.45
362.667	94.04
362.879	59.22
363.09	79.7
363.301	32.6
363.512	57.17
363.723	44.88
363.935	102.23
364.146	36.69
364.357	34.64
364.568	51.03
364.779	-22.7
364.99	139.09
365.201	44.88
365.412	71.51
365.623	69.46
365.834	57.17
366.045	75.6
366.256	22.36
366.467	32.6
366.678	57.17
366.889	53.08
367.1	104.28
367.311	87.89
367.522	61.27
367.733	14.17
367.944	53.08
368.155	114.52
368.366	116.56
368.577	59.22
368.788	69.46
368.999	67.41
369.209	106.32
369.42	126.8
369.631	91.99
369.842	81.75
370.053	91.99
370.264	34.64
370.474	79.7
370.685	91.99
370.896	8.02
371.107	46.93
371.317	67.41
371.528	65.36
371.739	100.18
371.95	73.56
372.16	89.94
372.371	-0.17
372.582	83.8
372.792	71.51
373.003	-8.36
373.214	14.17
373.424	55.12
373.635	67.41
373.846	85.84
374.056	94.04
374.267	28.5
374.477	40.79
374.688	63.32
374.898	40.79
375.109	20.31
375.319	14.17
375.53	79.7
375.74	110.42
375.951	30.55
376.161	73.56
376.372	98.13
376.582	77.65
376.793	-0.17
377.003	-18.6
377.214	61.27
377.424	-4.27
377.635	48.98
377.845	65.36
378.055	32.6
378.266	32.6
378.476	-6.31
378.686	20.31
378.897	69.46
379.107	32.6
379.317	8.02
379.528	94.04
379.738	20.31
379.948	40.79
380.158	96.08
380.369	24.4
380.579	24.4
380.789	24.4
380.999	81.75
381.21	65.36
381.42	65.36
381.63	44.88
381.84	96.08
382.05	132.95
382.261	91.99
382.471	94.04
382.681	30.55
382.891	55.12
383.101	12.12
383.311	-2.22
383.521	69.46
383.731	34.64
383.941	71.51
384.151	10.07
384.361	14.17
384.571	100.18
384.781	44.88
384.991	75.6
385.201	163.67
385.411	26.45
385.621	-12.46
385.831	12.12
386.041	118.61
386.251	42.84
386.461	22.36
386.671	75.6
386.881	67.41
387.091	22.36
387.301	40.79
387.511	38.74
387.72	26.45
387.93	135
388.14	42.84
388.35	89.94
388.56	112.47
388.769	91.99
388.979	75.6
389.189	100.18
389.399	69.46
389.609	24.4
389.818	135
390.028	48.98
390.238	112.47
390.447	16.21
390.657	32.6
390.867	-6.31
391.076	59.22
391.286	-8.36
391.496	81.75
391.705	38.74
391.915	128.85
392.125	16.21
392.334	10.07
392.544	18.26
392.753	44.88
392.963	75.6
393.172	81.75
393.382	38.74
393.591	126.8
393.801	51.03
394.01	112.47
394.22	96.08
394.429	91.99
394.639	81.75
394.848	12.12
395.058	91.99
395.267	-4.27
395.477	112.47
395.686	96.08
395.895	73.56
396.105	120.66
396.314	44.88
396.524	8.02
396.733	120.66
396.942	98.13
397.152	61.27
397.361	132.95
397.57	114.52
397.78	108.37
397.989	155.47
398.198	81.75
398.407	26.45
398.617	38.74
398.826	94.04
399.035	53.08
399.244	75.6
399.453	98.13
399.663	89.94
399.872	26.45
400.081	120.66
400.29	81.75
400.499	57.17
400.708	132.95
400.917	106.32
401.127	130.9
401.336	81.75
401.545	165.71
401.754	61.27
401.963	130.9
402.172	79.7
402.381	83.8
402.59	104.28
402.799	57.17
403.008	12.12
403.217	100.18
403.426	122.71
403.635	79.7
403.844	53.08
404.053	114.52
404.262	98.13
404.471	110.42
404.68	128.85
404.888	79.7
405.097	71.51
405.306	161.62
405.515	114.52
405.724	112.47
405.933	139.09
406.142	153.43
406.35	91.99
406.559	71.51
406.768	178
406.977	173.91
407.185	124.76
407.394	132.95
407.603	98.13
407.812	122.71
408.02	104.28
408.229	104.28
408.438	157.52
408.646	87.89
408.855	108.37
409.064	108.37
409.272	184.15
409.481	202.58
409.69	147.28
409.898	200.53
410.107	268.11
410.315	200.53
410.524	214.87
410.733	112.47
410.941	221.01
411.15	233.3
411.358	241.49
411.567	212.82
411.775	247.63
411.984	225.11
412.192	268.11
412.401	229.2
412.609	210.77
412.818	270.16
413.026	227.15
413.234	319.31
413.443	270.16
413.651	352.08
413.86	231.25
414.068	311.12
414.276	341.84
414.485	257.87
414.693	374.61
414.901	380.75
415.11	440.14
415.318	315.22
415.526	374.61
415.734	458.57
415.943	384.85
416.151	464.72
416.359	401.23
416.567	546.64
416.776	485.2
416.984	544.59
417.192	464.72
417.4	532.3
417.608	515.92
417.817	571.21
418.025	606.03
418.233	526.16
418.441	534.35
418.649	618.32
418.857	622.41
419.065	634.7
419.273	659.28
419.481	722.76
419.689	757.58
419.897	849.74
420.105	788.3
420.313	759.63
420.521	802.63
420.729	814.92
420.937	792.39
421.145	962.37
421.353	900.94
421.561	993.09
421.769	907.08
421.977	1029.96
422.185	886.6
422.393	1105.73
422.601	1247.04
422.809	1118.02
423.017	1173.32
423.224	1163.08
423.432	1267.52
423.64	1195.84
423.848	1242.95
424.056	1351.49
424.263	1462.08
424.471	1285.95
424.679	1382.21
424.887	1556.29
425.094	1529.66
425.302	1564.48
425.51	1619.77
425.718	1611.58
425.925	1687.36
426.133	1703.74
426.341	1812.28
426.548	1998.65
426.756	1994.55
426.964	2008.89
427.171	2017.08
427.379	2086.71
427.586	1992.5
427.794	2234.16
428.001	2307.89
428.209	2477.87
428.417	2332.47
428.624	2547.5
428.832	2443.06
429.039	2606.89
429.247	2494.26
429.454	2606.89
429.662	2864.94
429.869	2860.84
430.076	2875.18
430.284	2967.34
430.491	2998.06
430.699	3219.24
430.906	3147.56
431.114	3102.5
431.321	3350.31
431.528	3413.79
431.736	3567.39
431.943	3692.32
432.15	3671.84
432.358	3723.04
432.565	3876.63
432.772	3917.59
432.979	4073.24
433.187	3985.18
433.394	4149.01
433.601	4593.42
433.808	4486.93
434.016	4386.58
434.223	4435.73
434.43	4957.96
434.637	4800.27
434.844	5156.61
435.052	5156.61
435.259	5117.7
435.466	5224.2
435.673	5226.25
435.88	5502.72
436.087	5779.2
436.294	5938.94
436.501	5664.51
436.708	5875.45
436.915	6016.76
437.122	6332.15
437.329	6426.36
437.537	6500.08
437.743	6561.52
437.95	6459.12
438.157	6934.25
438.364	7134.95
438.571	7233.25
438.778	7263.97
438.985	7755.49
439.192	7542.5
439.399	7837.41
439.606	7694.05
439.813	8017.63
440.02	8500.95
440.227	8351.45
440.433	8062.68
440.64	8517.33
440.847	8419.03
441.054	8648.4
441.261	9215.69
441.467	9076.43
441.674	9391.81
441.881	9647.81
442.088	9541.32
442.294	9666.24
442.501	9742.02
442.708	10006.2
442.914	10591.92
443.121	11038.38
443.328	10688.18
443.534	11351.72
443.741	10995.37
443.948	11022
444.154	11679.4
444.361	11445.93
444.568	11749.03
444.774	11796.13
444.981	11857.57
445.187	12127.9
445.394	12783.25
445.6	12695.19
445.807	13960.83
446.013	13139.6
446.22	13475.46
446.426	13948.54
446.633	14122.62
446.839	14679.67
447.046	14018.18
447.252	14820.98
447.459	14931.57
447.665	14820.98
447.871	15588.97
448.078	16242.27
448.284	15418.99
448.491	15623.78
448.697	16240.22
448.903	16580.18
449.11	16789.08
449.316	16625.24
449.522	16451.16
449.728	17284.69
449.935	17124.94
450.141	17286.73
450.347	17614.41
450.553	17083.98
450.76	17253.97
450.966	17970.76
451.172	17745.48
451.378	18251.33
451.584	17856.07
451.791	18220.61
451.997	18490.94
452.203	18482.75
452.409	18742.84
452.615	18177.6
452.821	17919.56
453.027	17561.16
453.233	18705.98
453.44	17788.49
453.646	18077.25
453.852	17931.84
454.058	18454.08
454.264	17888.84
454.47	18400.83
454.676	17856.07
454.882	18611.77
455.088	16752.21
455.294	17071.7
455.5	17256.01
455.705	17587.78
455.911	17073.74
456.117	16420.44
456.323	16350.81
456.529	15441.51
456.735	16338.52
456.941	15631.97
457.147	15580.78
457.352	15068.78
457.558	14749.3
457.764	14900.85
457.97	14630.52
458.176	14315.13
458.381	14331.51
458.587	13741.7
458.793	13667.97
458.999	12973.71
459.204	13858.43
459.41	13526.66
459.616	12385.94
459.821	12662.42
460.027	12633.75
460.233	12369.56
460.438	11765.41
460.644	11919.01
460.85	11400.87
461.055	11130.54
461.261	10997.42
461.466	10221.24
461.672	10124.99
461.878	10727.09
462.083	10051.26
462.289	9750.21
462.494	9864.89
462.7	9082.57
462.905	9082.57
463.111	9676.48
463.316	9475.78
463.522	9090.76
463.727	9250.5
463.932	9275.08
464.138	9164.49
464.343	9109.19
464.549	8845.01
464.754	9424.58
464.959	9051.85
465.165	9270.98
465.37	8715.98
465.575	8754.9
465.781	8933.07
465.986	8758.99
466.191	8675.02
466.397	8376.02
466.602	8042.2
466.807	8294.1
467.012	8201.94
467.218	8371.93
467.423	8124.12
467.628	8277.72
467.833	8761.04
468.038	8408.79
468.244	8015.58
468.449	8445.65
468.654	8064.73
468.859	8052.44
469.064	7941.85
469.269	7638.75
469.474	7663.33
469.679	8031.96
469.885	7608.03
470.09	7716.58
470.295	7837.41
470.5	7659.23
470.705	7622.37
470.91	7487.2
471.115	7509.73
471.32	7495.39
471.525	7380.71
471.73	7155.43
471.935	7241.45
472.139	7046.89
472.344	7083.75
472.549	7208.68
472.754	6940.4
472.959	6964.97
473.164	6870.76
473.369	6586.1
473.574	6958.83
473.778	6807.28
473.983	6637.3
474.188	6510.32
474.393	6420.21
474.598	6309.62
474.802	6344.44
475.007	6295.29
475.212	6258.42
475.417	6135.54
475.621	6168.31
475.826	6076.15
476.031	5971.71
476.235	5889.79
476.44	6065.91
476.645	5725.95
476.849	5736.19
477.054	5725.95
477.259	5451.52
477.463	5699.33
477.668	5408.51
477.872	5486.34
478.077	5357.32
478.282	5437.19
478.486	5285.64
478.691	5250.82
478.895	5377.8
479.1	5211.91
479.304	5326.6
479.509	5117.7
479.713	5224.2
479.918	5093.13
480.122	5015.3
480.326	5072.65
480.531	4955.91
480.735	5218.05
480.94	4939.53
481.144	5193.48
481.348	4902.67
481.553	5013.26
481.757	4882.19
481.961	5101.32
482.166	4947.72
482.37	4966.15
482.574	4892.43
482.778	4826.89
482.983	4792.08
483.187	4841.23
483.391	5000.97
483.595	4904.71
483.8	4792.08
484.004	4873.99
484.208	4896.52
484.412	4818.7
484.616	4855.56
484.821	4910.86
485.025	4759.31
485.229	5025.54
485.433	4912.91
485.637	4986.63
485.841	4841.23
486.045	4830.99
486.249	4972.3
486.453	4906.76
486.657	4904.71
486.861	4925.19
487.065	4830.99
487.269	4800.27
487.473	4863.76
487.677	5011.21
487.881	5029.64
488.085	4790.03
488.289	5082.89
488.493	4976.39
488.697	4869.9
488.901	4996.87
489.105	4816.65
489.309	5015.3
489.512	5146.37
489.716	5070.6
489.92	5105.42
490.124	5080.84
490.328	5142.28
490.531	4937.48
490.735	5060.36
490.939	5113.61
491.143	5125.9
491.346	5353.22
491.55	5224.2
491.754	5205.77
491.958	5191.43
492.161	5162.76
492.365	5396.23
492.569	5453.57
492.772	5281.54
492.976	5445.38
493.18	5420.8
493.383	5533.44
493.587	5564.16
493.79	5719.81
493.994	5728
494.197	5551.87
494.401	5639.94
494.605	5715.71
494.808	5844.73
495.012	5656.32
495.215	5738.24
495.419	6027
495.622	5852.92
495.825	6033.15
496.029	6141.69
496.232	6186.74
496.436	6139.64
496.639	6348.53
496.843	6319.86
497.046	6487.79
497.249	6377.2
497.453	6643.44
497.656	6596.34
497.859	6711.02
498.063	6702.83
498.266	6903.53
498.469	6850.28
498.673	7057.13
498.876	7184.1
499.079	7087.85
499.282	7272.17
499.485	7421.67
499.689	7251.69
499.892	7495.39
500.095	7573.22
500.298	7939.8
500.501	7716.58
500.705	8060.63
500.908	8117.98
501.111	8378.07
501.314	8314.58
501.517	8453.84
501.72	8529.62
501.923	8558.29
502.126	8742.61
502.329	8853.2
502.532	9154.25
502.735	8894.16
502.938	9160.39
503.141	9211.59
503.344	9420.49
503.547	9488.07
503.75	9721.54
503.953	9766.59
504.156	10024.64
504.359	10051.26
504.562	10167.99
504.765	10530.48
504.968	10462.9
505.17	10376.89
505.373	10737.33
505.576	10835.63
505.779	11249.32
505.982	11085.48
506.185	11554.47
506.387	11450.02
506.59	11550.37
506.793	11841.18
506.996	11910.82
507.198	12187.29
507.401	12480.15
507.604	12461.72
507.807	12672.66
508.009	12781.2
508.212	13139.6
508.415	13262.47
508.617	13356.68
508.82	13203.08
509.022	13483.66
509.225	13713.03
509.428	13850.24
509.63	14096
509.833	14096
510.035	14526.07
510.238	14659.19
510.44	14599.8
510.643	15138.41
510.845	15093.36
511.048	15324.78
511.25	15394.41
511.453	15480.43
511.655	15894.11
511.858	16113.25
512.06	16262.75
512.262	16522.84
512.465	16705.11
512.667	16838.23
512.87	16899.67
513.072	17139.28
513.274	17440.33
513.477	17741.38
513.679	17800.77
513.881	17960.52
514.084	18390.59
514.286	18607.67
514.488	18742.84
514.69	19131.95
514.893	19109.43
515.095	19199.54
515.297	19889.7
515.499	19783.21
515.701	20018.72
515.904	20444.7
516.106	20254.24
516.308	20469.28
516.51	20674.07
516.712	20919.83
516.914	21059.09
517.116	21728.78
517.318	21415.44
517.52	21904.9
517.722	22011.4
517.925	22035.97
518.127	22627.84
518.329	22576.64
518.531	22707.71
518.733	23117.3
518.935	23363.06
519.136	23199.22
519.338	23619.05
519.54	23891.43
519.742	24190.44
519.944	24307.17
520.146	24780.25
520.348	25044.44
520.55	24847.83
520.752	25284.05
520.954	25771.47
521.155	25365.97
521.357	25943.5
521.559	26318.28
521.761	26344.9
521.963	26574.27
522.164	26637.76
522.366	26852.8
522.568	26840.51
522.77	27010.49
522.971	27444.66
523.173	27708.85
523.375	27700.65
523.576	28331.43
523.778	28100.01
523.98	28450.21
524.181	28259.75
524.383	28863.9
524.584	28870.04
524.786	29072.79
524.988	29259.16
525.189	29263.25
525.391	29314.45
525.592	29900.17
525.794	29631.89
525.995	29902.22
526.197	30342.53
526.398	29910.41
526.6	30619.01
526.801	30811.52
527.003	30752.13
527.204	30725.5
527.406	31081.85
527.607	31155.58
527.808	31030.65
528.01	30682.5
528.211	31208.83
528.412	32136.55
528.614	31638.9
528.815	31649.14
529.016	32171.37
529.218	31700.34
529.419	31931.76
529.62	32077.16
529.822	32400.74
530.023	32324.97
530.224	32335.21
530.425	32562.53
530.626	32386.41
530.828	32347.5
531.029	32736.61
531.23	32757.09
531.431	32486.76
531.632	32904.54
531.833	32761.19
532.035	33080.67
532.236	32990.56
532.437	33219.93
532.638	33101.15
532.839	33039.71
533.04	33377.62
533.241	33176.92
533.442	33637.72
533.643	33535.32
533.844	33514.84
534.045	33457.49
534.246	33228.12
534.447	33977.68
534.648	33707.35
534.849	33543.51
535.05	33391.96
535.251	33903.95
535.451	33740.11
535.652	33850.7
535.853	33815.89
536.054	33686.87
536.255	33633.62
536.456	33686.87
536.657	33967.44
536.857	33891.66
537.058	34080.08
537.259	34073.93
537.46	34268.49
537.66	34043.21
537.861	34166.09
538.062	33885.52
538.263	34219.34
538.463	34340.17
538.664	34108.75
538.865	34055.5
539.065	34514.25
539.266	34049.36
539.466	34542.92
539.667	34002.25
539.868	34643.27
540.068	34571.59
540.269	34401.61
540.469	34536.77
540.67	34592.07
540.87	34092.37
541.071	34360.65
541.271	34788.67
541.472	34196.81
541.672	34594.12
541.873	34393.42
542.073	34207.05
542.274	34641.22
542.474	34573.64
542.675	34485.58
542.875	34682.18
543.075	34583.88
543.276	34252.11
543.476	34925.89
543.676	34393.42
543.877	34325.83
544.077	35048.77
544.277	34628.93
544.478	34788.67
544.678	34829.63
544.878	34510.15
545.078	34489.67
545.279	34688.32
545.479	34784.58
545.679	34897.22
545.879	34590.02
546.079	34866.5
546.28	34694.47
546.48	34432.33
546.68	34753.86
546.88	34925.89
547.08	34673.99
547.28	34698.56
547.48	34508.1
547.68	34618.69
547.88	34565.45
548.081	35005.76
548.281	34600.26
548.481	34798.91
548.681	34870.59
548.881	34792.77
549.081	34821.44
549.28	34481.48
549.48	34936.13
549.68	34465.1
549.88	35157.31
550.08	35036.48
550.28	35181.88
550.48	34968.9
550.68	34970.94
550.88	34524.49
551.08	34991.42
551.279	34948.42
551.479	34573.64
551.679	34856.26
551.879	34809.15
552.079	34903.36
552.278	34583.88
552.478	34886.98
552.678	35124.54
552.878	34846.02
553.077	34901.31
553.277	34635.08
553.477	35179.84
553.676	34725.19
553.876	34757.95
554.076	34612.55
554.275	34929.98
554.475	34348.36
554.674	34880.83
554.874	35044.67
555.074	34753.86
555.273	34540.87
555.473	34649.41
555.672	34272.59
555.872	34755.91
556.071	35130.69
556.271	34917.7
556.47	34661.7
556.67	34239.82
556.869	34590.02
557.068	34839.87
557.268	34596.17
557.467	34587.97
557.667	34772.29
557.866	34743.62
558.065	34559.3
558.265	34405.7
558.464	34182.48
558.663	34798.91
558.863	34303.31
559.062	34882.88
559.261	34096.46
559.461	34534.73
559.66	33852.75
559.859	34323.79
560.058	34207.05
560.258	34630.98
560.457	33994.06
560.656	34264.39
560.855	34205
561.054	34506.05
561.253	34037.07
561.453	33953.1
561.652	34151.76
561.851	34485.58
562.05	34205
562.249	34039.12
562.448	34055.5
562.647	34239.82
562.846	33877.33
563.045	34219.34
563.244	33658.2
563.443	34233.67
563.642	33766.74
563.841	33856.85
564.04	33746.26
564.239	34243.91
564.438	33230.17
564.637	33645.91
564.836	33953.1
565.035	33793.36
565.234	34184.52
565.432	33457.49
565.631	33318.23
565.83	33965.39
566.029	33459.54
566.228	33334.62
566.427	33531.22
566.625	33363.29
566.824	33174.88
567.023	33750.35
567.222	33256.79
567.42	33412.44
567.619	33367.38
567.818	33357.14
568.016	32894.3
568.215	33715.54
568.414	33168.73
568.612	32922.97
568.811	33031.52
569.01	33197.4
569.208	32435.56
569.407	33287.51
569.605	32759.14
569.804	33008.99
570.002	32925.02
570.201	32691.55
570.4	32632.16
570.598	32576.87
570.797	32638.31
570.995	32466.28
571.193	32370.02
571.392	32505.19
571.59	32197.99
571.789	32730.47
571.987	32116.08
572.186	32417.13
572.384	32359.78
572.582	32560.48
572.781	32396.65
572.979	31872.37
573.177	32243.05
573.376	32177.51
573.574	31626.61
573.772	31976.81
573.971	31698.29
574.169	31780.21
574.367	31464.82
574.565	31665.52
574.763	31614.32
574.962	31458.68
575.16	31366.52
575.358	31579.51
575.556	31294.84
575.754	31456.63
575.952	31006.08
576.151	31323.51
576.349	30860.67
576.547	31075.71
576.745	31034.75
576.943	30926.21
577.141	31208.83
577.339	30809.47
577.537	30940.54
577.735	30764.42
577.933	30786.94
578.131	30526.85
578.329	30344.58
578.527	30442.88
578.725	30475.65
578.923	30649.73
579.121	30070.15
579.319	30244.23
579.516	30457.22
579.714	30129.55
579.912	30100.87
580.11	29922.7
580.308	30115.21
580.506	29865.36
580.704	29590.93
580.901	29801.87
581.099	29490.58
581.297	29588.88
581.495	29357.46
581.692	29367.7
581.89	29298.07
582.088	29549.97
582.285	29398.42
582.483	29248.92
582.681	29347.22
582.878	29205.91
583.076	28933.53
583.274	28679.58
583.471	28534.18
583.669	28874.14
583.866	28337.57
584.064	28925.34
584.262	28265.89
584.459	28444.07
584.657	28181.93
584.854	28728.73
585.052	27823.53
585.249	28388.77
585.447	28231.08
585.644	28067.24
585.841	27776.43
586.039	28460.45
586.236	27778.48
586.434	27725.23
586.631	27575.73
586.828	27647.41
587.026	27807.15
587.223	27524.53
587.42	27131.32
587.618	27454.9
587.815	27471.28
588.012	27313.59
588.21	27088.31
588.407	27319.73
588.604	27094.46
588.801	27063.74
588.999	27243.96
589.196	26514.88
589.393	26703.29
589.59	26543.55
589.787	26430.91
589.984	26725.82
590.182	26248.64
590.379	26478.02
590.576	26435.01
590.773	26252.74
590.97	25996.74
591.167	26398.15
591.364	25986.5
591.561	26119.62
591.758	25703.89
591.955	25798.09
592.152	26054.09
592.349	26023.37
592.546	26004.94
592.743	25777.61
592.94	25480.66
593.137	25714.12
593.334	25499.09
593.531	25001.43
593.727	25284.05
593.924	25314.77
594.121	24876.51
594.318	25165.27
594.515	24501.73
594.712	25171.41
594.908	24925.66
595.105	25034.2
595.302	24473.06
595.499	24827.35
595.696	24616.41
595.892	24366.56
596.089	24462.82
596.286	24446.43
596.482	24018.41
596.679	24464.86
596.876	24327.65
597.072	23813.61
597.269	24073.7
597.466	23887.34
597.662	23840.23
597.859	23721.45
598.055	23743.98
598.252	23498.22
598.448	23526.89
598.645	23510.51
598.841	23068.15
599.038	23547.37
599.234	23051.77
599.431	23246.32
599.627	23313.91
599.824	23354.86
600.02	23092.72
600.217	22961.65
600.413	22744.57
600.609	22750.71
600.806	22779.39
601.002	22627.84
601.198	22652.41
601.395	22304.26
601.591	22574.59
601.787	22289.92
601.984	22287.87
602.18	22294.02
602.376	22111.75
602.572	21931.53
602.769	22228.48
602.965	21843.46
603.161	22083.08
603.357	21806.6
603.553	21773.83
603.75	21767.69
603.946	21626.38
604.142	21683.72
604.338	21229.07
604.534	21777.93
604.73	21341.71
604.926	21120.53
605.122	21440.01
605.318	21085.72
605.514	21179.92
605.71	20950.55
605.906	21018.13
606.102	20864.53
606.298	20954.65
606.494	21085.72
606.69	20733.46
606.886	20905.49
607.082	20543
607.278	20760.09
607.474	20340.25
607.67	20608.54
607.866	20219.42
608.062	20547.1
608.257	20336.16
608.453	20164.13
608.649	20436.51
608.845	19891.75
609.041	20114.98
609.236	20141.6
609.432	20010.53
609.628	19775.02
609.824	20061.73
610.019	19926.57
610.215	19844.65
610.411	19594.79
610.606	19912.23
610.802	19998.24
610.998	19797.54
611.193	19775.02
611.389	19648.04
611.584	19887.65
611.78	19361.33
611.976	19543.6
612.171	19703.34
612.367	19521.07
612.562	19308.08
612.758	19320.37
612.953	19410.48
613.149	19406.38
613.344	18925.11
613.539	19424.81
613.735	19123.76
613.93	19127.86
614.126	18843.19
614.321	19228.21
614.517	19144.24
614.712	18941.49
614.907	18925.11
615.103	18865.72
615.298	18906.68
615.493	18839.09
615.688	18767.41
615.884	19207.73
616.079	18488.89
616.274	18603.58
616.47	18787.89
616.665	18818.61
616.86	18202.18
617.055	18320.96
617.25	18673.21
617.445	18581.05
617.641	17862.21
617.836	18314.81
618.031	18030.15
618.226	18372.16
618.421	18169.41
618.616	18269.76
618.811	18052.67
619.006	18017.86
619.201	17804.87
619.396	17653.32
619.591	17432.14
619.786	17514.06
619.981	17454.67
620.176	17464.91
620.371	17245.77
620.566	17223.25
620.761	17284.69
620.956	17180.24
621.151	16983.63
621.346	17213.01
621.541	16600.66
621.735	17196.62
621.93	16586.33
622.125	16692.82
622.32	16291.42
622.515	16475.74
622.709	16447.07
622.904	16172.64
623.099	16430.68
623.294	16191.07
623.488	15773.28
623.683	16172.64
623.878	15601.26
624.072	16023.14
624.267	15943.27
624.462	15570.54
624.656	15617.64
624.851	15666.79
625.046	15627.88
625.24	15445.61
625.435	15244.91
625.629	15435.37
625.824	15279.72
626.018	15038.06
626.213	14825.08
626.407	14986.86
626.602	14591.61
626.796	14796.4
626.991	14679.67
627.185	14714.48
627.38	14384.76
627.574	14591.61
627.768	14540.41
627.963	14175.87
628.157	14110.33
628.352	14304.89
628.546	13960.83
628.74	14313.08
628.935	14030.46
629.129	13878.91
629.323	13966.98
629.517	13876.87
629.712	13717.12
629.906	13743.75
630.1	13305.48
630.294	13442.7
630.489	13237.9
630.683	13518.47
630.877	13164.17
631.071	13137.55
631.265	13198.99
631.459	13151.88
631.653	13223.56
631.848	12957.33
632.042	12750.48
632.236	13123.21
632.43	12648.08
632.624	12787.35
632.818	12697.24
633.012	12422.81
633.206	12615.32
633.4	12506.77
633.594	12496.53
633.788	12256.92
633.982	12381.85
634.176	12177.05
634.369	12308.12
634.563	12138.14
634.757	12037.79
634.951	11845.28
635.145	12060.32
635.339	11923.1
635.533	11595.43
635.726	11851.42
635.92	11472.55
636.114	11853.47
636.308	11560.61
636.501	11542.18
636.695	11390.63
636.889	11280.04
637.083	11095.72
637.276	11161.26
637.47	11181.74
637.664	11042.48
637.857	11026.09
638.051	10833.58
638.244	10866.35
638.438	10978.99
638.632	10800.82
638.825	10626.74
639.019	10485.43
639.212	10329.78
639.406	10460.85
639.599	10286.78
639.793	10325.69
639.986	10186.43
640.18	10319.54
640.373	10243.77
640.567	10012.35
640.76	10122.94
640.954	9858.75
641.147	9828.03
641.34	9707.2
641.534	9680.58
641.727	9606.85
641.92	9621.19
642.114	9633.47
642.307	9520.84
642.5	9416.39
642.694	9137.87
642.887	9004.75
643.08	9320.14
643.273	9168.59
643.467	9291.46
643.66	9088.71
643.853	8918.73
644.046	8902.35
644.239	8845.01
644.432	8724.18
644.626	8771.28
644.819	8802
645.012	8642.26
645.205	8744.66
645.398	8521.43
645.591	8599.25
645.784	8488.66
645.977	8249.05
646.17	8302.29
646.363	8111.83
646.556	8222.42
646.749	8201.94
646.942	7960.28
647.135	7984.86
647.328	8001.24
647.521	7794.4
647.714	7782.11
647.907	7730.91
648.099	7843.55
648.292	7581.41
648.485	7618.27
648.678	7716.58
648.871	7495.39
649.064	7452.39
649.256	7524.07
649.449	7272.17
649.642	7220.97
649.835	7118.57
650.027	7237.35
650.22	7141.1
650.413	7126.76
650.605	7096.04
650.798	7134.95
650.991	7083.75
651.183	6809.33
651.376	6977.26
651.568	6993.64
651.761	6780.65
651.954	6854.38
652.146	6735.6
652.339	6661.87
652.531	6688.5
652.724	6602.48
652.916	6407.92
653.109	6516.47
653.301	6567.67
653.494	6594.29
653.686	6201.08
653.879	6326
654.071	6340.34
654.263	6342.39
654.456	6211.32
654.648	6239.99
654.84	6160.12
655.033	6074.1
655.225	6153.98
655.417	6176.5
655.61	6178.55
655.802	6100.73
655.994	5930.75
656.186	5955.32
656.379	5961.47
656.571	5908.22
656.763	5674.75
656.955	5848.83
657.148	5693.18
657.34	5797.63
657.532	5803.77
657.724	5689.09
657.916	5717.76
658.108	5576.45
658.3	5617.41
658.492	5609.22
658.684	5535.49
658.876	5422.85
659.068	5424.9
659.26	5369.6
659.452	5230.34
659.644	5381.89
659.836	5334.79
660.028	5216.01
660.22	5162.76
660.412	5236.49
660.604	5349.12
660.796	5093.13
660.988	5054.22
661.18	5015.3
661.372	4925.19
661.563	4830.99
661.755	4912.91
661.947	4886.28
662.139	5033.74
662.331	4808.46
662.522	4759.31
662.714	4779.79
662.906	4742.92
663.097	4661.01
663.289	4611.85
663.481	4587.28
663.673	4515.6
663.864	4472.59
664.056	4513.55
664.247	4411.15
664.439	4390.67
664.631	4319
664.822	4296.47
665.014	4345.62
665.205	4374.29
665.397	4222.74
665.588	4284.18
665.78	4183.83
665.971	4187.93
666.163	4146.97
666.354	3995.42
666.546	4005.66
666.737	3964.7
666.929	4009.75
667.12	4093.72
667.311	3942.17
667.503	4001.56
667.694	4011.8
667.885	3931.93
668.077	3815.2
668.268	3847.96
668.459	3972.89
668.651	3856.15
668.842	3663.65
669.033	3815.2
669.224	3661.6
669.416	3874.59
669.607	3872.54
669.798	3766.04
669.989	3630.88
670.18	3561.25
670.371	3647.26
670.563	3577.63
670.754	3514.14
670.945	3503.9
671.136	3460.9
671.327	3487.52
671.518	3399.46
671.709	3366.69
671.9	3415.84
672.091	3481.38
672.282	3473.18
672.473	3391.27
672.664	3469.09
672.855	3178.28
673.046	3303.2
673.237	3391.27
673.428	3161.89
673.619	3292.96
673.809	3143.46
674	3307.3
674.191	3141.41
674.382	3161.89
674.573	3223.33
674.764	3188.52
674.954	3194.66
675.145	3202.85
675.336	3079.97
675.527	3141.41
675.717	3198.76
675.908	3096.36
676.099	3088.17
676.289	3149.61
676.48	3051.3
676.671	3039.01
676.861	3055.4
677.052	3059.49
677.243	2996.01
677.433	2957.1
677.624	3039.01
677.814	2953
678.005	3172.13
678.195	3079.97
678.386	3108.65
678.576	3022.63
678.767	2920.23
678.957	2961.19
679.148	3073.83
679.338	3010.34
679.529	2946.86
679.719	2846.51
679.909	3018.54
680.1	2950.95
680.29	2905.9
680.481	2985.77
680.671	2957.1
680.861	2879.27
681.052	2973.48
681.242	2854.7
681.432	2955.05
681.622	2897.71
681.813	2869.03
682.003	2844.46
682.193	2797.35
682.383	2922.28
682.573	2881.32
682.764	2866.99
682.954	2883.37
683.144	2938.66
683.334	2897.71
683.524	2940.71
683.714	2879.27
683.904	2832.17
684.094	2901.8
684.284	2893.61
684.474	2815.79
684.664	2850.6
684.854	2942.76
685.044	2881.32
685.234	2924.33
685.424	2963.24
685.614	2983.72
685.804	2912.04
685.994	2823.98
686.184	2754.35
686.374	2834.22
686.564	2883.37
686.753	2918.18
686.943	2885.42
687.133	2914.09
687.323	2877.23
687.513	2936.62
687.702	2969.38
687.892	2838.31
688.082	2871.08
688.272	2979.62
688.461	2991.91
688.651	2854.7
688.841	2916.14
689.03	2899.75
689.22	2936.62
689.41	3032.87
689.599	2858.79
689.789	2922.28
689.979	3002.15
690.168	2991.91
690.358	2909.99
690.547	2879.27
690.737	2856.75
690.926	2959.14
691.116	2946.86
691.305	2912.04
691.495	2783.02
691.684	2799.4
691.874	2830.12
692.063	2807.59
692.252	2889.51
692.442	2926.38
692.631	2805.55
692.82	2907.94
693.01	2860.84
693.199	2889.51
693.388	2846.51
693.578	3016.49
693.767	2996.01
693.956	2860.84
694.146	2891.56
694.335	2756.4
694.524	2854.7
694.713	2707.24
694.902	2914.09
695.092	2832.17
695.281	2805.55
695.47	2783.02
695.659	2750.25
695.848	2735.92
696.037	2760.49
696.226	2674.48
696.415	2772.78
696.604	2848.55
696.793	2682.67
696.982	2742.06
697.171	2713.39
697.36	2770.73
697.549	2756.4
697.738	2803.5
697.927	2666.28
698.116	2789.16
698.305	2635.57
698.494	2680.62
698.683	2604.85
698.872	2631.47
699.061	2582.32
699.25	2658.09
699.438	2629.42
699.627	2543.41
699.816	2627.37
700.005	2631.47
700.193	2615.09
700.382	2635.57
700.571	2592.56
700.76	2529.07
700.948	2570.03
701.137	2484.02
701.326	2467.63
701.514	2522.93
701.703	2506.54
701.892	2383.66
702.08	2537.26
702.269	2473.78
702.457	2381.62
702.646	2438.96
702.834	2391.86
703.023	2492.21
703.212	2455.34
703.4	2391.86
703.589	2359.09
703.777	2303.79
703.965	2354.99
704.154	2332.47
704.342	2262.83
704.531	2354.99
704.719	2289.46
704.907	2332.47
705.096	2250.55
705.284	2266.93
705.472	2316.08
705.661	2307.89
705.849	2199.35
706.037	2225.97
706.226	2256.69
706.414	2127.67
706.602	2185.01
706.79	2279.22
706.979	2068.28
707.167	2139.96
707.355	2125.62
707.543	2187.06
707.731	2187.06
707.919	2078.52
708.107	2289.46
708.296	2070.33
708.484	2047.8
708.672	2113.33
708.86	2111.29
709.048	2002.74
709.236	2031.41
709.424	1984.31
709.612	2039.61
709.8	2027.32
709.988	1969.98
710.176	1951.54
710.364	2023.22
710.551	1967.93
710.739	2031.41
710.927	1965.88
711.115	1806.14
711.303	1978.17
711.491	1900.34
711.679	1857.34
711.866	1904.44
712.054	1838.91
712.242	1830.71
712.43	1883.96
712.617	1797.95
712.805	1824.57
712.993	1924.92
713.181	1931.06
713.368	1830.71
713.556	1847.1
713.744	1791.8
713.931	1818.43
714.119	1859.38
714.306	1855.29
714.494	1802.04
714.682	1748.79
714.869	1783.61
715.057	1742.65
715.244	1697.6
715.432	1822.52
715.619	1759.03
715.807	1761.08
715.994	1726.27
716.182	1648.44
716.369	1754.94
716.556	1797.95
716.744	1580.86
716.931	1697.6
717.119	1662.78
717.306	1707.84
717.493	1593.15
717.681	1693.5
717.868	1587.01
718.055	1599.29
718.242	1627.96
718.43	1658.68
718.617	1580.86
718.804	1599.29
718.991	1599.29
719.179	1560.38
719.366	1527.61
719.553	1500.99
719.74	1580.86
719.927	1584.96
720.114	1521.47
720.301	1474.37
720.488	1605.44
720.676	1470.27
720.863	1490.75
721.05	1425.22
721.237	1482.56
721.424	1476.41
721.611	1425.22
721.798	1566.53
721.985	1513.28
722.172	1417.02
722.358	1349.44
722.545	1451.84
722.732	1390.4
722.919	1382.21
723.106	1335.1
723.293	1384.26
723.48	1490.75
723.667	1283.91
723.853	1333.06
724.04	1308.48
724.227	1275.71
724.414	1345.34
724.6	1296.19
724.787	1333.06
724.974	1419.07
725.161	1339.2
725.347	1285.95
725.534	1240.9
725.72	1251.14
725.907	1251.14
726.094	1320.77
726.28	1255.23
726.467	1308.48
726.653	1220.42
726.84	1251.14
727.027	1249.09
727.213	1240.9
727.4	1220.42
727.586	1271.62
727.773	1251.14
727.959	1222.47
728.145	1275.71
728.332	1169.22
728.518	1103.68
728.705	1277.76
728.891	1189.7
729.077	1161.03
729.264	1226.56
729.45	1115.97
729.636	1253.19
729.823	1138.5
730.009	1109.83
730.195	1142.6
730.382	1095.49
730.568	1072.96
730.754	1072.96
730.94	1144.64
731.126	1120.07
731.313	1079.11
731.499	1130.31
731.685	1044.29
731.871	1109.83
732.057	1058.63
732.243	1058.63
732.429	1042.25
732.615	1040.2
732.801	1144.64
732.987	1029.96
733.173	1064.77
733.359	1003.33
733.545	1095.49
733.731	1025.86
733.917	999.24
734.103	1130.31
734.289	1029.96
734.475	1081.16
734.661	997.19
734.847	937.8
735.033	993.09
735.219	941.89
735.404	1017.67
735.59	1056.58
735.776	964.42
735.962	1021.77
736.148	945.99
736.333	1015.62
736.519	935.75
736.705	1019.72
736.89	1015.62
737.076	835.4
737.262	925.51
737.447	898.89
737.633	923.46
737.819	968.52
738.004	902.98
738.19	919.37
738.375	821.06
738.561	945.99
738.747	859.98
738.932	870.22
739.118	1007.43
739.303	945.99
739.489	923.46
739.674	831.3
739.859	862.02
740.045	847.69
740.23	888.65
740.416	833.35
740.601	898.89
740.786	851.78
740.972	833.35
741.157	851.78
741.342	829.26
741.528	853.83
741.713	827.21
741.898	833.35
742.084	819.02
742.269	698.19
742.454	896.84
742.639	894.79
742.824	843.59
743.01	862.02
743.195	792.39
743.38	800.59
743.565	792.39
743.75	825.16
743.935	776.01
744.12	862.02
744.305	706.38
744.49	771.91
744.675	755.53
744.86	716.62
745.045	792.39
745.23	792.39
745.415	780.11
745.6	780.11
745.785	737.1
745.97	706.38
746.155	755.53
746.34	780.11
746.525	714.57
746.71	702.28
746.895	685.9
747.079	712.52
747.264	739.15
747.449	737.1
747.634	726.86
747.819	778.06
748.003	646.99
748.188	743.24
748.373	689.99
748.557	687.95
748.742	757.58
748.927	671.56
749.111	698.19
749.296	708.43
749.481	655.18
749.665	663.37
749.85	630.6
750.034	544.59
750.219	687.95
750.404	634.7
750.588	618.32
750.773	661.32
750.957	624.46
751.141	614.22
751.326	544.59
751.51	646.99
751.695	612.17
751.879	601.93
752.064	585.55
752.248	601.93
752.432	530.25
752.617	622.41
752.801	536.4
752.985	616.27
753.17	515.92
753.354	579.4
753.538	575.31
753.722	589.64
753.907	579.4
754.091	468.81
754.275	591.69
754.459	612.17
754.643	552.78
754.828	542.54
755.012	575.31
755.196	544.59
755.38	585.55
755.564	460.62
755.748	556.88
755.932	444.24
756.116	483.15
756.3	581.45
756.484	511.82
756.668	593.74
756.852	513.87
757.036	497.49
757.22	493.39
757.404	507.73
757.588	511.82
757.772	452.43
757.956	491.34
758.14	431.95
758.323	450.38
758.507	452.43
758.691	489.29
758.875	425.81
759.059	450.38
759.242	472.91
759.426	477.01
759.61	436.05
759.794	546.64
759.977	515.92
760.161	591.69
760.345	485.2
760.528	438.09
760.712	464.72
760.895	468.81
761.079	386.9
761.263	388.94
761.446	384.85
761.63	407.38
761.813	509.77
761.997	493.39
762.18	444.24
762.364	456.53
762.547	393.04
762.731	429.9
762.914	444.24
763.098	397.14
763.281	456.53
763.464	444.24
763.648	411.47
763.831	399.18
764.015	372.56
764.198	436.05
764.381	479.05
764.564	368.46
764.748	390.99
764.931	425.81
765.114	419.66
765.297	489.29
765.481	401.23
765.664	409.42
765.847	407.38
766.03	423.76
766.213	335.7
766.397	423.76
766.58	401.23
766.763	335.7
766.946	425.81
767.129	384.85
767.312	444.24
767.495	362.32
767.678	409.42
767.861	427.85
768.044	382.8
768.227	378.7
768.41	417.61
768.593	440.14
768.776	507.73
768.959	352.08
769.142	460.62
769.324	405.33
769.507	405.33
769.69	350.03
769.873	374.61
770.056	431.95
770.239	356.18
770.421	370.51
770.604	358.22
770.787	335.7
770.97	350.03
771.152	300.88
771.335	397.14
771.518	358.22
771.7	409.42
771.883	319.31
772.066	298.83
772.248	468.81
772.431	339.79
772.613	337.74
772.796	323.41
772.978	386.9
773.161	384.85
773.343	366.42
773.526	345.94
773.708	343.89
773.891	347.98
774.073	386.9
774.256	347.98
774.438	374.61
774.621	354.13
774.803	345.94
774.985	372.56
775.168	407.38
775.35	290.64
775.532	411.47
775.715	341.84
775.897	378.7
776.079	345.94
776.261	317.26
776.444	290.64
776.626	345.94
776.808	317.26
776.99	335.7
777.173	337.74
777.355	239.44
777.537	368.46
777.719	323.41
777.901	304.98
778.083	253.78
778.265	327.5
778.447	374.61
778.629	350.03
778.811	194.39
778.993	204.63
779.175	358.22
779.357	352.08
779.539	286.54
779.721	294.74
779.903	282.45
780.085	288.59
780.267	247.63
780.449	276.31
780.631	270.16
780.812	309.07
780.994	276.31
781.176	237.39
781.358	315.22
781.54	233.3
781.721	266.07
781.903	206.67
782.085	264.02
782.267	309.07
782.448	188.24
782.63	239.44
782.812	221.01
782.993	278.35
783.175	257.87
783.357	233.3
783.538	290.64
783.72	227.15
783.901	302.93
784.083	280.4
784.264	206.67
784.446	206.67
784.627	245.59
784.809	212.82
784.99	249.68
785.172	231.25
785.353	229.2
785.535	235.35
785.716	202.58
785.897	204.63
786.079	190.29
786.26	225.11
786.441	214.87
786.623	245.59
786.804	202.58
786.985	218.96
787.167	202.58
787.348	204.63
787.529	167.76
787.71	194.39
787.891	147.28
788.073	157.52
788.254	255.83
788.435	200.53
788.616	229.2
788.797	214.87
788.978	165.71
789.159	261.97
789.34	204.63
789.522	309.07
789.703	210.77
789.884	194.39
790.065	214.87
790.246	157.52
790.427	249.68
790.607	184.15
790.788	227.15
790.969	141.14
791.15	253.78
791.331	190.29
791.512	186.19
791.693	245.59
791.874	128.85
792.054	210.77
792.235	173.91
792.416	175.95
792.597	85.84
792.778	71.51
792.958	175.95
793.139	182.1
793.32	178
793.5	114.52
793.681	204.63
793.862	167.76
794.042	159.57
794.223	143.19
794.404	151.38
794.584	102.23
794.765	251.73
794.945	116.56
795.126	114.52
795.306	163.67
795.487	208.72
795.667	73.56
795.848	149.33
796.028	196.43
796.209	137.04
796.389	143.19
796.57	188.24
796.75	210.77
796.93	171.86
797.111	145.24
797.291	132.95
797.471	151.38
797.652	171.86
797.832	110.42
798.012	167.76
798.192	153.43
798.373	100.18
798.553	94.04
798.733	200.53
798.913	137.04
799.093	178
799.274	151.38
799.454	198.48
799.634	141.14
799.814	145.24
799.994	120.66
800.174	149.33
800.354	122.71
800.534	214.87
800.714	169.81
800.894	126.8
801.074	163.67
801.254	178
801.434	120.66
801.614	104.28
801.794	143.19
801.974	341.84
802.154	104.28
802.334	169.81
802.514	157.52
802.693	114.52
802.873	130.9
803.053	153.43
803.233	155.47
803.413	141.14
803.592	159.57
803.772	120.66
803.952	108.37
804.131	77.65
804.311	102.23
804.491	65.36
804.67	120.66
804.85	108.37
805.03	77.65
805.209	137.04
805.389	89.94
805.568	102.23
805.748	132.95
805.928	118.61
806.107	180.05
806.287	100.18
806.466	55.12
806.646	122.71
806.825	110.42
807.004	114.52
807.184	108.37
807.363	139.09
807.543	116.56
807.722	130.9
807.901	81.75
808.081	89.94
808.26	106.32
808.439	161.62
808.619	114.52
808.798	149.33
808.977	157.52
809.156	153.43
809.336	120.66
809.515	147.28
809.694	89.94
809.873	110.42
810.052	87.89
810.231	110.42
810.411	108.37
810.59	124.76
810.769	75.6
810.948	106.32
811.127	120.66
811.306	55.12
811.485	110.42
811.664	153.43
811.843	122.71
812.022	124.76
812.201	73.56
812.38	135
812.559	114.52
812.737	163.67
812.916	104.28
813.095	75.6
813.274	153.43
813.453	141.14
813.632	108.37
813.811	108.37
813.989	165.71
814.168	77.65
814.347	130.9
814.526	96.08
814.704	83.8
814.883	87.89
815.062	61.27
815.24	100.18
815.419	96.08
815.598	44.88
815.776	112.47
815.955	69.46
816.133	32.6
816.312	118.61
816.49	40.79
816.669	65.36
816.847	167.76
817.026	69.46
817.204	91.99
817.383	85.84
817.561	87.89
817.74	106.32
817.918	110.42
818.097	91.99
818.275	116.56
818.453	110.42
818.632	100.18
818.81	108.37
818.988	51.03
819.167	55.12
819.345	85.84
819.523	-24.75
819.701	42.84
819.879	120.66
820.058	108.37
820.236	69.46
820.414	69.46
820.592	116.56
820.77	128.85
820.948	87.89
821.127	61.27
821.305	48.98
821.483	122.71
821.661	114.52
821.839	-39.08
822.017	46.93
822.195	81.75
822.373	24.4
822.551	81.75
822.729	120.66
822.907	48.98
823.085	106.32
823.262	65.36
823.44	48.98
823.618	57.17
823.796	-14.51
823.974	61.27
824.152	59.22
824.329	120.66
824.507	112.47
824.685	73.56
824.863	96.08
825.04	53.08
825.218	71.51
825.396	44.88
825.574	-8.36
825.751	40.79
825.929	98.13
826.107	53.08
826.284	32.6
826.462	61.27
826.639	85.84
826.817	71.51
826.994	65.36
827.172	61.27
827.349	57.17
827.527	-14.51
827.704	98.13
827.882	18.26
828.059	122.71
828.237	73.56
828.414	79.7
828.591	71.51
828.769	126.8
828.946	-16.55
829.124	91.99
829.301	44.88
829.478	102.23
829.655	-30.89
829.833	59.22
830.01	3.93
830.187	120.66
830.364	116.56
830.542	83.8
830.719	48.98
830.896	3.93
831.073	30.55
831.25	18.26
831.427	89.94
831.604	67.41
831.782	63.32
831.959	89.94
832.136	57.17
832.313	75.6
832.49	-8.36
832.667	65.36
832.844	20.31
833.021	-8.36
833.198	-26.79
833.374	16.21
833.551	63.32
833.728	83.8
833.905	57.17
834.082	83.8
834.259	63.32
834.436	87.89
834.612	42.84
834.789	32.6
834.966	71.51
835.143	59.22
835.319	14.17
835.496	96.08
835.673	57.17
835.85	46.93
836.026	36.69
836.203	55.12
836.38	73.56
836.556	65.36
836.733	89.94
836.909	106.32
837.086	53.08
837.262	67.41
837.439	48.98
837.616	8.02
837.792	14.17
837.968	18.26
838.145	141.14
838.321	-8.36
838.498	38.74
838.674	51.03
838.851	26.45
839.027	85.84
839.203	32.6
839.38	32.6
839.556	-20.65
839.732	-43.18
839.909	5.97
840.085	42.84
840.261	46.93
840.437	61.27
840.614	-6.31
840.79	81.75
840.966	104.28
841.142	87.89
841.318	53.08
841.494	30.55
841.671	108.37
841.847	38.74
842.023	89.94
842.199	-6.31
842.375	5.97
842.551	34.64
842.727	-30.89
842.903	83.8
843.079	10.07
843.255	91.99
843.431	61.27
843.607	77.65
843.783	8.02
843.959	83.8
844.134	8.02
844.31	48.98
844.486	20.31
844.662	73.56
844.838	63.32
845.013	10.07
845.189	73.56
845.365	104.28
845.541	75.6
845.716	-43.18
845.892	73.56
846.068	94.04
846.244	1.88
846.419	3.93
846.595	55.12
846.77	65.36
846.946	8.02
847.122	145.24
847.297	69.46
847.473	22.36
847.648	98.13
847.824	96.08
847.999	16.21
848.175	-20.65
848.35	5.97
848.526	53.08
848.701	12.12
848.876	83.8
849.052	51.03
849.227	-34.99
849.403	8.02
849.578	63.32
849.753	40.79
849.929	12.12
850.104	59.22
850.279	73.56
850.454	44.88
850.63	-0.17
850.805	71.51
850.98	-26.79
851.155	96.08
851.33	46.93
851.505	40.79
851.681	-12.46
851.856	18.26
852.031	20.31
852.206	40.79
852.381	89.94
852.556	3.93
852.731	44.88
852.906	24.4
853.081	48.98
853.256	38.74
853.431	48.98
853.606	28.5
853.781	-10.41
853.956	71.51
854.131	53.08
854.305	69.46
854.48	1.88
854.655	38.74
854.83	30.55
855.005	1.88
855.18	61.27
855.354	1.88
855.529	1.88
855.704	71.51
855.879	42.84
856.053	61.27
856.228	61.27
856.403	-4.27
856.577	87.89
856.752	32.6
856.926	122.71
857.101	48.98
857.276	-2.22
857.45	24.4
857.625	48.98
857.799	10.07
857.974	20.31
858.148	38.74
858.323	61.27
858.497	-0.17
858.672	30.55
858.846	48.98
859.02	65.36
859.195	22.36
859.369	44.88
859.543	102.23
859.718	34.64
859.892	71.51
860.066	116.56
860.241	-4.27
860.415	96.08
860.589	12.12
860.763	69.46
860.938	79.7
861.112	18.26
861.286	-10.41
861.46	51.03
861.634	8.02
861.808	32.6
861.982	-10.41
862.157	71.51
862.331	55.12
862.505	5.97
862.679	44.88
862.853	-22.7
863.027	20.31
863.201	14.17
863.375	40.79
863.549	94.04
863.722	81.75
863.896	55.12
864.07	-14.51
864.244	46.93
864.418	61.27
864.592	63.32
864.766	65.36
864.939	100.18
865.113	1.88
865.287	61.27
865.461	18.26
865.634	100.18
865.808	30.55
865.982	79.7
866.156	38.74
866.329	5.97
866.503	77.65
866.676	-18.6
866.85	34.64
867.024	-2.22
867.197	-18.6
867.371	65.36
867.544	16.21
867.718	20.31
867.891	44.88
868.065	5.97
868.238	42.84
868.412	120.66
868.585	114.52
868.759	8.02
868.932	12.12
869.105	73.56
869.279	46.93
869.452	65.36
869.625	18.26
869.799	28.5
869.972	-26.79
870.145	20.31
870.319	38.74
870.492	57.17
870.665	1.88
870.838	-0.17
871.011	-41.13
871.185	1.88
871.358	96.08
871.531	108.37
871.704	8.02
871.877	100.18
872.05	28.5
872.223	94.04
872.396	12.12
872.569	83.8
872.742	-28.84
872.915	10.07
873.088	-10.41
873.261	-2.22
873.434	-8.36
873.607	57.17
873.78	65.36
873.953	24.4
874.126	-8.36
874.299	-4.27
874.471	63.32
874.644	-18.6
874.817	-10.41
874.99	55.12
875.163	77.65
875.335	110.42
875.508	12.12
875.681	18.26
875.853	67.41
876.026	73.56
876.199	5.97
876.371	53.08
876.544	8.02
876.717	87.89
876.889	-10.41
877.062	1.88
877.234	-14.51
877.407	85.84
877.579	-10.41
877.752	5.97
877.924	-4.27
878.097	-8.36
878.269	22.36
878.442	28.5
878.614	-30.89
878.786	51.03
878.959	57.17
879.131	38.74
879.303	108.37
879.476	3.93
879.648	32.6
879.82	16.21
879.993	40.79
880.165	63.32
880.337	51.03
880.509	-2.22
880.681	-10.41
880.854	-22.7
881.026	12.12
881.198	104.28
881.37	71.51
881.542	-18.6
881.714	-20.65
881.886	34.64
882.058	20.31
882.23	-2.22
882.402	42.84
882.574	-0.17
882.746	67.41
882.918	71.51
883.09	85.84
883.262	22.36
883.434	59.22
883.606	94.04
883.778	81.75
883.95	38.74
884.122	32.6
884.293	16.21
884.465	100.18
884.637	12.12
884.809	30.55
884.98	114.52
885.152	32.6
885.324	3.93
885.496	-32.94
885.667	63.32
885.839	-32.94
886.011	34.64
886.182	-22.7
886.354	-14.51
886.525	36.69
886.697	22.36
886.869	26.45
887.04	-77.99
887.212	32.6
887.383	30.55
887.555	75.6
887.726	20.31
887.897	57.17
888.069	83.8
888.24	8.02
888.412	12.12
888.583	65.36
888.754	-34.99
888.926	-24.75
889.097	16.21
889.268	-2.22
889.44	24.4
889.611	-28.84
889.782	-37.03
889.953	12.12
890.125	32.6
890.296	-12.46
890.467	1.88
890.638	5.97
890.809	53.08
890.98	59.22
891.151	-12.46
891.323	85.84
891.494	57.17
891.665	46.93
891.836	18.26
892.007	-10.41
892.178	26.45
892.349	30.55
892.52	38.74
892.691	36.69
892.862	67.41
893.032	24.4
893.203	79.7
893.374	24.4
893.545	112.47
893.716	1.88
893.887	8.02
894.057	34.64
894.228	3.93
894.399	26.45
894.57	89.94
894.74	32.6
894.911	69.46
895.082	8.02
895.253	73.56
895.423	36.69
895.594	-47.27
895.764	28.5
895.935	69.46
896.106	10.07
896.276	-4.27
896.447	-2.22
896.617	24.4
896.788	16.21
896.958	53.08
897.129	59.22
897.299	-14.51
897.47	42.84
897.64	42.84
897.81	5.97
897.981	77.65
898.151	-28.84
898.322	36.69
898.492	8.02
898.662	30.55
898.832	28.5
899.003	79.7
899.173	40.79
899.343	-47.27
899.513	63.32
