Data from USB4F104151__63__12-54-09-802.txt Node

Date: Fri Mar 14 12:54:09 EDT 2025
User: louis
Spectrometer: USB4F10415
Trigger mode: 4
Integration Time (sec): 1.000000E-2
Scans to average: 1
Electric dark correction enabled: true
Nonlinearity correction enabled: false
Boxcar width: 0
XAxis mode: Wavelengths
Number of Pixels in Spectrum: 3648
>>>>>Begin Spectral Data<<<<<
178.204	-20.48
178.424	-20.48
178.644	-20.48
178.864	6.14
179.084	40.96
179.304	36.86
179.524	18.43
179.744	8.19
179.964	-8.19
180.184	-45.06
180.404	-14.34
180.624	-2.05
180.844	28.67
181.064	-14.34
181.283	4.1
181.503	12.29
181.723	-24.58
181.943	-51.2
182.163	28.67
182.383	-26.62
182.602	-36.86
182.822	2.05
183.042	24.58
183.262	61.44
183.482	79.87
183.701	8.19
183.921	-8.19
184.141	53.25
184.361	45.06
184.58	2.05
184.8	-24.58
185.02	30.72
185.239	-8.19
185.459	-32.77
185.679	34.82
185.898	-12.29
186.118	-36.86
186.338	6.14
186.557	98.3
186.777	-8.19
186.997	8.19
187.216	10.24
187.436	26.62
187.655	-69.63
187.875	63.49
188.095	-8.19
188.314	28.67
188.534	77.82
188.753	6.14
188.973	-12.29
189.192	77.82
189.412	32.77
189.631	-10.24
189.851	59.39
190.07	73.73
190.29	0
190.509	40.96
190.729	-14.34
190.948	88.06
191.168	36.86
191.387	0
191.607	-12.29
191.826	-32.77
192.045	-26.62
192.265	30.72
192.484	65.54
192.704	36.86
192.923	-10.24
193.142	61.44
193.362	32.77
193.581	40.96
193.8	24.58
194.02	51.2
194.239	-18.43
194.458	-14.34
194.678	-12.29
194.897	45.06
195.116	49.15
195.335	16.38
195.555	32.77
195.774	59.39
195.993	34.82
196.212	-40.96
196.432	-47.1
196.651	28.67
196.87	-12.29
197.089	83.97
197.308	30.72
197.528	26.62
197.747	24.58
197.966	40.96
198.185	6.14
198.404	28.67
198.623	40.96
198.842	18.43
199.062	36.86
199.281	32.77
199.5	30.72
199.719	53.25
199.938	-16.38
200.157	24.58
200.376	-24.58
200.595	2.05
200.814	-22.53
201.033	-28.67
201.252	32.77
201.471	34.82
201.69	57.34
201.909	55.3
202.128	4.1
202.347	-12.29
202.566	20.48
202.785	43.01
203.004	20.48
203.223	28.67
203.442	22.53
203.661	47.1
203.879	36.86
204.098	-47.1
204.317	12.29
204.536	67.58
204.755	63.49
204.974	-2.05
205.193	-28.67
205.411	51.2
205.63	94.21
205.849	51.2
206.068	20.48
206.287	22.53
206.505	0
206.724	69.63
206.943	-34.82
207.162	2.05
207.381	-16.38
207.599	-30.72
207.818	8.19
208.037	30.72
208.255	38.91
208.474	-49.15
208.693	73.73
208.911	55.3
209.13	-20.48
209.349	63.49
209.567	67.58
209.786	86.01
210.005	-18.43
210.223	32.77
210.442	-8.19
210.661	-30.72
210.879	26.62
211.098	73.73
211.316	-51.2
211.535	53.25
211.753	59.39
211.972	26.62
212.191	10.24
212.409	71.68
212.628	-24.58
212.846	-32.77
213.065	43.01
213.283	77.82
213.502	-8.19
213.72	55.3
213.938	20.48
214.157	47.1
214.375	-32.77
214.594	-38.91
214.812	-32.77
215.031	92.16
215.249	100.35
215.467	96.25
215.686	0
215.904	32.77
216.122	-36.86
216.341	47.1
216.559	55.3
216.778	65.54
216.996	16.38
217.214	61.44
217.432	-4.1
217.651	-34.82
217.869	-6.14
218.087	86.01
218.306	-4.1
218.524	83.97
218.742	-36.86
218.96	57.34
219.179	-14.34
219.397	73.73
219.615	61.44
219.833	-57.34
220.051	8.19
220.27	-4.1
220.488	22.53
220.706	81.92
220.924	24.58
221.142	0
221.36	-32.77
221.578	67.58
221.796	34.82
222.015	22.53
222.233	-55.3
222.451	22.53
222.669	0
222.887	86.01
223.105	-8.19
223.323	-2.05
223.541	16.38
223.759	28.67
223.977	51.2
224.195	63.49
224.413	-36.86
224.631	26.62
224.849	16.38
225.067	34.82
225.285	75.77
225.503	61.44
225.721	34.82
225.939	65.54
226.157	45.06
226.375	40.96
226.592	-4.1
226.81	59.39
227.028	-22.53
227.246	12.29
227.464	47.1
227.682	10.24
227.9	73.73
228.117	24.58
228.335	55.3
228.553	10.24
228.771	-14.34
228.989	0
229.206	18.43
229.424	0
229.642	16.38
229.86	4.1
230.077	0
230.295	61.44
230.513	0
230.731	57.34
230.948	8.19
231.166	67.58
231.384	43.01
231.601	49.15
231.819	-26.62
232.037	-2.05
232.254	47.1
232.472	75.77
232.689	40.96
232.907	34.82
233.125	57.34
233.342	94.21
233.56	18.43
233.777	16.38
233.995	40.96
234.213	65.54
234.43	2.05
234.648	16.38
234.865	22.53
235.083	16.38
235.3	59.39
235.518	10.24
235.735	8.19
235.953	34.82
236.17	-10.24
236.388	34.82
236.605	34.82
236.822	-8.19
237.04	34.82
237.257	-8.19
237.475	32.77
237.692	45.06
237.909	32.77
238.127	28.67
238.344	34.82
238.562	59.39
238.779	36.86
238.996	-40.96
239.214	-53.25
239.431	2.05
239.648	36.86
239.865	16.38
240.083	120.83
240.3	26.62
240.517	8.19
240.735	30.72
240.952	57.34
241.169	-16.38
241.386	45.06
241.603	-16.38
241.821	106.49
242.038	88.06
242.255	36.86
242.472	57.34
242.689	57.34
242.907	-28.67
243.124	38.91
243.341	86.01
243.558	4.1
243.775	0
243.992	-34.82
244.209	43.01
244.426	45.06
244.643	2.05
244.86	57.34
245.078	-45.06
245.295	-8.19
245.512	26.62
245.729	45.06
245.946	83.97
246.163	49.15
246.38	8.19
246.597	-24.58
246.814	-10.24
247.031	14.34
247.248	43.01
247.464	12.29
247.681	28.67
247.898	43.01
248.115	26.62
248.332	-18.43
248.549	69.63
248.766	28.67
248.983	47.1
249.2	14.34
249.417	61.44
249.633	34.82
249.85	24.58
250.067	67.58
250.284	-8.19
250.501	2.05
250.717	36.86
250.934	-6.14
251.151	43.01
251.368	-4.1
251.585	6.14
251.801	16.38
252.018	22.53
252.235	40.96
252.451	20.48
252.668	36.86
252.885	71.68
253.102	36.86
253.318	-36.86
253.535	40.96
253.752	10.24
253.968	-8.19
254.185	4.1
254.401	38.91
254.618	36.86
254.835	-16.38
255.051	43.01
255.268	-2.05
255.484	43.01
255.701	-20.48
255.917	8.19
256.134	8.19
256.351	92.16
256.567	-30.72
256.784	51.2
257	-36.86
257.217	14.34
257.433	26.62
257.65	51.2
257.866	10.24
258.082	-6.14
258.299	63.49
258.515	55.3
258.732	22.53
258.948	-6.14
259.165	71.68
259.381	26.62
259.597	34.82
259.814	4.1
260.03	-6.14
260.246	-4.1
260.463	47.1
260.679	77.82
260.895	-53.25
261.112	26.62
261.328	34.82
261.544	55.3
261.761	32.77
261.977	-26.62
262.193	-2.05
262.409	8.19
262.626	55.3
262.842	-24.58
263.058	0
263.274	118.78
263.49	100.35
263.707	34.82
263.923	-38.91
264.139	100.35
264.355	2.05
264.571	61.44
264.787	90.11
265.004	51.2
265.22	22.53
265.436	10.24
265.652	4.1
265.868	73.73
266.084	-6.14
266.3	98.3
266.516	-81.92
266.732	0
266.948	28.67
267.164	67.58
267.38	-47.1
267.596	49.15
267.812	-4.1
268.028	71.68
268.244	24.58
268.46	22.53
268.676	-43.01
268.892	73.73
269.108	51.2
269.324	12.29
269.54	-14.34
269.756	90.11
269.972	49.15
270.188	-36.86
270.403	-2.05
270.619	65.54
270.835	4.1
271.051	0
271.267	2.05
271.483	16.38
271.698	26.62
271.914	24.58
272.13	40.96
272.346	43.01
272.562	26.62
272.777	24.58
272.993	-18.43
273.209	57.34
273.425	34.82
273.64	63.49
273.856	71.68
274.072	-20.48
274.287	53.25
274.503	20.48
274.719	49.15
274.934	-28.67
275.15	-59.39
275.366	53.25
275.581	40.96
275.797	-30.72
276.012	4.1
276.228	2.05
276.444	-61.44
276.659	28.67
276.875	22.53
277.09	45.06
277.306	81.92
277.521	14.34
277.737	-55.3
277.952	96.25
278.168	83.97
278.383	106.49
278.599	79.87
278.814	63.49
279.03	-16.38
279.245	61.44
279.461	90.11
279.676	75.77
279.892	-14.34
280.107	92.16
280.322	20.48
280.538	-43.01
280.753	40.96
280.969	90.11
281.184	57.34
281.399	24.58
281.615	40.96
281.83	34.82
282.045	12.29
282.26	-32.77
282.476	-6.14
282.691	-4.1
282.906	51.2
283.122	98.3
283.337	-51.2
283.552	59.39
283.767	8.19
283.983	49.15
284.198	34.82
284.413	77.82
284.628	55.3
284.843	20.48
285.058	79.87
285.274	2.05
285.489	0
285.704	71.68
285.919	10.24
286.134	34.82
286.349	-65.54
286.564	71.68
286.779	2.05
286.995	34.82
287.21	16.38
287.425	43.01
287.64	14.34
287.855	-30.72
288.07	-36.86
288.285	-20.48
288.5	-8.19
288.715	65.54
288.93	18.43
289.145	59.39
289.36	102.4
289.575	77.82
289.79	86.01
290.004	-16.38
290.219	47.1
290.434	2.05
290.649	2.05
290.864	2.05
291.079	83.97
291.294	-34.82
291.509	45.06
291.724	40.96
291.938	110.59
292.153	34.82
292.368	65.54
292.583	16.38
292.798	-18.43
293.012	59.39
293.227	51.2
293.442	28.67
293.657	24.58
293.871	83.97
294.086	-16.38
294.301	75.77
294.516	83.97
294.73	32.77
294.945	8.19
295.16	-30.72
295.374	22.53
295.589	94.21
295.804	79.87
296.018	0
296.233	57.34
296.447	-20.48
296.662	14.34
296.877	53.25
297.091	47.1
297.306	-4.1
297.52	6.14
297.735	38.91
297.949	51.2
298.164	51.2
298.378	2.05
298.593	77.82
298.807	10.24
299.022	40.96
299.236	73.73
299.451	43.01
299.665	12.29
299.88	59.39
300.094	24.58
300.309	65.54
300.523	-45.06
300.737	18.43
300.952	59.39
301.166	55.3
301.381	-8.19
301.595	88.06
301.809	12.29
302.024	73.73
302.238	-24.58
302.452	16.38
302.667	20.48
302.881	0
303.095	24.58
303.309	63.49
303.524	-6.14
303.738	108.54
303.952	67.58
304.166	18.43
304.381	-2.05
304.595	51.2
304.809	57.34
305.023	40.96
305.237	26.62
305.452	36.86
305.666	30.72
305.88	77.82
306.094	16.38
306.308	20.48
306.522	71.68
306.736	83.97
306.95	-2.05
307.164	24.58
307.379	26.62
307.593	77.82
307.807	-57.34
308.021	22.53
308.235	10.24
308.449	49.15
308.663	34.82
308.877	24.58
309.091	59.39
309.305	24.58
309.519	55.3
309.733	18.43
309.947	26.62
310.161	69.63
310.374	81.92
310.588	10.24
310.802	-6.14
311.016	4.1
311.23	-18.43
311.444	6.14
311.658	81.92
311.872	-30.72
312.085	65.54
312.299	36.86
312.513	34.82
312.727	30.72
312.941	34.82
313.154	24.58
313.368	40.96
313.582	71.68
313.796	65.54
314.009	49.15
314.223	-2.05
314.437	75.77
314.651	47.1
314.864	34.82
315.078	4.1
315.292	16.38
315.505	12.29
315.719	47.1
315.933	26.62
316.146	98.3
316.36	26.62
316.573	2.05
316.787	6.14
317.001	106.49
317.214	26.62
317.428	-10.24
317.641	18.43
317.855	8.19
318.068	12.29
318.282	22.53
318.495	86.01
318.709	92.16
318.922	32.77
319.136	-16.38
319.349	49.15
319.563	86.01
319.776	14.34
319.99	34.82
320.203	47.1
320.417	57.34
320.63	16.38
320.843	51.2
321.057	-16.38
321.27	43.01
321.483	104.45
321.697	-14.34
321.91	-30.72
322.124	34.82
322.337	-24.58
322.55	-18.43
322.763	65.54
322.977	47.1
323.19	-28.67
323.403	18.43
323.617	51.2
323.83	92.16
324.043	-22.53
324.256	30.72
324.469	-4.1
324.683	131.07
324.896	14.34
325.109	16.38
325.322	-20.48
325.535	-12.29
325.748	-14.34
325.962	59.39
326.175	12.29
326.388	45.06
326.601	53.25
326.814	110.59
327.027	90.11
327.24	81.92
327.453	24.58
327.666	-28.67
327.879	8.19
328.092	4.1
328.305	73.73
328.518	-20.48
328.731	-8.19
328.944	79.87
329.157	-30.72
329.37	2.05
329.583	65.54
329.796	8.19
330.009	49.15
330.222	79.87
330.435	32.77
330.648	8.19
330.861	10.24
331.073	57.34
331.286	81.92
331.499	-30.72
331.712	8.19
331.925	-34.82
332.138	63.49
332.35	83.97
332.563	45.06
332.776	0
332.989	20.48
333.202	-6.14
333.414	-24.58
333.627	0
333.84	16.38
334.053	104.45
334.265	22.53
334.478	-8.19
334.691	-14.34
334.903	69.63
335.116	61.44
335.329	51.2
335.541	94.21
335.754	22.53
335.966	-14.34
336.179	4.1
336.392	-26.62
336.604	2.05
336.817	40.96
337.029	4.1
337.242	55.3
337.454	20.48
337.667	51.2
337.88	0
338.092	16.38
338.305	112.64
338.517	16.38
338.729	43.01
338.942	12.29
339.154	69.63
339.367	28.67
339.579	77.82
339.792	36.86
340.004	92.16
340.217	32.77
340.429	75.77
340.641	-10.24
340.854	51.2
341.066	57.34
341.278	32.77
341.491	77.82
341.703	-43.01
341.915	24.58
342.128	69.63
342.34	71.68
342.552	24.58
342.764	51.2
342.977	34.82
343.189	59.39
343.401	2.05
343.613	51.2
343.826	18.43
344.038	32.77
344.25	71.68
344.462	34.82
344.674	71.68
344.886	-24.58
345.099	34.82
345.311	77.82
345.523	47.1
345.735	59.39
345.947	69.63
346.159	10.24
346.371	20.48
346.583	59.39
346.795	61.44
347.007	16.38
347.219	94.21
347.431	24.58
347.643	2.05
347.855	22.53
348.067	-8.19
348.279	-32.77
348.491	65.54
348.703	-18.43
348.915	47.1
349.127	28.67
349.339	-18.43
349.551	36.86
349.763	8.19
349.975	94.21
350.187	0
350.399	18.43
350.61	-4.1
350.822	20.48
351.034	-12.29
351.246	-14.34
351.458	139.26
351.669	63.49
351.881	69.63
352.093	63.49
352.305	14.34
352.517	-40.96
352.728	86.01
352.94	45.06
353.152	79.87
353.363	32.77
353.575	16.38
353.787	-81.92
353.999	104.45
354.21	104.45
354.422	45.06
354.633	49.15
354.845	-32.77
355.057	-8.19
355.268	51.2
355.48	24.58
355.692	51.2
355.903	61.44
356.115	20.48
356.326	-14.34
356.538	83.97
356.749	36.86
356.961	-2.05
357.172	-10.24
357.384	16.38
357.595	8.19
357.807	122.88
358.018	-12.29
358.23	-18.43
358.441	-6.14
358.653	102.4
358.864	-43.01
359.075	63.49
359.287	34.82
359.498	110.59
359.709	108.54
359.921	63.49
360.132	49.15
360.344	43.01
360.555	59.39
360.766	67.58
360.977	32.77
361.189	34.82
361.4	32.77
361.611	30.72
361.823	-4.1
362.034	-4.1
362.245	71.68
362.456	55.3
362.667	86.01
362.879	32.77
363.09	83.97
363.301	67.58
363.512	77.82
363.723	51.2
363.935	106.49
364.146	100.35
364.357	28.67
364.568	28.67
364.779	36.86
364.99	40.96
365.201	65.54
365.412	-16.38
365.623	6.14
365.834	73.73
366.045	81.92
366.256	118.78
366.467	98.3
366.678	53.25
366.889	55.3
367.1	81.92
367.311	55.3
367.522	4.1
367.733	28.67
367.944	59.39
368.155	38.91
368.366	10.24
368.577	-14.34
368.788	-4.1
368.999	40.96
369.209	51.2
369.42	65.54
369.631	69.63
369.842	51.2
370.053	28.67
370.264	14.34
370.474	69.63
370.685	36.86
370.896	32.77
371.107	14.34
371.317	12.29
371.528	86.01
371.739	55.3
371.95	38.91
372.16	20.48
372.371	55.3
372.582	81.92
372.792	38.91
373.003	67.58
373.214	-16.38
373.424	40.96
373.635	-6.14
373.846	38.91
374.056	83.97
374.267	10.24
374.477	6.14
374.688	32.77
374.898	28.67
375.109	-12.29
375.319	53.25
375.53	32.77
375.74	69.63
375.951	18.43
376.161	28.67
376.372	20.48
376.582	120.83
376.793	77.82
377.003	34.82
377.214	63.49
377.424	-4.1
377.635	20.48
377.845	59.39
378.055	-6.14
378.266	16.38
378.476	73.73
378.686	14.34
378.897	124.93
379.107	16.38
379.317	61.44
379.528	71.68
379.738	55.3
379.948	-51.2
380.158	45.06
380.369	-10.24
380.579	90.11
380.789	122.88
380.999	16.38
381.21	88.06
381.42	71.68
381.63	-34.82
381.84	90.11
382.05	0
382.261	131.07
382.471	18.43
382.681	43.01
382.891	100.35
383.101	108.54
383.311	34.82
383.521	53.25
383.731	49.15
383.941	106.49
384.151	98.3
384.361	59.39
384.571	67.58
384.781	75.77
384.991	71.68
385.201	106.49
385.411	47.1
385.621	16.38
385.831	73.73
386.041	81.92
386.251	47.1
386.461	79.87
386.671	108.54
386.881	43.01
387.091	32.77
387.301	38.91
387.511	81.92
387.72	30.72
387.93	45.06
388.14	24.58
388.35	-4.1
388.56	69.63
388.769	40.96
388.979	77.82
389.189	79.87
389.399	28.67
389.609	88.06
389.818	12.29
390.028	122.88
390.238	47.1
390.447	4.1
390.657	53.25
390.867	32.77
391.076	-8.19
391.286	108.54
391.496	110.59
391.705	30.72
391.915	88.06
392.125	98.3
392.334	106.49
392.544	69.63
392.753	30.72
392.963	88.06
393.172	20.48
393.382	79.87
393.591	106.49
393.801	-4.1
394.01	139.26
394.22	153.6
394.429	28.67
394.639	51.2
394.848	63.49
395.058	151.55
395.267	34.82
395.477	38.91
395.686	88.06
395.895	90.11
396.105	102.4
396.314	94.21
396.524	124.93
396.733	47.1
396.942	114.69
397.152	77.82
397.361	20.48
397.57	108.54
397.78	49.15
397.989	83.97
398.198	141.31
398.407	120.83
398.617	92.16
398.826	34.82
399.035	-6.14
399.244	-24.58
399.453	108.54
399.663	65.54
399.872	59.39
400.081	47.1
400.29	129.02
400.499	-16.38
400.708	112.64
400.917	57.34
401.127	61.44
401.336	104.45
401.545	106.49
401.754	55.3
401.963	16.38
402.172	141.31
402.381	65.54
402.59	67.58
402.799	69.63
403.008	18.43
403.217	86.01
403.426	96.25
403.635	79.87
403.844	57.34
404.053	145.41
404.262	57.34
404.471	92.16
404.68	167.93
404.888	86.01
405.097	65.54
405.306	106.49
405.515	143.36
405.724	94.21
405.933	98.3
406.142	65.54
406.35	196.61
406.559	73.73
406.768	151.55
406.977	114.69
407.185	137.21
407.394	163.84
407.603	57.34
407.812	112.64
408.02	172.03
408.229	204.8
408.438	202.75
408.646	180.22
408.855	131.07
409.064	169.98
409.272	106.49
409.481	223.23
409.69	221.18
409.898	169.98
410.107	190.46
410.315	251.9
410.524	159.74
410.733	227.32
410.941	188.41
411.15	266.24
411.358	215.04
411.567	174.08
411.775	282.62
411.984	284.67
412.192	299
412.401	270.33
412.609	270.33
412.818	337.91
413.026	262.14
413.234	348.15
413.443	307.2
413.651	292.86
413.86	286.72
414.068	327.67
414.276	358.39
414.485	360.44
414.693	280.57
414.901	401.4
415.11	376.83
415.318	499.7
415.526	587.77
415.734	458.74
415.943	442.36
416.151	514.04
416.359	532.47
416.567	442.36
416.776	509.94
416.984	624.63
417.192	645.11
417.4	585.72
417.608	559.1
417.817	608.25
418.025	651.25
418.233	774.13
418.441	759.8
418.649	774.13
418.857	794.61
419.065	794.61
419.273	808.95
419.481	835.57
419.689	870.39
419.897	931.83
420.105	948.21
420.313	950.26
420.521	1038.32
420.729	948.21
420.937	1089.52
421.145	1062.9
421.353	1056.75
421.561	1224.69
421.769	1216.49
421.977	1189.87
422.185	1269.74
422.393	1316.84
422.601	1427.43
422.809	1318.89
423.017	1427.43
423.224	1488.87
423.432	1439.72
423.64	1501.16
423.848	1652.71
424.056	1609.7
424.263	1636.33
424.471	1730.53
424.679	1687.53
424.887	1863.65
425.094	1855.46
425.302	2023.39
425.51	2056.16
425.718	2076.64
425.925	2068.45
426.133	2267.1
426.341	2289.63
426.548	2475.99
426.756	2310.11
426.964	2443.23
427.171	2658.26
427.379	2580.44
427.586	2553.82
427.794	2758.61
428.001	2924.5
428.209	2967.51
428.417	2928.6
428.624	3067.86
428.832	3180.5
429.039	3198.93
429.247	3102.67
429.454	3485.64
429.662	3598.28
429.869	3536.84
430.076	3755.97
430.284	3532.75
430.491	3684.3
430.699	3983.3
430.906	4003.78
431.114	4022.21
431.321	4321.21
431.528	4290.49
431.736	4614.07
431.943	4628.41
432.15	4571.07
432.358	4769.72
432.565	4802.49
432.772	4874.17
432.979	5257.14
433.187	5193.65
433.394	5113.78
433.601	5660.59
433.808	5611.43
434.016	5676.97
434.223	5828.52
434.43	6354.85
434.637	6266.78
434.844	6635.42
435.052	6596.51
435.259	6717.34
435.466	6633.37
435.673	6662.04
435.88	7196.56
436.087	7358.35
436.294	7225.23
436.501	7122.84
436.708	7387.02
436.915	7786.38
437.122	8019.85
437.329	7956.36
437.537	8120.2
437.743	8341.38
437.95	8355.71
438.157	8726.39
438.364	8920.95
438.571	9138.04
438.778	9107.32
438.985	9789.29
439.192	9627.5
439.399	9658.22
439.606	9654.12
439.813	10180.45
440.02	10702.68
440.227	10471.26
440.433	10428.26
440.64	10528.61
440.847	10757.98
441.054	10925.91
441.261	11595.6
441.467	11452.24
441.674	11892.55
441.881	12261.19
442.088	12136.26
442.294	11986.76
442.501	12480.32
442.708	12556.1
442.914	12984.12
443.121	13561.65
443.328	13395.76
443.534	14262.05
443.741	13801.26
443.948	13526.83
444.154	14733.09
444.361	14679.84
444.568	14675.74
444.774	14708.51
444.981	14737.18
445.187	15234.84
445.394	15820.56
445.6	15687.44
445.807	17245.94
446.013	16580.35
446.22	16973.56
446.426	17448.69
446.633	17782.51
446.839	18292.46
447.046	17366.77
447.252	18454.25
447.459	18564.84
447.665	18423.53
447.871	19334.87
448.078	20326.09
448.284	19009.25
448.491	19486.42
448.697	20348.62
448.903	20860.61
449.11	21100.22
449.316	20606.66
449.522	20915.9
449.728	21616.31
449.935	21630.65
450.141	21741.24
450.347	22412.97
450.553	21382.84
450.76	22066.86
450.966	22697.64
451.172	22449.83
451.378	22697.64
451.584	22556.33
451.791	22945.44
451.997	22863.52
452.203	23303.84
452.409	23430.81
452.615	23105.18
452.821	22455.98
453.027	22300.33
453.233	23086.75
453.44	22591.14
453.646	22730.41
453.852	22847.14
454.058	23203.49
454.264	22513.32
454.47	23074.46
454.676	22406.83
454.882	23314.08
455.088	21266.11
455.294	21630.65
455.5	21825.2
455.705	22111.92
455.911	21231.29
456.117	20876.99
456.323	20567.75
456.529	19445.46
456.735	20440.78
456.941	19973.84
457.147	19314.39
457.352	19189.47
457.558	19048.16
457.764	18968.29
457.97	18390.76
458.176	18022.12
458.381	17997.55
458.587	17221.37
458.793	16983.8
458.999	16256.78
459.204	17426.17
459.41	17028.86
459.616	15771.41
459.821	15935.24
460.027	15808.27
460.233	15589.14
460.438	14765.85
460.644	14880.54
460.85	14298.92
461.055	13993.77
461.261	14171.94
461.466	12894.01
461.672	12828.48
461.878	13451.06
462.083	12846.91
462.289	12375.88
462.494	12171.08
462.7	11837.26
462.905	11579.22
463.111	11894.6
463.316	11990.86
463.522	11833.16
463.727	11898.7
463.932	11796.3
464.138	11528.02
464.343	11542.35
464.549	11267.92
464.754	11738.96
464.959	11585.36
465.165	11409.23
465.37	11106.13
465.575	10741.6
465.781	11241.3
465.986	11298.64
466.191	10762.08
466.397	10741.6
466.602	9996.14
466.807	10553.18
467.012	10676.06
467.218	10448.74
467.423	10303.33
467.628	10258.28
467.833	10930.01
468.038	10551.13
468.244	10286.95
468.449	10667.87
468.654	10186.6
468.859	10162.02
469.064	9924.46
469.269	9690.99
469.474	9930.6
469.679	9965.42
469.885	9688.94
470.09	9938.79
470.295	9840.49
470.5	9514.86
470.705	9672.56
470.91	9348.98
471.115	9250.67
471.32	9486.19
471.525	9330.55
471.73	9279.35
471.935	9090.93
472.139	8886.14
472.344	9027.45
472.549	8865.66
472.754	8812.41
472.959	8517.5
473.164	8374.14
473.369	8185.73
473.574	8611.71
473.778	8705.92
473.983	8478.59
474.188	8343.42
474.393	8095.62
474.598	7997.32
474.802	8060.8
475.007	7868.3
475.212	7749.51
475.417	7571.34
475.621	7649.16
475.826	7677.83
476.031	7440.27
476.235	7348.11
476.44	7495.57
476.645	7272.34
476.849	7219.09
477.054	7247.76
477.259	7149.46
477.463	6997.91
477.668	6864.79
477.872	7096.21
478.077	6872.98
478.282	6635.42
478.486	6682.52
478.691	6670.23
478.895	6647.71
479.1	6463.39
479.304	6594.46
479.509	6498.2
479.713	6522.78
479.918	6373.28
480.122	6381.47
480.326	6182.82
480.531	6127.52
480.735	6270.88
480.94	6231.97
481.144	6371.23
481.348	6234.02
481.553	6186.91
481.757	6180.77
481.961	6131.62
482.166	6141.86
482.37	6053.8
482.574	5918.63
482.778	5959.59
482.983	6195.11
483.187	6199.2
483.391	6285.22
483.595	6000.55
483.8	6080.42
484.004	6078.37
484.208	6154.15
484.412	5941.16
484.616	6266.78
484.821	6139.81
485.025	5935.01
485.229	6283.17
485.433	6119.33
485.637	6199.2
485.841	6043.56
486.045	6178.72
486.249	6219.68
486.453	6166.43
486.657	6195.11
486.861	6086.56
487.065	6078.37
487.269	6252.45
487.473	6148
487.677	6401.95
487.881	6229.92
488.085	6059.94
488.289	6223.78
488.493	6334.37
488.697	6274.98
488.901	6354.85
489.105	6428.57
489.309	6231.97
489.512	6387.61
489.716	6373.28
489.92	6262.69
490.124	6354.85
490.328	6447.01
490.531	6395.81
490.735	6514.59
490.939	6678.43
491.143	6657.95
491.346	6510.49
491.55	6746.01
491.754	6612.89
491.958	6651.8
492.161	6752.15
492.365	6715.29
492.569	6848.41
492.772	6850.46
492.976	6977.43
493.18	7153.55
493.383	6959
493.587	7159.7
493.79	7155.6
493.994	7092.12
494.197	7294.86
494.401	7397.26
494.605	7217.04
494.808	7360.4
495.012	7489.42
495.215	7440.27
495.419	7595.92
495.622	7413.65
495.825	8077.19
496.029	7810.95
496.232	7933.83
496.436	7896.97
496.639	8091.52
496.843	8044.42
497.046	8177.54
497.249	8300.42
497.453	8454.01
497.656	8507.26
497.859	8662.91
498.063	8677.24
498.266	8691.58
498.469	8798.07
498.673	8855.42
498.876	8931.19
499.079	9172.85
499.282	9152.37
499.485	9369.46
499.689	9445.23
499.892	9465.71
500.095	9713.52
500.298	9965.42
500.501	9895.78
500.705	10311.52
500.908	10379.11
501.111	10395.49
501.314	10434.4
501.517	10504.03
501.72	10981.21
501.923	10796.89
502.126	11222.87
502.329	11384.66
502.532	11421.52
502.735	11460.43
502.938	11581.26
503.141	11904.84
503.344	12158.79
503.547	12056.39
503.75	12330.82
503.953	12644.16
504.156	12642.11
504.359	12681.02
504.562	13010.75
504.765	13385.52
504.968	13248.31
505.17	13293.37
505.373	13487.92
505.576	13963.05
505.779	13834.03
505.982	14081.83
506.185	14147.37
506.387	14403.36
506.59	14331.69
506.793	14833.44
506.996	14954.27
507.198	15243.03
507.401	15337.24
507.604	15656.72
507.807	15869.71
508.009	15994.64
508.212	16201.48
508.415	16318.22
508.617	16451.33
508.82	16869.12
509.022	16674.56
509.225	17231.61
509.428	17344.25
509.63	17297.14
509.833	17415.93
510.035	18091.76
510.238	18079.47
510.44	18337.51
510.643	18321.13
510.845	18640.61
511.048	18573.03
511.25	19093.21
511.453	19171.04
511.655	19611.35
511.858	19611.35
512.06	19881.68
512.262	20270.79
512.465	20137.68
512.667	20788.93
512.87	20801.22
513.072	20936.38
513.274	21341.88
513.477	21434.04
513.679	21653.17
513.881	22165.17
514.084	22398.63
514.286	22314.67
514.488	22398.63
514.69	23348.89
514.893	23256.73
515.095	23342.75
515.297	23637.66
515.499	23697.05
515.701	24194.7
515.904	24131.22
516.106	24770.18
516.308	24745.61
516.51	25122.43
516.712	25171.58
516.914	25958
517.116	26021.49
517.318	25773.69
517.52	26308.21
517.722	26152.56
517.925	26941.03
518.127	27076.19
518.329	27240.03
518.531	27461.21
518.733	27754.07
518.935	28116.56
519.136	28075.6
519.338	28511.82
519.54	28689.99
519.742	28878.41
519.944	29244.99
520.146	29695.55
520.348	29560.38
520.55	29707.83
520.752	30154.29
520.954	30426.67
521.155	30461.49
521.357	30797.35
521.559	31376.93
521.761	31229.48
521.963	31583.77
522.164	31731.23
522.366	31804.95
522.568	32286.23
522.77	32349.71
522.971	32671.25
523.173	32515.6
523.375	32888.33
523.576	33265.16
523.778	33383.94
523.98	33570.3
524.181	33476.1
524.383	33920.51
524.584	34174.45
524.786	34188.79
524.988	34369.01
525.189	34514.42
525.391	34817.52
525.592	35165.67
525.794	35182.06
525.995	35263.97
526.197	35335.65
526.398	35204.58
526.6	35605.98
526.801	35718.62
527.003	35974.62
527.204	36224.47
527.406	36292.05
527.607	35898.84
527.808	37035.47
528.01	36058.59
528.211	37160.39
528.412	37338.57
528.614	37082.57
528.815	37328.33
529.016	37764.54
529.218	36808.14
529.419	37418.44
529.62	37455.3
529.822	37412.29
530.023	37694.91
530.224	37723.58
530.425	37848.51
530.626	37703.1
530.828	37227.98
531.029	38366.65
531.23	37633.47
531.431	37995.96
531.632	38286.78
531.833	38301.11
532.035	38366.65
532.236	38632.88
532.437	38546.87
532.638	38553.01
532.839	38675.89
533.04	39079.34
533.241	38069.69
533.442	39441.83
533.643	38706.61
533.844	38722.99
534.045	39175.59
534.246	38454.71
534.447	38772.14
534.648	39052.72
534.849	39241.13
535.05	38817.2
535.251	39558.56
535.451	39093.68
535.652	39318.95
535.853	38983.09
536.054	39298.47
536.255	39507.37
536.456	38786.48
536.657	39720.35
536.857	39249.32
537.058	39220.65
537.259	39949.73
537.46	39878.05
537.66	39558.56
537.861	39517.61
538.062	39042.48
538.263	39648.68
538.463	39839.14
538.664	39701.92
538.865	40088.99
539.065	39775.65
539.266	39699.87
539.466	40113.56
539.667	39380.39
539.868	39898.53
540.068	39919.01
540.269	39468.45
540.469	40138.14
540.67	39435.69
540.87	39914.91
541.071	39792.03
541.271	40105.37
541.472	40150.43
541.672	40387.99
541.873	40111.52
542.073	39388.58
542.274	40324.5
542.474	39755.17
542.675	39708.07
542.875	40035.74
543.075	40244.63
543.276	39691.68
543.476	40109.47
543.676	39845.28
543.877	40332.7
544.077	40500.63
544.277	39873.95
544.478	39787.94
544.678	40195.48
544.878	40031.65
545.078	39839.14
545.279	40107.42
545.479	40242.59
545.679	40175
545.879	39732.64
546.079	40134.04
546.28	40226.2
546.48	39837.09
546.68	40324.5
546.88	40215.96
547.08	39900.58
547.28	40213.91
547.48	39763.36
547.68	40181.15
547.88	40074.65
548.081	40027.55
548.281	40172.96
548.481	39968.16
548.681	40521.11
548.881	40148.38
549.081	40011.17
549.28	40002.97
549.48	40082.84
549.68	39996.83
549.88	40523.16
550.08	39759.27
550.28	40203.67
550.48	39722.4
550.68	40244.63
550.88	40107.42
551.08	40209.82
551.279	40119.71
551.479	39851.42
551.679	39806.37
551.879	39798.18
552.079	40353.18
552.278	40056.22
552.478	39941.53
552.678	40050.08
552.878	40156.57
553.077	39757.22
553.277	39781.79
553.477	40402.33
553.676	40168.86
553.876	40232.35
554.076	39972.25
554.275	39939.49
554.475	39538.08
554.674	39933.34
554.874	39921.05
555.074	39882.14
555.273	39898.53
555.473	39689.63
555.672	39736.74
555.872	39841.18
556.071	39728.55
556.271	40193.43
556.47	39876
556.67	39542.18
556.869	39736.74
557.068	39943.58
557.268	39935.39
557.467	39642.53
557.667	39749.03
557.866	39677.35
558.065	39863.71
558.265	39685.54
558.464	39290.28
558.663	39824.8
558.863	39529.89
559.062	39869.86
559.261	39306.66
559.461	40027.55
559.66	39206.31
559.859	39708.07
560.058	39185.83
560.258	39517.61
560.457	39214.51
560.656	39656.87
560.855	39210.41
561.054	39775.65
561.253	39280.04
561.453	39439.78
561.652	39407.01
561.851	39271.85
562.05	38854.06
562.249	39720.35
562.448	39931.29
562.647	39255.47
562.846	39007.66
563.045	39263.66
563.244	38776.24
563.443	39558.56
563.642	38915.5
563.841	39151.02
564.04	38892.97
564.239	39341.48
564.438	39198.12
564.637	39282.09
564.836	39275.94
565.035	38972.85
565.234	39480.74
565.432	39095.72
565.631	39081.39
565.83	39038.38
566.029	38749.62
566.228	38995.37
566.427	39067.05
566.625	39034.28
566.824	38206.9
567.023	38786.48
567.222	38553.01
567.42	39378.34
567.619	38518.2
567.818	38198.71
568.016	38374.84
568.215	39013.8
568.414	38776.24
568.612	39067.05
568.811	38618.55
569.01	38368.69
569.208	38411.7
569.407	39048.62
569.605	38165.95
569.804	38579.64
570.002	37934.53
570.201	38587.83
570.4	38157.75
570.598	38059.45
570.797	37926.33
570.995	38213.05
571.193	38006.2
571.392	38081.98
571.59	37891.52
571.789	37946.81
571.987	37742.02
572.186	37916.09
572.384	37686.72
572.582	37703.1
572.781	37764.54
572.979	37205.45
573.177	37612.99
573.376	38036.92
573.574	37408.2
573.772	37858.75
573.971	37092.81
574.169	37197.26
574.367	37383.62
574.565	37586.37
574.763	37252.55
574.962	37004.75
575.16	36982.22
575.358	37012.94
575.556	36582.87
575.754	37557.7
575.952	36609.49
576.151	37121.48
576.349	36763.09
576.547	36810.19
576.745	36750.8
576.943	36634.07
577.141	36261.33
577.339	36414.93
577.537	36003.29
577.735	36101.59
577.933	36042.2
578.131	36306.39
578.329	36048.35
578.527	35692
578.725	35882.46
578.923	36023.77
579.121	36027.87
579.319	35769.82
579.516	36079.07
579.714	35663.33
579.912	35384.8
580.11	35548.64
580.308	35565.03
580.506	35218.92
580.704	34917.87
580.901	35173.86
581.099	35272.17
581.297	34958.83
581.495	34956.78
581.692	34952.68
581.89	34872.81
582.088	35220.97
582.285	34606.58
582.483	34979.31
582.681	34498.03
582.878	34602.48
583.076	34280.95
583.274	34708.97
583.471	34133.5
583.669	33910.27
583.866	34047.48
584.064	34383.35
584.262	33678.85
584.459	34029.05
584.657	33611.26
584.854	34119.16
585.052	33447.43
585.249	34119.16
585.447	33555.97
585.644	33592.83
585.841	33396.23
586.039	33779.2
586.236	33021.45
586.434	33138.18
586.631	33003.02
586.828	32835.08
587.026	33248.77
587.223	33144.33
587.42	32618
587.618	32828.94
587.815	32146.97
588.012	32308.76
588.21	32470.54
588.407	32529.94
588.604	32374.29
588.801	32001.56
588.999	32368.15
589.196	32316.95
589.393	32169.49
589.59	31966.74
589.787	32210.45
589.984	32005.66
590.182	31581.73
590.379	32312.85
590.576	30891.56
590.773	31311.39
590.97	31448.61
591.167	31344.16
591.364	30901.8
591.561	31231.52
591.758	31075.88
591.955	31008.29
592.152	31016.49
592.349	31002.15
592.546	30903.85
592.743	30651.95
592.94	30467.63
593.137	30625.32
593.334	30776.87
593.531	30172.72
593.727	30383.66
593.924	30367.28
594.121	30199.35
594.318	30250.55
594.515	29767.23
594.712	30209.59
594.908	29722.17
595.105	29982.26
595.302	29597.24
595.499	29515.33
595.696	29453.89
595.892	29150.79
596.089	29421.12
596.286	29486.65
596.482	29167.17
596.679	29271.62
596.876	29679.16
597.072	28997.19
597.269	28905.03
597.466	28782.15
597.662	28640.84
597.859	28575.31
598.055	28477.01
598.252	28614.22
598.448	28296.78
598.645	28264.02
598.841	27827.8
599.038	28286.54
599.234	28178
599.431	27977.3
599.627	28139.09
599.824	28186.19
600.02	27608.67
600.217	27911.77
600.413	27729.5
600.609	27659.87
600.806	27321.95
601.002	27145.83
601.198	27440.73
601.395	27307.62
601.591	27076.19
601.787	27088.48
601.984	26900.07
602.18	26992.23
602.376	27014.76
602.572	26920.55
602.769	26748.52
602.965	26343.02
603.161	26662.51
603.357	26271.34
603.553	26564.2
603.75	26404.46
603.946	26429.04
604.142	26328.69
604.338	25749.11
604.534	25964.15
604.73	26066.55
604.926	25976.44
605.122	26224.24
605.318	25650.81
605.514	25720.44
605.71	25644.66
605.906	25491.07
606.102	25376.38
606.298	25560.7
606.494	25480.83
606.69	25360
606.886	25689.72
607.082	24805
607.278	24925.83
607.474	24831.62
607.67	25284.22
607.866	24446.6
608.062	25280.13
608.257	24784.52
608.453	24690.31
608.649	24764.04
608.845	24471.18
609.041	24845.96
609.236	24731.27
609.432	24704.65
609.628	24716.93
609.824	24307.34
610.019	24329.87
610.215	24358.54
610.411	24264.33
610.606	24295.05
610.802	24288.91
610.998	24092.3
611.193	24327.82
611.389	23770.77
611.584	23975.57
611.78	23631.51
611.976	23813.78
612.171	24014.48
612.367	23803.54
612.562	23551.64
612.758	23512.73
612.953	23416.47
613.149	23852.69
613.344	23467.67
613.539	23793.3
613.735	23488.15
613.93	23881.36
614.126	23611.03
614.321	23189.15
614.517	23545.5
614.712	23375.52
614.907	22988.45
615.103	23291.55
615.298	23119.52
615.493	23160.48
615.688	22716.07
615.884	23258.78
616.079	22924.96
616.274	22896.29
616.47	23068.32
616.665	23004.83
616.86	22679.21
617.055	22875.81
617.25	22533.8
617.445	22873.76
617.641	22038.19
617.836	22613.67
618.031	22199.98
618.226	22359.72
618.421	22281.9
618.616	22711.97
618.811	22161.07
619.006	22359.72
619.201	21802.68
619.396	22191.79
619.591	21968.56
619.786	21954.22
619.981	21544.63
620.176	21696.18
620.371	21100.22
620.566	21362.36
620.761	21296.83
620.956	21284.54
621.151	21020.35
621.346	21380.79
621.541	20731.59
621.735	20862.66
621.93	20666.05
622.125	20895.43
622.32	20375.24
622.515	20594.37
622.709	20350.67
622.904	20530.89
623.099	20240.08
623.294	19955.41
623.488	19662.55
623.683	19828.43
623.878	19431.13
624.072	19830.48
624.267	19494.61
624.462	19363.54
624.656	19281.63
624.851	19269.34
625.046	19377.88
625.24	19123.93
625.435	18755.3
625.629	18945.76
625.824	18665.19
626.018	18659.04
626.213	18343.66
626.407	18446.05
626.602	18118.38
626.796	18370.28
626.991	18118.38
627.185	18155.24
627.38	17860.34
627.574	17772.27
627.768	17682.16
627.963	17469.17
628.157	17381.11
628.352	17559.28
628.546	17436.41
628.74	17585.91
628.935	17055.48
629.129	17159.93
629.323	16832.26
629.517	16934.65
629.712	16832.26
629.906	17069.82
630.1	16756.48
630.294	16670.47
630.489	16289.54
630.683	16373.51
630.877	16267.02
631.071	16365.32
631.265	16178.95
631.459	16080.65
631.653	15963.92
631.848	15984.4
632.042	15773.46
632.236	15988.49
632.43	15650.58
632.624	15632.15
632.818	15451.92
633.012	15511.32
633.206	15353.62
633.4	15410.96
633.594	15312.66
633.788	15187.74
633.982	15294.23
634.176	15146.78
634.369	15021.85
634.563	14956.32
634.757	14753.57
634.951	14864.16
635.145	14473
635.339	14714.66
635.533	14360.36
635.726	14360.36
635.92	14491.43
636.114	14384.93
636.308	14182.18
636.501	14147.37
636.695	14368.55
636.889	14139.18
637.083	14022.44
637.276	13942.57
637.47	13782.83
637.664	13586.22
637.857	13823.79
638.051	13477.68
638.244	13688.62
638.438	13432.63
638.632	13516.59
638.825	13188.92
639.019	13094.71
639.212	12904.25
639.406	13072.18
639.599	13160.25
639.793	13088.57
639.986	12791.61
640.18	13029.18
640.373	12764.99
640.567	12668.73
640.76	12490.56
640.954	12494.66
641.147	12242.76
641.34	12345.16
641.534	12513.09
641.727	12289.86
641.92	12519.23
642.114	12068.68
642.307	12214.09
642.5	12050.25
642.694	12083.02
642.887	11902.79
643.08	11794.25
643.273	11611.98
643.467	11741
643.66	11724.62
643.853	11575.12
644.046	11466.58
644.239	11423.57
644.432	11464.53
644.626	11355.99
644.819	11202.39
645.012	11196.25
645.205	11341.65
645.398	11040.6
645.591	11054.94
645.784	10940.25
645.977	10839.9
646.17	10870.62
646.363	10674.01
646.556	10633.05
646.749	10549.09
646.942	10708.83
647.135	10438.5
647.328	10653.53
647.521	10434.4
647.714	10327.91
647.907	10272.61
648.099	10274.66
648.292	10104.68
648.485	10311.52
648.678	10055.53
648.871	9912.17
649.064	9791.34
649.256	9969.51
649.449	9772.91
649.642	9701.23
649.835	9734
650.027	9494.38
650.22	9545.58
650.413	9506.67
650.605	9568.11
650.798	9351.03
650.991	9252.72
651.183	9480.05
651.376	9166.71
651.568	9391.98
651.761	9009.01
651.954	8972.15
652.146	9129.84
652.339	9074.55
652.531	8974.2
652.724	8720.25
652.916	8617.85
653.109	8818.55
653.301	8806.27
653.494	8667
653.686	8693.63
653.879	8527.74
654.071	8511.36
654.263	8316.8
654.456	8400.77
654.648	8349.57
654.84	8314.75
655.033	8316.8
655.225	8232.83
655.417	8187.78
655.61	8175.49
655.802	8030.09
655.994	8015.75
656.186	8152.96
656.379	7833.48
656.571	7933.83
656.763	7765.9
656.955	7653.26
657.148	7765.9
657.34	7686.03
657.532	7585.68
657.724	7679.88
657.916	7718.79
658.108	7376.78
658.3	7458.7
658.492	7446.41
658.684	7382.93
658.876	7262.1
659.068	7227.28
659.26	7247.76
659.452	7241.62
659.644	7325.58
659.836	7014.29
660.028	7206.8
660.22	6983.57
660.412	6905.75
660.604	7030.68
660.796	6840.22
660.988	6748.06
661.18	6797.21
661.372	6666.14
661.563	6641.56
661.755	6492.06
661.947	6598.56
662.139	6487.96
662.331	6565.79
662.522	6451.1
662.714	6322.08
662.906	6238.11
663.097	6272.93
663.289	6268.83
663.481	6191.01
663.673	6205.35
663.864	6041.51
664.056	5982.12
664.247	6084.52
664.439	5840.81
664.631	5924.77
664.822	5881.77
665.014	5908.39
665.205	5965.73
665.397	5642.15
665.588	5676.97
665.78	5660.59
665.971	5590.95
666.163	5644.2
666.354	5554.09
666.546	5373.87
666.737	5599.15
666.929	5627.82
667.12	5359.53
667.311	5412.78
667.503	5226.42
667.694	5330.86
667.885	5191.6
668.077	5197.74
668.268	5351.34
668.459	5144.5
668.651	5101.49
668.842	5050.29
669.033	5089.2
669.224	4888.5
669.416	5060.53
669.607	4974.52
669.798	4988.85
669.989	5044.15
670.18	4822.97
670.371	4630.46
670.563	4839.35
670.754	4714.42
670.945	4839.35
671.136	4732.86
671.327	4767.67
671.518	4542.39
671.709	4675.51
671.9	4747.19
672.091	4499.39
672.282	4544.44
672.473	4415.42
672.664	4503.48
672.855	4466.62
673.046	4480.96
673.237	4458.43
673.428	4358.08
673.619	4452.28
673.809	4274.11
674	4329.41
674.191	4265.92
674.382	4249.54
674.573	4429.76
674.764	4313.02
674.954	4124.61
675.145	4065.22
675.336	4179.9
675.527	4255.68
675.717	4034.5
675.908	3973.06
676.099	4046.79
676.289	4124.61
676.48	4067.27
676.671	3850.18
676.861	4063.17
677.052	3989.44
677.243	3956.68
677.433	3979.2
677.624	3942.34
677.814	3956.68
678.005	3991.49
678.195	3776.45
678.386	3940.29
678.576	3753.93
678.767	3825.61
678.957	3864.52
679.148	3721.16
679.338	3700.68
679.529	3790.79
679.719	3704.78
679.909	3715.02
680.1	3731.4
680.29	3659.72
680.481	3737.54
680.671	3747.78
680.861	3614.66
681.052	3733.45
681.242	3620.81
681.432	3616.71
681.622	3508.17
681.813	3637.19
682.003	3735.49
682.193	3489.74
682.383	3614.66
682.573	3454.92
682.764	3524.55
682.954	3538.89
683.144	3530.7
683.334	3571.66
683.524	3481.55
683.714	3467.21
683.904	3463.12
684.094	3411.92
684.284	3567.56
684.474	3538.89
684.664	3512.27
684.854	3456.97
685.044	3440.59
685.234	3338.19
685.424	3366.86
685.614	3426.25
685.804	3346.38
685.994	3428.3
686.184	3325.9
686.374	3418.06
686.564	3268.56
686.753	3268.56
686.943	3377.1
687.133	3399.63
687.323	3309.52
687.513	3248.08
687.702	3293.13
687.892	3387.34
688.082	3305.42
688.272	3321.81
688.461	3309.52
688.651	3256.27
688.841	3278.8
689.03	3223.5
689.22	3291.09
689.41	3213.26
689.599	3291.09
689.789	3227.6
689.979	3155.92
690.168	3149.78
690.358	3164.11
690.547	3198.93
690.737	3217.36
690.926	3184.59
691.116	3104.72
691.305	3184.59
691.495	3104.72
691.684	3057.62
691.874	3084.24
692.063	3153.87
692.252	3131.34
692.442	3018.71
692.631	3039.19
692.82	2975.7
693.01	3106.77
693.199	3084.24
693.388	2951.12
693.578	3004.37
693.767	3176.4
693.956	3061.71
694.146	3014.61
694.335	2973.65
694.524	3049.43
694.713	3035.09
694.902	2893.78
695.092	2930.64
695.281	2949.07
695.47	2981.84
695.659	2987.99
695.848	2938.84
696.037	2879.44
696.226	2985.94
696.415	2906.07
696.604	2869.2
696.793	2848.72
696.982	2822.1
697.171	2684.89
697.36	2901.97
697.549	2777.05
697.738	2924.5
697.927	2705.37
698.116	2811.86
698.305	2836.44
698.494	2764.76
698.683	2746.33
698.872	2672.6
699.061	2727.89
699.25	2615.26
699.438	2764.76
699.627	2760.66
699.816	2748.37
700.005	2666.46
700.193	2711.51
700.382	2633.69
700.571	2684.89
700.76	2705.37
700.948	2574.3
701.137	2660.31
701.326	2582.49
701.514	2459.61
701.703	2660.31
701.892	2572.25
702.08	2535.39
702.269	2572.25
702.457	2408.41
702.646	2480.09
702.834	2445.27
703.023	2519
703.212	2469.85
703.4	2351.07
703.589	2443.23
703.777	2521.05
703.965	2340.83
704.154	2367.45
704.342	2496.47
704.531	2437.08
704.719	2392.03
704.907	2445.27
705.096	2232.29
705.284	2359.26
705.472	2320.35
705.661	2318.3
705.849	2310.11
706.037	2183.13
706.226	2174.94
706.414	2351.07
706.602	2215.9
706.79	2197.47
706.979	2203.61
707.167	2236.38
707.355	2273.25
707.543	2131.94
707.731	2195.42
707.919	2136.03
708.107	2209.76
708.296	2148.32
708.484	2234.33
708.672	2107.36
708.86	2146.27
709.048	2176.99
709.236	2133.98
709.424	1959.91
709.612	2138.08
709.8	2166.75
709.988	1957.86
710.176	2023.39
710.364	1961.95
710.551	2056.16
710.739	2103.26
710.927	1939.43
711.115	2062.3
711.303	2050.02
711.491	1908.71
711.679	1890.28
711.866	1939.43
712.054	1959.91
712.242	1929.19
712.43	1951.71
712.617	1988.58
712.805	1853.41
712.993	1849.32
713.181	1873.89
713.368	1894.37
713.556	1855.46
713.744	1843.17
713.931	1814.5
714.119	1863.65
714.306	1863.65
714.494	1806.31
714.682	1730.53
714.869	1703.91
715.057	1812.45
715.244	1810.4
715.432	1804.26
715.619	1714.15
715.807	1748.97
715.994	1775.59
716.182	1638.37
716.369	1728.49
716.556	1675.24
716.744	1607.66
716.931	1634.28
717.119	1710.05
717.306	1671.14
717.493	1587.18
717.681	1617.9
717.868	1523.69
718.055	1576.94
718.242	1560.55
718.43	1560.55
718.617	1597.42
718.804	1599.46
718.991	1515.5
719.179	1671.14
719.366	1613.8
719.553	1460.2
719.74	1443.82
719.927	1554.41
720.114	1488.87
720.301	1423.34
720.488	1396.71
720.676	1441.77
720.863	1454.06
721.05	1476.59
721.237	1325.04
721.424	1544.17
721.611	1421.29
721.798	1402.86
721.985	1404.91
722.172	1433.58
722.358	1435.63
722.545	1402.86
722.732	1308.65
722.919	1419.24
723.106	1312.75
723.293	1193.97
723.48	1325.04
723.667	1368.04
723.853	1339.37
724.04	1327.08
724.227	1294.32
724.414	1351.66
724.6	1200.11
724.787	1361.9
724.974	1359.85
725.161	1314.8
725.347	1251.31
725.534	1218.54
725.72	1294.32
725.907	1247.21
726.094	1200.11
726.28	1185.77
726.467	1212.4
726.653	1271.79
726.84	1159.15
727.027	1132.53
727.213	1216.49
727.4	1198.06
727.586	1171.44
727.773	1177.58
727.959	1296.36
728.145	1239.02
728.332	1138.67
728.518	1099.76
728.705	1032.18
728.891	1089.52
729.077	1183.73
729.264	1163.25
729.45	1122.29
729.636	1196.01
729.823	1101.81
730.009	1023.98
730.195	1155.05
730.382	1091.57
730.568	1017.84
730.754	1089.52
730.94	1052.66
731.126	1048.56
731.313	1148.91
731.499	1091.57
731.685	1038.32
731.871	1116.14
732.057	1015.79
732.243	972.79
732.429	1011.7
732.615	1077.23
732.801	1034.22
732.987	1052.66
733.173	1028.08
733.359	1095.66
733.545	991.22
733.731	991.22
733.917	980.98
734.103	966.64
734.289	921.59
734.475	944.11
734.661	1042.42
734.847	993.26
735.033	935.92
735.219	974.83
735.404	868.34
735.59	1015.79
735.776	940.02
735.962	991.22
736.148	952.31
736.333	890.87
736.519	866.29
736.705	958.45
736.89	1038.32
737.076	854
737.262	790.52
737.447	888.82
737.633	851.96
737.819	821.24
738.004	800.76
738.19	864.24
738.375	806.9
738.561	858.1
738.747	837.62
738.932	868.34
739.118	747.51
739.303	831.48
739.489	874.48
739.674	817.14
739.859	835.57
740.045	845.81
740.23	745.46
740.416	796.66
740.601	911.35
740.786	786.42
740.972	792.56
741.157	794.61
741.342	831.48
741.528	788.47
741.713	770.04
741.898	782.32
742.084	741.36
742.269	692.21
742.454	761.84
742.639	739.32
742.824	694.26
743.01	759.8
743.195	770.04
743.38	735.22
743.565	761.84
743.75	716.79
743.935	759.8
744.12	741.36
744.305	780.28
744.49	622.58
744.675	681.97
744.86	690.17
745.045	696.31
745.23	673.78
745.415	714.74
745.6	673.78
745.785	626.68
745.97	710.65
746.155	714.74
746.34	655.35
746.525	598.01
746.71	692.21
746.895	591.86
747.079	636.92
747.264	690.17
747.449	663.54
747.634	679.93
747.819	614.39
748.003	706.55
748.188	602.1
748.373	593.91
748.557	557.05
748.742	591.86
748.927	555
749.111	622.58
749.296	569.34
749.481	612.34
749.665	694.26
749.85	520.18
750.034	626.68
750.219	632.82
750.404	499.7
750.588	606.2
750.773	483.32
750.957	475.13
751.141	595.96
751.326	557.05
751.51	620.53
751.695	466.94
751.879	616.44
752.064	602.1
752.248	522.23
752.432	555
752.617	538.62
752.801	540.66
752.985	473.08
753.17	509.94
753.354	514.04
753.538	511.99
753.722	509.94
753.907	464.89
754.091	522.23
754.275	473.08
754.459	520.18
754.643	507.9
754.828	503.8
755.012	462.84
755.196	436.22
755.38	524.28
755.564	419.83
755.748	444.41
755.932	438.27
756.116	444.41
756.3	399.35
756.484	544.76
756.668	389.11
756.852	475.13
757.036	452.6
757.22	417.79
757.404	462.84
757.588	509.94
757.772	458.74
757.956	428.03
758.14	413.69
758.323	385.02
758.507	419.83
758.691	409.59
758.875	444.41
759.059	428.03
759.242	491.51
759.426	397.31
759.61	413.69
759.794	458.74
759.977	405.5
760.161	421.88
760.345	366.59
760.528	376.83
760.712	374.78
760.895	430.07
761.079	397.31
761.263	415.74
761.446	335.87
761.63	395.26
761.813	356.35
761.997	327.67
762.18	405.5
762.364	391.16
762.547	358.39
762.731	456.7
762.914	419.83
763.098	378.87
763.281	344.06
763.464	370.68
763.648	389.11
763.831	385.02
764.015	399.35
764.198	354.3
764.381	417.79
764.564	385.02
764.748	358.39
764.931	378.87
765.114	356.35
765.297	356.35
765.481	397.31
765.664	393.21
765.847	303.1
766.03	337.91
766.213	432.12
766.397	425.98
766.58	329.72
766.763	374.78
766.946	319.48
767.129	360.44
767.312	294.91
767.495	393.21
767.678	309.24
767.861	356.35
768.044	421.88
768.227	350.2
768.41	356.35
768.593	323.58
768.776	286.72
768.959	346.11
769.142	403.45
769.324	329.72
769.507	303.1
769.69	425.98
769.873	339.96
770.056	407.55
770.239	364.54
770.421	389.11
770.604	284.67
770.787	366.59
770.97	348.15
771.152	313.34
771.335	346.11
771.518	407.55
771.7	387.07
771.883	362.49
772.066	299
772.248	376.83
772.431	380.92
772.613	270.33
772.796	280.57
772.978	313.34
773.161	362.49
773.343	350.2
773.526	315.39
773.708	364.54
773.891	337.91
774.073	352.25
774.256	337.91
774.438	356.35
774.621	329.72
774.803	268.28
774.985	333.82
775.168	292.86
775.35	266.24
775.532	313.34
775.715	284.67
775.897	278.52
776.079	352.25
776.261	362.49
776.444	274.43
776.626	251.9
776.808	284.67
776.99	262.14
777.173	339.96
777.355	260.09
777.537	274.43
777.719	235.52
777.901	217.08
778.083	268.28
778.265	354.3
778.447	292.86
778.629	235.52
778.811	331.77
778.993	251.9
779.175	268.28
779.357	319.48
779.539	327.67
779.721	258.04
779.903	262.14
780.085	221.18
780.267	227.32
780.449	280.57
780.631	247.8
780.812	331.77
780.994	264.19
781.176	221.18
781.358	258.04
781.54	200.7
781.721	231.42
781.903	286.72
782.085	206.84
782.267	249.85
782.448	243.71
782.63	282.62
782.812	251.9
782.993	227.32
783.175	215.04
783.357	280.57
783.538	311.29
783.72	237.56
783.901	278.52
784.083	219.13
784.264	256
784.446	235.52
784.627	208.89
784.809	196.61
784.99	145.41
785.172	212.99
785.353	219.13
785.535	151.55
785.716	169.98
785.897	229.37
786.079	180.22
786.26	192.51
786.441	264.19
786.623	190.46
786.804	151.55
786.985	180.22
787.167	204.8
787.348	208.89
787.529	169.98
787.71	198.65
787.891	188.41
788.073	258.04
788.254	178.17
788.435	212.99
788.616	221.18
788.797	237.56
788.978	131.07
789.159	126.97
789.34	165.89
789.522	225.28
789.703	126.97
789.884	176.13
790.065	274.43
790.246	83.97
790.427	169.98
790.607	159.74
790.788	133.12
790.969	153.6
791.15	184.32
791.331	182.27
791.512	83.97
791.693	167.93
791.874	131.07
792.054	210.94
792.235	159.74
792.416	145.41
792.597	174.08
792.778	116.73
792.958	165.89
793.139	184.32
793.32	215.04
793.5	163.84
793.681	208.89
793.862	47.1
794.042	200.7
794.223	163.84
794.404	118.78
794.584	155.65
794.765	92.16
794.945	143.36
795.126	210.94
795.306	208.89
795.487	208.89
795.667	34.82
795.848	206.84
796.028	135.17
796.209	129.02
796.389	159.74
796.57	90.11
796.75	153.6
796.93	147.45
797.111	79.87
797.291	90.11
797.471	112.64
797.652	118.78
797.832	129.02
798.012	122.88
798.192	118.78
798.373	129.02
798.553	96.25
798.733	184.32
798.913	155.65
799.093	118.78
799.274	47.1
799.454	100.35
799.634	208.89
799.814	83.97
799.994	155.65
800.174	155.65
800.354	57.34
800.534	157.69
800.714	43.01
800.894	159.74
801.074	61.44
801.254	204.8
801.434	73.73
801.614	34.82
801.794	65.54
801.974	360.44
802.154	83.97
802.334	131.07
802.514	151.55
802.693	114.69
802.873	124.93
803.053	69.63
803.233	110.59
803.413	81.92
803.592	131.07
803.772	94.21
803.952	106.49
804.131	159.74
804.311	98.3
804.491	135.17
804.67	149.5
804.85	92.16
805.03	49.15
805.209	90.11
805.389	79.87
805.568	57.34
805.748	131.07
805.928	90.11
806.107	61.44
806.287	81.92
806.466	81.92
806.646	94.21
806.825	90.11
807.004	34.82
807.184	112.64
807.363	122.88
807.543	92.16
807.722	90.11
807.901	79.87
808.081	94.21
808.26	30.72
808.439	100.35
808.619	79.87
808.798	65.54
808.977	63.49
809.156	75.77
809.336	73.73
809.515	112.64
809.694	98.3
809.873	88.06
810.052	36.86
810.231	69.63
810.411	126.97
810.59	106.49
810.769	75.77
810.948	100.35
811.127	139.26
811.306	98.3
811.485	77.82
811.664	86.01
811.843	88.06
812.022	40.96
812.201	38.91
812.38	34.82
812.559	47.1
812.737	-4.1
812.916	61.44
813.095	51.2
813.274	57.34
813.453	30.72
813.632	51.2
813.811	165.89
813.989	69.63
814.168	67.58
814.347	104.45
814.526	53.25
814.704	59.39
814.883	2.05
815.062	88.06
815.24	110.59
815.419	47.1
815.598	98.3
815.776	20.48
815.955	71.68
816.133	-43.01
816.312	92.16
816.49	94.21
816.669	81.92
816.847	-14.34
817.026	12.29
817.204	32.77
817.383	94.21
817.561	106.49
817.74	129.02
817.918	8.19
818.097	124.93
818.275	14.34
818.453	40.96
818.632	36.86
818.81	96.25
818.988	8.19
819.167	45.06
819.345	77.82
819.523	18.43
819.701	59.39
819.879	65.54
820.058	32.77
820.236	49.15
820.414	55.3
820.592	67.58
820.77	106.49
820.948	63.49
821.127	57.34
821.305	53.25
821.483	-14.34
821.661	73.73
821.839	43.01
822.017	51.2
822.195	8.19
822.373	71.68
822.551	51.2
822.729	116.73
822.907	65.54
823.085	106.49
823.262	-14.34
823.44	106.49
823.618	43.01
823.796	43.01
823.974	73.73
824.152	49.15
824.329	47.1
824.507	69.63
824.685	69.63
824.863	139.26
825.04	45.06
825.218	59.39
825.396	36.86
825.574	65.54
825.751	38.91
825.929	75.77
826.107	20.48
826.284	59.39
826.462	51.2
826.639	26.62
826.817	14.34
826.994	90.11
827.172	69.63
827.349	108.54
827.527	-34.82
827.704	36.86
827.882	94.21
828.059	8.19
828.237	-65.54
828.414	61.44
828.591	24.58
828.769	77.82
828.946	0
829.124	86.01
829.301	120.83
829.478	40.96
829.655	12.29
829.833	79.87
830.01	-14.34
830.187	73.73
830.364	65.54
830.542	20.48
830.719	71.68
830.896	94.21
831.073	59.39
831.25	24.58
831.427	73.73
831.604	-28.67
831.782	-55.3
831.959	4.1
832.136	14.34
832.313	8.19
832.49	65.54
832.667	73.73
832.844	-20.48
833.021	57.34
833.198	55.3
833.374	100.35
833.551	57.34
833.728	-20.48
833.905	49.15
834.082	34.82
834.259	-12.29
834.436	18.43
834.612	-24.58
834.789	67.58
834.966	116.73
835.143	63.49
835.319	98.3
835.496	90.11
835.673	81.92
835.85	-36.86
836.026	57.34
836.203	-30.72
836.38	28.67
836.556	18.43
836.733	47.1
836.909	24.58
837.086	12.29
837.262	20.48
837.439	77.82
837.616	0
837.792	92.16
837.968	112.64
838.145	63.49
838.321	129.02
838.498	12.29
838.674	8.19
838.851	38.91
839.027	40.96
839.203	8.19
839.38	-26.62
839.556	108.54
839.732	47.1
839.909	92.16
840.085	57.34
840.261	-8.19
840.437	-8.19
840.614	51.2
840.79	-26.62
840.966	108.54
841.142	36.86
841.318	90.11
841.494	79.87
841.671	40.96
841.847	26.62
842.023	34.82
842.199	-67.58
842.375	67.58
842.551	106.49
842.727	55.3
842.903	28.67
843.079	0
843.255	-4.1
843.431	-4.1
843.607	24.58
843.783	-16.38
843.959	22.53
844.134	34.82
844.31	32.77
844.486	24.58
844.662	12.29
844.838	16.38
845.013	-10.24
845.189	-20.48
845.365	-12.29
845.541	43.01
845.716	63.49
845.892	104.45
846.068	6.14
846.244	-18.43
846.419	92.16
846.595	-38.91
846.77	-36.86
846.946	12.29
847.122	-8.19
847.297	51.2
847.473	-8.19
847.648	40.96
847.824	81.92
847.999	4.1
848.175	-28.67
848.35	-6.14
848.526	26.62
848.701	34.82
848.876	57.34
849.052	53.25
849.227	47.1
849.403	-18.43
849.578	40.96
849.753	104.45
849.929	32.77
850.104	-28.67
850.279	-20.48
850.454	10.24
850.63	118.78
850.805	28.67
850.98	8.19
851.155	40.96
851.33	83.97
851.505	-14.34
851.681	104.45
851.856	6.14
852.031	24.58
852.206	59.39
852.381	-12.29
852.556	-8.19
852.731	40.96
852.906	61.44
853.081	0
853.256	0
853.431	10.24
853.606	67.58
853.781	90.11
853.956	-47.1
854.131	90.11
854.305	51.2
854.48	22.53
854.655	-26.62
854.83	22.53
855.005	61.44
855.18	-10.24
855.354	34.82
855.529	28.67
855.704	-16.38
855.879	40.96
856.053	53.25
856.228	90.11
856.403	24.58
856.577	73.73
856.752	20.48
856.926	100.35
857.101	-16.38
857.276	22.53
857.45	-24.58
857.625	100.35
857.799	10.24
857.974	24.58
858.148	10.24
858.323	47.1
858.497	51.2
858.672	53.25
858.846	-26.62
859.02	4.1
859.195	-8.19
859.369	26.62
859.543	-2.05
859.718	10.24
859.892	20.48
860.066	-30.72
860.241	-16.38
860.415	32.77
860.589	-16.38
860.763	18.43
860.938	-47.1
861.112	-30.72
861.286	49.15
861.46	-18.43
861.634	4.1
861.808	2.05
861.982	59.39
862.157	49.15
862.331	90.11
862.505	4.1
862.679	22.53
862.853	40.96
863.027	75.77
863.201	4.1
863.375	10.24
863.549	12.29
863.722	-28.67
863.896	73.73
864.07	-36.86
864.244	32.77
864.418	-45.06
864.592	2.05
864.766	22.53
864.939	8.19
865.113	-4.1
865.287	26.62
865.461	2.05
865.634	10.24
865.808	0
865.982	-6.14
866.156	51.2
866.329	12.29
866.503	24.58
866.676	26.62
866.85	14.34
867.024	-30.72
867.197	57.34
867.371	8.19
867.544	47.1
867.718	34.82
867.891	65.54
868.065	-6.14
868.238	16.38
868.412	32.77
868.585	32.77
868.759	0
868.932	38.91
869.105	-8.19
869.279	45.06
869.452	-16.38
869.625	59.39
869.799	-22.53
869.972	-86.01
870.145	86.01
870.319	8.19
870.492	8.19
870.665	-6.14
870.838	71.68
871.011	-65.54
871.185	8.19
871.358	34.82
871.531	38.91
871.704	-38.91
871.877	-10.24
872.05	-45.06
872.223	6.14
872.396	36.86
872.569	10.24
872.742	-16.38
872.915	94.21
873.088	0
873.261	24.58
873.434	-32.77
873.607	34.82
873.78	57.34
873.953	4.1
874.126	-24.58
874.299	26.62
874.471	-12.29
874.644	8.19
874.817	-65.54
874.99	-14.34
875.163	-18.43
875.335	10.24
875.508	-57.34
875.681	-2.05
875.853	-38.91
876.026	32.77
876.199	-2.05
876.371	26.62
876.544	-34.82
876.717	14.34
876.889	-12.29
877.062	43.01
877.234	8.19
877.407	-40.96
877.579	30.72
877.752	-18.43
877.924	69.63
878.097	51.2
878.269	51.2
878.442	18.43
878.614	-30.72
878.786	32.77
878.959	43.01
879.131	-12.29
879.303	16.38
879.476	53.25
879.648	32.77
879.82	32.77
879.993	-47.1
880.165	-4.1
880.337	-18.43
880.509	47.1
880.681	61.44
880.854	61.44
881.026	47.1
881.198	71.68
881.37	0
881.542	-18.43
881.714	22.53
881.886	-6.14
882.058	59.39
882.23	-24.58
882.402	-16.38
882.574	-20.48
882.746	-26.62
882.918	2.05
883.09	10.24
883.262	-6.14
883.434	-43.01
883.606	57.34
883.778	-8.19
883.95	24.58
884.122	8.19
884.293	43.01
884.465	8.19
884.637	26.62
884.809	-47.1
884.98	71.68
885.152	-38.91
885.324	-18.43
885.496	-65.54
885.667	118.78
885.839	0
886.011	26.62
886.182	-8.19
886.354	34.82
886.525	57.34
886.697	26.62
886.869	28.67
887.04	45.06
887.212	20.48
887.383	34.82
887.555	61.44
887.726	24.58
887.897	-96.25
888.069	40.96
888.24	-49.15
888.412	4.1
888.583	6.14
888.754	32.77
888.926	16.38
889.097	20.48
889.268	-26.62
889.44	-40.96
889.611	-24.58
889.782	-6.14
889.953	12.29
890.125	14.34
890.296	-61.44
890.467	86.01
890.638	6.14
890.809	53.25
890.98	-61.44
891.151	-34.82
891.323	16.38
891.494	26.62
891.665	-4.1
891.836	75.77
892.007	26.62
892.178	-65.54
892.349	32.77
892.52	-20.48
892.691	-22.53
892.862	-32.77
893.032	-14.34
893.203	36.86
893.374	28.67
893.545	0
893.716	-36.86
893.887	-10.24
894.057	-38.91
894.228	40.96
894.399	-40.96
894.57	32.77
894.74	-28.67
894.911	-26.62
895.082	-12.29
895.253	-22.53
895.423	2.05
895.594	32.77
895.764	-24.58
895.935	-45.06
896.106	-14.34
896.276	2.05
896.447	12.29
896.617	16.38
896.788	6.14
896.958	2.05
897.129	10.24
897.299	59.39
897.47	-16.38
897.64	26.62
897.81	-61.44
897.981	32.77
898.151	-18.43
898.322	22.53
898.492	-2.05
898.662	38.91
898.832	12.29
899.003	43.01
899.173	4.1
899.343	65.54
899.513	0
