Data from USB4F104151__8__12-53-09-109.txt Node

Date: Fri Mar 14 12:53:09 EDT 2025
User: louis
Spectrometer: USB4F10415
Trigger mode: 4
Integration Time (sec): 1.000000E-2
Scans to average: 1
Electric dark correction enabled: true
Nonlinearity correction enabled: false
Boxcar width: 0
XAxis mode: Wavelengths
Number of Pixels in Spectrum: 3648
>>>>>Begin Spectral Data<<<<<
178.204	-27.65
178.424	-27.65
178.644	-27.65
178.864	-68.61
179.084	-74.75
179.304	35.84
179.524	-39.94
179.744	-52.22
179.964	60.42
180.184	-33.79
180.404	-9.22
180.624	-39.94
180.844	27.65
181.064	-23.55
181.283	11.26
181.503	66.56
181.723	-3.07
181.943	5.12
182.163	-11.26
182.383	13.31
182.602	23.55
182.822	5.12
183.042	-27.65
183.262	-5.12
183.482	-9.22
183.701	1.02
183.921	-37.89
184.141	-7.17
184.361	-31.74
184.58	-29.7
184.8	35.84
185.02	-39.94
185.239	76.8
185.459	-60.42
185.679	13.31
185.898	15.36
186.118	3.07
186.338	-48.13
186.557	25.6
186.777	-29.7
186.997	-39.94
187.216	-25.6
187.436	46.08
187.655	3.07
187.875	19.46
188.095	-37.89
188.314	27.65
188.534	-23.55
188.753	-29.7
188.973	-5.12
189.192	-9.22
189.412	27.65
189.631	-113.66
189.851	-44.03
190.07	-7.17
190.29	-74.75
190.509	21.5
190.729	-31.74
190.948	-39.94
191.168	7.17
191.387	-64.51
191.607	-62.46
191.826	19.46
192.045	-33.79
192.265	-33.79
192.484	-33.79
192.704	-44.03
192.923	-23.55
193.142	25.6
193.362	19.46
193.581	13.31
193.8	-15.36
194.02	-23.55
194.239	3.07
194.458	27.65
194.678	5.12
194.897	-1.02
195.116	-9.22
195.335	-19.46
195.555	-1.02
195.774	99.33
195.993	58.37
196.212	72.7
196.432	-50.18
196.651	-9.22
196.87	-19.46
197.089	-23.55
197.308	-48.13
197.528	17.41
197.747	-66.56
197.966	99.33
198.185	44.03
198.404	-35.84
198.623	-89.09
198.842	-9.22
199.062	-19.46
199.281	-27.65
199.5	5.12
199.719	-15.36
199.938	52.22
200.157	3.07
200.376	-50.18
200.595	-23.55
200.814	-23.55
201.033	58.37
201.252	76.8
201.471	-33.79
201.69	1.02
201.909	13.31
202.128	-25.6
202.347	-11.26
202.566	-1.02
202.785	29.7
203.004	-9.22
203.223	29.7
203.442	31.74
203.661	-5.12
203.879	72.7
204.098	13.31
204.317	-25.6
204.536	37.89
204.755	-7.17
204.974	3.07
205.193	17.41
205.411	70.65
205.63	-5.12
205.849	-50.18
206.068	-21.5
206.287	17.41
206.505	-37.89
206.724	-13.31
206.943	-46.08
207.162	-21.5
207.381	-56.32
207.599	-19.46
207.818	39.94
208.037	19.46
208.255	-15.36
208.474	-23.55
208.693	11.26
208.911	13.31
209.13	17.41
209.349	-29.7
209.567	-31.74
209.786	-19.46
210.005	9.22
210.223	-17.41
210.442	7.17
210.661	-52.22
210.879	11.26
211.098	-5.12
211.316	-1.02
211.535	21.5
211.753	-48.13
211.972	87.04
212.191	-11.26
212.409	68.61
212.628	-35.84
212.846	-9.22
213.065	50.18
213.283	-19.46
213.502	-31.74
213.72	-15.36
213.938	-21.5
214.157	68.61
214.375	-25.6
214.594	-27.65
214.812	5.12
215.031	13.31
215.249	-44.03
215.467	-39.94
215.686	13.31
215.904	-48.13
216.122	-29.7
216.341	78.85
216.559	-54.27
216.778	33.79
216.996	19.46
217.214	-35.84
217.432	-21.5
217.651	-9.22
217.869	-33.79
218.087	-7.17
218.306	-29.7
218.524	13.31
218.742	-41.98
218.96	39.94
219.179	-29.7
219.397	56.32
219.615	-41.98
219.833	-13.31
220.051	-54.27
220.27	-44.03
220.488	-23.55
220.706	17.41
220.924	-68.61
221.142	41.98
221.36	-13.31
221.578	-48.13
221.796	-23.55
222.015	56.32
222.233	-37.89
222.451	35.84
222.669	19.46
222.887	-13.31
223.105	-89.09
223.323	23.55
223.541	21.5
223.759	-21.5
223.977	-9.22
224.195	-35.84
224.413	-56.32
224.631	-33.79
224.849	13.31
225.067	1.02
225.285	-1.02
225.503	-9.22
225.721	-31.74
225.939	50.18
226.157	-3.07
226.375	62.46
226.592	-35.84
226.81	3.07
227.028	11.26
227.246	-39.94
227.464	-3.07
227.682	48.13
227.9	-25.6
228.117	-3.07
228.335	-17.41
228.553	-60.42
228.771	-48.13
228.989	31.74
229.206	5.12
229.424	-21.5
229.642	-27.65
229.86	39.94
230.077	33.79
230.295	-62.46
230.513	-7.17
230.731	37.89
230.948	-9.22
231.166	60.42
231.384	58.37
231.601	-11.26
231.819	11.26
232.037	7.17
232.254	-78.85
232.472	-17.41
232.689	41.98
232.907	1.02
233.125	15.36
233.342	54.27
233.56	15.36
233.777	15.36
233.995	-5.12
234.213	1.02
234.43	11.26
234.648	5.12
234.865	-97.28
235.083	27.65
235.3	21.5
235.518	11.26
235.735	19.46
235.953	-68.61
236.17	50.18
236.388	-3.07
236.605	46.08
236.822	-13.31
237.04	50.18
237.257	19.46
237.475	-33.79
237.692	21.5
237.909	31.74
238.127	1.02
238.344	25.6
238.562	21.5
238.779	-64.51
238.996	1.02
239.214	19.46
239.431	37.89
239.648	1.02
239.865	-39.94
240.083	9.22
240.3	-17.41
240.517	58.37
240.735	-11.26
240.952	11.26
241.169	19.46
241.386	-5.12
241.603	-9.22
241.821	-7.17
242.038	56.32
242.255	37.89
242.472	13.31
242.689	9.22
242.907	-33.79
243.124	-21.5
243.341	52.22
243.558	-52.22
243.775	35.84
243.992	-3.07
244.209	-15.36
244.426	21.5
244.643	-13.31
244.86	13.31
245.078	39.94
245.295	-19.46
245.512	9.22
245.729	-15.36
245.946	21.5
246.163	-64.51
246.38	39.94
246.597	-37.89
246.814	25.6
247.031	5.12
247.248	50.18
247.464	-66.56
247.681	56.32
247.898	68.61
248.115	33.79
248.332	15.36
248.549	58.37
248.766	-21.5
248.983	13.31
249.2	66.56
249.417	23.55
249.633	-21.5
249.85	-50.18
250.067	44.03
250.284	1.02
250.501	-52.22
250.717	46.08
250.934	-56.32
251.151	-1.02
251.368	-29.7
251.585	46.08
251.801	-19.46
252.018	-1.02
252.235	-39.94
252.451	7.17
252.668	-13.31
252.885	29.7
253.102	-7.17
253.318	31.74
253.535	-62.46
253.752	-11.26
253.968	-37.89
254.185	31.74
254.401	29.7
254.618	-48.13
254.835	-23.55
255.051	95.23
255.268	-60.42
255.484	11.26
255.701	-19.46
255.917	-19.46
256.134	33.79
256.351	-21.5
256.567	-19.46
256.784	-19.46
257	21.5
257.217	-13.31
257.433	21.5
257.65	-29.7
257.866	68.61
258.082	-11.26
258.299	-11.26
258.515	-5.12
258.732	-7.17
258.948	-95.23
259.165	3.07
259.381	54.27
259.597	1.02
259.814	37.89
260.03	33.79
260.246	-37.89
260.463	19.46
260.679	70.65
260.895	17.41
261.112	58.37
261.328	-15.36
261.544	-23.55
261.761	-25.6
261.977	29.7
262.193	-39.94
262.409	-17.41
262.626	29.7
262.842	7.17
263.058	-31.74
263.274	-3.07
263.49	39.94
263.707	7.17
263.923	-60.42
264.139	7.17
264.355	-62.46
264.571	62.46
264.787	-31.74
265.004	33.79
265.22	-48.13
265.436	-3.07
265.652	-1.02
265.868	23.55
266.084	-31.74
266.3	48.13
266.516	-37.89
266.732	-21.5
266.948	48.13
267.164	-33.79
267.38	70.65
267.596	-11.26
267.812	29.7
268.028	15.36
268.244	-5.12
268.46	-19.46
268.676	-9.22
268.892	15.36
269.108	-25.6
269.324	-11.26
269.54	-39.94
269.756	107.52
269.972	7.17
270.188	41.98
270.403	-95.23
270.619	-21.5
270.835	-7.17
271.051	-33.79
271.267	-29.7
271.483	-1.02
271.698	11.26
271.914	25.6
272.13	-11.26
272.346	-35.84
272.562	52.22
272.777	11.26
272.993	-23.55
273.209	-25.6
273.425	-39.94
273.64	-103.42
273.856	-1.02
274.072	3.07
274.287	-29.7
274.503	-11.26
274.719	-74.75
274.934	-7.17
275.15	-119.81
275.366	-29.7
275.581	-5.12
275.797	60.42
276.012	-46.08
276.228	3.07
276.444	9.22
276.659	76.8
276.875	62.46
277.09	44.03
277.306	5.12
277.521	39.94
277.737	1.02
277.952	3.07
278.168	17.41
278.383	-31.74
278.599	-41.98
278.814	-3.07
279.03	-27.65
279.245	23.55
279.461	13.31
279.676	5.12
279.892	-35.84
280.107	-41.98
280.322	9.22
280.538	44.03
280.753	-39.94
280.969	7.17
281.184	-25.6
281.399	60.42
281.615	-35.84
281.83	3.07
282.045	-13.31
282.26	54.27
282.476	1.02
282.691	3.07
282.906	33.79
283.122	-39.94
283.337	-72.7
283.552	46.08
283.767	19.46
283.983	33.79
284.198	25.6
284.413	-31.74
284.628	5.12
284.843	21.5
285.058	-11.26
285.274	3.07
285.489	-39.94
285.704	25.6
285.919	31.74
286.134	-11.26
286.349	44.03
286.564	5.12
286.779	-15.36
286.995	-23.55
287.21	-39.94
287.425	1.02
287.64	-31.74
287.855	15.36
288.07	58.37
288.285	-13.31
288.5	-56.32
288.715	70.65
288.93	17.41
289.145	27.65
289.36	-5.12
289.575	-5.12
289.79	-19.46
290.004	-31.74
290.219	-15.36
290.434	-46.08
290.649	37.89
290.864	31.74
291.079	25.6
291.294	33.79
291.509	25.6
291.724	33.79
291.938	-13.31
292.153	39.94
292.368	3.07
292.583	15.36
292.798	-15.36
293.012	-3.07
293.227	-15.36
293.442	15.36
293.657	15.36
293.871	13.31
294.086	-60.42
294.301	-11.26
294.516	68.61
294.73	11.26
294.945	-21.5
295.16	13.31
295.374	-7.17
295.589	-97.28
295.804	-80.89
296.018	25.6
296.233	99.33
296.447	31.74
296.662	-11.26
296.877	-3.07
297.091	7.17
297.306	5.12
297.52	54.27
297.735	-5.12
297.949	-41.98
298.164	23.55
298.378	25.6
298.593	17.41
298.807	-48.13
299.022	-64.51
299.236	35.84
299.451	5.12
299.665	-23.55
299.88	-11.26
300.094	-29.7
300.309	1.02
300.523	-13.31
300.737	21.5
300.952	64.51
301.166	60.42
301.381	-11.26
301.595	-1.02
301.809	-27.65
302.024	33.79
302.238	-29.7
302.452	35.84
302.667	-1.02
302.881	13.31
303.095	-62.46
303.309	-44.03
303.524	-15.36
303.738	35.84
303.952	-7.17
304.166	-1.02
304.381	9.22
304.595	-7.17
304.809	21.5
305.023	-56.32
305.237	-17.41
305.452	-44.03
305.666	-9.22
305.88	41.98
306.094	7.17
306.308	23.55
306.522	-39.94
306.736	-21.5
306.95	15.36
307.164	23.55
307.379	-31.74
307.593	31.74
307.807	7.17
308.021	25.6
308.235	-41.98
308.449	-25.6
308.663	-25.6
308.877	44.03
309.091	60.42
309.305	-21.5
309.519	-7.17
309.733	-35.84
309.947	-54.27
310.161	27.65
310.374	11.26
310.588	-3.07
310.802	-56.32
311.016	-7.17
311.23	7.17
311.444	35.84
311.658	-23.55
311.872	-5.12
312.085	15.36
312.299	1.02
312.513	9.22
312.727	66.56
312.941	-13.31
313.154	11.26
313.368	-15.36
313.582	-13.31
313.796	37.89
314.009	-62.46
314.223	-7.17
314.437	39.94
314.651	-11.26
314.864	-19.46
315.078	-25.6
315.292	3.07
315.505	-21.5
315.719	11.26
315.933	3.07
316.146	-5.12
316.36	72.7
316.573	25.6
316.787	60.42
317.001	-35.84
317.214	-27.65
317.428	33.79
317.641	3.07
317.855	48.13
318.068	25.6
318.282	-23.55
318.495	58.37
318.709	7.17
318.922	5.12
319.136	-48.13
319.349	-13.31
319.563	29.7
319.776	44.03
319.99	1.02
320.203	-50.18
320.417	15.36
320.63	-80.89
320.843	138.24
321.057	-15.36
321.27	-11.26
321.483	27.65
321.697	44.03
321.91	-1.02
322.124	-1.02
322.337	60.42
322.55	-25.6
322.763	25.6
322.977	-13.31
323.19	-19.46
323.403	33.79
323.617	-1.02
323.83	-29.7
324.043	17.41
324.256	-48.13
324.469	-5.12
324.683	-21.5
324.896	29.7
325.109	-15.36
325.322	-7.17
325.535	25.6
325.748	60.42
325.962	-17.41
326.175	1.02
326.388	13.31
326.601	62.46
326.814	97.28
327.027	66.56
327.24	-25.6
327.453	33.79
327.666	-31.74
327.879	9.22
328.092	21.5
328.305	44.03
328.518	33.79
328.731	-13.31
328.944	52.22
329.157	-13.31
329.37	-15.36
329.583	93.18
329.796	56.32
330.009	39.94
330.222	64.51
330.435	11.26
330.648	37.89
330.861	-35.84
331.073	7.17
331.286	23.55
331.499	29.7
331.712	25.6
331.925	48.13
332.138	35.84
332.35	17.41
332.563	35.84
332.776	1.02
332.989	-17.41
333.202	-37.89
333.414	-60.42
333.627	-7.17
333.84	41.98
334.053	-68.61
334.265	-48.13
334.478	84.99
334.691	5.12
334.903	-31.74
335.116	1.02
335.329	-13.31
335.541	35.84
335.754	23.55
335.966	-60.42
336.179	27.65
336.392	9.22
336.604	-5.12
336.817	-3.07
337.029	78.85
337.242	33.79
337.454	56.32
337.667	62.46
337.88	54.27
338.092	-13.31
338.305	11.26
338.517	-44.03
338.729	11.26
338.942	21.5
339.154	33.79
339.367	-11.26
339.579	52.22
339.792	-13.31
340.004	17.41
340.217	-23.55
340.429	37.89
340.641	3.07
340.854	-41.98
341.066	-44.03
341.278	-19.46
341.491	70.65
341.703	27.65
341.915	9.22
342.128	-5.12
342.34	56.32
342.552	-17.41
342.764	48.13
342.977	-35.84
343.189	35.84
343.401	-62.46
343.613	31.74
343.826	-37.89
344.038	-76.8
344.25	50.18
344.462	-13.31
344.674	66.56
344.886	-60.42
345.099	54.27
345.311	-27.65
345.523	89.09
345.735	-29.7
345.947	27.65
346.159	-46.08
346.371	-7.17
346.583	13.31
346.795	58.37
347.007	9.22
347.219	-15.36
347.431	19.46
347.643	46.08
347.855	-7.17
348.067	101.37
348.279	-19.46
348.491	25.6
348.703	35.84
348.915	3.07
349.127	-31.74
349.339	31.74
349.551	23.55
349.763	21.5
349.975	-29.7
350.187	13.31
350.399	93.18
350.61	31.74
350.822	-1.02
351.034	-52.22
351.246	9.22
351.458	3.07
351.669	13.31
351.881	9.22
352.093	54.27
352.305	74.75
352.517	-46.08
352.728	-39.94
352.94	-56.32
353.152	56.32
353.363	-19.46
353.575	52.22
353.787	31.74
353.999	9.22
354.21	23.55
354.422	9.22
354.633	15.36
354.845	15.36
355.057	41.98
355.268	11.26
355.48	39.94
355.692	25.6
355.903	3.07
356.115	-52.22
356.326	11.26
356.538	9.22
356.749	11.26
356.961	3.07
357.172	5.12
357.384	-15.36
357.595	-39.94
357.807	25.6
358.018	-19.46
358.23	74.75
358.441	66.56
358.653	11.26
358.864	29.7
359.075	27.65
359.287	72.7
359.498	5.12
359.709	21.5
359.921	66.56
360.132	-7.17
360.344	1.02
360.555	7.17
360.766	27.65
360.977	31.74
361.189	50.18
361.4	1.02
361.611	50.18
361.823	89.09
362.034	-3.07
362.245	-11.26
362.456	64.51
362.667	15.36
362.879	64.51
363.09	27.65
363.301	39.94
363.512	-5.12
363.723	50.18
363.935	-64.51
364.146	-21.5
364.357	-33.79
364.568	17.41
364.779	-5.12
364.99	41.98
365.201	11.26
365.412	15.36
365.623	7.17
365.834	-21.5
366.045	66.56
366.256	-41.98
366.467	-11.26
366.678	-5.12
366.889	-39.94
367.1	31.74
367.311	-44.03
367.522	9.22
367.733	-3.07
367.944	46.08
368.155	9.22
368.366	50.18
368.577	27.65
368.788	68.61
368.999	3.07
369.209	-23.55
369.42	21.5
369.631	-1.02
369.842	46.08
370.053	-11.26
370.264	25.6
370.474	19.46
370.685	5.12
370.896	-13.31
371.107	-7.17
371.317	37.89
371.528	-46.08
371.739	-37.89
371.95	-33.79
372.16	15.36
372.371	66.56
372.582	52.22
372.792	21.5
373.003	62.46
373.214	17.41
373.424	-21.5
373.635	-50.18
373.846	52.22
374.056	39.94
374.267	5.12
374.477	39.94
374.688	-11.26
374.898	50.18
375.109	13.31
375.319	-39.94
375.53	50.18
375.74	-9.22
375.951	99.33
376.161	39.94
376.372	23.55
376.582	134.14
376.793	89.09
377.003	3.07
377.214	56.32
377.424	19.46
377.635	48.13
377.845	33.79
378.055	-17.41
378.266	-15.36
378.476	-11.26
378.686	5.12
378.897	76.8
379.107	1.02
379.317	62.46
379.528	15.36
379.738	-58.37
379.948	3.07
380.158	39.94
380.369	23.55
380.579	-5.12
380.789	23.55
380.999	17.41
381.21	13.31
381.42	64.51
381.63	-3.07
381.84	50.18
382.05	-1.02
382.261	56.32
382.471	9.22
382.681	37.89
382.891	-41.98
383.101	29.7
383.311	5.12
383.521	74.75
383.731	-66.56
383.941	31.74
384.151	27.65
384.361	-19.46
384.571	11.26
384.781	11.26
384.991	46.08
385.201	41.98
385.411	21.5
385.621	93.18
385.831	35.84
386.041	111.61
386.251	5.12
386.461	78.85
386.671	15.36
386.881	33.79
387.091	37.89
387.301	29.7
387.511	19.46
387.72	-15.36
387.93	-15.36
388.14	17.41
388.35	-9.22
388.56	-3.07
388.769	9.22
388.979	19.46
389.189	-95.23
389.399	44.03
389.609	17.41
389.818	66.56
390.028	76.8
390.238	-1.02
390.447	7.17
390.657	25.6
390.867	44.03
391.076	9.22
391.286	80.89
391.496	29.7
391.705	-29.7
391.915	72.7
392.125	-29.7
392.334	33.79
392.544	35.84
392.753	62.46
392.963	29.7
393.172	-29.7
393.382	5.12
393.591	72.7
393.801	-29.7
394.01	93.18
394.22	-15.36
394.429	-21.5
394.639	15.36
394.848	109.57
395.058	80.89
395.267	19.46
395.477	70.65
395.686	117.76
395.895	-44.03
396.105	76.8
396.314	58.37
396.524	39.94
396.733	33.79
396.942	17.41
397.152	23.55
397.361	70.65
397.57	56.32
397.78	50.18
397.989	35.84
398.198	107.52
398.407	41.98
398.617	68.61
398.826	-5.12
399.035	5.12
399.244	29.7
399.453	93.18
399.663	68.61
399.872	99.33
400.081	72.7
400.29	84.99
400.499	46.08
400.708	80.89
400.917	97.28
401.127	154.62
401.336	78.85
401.545	62.46
401.754	-9.22
401.963	37.89
402.172	76.8
402.381	87.04
402.59	27.65
402.799	89.09
403.008	15.36
403.217	130.05
403.426	39.94
403.635	111.61
403.844	68.61
404.053	109.57
404.262	29.7
404.471	150.53
404.68	130.05
404.888	109.57
405.097	35.84
405.306	117.76
405.515	29.7
405.724	52.22
405.933	160.77
406.142	181.25
406.35	84.99
406.559	111.61
406.768	68.61
406.977	146.43
407.185	87.04
407.394	37.89
407.603	11.26
407.812	119.81
408.02	123.9
408.229	128
408.438	111.61
408.646	201.72
408.855	134.14
409.064	160.77
409.272	175.1
409.481	173.05
409.69	195.58
409.898	209.92
410.107	164.86
410.315	203.77
410.524	220.16
410.733	205.82
410.941	175.1
411.15	252.92
411.358	265.21
411.567	257.02
411.775	273.4
411.984	281.6
412.192	343.03
412.401	308.22
412.609	289.79
412.818	312.32
413.026	326.65
413.234	306.17
413.443	371.71
413.651	390.14
413.86	377.85
414.068	386.04
414.276	424.95
414.485	424.95
414.693	410.62
414.901	515.06
415.11	447.48
415.318	445.43
415.526	541.69
415.734	510.97
415.943	504.82
416.151	562.17
416.359	560.12
416.567	553.98
416.776	623.61
416.984	668.66
417.192	639.99
417.4	629.75
417.608	680.95
417.817	721.91
418.025	648.18
418.233	775.16
418.441	744.44
418.649	893.94
418.857	883.7
419.065	945.14
419.273	889.84
419.481	893.94
419.689	994.29
419.897	1061.87
420.105	1027.06
420.313	1033.2
420.521	1076.21
420.729	1174.51
420.937	1104.88
421.145	1209.33
421.353	1321.96
421.561	1262.57
421.769	1367.02
421.977	1410.03
422.185	1371.12
422.393	1481.71
422.601	1614.82
422.809	1534.95
423.017	1637.35
423.224	1600.49
423.432	1639.4
423.64	1737.7
423.848	1956.83
424.056	1856.48
424.263	1936.35
424.471	1956.83
424.679	2065.38
424.887	2057.18
425.094	2085.86
425.302	2104.29
425.51	2311.13
425.718	2354.14
425.925	2300.89
426.133	2427.87
426.341	2560.98
426.548	2683.86
426.756	2730.97
426.964	2816.98
427.171	2849.75
427.379	3060.69
427.586	3056.59
427.794	3089.36
428.001	3247.05
428.209	3245.01
428.417	3406.8
428.624	3713.99
428.832	3599.31
429.039	3537.87
429.247	3580.87
429.454	4002.75
429.662	4289.47
429.869	3857.35
430.076	4275.13
430.284	4076.48
430.491	4312
430.699	4563.9
430.906	4494.27
431.114	4543.42
431.321	4869.05
431.528	4834.23
431.736	5133.23
431.943	5452.72
432.15	5333.93
432.358	5327.79
432.565	5665.71
432.772	5594.03
432.979	5749.67
433.187	6187.94
433.394	5954.47
433.601	6374.3
433.808	6466.46
434.016	6429.6
434.223	6644.63
434.43	7259.03
434.637	7084.95
434.844	7433.1
435.052	7365.52
435.259	7646.09
435.466	7576.46
435.673	7443.34
435.88	7854.98
436.087	8467.33
436.294	8500.09
436.501	8201.09
436.708	8565.63
436.915	8756.09
437.122	9251.7
437.329	9177.97
437.537	9601.9
437.743	9401.2
437.95	9284.47
438.157	9847.66
438.364	10251.11
438.571	10341.22
438.778	10371.94
438.985	11316.05
439.192	10853.21
439.399	11170.65
439.606	10916.7
439.813	11582.29
440.02	12366.66
440.227	11912.01
440.433	11850.57
440.64	12335.94
440.847	12374.85
441.054	12628.8
441.261	13482.8
441.467	13310.77
441.674	13751.09
441.881	14144.3
442.088	13986.6
442.294	13939.5
442.501	14504.74
442.708	14531.36
442.914	15162.14
443.121	15760.14
443.328	15266.58
443.534	16700.16
443.741	15989.52
443.948	15921.93
444.154	16947.97
444.361	16913.15
444.568	16884.48
444.774	17068.8
444.981	17230.59
445.187	17793.78
445.394	18342.63
445.6	18281.19
445.807	19905.23
446.013	19065.57
446.22	19491.54
446.426	20349.64
446.633	20425.42
446.839	21467.83
447.046	20388.55
447.252	21383.87
447.459	21738.16
447.665	21385.91
447.871	22301.36
448.078	23282.33
448.284	22133.42
448.491	22612.65
448.697	23861.91
448.903	24054.42
449.11	24193.68
449.316	23962.26
449.522	24324.75
449.728	24894.08
449.935	25217.66
450.141	25498.23
450.347	25797.24
450.553	24887.94
450.76	25047.68
450.966	26016.37
451.172	25819.77
451.378	26677.86
451.584	25834.1
451.791	26610.28
451.997	26489.45
452.203	26985.06
452.409	27028.07
452.615	26860.13
452.821	25746.04
453.027	25477.76
453.233	27042.4
453.44	25883.25
453.646	26217.07
453.852	26540.65
454.058	26597.99
454.264	25891.44
454.47	26636.91
454.676	25752.18
454.882	26624.62
455.088	24609.42
455.294	24822.41
455.5	24900.23
455.705	25430.65
455.911	24429.2
456.117	23956.11
456.323	23384.73
456.529	22770.34
456.735	23440.03
456.941	23212.7
457.147	22514.34
457.352	21721.78
457.558	21662.39
457.764	21420.73
457.97	21170.88
458.176	20880.07
458.381	20560.58
458.587	19886.8
458.793	19735.25
458.999	18655.97
459.204	20056.78
459.41	19434.2
459.616	18105.07
459.821	18082.54
460.027	18012.91
460.233	17648.37
460.438	16777.98
460.644	17191.67
460.85	16345.86
461.055	16173.83
461.261	16345.86
461.466	15153.94
461.672	14455.59
461.878	15387.41
462.083	14482.21
462.289	14273.32
462.494	14134.06
462.7	13374.26
462.905	13151.03
463.111	13509.43
463.316	13855.53
463.522	13286.2
463.727	13597.49
463.932	13351.73
464.138	13136.7
464.343	13187.89
464.549	12944.19
464.754	13425.46
464.959	13173.56
465.165	13194.04
465.37	12577.6
465.575	12188.49
465.781	12839.74
465.986	13079.35
466.191	12647.23
466.397	12178.25
466.602	11658.06
466.807	12045.13
467.012	12116.81
467.218	12018.5
467.423	11840.33
467.628	12049.22
467.833	12401.47
468.038	11952.97
468.244	11737.93
468.449	12096.33
468.654	11766.6
468.859	11727.69
469.064	11330.39
469.269	11025.24
469.474	11471.7
469.679	11438.93
469.885	11180.89
470.09	11240.28
470.295	11158.36
470.5	10789.72
470.705	11047.77
470.91	10724.19
471.115	10593.12
471.32	10797.92
471.525	10705.76
471.73	10593.12
471.935	10419.04
472.139	9861.99
472.344	10265.44
472.549	10103.65
472.754	10015.59
472.959	9796.46
473.164	9581.42
473.369	9315.19
473.574	9710.44
473.778	9626.48
473.983	9599.85
474.188	9472.88
474.393	9196.4
474.598	9204.6
474.802	9157.49
475.007	8987.51
475.212	9118.58
475.417	8493.95
475.621	8663.93
475.826	8700.8
476.031	8491.9
476.235	8323.97
476.44	8332.16
476.645	8246.15
476.849	8285.06
477.054	8006.53
477.259	8031.11
477.463	8110.98
477.668	7830.41
477.872	7793.55
478.077	7785.35
478.282	7768.97
478.486	7515.02
478.691	7494.54
478.895	7484.3
479.1	7416.72
479.304	7580.56
479.509	7265.17
479.713	7342.99
479.918	7183.25
480.122	7064.47
480.326	7269.27
480.531	7220.11
480.735	7187.35
480.94	7183.25
481.144	7277.46
481.348	7041.94
481.553	7003.03
481.757	6833.05
481.961	6966.17
482.166	7097.24
482.37	6972.31
482.574	6814.62
482.778	6665.11
482.983	7070.61
483.187	6978.45
483.391	6927.25
483.595	6982.55
483.8	6917.01
484.004	6988.69
484.208	7234.45
484.412	6964.12
484.616	7056.28
484.821	6874.01
485.025	6908.82
485.229	6945.69
485.433	6914.97
485.637	6935.45
485.841	6951.83
486.045	6927.25
486.249	7164.82
486.453	7185.3
486.657	6990.74
486.861	7029.65
487.065	6869.91
487.269	7107.48
487.473	7019.41
487.677	7107.48
487.881	6994.84
488.085	7072.66
488.289	6982.55
488.493	7201.68
488.697	7160.72
488.901	7121.81
489.105	7185.3
489.309	7144.34
489.512	7072.66
489.716	7285.65
489.92	7158.67
490.124	7230.35
490.328	7279.5
490.531	7281.55
490.735	7433.1
490.939	7316.37
491.143	7521.17
491.346	7459.73
491.55	7629.71
491.754	7490.45
491.958	7539.6
492.161	7648.14
492.365	7521.17
492.569	7670.67
492.772	7594.89
492.976	7672.71
493.18	7789.45
493.383	7863.18
493.587	7920.52
493.79	7998.34
493.994	7885.7
494.197	8092.55
494.401	8270.72
494.605	8022.92
494.808	8350.59
495.012	8481.66
495.215	8407.94
495.419	8407.94
495.622	8373.12
495.825	8641.4
496.029	8676.22
496.232	8868.73
496.436	8960.89
496.639	8977.27
496.843	8911.74
497.046	9208.69
497.249	9380.72
497.453	9433.97
497.656	9532.27
497.859	9499.5
498.063	9782.12
498.266	9886.57
498.469	9941.86
498.673	9929.58
498.876	9962.34
499.079	10279.78
499.282	10122.09
499.485	10617.69
499.689	10460
499.892	10818.39
500.095	10939.23
500.298	11139.93
500.501	10998.62
500.705	11299.67
500.908	11461.46
501.111	11731.79
501.314	11651.92
501.517	11737.93
501.72	12100.42
501.923	11787.08
502.126	12452.67
502.329	12610.37
502.532	12645.18
502.735	12827.45
502.938	12878.65
503.141	13030.2
503.344	13112.12
503.547	13292.34
503.75	13486.9
503.953	13802.29
504.156	13937.45
504.359	14187.3
504.562	14140.2
504.765	14562.08
504.968	14730.02
505.17	14682.91
505.373	14826.27
505.576	15004.44
505.779	15196.95
505.982	15475.48
506.185	16024.33
506.387	15786.77
506.59	16053
506.793	16231.18
506.996	16368.39
507.198	16806.66
507.401	16806.66
507.604	16806.66
507.807	17476.34
508.009	17328.89
508.212	17406.71
508.415	17799.92
508.617	17904.37
508.82	18295.53
509.022	18307.82
509.225	18768.61
509.428	18670.31
509.63	19206.87
509.833	19010.27
510.035	19499.73
510.238	19669.72
510.44	19907.28
510.643	20071.12
510.845	20300.49
511.048	20452.04
511.25	20640.45
511.453	20695.75
511.655	21453.5
511.858	21174.97
512.06	21707.44
512.262	21791.41
512.465	22020.78
512.667	22125.23
512.87	22485.67
513.072	22450.86
513.274	23009.95
513.477	23397.02
513.679	23503.51
513.881	23685.78
514.084	23823
514.286	24248.97
514.488	24191.63
514.69	24885.89
514.893	24754.82
515.095	25148.03
515.297	25334.4
515.499	25657.98
515.701	26032.75
515.904	26092.15
516.106	26122.87
516.308	26755.69
516.51	27112.03
516.712	26827.37
516.914	27329.12
517.116	27947.61
517.318	27867.73
517.52	28252.75
517.722	28426.83
517.925	28453.45
518.127	28795.46
518.329	28856.9
518.531	28918.34
518.733	29416
518.935	30063.16
519.136	29942.33
519.338	30218.8
519.54	30528.05
519.742	31003.17
519.944	30829.1
520.146	31767.07
520.348	31664.67
520.55	31754.78
520.752	31541.79
520.954	32821.77
521.155	32197.14
521.357	32469.52
521.559	33468.93
521.761	33321.48
521.963	33511.94
522.164	33530.37
522.366	33618.43
522.568	34079.22
522.77	34064.89
522.971	34841.07
523.173	34914.8
523.375	34777.58
523.576	34730.48
523.778	35199.46
523.98	35604.96
524.181	35447.27
524.383	35586.53
524.584	36172.25
524.786	36401.62
524.988	36260.31
525.189	36665.81
525.391	36649.42
525.592	36975.05
525.794	37169.61
525.995	36981.2
526.197	37435.84
526.398	37519.81
526.6	37478.85
526.801	37908.93
527.003	38056.38
527.204	38060.48
527.406	38283.7
527.607	38365.62
527.808	38515.12
528.01	38308.28
528.211	38674.87
528.412	39207.34
528.614	39131.56
528.815	39006.64
529.016	39100.84
529.218	39063.98
529.419	39231.91
529.62	39786.91
529.822	39307.69
530.023	39231.91
530.224	39909.79
530.425	39764.39
530.626	39338.41
530.828	39625.12
531.029	40362.39
531.23	39457.19
531.431	40233.37
531.632	40290.71
531.833	40266.14
532.035	40358.3
532.236	40403.35
532.437	40913.3
532.638	40346.01
532.839	40671.64
533.04	41079.18
533.241	40577.43
533.442	40968.59
533.643	40970.64
533.844	40974.73
534.045	40858
534.246	40538.52
534.447	41081.23
534.648	40845.71
534.849	41079.18
535.05	40894.86
535.251	41306.51
535.451	41140.62
535.652	41226.63
535.853	41185.68
536.054	41458.06
536.255	41521.54
536.456	40993.17
536.657	41703.81
536.857	41589.13
537.058	41183.63
537.259	41435.53
537.46	41611.65
537.66	41036.17
537.861	42054.01
538.062	41230.73
538.263	41709.96
538.463	41763.2
538.664	41169.29
538.865	41625.99
539.065	41974.14
539.266	41318.79
539.466	41945.47
539.667	41048.46
539.868	42170.75
540.068	41585.03
540.269	41640.32
540.469	41343.37
540.67	41841.03
540.87	41802.11
541.071	41623.94
541.271	41709.96
541.472	41562.5
541.672	41189.77
541.873	41245.07
542.073	41103.76
542.274	42123.65
542.474	41636.23
542.675	41687.43
542.875	42402.17
543.075	41732.48
543.276	41273.74
543.476	41988.48
543.676	41716.1
543.877	42066.3
544.077	41935.23
544.277	41664.9
544.478	41488.77
544.678	41795.97
544.878	41679.24
545.078	41986.43
545.279	41628.04
545.479	42041.73
545.679	42107.26
545.879	41828.74
546.079	41904.51
546.28	41705.86
546.48	41480.58
546.68	42146.17
546.88	41996.67
547.08	41822.59
547.28	41865.6
547.48	41476.49
547.68	41773.44
547.88	41525.64
548.081	42082.69
548.281	41722.24
548.481	42051.97
548.681	42133.89
548.881	41892.22
549.081	41955.71
549.28	41589.13
549.48	42103.17
549.68	41972.1
549.88	42267
550.08	41742.72
550.28	42002.82
550.48	41888.13
550.68	42004.86
550.88	41775.49
551.08	41697.67
551.279	41677.19
551.479	41976.19
551.679	41402.76
551.879	41685.38
552.079	41836.93
552.278	41740.68
552.478	41959.81
552.678	41826.69
552.878	41939.33
553.077	41419.14
553.277	41400.71
553.477	42111.36
553.676	41335.18
553.876	41845.12
554.076	41511.3
554.275	41519.49
554.475	41179.53
554.674	41693.57
554.874	41746.82
555.074	41533.83
555.273	41245.07
555.473	41621.89
555.672	41447.82
555.872	41582.98
556.071	41800.07
556.271	41714.05
556.47	41396.62
556.67	40843.66
556.869	41499.01
557.068	41531.78
557.268	41245.07
557.467	41077.13
557.667	41277.83
557.866	41392.52
558.065	41357.7
558.265	41406.86
558.464	41367.94
558.663	41437.58
558.863	40692.12
559.062	41374.09
559.261	40825.23
559.461	41697.67
559.66	40604.05
559.859	41089.42
560.058	40858
560.258	41419.14
560.457	40575.38
560.656	41148.81
560.855	40499.61
561.054	40982.93
561.253	40827.28
561.453	41066.89
561.652	40589.72
561.851	40767.89
562.05	40747.41
562.249	40782.23
562.448	41036.17
562.647	40657.3
562.846	40495.51
563.045	40821.14
563.244	40628.63
563.443	41230.73
563.642	40206.75
563.841	40858
564.04	40425.88
564.239	40591.76
564.438	40157.6
564.637	40616.34
564.836	40866.19
565.035	40358.3
565.234	40544.66
565.432	40335.77
565.631	40090.01
565.83	40415.64
566.029	40124.83
566.228	40382.87
566.427	40044.96
566.625	40159.64
566.824	39950.75
567.023	40419.74
567.222	39924.13
567.42	40561.05
567.619	39743.91
567.818	40458.65
568.016	39625.12
568.215	40159.64
568.414	39993.76
568.612	40112.54
568.811	39725.47
569.01	40190.36
569.208	39606.69
569.407	39870.88
569.605	39815.58
569.804	40219.03
570.002	39598.5
570.201	39803.3
570.4	39025.07
570.598	38908.33
570.797	38957.49
570.995	39582.12
571.193	39174.57
571.392	39528.87
571.59	39289.26
571.789	39285.16
571.987	39195.05
572.186	38918.57
572.384	38762.93
572.582	38838.7
572.781	39000.49
572.979	38504.88
573.177	38822.32
573.376	38703.54
573.574	38377.91
573.772	38906.29
573.971	38101.43
574.169	38347.19
574.367	37822.91
574.565	38533.56
574.763	38191.55
574.962	37853.63
575.16	37927.36
575.358	38007.23
575.556	37827.01
575.754	38070.72
575.952	37640.64
576.151	38273.46
576.349	37671.36
576.547	37468.61
576.745	37700.03
576.943	37726.66
577.141	37808.58
577.339	37763.52
577.537	37077.45
577.735	37122.51
577.933	36764.11
578.131	37323.21
578.329	36927.95
578.527	36348.37
578.725	36995.53
578.923	36979.15
579.121	36250.07
579.319	36856.27
579.516	36667.86
579.714	36757.97
579.912	36532.69
580.11	36303.32
580.308	36721.1
580.506	36176.34
580.704	35817.95
580.901	36301.27
581.099	36534.74
581.297	35482.08
581.495	35635.68
581.692	35944.92
581.89	35459.55
582.088	35697.12
582.285	35631.58
582.483	35680.74
582.681	35680.74
582.878	35564
583.076	35101.16
583.274	35054.06
583.471	35181.03
583.669	35164.65
583.866	35103.21
584.064	35158.5
584.262	34712.05
584.459	34951.66
584.657	34732.53
584.854	35035.63
585.052	34167.29
585.249	34447.86
585.447	34427.38
585.644	34181.62
585.841	34243.06
586.039	34347.51
586.236	33935.87
586.434	33624.57
586.631	33794.56
586.828	33550.85
587.026	33937.91
587.223	33509.89
587.42	33821.18
587.618	33681.92
587.815	33196.55
588.012	33288.71
588.21	33274.37
588.407	33268.23
588.604	33178.12
588.801	33026.57
588.999	32760.33
589.196	32672.27
589.393	33133.06
589.59	32705.04
589.787	32508.43
589.984	32168.47
590.182	32084.5
590.379	32483.86
590.576	32180.76
590.773	32313.87
590.97	31808.03
591.167	32137.75
591.364	31805.98
591.561	32109.08
591.758	31791.64
591.955	31627.81
592.152	31869.47
592.349	31293.99
592.546	31617.57
592.743	31554.08
592.94	30988.84
593.137	31498.78
593.334	31130.15
593.531	30683.69
593.727	31218.21
593.924	31078.95
594.121	30593.58
594.318	31101.48
594.515	30161.46
594.712	30915.11
594.908	30616.11
595.105	30515.76
595.302	30251.57
595.499	30347.82
595.696	30138.93
595.892	30059.06
596.089	29909.56
596.286	30069.3
596.482	29637.18
596.679	29786.68
596.876	29657.66
597.072	29452.86
597.269	29686.33
597.466	29278.79
597.662	29379.14
597.859	29520.45
598.055	29020.74
598.252	29110.85
598.448	29448.77
598.645	29035.08
598.841	28557.9
599.038	29002.31
599.234	28889.67
599.431	28404.3
599.627	28367.44
599.824	28750.41
600.02	28418.64
600.217	28322.38
600.413	28140.11
600.609	28144.21
600.806	28191.31
601.002	27990.61
601.198	27593.31
601.395	27722.33
601.591	27685.47
601.787	27673.18
601.984	27279.97
602.18	27783.77
602.376	27198.05
602.572	27378.27
602.769	27282.02
602.965	26985.06
603.161	27142.75
603.357	26995.3
603.553	26657.39
603.75	26952.29
603.946	26698.34
604.142	26847.85
604.338	26487.4
604.534	26747.5
604.73	26227.31
604.926	26253.94
605.122	26253.94
605.318	26053.23
605.514	25913.97
605.71	25713.27
605.906	26118.77
606.102	26116.72
606.298	26135.15
606.494	25989.75
606.69	26020.47
606.886	25985.65
607.082	25426.56
607.278	25555.58
607.474	25223.81
607.67	25379.45
607.866	25225.86
608.062	25223.81
608.257	25246.33
608.453	25322.11
608.649	25277.05
608.845	25064.07
609.041	25029.25
609.236	25074.31
609.432	24859.27
609.628	24971.91
609.824	24754.82
610.019	24935.04
610.215	24763.01
610.411	24472.2
610.606	24648.33
610.802	24560.27
610.998	24375.95
611.193	24574.6
611.389	24199.82
611.584	24400.52
611.78	24375.95
611.976	24277.65
612.171	24220.3
612.367	24136.34
612.562	24271.5
612.758	23880.34
612.953	24025.75
613.149	24259.21
613.344	23792.28
613.539	24234.64
613.735	23851.67
613.93	23849.62
614.126	23814.8
614.321	23667.35
614.517	23745.17
614.712	23417.5
614.907	23431.83
615.103	23696.02
615.298	23745.17
615.493	23831.19
615.688	23339.68
615.884	24035.99
616.079	23421.59
616.274	23220.89
616.47	23145.12
616.665	23325.34
616.86	23018.14
617.055	22809.25
617.25	22893.22
617.445	23038.62
617.641	22553.26
617.836	23095.97
618.031	22684.33
618.226	22905.51
618.421	22487.72
618.616	22821.54
618.811	22221.48
619.006	22805.16
619.201	22176.43
619.396	22176.43
619.591	22008.5
619.786	22205.1
619.981	21852.85
620.176	22041.26
620.371	21746.36
620.566	21670.58
620.761	21590.71
620.956	21564.09
621.151	21220.03
621.346	21377.72
621.541	20875.97
621.735	21351.1
621.93	20761.28
622.125	21013.18
622.32	20916.93
622.515	20744.9
622.709	20325.07
622.904	20685.51
623.099	20120.27
623.294	20411.08
623.488	20038.35
623.683	20214.48
623.878	19823.31
624.072	20013.77
624.267	19667.67
624.462	19632.85
624.656	19495.64
624.851	19544.79
625.046	19315.42
625.24	19165.92
625.435	19163.87
625.629	19135.2
625.824	18961.12
626.018	19084
626.213	18547.43
626.407	18617.06
626.602	18483.94
626.796	18567.91
626.991	18430.69
627.185	18395.88
627.38	18139.88
627.574	18203.37
627.768	17789.68
627.963	17902.32
628.157	17771.25
628.352	17990.38
628.546	17525.49
628.74	17732.34
628.935	17515.25
629.129	17466.1
629.323	17275.64
629.517	17111.8
629.712	16972.54
629.906	16929.53
630.1	16861.95
630.294	16601.86
630.489	16587.52
630.683	16855.81
630.877	16261.9
631.071	16179.98
631.265	16583.43
631.459	16284.42
631.653	16370.44
631.848	16116.49
632.042	16171.79
632.236	16040.72
632.43	15778.58
632.624	15909.65
632.818	15817.49
633.012	15788.82
633.206	15430.42
633.4	15510.29
633.594	15344.41
633.788	15360.79
633.982	15209.24
634.176	15262.49
634.369	15133.47
634.563	15004.44
634.757	14979.87
634.951	14885.66
635.145	14867.23
635.339	14656.29
635.533	14785.31
635.726	14543.65
635.92	14316.33
636.114	14574.37
636.308	14301.99
636.501	14416.68
636.695	14095.14
636.889	14267.17
637.083	13884.2
637.276	14052.14
637.47	13982.51
637.664	13695.79
637.857	13910.83
638.051	13564.72
638.244	13632.3
638.438	13597.49
638.632	13478.71
638.825	13271.86
639.019	13357.88
639.212	13384.5
639.406	13093.69
639.599	13175.61
639.793	13302.58
639.986	12841.79
640.18	13052.73
640.373	12841.79
640.567	12835.64
640.76	12809.02
640.954	12639.04
641.147	12747.58
641.34	12446.53
641.534	12354.37
641.727	12389.19
641.92	12245.83
642.114	12206.92
642.307	12194.63
642.5	12008.26
642.694	11969.35
642.887	11758.41
643.08	11940.68
643.273	12098.38
643.467	11465.55
643.66	11649.87
643.853	11533.14
644.046	11440.98
644.239	11684.69
644.432	11311.96
644.626	11490.13
644.819	11299.67
645.012	11262.8
645.205	11219.8
645.398	11078.49
645.591	10974.04
645.784	11004.76
645.977	10955.61
646.17	11058.01
646.363	10988.38
646.556	10812.25
646.749	10535.78
646.942	10697.56
647.135	10615.65
647.328	10531.68
647.521	10546.02
647.714	10253.16
647.907	10437.47
648.099	10279.78
648.292	10185.57
648.485	10230.63
648.678	10087.27
648.871	10089.32
649.064	9929.58
649.256	10083.17
649.449	9880.43
649.642	9649
649.835	9603.95
650.027	9536.37
650.22	9601.9
650.413	9436.02
650.605	9476.98
650.798	9495.41
650.991	9397.1
651.183	9313.14
651.376	9223.03
651.568	9280.37
651.761	9094.01
651.954	9200.5
652.146	9177.97
652.339	8891.26
652.531	8842.11
652.724	8840.06
652.916	8635.26
653.109	8821.63
653.301	8670.08
653.494	8737.66
653.686	8508.29
653.879	8471.42
654.071	8493.95
654.263	8311.68
654.456	8520.57
654.648	8706.94
654.84	8278.91
655.033	8180.61
655.225	8196.99
655.417	8278.91
655.61	8246.15
655.802	8231.81
655.994	7934.85
656.186	8059.78
656.379	8047.49
656.571	7979.91
656.763	7828.36
656.955	7934.85
657.148	7840.65
657.34	7928.71
657.532	7685
657.724	7508.88
657.916	7521.17
658.108	7465.87
658.3	7412.62
658.492	7400.34
658.684	7226.26
658.876	7314.32
659.068	7414.67
659.26	7142.29
659.452	7299.98
659.644	7089.04
659.836	7046.04
660.028	7050.13
660.22	6927.25
660.412	6900.63
660.604	6792.09
660.796	6878.1
660.988	7011.22
661.18	6886.29
661.372	6634.39
661.563	6759.32
661.755	6615.96
661.947	6783.9
662.139	6329.25
662.331	6540.19
662.522	6493.08
662.714	6425.5
662.906	6448.03
663.097	6304.67
663.289	6296.48
663.481	6194.08
663.673	6132.64
663.864	6222.75
664.056	6046.63
664.247	6116.26
664.439	5954.47
664.631	6063.01
664.822	5829.54
665.014	5890.98
665.205	5880.74
665.397	5817.26
665.588	5671.85
665.78	5553.07
665.971	5546.92
666.163	5786.54
666.354	5647.27
666.546	5417.9
666.737	5491.63
666.929	5536.68
667.12	5518.25
667.311	5417.9
667.503	5456.81
667.694	5292.98
667.885	5280.69
668.077	5282.74
668.268	5041.08
668.459	5116.85
668.651	5112.75
668.842	5104.56
669.033	4975.54
669.224	5047.22
669.416	5104.56
669.607	4924.34
669.798	5014.45
669.989	4938.68
670.18	4854.71
670.371	4840.37
670.563	4799.41
670.754	4809.65
670.945	4887.48
671.136	4789.17
671.327	4705.21
671.518	4596.67
671.709	4697.02
671.9	4701.11
672.091	4873.14
672.282	4639.67
672.473	4527.03
672.664	4572.09
672.855	4451.26
673.046	4561.85
673.237	4533.18
673.428	4436.92
673.619	4473.79
673.809	4465.6
674	4395.96
674.191	4289.47
674.382	4246.46
674.573	4359.1
674.764	4113.35
674.954	4324.29
675.145	4133.82
675.336	4338.62
675.527	4260.8
675.717	4182.98
675.908	4027.33
676.099	4228.03
676.289	4178.88
676.48	4092.87
676.671	4000.71
676.861	4113.35
677.052	3972.04
677.243	4047.81
677.433	3961.8
677.624	3965.89
677.814	3972.04
678.005	3736.52
678.195	3777.48
678.386	3859.4
678.576	3992.52
678.767	3918.79
678.957	3834.82
679.148	3881.92
679.338	3814.34
679.529	3703.75
679.719	3728.33
679.909	3873.73
680.1	3720.14
680.29	3726.28
680.481	3779.53
680.671	3726.28
680.861	3681.22
681.052	3621.83
681.242	3746.76
681.432	3765.19
681.622	3591.11
681.813	3656.65
682.003	3597.26
682.193	3646.41
682.383	3662.79
682.573	3537.87
682.764	3498.95
682.954	3595.21
683.144	3546.06
683.334	3494.86
683.524	3302.35
683.714	3509.19
683.904	3417.04
684.094	3548.11
684.284	3476.43
684.474	3441.61
684.664	3464.14
684.854	3519.43
685.044	3421.13
685.234	3400.65
685.424	3480.52
685.614	3335.12
685.804	3298.25
685.994	3281.87
686.184	3458
686.374	3353.55
686.564	3269.58
686.753	3376.08
686.943	3304.4
687.133	3406.8
687.323	3355.6
687.513	3218.38
687.702	3357.64
687.892	3259.34
688.082	3197.9
688.272	3345.36
688.461	3326.93
688.651	3195.86
688.841	3255.25
689.03	3353.55
689.22	3253.2
689.41	3255.25
689.599	3101.65
689.789	3361.74
689.979	3222.48
690.168	3324.88
690.358	3046.35
690.547	3105.74
690.737	3199.95
690.926	3191.76
691.116	3029.97
691.305	3234.77
691.495	3218.38
691.684	3079.12
691.874	3087.31
692.063	3054.55
692.252	3115.98
692.442	3109.84
692.631	3204.05
692.82	3175.38
693.01	3015.63
693.199	3171.28
693.388	3126.22
693.578	2993.11
693.767	3075.03
693.956	3097.55
694.146	3027.92
694.335	3054.55
694.524	2960.34
694.713	3099.6
694.902	3150.8
695.092	3034.07
695.281	3021.78
695.47	2876.37
695.659	2814.93
695.848	2921.43
696.037	2917.33
696.226	3087.31
696.415	2935.76
696.604	3003.35
696.793	2769.88
696.982	2874.32
697.171	2868.18
697.36	2767.83
697.549	2794.45
697.738	2714.58
697.927	2884.56
698.116	2933.72
698.305	2859.99
698.494	2907.09
698.683	2890.71
698.872	2816.98
699.061	2798.55
699.25	2679.77
699.438	2773.97
699.627	2735.06
699.816	2730.97
700.005	2589.66
700.193	2712.53
700.382	2702.29
700.571	2651.1
700.76	2722.77
700.948	2726.87
701.137	2622.42
701.326	2642.9
701.514	2464.73
701.703	2700.25
701.892	2538.46
702.08	2712.53
702.269	2556.89
702.457	2565.08
702.646	2558.94
702.834	2567.13
703.023	2407.39
703.212	2438.11
703.4	2479.07
703.589	2454.49
703.777	2608.09
703.965	2376.67
704.154	2479.07
704.342	2399.2
704.531	2436.06
704.719	2384.86
704.907	2386.91
705.096	2393.05
705.284	2329.56
705.472	2374.62
705.661	2251.74
705.849	2397.15
706.037	2249.69
706.226	2304.99
706.414	2358.24
706.602	2343.9
706.79	2292.7
706.979	2223.07
707.167	2313.18
707.355	2124.77
707.543	2239.45
707.731	2229.21
707.919	2182.11
708.107	2186.21
708.296	2155.49
708.484	2227.17
708.672	2044.9
708.86	2057.18
709.048	2175.97
709.236	2008.03
709.424	2073.57
709.612	2053.09
709.8	2122.72
709.988	2065.38
710.176	2024.42
710.364	2057.18
710.551	2001.89
710.739	2048.99
710.927	2055.14
711.115	1960.93
711.303	2096.1
711.491	2044.9
711.679	2028.51
711.866	1876.96
712.054	1975.27
712.242	2046.94
712.43	1909.73
712.617	1934.31
712.805	1948.64
712.993	1852.39
713.181	1913.83
713.368	1960.93
713.556	1854.44
713.744	1919.97
713.931	1885.16
714.119	1850.34
714.306	1868.77
714.494	1793
714.682	1856.48
714.869	1704.93
715.057	1817.57
715.244	1682.41
715.432	1784.8
715.619	1936.35
715.807	1737.7
715.994	1768.42
716.182	1749.99
716.369	1747.94
716.556	1743.85
716.744	1698.79
716.931	1696.74
717.119	1737.7
717.306	1635.3
717.493	1584.1
717.681	1692.65
717.868	1711.08
718.055	1659.88
718.242	1682.41
718.43	1561.58
718.617	1647.59
718.804	1629.16
718.991	1604.58
719.179	1596.39
719.366	1612.78
719.553	1639.4
719.74	1487.85
719.927	1541.1
720.114	1573.86
720.301	1516.52
720.488	1532.9
720.676	1463.27
720.863	1563.62
721.05	1555.43
721.237	1512.42
721.424	1471.47
721.611	1469.42
721.798	1377.26
721.985	1461.23
722.172	1309.68
722.358	1356.78
722.545	1510.38
722.732	1502.19
722.919	1385.45
723.106	1444.84
723.293	1360.88
723.48	1360.88
723.667	1344.49
723.853	1336.3
724.04	1420.27
724.227	1313.77
724.414	1383.4
724.6	1311.72
724.787	1354.73
724.974	1426.41
725.161	1391.59
725.347	1240.05
725.534	1240.05
725.72	1315.82
725.907	1367.02
726.094	1328.11
726.28	1266.67
726.467	1254.38
726.653	1260.52
726.84	1305.58
727.027	1235.95
727.213	1252.33
727.4	1235.95
727.586	1297.39
727.773	1176.56
727.959	1246.19
728.145	1215.47
728.332	1151.98
728.518	1182.7
728.705	1180.65
728.891	1172.46
729.077	1133.55
729.264	1143.79
729.45	1082.35
729.636	1129.45
729.823	1197.04
730.009	1127.41
730.195	1100.78
730.382	1162.22
730.568	1147.89
730.754	1125.36
730.94	1076.21
731.126	1186.8
731.313	1143.79
731.499	1088.5
731.685	1045.49
731.871	1037.3
732.057	1078.26
732.243	988.14
732.429	1047.54
732.615	1049.58
732.801	1031.15
732.987	1049.58
733.173	1115.12
733.359	963.57
733.545	1115.12
733.731	1004.53
733.917	1082.35
734.103	1102.83
734.289	1035.25
734.475	1059.82
734.661	1041.39
734.847	1061.87
735.033	1010.67
735.219	1012.72
735.404	988.14
735.59	902.13
735.776	965.62
735.962	963.57
736.148	1004.53
736.333	982
736.519	969.71
736.705	924.66
736.89	902.13
737.076	1022.96
737.262	902.13
737.447	941.04
737.633	969.71
737.819	838.64
738.004	863.22
738.19	947.19
738.375	971.76
738.561	914.42
738.747	850.93
738.932	859.12
739.118	926.71
739.303	924.66
739.489	881.65
739.674	820.21
739.859	842.74
740.045	789.49
740.23	832.5
740.416	914.42
740.601	873.46
740.786	869.36
740.972	758.77
741.157	771.06
741.342	852.98
741.528	769.01
741.713	871.41
741.898	801.78
742.084	814.07
742.269	807.92
742.454	709.62
742.639	719.86
742.824	793.59
743.01	674.81
743.195	834.55
743.38	693.24
743.565	779.25
743.75	736.24
743.935	740.34
744.12	742.39
744.305	693.24
744.49	672.76
744.675	728.05
744.86	781.3
745.045	705.53
745.23	701.43
745.415	693.24
745.6	723.96
745.785	717.81
745.97	730.1
746.155	596.98
746.34	685.05
746.525	680.95
746.71	676.85
746.895	633.85
747.079	721.91
747.264	721.91
747.449	676.85
747.634	621.56
747.819	617.46
748.003	588.79
748.188	611.32
748.373	648.18
748.557	629.75
748.742	678.9
748.927	674.81
749.111	633.85
749.296	578.55
749.481	650.23
749.665	576.5
749.85	568.31
750.034	601.08
750.219	642.04
750.404	650.23
750.588	672.76
750.773	539.64
750.957	584.7
751.141	537.59
751.326	527.35
751.51	570.36
751.695	617.46
751.879	635.89
752.064	545.78
752.248	562.17
752.432	652.28
752.617	592.89
752.801	570.36
752.985	521.21
753.17	535.54
753.354	494.58
753.538	474.1
753.722	439.29
753.907	527.35
754.091	476.15
754.275	484.34
754.459	519.16
754.643	568.31
754.828	519.16
755.012	486.39
755.196	476.15
755.38	455.67
755.564	470.01
755.748	508.92
755.932	482.3
756.116	431.1
756.3	402.43
756.484	531.45
756.668	478.2
756.852	363.51
757.036	513.02
757.22	455.67
757.404	508.92
757.588	482.3
757.772	431.1
757.956	457.72
758.14	439.29
758.323	453.63
758.507	484.34
758.691	394.23
758.875	363.51
759.059	478.2
759.242	502.78
759.426	371.71
759.61	433.15
759.794	474.1
759.977	459.77
760.161	400.38
760.345	375.8
760.528	508.92
760.712	320.51
760.895	441.34
761.079	463.86
761.263	431.1
761.446	390.14
761.63	404.47
761.813	330.75
761.997	381.95
762.18	445.43
762.364	379.9
762.547	381.95
762.731	316.41
762.914	408.57
763.098	332.79
763.281	361.47
763.464	461.82
763.648	408.57
763.831	336.89
764.015	369.66
764.198	390.14
764.381	394.23
764.564	443.39
764.748	379.9
764.931	379.9
765.114	416.76
765.297	359.42
765.481	410.62
765.664	326.65
765.847	375.8
766.03	363.51
766.213	365.56
766.397	472.06
766.58	302.08
766.763	402.43
766.946	312.32
767.129	289.79
767.312	363.51
767.495	373.75
767.678	330.75
767.861	351.23
768.044	361.47
768.227	334.84
768.41	363.51
768.593	361.47
768.776	304.12
768.959	357.37
769.142	248.83
769.324	375.8
769.507	334.84
769.69	287.74
769.873	324.6
770.056	304.12
770.239	287.74
770.421	349.18
770.604	308.22
770.787	363.51
770.97	365.56
771.152	363.51
771.335	246.78
771.518	273.4
771.7	361.47
771.883	369.66
772.066	306.17
772.248	322.56
772.431	295.93
772.613	377.85
772.796	336.89
772.978	263.16
773.161	283.64
773.343	320.51
773.526	371.71
773.708	308.22
773.891	322.56
774.073	297.98
774.256	285.69
774.438	439.29
774.621	326.65
774.803	336.89
774.985	273.4
775.168	349.18
775.35	277.5
775.532	295.93
775.715	234.49
775.897	224.25
776.079	340.99
776.261	273.4
776.444	279.55
776.626	277.5
776.808	330.75
776.99	279.55
777.173	224.25
777.355	252.92
777.537	216.06
777.719	244.73
777.901	254.97
778.083	234.49
778.265	257.02
778.447	279.55
778.629	285.69
778.811	263.16
778.993	289.79
779.175	179.2
779.357	232.44
779.539	158.72
779.721	273.4
779.903	295.93
780.085	285.69
780.267	224.25
780.449	293.88
780.631	300.03
780.812	295.93
780.994	166.91
781.176	257.02
781.358	263.16
781.54	201.72
781.721	197.63
781.903	293.88
782.085	226.3
782.267	248.83
782.448	234.49
782.63	254.97
782.812	207.87
782.993	220.16
783.175	220.16
783.357	177.15
783.538	273.4
783.72	168.96
783.901	300.03
784.083	183.29
784.264	218.11
784.446	201.72
784.627	226.3
784.809	257.02
784.99	224.25
785.172	267.26
785.353	195.58
785.535	162.81
785.716	152.57
785.897	250.88
786.079	171.01
786.26	168.96
786.441	230.4
786.623	209.92
786.804	179.2
786.985	211.96
787.167	244.73
787.348	291.84
787.529	236.54
787.71	101.37
787.891	242.68
788.073	166.91
788.254	142.33
788.435	138.24
788.616	148.48
788.797	191.49
788.978	150.53
789.159	84.99
789.34	289.79
789.522	177.15
789.703	187.39
789.884	207.87
790.065	197.63
790.246	91.13
790.427	216.06
790.607	140.29
790.788	168.96
790.969	177.15
791.15	187.39
791.331	187.39
791.512	80.89
791.693	162.81
791.874	101.37
792.054	150.53
792.235	66.56
792.416	119.81
792.597	195.58
792.778	132.09
792.958	191.49
793.139	123.9
793.32	103.42
793.5	132.09
793.681	150.53
793.862	146.43
794.042	84.99
794.223	99.33
794.404	136.19
794.584	82.94
794.765	119.81
794.945	58.37
795.126	140.29
795.306	191.49
795.487	74.75
795.667	132.09
795.848	91.13
796.028	82.94
796.209	164.86
796.389	119.81
796.57	154.62
796.75	97.28
796.93	134.14
797.111	91.13
797.291	54.27
797.471	113.66
797.652	87.04
797.832	91.13
798.012	117.76
798.192	72.7
798.373	91.13
798.553	66.56
798.733	82.94
798.913	21.5
799.093	80.89
799.274	64.51
799.454	97.28
799.634	117.76
799.814	109.57
799.994	99.33
800.174	82.94
800.354	130.05
800.534	152.57
800.714	113.66
800.894	52.22
801.074	41.98
801.254	64.51
801.434	41.98
801.614	50.18
801.794	66.56
801.974	250.88
802.154	103.42
802.334	99.33
802.514	74.75
802.693	70.65
802.873	101.37
803.053	128
803.233	48.13
803.413	91.13
803.592	17.41
803.772	52.22
803.952	101.37
804.131	70.65
804.311	58.37
804.491	62.46
804.67	117.76
804.85	125.95
805.03	19.46
805.209	78.85
805.389	44.03
805.568	80.89
805.748	78.85
805.928	87.04
806.107	31.74
806.287	37.89
806.466	52.22
806.646	87.04
806.825	52.22
807.004	66.56
807.184	-11.26
807.363	78.85
807.543	95.23
807.722	134.14
807.901	132.09
808.081	132.09
808.26	29.7
808.439	150.53
808.619	44.03
808.798	66.56
808.977	19.46
809.156	56.32
809.336	7.17
809.515	107.52
809.694	62.46
809.873	123.9
810.052	84.99
810.231	52.22
810.411	68.61
810.59	-9.22
810.769	5.12
810.948	99.33
811.127	11.26
811.306	117.76
811.485	7.17
811.664	136.19
811.843	23.55
812.022	48.13
812.201	1.02
812.38	44.03
812.559	-35.84
812.737	33.79
812.916	33.79
813.095	9.22
813.274	66.56
813.453	74.75
813.632	44.03
813.811	13.31
813.989	80.89
814.168	82.94
814.347	11.26
814.526	107.52
814.704	66.56
814.883	91.13
815.062	-29.7
815.24	41.98
815.419	-25.6
815.598	72.7
815.776	1.02
815.955	101.37
816.133	-11.26
816.312	27.65
816.49	46.08
816.669	41.98
816.847	-48.13
817.026	97.28
817.204	27.65
817.383	58.37
817.561	82.94
817.74	70.65
817.918	33.79
818.097	15.36
818.275	95.23
818.453	74.75
818.632	82.94
818.81	46.08
818.988	-64.51
819.167	11.26
819.345	-17.41
819.523	62.46
819.701	11.26
819.879	37.89
820.058	-15.36
820.236	68.61
820.414	9.22
820.592	27.65
820.77	29.7
820.948	35.84
821.127	-19.46
821.305	13.31
821.483	33.79
821.661	23.55
821.839	48.13
822.017	7.17
822.195	23.55
822.373	-13.31
822.551	46.08
822.729	58.37
822.907	33.79
823.085	58.37
823.262	5.12
823.44	54.27
823.618	19.46
823.796	17.41
823.974	-11.26
824.152	50.18
824.329	9.22
824.507	17.41
824.685	68.61
824.863	31.74
825.04	-17.41
825.218	13.31
825.396	39.94
825.574	41.98
825.751	15.36
825.929	82.94
826.107	-64.51
826.284	3.07
826.462	74.75
826.639	-7.17
826.817	70.65
826.994	80.89
827.172	-27.65
827.349	35.84
827.527	-54.27
827.704	97.28
827.882	27.65
828.059	99.33
828.237	5.12
828.414	-19.46
828.591	52.22
828.769	-21.5
828.946	21.5
829.124	-48.13
829.301	29.7
829.478	50.18
829.655	9.22
829.833	82.94
830.01	46.08
830.187	25.6
830.364	-41.98
830.542	-5.12
830.719	-9.22
830.896	-13.31
831.073	-54.27
831.25	-33.79
831.427	52.22
831.604	50.18
831.782	11.26
831.959	1.02
832.136	-33.79
832.313	-9.22
832.49	-29.7
832.667	70.65
832.844	46.08
833.021	41.98
833.198	35.84
833.374	29.7
833.551	50.18
833.728	-21.5
833.905	-15.36
834.082	17.41
834.259	15.36
834.436	58.37
834.612	-9.22
834.789	7.17
834.966	-70.65
835.143	46.08
835.319	-44.03
835.496	82.94
835.673	-21.5
835.85	41.98
836.026	-11.26
836.203	25.6
836.38	-68.61
836.556	-19.46
836.733	9.22
836.909	25.6
837.086	-60.42
837.262	5.12
837.439	33.79
837.616	21.5
837.792	-29.7
837.968	37.89
838.145	-7.17
838.321	19.46
838.498	3.07
838.674	31.74
838.851	-23.55
839.027	64.51
839.203	-11.26
839.38	-76.8
839.556	-62.46
839.732	13.31
839.909	25.6
840.085	-15.36
840.261	35.84
840.437	-37.89
840.614	-5.12
840.79	-13.31
840.966	1.02
841.142	31.74
841.318	11.26
841.494	-31.74
841.671	23.55
841.847	41.98
842.023	-23.55
842.199	-3.07
842.375	48.13
842.551	-37.89
842.727	27.65
842.903	-7.17
843.079	15.36
843.255	66.56
843.431	-7.17
843.607	89.09
843.783	-56.32
843.959	62.46
844.134	48.13
844.31	-76.8
844.486	9.22
844.662	-5.12
844.838	-48.13
845.013	44.03
845.189	-27.65
845.365	-29.7
845.541	1.02
845.716	-64.51
845.892	-52.22
846.068	-11.26
846.244	35.84
846.419	27.65
846.595	-11.26
846.77	37.89
846.946	-19.46
847.122	-1.02
847.297	-11.26
847.473	-9.22
847.648	-44.03
847.824	11.26
847.999	27.65
848.175	-27.65
848.35	-31.74
848.526	33.79
848.701	1.02
848.876	-37.89
849.052	35.84
849.227	9.22
849.403	-39.94
849.578	44.03
849.753	-23.55
849.929	9.22
850.104	89.09
850.279	-13.31
850.454	17.41
850.63	-3.07
850.805	9.22
850.98	-15.36
851.155	21.5
851.33	-25.6
851.505	15.36
851.681	-48.13
851.856	-1.02
852.031	-17.41
852.206	39.94
852.381	15.36
852.556	-82.94
852.731	1.02
852.906	25.6
853.081	-23.55
853.256	-33.79
853.431	-7.17
853.606	11.26
853.781	19.46
853.956	-72.7
854.131	11.26
854.305	-25.6
854.48	64.51
854.655	-1.02
854.83	-78.85
855.005	-33.79
855.18	-1.02
855.354	-50.18
855.529	-17.41
855.704	1.02
855.879	31.74
856.053	-68.61
856.228	-15.36
856.403	-97.28
856.577	13.31
856.752	52.22
856.926	19.46
857.101	-91.13
857.276	-1.02
857.45	-37.89
857.625	56.32
857.799	15.36
857.974	-11.26
858.148	-7.17
858.323	-74.75
858.497	33.79
858.672	74.75
858.846	-7.17
859.02	-54.27
859.195	13.31
859.369	-95.23
859.543	11.26
859.718	-52.22
859.892	-70.65
860.066	-54.27
860.241	-17.41
860.415	-23.55
860.589	-27.65
860.763	93.18
860.938	-1.02
861.112	56.32
861.286	37.89
861.46	-121.85
861.634	27.65
861.808	1.02
861.982	-7.17
862.157	52.22
862.331	-33.79
862.505	62.46
862.679	-58.37
862.853	-21.5
863.027	29.7
863.201	-39.94
863.375	-48.13
863.549	23.55
863.722	9.22
863.896	11.26
864.07	-7.17
864.244	21.5
864.418	-13.31
864.592	-50.18
864.766	11.26
864.939	-39.94
865.113	-9.22
865.287	21.5
865.461	-39.94
865.634	-60.42
865.808	-87.04
865.982	-29.7
866.156	13.31
866.329	-29.7
866.503	35.84
866.676	-46.08
866.85	-56.32
867.024	15.36
867.197	-23.55
867.371	-17.41
867.544	-21.5
867.718	-31.74
867.891	19.46
868.065	-37.89
868.238	-60.42
868.412	-23.55
868.585	-7.17
868.759	50.18
868.932	-54.27
869.105	-99.33
869.279	39.94
869.452	39.94
869.625	-3.07
869.799	-21.5
869.972	-60.42
870.145	-5.12
870.319	1.02
870.492	-44.03
870.665	-29.7
870.838	-27.65
871.011	5.12
871.185	11.26
871.358	-21.5
871.531	-15.36
871.704	-3.07
871.877	-29.7
872.05	33.79
872.223	15.36
872.396	27.65
872.569	21.5
872.742	9.22
872.915	-21.5
873.088	-72.7
873.261	-7.17
873.434	-39.94
873.607	-15.36
873.78	-64.51
873.953	-60.42
874.126	1.02
874.299	-27.65
874.471	-29.7
874.644	27.65
874.817	-52.22
874.99	-7.17
875.163	7.17
875.335	37.89
875.508	-82.94
875.681	-1.02
875.853	-60.42
876.026	37.89
876.199	-41.98
876.371	33.79
876.544	23.55
876.717	11.26
876.889	-44.03
877.062	-23.55
877.234	-31.74
877.407	11.26
877.579	48.13
877.752	-48.13
877.924	15.36
878.097	23.55
878.269	-76.8
878.442	17.41
878.614	50.18
878.786	-62.46
878.959	-27.65
879.131	-15.36
879.303	-74.75
879.476	39.94
879.648	-11.26
879.82	-27.65
879.993	1.02
880.165	-11.26
880.337	-48.13
880.509	-11.26
880.681	-7.17
880.854	39.94
881.026	48.13
881.198	29.7
881.37	-29.7
881.542	-21.5
881.714	-82.94
881.886	-52.22
882.058	-54.27
882.23	-25.6
882.402	37.89
882.574	-82.94
882.746	-15.36
882.918	-9.22
883.09	-93.18
883.262	-31.74
883.434	-21.5
883.606	-37.89
883.778	-11.26
883.95	-17.41
884.122	-50.18
884.293	-3.07
884.465	62.46
884.637	-105.47
884.809	17.41
884.98	-54.27
885.152	-84.99
885.324	-13.31
885.496	-5.12
885.667	-54.27
885.839	-15.36
886.011	-9.22
886.182	76.8
886.354	52.22
886.525	-7.17
886.697	-31.74
886.869	-60.42
887.04	31.74
887.212	-21.5
887.383	-35.84
887.555	-3.07
887.726	-11.26
887.897	-44.03
888.069	23.55
888.24	-5.12
888.412	-54.27
888.583	-29.7
888.754	25.6
888.926	27.65
889.097	-11.26
889.268	-23.55
889.44	-19.46
889.611	-17.41
889.782	-3.07
889.953	-1.02
890.125	17.41
890.296	84.99
890.467	-23.55
890.638	-3.07
890.809	-48.13
890.98	-35.84
891.151	9.22
891.323	-41.98
891.494	-25.6
891.665	3.07
891.836	-15.36
892.007	-29.7
892.178	-74.75
892.349	-21.5
892.52	-1.02
892.691	-5.12
892.862	-29.7
893.032	-39.94
893.203	-31.74
893.374	3.07
893.545	-5.12
893.716	-7.17
893.887	1.02
894.057	-15.36
894.228	-13.31
894.399	-50.18
894.57	1.02
894.74	17.41
894.911	-7.17
895.082	-44.03
895.253	-35.84
895.423	-25.6
895.594	3.07
895.764	-50.18
895.935	11.26
896.106	-9.22
896.276	9.22
896.447	-23.55
896.617	-62.46
896.788	-37.89
896.958	33.79
897.129	-68.61
897.299	-31.74
897.47	-15.36
897.64	-23.55
897.81	-78.85
897.981	13.31
898.151	-23.55
898.322	19.46
898.492	-48.13
898.662	-15.36
898.832	-46.08
899.003	-1.02
899.173	-21.5
899.343	-9.22
899.513	-27.65
