Data from USB4F104151__61__12-54-09-203.txt Node

Date: Fri Mar 14 12:54:09 EDT 2025
User: louis
Spectrometer: USB4F10415
Trigger mode: 4
Integration Time (sec): 1.000000E-2
Scans to average: 1
Electric dark correction enabled: true
Nonlinearity correction enabled: false
Boxcar width: 0
XAxis mode: Wavelengths
Number of Pixels in Spectrum: 3648
>>>>>Begin Spectral Data<<<<<
178.204	-103.08
178.424	-103.08
178.644	-103.08
178.864	-64.17
179.084	-127.66
179.304	27.99
179.524	-19.11
179.744	-31.4
179.964	36.18
180.184	-55.98
180.404	-12.97
180.624	11.61
180.844	27.99
181.064	21.85
181.283	-19.11
181.503	27.99
181.723	-15.02
181.943	-82.6
182.163	9.56
182.383	9.56
182.602	-10.92
182.822	11.61
183.042	23.89
183.262	9.56
183.482	52.56
183.701	-8.87
183.921	9.56
184.141	-47.79
184.361	30.04
184.58	-21.16
184.8	1.37
185.02	-37.55
185.239	3.41
185.459	-15.02
185.679	11.61
185.898	13.65
186.118	77.14
186.338	-33.45
186.557	-0.68
186.777	-33.45
186.997	23.89
187.216	-0.68
187.436	38.23
187.655	9.56
187.875	7.51
188.095	-21.16
188.314	32.08
188.534	40.28
188.753	13.65
188.973	9.56
189.192	32.08
189.412	11.61
189.631	15.7
189.851	11.61
190.07	9.56
190.29	-0.68
190.509	17.75
190.729	-21.16
190.948	36.18
191.168	-0.68
191.387	85.33
191.607	32.08
191.826	13.65
192.045	3.41
192.265	19.8
192.484	23.89
192.704	-10.92
192.923	-12.97
193.142	-19.11
193.362	81.24
193.581	93.52
193.8	9.56
194.02	71
194.239	54.61
194.458	46.42
194.678	95.57
194.897	21.85
195.116	81.24
195.335	21.85
195.555	-45.74
195.774	11.61
195.993	-31.4
196.212	-25.26
196.432	-60.07
196.651	-47.79
196.87	64.85
197.089	77.14
197.308	66.9
197.528	27.99
197.747	-35.5
197.966	52.56
198.185	56.66
198.404	17.75
198.623	-2.73
198.842	-43.69
199.062	9.56
199.281	50.52
199.5	-10.92
199.719	52.56
199.938	58.71
200.157	-10.92
200.376	-70.31
200.595	-31.4
200.814	38.23
201.033	42.32
201.252	36.18
201.471	34.13
201.69	-29.35
201.909	30.04
202.128	15.7
202.347	66.9
202.566	-27.31
202.785	1.37
203.004	11.61
203.223	77.14
203.442	11.61
203.661	-15.02
203.879	17.75
204.098	9.56
204.317	-37.55
204.536	79.19
204.755	-15.02
204.974	52.56
205.193	17.75
205.411	34.13
205.63	-17.07
205.849	-23.21
206.068	52.56
206.287	60.76
206.505	30.04
206.724	50.52
206.943	-33.45
207.162	56.66
207.381	21.85
207.599	56.66
207.818	64.85
208.037	34.13
208.255	19.8
208.474	3.41
208.693	21.85
208.911	1.37
209.13	13.65
209.349	38.23
209.567	99.67
209.786	38.23
210.005	40.28
210.223	-23.21
210.442	-0.68
210.661	25.94
210.879	5.46
211.098	34.13
211.316	58.71
211.535	1.37
211.753	-37.55
211.972	-23.21
212.191	-6.83
212.409	-23.21
212.628	-27.31
212.846	44.37
213.065	17.75
213.283	50.52
213.502	42.32
213.72	7.51
213.938	-15.02
214.157	11.61
214.375	-49.83
214.594	36.18
214.812	17.75
215.031	-10.92
215.249	-47.79
215.467	-17.07
215.686	21.85
215.904	-2.73
216.122	7.51
216.341	19.8
216.559	85.33
216.778	11.61
216.996	1.37
217.214	-37.55
217.432	1.37
217.651	15.7
217.869	19.8
218.087	50.52
218.306	44.37
218.524	124.24
218.742	3.41
218.96	-21.16
219.179	13.65
219.397	25.94
219.615	-51.88
219.833	54.61
220.051	1.37
220.27	89.43
220.488	3.41
220.706	-25.26
220.924	-10.92
221.142	-8.87
221.36	58.71
221.578	32.08
221.796	48.47
222.015	-10.92
222.233	7.51
222.451	30.04
222.669	40.28
222.887	-41.64
223.105	-53.93
223.323	27.99
223.541	11.61
223.759	-27.31
223.977	19.8
224.195	52.56
224.413	48.47
224.631	54.61
224.849	44.37
225.067	50.52
225.285	-19.11
225.503	11.61
225.721	44.37
225.939	7.51
226.157	-17.07
226.375	64.85
226.592	38.23
226.81	-45.74
227.028	-10.92
227.246	40.28
227.464	27.99
227.682	-37.55
227.9	5.46
228.117	-68.27
228.335	-4.78
228.553	-17.07
228.771	-43.69
228.989	-27.31
229.206	-27.31
229.424	30.04
229.642	-23.21
229.86	-98.99
230.077	27.99
230.295	-35.5
230.513	9.56
230.731	9.56
230.948	-45.74
231.166	44.37
231.384	25.94
231.601	-6.83
231.819	60.76
232.037	7.51
232.254	-6.83
232.472	-6.83
232.689	3.41
232.907	-53.93
233.125	38.23
233.342	-4.78
233.56	-51.88
233.777	-17.07
233.995	40.28
234.213	5.46
234.43	30.04
234.648	-72.36
234.865	52.56
235.083	42.32
235.3	-23.21
235.518	7.51
235.735	32.08
235.953	21.85
236.17	-4.78
236.388	34.13
236.605	23.89
236.822	111.96
237.04	-25.26
237.257	5.46
237.475	44.37
237.692	19.8
237.909	40.28
238.127	3.41
238.344	23.89
238.562	-12.97
238.779	-4.78
238.996	13.65
239.214	64.85
239.431	64.85
239.648	42.32
239.865	91.48
240.083	-23.21
240.3	5.46
240.517	-41.64
240.735	9.56
240.952	38.23
241.169	54.61
241.386	27.99
241.603	48.47
241.821	21.85
242.038	46.42
242.255	50.52
242.472	-4.78
242.689	-2.73
242.907	17.75
243.124	54.61
243.341	44.37
243.558	-4.78
243.775	-45.74
243.992	-19.11
244.209	42.32
244.426	-21.16
244.643	-17.07
244.86	19.8
245.078	-17.07
245.295	25.94
245.512	62.8
245.729	-17.07
245.946	-4.78
246.163	-29.35
246.38	38.23
246.597	-2.73
246.814	44.37
247.031	38.23
247.248	73.04
247.464	-15.02
247.681	13.65
247.898	93.52
248.115	60.76
248.332	60.76
248.549	5.46
248.766	50.52
248.983	50.52
249.2	73.04
249.417	87.38
249.633	-41.64
249.85	-10.92
250.067	30.04
250.284	48.47
250.501	42.32
250.717	64.85
250.934	-35.5
251.151	21.85
251.368	-76.46
251.585	-10.92
251.801	-25.26
252.018	75.09
252.235	34.13
252.451	-55.98
252.668	13.65
252.885	105.81
253.102	50.52
253.318	25.94
253.535	21.85
253.752	60.76
253.968	-88.75
254.185	7.51
254.401	7.51
254.618	3.41
254.835	-49.83
255.051	27.99
255.268	42.32
255.484	46.42
255.701	-8.87
255.917	23.89
256.134	30.04
256.351	38.23
256.567	-31.4
256.784	17.75
257	-62.12
257.217	-2.73
257.433	23.89
257.65	32.08
257.866	-10.92
258.082	36.18
258.299	54.61
258.515	-0.68
258.732	52.56
258.948	5.46
259.165	40.28
259.381	62.8
259.597	-35.5
259.814	83.28
260.03	23.89
260.246	48.47
260.463	38.23
260.679	89.43
260.895	25.94
261.112	-0.68
261.328	30.04
261.544	27.99
261.761	21.85
261.977	-4.78
262.193	-33.45
262.409	-31.4
262.626	17.75
262.842	-15.02
263.058	-37.55
263.274	-43.69
263.49	50.52
263.707	42.32
263.923	68.95
264.139	-23.21
264.355	1.37
264.571	17.75
264.787	9.56
265.004	42.32
265.22	-2.73
265.436	42.32
265.652	-2.73
265.868	25.94
266.084	-49.83
266.3	11.61
266.516	-23.21
266.732	11.61
266.948	32.08
267.164	15.7
267.38	58.71
267.596	79.19
267.812	54.61
268.028	-12.97
268.244	11.61
268.46	50.52
268.676	5.46
268.892	5.46
269.108	54.61
269.324	99.67
269.54	-23.21
269.756	73.04
269.972	-35.5
270.188	11.61
270.403	1.37
270.619	62.8
270.835	38.23
271.051	32.08
271.267	-51.88
271.483	-33.45
271.698	-45.74
271.914	40.28
272.13	-29.35
272.346	1.37
272.562	85.33
272.777	17.75
272.993	-12.97
273.209	-12.97
273.425	17.75
273.64	1.37
273.856	9.56
274.072	23.89
274.287	-4.78
274.503	17.75
274.719	-10.92
274.934	-39.59
275.15	48.47
275.366	-6.83
275.581	5.46
275.797	71
276.012	-80.55
276.228	1.37
276.444	-37.55
276.659	-12.97
276.875	50.52
277.09	-47.79
277.306	21.85
277.521	34.13
277.737	-21.16
277.952	89.43
278.168	48.47
278.383	-21.16
278.599	-29.35
278.814	58.71
279.03	5.46
279.245	9.56
279.461	-8.87
279.676	52.56
279.892	-33.45
280.107	19.8
280.322	5.46
280.538	-0.68
280.753	48.47
280.969	-10.92
281.184	15.7
281.399	17.75
281.615	-12.97
281.83	-27.31
282.045	-90.79
282.26	103.76
282.476	13.65
282.691	62.8
282.906	62.8
283.122	19.8
283.337	-45.74
283.552	58.71
283.767	3.41
283.983	15.7
284.198	38.23
284.413	34.13
284.628	-39.59
284.843	101.72
285.058	-12.97
285.274	66.9
285.489	-12.97
285.704	11.61
285.919	25.94
286.134	34.13
286.349	-37.55
286.564	-29.35
286.779	71
286.995	17.75
287.21	-8.87
287.425	58.71
287.64	-17.07
287.855	-31.4
288.07	-4.78
288.285	34.13
288.5	9.56
288.715	11.61
288.93	-19.11
289.145	15.7
289.36	46.42
289.575	-10.92
289.79	120.15
290.004	3.41
290.219	13.65
290.434	11.61
290.649	9.56
290.864	-29.35
291.079	-47.79
291.294	58.71
291.509	-8.87
291.724	17.75
291.938	13.65
292.153	42.32
292.368	-33.45
292.583	-4.78
292.798	17.75
293.012	-31.4
293.227	38.23
293.442	-6.83
293.657	-25.26
293.871	17.75
294.086	-35.5
294.301	23.89
294.516	11.61
294.73	60.76
294.945	-6.83
295.16	71
295.374	48.47
295.589	-6.83
295.804	-43.69
296.018	58.71
296.233	42.32
296.447	50.52
296.662	11.61
296.877	87.38
297.091	-15.02
297.306	-41.64
297.52	62.8
297.735	58.71
297.949	-10.92
298.164	42.32
298.378	-35.5
298.593	9.56
298.807	11.61
299.022	95.57
299.236	68.95
299.451	-8.87
299.665	54.61
299.88	-8.87
300.094	3.41
300.309	87.38
300.523	25.94
300.737	56.66
300.952	15.7
301.166	-62.12
301.381	44.37
301.595	34.13
301.809	83.28
302.024	17.75
302.238	-35.5
302.452	5.46
302.667	68.95
302.881	52.56
303.095	7.51
303.309	44.37
303.524	11.61
303.738	50.52
303.952	-41.64
304.166	64.85
304.381	7.51
304.595	42.32
304.809	-41.64
305.023	1.37
305.237	-25.26
305.452	120.15
305.666	3.41
305.88	13.65
306.094	32.08
306.308	50.52
306.522	-19.11
306.736	46.42
306.95	-51.88
307.164	25.94
307.379	-27.31
307.593	109.91
307.807	38.23
308.021	62.8
308.235	5.46
308.449	-33.45
308.663	-55.98
308.877	66.9
309.091	7.51
309.305	-10.92
309.519	-0.68
309.733	34.13
309.947	15.7
310.161	-0.68
310.374	52.56
310.588	46.42
310.802	27.99
311.016	25.94
311.23	-41.64
311.444	-19.11
311.658	-25.26
311.872	62.8
312.085	-33.45
312.299	25.94
312.513	13.65
312.727	25.94
312.941	13.65
313.154	27.99
313.368	5.46
313.582	52.56
313.796	-66.22
314.009	42.32
314.223	34.13
314.437	11.61
314.651	71
314.864	34.13
315.078	-4.78
315.292	99.67
315.505	23.89
315.719	5.46
315.933	56.66
316.146	27.99
316.36	83.28
316.573	38.23
316.787	-27.31
317.001	56.66
317.214	-4.78
317.428	42.32
317.641	56.66
317.855	19.8
318.068	-37.55
318.282	1.37
318.495	15.7
318.709	38.23
318.922	50.52
319.136	9.56
319.349	95.57
319.563	30.04
319.776	27.99
319.99	77.14
320.203	13.65
320.417	75.09
320.63	19.8
320.843	66.9
321.057	58.71
321.27	-43.69
321.483	50.52
321.697	71
321.91	21.85
322.124	-25.26
322.337	-27.31
322.55	52.56
322.763	23.89
322.977	50.52
323.19	30.04
323.403	-31.4
323.617	50.52
323.83	46.42
324.043	5.46
324.256	50.52
324.469	19.8
324.683	42.32
324.896	68.95
325.109	-19.11
325.322	-0.68
325.535	81.24
325.748	44.37
325.962	66.9
326.175	9.56
326.388	79.19
326.601	15.7
326.814	15.7
327.027	30.04
327.24	11.61
327.453	11.61
327.666	-23.21
327.879	-45.74
328.092	58.71
328.305	58.71
328.518	11.61
328.731	-27.31
328.944	-2.73
329.157	48.47
329.37	30.04
329.583	3.41
329.796	25.94
330.009	-4.78
330.222	38.23
330.435	60.76
330.648	21.85
330.861	40.28
331.073	77.14
331.286	52.56
331.499	83.28
331.712	-19.11
331.925	15.7
332.138	34.13
332.35	30.04
332.563	-10.92
332.776	5.46
332.989	-43.69
333.202	-6.83
333.414	89.43
333.627	-21.16
333.84	15.7
334.053	77.14
334.265	7.51
334.478	-12.97
334.691	62.8
334.903	13.65
335.116	-8.87
335.329	36.18
335.541	40.28
335.754	36.18
335.966	46.42
336.179	-0.68
336.392	23.89
336.604	23.89
336.817	30.04
337.029	71
337.242	-41.64
337.454	17.75
337.667	-19.11
337.88	95.57
338.092	23.89
338.305	36.18
338.517	101.72
338.729	93.52
338.942	38.23
339.154	38.23
339.367	-10.92
339.579	-33.45
339.792	85.33
340.004	-25.26
340.217	109.91
340.429	23.89
340.641	-39.59
340.854	-10.92
341.066	-2.73
341.278	38.23
341.491	91.48
341.703	118.1
341.915	-31.4
342.128	75.09
342.34	-17.07
342.552	1.37
342.764	-8.87
342.977	30.04
343.189	95.57
343.401	36.18
343.613	-15.02
343.826	-6.83
344.038	-47.79
344.25	81.24
344.462	-25.26
344.674	46.42
344.886	52.56
345.099	-10.92
345.311	87.38
345.523	81.24
345.735	36.18
345.947	19.8
346.159	99.67
346.371	21.85
346.583	13.65
346.795	126.29
347.007	-8.87
347.219	21.85
347.431	-10.92
347.643	32.08
347.855	58.71
348.067	77.14
348.279	-4.78
348.491	-4.78
348.703	79.19
348.915	89.43
349.127	-33.45
349.339	103.76
349.551	3.41
349.763	-15.02
349.975	11.61
350.187	36.18
350.399	58.71
350.61	11.61
350.822	25.94
351.034	64.85
351.246	-29.35
351.458	-12.97
351.669	-15.02
351.881	34.13
352.093	13.65
352.305	-17.07
352.517	91.48
352.728	52.56
352.94	-21.16
353.152	99.67
353.363	40.28
353.575	-2.73
353.787	23.89
353.999	52.56
354.21	34.13
354.422	58.71
354.633	-29.35
354.845	9.56
355.057	27.99
355.268	44.37
355.48	52.56
355.692	-0.68
355.903	13.65
356.115	44.37
356.326	-39.59
356.538	-2.73
356.749	3.41
356.961	-4.78
357.172	-0.68
357.384	68.95
357.595	1.37
357.807	44.37
358.018	5.46
358.23	38.23
358.441	105.81
358.653	1.37
358.864	-4.78
359.075	-51.88
359.287	-0.68
359.498	83.28
359.709	64.85
359.921	93.52
360.132	30.04
360.344	71
360.555	-47.79
360.766	87.38
360.977	15.7
361.189	58.71
361.4	-21.16
361.611	50.52
361.823	42.32
362.034	30.04
362.245	64.85
362.456	101.72
362.667	50.52
362.879	30.04
363.09	11.61
363.301	62.8
363.512	-39.59
363.723	3.41
363.935	-35.5
364.146	21.85
364.357	-0.68
364.568	75.09
364.779	-12.97
364.99	40.28
365.201	21.85
365.412	-19.11
365.623	-4.78
365.834	17.75
366.045	48.47
366.256	34.13
366.467	64.85
366.678	91.48
366.889	34.13
367.1	58.71
367.311	42.32
367.522	60.76
367.733	50.52
367.944	66.9
368.155	32.08
368.366	7.51
368.577	-21.16
368.788	58.71
368.999	48.47
369.209	21.85
369.42	103.76
369.631	-4.78
369.842	68.95
370.053	42.32
370.264	75.09
370.474	58.71
370.685	11.61
370.896	38.23
371.107	-15.02
371.317	-25.26
371.528	27.99
371.739	107.86
371.95	42.32
372.16	46.42
372.371	-8.87
372.582	23.89
372.792	66.9
373.003	-25.26
373.214	58.71
373.424	44.37
373.635	89.43
373.846	118.1
374.056	71
374.267	-21.16
374.477	60.76
374.688	21.85
374.898	-27.31
375.109	13.65
375.319	-4.78
375.53	21.85
375.74	-27.31
375.951	36.18
376.161	44.37
376.372	101.72
376.582	34.13
376.793	81.24
377.003	-2.73
377.214	-10.92
377.424	7.51
377.635	9.56
377.845	64.85
378.055	-10.92
378.266	3.41
378.476	-2.73
378.686	44.37
378.897	99.67
379.107	-37.55
379.317	21.85
379.528	-43.69
379.738	75.09
379.948	34.13
380.158	-2.73
380.369	58.71
380.579	68.95
380.789	64.85
380.999	85.33
381.21	-41.64
381.42	83.28
381.63	52.56
381.84	1.37
382.05	109.91
382.261	3.41
382.471	11.61
382.681	25.94
382.891	58.71
383.101	66.9
383.311	38.23
383.521	21.85
383.731	-98.99
383.941	19.8
384.151	-0.68
384.361	27.99
384.571	27.99
384.781	77.14
384.991	93.52
385.201	44.37
385.411	32.08
385.621	17.75
385.831	-37.55
386.041	58.71
386.251	27.99
386.461	46.42
386.671	25.94
386.881	17.75
387.091	27.99
387.301	54.61
387.511	42.32
387.72	107.86
387.93	-17.07
388.14	-41.64
388.35	46.42
388.56	9.56
388.769	19.8
388.979	21.85
389.189	27.99
389.399	77.14
389.609	23.89
389.818	58.71
390.028	27.99
390.238	38.23
390.447	30.04
390.657	52.56
390.867	25.94
391.076	58.71
391.286	-33.45
391.496	44.37
391.705	79.19
391.915	19.8
392.125	34.13
392.334	120.15
392.544	30.04
392.753	21.85
392.963	36.18
393.172	66.9
393.382	-12.97
393.591	99.67
393.801	27.99
394.01	13.65
394.22	30.04
394.429	-10.92
394.639	32.08
394.848	-15.02
395.058	66.9
395.267	34.13
395.477	60.76
395.686	21.85
395.895	-23.21
396.105	124.24
396.314	68.95
396.524	89.43
396.733	21.85
396.942	101.72
397.152	44.37
397.361	114
397.57	52.56
397.78	52.56
397.989	30.04
398.198	42.32
398.407	71
398.617	-25.26
398.826	11.61
399.035	40.28
399.244	81.24
399.453	71
399.663	46.42
399.872	40.28
400.081	34.13
400.29	38.23
400.499	15.7
400.708	50.52
400.917	114
401.127	1.37
401.336	34.13
401.545	124.24
401.754	44.37
401.963	81.24
402.172	7.51
402.381	83.28
402.59	71
402.799	77.14
403.008	99.67
403.217	99.67
403.426	62.8
403.635	64.85
403.844	93.52
404.053	66.9
404.262	148.82
404.471	154.96
404.68	79.19
404.888	109.91
405.097	89.43
405.306	132.44
405.515	27.99
405.724	93.52
405.933	103.76
406.142	73.04
406.35	107.86
406.559	34.13
406.768	134.48
406.977	101.72
407.185	183.63
407.394	99.67
407.603	181.59
407.812	159.06
408.02	114
408.229	114
408.438	116.05
408.646	103.76
408.855	179.54
409.064	195.92
409.272	185.68
409.481	197.97
409.69	118.1
409.898	226.64
410.107	216.4
410.315	183.63
410.524	191.83
410.733	273.75
410.941	306.51
411.15	216.4
411.358	224.59
411.567	240.98
411.775	259.41
411.984	232.79
412.192	267.6
412.401	220.5
412.609	271.7
412.818	322.9
413.026	281.94
413.234	322.9
413.443	294.22
413.651	286.03
413.86	300.37
414.068	429.39
414.276	363.86
414.485	396.62
414.693	437.58
414.901	472.4
415.11	410.96
415.318	413.01
415.526	353.62
415.734	511.31
415.943	437.58
416.151	482.64
416.359	527.69
416.567	564.56
416.776	458.06
416.984	597.32
417.192	593.23
417.4	564.56
417.608	544.08
417.817	615.76
418.025	691.53
418.233	730.44
418.441	666.96
418.649	707.91
418.857	787.79
419.065	865.61
419.273	777.55
419.481	849.22
419.689	820.55
419.897	941.38
420.105	861.51
420.313	914.76
420.521	1013.06
420.729	951.62
420.937	978.25
421.145	1195.33
421.353	1047.88
421.561	1084.74
421.769	1174.85
421.977	1269.06
422.185	1135.94
422.393	1340.74
422.601	1439.04
422.809	1406.27
423.017	1344.83
423.224	1543.49
423.432	1568.06
423.64	1643.84
423.848	1670.46
424.056	1551.68
424.263	1703.23
424.471	1676.6
424.679	1795.39
424.887	1705.28
425.094	1965.37
425.302	1934.65
425.51	1983.8
425.718	2098.49
425.925	2114.87
426.133	2161.97
426.341	2334
426.548	2327.86
426.756	2405.68
426.964	2424.11
427.171	2477.36
427.379	2614.57
427.586	2565.42
427.794	2739.5
428.001	2843.95
428.209	2981.16
428.417	3069.22
428.624	3261.73
428.832	3177.76
429.039	3118.37
429.247	3009.83
429.454	3423.52
429.662	3767.58
429.869	3317.03
430.076	3788.06
430.284	3534.11
430.491	3728.67
430.699	3937.56
430.906	3855.64
431.114	3955.99
431.321	4136.21
431.528	4244.76
431.736	4543.76
431.943	4572.43
432.15	4506.9
432.358	4640.01
432.565	4826.38
432.772	4936.97
432.979	5154.05
433.187	5258.5
433.394	5233.93
433.601	5637.38
433.808	5655.81
434.016	5694.72
434.223	5817.6
434.43	6202.61
434.637	5977.34
434.844	6542.58
435.052	6468.85
435.259	6546.67
435.466	6581.49
435.673	6604.02
435.88	6984.94
436.087	7394.53
436.294	7308.52
436.501	7159.02
436.708	7464.16
436.915	7750.88
437.122	8006.88
437.329	8101.08
437.537	8193.24
437.743	8436.95
437.95	8183
438.157	8893.65
438.364	8983.76
438.571	8979.66
438.778	9075.91
438.985	9981.12
439.192	9524.42
439.399	9749.7
439.606	9538.76
439.813	10169.53
440.02	10779.82
440.227	10446.01
440.433	10392.76
440.64	10798.26
440.847	10636.47
441.054	11009.2
441.261	11558.05
441.467	11611.3
441.674	11797.67
441.881	12149.92
442.088	12197.02
442.294	12160.16
442.501	12430.49
442.708	12756.11
442.914	12962.96
443.121	13669.51
443.328	13356.17
443.534	14156.93
443.741	13722.76
443.948	13681.8
444.154	14718.07
444.361	14625.91
444.568	14900.34
444.774	14777.46
444.981	14636.15
445.187	15387.75
445.394	15993.95
445.6	15541.35
445.807	17189.97
446.013	16516.19
446.22	16581.72
446.426	17661
446.633	17718.34
446.839	18371.65
447.046	17376.33
447.252	18342.97
447.459	18209.86
447.665	18351.17
447.871	19254.32
448.078	20223.01
448.284	19213.36
448.491	19573.8
448.697	20327.46
448.903	21158.93
449.11	20823.06
449.316	20218.91
449.522	20917.27
449.728	21246.99
449.935	21406.73
450.141	21627.92
450.347	22060.04
450.553	21353.49
450.76	21840.9
450.966	22074.37
451.172	22483.97
451.378	22940.66
451.584	22449.15
451.791	22823.93
451.997	22733.82
452.203	23192.56
452.409	23346.16
452.615	22938.62
452.821	22379.52
453.027	22068.23
453.233	23589.87
453.44	22408.19
453.646	22356.99
453.852	22801.4
454.058	23028.73
454.264	22316.03
454.47	22766.59
454.676	22191.11
454.882	23147.51
455.088	21042.2
455.294	21439.5
455.5	21718.03
455.705	22098.95
455.911	21240.85
456.117	21050.39
456.323	20481.05
456.529	19211.31
456.735	20368.41
456.941	19831.85
457.147	19260.46
457.352	18766.9
457.558	18654.26
457.764	18764.85
457.97	18474.04
458.176	18146.37
458.381	17974.34
458.587	17067.09
458.793	17335.37
458.999	16190.56
459.204	17476.68
459.41	16913.49
459.616	15699.05
459.821	15813.73
460.027	16057.44
460.233	15336.56
460.438	14666.87
460.644	14816.37
460.85	14238.84
461.055	14048.38
461.261	13698.18
461.466	13147.28
461.672	12571.8
461.878	13458.57
462.083	12469.4
462.289	12430.49
462.494	12371.1
462.7	11717.79
462.905	11502.76
463.111	11734.18
463.316	11920.54
463.522	11695.27
463.727	11740.32
463.932	11701.41
464.138	11578.53
464.343	11463.85
464.549	11259.05
464.754	11682.98
464.959	11533.48
465.165	11392.17
465.37	11013.29
465.575	10603.7
465.781	11207.85
465.986	11265.19
466.191	10996.91
466.397	10597.56
466.602	10288.31
466.807	10828.98
467.012	10620.08
467.218	10255.54
467.423	10271.93
467.628	10489.01
467.833	10964.14
468.038	10405.05
468.244	10290.36
468.449	10622.13
468.654	10140.86
468.859	10126.52
469.064	10097.85
469.269	9759.94
469.474	9669.83
469.679	9956.54
469.885	9616.58
470.09	9958.59
470.295	9790.66
470.5	9604.29
470.705	9602.24
470.91	9362.63
471.115	9352.39
471.32	9536.71
471.525	9432.26
471.73	9082.06
471.935	9319.62
472.139	8852.69
472.344	8914.13
472.549	8795.34
472.754	8690.9
472.959	8643.79
473.164	8336.6
473.369	8256.73
473.574	8744.14
473.778	8357.08
473.983	8289.49
474.188	8305.88
474.393	8131.8
474.598	7865.57
474.802	7832.8
475.007	8031.45
475.212	7980.25
475.417	7572.71
475.621	7636.19
475.826	7525.6
476.031	7464.16
476.235	7255.27
476.44	7285.99
476.645	7154.92
476.849	7177.45
477.054	7302.37
477.259	7017.71
477.463	7087.34
477.668	6909.16
477.872	7040.23
478.077	6939.88
478.282	6681.84
478.486	6741.23
478.691	6585.58
478.895	6561.01
479.1	6483.19
479.304	6597.87
479.509	6350.07
479.713	6280.44
479.918	6143.22
480.122	6151.42
480.326	6417.65
480.531	6450.42
480.735	6223.09
480.94	6257.91
481.144	6618.35
481.348	6042.87
481.553	6210.81
481.757	5948.67
481.961	6212.85
482.166	6270.2
482.37	6268.15
482.574	5954.81
482.778	6065.4
482.983	6221.05
483.187	6067.45
483.391	6186.23
483.595	6137.08
483.8	6087.93
484.004	6163.7
484.208	6053.11
484.412	6071.54
484.616	6114.55
484.821	6114.55
485.025	5932.28
485.229	6092.02
485.433	6098.17
485.637	6219
485.841	6110.46
486.045	6030.59
486.249	6104.31
486.453	6143.22
486.657	6165.75
486.861	6184.18
487.065	5936.38
487.269	6196.47
487.473	6067.45
487.677	6350.07
487.881	6282.49
488.085	6184.18
488.289	6132.98
488.493	6124.79
488.697	6251.77
488.901	6284.53
489.105	6178.04
489.309	6419.7
489.512	6477.04
489.716	6474.99
489.92	6444.27
490.124	6370.55
490.328	6423.8
490.531	6536.43
490.735	6505.71
490.939	6466.8
491.143	6503.67
491.346	6391.03
491.55	6620.4
491.754	6653.17
491.958	6659.31
492.161	6737.13
492.365	6788.33
492.569	6712.56
492.772	6808.81
492.976	6950.12
493.18	6946.03
493.383	7048.43
493.587	6943.98
493.79	7152.87
493.994	7128.3
494.197	7126.25
494.401	7214.31
494.605	7263.46
494.808	7386.34
495.012	7390.44
495.215	7386.34
495.419	7673.06
495.622	7548.13
495.825	7668.96
496.029	7726.3
496.232	7918.81
496.436	7871.71
496.639	8053.98
496.843	8039.64
497.046	8291.54
497.249	8375.51
497.453	8299.73
497.656	8551.63
497.859	8559.83
498.063	8645.84
498.266	8656.08
498.469	8807.63
498.673	8932.56
498.876	9106.63
499.079	9202.89
499.282	9075.91
499.485	9422.02
499.689	9555.14
499.892	9518.28
500.095	9739.46
500.298	9903.29
500.501	9972.93
500.705	10044.6
500.908	10347.7
501.111	10407.09
501.314	10654.9
501.517	10509.49
501.72	11060.4
501.923	10728.63
502.126	11279.53
502.329	11275.43
502.532	11408.55
502.735	11533.48
502.938	11517.09
503.141	11871.39
503.344	11705.51
503.547	12104.86
503.75	12264.6
503.953	12166.3
504.156	12700.82
504.359	12582.04
504.562	13003.92
504.765	13190.28
504.968	13143.18
505.17	13462.66
505.373	13370.51
505.576	14001.28
505.779	13941.89
505.982	14019.71
506.185	14382.2
506.387	14423.16
506.59	14584.95
506.793	14697.59
506.996	14834.8
507.198	15176.81
507.401	15436.91
507.604	15395.95
507.807	15768.68
508.009	15928.42
508.212	16051.3
508.415	16344.16
508.617	16630.87
508.82	16563.29
509.022	16608.34
509.225	17167.44
509.428	17032.27
509.63	17409.1
509.833	17667.14
510.035	18015.3
510.238	18064.45
510.44	18281.53
510.643	18502.72
510.845	18883.64
511.048	18547.77
511.25	19010.61
511.453	18877.49
511.655	20231.2
511.858	19715.11
512.06	19932.2
512.262	20329.5
512.465	20182.05
512.667	20612.12
512.87	20935.7
513.072	20782.1
513.274	21277.71
513.477	21715.98
513.679	21875.72
513.881	22199.3
514.084	22199.3
514.286	22359.04
514.488	22242.31
514.69	23075.83
514.893	23145.46
515.095	23389.17
515.297	23473.14
515.499	23815.15
515.701	24228.84
515.904	24579.04
516.106	24351.71
516.308	24869.85
516.51	24935.38
516.712	25281.49
516.914	25476.05
517.116	25789.39
517.318	25607.12
517.52	26264.52
517.722	26328
517.925	27079.61
518.127	27220.92
518.329	26934.2
518.531	27446.19
518.733	27556.78
518.935	27714.48
519.136	28113.83
519.338	28464.03
519.54	28390.31
519.742	28922.78
519.944	29021.08
520.146	29543.31
520.348	29457.3
520.55	29729.68
520.752	29973.39
520.954	30444.42
521.155	30120.84
521.357	31017.85
521.559	30911.36
521.761	31470.45
521.963	31259.51
522.164	31843.18
522.366	31560.56
522.568	32027.5
522.77	31994.73
522.971	32736.1
523.173	32494.44
523.375	33166.17
523.576	33014.62
523.778	33397.59
523.98	33467.22
524.181	33661.78
524.383	33520.47
524.584	34052.94
524.786	34040.65
524.988	33999.69
525.189	34710.34
525.391	34908.99
525.592	34890.56
525.794	35025.73
525.995	34857.79
526.197	35091.26
526.398	35275.58
526.6	35466.04
526.801	35881.78
527.003	35875.63
527.204	35857.2
527.406	36213.55
527.607	36174.64
527.808	36385.58
528.01	35908.4
528.211	36817.7
528.412	36922.15
528.614	36893.47
528.815	37215.01
529.016	37522.2
529.218	37030.69
529.419	37389.08
529.62	37384.99
529.822	37673.75
530.023	37231.39
530.224	37571.35
530.425	37544.73
530.626	37434.14
530.828	37587.74
531.029	38513.42
531.23	37933.84
531.431	38136.59
531.632	37962.51
531.833	38327.05
532.035	38316.81
532.236	38271.76
532.437	38261.52
532.638	38337.29
532.839	38963.97
533.04	38748.93
533.241	38656.78
533.442	39197.44
533.643	38865.67
533.844	38847.24
534.045	38701.83
534.246	38607.62
534.447	38904.58
534.648	38892.29
534.849	39019.27
535.05	38675.21
535.251	38875.91
535.451	39322.37
535.652	39019.27
535.853	39207.68
536.054	39166.72
536.255	39222.01
536.456	38916.87
536.657	39744.25
536.857	39275.26
537.058	39418.62
537.259	39598.84
537.46	39426.81
537.66	39305.98
537.861	39379.71
538.062	39439.1
538.263	39734.01
538.463	39512.83
538.664	39461.63
538.865	39801.59
539.065	39848.69
539.266	39250.69
539.466	39854.84
539.667	39373.56
539.868	39723.77
540.068	39437.05
540.269	39809.78
540.469	40258.29
540.67	39811.83
540.87	39901.94
541.071	39817.97
541.271	39852.79
541.472	40035.06
541.672	39650.04
541.873	39789.3
542.073	39428.86
542.274	40184.56
542.474	39961.33
542.675	39463.68
542.875	39928.56
543.075	39973.62
543.276	39443.2
543.476	40211.18
543.676	40112.88
543.877	40112.88
544.077	40202.99
544.277	39770.87
544.478	39998.19
544.678	40088.31
544.878	40209.14
545.078	40321.77
545.279	40235.76
545.479	40147.7
545.679	40387.31
545.879	40043.25
546.079	40147.7
546.28	40035.06
546.48	40094.45
546.68	39924.47
546.88	40055.54
547.08	40133.36
547.28	40002.29
547.48	39623.42
547.68	39762.68
547.88	39797.49
548.081	40194.8
548.281	40014.58
548.481	39658.23
548.681	40329.97
548.881	40184.56
549.081	40262.38
549.28	40235.76
549.48	40323.82
549.68	40055.54
549.88	40174.32
550.08	40170.22
550.28	39957.24
550.48	40096.5
550.68	40379.12
550.88	39807.73
551.08	39955.19
551.279	39901.94
551.479	39723.77
551.679	40133.36
551.879	40350.45
552.079	40305.39
552.278	39725.82
552.478	40088.31
552.678	39768.82
552.878	40123.12
553.077	40164.08
553.277	39858.93
553.477	40626.92
553.676	40045.3
553.876	39871.22
554.076	39639.8
554.275	39559.93
554.475	39566.07
554.674	39924.47
554.874	39813.88
555.074	39869.17
555.273	40002.29
555.473	40082.16
555.672	39633.66
555.872	39854.84
556.071	40217.33
556.271	40157.94
556.47	39752.44
556.67	39703.29
556.869	39516.92
557.068	39641.85
557.268	39774.97
557.467	39533.31
557.667	40004.34
557.866	40014.58
558.065	39891.7
558.265	39131.9
558.464	39269.12
558.663	40164.08
558.863	39199.49
559.062	40082.16
559.261	39428.86
559.461	39977.72
559.66	39187.2
559.859	39674.62
560.058	39199.49
560.258	39613.18
560.457	38818.56
560.656	39385.85
560.855	39064.32
561.054	39944.95
561.253	39201.54
561.453	39211.77
561.652	39459.58
561.851	39502.59
562.05	39338.75
562.249	39322.37
562.448	39545.59
562.647	39656.18
562.846	39418.62
563.045	39117.57
563.244	38839.04
563.443	39396.09
563.642	39334.65
563.841	39176.96
564.04	39011.07
564.239	39252.73
564.438	38771.46
564.637	39326.46
564.836	39424.76
565.035	38957.83
565.234	39095.04
565.432	39006.98
565.631	39324.41
565.83	39013.12
566.029	38959.87
566.228	38849.28
566.427	38834.95
566.625	38634.25
566.824	38437.64
567.023	38855.43
567.222	38632.2
567.42	38892.29
567.619	38736.65
567.818	38902.53
568.016	38456.07
568.215	38832.9
568.414	38619.91
568.612	38841.09
568.811	38353.68
569.01	38595.34
569.208	38329.1
569.407	38884.1
569.605	38034.19
569.804	38730.5
570.002	38247.18
570.201	38576.9
570.4	37982.99
570.598	38171.41
570.797	37901.07
570.995	38497.03
571.193	37735.19
571.392	38458.12
571.59	37772.05
571.789	37956.37
571.987	38093.58
572.186	37763.86
572.384	37980.95
572.582	37784.34
572.781	38079.25
572.979	37540.63
573.177	37497.63
573.376	37794.58
573.574	37692.18
573.772	37569.3
573.971	37174.05
574.169	37155.61
574.367	36961.06
574.565	37153.57
574.763	37051.17
574.962	36956.96
575.16	36875.04
575.358	37194.53
575.556	36346.67
575.754	37235.49
575.952	36297.52
576.151	37120.8
576.349	36633.38
576.547	36242.22
576.745	36492.07
576.943	36326.19
577.141	36938.53
577.339	36490.02
577.537	36399.91
577.735	36260.65
577.933	35935.02
578.131	36363.05
578.329	35777.33
578.527	36131.63
578.725	35892.02
578.923	36188.97
579.121	35486.52
579.319	35363.64
579.516	35914.55
579.714	35662.65
579.912	35463.99
580.11	35255.1
580.308	35705.65
580.506	35455.8
580.704	35033.92
580.901	35281.72
581.099	35273.53
581.297	35050.3
581.495	34933.57
581.692	35072.83
581.89	34644.8
582.088	34956.1
582.285	34599.75
582.483	35355.45
582.681	34800.45
582.878	34612.04
583.076	34233.16
583.274	34517.83
583.471	33723.22
583.669	34184.01
583.866	34243.4
584.064	34108.24
584.262	33753.94
584.459	33985.36
584.657	33649.49
584.854	34149.2
585.052	33336.15
585.249	34028.37
585.447	33586
585.644	33276.76
585.841	33629.01
586.039	33561.43
586.236	33151.84
586.434	33287
586.631	33026.91
586.828	33180.51
587.026	32930.65
587.223	33127.26
587.42	32834.4
587.618	32820.06
587.815	32625.51
588.012	32537.44
588.21	32668.51
588.407	32578.4
588.604	32312.17
588.801	32058.22
588.999	32385.9
589.196	31982.45
589.393	31837.04
589.59	31779.7
589.787	31789.94
589.984	32045.93
590.182	31615.86
590.379	31716.21
590.576	31572.85
590.773	31503.22
590.97	31343.48
591.167	31296.38
591.364	30925.69
591.561	31142.78
591.758	30972.8
591.955	30784.38
592.152	31368.05
592.349	30645.12
592.546	30825.34
592.743	30847.87
592.94	30669.7
593.137	30409.61
593.334	30704.51
593.531	30385.03
593.727	30520.2
593.924	30292.87
594.121	30204.81
594.318	29993.87
594.515	29709.2
594.712	29860.75
594.908	29789.07
595.105	29512.6
595.302	29365.14
595.499	29735.82
595.696	29608.85
595.892	29426.58
596.089	29580.18
596.286	29416.34
596.482	29287.32
596.679	29117.34
596.876	29109.15
597.072	28930.97
597.269	29053.85
597.466	28564.39
597.662	28687.26
597.859	28674.98
598.055	28869.53
598.252	28386.21
598.448	28545.95
598.645	28314.53
598.841	28056.49
599.038	28425.12
599.234	28306.34
599.431	27913.13
599.627	27689.9
599.824	28189.61
600.02	27808.69
600.217	27952.04
600.413	27704.24
600.609	27347.89
600.806	27378.61
601.002	27276.21
601.198	27268.02
601.395	27022.26
601.591	27167.67
601.787	27218.87
601.984	26760.12
602.18	27192.25
602.376	27032.5
602.572	26723.26
602.769	26858.43
602.965	26715.07
603.161	26725.31
603.357	26381.25
603.553	26319.81
603.75	26334.15
603.946	26305.48
604.142	26266.56
604.338	25662.41
604.534	26084.3
604.73	25949.13
604.926	25971.66
605.122	25906.12
605.318	25717.71
605.514	25830.35
605.71	25549.78
605.906	25330.64
606.102	25508.82
606.298	25390.03
606.494	25238.48
606.69	25367.51
606.886	25662.41
607.082	24697.82
607.278	25187.28
607.474	24660.96
607.67	25099.22
607.866	24779.74
608.062	25039.83
608.257	24706.01
608.453	25142.23
608.649	24761.31
608.845	24495.07
609.041	24646.62
609.236	24732.64
609.432	24488.93
609.628	24626.14
609.824	24357.86
610.019	24392.67
610.215	24515.55
610.411	24566.75
610.606	24411.1
610.802	24343.52
610.998	24138.72
611.193	24327.14
611.389	24034.28
611.584	23856.11
611.78	23495.66
611.976	23860.2
612.171	24013.8
612.367	23833.58
612.562	23368.69
612.758	23466.99
612.953	23915.5
613.149	23839.72
613.344	23475.18
613.539	23763.95
613.735	23174.13
613.93	23436.27
614.126	23522.29
614.321	23538.67
614.517	23460.85
614.712	23323.63
614.907	23301.11
615.103	23223.28
615.298	23024.63
615.493	23165.94
615.688	22918.14
615.884	23028.73
616.079	22666.24
616.274	22868.98
616.47	22832.12
616.665	22825.98
616.86	22893.56
617.055	22356.99
617.25	22924.28
617.445	22979.57
617.641	22467.58
617.836	22524.93
618.031	22156.29
618.226	22408.19
618.421	22254.59
618.616	22522.88
618.811	21634.06
619.006	22432.77
619.201	21650.44
619.396	21775.37
619.591	21384.21
619.786	21912.58
619.981	21527.56
620.176	21558.28
620.371	21457.93
620.566	21398.54
620.761	21267.47
620.956	21324.82
621.151	21050.39
621.346	21036.05
621.541	20726.81
621.735	21083.16
621.93	20605.98
622.125	20474.91
622.32	20446.24
622.515	20311.07
622.709	20296.74
622.904	20159.52
623.099	20014.12
623.294	20147.23
623.488	19827.75
623.683	19924.01
623.878	19569.71
624.072	19555.37
624.267	19608.62
624.462	19530.8
624.656	19229.74
624.851	19186.74
625.046	19127.35
625.24	18875.45
625.435	18678.84
625.629	18840.63
625.824	18670.65
626.018	18703.42
626.213	18109.51
626.407	18371.65
626.602	18228.29
626.796	18519.1
626.991	18369.6
627.185	18009.15
627.38	17790.02
627.574	17888.32
627.768	17544.27
627.963	17591.37
628.157	17374.28
628.352	17656.9
628.546	17400.91
628.74	17556.55
628.935	17187.92
629.129	17110.1
629.323	16985.17
629.517	17030.23
629.712	16622.68
629.906	16911.44
630.1	16428.12
630.294	16770.13
630.489	16555.1
630.683	16671.83
630.877	16266.33
631.071	16247.9
631.265	16153.69
631.459	16229.47
631.653	15877.22
631.848	16053.34
632.042	15934.56
632.236	15780.96
632.43	15613.03
632.624	15879.27
632.818	15449.19
633.012	15338.6
633.206	15344.75
633.4	15254.64
633.594	15328.36
633.788	15158.38
633.982	14949.49
634.176	14797.94
634.369	14773.36
634.563	14668.92
634.757	14689.4
634.951	14728.31
635.145	14597.24
635.339	14541.94
635.533	14457.98
635.726	14570.61
635.92	14191.74
636.114	14345.34
636.308	14343.29
636.501	14255.23
636.695	14320.76
636.889	14204.03
637.083	13827.2
637.276	13870.21
637.47	14060.67
637.664	13827.2
637.857	13628.55
638.051	13606.02
638.244	13632.65
638.438	13499.53
638.632	13358.22
638.825	13425.8
639.019	13198.48
639.212	13218.96
639.406	13003.92
639.599	13016.21
639.793	12967.06
639.986	12719.25
640.18	12858.51
640.373	12752.02
640.567	12713.11
640.76	12684.44
640.954	12493.97
641.147	12547.22
641.34	12399.77
641.534	12391.58
641.727	12297.37
641.92	12354.71
642.114	11818.14
642.307	12221.59
642.5	11988.13
642.694	11869.34
642.887	11928.74
643.08	11977.89
643.273	12016.8
643.467	11834.53
643.66	11596.96
643.853	11648.16
644.046	11330.73
644.239	11510.95
644.432	11308.2
644.626	11443.37
644.819	11300.01
645.012	11048.11
645.205	11195.56
645.398	11164.84
645.591	10871.98
645.784	11005.1
645.977	10699.95
646.17	10753.2
646.363	10841.26
646.556	10634.42
646.749	10491.06
646.942	10722.48
647.135	10532.02
647.328	10372.28
647.521	10388.66
647.714	10085.56
647.907	10202.3
648.099	10208.44
648.292	9999.55
648.485	10083.52
648.678	9807.04
648.871	9794.75
649.064	9790.66
649.256	9891.01
649.449	9792.7
649.642	9745.6
649.835	9555.14
650.027	9497.8
650.22	9606.34
650.413	9311.43
650.605	9487.56
650.798	9417.93
650.991	9258.18
651.183	9499.84
651.376	9075.91
651.568	9116.87
651.761	9067.72
651.954	9163.98
652.146	9047.24
652.339	9045.2
652.531	8971.47
652.724	8957.13
652.916	8670.42
653.109	8719.57
653.301	8877.26
653.494	8727.76
653.686	8588.5
653.879	8606.93
654.071	8703.18
654.263	8371.41
654.456	8279.25
654.648	8318.17
654.84	8322.26
655.033	8139.99
655.225	8355.03
655.417	8246.49
655.61	8189.14
655.802	8019.16
655.994	7924.96
656.186	7978.2
656.379	7908.57
656.571	7886.04
656.763	7740.64
656.955	7685.34
657.148	7892.19
657.34	7730.4
657.532	7453.92
657.724	7537.89
657.916	7531.75
658.108	7515.36
658.3	7529.7
658.492	7308.52
658.684	7247.08
658.876	7345.38
659.068	7249.13
659.26	7111.91
659.452	7390.44
659.644	6997.23
659.836	6919.4
660.028	7044.33
660.22	6851.82
660.412	7013.61
660.604	6776.05
660.796	6774
660.988	6722.8
661.18	6634.74
661.372	6687.98
661.563	6696.18
661.755	6608.11
661.947	6579.44
662.139	6587.63
662.331	6464.75
662.522	6327.54
662.714	6386.93
662.906	6231.29
663.097	6198.52
663.289	6223.09
663.481	6272.25
663.673	6333.68
663.864	6028.54
664.056	6073.59
664.247	5922.04
664.439	5774.59
664.631	6061.3
664.822	5840.12
665.014	5917.95
665.205	5711.1
665.397	5897.47
665.588	5770.49
665.78	5625.09
665.971	5901.56
666.163	5651.71
666.354	5467.39
666.546	5664
666.737	5315.84
666.929	5326.08
667.12	5295.36
667.311	5422.34
667.503	5330.18
667.694	5303.56
667.885	5289.22
668.077	5295.36
668.268	5217.54
668.459	5330.18
668.651	5176.58
668.842	5088.52
669.033	5135.62
669.224	5002.51
669.416	5018.89
669.607	5074.18
669.798	4990.22
669.989	4840.72
670.18	4881.67
670.371	4908.3
670.563	4928.78
670.754	4838.67
670.945	4713.74
671.136	4730.13
671.327	4556.05
671.518	4734.22
671.709	4779.28
671.9	4637.97
672.091	4437.27
672.282	4597.01
672.473	4441.36
672.664	4687.12
672.855	4351.25
673.046	4502.8
673.237	4449.55
673.428	4476.18
673.619	4338.96
673.809	4400.4
674	4418.83
674.191	4318.48
674.382	4246.8
674.573	4228.37
674.764	4193.56
674.954	4351.25
675.145	4302.1
675.336	4134.17
675.527	4113.69
675.717	4214.04
675.908	4060.44
676.099	4068.63
676.289	4052.25
676.48	4117.78
676.671	3933.47
676.861	4168.98
677.052	3958.04
677.243	3826.97
677.433	4074.78
677.624	4050.2
677.814	3955.99
678.005	3863.83
678.195	3810.59
678.386	3822.88
678.576	3702.04
678.767	3747.1
678.957	3749.15
679.148	3908.89
679.338	3708.19
679.529	3722.52
679.719	3730.72
679.909	3781.92
680.1	3659.04
680.29	3648.8
680.481	3609.89
680.671	3624.22
680.861	3597.6
681.052	3679.52
681.242	3613.98
681.432	3663.13
681.622	3517.73
681.813	3517.73
682.003	3480.86
682.193	3579.17
682.383	3587.36
682.573	3507.49
682.764	3540.26
682.954	3466.53
683.144	3480.86
683.334	3513.63
683.524	3435.81
683.714	3362.08
683.904	3376.42
684.094	3419.43
684.284	3448.1
684.474	3446.05
684.664	3368.23
684.854	3403.04
685.044	3323.17
685.234	3290.4
685.424	3394.85
685.614	3505.44
685.804	3278.12
685.994	3269.92
686.184	3476.77
686.374	3368.23
686.564	3409.19
686.753	3298.6
686.943	3331.36
687.133	3374.37
687.323	3251.49
687.513	3200.29
687.702	3257.64
687.892	3239.2
688.082	3171.62
688.272	3214.63
688.461	3259.68
688.651	3208.48
688.841	3132.71
689.03	3360.03
689.22	3124.52
689.41	3216.68
689.599	3198.24
689.789	3165.48
689.979	3226.92
690.168	3198.24
690.358	3304.74
690.547	3188
690.737	3194.15
690.926	3075.37
691.116	3155.24
691.305	3126.57
691.495	3126.57
691.684	3020.07
691.874	3116.33
692.063	3061.03
692.252	3128.61
692.442	3061.03
692.631	3032.36
692.82	3077.41
693.01	3081.51
693.199	2979.11
693.388	2954.54
693.578	3003.69
693.767	2993.45
693.956	3081.51
694.146	3124.52
694.335	2934.06
694.524	2882.86
694.713	2903.34
694.902	2854.19
695.092	3112.23
695.281	2891.05
695.47	2934.06
695.659	2864.43
695.848	2889
696.037	2829.61
696.226	2977.06
696.415	2800.94
696.604	2889
696.793	2848.04
696.982	2778.41
697.171	2858.28
697.36	2860.33
697.549	2827.56
697.738	2907.43
697.927	2772.27
698.116	2739.5
698.305	2770.22
698.494	2762.03
698.683	2764.08
698.872	2686.25
699.061	2600.24
699.25	2778.41
699.438	2731.31
699.627	2729.26
699.816	2633.01
700.005	2682.16
700.193	2731.31
700.382	2575.66
700.571	2610.48
700.76	2637.1
700.948	2624.81
701.137	2516.27
701.326	2608.43
701.514	2633.01
701.703	2583.85
701.892	2536.75
702.08	2630.96
702.269	2620.72
702.457	2506.03
702.646	2612.53
702.834	2424.11
703.023	2395.44
703.212	2354.48
703.4	2434.35
703.589	2506.03
703.777	2469.17
703.965	2336.05
704.154	2448.69
704.342	2272.56
704.531	2336.05
704.719	2327.86
704.907	2374.96
705.096	2368.82
705.284	2286.9
705.472	2202.93
705.661	2274.61
705.849	2237.75
706.037	2313.52
706.226	2172.21
706.414	2209.08
706.602	2278.71
706.79	2131.25
706.979	2114.87
707.167	2143.54
707.355	2129.2
707.543	2266.42
707.731	2112.82
707.919	2129.2
708.107	2049.33
708.296	2063.67
708.484	2041.14
708.672	2098.49
708.86	2008.37
709.048	2100.53
709.236	2133.3
709.424	2086.2
709.612	2104.63
709.8	2045.24
709.988	2059.57
710.176	1912.12
710.364	1961.27
710.551	2035
710.739	1979.7
710.927	2008.37
711.115	1985.85
711.303	2057.53
711.491	1944.89
711.679	1965.37
711.866	1981.75
712.054	1983.8
712.242	1928.5
712.43	1793.34
712.617	1787.19
712.805	1852.73
712.993	1834.3
713.181	1789.24
713.368	1797.43
713.556	1783.1
713.744	1731.9
713.931	1813.82
714.119	1957.18
714.306	1899.83
714.494	1817.91
714.682	1711.42
714.869	1830.2
715.057	1602.88
715.244	1721.66
715.432	1793.34
715.619	1672.51
715.807	1795.39
715.994	1729.85
716.182	1748.28
716.369	1705.28
716.556	1625.4
716.744	1641.79
716.931	1717.56
717.119	1617.21
717.306	1711.42
717.493	1598.78
717.681	1588.54
717.868	1568.06
718.055	1539.39
718.242	1670.46
718.43	1590.59
718.617	1576.25
718.804	1523.01
718.991	1547.58
719.179	1568.06
719.366	1525.05
719.553	1490.24
719.74	1418.56
719.927	1426.75
720.114	1459.52
720.301	1502.53
720.488	1453.38
720.676	1363.26
720.863	1451.33
721.05	1424.7
721.237	1426.75
721.424	1361.22
721.611	1412.42
721.798	1436.99
721.985	1396.03
722.172	1338.69
722.358	1426.75
722.545	1357.12
722.732	1424.7
722.919	1305.92
723.106	1310.02
723.293	1365.31
723.48	1299.78
723.667	1316.16
723.853	1256.77
724.04	1289.54
724.227	1393.98
724.414	1226.05
724.6	1279.3
724.787	1197.38
724.974	1320.26
725.161	1248.58
725.347	1295.68
725.534	1193.28
725.72	1264.96
725.907	1232.19
726.094	1215.81
726.28	1221.95
726.467	1181
726.653	1236.29
726.84	1240.39
727.027	1121.6
727.213	1140.04
727.4	1107.27
727.586	1207.62
727.773	1133.89
727.959	1240.39
728.145	1148.23
728.332	1125.7
728.518	1172.8
728.705	1144.13
728.891	1058.12
729.077	1172.8
729.264	1074.5
729.45	1140.04
729.636	1082.69
729.823	1060.17
730.009	1045.83
730.195	1068.36
730.382	1109.32
730.568	1076.55
730.754	1107.27
730.94	1115.46
731.126	1090.88
731.313	1086.79
731.499	1074.5
731.685	1092.93
731.871	1039.69
732.057	1029.45
732.243	1041.73
732.429	1051.97
732.615	1025.35
732.801	931.14
732.987	974.15
733.173	953.67
733.359	914.76
733.545	949.57
733.731	877.9
733.917	945.48
734.103	1006.92
734.289	1078.6
734.475	965.96
734.661	1033.54
734.847	982.34
735.033	877.9
735.219	879.94
735.404	853.32
735.59	863.56
735.776	871.75
735.962	886.09
736.148	963.91
736.333	863.56
736.519	959.81
736.705	896.33
736.89	777.55
737.076	935.24
737.262	828.74
737.447	968.01
737.633	902.47
737.819	834.89
738.004	877.9
738.19	922.95
738.375	838.98
738.561	847.18
738.747	881.99
738.932	877.9
739.118	863.56
739.303	748.87
739.489	748.87
739.674	775.5
739.859	781.64
740.045	787.79
740.23	830.79
740.416	730.44
740.601	765.26
740.786	822.6
740.972	750.92
741.157	787.79
741.342	779.59
741.528	761.16
741.713	863.56
741.898	750.92
742.084	752.97
742.269	761.16
742.454	777.55
742.639	798.03
742.824	730.44
743.01	714.06
743.195	742.73
743.38	683.34
743.565	681.29
743.75	728.39
743.935	599.37
744.12	699.72
744.305	695.63
744.49	628.04
744.675	724.3
744.86	709.96
745.045	689.48
745.23	693.58
745.415	632.14
745.6	679.24
745.785	685.39
745.97	666.96
746.155	626
746.34	728.39
746.525	691.53
746.71	687.43
746.895	722.25
747.079	626
747.264	640.33
747.449	617.8
747.634	644.43
747.819	531.79
748.003	607.56
748.188	605.52
748.373	687.43
748.557	646.48
748.742	640.33
748.927	593.23
749.111	609.61
749.296	539.98
749.481	535.89
749.665	513.36
749.85	619.85
750.034	638.28
750.219	591.18
750.404	570.7
750.588	582.99
750.773	591.18
750.957	558.41
751.141	505.17
751.326	484.69
751.51	552.27
751.695	470.35
751.879	453.97
752.064	601.42
752.248	535.89
752.432	546.12
752.617	519.5
752.801	564.56
752.985	511.31
753.17	410.96
753.354	544.08
753.538	574.8
753.722	456.01
753.907	480.59
754.091	458.06
754.275	472.4
754.459	535.89
754.643	533.84
754.828	439.63
755.012	398.67
755.196	466.25
755.38	527.69
755.564	462.16
755.748	519.5
755.932	494.93
756.116	480.59
756.3	492.88
756.484	433.49
756.668	400.72
756.852	492.88
757.036	415.06
757.22	435.53
757.404	439.63
757.588	460.11
757.772	445.77
757.956	370
758.14	374.1
758.323	460.11
758.507	419.15
758.691	441.68
758.875	429.39
759.059	413.01
759.242	400.72
759.426	410.96
759.61	427.34
759.794	394.58
759.977	441.68
760.161	415.06
760.345	435.53
760.528	478.54
760.712	326.99
760.895	445.77
761.079	320.85
761.263	400.72
761.446	324.94
761.63	464.21
761.813	363.86
761.997	347.47
762.18	404.82
762.364	435.53
762.547	353.62
762.731	376.14
762.914	255.31
763.098	443.73
763.281	361.81
763.464	353.62
763.648	398.67
763.831	363.86
764.015	367.95
764.198	398.67
764.381	320.85
764.564	396.62
764.748	398.67
764.931	400.72
765.114	382.29
765.297	433.49
765.481	421.2
765.664	312.66
765.847	359.76
766.03	396.62
766.213	314.7
766.397	316.75
766.58	337.23
766.763	421.2
766.946	363.86
767.129	357.71
767.312	349.52
767.495	324.94
767.678	316.75
767.861	345.42
768.044	314.7
768.227	355.66
768.41	314.7
768.593	300.37
768.776	318.8
768.959	341.33
769.142	347.47
769.324	335.18
769.507	370
769.69	353.62
769.873	331.09
770.056	294.22
770.239	382.29
770.421	349.52
770.604	429.39
770.787	404.82
770.97	306.51
771.152	343.38
771.335	378.19
771.518	288.08
771.7	263.51
771.883	298.32
772.066	312.66
772.248	281.94
772.431	372.05
772.613	349.52
772.796	324.94
772.978	310.61
773.161	320.85
773.343	343.38
773.526	243.03
773.708	310.61
773.891	306.51
774.073	308.56
774.256	279.89
774.438	283.99
774.621	269.65
774.803	322.9
774.985	277.84
775.168	347.47
775.35	316.75
775.532	308.56
775.715	245.07
775.897	310.61
776.079	255.31
776.261	310.61
776.444	228.69
776.626	292.18
776.808	292.18
776.99	251.22
777.173	333.14
777.355	292.18
777.537	269.65
777.719	320.85
777.901	253.27
778.083	259.41
778.265	167.25
778.447	269.65
778.629	251.22
778.811	302.42
778.993	331.09
779.175	265.55
779.357	277.84
779.539	226.64
779.721	281.94
779.903	240.98
780.085	251.22
780.267	308.56
780.449	261.46
780.631	253.27
780.812	218.45
780.994	263.51
781.176	347.47
781.358	175.44
781.54	255.31
781.721	228.69
781.903	230.74
782.085	195.92
782.267	144.72
782.448	200.02
782.63	267.6
782.812	208.21
782.993	216.4
783.175	290.13
783.357	140.63
783.538	257.36
783.72	263.51
783.901	175.44
784.083	136.53
784.264	157.01
784.446	220.5
784.627	179.54
784.809	111.96
784.99	247.12
785.172	150.87
785.353	240.98
785.535	216.4
785.716	177.49
785.897	212.31
786.079	214.35
786.26	173.39
786.441	226.64
786.623	159.06
786.804	208.21
786.985	146.77
787.167	245.07
787.348	142.68
787.529	255.31
787.71	212.31
787.891	320.85
788.073	118.1
788.254	142.68
788.435	165.2
788.616	247.12
788.797	122.2
788.978	161.11
789.159	157.01
789.34	167.25
789.522	126.29
789.703	142.68
789.884	161.11
790.065	138.58
790.246	81.24
790.427	105.81
790.607	232.79
790.788	157.01
790.969	187.73
791.15	165.2
791.331	130.39
791.512	103.76
791.693	97.62
791.874	148.82
792.054	136.53
792.235	210.26
792.416	120.15
792.597	146.77
792.778	165.2
792.958	140.63
793.139	136.53
793.32	130.39
793.5	163.15
793.681	161.11
793.862	91.48
794.042	75.09
794.223	107.86
794.404	93.52
794.584	103.76
794.765	107.86
794.945	68.95
795.126	93.52
795.306	142.68
795.487	144.72
795.667	138.58
795.848	124.24
796.028	157.01
796.209	56.66
796.389	130.39
796.57	181.59
796.75	130.39
796.93	114
797.111	85.33
797.291	91.48
797.471	114
797.652	40.28
797.832	105.81
798.012	79.19
798.192	93.52
798.373	89.43
798.553	101.72
798.733	195.92
798.913	95.57
799.093	140.63
799.274	105.81
799.454	197.97
799.634	60.76
799.814	116.05
799.994	179.54
800.174	91.48
800.354	130.39
800.534	175.44
800.714	64.85
800.894	99.67
801.074	56.66
801.254	140.63
801.434	75.09
801.614	126.29
801.794	34.13
801.974	236.88
802.154	95.57
802.334	114
802.514	58.71
802.693	138.58
802.873	126.29
803.053	140.63
803.233	169.3
803.413	83.28
803.592	114
803.772	126.29
803.952	36.18
804.131	-12.97
804.311	87.38
804.491	79.19
804.67	101.72
804.85	91.48
805.03	103.76
805.209	157.01
805.389	73.04
805.568	89.43
805.748	62.8
805.928	109.91
806.107	48.47
806.287	68.95
806.466	81.24
806.646	73.04
806.825	89.43
807.004	32.08
807.184	52.56
807.363	85.33
807.543	111.96
807.722	73.04
807.901	71
808.081	54.61
808.26	42.32
808.439	114
808.619	109.91
808.798	128.34
808.977	85.33
809.156	42.32
809.336	114
809.515	136.53
809.694	34.13
809.873	91.48
810.052	62.8
810.231	87.38
810.411	60.76
810.59	66.9
810.769	52.56
810.948	9.56
811.127	93.52
811.306	54.61
811.485	11.61
811.664	64.85
811.843	54.61
812.022	99.67
812.201	46.42
812.38	91.48
812.559	62.8
812.737	152.92
812.916	48.47
813.095	91.48
813.274	161.11
813.453	62.8
813.632	42.32
813.811	83.28
813.989	23.89
814.168	66.9
814.347	99.67
814.526	93.52
814.704	21.85
814.883	40.28
815.062	13.65
815.24	81.24
815.419	25.94
815.598	89.43
815.776	50.52
815.955	77.14
816.133	50.52
816.312	44.37
816.49	73.04
816.669	81.24
816.847	15.7
817.026	124.24
817.204	52.56
817.383	91.48
817.561	56.66
817.74	34.13
817.918	73.04
818.097	13.65
818.275	77.14
818.453	15.7
818.632	32.08
818.81	40.28
818.988	97.62
819.167	36.18
819.345	9.56
819.523	56.66
819.701	52.56
819.879	34.13
820.058	120.15
820.236	62.8
820.414	7.51
820.592	77.14
820.77	25.94
820.948	50.52
821.127	-6.83
821.305	44.37
821.483	7.51
821.661	23.89
821.839	32.08
822.017	-27.31
822.195	21.85
822.373	75.09
822.551	-12.97
822.729	73.04
822.907	-10.92
823.085	120.15
823.262	58.71
823.44	38.23
823.618	50.52
823.796	32.08
823.974	13.65
824.152	50.52
824.329	-2.73
824.507	25.94
824.685	54.61
824.863	23.89
825.04	71
825.218	17.75
825.396	109.91
825.574	-6.83
825.751	23.89
825.929	85.33
826.107	-64.17
826.284	9.56
826.462	62.8
826.639	-10.92
826.817	50.52
826.994	-27.31
827.172	111.96
827.349	62.8
827.527	64.85
827.704	-37.55
827.882	58.71
828.059	-58.03
828.237	-8.87
828.414	71
828.591	3.41
828.769	75.09
828.946	-4.78
829.124	-21.16
829.301	60.76
829.478	-8.87
829.655	15.7
829.833	120.15
830.01	19.8
830.187	60.76
830.364	7.51
830.542	15.7
830.719	-0.68
830.896	48.47
831.073	38.23
831.25	1.37
831.427	46.42
831.604	-86.7
831.782	9.56
831.959	64.85
832.136	1.37
832.313	-4.78
832.49	101.72
832.667	32.08
832.844	48.47
833.021	-12.97
833.198	71
833.374	52.56
833.551	21.85
833.728	17.75
833.905	62.8
834.082	-33.45
834.259	5.46
834.436	42.32
834.612	-0.68
834.789	64.85
834.966	23.89
835.143	71
835.319	99.67
835.496	30.04
835.673	132.44
835.85	-29.35
836.026	-0.68
836.203	126.29
836.38	42.32
836.556	15.7
836.733	85.33
836.909	19.8
837.086	-15.02
837.262	27.99
837.439	73.04
837.616	56.66
837.792	15.7
837.968	13.65
838.145	73.04
838.321	60.76
838.498	-6.83
838.674	9.56
838.851	1.37
839.027	3.41
839.203	19.8
839.38	17.75
839.556	85.33
839.732	75.09
839.909	58.71
840.085	-8.87
840.261	-10.92
840.437	17.75
840.614	44.37
840.79	-10.92
840.966	-12.97
841.142	71
841.318	21.85
841.494	3.41
841.671	27.99
841.847	21.85
842.023	25.94
842.199	-4.78
842.375	46.42
842.551	-23.21
842.727	-39.59
842.903	1.37
843.079	-31.4
843.255	-21.16
843.431	38.23
843.607	68.95
843.783	56.66
843.959	85.33
844.134	-37.55
844.31	77.14
844.486	1.37
844.662	-43.69
844.838	46.42
845.013	36.18
845.189	56.66
845.365	64.85
845.541	-0.68
845.716	120.15
845.892	-0.68
846.068	-49.83
846.244	-4.78
846.419	-4.78
846.595	21.85
846.77	23.89
846.946	-29.35
847.122	30.04
847.297	21.85
847.473	1.37
847.648	68.95
847.824	-49.83
847.999	30.04
848.175	-49.83
848.35	40.28
848.526	-82.6
848.701	50.52
848.876	138.58
849.052	42.32
849.227	25.94
849.403	-4.78
849.578	15.7
849.753	38.23
849.929	81.24
850.104	-90.79
850.279	85.33
850.454	5.46
850.63	-8.87
850.805	-37.55
850.98	1.37
851.155	-37.55
851.33	13.65
851.505	-8.87
851.681	9.56
851.856	-10.92
852.031	11.61
852.206	-39.59
852.381	7.51
852.556	73.04
852.731	3.41
852.906	58.71
853.081	91.48
853.256	1.37
853.431	40.28
853.606	-6.83
853.781	62.8
853.956	-105.13
854.131	75.09
854.305	52.56
854.48	-55.98
854.655	-19.11
854.83	54.61
855.005	-37.55
855.18	19.8
855.354	36.18
855.529	-33.45
855.704	25.94
855.879	27.99
856.053	9.56
856.228	40.28
856.403	44.37
856.577	21.85
856.752	-6.83
856.926	-47.79
857.101	-8.87
857.276	17.75
857.45	17.75
857.625	44.37
857.799	1.37
857.974	34.13
858.148	-2.73
858.323	83.28
858.497	-23.21
858.672	9.56
858.846	19.8
859.02	48.47
859.195	-62.12
859.369	-12.97
859.543	46.42
859.718	32.08
859.892	13.65
860.066	-4.78
860.241	50.52
860.415	-23.21
860.589	-19.11
860.763	-72.36
860.938	-66.22
861.112	-49.83
861.286	34.13
861.46	48.47
861.634	7.51
861.808	11.61
861.982	-6.83
862.157	30.04
862.331	-80.55
862.505	-31.4
862.679	-49.83
862.853	-25.26
863.027	-4.78
863.201	60.76
863.375	17.75
863.549	17.75
863.722	9.56
863.896	-17.07
864.07	-33.45
864.244	-23.21
864.418	3.41
864.592	-17.07
864.766	21.85
864.939	-2.73
865.113	71
865.287	64.85
865.461	-2.73
865.634	-43.69
865.808	13.65
865.982	-4.78
866.156	-66.22
866.329	-39.59
866.503	58.71
866.676	34.13
866.85	-39.59
867.024	-82.6
867.197	-0.68
867.371	-21.16
867.544	-25.26
867.718	11.61
867.891	11.61
868.065	15.7
868.238	-8.87
868.412	25.94
868.585	-29.35
868.759	58.71
868.932	34.13
869.105	-43.69
869.279	54.61
869.452	-10.92
869.625	-17.07
869.799	27.99
869.972	-37.55
870.145	-21.16
870.319	79.19
870.492	-43.69
870.665	1.37
870.838	-43.69
871.011	-25.26
871.185	17.75
871.358	-15.02
871.531	-37.55
871.704	85.33
871.877	9.56
872.05	-86.7
872.223	-58.03
872.396	-66.22
872.569	58.71
872.742	-60.07
872.915	-53.93
873.088	30.04
873.261	-6.83
873.434	3.41
873.607	13.65
873.78	-19.11
873.953	9.56
874.126	-49.83
874.299	48.47
874.471	-12.97
874.644	13.65
874.817	-12.97
874.99	11.61
875.163	5.46
875.335	-72.36
875.508	58.71
875.681	9.56
875.853	38.23
876.026	-10.92
876.199	15.7
876.371	-29.35
876.544	13.65
876.717	-33.45
876.889	7.51
877.062	-4.78
877.234	-25.26
877.407	21.85
877.579	-49.83
877.752	13.65
877.924	40.28
878.097	-74.41
878.269	19.8
878.442	-88.75
878.614	15.7
878.786	17.75
878.959	-49.83
879.131	42.32
879.303	-17.07
879.476	3.41
879.648	54.61
879.82	17.75
879.993	27.99
880.165	87.38
880.337	-29.35
880.509	34.13
880.681	11.61
880.854	9.56
881.026	-15.02
881.198	15.7
881.37	87.38
881.542	30.04
881.714	-25.26
881.886	-96.94
882.058	5.46
882.23	83.28
882.402	36.18
882.574	19.8
882.746	11.61
882.918	85.33
883.09	7.51
883.262	25.94
883.434	3.41
883.606	17.75
883.778	30.04
883.95	-15.02
884.122	23.89
884.293	68.95
884.465	-6.83
884.637	-33.45
884.809	-41.64
884.98	-12.97
885.152	42.32
885.324	-23.21
885.496	-8.87
885.667	-4.78
885.839	13.65
886.011	32.08
886.182	11.61
886.354	21.85
886.525	38.23
886.697	-12.97
886.869	-80.55
887.04	38.23
887.212	58.71
887.383	38.23
887.555	15.7
887.726	-0.68
887.897	-68.27
888.069	9.56
888.24	-10.92
888.412	-10.92
888.583	27.99
888.754	-23.21
888.926	-21.16
889.097	36.18
889.268	3.41
889.44	-2.73
889.611	-39.59
889.782	-27.31
889.953	21.85
890.125	-19.11
890.296	15.7
890.467	-12.97
890.638	11.61
890.809	7.51
890.98	15.7
891.151	-35.5
891.323	-49.83
891.494	27.99
891.665	-31.4
891.836	-82.6
892.007	-62.12
892.178	9.56
892.349	9.56
892.52	1.37
892.691	25.94
892.862	30.04
893.032	-45.74
893.203	-15.02
893.374	21.85
893.545	-23.21
893.716	-29.35
893.887	25.94
894.057	75.09
894.228	-60.07
894.399	38.23
894.57	1.37
894.74	-51.88
894.911	36.18
895.082	17.75
895.253	32.08
895.423	-31.4
895.594	5.46
895.764	-25.26
895.935	-35.5
896.106	38.23
896.276	7.51
896.447	7.51
896.617	3.41
896.788	7.51
896.958	9.56
897.129	-45.74
897.299	40.28
897.47	15.7
897.64	-29.35
897.81	-0.68
897.981	42.32
898.151	19.8
898.322	25.94
898.492	-49.83
898.662	34.13
898.832	13.65
899.003	-68.27
899.173	85.33
899.343	-15.02
899.513	-17.07
