Data from USB4F104151__54__12-54-00-733.txt Node

Date: Fri Mar 14 12:54:00 EDT 2025
User: louis
Spectrometer: USB4F10415
Trigger mode: 4
Integration Time (sec): 1.000000E-2
Scans to average: 1
Electric dark correction enabled: true
Nonlinearity correction enabled: false
Boxcar width: 0
XAxis mode: Wavelengths
Number of Pixels in Spectrum: 3648
>>>>>Begin Spectral Data<<<<<
178.204	5.63
178.424	5.63
178.644	5.63
178.864	-74.24
179.084	-10.75
179.304	40.45
179.524	-18.94
179.744	-0.51
179.964	73.21
180.184	-10.75
180.404	-57.86
180.624	28.16
180.844	-2.56
181.064	-18.94
181.283	40.45
181.503	-47.62
181.723	-25.09
181.943	-80.38
182.163	36.35
182.383	-31.23
182.602	-41.47
182.822	11.78
183.042	-2.56
183.262	-12.8
183.482	-25.09
183.701	26.11
183.921	73.21
184.141	-6.66
184.361	17.92
184.58	1.54
184.8	-8.7
185.02	-8.7
185.239	75.26
185.459	26.11
185.679	46.59
185.898	46.59
186.118	-16.9
186.338	7.68
186.557	99.84
186.777	-20.99
186.997	-33.28
187.216	-20.99
187.436	69.12
187.655	-33.28
187.875	58.88
188.095	3.58
188.314	-20.99
188.534	1.54
188.753	3.58
188.973	81.41
189.192	44.54
189.412	-6.66
189.631	56.83
189.851	-33.28
190.07	77.31
190.29	15.87
190.509	24.06
190.729	-49.66
190.948	-29.18
191.168	11.78
191.387	58.88
191.607	71.17
191.826	46.59
192.045	-8.7
192.265	46.59
192.484	-23.04
192.704	9.73
192.923	-2.56
193.142	-0.51
193.362	56.83
193.581	9.73
193.8	24.06
194.02	46.59
194.239	13.82
194.458	34.3
194.678	-0.51
194.897	40.45
195.116	-33.28
195.335	54.78
195.555	46.59
195.774	24.06
195.993	54.78
196.212	-0.51
196.432	-6.66
196.651	48.64
196.87	-90.62
197.089	89.6
197.308	32.26
197.528	-14.85
197.747	9.73
197.966	-41.47
198.185	9.73
198.404	-27.14
198.623	40.45
198.842	36.35
199.062	24.06
199.281	44.54
199.5	24.06
199.719	-6.66
199.938	19.97
200.157	46.59
200.376	48.64
200.595	-4.61
200.814	-8.7
201.033	-18.94
201.252	30.21
201.471	56.83
201.69	30.21
201.909	69.12
202.128	83.45
202.347	93.69
202.566	60.93
202.785	42.5
203.004	-47.62
203.223	36.35
203.442	71.17
203.661	52.74
203.879	3.58
204.098	69.12
204.317	1.54
204.536	50.69
204.755	1.54
204.974	36.35
205.193	89.6
205.411	62.98
205.63	62.98
205.849	71.17
206.068	71.17
206.287	114.17
206.505	15.87
206.724	58.88
206.943	-16.9
207.162	38.4
207.381	42.5
207.599	-6.66
207.818	-27.14
208.037	58.88
208.255	40.45
208.474	9.73
208.693	62.98
208.911	-12.8
209.13	-43.52
209.349	28.16
209.567	7.68
209.786	40.45
210.005	54.78
210.223	-10.75
210.442	-0.51
210.661	32.26
210.879	-35.33
211.098	42.5
211.316	26.11
211.535	50.69
211.753	7.68
211.972	36.35
212.191	22.02
212.409	7.68
212.628	-16.9
212.846	77.31
213.065	30.21
213.283	46.59
213.502	-12.8
213.72	-16.9
213.938	77.31
214.157	13.82
214.375	87.55
214.594	48.64
214.812	62.98
215.031	40.45
215.249	-25.09
215.467	38.4
215.686	17.92
215.904	46.59
216.122	13.82
216.341	116.22
216.559	-2.56
216.778	73.21
216.996	15.87
217.214	73.21
217.432	19.97
217.651	38.4
217.869	65.02
218.087	19.97
218.306	32.26
218.524	71.17
218.742	5.63
218.96	54.78
219.179	97.79
219.397	26.11
219.615	-0.51
219.833	75.26
220.051	60.93
220.27	-33.28
220.488	1.54
220.706	13.82
220.924	-37.38
221.142	-2.56
221.36	128.51
221.578	89.6
221.796	13.82
222.015	26.11
222.233	42.5
222.451	15.87
222.669	24.06
222.887	-18.94
223.105	105.98
223.323	91.65
223.541	19.97
223.759	95.74
223.977	-25.09
224.195	79.36
224.413	46.59
224.631	-2.56
224.849	13.82
225.067	50.69
225.285	-27.14
225.503	60.93
225.721	7.68
225.939	52.74
226.157	62.98
226.375	58.88
226.592	11.78
226.81	48.64
227.028	11.78
227.246	112.13
227.464	69.12
227.682	46.59
227.9	-12.8
228.117	-10.75
228.335	85.5
228.553	28.16
228.771	44.54
228.989	32.26
229.206	-29.18
229.424	-10.75
229.642	67.07
229.86	71.17
230.077	-25.09
230.295	7.68
230.513	44.54
230.731	-14.85
230.948	28.16
231.166	54.78
231.384	19.97
231.601	1.54
231.819	1.54
232.037	-33.28
232.254	-10.75
232.472	95.74
232.689	-10.75
232.907	44.54
233.125	50.69
233.342	58.88
233.56	-2.56
233.777	118.27
233.995	48.64
234.213	-61.95
234.43	-4.61
234.648	87.55
234.865	11.78
235.083	34.3
235.3	-27.14
235.518	7.68
235.735	89.6
235.953	19.97
236.17	9.73
236.388	-16.9
236.605	-14.85
236.822	38.4
237.04	44.54
237.257	69.12
237.475	7.68
237.692	-33.28
237.909	-43.52
238.127	38.4
238.344	79.36
238.562	42.5
238.779	42.5
238.996	-23.04
239.214	17.92
239.431	13.82
239.648	1.54
239.865	34.3
240.083	15.87
240.3	75.26
240.517	40.45
240.735	56.83
240.952	17.92
241.169	-53.76
241.386	56.83
241.603	-12.8
241.821	-47.62
242.038	19.97
242.255	30.21
242.472	-37.38
242.689	-16.9
242.907	13.82
243.124	9.73
243.341	48.64
243.558	15.87
243.775	-25.09
243.992	97.79
244.209	114.17
244.426	11.78
244.643	-8.7
244.86	24.06
245.078	15.87
245.295	46.59
245.512	79.36
245.729	5.63
245.946	91.65
246.163	77.31
246.38	77.31
246.597	22.02
246.814	-10.75
247.031	54.78
247.248	3.58
247.464	36.35
247.681	85.5
247.898	50.69
248.115	54.78
248.332	-2.56
248.549	67.07
248.766	-10.75
248.983	62.98
249.2	62.98
249.417	48.64
249.633	77.31
249.85	-0.51
250.067	22.02
250.284	75.26
250.501	17.92
250.717	56.83
250.934	-45.57
251.151	28.16
251.368	56.83
251.585	19.97
251.801	110.08
252.018	-2.56
252.235	71.17
252.451	-27.14
252.668	48.64
252.885	67.07
253.102	60.93
253.318	26.11
253.535	-18.94
253.752	38.4
253.968	-10.75
254.185	-25.09
254.401	-20.99
254.618	5.63
254.835	26.11
255.051	114.17
255.268	11.78
255.484	54.78
255.701	-14.85
255.917	69.12
256.134	-12.8
256.351	-12.8
256.567	69.12
256.784	26.11
257	44.54
257.217	38.4
257.433	-18.94
257.65	73.21
257.866	30.21
258.082	17.92
258.299	26.11
258.515	9.73
258.732	11.78
258.948	54.78
259.165	-4.61
259.381	-18.94
259.597	54.78
259.814	26.11
260.03	28.16
260.246	26.11
260.463	17.92
260.679	15.87
260.895	-4.61
261.112	54.78
261.328	7.68
261.544	71.17
261.761	48.64
261.977	95.74
262.193	1.54
262.409	22.02
262.626	34.3
262.842	-4.61
263.058	32.26
263.274	34.3
263.49	19.97
263.707	-8.7
263.923	44.54
264.139	38.4
264.355	26.11
264.571	112.13
264.787	89.6
265.004	85.5
265.22	34.3
265.436	7.68
265.652	22.02
265.868	42.5
266.084	-31.23
266.3	48.64
266.516	97.79
266.732	40.45
266.948	26.11
267.164	32.26
267.38	-20.99
267.596	7.68
267.812	-0.51
268.028	7.68
268.244	26.11
268.46	42.5
268.676	-14.85
268.892	24.06
269.108	22.02
269.324	56.83
269.54	114.17
269.756	44.54
269.972	-0.51
270.188	24.06
270.403	1.54
270.619	65.02
270.835	1.54
271.051	-12.8
271.267	46.59
271.483	44.54
271.698	-0.51
271.914	97.79
272.13	1.54
272.346	128.51
272.562	3.58
272.777	40.45
272.993	17.92
273.209	77.31
273.425	-6.66
273.64	3.58
273.856	99.84
274.072	-12.8
274.287	32.26
274.503	13.82
274.719	-14.85
274.934	15.87
275.15	32.26
275.366	50.69
275.581	17.92
275.797	1.54
276.012	40.45
276.228	38.4
276.444	-0.51
276.659	30.21
276.875	-2.56
277.09	73.21
277.306	-12.8
277.521	67.07
277.737	5.63
277.952	36.35
278.168	9.73
278.383	46.59
278.599	46.59
278.814	28.16
279.03	-29.18
279.245	7.68
279.461	48.64
279.676	118.27
279.892	-68.09
280.107	-10.75
280.322	28.16
280.538	15.87
280.753	52.74
280.969	56.83
281.184	11.78
281.399	3.58
281.615	-64
281.83	11.78
282.045	99.84
282.26	-27.14
282.476	-16.9
282.691	40.45
282.906	48.64
283.122	54.78
283.337	46.59
283.552	77.31
283.767	15.87
283.983	52.74
284.198	3.58
284.413	5.63
284.628	56.83
284.843	52.74
285.058	5.63
285.274	75.26
285.489	42.5
285.704	28.16
285.919	28.16
286.134	-10.75
286.349	-55.81
286.564	15.87
286.779	65.02
286.995	-6.66
287.21	48.64
287.425	17.92
287.64	9.73
287.855	-37.38
288.07	13.82
288.285	124.41
288.5	7.68
288.715	11.78
288.93	73.21
289.145	54.78
289.36	32.26
289.575	50.69
289.79	65.02
290.004	22.02
290.219	60.93
290.434	44.54
290.649	50.69
290.864	7.68
291.079	-8.7
291.294	50.69
291.509	5.63
291.724	32.26
291.938	65.02
292.153	73.21
292.368	30.21
292.583	24.06
292.798	50.69
293.012	48.64
293.227	3.58
293.442	42.5
293.657	-43.52
293.871	75.26
294.086	7.68
294.301	40.45
294.516	48.64
294.73	13.82
294.945	-35.33
295.16	7.68
295.374	67.07
295.589	81.41
295.804	13.82
296.018	40.45
296.233	3.58
296.447	5.63
296.662	36.35
296.877	73.21
297.091	9.73
297.306	91.65
297.52	38.4
297.735	-25.09
297.949	5.63
298.164	-20.99
298.378	112.13
298.593	-0.51
298.807	9.73
299.022	48.64
299.236	87.55
299.451	73.21
299.665	-16.9
299.88	28.16
300.094	5.63
300.309	62.98
300.523	56.83
300.737	7.68
300.952	30.21
301.166	38.4
301.381	26.11
301.595	69.12
301.809	-12.8
302.024	69.12
302.238	77.31
302.452	89.6
302.667	-23.04
302.881	58.88
303.095	11.78
303.309	83.45
303.524	9.73
303.738	15.87
303.952	7.68
304.166	65.02
304.381	-66.05
304.595	58.88
304.809	105.98
305.023	42.5
305.237	48.64
305.452	28.16
305.666	28.16
305.88	28.16
306.094	83.45
306.308	91.65
306.522	17.92
306.736	11.78
306.95	67.07
307.164	69.12
307.379	-12.8
307.593	89.6
307.807	73.21
308.021	62.98
308.235	17.92
308.449	-10.75
308.663	7.68
308.877	87.55
309.091	50.69
309.305	-0.51
309.519	34.3
309.733	46.59
309.947	-0.51
310.161	56.83
310.374	83.45
310.588	54.78
310.802	17.92
311.016	40.45
311.23	15.87
311.444	28.16
311.658	89.6
311.872	7.68
312.085	44.54
312.299	83.45
312.513	30.21
312.727	44.54
312.941	5.63
313.154	28.16
313.368	3.58
313.582	38.4
313.796	-4.61
314.009	15.87
314.223	52.74
314.437	22.02
314.651	65.02
314.864	58.88
315.078	13.82
315.292	42.5
315.505	34.3
315.719	-68.09
315.933	-6.66
316.146	28.16
316.36	79.36
316.573	103.93
316.787	3.58
317.001	101.89
317.214	-0.51
317.428	62.98
317.641	-10.75
317.855	-27.14
318.068	36.35
318.282	91.65
318.495	17.92
318.709	38.4
318.922	-31.23
319.136	58.88
319.349	52.74
319.563	83.45
319.776	28.16
319.99	48.64
320.203	22.02
320.417	87.55
320.63	79.36
320.843	114.17
321.057	13.82
321.27	46.59
321.483	79.36
321.697	95.74
321.91	22.02
322.124	89.6
322.337	7.68
322.55	89.6
322.763	69.12
322.977	-2.56
323.19	48.64
323.403	75.26
323.617	79.36
323.83	36.35
324.043	58.88
324.256	22.02
324.469	73.21
324.683	69.12
324.896	-33.28
325.109	85.5
325.322	62.98
325.535	-6.66
325.748	32.26
325.962	-8.7
326.175	-31.23
326.388	52.74
326.601	-0.51
326.814	48.64
327.027	40.45
327.24	-33.28
327.453	101.89
327.666	-35.33
327.879	32.26
328.092	93.69
328.305	36.35
328.518	56.83
328.731	36.35
328.944	5.63
329.157	81.41
329.37	40.45
329.583	-25.09
329.796	71.17
330.009	9.73
330.222	17.92
330.435	11.78
330.648	54.78
330.861	58.88
331.073	36.35
331.286	28.16
331.499	-47.62
331.712	17.92
331.925	46.59
332.138	73.21
332.35	30.21
332.563	28.16
332.776	54.78
332.989	7.68
333.202	-8.7
333.414	67.07
333.627	-0.51
333.84	108.03
334.053	22.02
334.265	67.07
334.478	30.21
334.691	42.5
334.903	42.5
335.116	-12.8
335.329	40.45
335.541	38.4
335.754	-41.47
335.966	81.41
336.179	54.78
336.392	58.88
336.604	99.84
336.817	17.92
337.029	46.59
337.242	54.78
337.454	22.02
337.667	40.45
337.88	56.83
338.092	67.07
338.305	56.83
338.517	22.02
338.729	28.16
338.942	17.92
339.154	54.78
339.367	-35.33
339.579	-25.09
339.792	17.92
340.004	118.27
340.217	-33.28
340.429	13.82
340.641	13.82
340.854	44.54
341.066	22.02
341.278	65.02
341.491	110.08
341.703	83.45
341.915	50.69
342.128	112.13
342.34	9.73
342.552	-12.8
342.764	24.06
342.977	69.12
343.189	83.45
343.401	54.78
343.613	50.69
343.826	30.21
344.038	34.3
344.25	9.73
344.462	62.98
344.674	103.93
344.886	30.21
345.099	46.59
345.311	60.93
345.523	13.82
345.735	-0.51
345.947	22.02
346.159	-27.14
346.371	97.79
346.583	3.58
346.795	54.78
347.007	44.54
347.219	91.65
347.431	15.87
347.643	-2.56
347.855	3.58
348.067	48.64
348.279	15.87
348.491	62.98
348.703	52.74
348.915	38.4
349.127	22.02
349.339	110.08
349.551	30.21
349.763	46.59
349.975	134.65
350.187	54.78
350.399	58.88
350.61	22.02
350.822	75.26
351.034	46.59
351.246	13.82
351.458	28.16
351.669	58.88
351.881	62.98
352.093	89.6
352.305	58.88
352.517	9.73
352.728	79.36
352.94	65.02
353.152	85.5
353.363	13.82
353.575	112.13
353.787	-8.7
353.999	99.84
354.21	19.97
354.422	-12.8
354.633	67.07
354.845	26.11
355.057	38.4
355.268	38.4
355.48	46.59
355.692	26.11
355.903	65.02
356.115	62.98
356.326	-16.9
356.538	85.5
356.749	17.92
356.961	50.69
357.172	30.21
357.384	7.68
357.595	5.63
357.807	30.21
358.018	69.12
358.23	95.74
358.441	30.21
358.653	151.04
358.864	-43.52
359.075	48.64
359.287	-2.56
359.498	54.78
359.709	38.4
359.921	62.98
360.132	77.31
360.344	91.65
360.555	11.78
360.766	19.97
360.977	40.45
361.189	52.74
361.4	-47.62
361.611	38.4
361.823	-16.9
362.034	52.74
362.245	42.5
362.456	85.5
362.667	56.83
362.879	75.26
363.09	-0.51
363.301	30.21
363.512	95.74
363.723	44.54
363.935	108.03
364.146	112.13
364.357	62.98
364.568	83.45
364.779	5.63
364.99	67.07
365.201	73.21
365.412	79.36
365.623	34.3
365.834	120.32
366.045	46.59
366.256	79.36
366.467	50.69
366.678	130.56
366.889	118.27
367.1	79.36
367.311	13.82
367.522	93.69
367.733	89.6
367.944	34.3
368.155	36.35
368.366	67.07
368.577	-2.56
368.788	85.5
368.999	-0.51
369.209	62.98
369.42	34.3
369.631	101.89
369.842	73.21
370.053	62.98
370.264	65.02
370.474	5.63
370.685	105.98
370.896	-8.7
371.107	34.3
371.317	26.11
371.528	42.5
371.739	54.78
371.95	34.3
372.16	38.4
372.371	108.03
372.582	108.03
372.792	32.26
373.003	42.5
373.214	22.02
373.424	95.74
373.635	-18.94
373.846	91.65
374.056	-25.09
374.267	-10.75
374.477	9.73
374.688	-0.51
374.898	65.02
375.109	3.58
375.319	60.93
375.53	73.21
375.74	15.87
375.951	34.3
376.161	42.5
376.372	97.79
376.582	62.98
376.793	54.78
377.003	15.87
377.214	79.36
377.424	56.83
377.635	134.65
377.845	26.11
378.055	114.17
378.266	-41.47
378.476	13.82
378.686	77.31
378.897	15.87
379.107	103.93
379.317	62.98
379.528	-29.18
379.738	118.27
379.948	15.87
380.158	-2.56
380.369	15.87
380.579	52.74
380.789	44.54
380.999	62.98
381.21	34.3
381.42	112.13
381.63	118.27
381.84	79.36
382.05	17.92
382.261	87.55
382.471	52.74
382.681	128.51
382.891	87.55
383.101	116.22
383.311	69.12
383.521	36.35
383.731	42.5
383.941	28.16
384.151	9.73
384.361	79.36
384.571	24.06
384.781	60.93
384.991	46.59
385.201	95.74
385.411	73.21
385.621	38.4
385.831	44.54
386.041	110.08
386.251	103.93
386.461	48.64
386.671	67.07
386.881	62.98
387.091	34.3
387.301	89.6
387.511	5.63
387.72	38.4
387.93	79.36
388.14	30.21
388.35	38.4
388.56	60.93
388.769	22.02
388.979	136.7
389.189	87.55
389.399	56.83
389.609	89.6
389.818	81.41
390.028	73.21
390.238	114.17
390.447	30.21
390.657	9.73
390.867	122.37
391.076	99.84
391.286	54.78
391.496	-10.75
391.705	3.58
391.915	32.26
392.125	44.54
392.334	101.89
392.544	87.55
392.753	-4.61
392.963	97.79
393.172	22.02
393.382	67.07
393.591	58.88
393.801	38.4
394.01	75.26
394.22	85.5
394.429	42.5
394.639	54.78
394.848	60.93
395.058	93.69
395.267	101.89
395.477	126.46
395.686	30.21
395.895	103.93
396.105	19.97
396.314	13.82
396.524	99.84
396.733	60.93
396.942	75.26
397.152	120.32
397.361	103.93
397.57	65.02
397.78	146.94
397.989	124.41
398.198	155.13
398.407	87.55
398.617	116.22
398.826	132.61
399.035	60.93
399.244	81.41
399.453	161.28
399.663	110.08
399.872	85.5
400.081	50.69
400.29	73.21
400.499	73.21
400.708	48.64
400.917	93.69
401.127	103.93
401.336	77.31
401.545	120.32
401.754	138.75
401.963	157.18
402.172	7.68
402.381	95.74
402.59	146.94
402.799	65.02
403.008	24.06
403.217	81.41
403.426	116.22
403.635	97.79
403.844	144.89
404.053	95.74
404.262	112.13
404.471	187.9
404.68	120.32
404.888	97.79
405.097	114.17
405.306	122.37
405.515	73.21
405.724	110.08
405.933	183.81
406.142	171.52
406.35	148.99
406.559	194.05
406.768	148.99
406.977	171.52
407.185	177.66
407.394	220.67
407.603	161.28
407.812	144.89
408.02	206.33
408.229	183.81
408.438	151.04
408.646	134.65
408.855	210.43
409.064	169.47
409.272	214.52
409.481	175.61
409.69	226.81
409.898	169.47
410.107	206.33
410.315	318.97
410.524	278.01
410.733	273.92
410.941	253.44
411.15	224.76
411.358	235
411.567	259.58
411.775	290.3
411.984	316.92
412.192	325.12
412.401	337.4
412.609	357.88
412.818	400.89
413.026	327.16
413.234	396.79
413.443	388.6
413.651	382.46
413.86	462.33
414.068	478.71
414.276	443.9
414.485	431.61
414.693	431.61
414.901	488.95
415.11	468.47
415.318	544.25
415.526	548.34
415.734	617.97
415.943	568.82
416.151	640.5
416.359	577.02
416.567	593.4
416.776	718.33
416.984	744.95
417.192	753.14
417.4	779.76
417.608	656.89
417.817	777.72
418.025	769.52
418.233	839.16
418.441	798.2
418.649	884.21
418.857	894.45
419.065	896.5
419.273	974.32
419.481	976.37
419.689	970.23
419.897	957.94
420.105	1082.86
420.313	1160.69
420.521	1152.49
420.729	1119.73
420.937	1230.32
421.145	1261.04
421.353	1289.71
421.561	1406.44
421.769	1467.88
421.977	1603.05
422.185	1574.38
422.393	1615.34
422.601	1615.34
422.809	1758.69
423.017	1721.83
423.224	1709.54
423.432	1826.28
423.64	1779.17
423.848	2051.55
424.056	1844.71
424.263	2063.84
424.471	2098.66
424.679	2074.08
424.887	2158.05
425.094	2217.44
425.302	2373.08
425.51	2301.4
425.718	2569.69
425.925	2522.59
426.133	2579.93
426.341	2721.24
426.548	2907.6
426.756	2829.78
426.964	2917.84
427.171	3059.15
427.379	3141.07
427.586	3245.52
427.794	3210.7
428.001	3530.19
428.209	3622.34
428.417	3605.96
428.624	3739.08
428.832	3853.77
429.039	3796.42
429.247	3694.02
429.454	4160.96
429.662	4388.29
429.869	4138.43
430.076	4302.27
430.284	4253.12
430.491	4376
430.699	4627.9
430.906	4883.89
431.114	4812.21
431.321	4943.28
431.528	5033.4
431.736	5293.49
431.943	5506.48
432.15	5457.32
432.358	5510.57
432.565	5957.03
432.772	5850.53
432.979	6100.39
433.187	6208.93
433.394	6233.5
433.601	6737.31
433.808	6770.07
434.016	6620.57
434.223	6923.67
434.43	7615.88
434.637	7339.41
434.844	7886.22
435.052	7964.04
435.259	7730.57
435.466	7841.16
435.673	7669.13
435.88	8367.49
436.087	8834.43
436.294	8815.99
436.501	8824.19
436.708	8775.03
436.915	9155.96
437.122	9375.09
437.329	9518.45
437.537	9721.2
437.743	9911.66
437.95	9813.35
438.157	10460.51
438.364	10802.52
438.571	10585.44
438.778	10839.39
438.985	11783.5
439.192	11373.91
439.399	11666.77
439.606	11472.21
439.813	12133.7
440.02	12852.54
440.227	12475.71
440.433	12328.26
440.64	12838.2
440.847	12924.22
441.054	13090.1
441.261	14005.55
441.467	13747.5
441.674	14042.41
441.881	14527.78
442.088	14556.45
442.294	14357.8
442.501	14785.82
442.708	14961.95
442.914	15852.81
443.121	16405.77
443.328	15854.86
443.534	16758.02
443.741	16393.48
443.948	16536.84
444.154	17753.33
444.361	17294.58
444.568	17374.45
444.774	17536.24
444.981	17777.9
445.187	18218.22
445.394	19236.06
445.6	18883.81
445.807	20468.94
446.013	19842.26
446.22	19825.87
446.426	20864.19
446.633	20997.31
446.839	21724.34
447.046	21128.38
447.252	22295.72
447.459	21941.43
447.665	22045.87
447.871	23248.03
448.078	24003.73
448.284	23121.06
448.491	23497.88
448.697	24722.57
448.903	24931.46
449.11	24921.22
449.316	24478.86
449.522	25123.97
449.728	25828.47
449.935	25916.53
450.141	25754.74
450.347	26420.33
450.553	25818.23
450.76	26002.55
450.966	26942.56
451.172	26573.93
451.378	27227.23
451.584	26809.45
451.791	27597.91
451.997	27573.34
452.203	27585.63
452.409	28034.13
452.615	27731.03
452.821	26686.57
453.027	26645.61
453.233	27688.03
453.44	27053.16
453.646	26705
453.852	27219.04
454.058	27722.84
454.264	26752.1
454.47	27370.59
454.676	26614.89
454.882	27757.66
455.088	25224.32
455.294	25875.57
455.5	26158.19
455.705	26494.06
455.911	25121.92
456.117	24716.42
456.323	24423.56
456.529	23469.21
456.735	24054.93
456.941	23829.65
457.147	22987.94
457.352	22246.57
457.558	22477.99
457.764	22224.04
457.97	22148.27
458.176	21626.04
458.381	21570.74
458.587	20329.67
458.793	20432.07
458.999	19426.52
459.204	20911.3
459.41	20067.53
459.616	18830.56
459.821	18705.63
460.027	18824.42
460.233	18511.08
460.438	17661.17
460.644	18164.97
460.85	17007.87
461.055	16778.5
461.261	16745.73
461.466	15150.36
461.672	15125.79
461.878	16153.87
462.083	14902.56
462.289	14853.41
462.494	14544.16
462.7	14071.08
462.905	13554.99
463.111	13972.78
463.316	14226.73
463.522	13970.73
463.727	13968.68
463.932	13974.83
464.138	13583.66
464.343	13575.47
464.549	13471.03
464.754	13888.81
464.959	13794.61
465.165	13651.25
465.37	12981.56
465.575	12836.16
465.781	13456.69
465.986	13577.52
466.191	12934.46
466.397	12508.48
466.602	11973.96
466.807	12694.85
467.012	12514.63
467.218	12512.58
467.423	12508.48
467.628	12504.39
467.833	12901.69
468.038	12373.32
468.244	11867.47
468.449	12684.61
468.654	12244.29
468.859	11984.2
469.064	11965.77
469.269	11511.12
469.474	11613.52
469.679	11748.68
469.885	11466.07
470.09	11593.04
470.295	11742.54
470.5	11287.89
470.705	11394.39
470.91	11095.38
471.115	10992.98
471.32	11177.3
471.525	11189.59
471.73	10755.42
471.935	10839.39
472.139	10667.36
472.344	10710.36
472.549	10567.01
472.754	10341.73
472.959	10040.68
473.164	9999.72
473.369	9721.2
473.574	10255.72
473.778	10231.14
473.983	9801.07
474.188	9946.47
474.393	9432.43
474.598	9659.76
474.802	9272.69
475.007	9338.23
475.212	9205.11
475.417	8979.83
475.621	8838.52
475.826	8955.26
476.031	8791.42
476.235	8805.75
476.44	8807.8
476.645	8611.2
476.849	8740.22
477.054	8525.18
477.259	8410.5
477.463	8533.37
477.668	8197.51
477.872	8031.62
478.077	8146.31
478.282	8093.06
478.486	7714.19
478.691	7880.07
478.895	7816.58
479.1	7847.3
479.304	7779.72
479.509	7413.13
479.713	7470.48
479.918	7363.98
480.122	7271.83
480.326	7490.96
480.531	7380.37
480.735	7314.83
480.94	7515.53
481.144	7493.01
481.348	7196.05
481.553	7185.81
481.757	7304.59
481.961	7218.58
482.166	7331.22
482.37	7355.79
482.574	7320.98
482.778	7189.91
482.983	7296.4
483.187	7187.86
483.391	7302.54
483.595	7249.3
483.8	7091.6
484.004	7300.5
484.208	7372.18
484.412	7216.53
484.616	7310.74
484.821	7288.21
485.025	6907.29
485.229	7394.7
485.433	7239.06
485.637	7198.1
485.841	7228.82
486.045	7105.94
486.249	7263.63
486.453	7255.44
486.657	7302.54
486.861	7292.3
487.065	7251.35
487.269	7312.78
487.473	7224.72
487.677	7427.47
487.881	7339.41
488.085	7323.02
488.289	7288.21
488.493	7366.03
488.697	7316.88
488.901	7658.89
489.105	7460.24
489.309	7493.01
489.512	7515.53
489.716	7464.33
489.92	7456.14
490.124	7533.97
490.328	7640.46
490.531	7714.19
490.735	7708.04
490.939	7699.85
491.143	7587.21
491.346	7798.15
491.55	7871.88
491.754	7937.41
491.958	7923.08
492.161	8078.72
492.365	7929.22
492.569	7937.41
492.772	7916.94
492.976	8074.63
493.18	7959.94
493.383	8449.41
493.587	8263.04
493.79	8209.79
493.994	8344.96
494.197	8420.74
494.401	8465.79
494.605	8496.51
494.808	8646.01
495.012	8877.43
495.215	8779.13
495.419	8889.72
495.622	8998.26
495.825	8918.39
496.029	9090.42
496.232	9256.31
496.436	9276.79
496.639	9657.71
496.843	9368.95
497.046	9569.65
497.249	9756.01
497.453	9878.89
497.656	10034.53
497.859	9899.37
498.063	10034.53
498.266	10384.74
498.469	10362.21
498.673	10399.07
498.876	10577.25
499.079	10548.58
499.282	10782.04
499.485	11128.15
499.689	10999.13
499.892	11291.99
500.095	11181.4
500.298	11715.92
500.501	11547.98
500.705	11738.44
500.908	11851.08
501.111	12125.51
501.314	12266.82
501.517	12330.31
501.72	12590.4
501.923	12686.65
502.126	13049.14
502.329	13190.45
502.532	13131.06
502.735	13382.96
502.938	13415.73
503.141	13620.53
503.344	13843.76
503.547	14101.8
503.75	14042.41
503.953	14370.08
504.156	14615.84
504.359	14695.71
504.562	14853.41
504.765	15144.22
504.968	15273.24
505.17	15545.62
505.373	15519
505.576	15916.3
505.779	16192.78
505.982	16237.83
506.185	16663.81
506.387	16821.5
506.59	17024.25
506.793	17286.39
506.996	17337.59
507.198	17597.68
507.401	17562.87
507.604	17874.16
507.807	18269.42
508.009	18355.43
508.212	18742.5
508.415	18668.77
508.617	19219.67
508.82	19340.5
509.022	19213.53
509.225	19614.93
509.428	19782.87
509.63	20131.02
509.833	19981.52
510.035	20862.15
510.238	20778.18
510.44	20802.75
510.643	21404.86
510.845	21382.33
511.048	21324.99
511.25	21769.4
511.453	21855.41
511.655	22938.79
511.858	22482.09
512.06	22623.4
512.262	23084.19
512.465	23229.6
512.667	23495.83
512.87	23766.17
513.072	23915.67
513.274	24435.85
513.477	24661.13
513.679	25017.47
513.881	25527.42
514.084	25316.48
514.286	25355.39
514.488	25906.29
514.69	26211.44
514.893	26526.83
515.095	26676.33
515.297	26846.31
515.499	26956.9
515.701	27472.99
515.904	27606.11
516.106	27792.47
516.308	28011.6
516.51	28275.79
516.712	28644.43
516.914	29103.17
517.116	29303.87
517.318	29185.09
517.52	29703.23
517.722	29713.47
517.925	30467.12
518.127	30848.04
518.329	31044.65
518.531	30848.04
518.733	31294.5
518.935	31425.57
519.136	31536.16
519.338	32357.39
519.54	32320.53
519.742	32670.73
519.944	32918.54
520.146	33530.88
520.348	33866.75
520.55	33790.97
520.752	33494.02
520.954	34305.01
521.155	34204.66
521.357	34774
521.559	34728.94
521.761	35316.71
521.963	35486.69
522.164	35402.72
522.366	35765.21
522.568	36193.24
522.77	36379.6
522.971	36955.08
523.173	36772.81
523.375	36922.32
523.576	37026.76
523.778	37041.1
523.98	37602.24
524.181	37913.53
524.383	37575.62
524.584	38611.89
524.786	38407.09
524.988	38351.8
525.189	39029.68
525.391	39166.89
525.592	39338.92
525.794	39844.77
525.995	39519.14
526.197	39740.32
526.398	39455.65
526.6	39961.5
526.801	40407.96
527.003	40471.45
527.204	40526.74
527.406	40592.28
527.607	40610.71
527.808	41051.02
528.01	40700.82
528.211	41087.89
528.412	42124.16
528.614	41317.26
528.815	41939.84
529.016	42040.19
529.218	41776
529.419	42255.23
529.62	41778.05
529.822	41790.34
530.023	41739.14
530.224	42253.18
530.425	41870.21
530.626	41950.08
530.828	42290.04
531.029	43354.99
531.23	42302.33
531.431	42703.73
531.632	42924.91
531.833	42900.34
532.035	43068.27
532.236	42752.88
532.437	42967.92
532.638	42986.35
532.839	43211.63
533.04	43205.48
533.241	42869.62
533.442	43697
533.643	43332.46
533.844	42961.78
534.045	43037.55
534.246	43160.43
534.447	43955.04
534.648	43293.55
534.849	43455.34
535.05	43514.73
535.251	43762.53
535.451	43680.61
535.652	43860.83
535.853	43479.91
536.054	44041.06
536.255	43864.93
536.456	43496.3
536.657	44667.73
536.857	43547.5
537.058	43555.69
537.259	45052.75
537.46	44417.88
537.66	44036.96
537.861	44161.89
538.062	44069.73
538.263	44503.9
538.463	43893.6
538.664	43936.61
538.865	44381.02
539.065	44563.29
539.266	43834.21
539.466	44372.83
539.667	44147.55
539.868	44639.06
540.068	44487.51
540.269	44084.06
540.469	44405.59
540.67	43918.18
540.87	44024.67
541.071	43926.37
541.271	44292.96
541.472	44352.35
541.672	44151.65
541.873	44598.1
542.073	43938.66
542.274	44729.17
542.474	44362.59
542.675	44024.67
542.875	44827.48
543.075	44430.17
543.276	44180.32
543.476	44858.2
543.676	44243.8
543.877	44608.34
544.077	44555.1
544.277	44229.47
544.478	44458.84
544.678	44338.01
544.878	44323.68
545.078	44653.4
545.279	44098.4
545.479	44362.59
545.679	44659.54
545.879	44401.5
546.079	44561.24
546.28	44419.93
546.48	44079.97
546.68	44565.34
546.88	44936.02
547.08	44712.79
547.28	44274.52
547.48	44092.26
547.68	44438.36
547.88	44170.08
548.081	44145.5
548.281	44409.69
548.481	44421.98
548.681	44708.69
548.881	44700.5
549.081	44118.88
549.28	44411.74
549.48	44479.32
549.68	44151.65
549.88	45106
550.08	44383.07
550.28	44538.71
550.48	44571.48
550.68	45085.52
550.88	44534.62
551.08	44329.82
551.279	44432.22
551.479	44180.32
551.679	44354.4
551.879	44303.2
552.079	44837.72
552.278	44704.6
552.478	44614.49
552.678	44409.69
552.878	44700.5
553.077	44110.69
553.277	44184.41
553.477	44704.6
553.676	44497.75
553.876	44366.68
554.076	44405.59
554.275	44053.34
554.475	43895.65
554.674	44557.14
554.874	44491.61
555.074	44153.69
555.273	43961.19
555.473	44241.76
555.672	44215.13
555.872	44389.21
556.071	44854.1
556.271	44475.23
556.47	44403.55
556.67	43484.01
556.869	44110.69
557.068	43883.36
557.268	43705.19
557.467	43955.04
557.667	43758.44
557.866	43416.43
558.065	43899.75
558.265	43674.47
558.464	43897.7
558.663	44094.3
558.863	43617.13
559.062	44317.53
559.261	43443.05
559.461	43942.75
559.66	43832.16
559.859	43842.4
560.058	43285.36
560.258	43762.53
560.457	42931.06
560.656	43828.07
560.855	43899.75
561.054	43660.13
561.253	43238.25
561.453	43629.41
561.652	43115.37
561.851	44073.82
562.05	43553.64
562.249	42982.26
562.448	43936.61
562.647	43697
562.846	43268.97
563.045	43504.49
563.244	43039.6
563.443	43492.2
563.642	42969.97
563.841	43211.63
564.04	43182.96
564.239	43709.29
564.438	43010.93
564.637	43182.96
564.836	43795.3
565.035	43043.7
565.234	43137.9
565.432	43107.18
565.631	43135.85
565.83	43236.2
566.029	43004.78
566.228	42853.23
566.427	43017.07
566.625	42611.57
566.824	42646.39
567.023	43144.05
567.222	42554.23
567.42	42656.63
567.619	42965.87
567.818	42781.56
568.016	42591.09
568.215	42978.16
568.414	42799.99
568.612	42902.39
568.811	42648.44
569.01	42677.11
569.208	42300.28
569.407	42591.09
569.605	42115.97
569.804	42644.34
570.002	42599.29
570.201	42369.91
570.4	41943.94
570.598	42353.53
570.797	42103.68
570.995	42079.1
571.193	41499.53
571.392	42253.18
571.59	41747.33
571.789	42093.44
571.987	41843.59
572.186	41747.33
572.384	41589.64
572.582	41786.24
572.781	41900.93
572.979	41409.42
573.177	41583.49
573.376	41290.63
573.574	41194.38
573.772	41612.17
573.971	41159.56
574.169	41259.91
574.367	40919.95
574.565	41325.45
574.763	41126.8
574.962	40942.48
575.16	40659.86
575.358	40856.46
575.556	39938.97
575.754	41046.93
575.952	40502.17
576.151	40440.73
576.349	40422.3
576.547	40108.96
576.745	40346.52
576.943	40371.1
577.141	40276.89
577.339	40254.36
577.537	40367
577.735	40037.28
577.933	39424.93
578.131	40084.38
578.329	39848.86
578.527	39492.52
578.725	39236.52
578.923	39486.37
579.121	39127.98
579.319	39250.86
579.516	39580.58
579.714	39218.09
579.912	39005.1
580.11	38810.54
580.308	39019.44
580.506	38953.9
580.704	38282.17
580.901	38867.89
581.099	38849.46
581.297	38398.9
581.495	38441.91
581.692	38704.05
581.89	38327.22
582.088	38527.92
582.285	38276.02
582.483	38396.85
582.681	38405.05
582.878	38151.1
583.076	37641.15
583.274	38011.84
583.471	37389.25
583.669	37563.33
583.866	37358.53
584.064	37776.32
584.262	37575.62
584.459	37393.35
584.657	36860.88
584.854	37336.01
585.052	36711.38
585.249	36854.73
585.447	37049.29
585.644	36756.43
585.841	36742.1
586.039	37235.66
586.236	36684.75
586.434	36606.93
586.631	36539.35
586.828	36525.01
587.026	36230.1
587.223	36170.71
587.42	36350.93
587.618	36213.72
587.815	35486.69
588.012	35793.89
588.21	35853.28
588.407	35980.25
588.604	35601.38
588.801	35347.43
588.999	35597.28
589.196	35498.98
589.393	35568.61
589.59	35314.66
589.787	35257.32
589.984	34825.2
590.182	34548.72
590.379	35181.54
590.576	34862.06
590.773	34618.35
590.97	34554.86
591.167	34485.23
591.364	33985.53
591.561	34028.54
591.758	33936.38
591.955	34032.63
592.152	33702.91
592.349	33719.29
592.546	33772.54
592.743	33551.36
592.94	33510.4
593.137	33528.83
593.334	33633.28
593.531	33344.52
593.727	33700.86
593.924	33207.3
594.121	33065.99
594.318	33455.11
594.515	32832.52
594.712	33027.08
594.908	32601.1
595.105	32865.29
595.302	32560.14
595.499	32576.53
595.696	32535.57
595.892	32136.21
596.089	32578.57
596.286	32429.07
596.482	32117.78
596.679	32066.58
596.876	31802.39
597.072	31724.57
597.269	31857.69
597.466	31544.35
597.662	31638.56
597.859	31716.38
598.055	31564.83
598.252	31267.87
598.448	31423.52
598.645	31310.88
598.841	30975.02
599.038	31032.36
599.234	31278.11
599.431	30690.35
599.627	30712.88
599.824	31048.74
600.02	30735.4
600.217	30669.87
600.413	30622.76
600.609	30157.88
600.806	30022.71
601.002	30172.21
601.198	30047.29
601.395	29832.25
601.591	29803.58
601.787	29951.03
601.984	29709.37
602.18	29824.06
602.376	29746.23
602.572	29279.3
602.769	29193.28
602.965	29191.23
603.161	29283.39
603.357	28863.56
603.553	29021.25
603.75	28843.08
603.946	28783.69
604.142	29002.82
604.338	28365.9
604.534	28935.24
604.73	28294.22
604.926	28351.57
605.122	28449.87
605.318	28245.07
605.514	28083.28
605.71	28197.97
605.906	27939.93
606.102	28042.32
606.298	27694.17
606.494	28163.15
606.69	27888.73
606.886	27980.89
607.082	27434.08
607.278	27741.27
607.474	27290.72
607.67	27567.2
607.866	27268.19
608.062	27597.91
608.257	27194.47
608.453	27350.11
608.649	27120.74
608.845	26965.09
609.041	27071.59
609.236	27497.56
609.432	27339.87
609.628	27219.04
609.824	26913.89
610.019	27087.97
610.215	27270.24
610.411	27008.1
610.606	26213.49
610.802	26555.5
610.998	26473.58
611.193	26453.1
611.389	26381.42
611.584	26129.52
611.78	26166.38
611.976	26502.25
612.171	26016.88
612.367	26231.92
612.562	26006.64
612.758	25719.93
612.953	25629.82
613.149	26057.84
613.344	25580.67
613.539	26201.2
613.735	25982.07
613.93	25904.24
614.126	25949.3
614.321	26129.52
614.517	25754.74
614.712	25492.6
614.907	25478.27
615.103	25816.18
615.298	25042.05
615.493	25535.61
615.688	24947.84
615.884	25648.25
616.079	24839.3
616.274	25255.04
616.47	25220.22
616.665	25056.39
616.86	24937.6
617.055	24872.07
617.25	25021.57
617.445	24913.03
617.641	24560.78
617.836	24771.72
618.031	24122.51
618.226	24769.67
618.421	24355.98
618.616	24446.09
618.811	23960.72
619.006	24249.49
619.201	23864.47
619.396	24085.65
619.591	23880.85
619.786	24032.4
619.981	23340.19
620.176	23993.49
620.371	23434.39
620.566	23436.44
620.761	23434.39
620.956	23508.12
621.151	22609.06
621.346	23116.96
621.541	23002.27
621.735	22635.69
621.93	22529.19
622.125	22918.31
622.32	22410.41
622.515	22613.16
622.709	22181.04
622.904	22101.17
623.099	21988.53
623.294	21935.28
623.488	21755.06
623.683	21908.66
623.878	21519.54
624.072	21419.19
624.267	21134.53
624.462	21148.86
624.656	21286.08
624.851	21101.76
625.046	20907.2
625.24	20970.69
625.435	20391.11
625.629	20534.47
625.824	20589.77
626.018	20470.98
626.213	19897.55
626.407	20077.77
626.602	19838.16
626.796	20272.33
626.991	20059.34
627.185	19905.74
627.38	19662.04
627.574	19705.04
627.768	19338.46
627.963	19471.57
628.157	19209.43
628.352	19457.24
628.546	19047.65
628.74	18971.87
628.935	18740.45
629.129	18945.25
629.323	18494.69
629.517	18576.61
629.712	18679.01
629.906	18226.41
630.1	18113.77
630.294	18109.68
630.489	18214.12
630.683	18124.01
630.877	17937.65
631.071	17874.16
631.265	17892.59
631.459	17427.7
631.653	17597.68
631.848	17652.98
632.042	17335.54
632.236	17667.31
632.43	17128.7
632.624	17159.42
632.818	17263.86
633.012	17034.49
633.206	17157.37
633.4	16958.72
633.594	16422.15
633.788	16829.7
633.982	16465.16
634.176	16530.69
634.369	16391.43
634.563	16188.68
634.757	15975.69
634.951	16184.59
635.145	16059.66
635.339	16178.44
635.533	15834.38
635.726	16061.71
635.92	15529.24
636.114	15529.24
636.308	15441.17
636.501	15351.06
636.695	15189.27
636.889	15283.48
637.083	15289.62
637.276	15191.32
637.47	14953.76
637.664	15101.21
637.857	15168.79
638.051	14832.93
638.244	14611.75
638.438	14578.98
638.632	14765.34
638.825	14439.72
639.019	14533.92
639.212	14458.15
639.406	14347.56
639.599	14343.46
639.793	14193.96
639.986	13909.29
640.18	13901.1
640.373	14005.55
640.567	13686.06
640.76	13843.76
640.954	13419.83
641.147	13700.4
641.34	13399.35
641.534	13579.57
641.727	13501.75
641.92	13579.57
642.114	13307.19
642.307	13081.91
642.5	13145.4
642.694	12993.85
642.887	13067.58
643.08	13178.17
643.273	12899.64
643.467	12922.17
643.66	12723.52
643.853	12506.43
644.046	12426.56
644.239	12457.28
644.432	12326.21
644.626	12361.03
644.819	12490.05
645.012	12162.37
645.205	12217.67
645.398	11990.35
645.591	11959.63
645.784	11785.55
645.977	11697.49
646.17	11709.77
646.363	11877.71
646.556	11488.59
646.749	11597.14
646.942	11513.17
647.135	11554.13
647.328	11423.06
647.521	11195.73
647.714	11169.11
647.907	11140.44
648.099	11283.8
648.292	11019.61
648.485	10988.89
648.678	10929.5
648.871	10886.49
649.064	10714.46
649.256	10913.11
649.449	10782.04
649.642	10603.87
649.835	10446.18
650.027	10495.33
650.22	10306.91
650.413	10335.59
650.605	10366.31
650.798	10390.88
650.991	10339.68
651.183	10202.47
651.376	9975.14
651.568	10233.19
651.761	10061.16
651.954	9809.26
652.146	9956.71
652.339	9725.29
652.531	9647.47
652.724	9833.83
652.916	9461.1
653.109	9450.86
653.301	9471.34
653.494	9698.67
653.686	9309.55
653.879	9506.16
654.071	9164.15
654.263	9166.2
654.456	9278.83
654.648	8863.1
654.84	8961.4
655.033	9102.71
655.225	8879.48
655.417	8797.56
655.61	8992.12
655.802	8729.98
655.994	8748.41
656.186	8732.03
656.379	8729.98
656.571	8629.63
656.763	8590.72
656.955	8533.37
657.148	8435.07
657.34	8416.64
657.532	8209.79
657.724	8234.37
657.916	8111.49
658.108	8134.02
658.3	8134.02
658.492	8152.45
658.684	7878.02
658.876	7937.41
659.068	7757.19
659.26	7732.62
659.452	7882.12
659.644	7734.67
659.836	7626.12
660.028	7736.71
660.22	7611.79
660.412	7527.82
660.604	7255.44
660.796	7400.85
660.988	7316.88
661.18	7417.23
661.372	7271.83
661.563	7357.84
661.755	7136.66
661.947	7155.09
662.139	7214.48
662.331	7124.37
662.522	7142.8
662.714	7075.22
662.906	6907.29
663.097	6927.77
663.289	6763.93
663.481	6747.55
663.673	6565.28
663.864	6725.02
664.056	6624.67
664.247	6526.36
664.439	6413.73
664.631	6428.06
664.822	6497.69
665.014	6442.4
665.205	6452.64
665.397	6383.01
665.588	6260.13
665.78	6081.96
665.971	6135.2
666.163	6274.46
666.354	6110.63
666.546	6063.52
666.737	5922.21
666.929	6186.4
667.12	5864.87
667.311	5854.63
667.503	5887.4
667.694	5825.96
667.885	5647.79
668.077	5811.62
668.268	5627.31
668.459	5647.79
668.651	5604.78
668.842	5522.86
669.033	5524.91
669.224	5389.74
669.416	5504.43
669.607	5483.95
669.798	5465.52
669.989	5281.2
670.18	5363.12
670.371	5336.49
670.563	5250.48
670.754	5223.86
670.945	5127.6
671.136	5313.97
671.327	5182.9
671.518	5186.99
671.709	5201.33
671.9	5086.64
672.091	5012.92
672.282	5076.4
672.473	4883.89
672.664	4947.38
672.855	4953.52
673.046	4887.99
673.237	5035.44
673.428	4906.42
673.619	4801.97
673.809	4818.36
674	4761.02
674.191	4709.82
674.382	4691.38
674.573	4670.9
674.764	4685.24
674.954	4767.16
675.145	4525.5
675.336	4591.03
675.527	4492.73
675.717	4658.62
675.908	4447.68
676.099	4341.18
676.289	4625.85
676.48	4441.53
676.671	4392.38
676.861	4314.56
677.052	4402.62
677.243	4365.76
677.433	4300.22
677.624	4279.74
677.814	4330.94
678.005	4316.61
678.195	4177.34
678.386	4300.22
678.576	4224.45
678.767	4189.63
678.957	4208.06
679.148	4150.72
679.338	4193.73
679.529	4134.34
679.719	4068.8
679.909	4111.81
680.1	4001.22
680.29	4185.54
680.481	4165.06
680.671	4167.1
680.861	4003.27
681.052	3954.12
681.242	4060.61
681.432	4068.8
681.622	3937.73
681.813	3923.4
682.003	4003.27
682.193	3888.58
682.383	3907.01
682.573	3884.48
682.764	3786.18
682.954	3868.1
683.144	3775.94
683.334	3730.89
683.524	3745.22
683.714	3769.8
683.904	3661.26
684.094	3835.33
684.284	3851.72
684.474	3773.89
684.664	3741.13
684.854	3767.75
685.044	3603.91
685.234	3597.77
685.424	3679.69
685.614	3741.13
685.804	3716.55
685.994	3587.53
686.184	3722.7
686.374	3603.91
686.564	3691.98
686.753	3685.83
686.943	3681.74
687.133	3661.26
687.323	3583.43
687.513	3544.52
687.702	3614.15
687.892	3644.87
688.082	3583.43
688.272	3571.15
688.461	3593.67
688.651	3644.87
688.841	3599.82
689.03	3481.03
689.22	3511.75
689.41	3495.37
689.599	3560.91
689.789	3587.53
689.979	3567.05
690.168	3608.01
690.358	3521.99
690.547	3444.17
690.737	3501.51
690.926	3534.28
691.116	3438.03
691.305	3554.76
691.495	3401.16
691.684	3536.33
691.874	3483.08
692.063	3474.89
692.252	3456.46
692.442	3481.03
692.631	3403.21
692.82	3360.2
693.01	3360.2
693.199	3366.35
693.388	3266
693.578	3276.24
693.767	3249.61
693.956	3306.96
694.146	3407.31
694.335	3259.85
694.524	3245.52
694.713	3266
694.902	3403.21
695.092	3325.39
695.281	3243.47
695.47	3130.83
695.659	3294.67
695.848	3132.88
696.037	3169.74
696.226	3231.18
696.415	3210.7
696.604	3208.66
696.793	3233.23
696.982	3145.17
697.171	3079.63
697.36	3163.6
697.549	3075.54
697.738	3096.02
697.927	3046.87
698.116	3065.3
698.305	2942.42
698.494	2956.75
698.683	3053.01
698.872	3003.86
699.061	3026.39
699.25	2901.46
699.438	2960.85
699.627	2938.32
699.816	2864.6
700.005	3036.63
700.193	2915.8
700.382	3005.91
700.571	2858.45
700.76	2883.03
700.948	3005.91
701.137	2731.48
701.326	2850.26
701.514	2768.34
701.703	2934.23
701.892	2762.2
702.08	2831.83
702.269	2852.31
702.457	2876.88
702.646	2749.91
702.834	2774.49
703.023	2676.18
703.212	2731.48
703.4	2704.85
703.589	2706.9
703.777	2643.42
703.965	2661.85
704.154	2549.21
704.342	2600.41
704.531	2555.35
704.719	2538.97
704.907	2618.84
705.096	2557.4
705.284	2590.17
705.472	2504.15
705.661	2559.45
705.849	2618.84
706.037	2444.76
706.226	2551.26
706.414	2543.07
706.602	2498.01
706.79	2557.4
706.979	2477.53
707.167	2381.28
707.355	2428.38
707.543	2389.47
707.731	2334.17
707.919	2354.65
708.107	2297.31
708.296	2383.32
708.484	2395.61
708.672	2348.51
708.86	2291.17
709.048	2227.68
709.236	2203.1
709.424	2256.35
709.612	2248.16
709.8	2278.88
709.988	2319.84
710.176	2344.41
710.364	2340.32
710.551	2248.16
710.739	2190.81
710.927	2092.51
711.115	2215.39
711.303	2194.91
711.491	2225.63
711.679	2123.23
711.866	2108.9
712.054	2121.18
712.242	2080.22
712.43	2166.24
712.617	2006.5
712.805	2039.26
712.993	2055.65
713.181	2041.31
713.368	2014.69
713.556	1973.73
713.744	1981.92
713.931	2086.37
714.119	2012.64
714.306	2055.65
714.494	1938.91
714.682	1902.05
714.869	2029.03
715.057	1859.04
715.244	1897.96
715.432	1916.39
715.619	1926.63
715.807	1832.42
715.994	1897.96
716.182	1842.66
716.369	1926.63
716.556	1826.28
716.744	1789.41
716.931	1742.31
717.119	1879.52
717.306	1830.37
717.493	1846.76
717.681	1775.08
717.868	1836.52
718.055	1713.64
718.242	1734.12
718.43	1648.1
718.617	1793.51
718.804	1719.78
718.991	1703.4
719.179	1672.68
719.366	1590.76
719.553	1719.78
719.74	1586.66
719.927	1623.53
720.114	1758.69
720.301	1601
720.488	1629.67
720.676	1545.7
720.863	1623.53
721.05	1586.66
721.237	1504.75
721.424	1611.24
721.611	1594.86
721.798	1601
721.985	1609.19
722.172	1539.56
722.358	1609.19
722.545	1555.94
722.732	1480.17
722.919	1463.79
723.106	1525.22
723.293	1480.17
723.48	1461.74
723.667	1433.07
723.853	1447.4
724.04	1445.35
724.227	1326.57
724.414	1410.54
724.6	1375.72
724.787	1447.4
724.974	1431.02
725.161	1299.95
725.347	1349.1
725.534	1467.88
725.72	1312.24
725.907	1304.04
726.094	1297.9
726.28	1426.92
726.467	1287.66
726.653	1340.91
726.84	1392.11
727.027	1287.66
727.213	1279.47
727.4	1388.01
727.586	1338.86
727.773	1254.89
727.959	1248.75
728.145	1273.32
728.332	1234.41
728.518	1234.41
728.705	1250.8
728.891	1326.57
729.077	1222.13
729.264	1195.5
729.45	1170.93
729.636	1144.3
729.823	1205.74
730.009	1285.61
730.195	1101.3
730.382	1142.25
730.568	1156.59
730.754	1197.55
730.94	1275.37
731.126	1136.11
731.313	1232.37
731.499	1093.1
731.685	1109.49
731.871	1162.73
732.057	1236.46
732.243	1295.85
732.429	1068.53
732.615	1078.77
732.801	1078.77
732.987	1054.19
733.173	1265.13
733.359	1158.64
733.545	1195.5
733.731	1136.11
733.917	1101.3
734.103	1117.68
734.289	1136.11
734.475	1058.29
734.661	1080.82
734.847	1080.82
735.033	1002.99
735.219	1086.96
735.404	1005.04
735.59	1029.62
735.776	1060.34
735.962	1029.62
736.148	1007.09
736.333	1029.62
736.519	966.13
736.705	1041.9
736.89	986.61
737.076	914.93
737.262	1002.99
737.447	931.31
737.633	992.75
737.819	947.7
738.004	964.08
738.19	925.17
738.375	953.84
738.561	996.85
738.747	974.32
738.932	863.73
739.118	908.79
739.303	935.41
739.489	964.08
739.674	871.92
739.859	894.45
740.045	855.54
740.23	906.74
740.416	843.25
740.601	857.59
740.786	853.49
740.972	808.44
741.157	919.03
741.342	751.09
741.528	931.31
741.713	843.25
741.898	908.79
742.084	892.4
742.269	865.78
742.454	853.49
742.639	806.39
742.824	882.16
743.01	792.05
743.195	871.92
743.38	818.68
743.565	767.48
743.75	808.44
743.935	814.58
744.12	804.34
744.305	742.9
744.49	804.34
744.675	835.06
744.86	669.17
745.045	767.48
745.23	804.34
745.415	734.71
745.6	753.14
745.785	787.96
745.97	697.85
746.155	742.9
746.34	751.09
746.525	790
746.71	798.2
746.895	751.09
747.079	728.56
747.264	771.57
747.449	773.62
747.634	667.13
747.819	732.66
748.003	644.6
748.188	642.55
748.373	652.79
748.557	697.85
748.742	593.4
748.927	660.98
749.111	685.56
749.296	507.38
749.481	728.56
749.665	693.75
749.85	613.88
750.034	628.21
750.219	611.83
750.404	660.98
750.588	593.4
750.773	654.84
750.957	636.41
751.141	599.54
751.326	574.97
751.51	628.21
751.695	579.06
751.879	564.73
752.064	747
752.248	620.02
752.432	630.26
752.617	636.41
752.801	534.01
752.985	581.11
753.17	570.87
753.354	601.59
753.538	611.83
753.722	534.01
753.907	558.58
754.091	525.82
754.275	548.34
754.459	613.88
754.643	536.06
754.828	697.85
755.012	611.83
755.196	527.86
755.38	478.71
755.564	546.3
755.748	632.31
755.932	523.77
756.116	624.12
756.3	550.39
756.484	554.49
756.668	566.78
756.852	613.88
757.036	458.23
757.22	493.05
757.404	488.95
757.588	525.82
757.772	542.2
757.956	390.65
758.14	454.14
758.323	552.44
758.507	558.58
758.691	521.72
758.875	425.47
759.059	581.11
759.242	548.34
759.426	501.24
759.61	427.51
759.794	468.47
759.977	472.57
760.161	419.32
760.345	466.42
760.528	425.47
760.712	429.56
760.895	415.23
761.079	382.46
761.263	491
761.446	454.14
761.63	521.72
761.813	460.28
761.997	357.88
762.18	398.84
762.364	407.03
762.547	460.28
762.731	421.37
762.914	415.23
763.098	431.61
763.281	435.71
763.464	505.34
763.648	441.85
763.831	361.98
764.015	433.66
764.198	366.07
764.381	423.42
764.564	464.38
764.748	447.99
764.931	394.75
765.114	429.56
765.297	421.37
765.481	452.09
765.664	417.27
765.847	353.79
766.03	415.23
766.213	390.65
766.397	404.99
766.58	400.89
766.763	378.36
766.946	341.5
767.129	384.51
767.312	390.65
767.495	359.93
767.678	407.03
767.861	384.51
768.044	427.51
768.227	419.32
768.41	404.99
768.593	413.18
768.776	355.83
768.959	398.84
769.142	368.12
769.324	370.17
769.507	396.79
769.69	431.61
769.873	431.61
770.056	374.27
770.239	366.07
770.421	472.57
770.604	359.93
770.787	386.55
770.97	364.03
771.152	337.4
771.335	390.65
771.518	382.46
771.7	374.27
771.883	466.42
772.066	361.98
772.248	400.89
772.431	351.74
772.613	366.07
772.796	366.07
772.978	402.94
773.161	441.85
773.343	368.12
773.526	392.7
773.708	292.35
773.891	361.98
774.073	329.21
774.256	316.92
774.438	392.7
774.621	308.73
774.803	390.65
774.985	331.26
775.168	378.36
775.35	263.68
775.532	353.79
775.715	302.59
775.897	292.35
776.079	325.12
776.261	343.55
776.444	329.21
776.626	349.69
776.808	329.21
776.99	351.74
777.173	337.4
777.355	364.03
777.537	323.07
777.719	374.27
777.901	284.16
778.083	318.97
778.265	290.3
778.447	347.64
778.629	302.59
778.811	304.64
778.993	257.53
779.175	294.4
779.357	280.06
779.539	265.72
779.721	239.1
779.903	286.2
780.085	208.38
780.267	333.31
780.449	261.63
780.631	314.88
780.812	312.83
780.994	267.77
781.176	239.1
781.358	275.96
781.54	214.52
781.721	275.96
781.903	228.86
782.085	294.4
782.267	239.1
782.448	280.06
782.63	230.91
782.812	263.68
782.993	259.58
783.175	235
783.357	181.76
783.538	251.39
783.72	259.58
783.901	196.09
784.083	325.12
784.264	230.91
784.446	259.58
784.627	294.4
784.809	212.48
784.99	230.91
785.172	214.52
785.353	267.77
785.535	247.29
785.716	218.62
785.897	208.38
786.079	161.28
786.26	247.29
786.441	239.1
786.623	220.67
786.804	226.81
786.985	228.86
787.167	251.39
787.348	202.24
787.529	284.16
787.71	194.05
787.891	220.67
788.073	210.43
788.254	179.71
788.435	243.2
788.616	237.05
788.797	181.76
788.978	267.77
789.159	187.9
789.34	245.24
789.522	175.61
789.703	204.28
789.884	185.85
790.065	194.05
790.246	189.95
790.427	183.81
790.607	212.48
790.788	187.9
790.969	161.28
791.15	173.57
791.331	167.42
791.512	189.95
791.693	230.91
791.874	235
792.054	130.56
792.235	216.57
792.416	210.43
792.597	196.09
792.778	153.09
792.958	157.18
793.139	210.43
793.32	187.9
793.5	128.51
793.681	196.09
793.862	165.37
794.042	194.05
794.223	185.85
794.404	157.18
794.584	161.28
794.765	134.65
794.945	99.84
795.126	132.61
795.306	179.71
795.487	185.85
795.667	194.05
795.848	128.51
796.028	155.13
796.209	159.23
796.389	130.56
796.57	177.66
796.75	194.05
796.93	179.71
797.111	153.09
797.291	122.37
797.471	112.13
797.652	173.57
797.832	151.04
798.012	120.32
798.192	151.04
798.373	177.66
798.553	118.27
798.733	116.22
798.913	196.09
799.093	163.33
799.274	142.85
799.454	187.9
799.634	122.37
799.814	200.19
799.994	105.98
800.174	120.32
800.354	95.74
800.534	132.61
800.714	91.65
800.894	136.7
801.074	148.99
801.254	175.61
801.434	95.74
801.614	169.47
801.794	138.75
801.974	321.02
802.154	95.74
802.334	173.57
802.514	85.5
802.693	87.55
802.873	89.6
803.053	175.61
803.233	148.99
803.413	153.09
803.592	69.12
803.772	67.07
803.952	46.59
804.131	75.26
804.311	50.69
804.491	116.22
804.67	85.5
804.85	13.82
805.03	151.04
805.209	132.61
805.389	79.36
805.568	110.08
805.748	103.93
805.928	163.33
806.107	48.64
806.287	112.13
806.466	79.36
806.646	65.02
806.825	95.74
807.004	110.08
807.184	34.3
807.363	85.5
807.543	110.08
807.722	148.99
807.901	48.64
808.081	85.5
808.26	132.61
808.439	103.93
808.619	112.13
808.798	99.84
808.977	71.17
809.156	142.85
809.336	71.17
809.515	30.21
809.694	38.4
809.873	32.26
810.052	114.17
810.231	105.98
810.411	79.36
810.59	103.93
810.769	75.26
810.948	83.45
811.127	73.21
811.306	89.6
811.485	101.89
811.664	89.6
811.843	85.5
812.022	91.65
812.201	71.17
812.38	116.22
812.559	40.45
812.737	120.32
812.916	87.55
813.095	42.5
813.274	79.36
813.453	91.65
813.632	85.5
813.811	54.78
813.989	46.59
814.168	79.36
814.347	128.51
814.526	187.9
814.704	116.22
814.883	128.51
815.062	118.27
815.24	122.37
815.419	99.84
815.598	50.69
815.776	40.45
815.955	79.36
816.133	1.54
816.312	103.93
816.49	9.73
816.669	30.21
816.847	-10.75
817.026	93.69
817.204	75.26
817.383	50.69
817.561	95.74
817.74	136.7
817.918	110.08
818.097	77.31
818.275	42.5
818.453	34.3
818.632	105.98
818.81	91.65
818.988	93.69
819.167	65.02
819.345	22.02
819.523	118.27
819.701	73.21
819.879	15.87
820.058	73.21
820.236	46.59
820.414	60.93
820.592	-49.66
820.77	69.12
820.948	89.6
821.127	58.88
821.305	42.5
821.483	56.83
821.661	105.98
821.839	89.6
822.017	71.17
822.195	159.23
822.373	87.55
822.551	52.74
822.729	54.78
822.907	77.31
823.085	69.12
823.262	5.63
823.44	99.84
823.618	52.74
823.796	93.69
823.974	-2.56
824.152	5.63
824.329	38.4
824.507	46.59
824.685	-41.47
824.863	65.02
825.04	89.6
825.218	75.26
825.396	28.16
825.574	105.98
825.751	24.06
825.929	58.88
826.107	52.74
826.284	60.93
826.462	44.54
826.639	22.02
826.817	93.69
826.994	73.21
827.172	30.21
827.349	40.45
827.527	103.93
827.704	124.41
827.882	124.41
828.059	-6.66
828.237	99.84
828.414	28.16
828.591	52.74
828.769	34.3
828.946	-33.28
829.124	122.37
829.301	108.03
829.478	99.84
829.655	46.59
829.833	83.45
830.01	1.54
830.187	34.3
830.364	42.5
830.542	-25.09
830.719	112.13
830.896	81.41
831.073	67.07
831.25	58.88
831.427	56.83
831.604	-29.18
831.782	65.02
831.959	118.27
832.136	9.73
832.313	54.78
832.49	56.83
832.667	48.64
832.844	122.37
833.021	130.56
833.198	52.74
833.374	114.17
833.551	36.35
833.728	30.21
833.905	38.4
834.082	24.06
834.259	5.63
834.436	48.64
834.612	22.02
834.789	103.93
834.966	65.02
835.143	93.69
835.319	71.17
835.496	108.03
835.673	38.4
835.85	65.02
836.026	65.02
836.203	-8.7
836.38	26.11
836.556	19.97
836.733	13.82
836.909	79.36
837.086	-25.09
837.262	34.3
837.439	-2.56
837.616	5.63
837.792	-45.57
837.968	9.73
838.145	48.64
838.321	73.21
838.498	24.06
838.674	44.54
838.851	77.31
839.027	13.82
839.203	50.69
839.38	-2.56
839.556	1.54
839.732	65.02
839.909	24.06
840.085	11.78
840.261	36.35
840.437	38.4
840.614	-2.56
840.79	136.7
840.966	54.78
841.142	52.74
841.318	58.88
841.494	42.5
841.671	46.59
841.847	-0.51
842.023	26.11
842.199	-18.94
842.375	54.78
842.551	32.26
842.727	73.21
842.903	118.27
843.079	17.92
843.255	67.07
843.431	-27.14
843.607	-82.43
843.783	15.87
843.959	9.73
844.134	7.68
844.31	13.82
844.486	13.82
844.662	30.21
844.838	108.03
845.013	46.59
845.189	46.59
845.365	28.16
845.541	-61.95
845.716	-16.9
845.892	-16.9
846.068	30.21
846.244	65.02
846.419	112.13
846.595	40.45
846.77	-27.14
846.946	50.69
847.122	116.22
847.297	-6.66
847.473	48.64
847.648	7.68
847.824	34.3
847.999	26.11
848.175	67.07
848.35	-10.75
848.526	69.12
848.701	58.88
848.876	67.07
849.052	79.36
849.227	81.41
849.403	24.06
849.578	56.83
849.753	22.02
849.929	58.88
850.104	36.35
850.279	65.02
850.454	-6.66
850.63	5.63
850.805	9.73
850.98	-18.94
851.155	19.97
851.33	73.21
851.505	-43.52
851.681	28.16
851.856	-51.71
852.031	58.88
852.206	91.65
852.381	65.02
852.556	40.45
852.731	91.65
852.906	54.78
853.081	79.36
853.256	-84.48
853.431	5.63
853.606	83.45
853.781	-10.75
853.956	26.11
854.131	54.78
854.305	19.97
854.48	67.07
854.655	11.78
854.83	15.87
855.005	34.3
855.18	-14.85
855.354	52.74
855.529	112.13
855.704	44.54
855.879	81.41
856.053	38.4
856.228	26.11
856.403	22.02
856.577	60.93
856.752	87.55
856.926	30.21
857.101	-33.28
857.276	-27.14
857.45	52.74
857.625	54.78
857.799	54.78
857.974	9.73
858.148	-39.42
858.323	-31.23
858.497	38.4
858.672	46.59
858.846	50.69
859.02	69.12
859.195	-74.24
859.369	77.31
859.543	26.11
859.718	26.11
859.892	-6.66
860.066	75.26
860.241	7.68
860.415	22.02
860.589	52.74
860.763	17.92
860.938	-39.42
861.112	69.12
861.286	-33.28
861.46	19.97
861.634	46.59
861.808	22.02
861.982	28.16
862.157	44.54
862.331	5.63
862.505	19.97
862.679	-51.71
862.853	38.4
863.027	7.68
863.201	-16.9
863.375	-33.28
863.549	5.63
863.722	79.36
863.896	15.87
864.07	-4.61
864.244	-16.9
864.418	87.55
864.592	46.59
864.766	52.74
864.939	5.63
865.113	71.17
865.287	-2.56
865.461	50.69
865.634	79.36
865.808	24.06
865.982	44.54
866.156	-49.66
866.329	1.54
866.503	-2.56
866.676	54.78
866.85	36.35
867.024	60.93
867.197	5.63
867.371	-55.81
867.544	1.54
867.718	42.5
867.891	-23.04
868.065	-14.85
868.238	73.21
868.412	-0.51
868.585	-10.75
868.759	40.45
868.932	81.41
869.105	56.83
869.279	56.83
869.452	44.54
869.625	-0.51
869.799	89.6
869.972	-23.04
870.145	-0.51
870.319	7.68
870.492	-23.04
870.665	-68.09
870.838	-4.61
871.011	-53.76
871.185	34.3
871.358	95.74
871.531	-10.75
871.704	17.92
871.877	15.87
872.05	26.11
872.223	62.98
872.396	58.88
872.569	11.78
872.742	13.82
872.915	34.3
873.088	15.87
873.261	11.78
873.434	44.54
873.607	-23.04
873.78	17.92
873.953	9.73
874.126	-0.51
874.299	79.36
874.471	-41.47
874.644	28.16
874.817	56.83
874.99	48.64
875.163	38.4
875.335	26.11
875.508	-35.33
875.681	32.26
875.853	42.5
876.026	1.54
876.199	58.88
876.371	56.83
876.544	13.82
876.717	13.82
876.889	3.58
877.062	40.45
877.234	11.78
877.407	48.64
877.579	3.58
877.752	93.69
877.924	32.26
878.097	19.97
878.269	15.87
878.442	22.02
878.614	30.21
878.786	19.97
878.959	-78.33
879.131	38.4
879.303	-2.56
879.476	-25.09
879.648	40.45
879.82	-8.7
879.993	17.92
880.165	30.21
880.337	-27.14
880.509	79.36
880.681	-14.85
880.854	28.16
881.026	13.82
881.198	36.35
881.37	36.35
881.542	-2.56
881.714	-23.04
881.886	30.21
882.058	13.82
882.23	87.55
882.402	30.21
882.574	-27.14
882.746	87.55
882.918	54.78
883.09	-31.23
883.262	-8.7
883.434	42.5
883.606	15.87
883.778	15.87
883.95	48.64
884.122	17.92
884.293	7.68
884.465	32.26
884.637	24.06
884.809	11.78
884.98	13.82
885.152	-0.51
885.324	-2.56
885.496	9.73
885.667	15.87
885.839	50.69
886.011	58.88
886.182	60.93
886.354	48.64
886.525	7.68
886.697	15.87
886.869	-6.66
887.04	-12.8
887.212	36.35
887.383	40.45
887.555	-37.38
887.726	38.4
887.897	75.26
888.069	24.06
888.24	22.02
888.412	22.02
888.583	9.73
888.754	-2.56
888.926	36.35
889.097	52.74
889.268	22.02
889.44	-10.75
889.611	34.3
889.782	-35.33
889.953	24.06
890.125	7.68
890.296	62.98
890.467	42.5
890.638	-43.52
890.809	77.31
890.98	81.41
891.151	-0.51
891.323	3.58
891.494	-43.52
891.665	5.63
891.836	36.35
892.007	-51.71
892.178	65.02
892.349	-10.75
892.52	46.59
892.691	7.68
892.862	13.82
893.032	-29.18
893.203	42.5
893.374	67.07
893.545	73.21
893.716	40.45
893.887	52.74
894.057	-64
894.228	28.16
894.399	28.16
894.57	48.64
894.74	95.74
894.911	-4.61
895.082	28.16
895.253	-25.09
895.423	-0.51
895.594	-35.33
895.764	91.65
895.935	-20.99
896.106	48.64
896.276	62.98
896.447	7.68
896.617	13.82
896.788	38.4
896.958	67.07
897.129	-18.94
897.299	13.82
897.47	7.68
897.64	19.97
897.81	58.88
897.981	56.83
898.151	42.5
898.322	1.54
898.492	103.93
898.662	97.79
898.832	-10.75
899.003	30.21
899.173	50.69
899.343	-16.9
899.513	-64
