Data from USB4F104151__68__12-54-13-902.txt Node

Date: Fri Mar 14 12:54:13 EDT 2025
User: louis
Spectrometer: USB4F10415
Trigger mode: 4
Integration Time (sec): 1.000000E-2
Scans to average: 1
Electric dark correction enabled: true
Nonlinearity correction enabled: false
Boxcar width: 0
XAxis mode: Wavelengths
Number of Pixels in Spectrum: 3648
>>>>>Begin Spectral Data<<<<<
178.204	-112.3
178.424	-112.3
178.644	-112.3
178.864	-44.71
179.084	0.34
179.304	-11.95
179.524	24.92
179.744	4.44
179.964	37.2
180.184	22.87
180.404	41.3
180.624	-28.33
180.844	0.34
181.064	-18.09
181.283	-9.9
181.503	-36.52
181.723	-26.28
181.943	-20.14
182.163	33.11
182.383	-59.05
182.602	8.53
182.822	35.16
183.042	31.06
183.262	-13.99
183.482	-40.62
183.701	-7.85
183.921	14.68
184.141	-26.28
184.361	-54.95
184.58	-32.43
184.8	2.39
185.02	33.11
185.239	121.17
185.459	0.34
185.679	8.53
185.898	-63.15
186.118	10.58
186.338	-16.04
186.557	53.59
186.777	-69.29
186.997	6.49
187.216	4.44
187.436	29.01
187.655	16.73
187.875	61.78
188.095	53.59
188.314	24.92
188.534	53.59
188.753	39.25
188.973	-11.95
189.192	47.44
189.412	-1.71
189.631	29.01
189.851	51.54
190.07	-32.43
190.29	41.3
190.509	18.77
190.729	-48.81
190.948	24.92
191.168	22.87
191.387	51.54
191.607	-22.19
191.826	53.59
192.045	4.44
192.265	-57
192.484	26.96
192.704	-22.19
192.923	-26.28
193.142	47.44
193.362	59.73
193.581	29.01
193.8	29.01
194.02	-7.85
194.239	39.25
194.458	33.11
194.678	-9.9
194.897	41.3
195.116	-18.09
195.335	2.39
195.555	4.44
195.774	29.01
195.993	-57
196.212	14.68
196.432	-30.38
196.651	18.77
196.87	49.49
197.089	-32.43
197.308	41.3
197.528	20.82
197.747	41.3
197.966	63.83
198.185	31.06
198.404	-5.8
198.623	29.01
198.842	29.01
199.062	47.44
199.281	37.2
199.5	-81.58
199.719	31.06
199.938	-50.86
200.157	55.64
200.376	35.16
200.595	72.02
200.814	63.83
201.033	-65.19
201.252	20.82
201.471	22.87
201.69	-48.81
201.909	43.35
202.128	2.39
202.347	22.87
202.566	-16.04
202.785	-54.95
203.004	-16.04
203.223	-5.8
203.442	20.82
203.661	33.11
203.879	57.68
204.098	-20.14
204.317	-46.76
204.536	-24.23
204.755	29.01
204.974	-26.28
205.193	16.73
205.411	-26.28
205.63	22.87
205.849	-22.19
206.068	31.06
206.287	63.83
206.505	-104.11
206.724	31.06
206.943	-36.52
207.162	31.06
207.381	47.44
207.599	33.11
207.818	-9.9
208.037	-28.33
208.255	-40.62
208.474	53.59
208.693	20.82
208.911	8.53
209.13	65.88
209.349	59.73
209.567	-79.53
209.786	-20.14
210.005	12.63
210.223	22.87
210.442	31.06
210.661	-1.71
210.879	8.53
211.098	8.53
211.316	-7.85
211.535	2.39
211.753	4.44
211.972	0.34
212.191	-28.33
212.409	29.01
212.628	88.4
212.846	18.77
213.065	-5.8
213.283	16.73
213.502	12.63
213.72	-54.95
213.938	22.87
214.157	43.35
214.375	-9.9
214.594	82.26
214.812	-48.81
215.031	24.92
215.249	-36.52
215.467	45.4
215.686	24.92
215.904	-13.99
216.122	18.77
216.341	10.58
216.559	-11.95
216.778	-40.62
216.996	22.87
217.214	-38.57
217.432	57.68
217.651	47.44
217.869	-44.71
218.087	88.4
218.306	47.44
218.524	-44.71
218.742	41.3
218.96	31.06
219.179	24.92
219.397	-61.1
219.615	12.63
219.833	88.4
220.051	53.59
220.27	117.08
220.488	35.16
220.706	6.49
220.924	0.34
221.142	53.59
221.36	37.2
221.578	-13.99
221.796	96.6
222.015	-59.05
222.233	18.77
222.451	-9.9
222.669	35.16
222.887	24.92
223.105	-16.04
223.323	0.34
223.541	-40.62
223.759	-28.33
223.977	-5.8
224.195	22.87
224.413	49.49
224.631	-18.09
224.849	-9.9
225.067	74.07
225.285	-16.04
225.503	76.12
225.721	12.63
225.939	8.53
226.157	6.49
226.375	2.39
226.592	26.96
226.81	18.77
227.028	22.87
227.246	67.92
227.464	-69.29
227.682	-42.67
227.9	16.73
228.117	29.01
228.335	-3.75
228.553	51.54
228.771	33.11
228.989	90.45
229.206	8.53
229.424	39.25
229.642	-26.28
229.86	67.92
230.077	14.68
230.295	14.68
230.513	14.68
230.731	51.54
230.948	10.58
231.166	-13.99
231.384	35.16
231.601	74.07
231.819	4.44
232.037	49.49
232.254	-44.71
232.472	-13.99
232.689	-1.71
232.907	65.88
233.125	-32.43
233.342	-11.95
233.56	41.3
233.777	8.53
233.995	0.34
234.213	39.25
234.43	49.49
234.648	65.88
234.865	-9.9
235.083	106.84
235.3	-46.76
235.518	-3.75
235.735	-22.19
235.953	0.34
236.17	-67.24
236.388	-38.57
236.605	-26.28
236.822	49.49
237.04	-61.1
237.257	49.49
237.475	-9.9
237.692	-20.14
237.909	45.4
238.127	-40.62
238.344	-81.58
238.562	-50.86
238.779	-26.28
238.996	-13.99
239.214	-1.71
239.431	-36.52
239.648	-1.71
239.865	16.73
240.083	22.87
240.3	8.53
240.517	-50.86
240.735	106.84
240.952	43.35
241.169	-5.8
241.386	12.63
241.603	-32.43
241.821	35.16
242.038	6.49
242.255	-40.62
242.472	39.25
242.689	-5.8
242.907	-44.71
243.124	-7.85
243.341	37.2
243.558	-18.09
243.775	94.55
243.992	-18.09
244.209	37.2
244.426	2.39
244.643	20.82
244.86	-5.8
245.078	35.16
245.295	41.3
245.512	-13.99
245.729	0.34
245.946	-1.71
246.163	18.77
246.38	-24.23
246.597	0.34
246.814	-5.8
247.031	-57
247.248	33.11
247.464	2.39
247.681	-16.04
247.898	6.49
248.115	-67.24
248.332	8.53
248.549	14.68
248.766	-13.99
248.983	18.77
249.2	-20.14
249.417	63.83
249.633	49.49
249.85	-18.09
250.067	14.68
250.284	22.87
250.501	61.78
250.717	43.35
250.934	31.06
251.151	-36.52
251.368	16.73
251.585	-52.91
251.801	35.16
252.018	-46.76
252.235	33.11
252.451	0.34
252.668	76.12
252.885	29.01
253.102	-57
253.318	22.87
253.535	-11.95
253.752	16.73
253.968	12.63
254.185	39.25
254.401	-32.43
254.618	6.49
254.835	-24.23
255.051	41.3
255.268	0.34
255.484	35.16
255.701	26.96
255.917	57.68
256.134	61.78
256.351	-40.62
256.567	10.58
256.784	8.53
257	20.82
257.217	14.68
257.433	-18.09
257.65	29.01
257.866	-16.04
258.082	24.92
258.299	26.96
258.515	37.2
258.732	-11.95
258.948	14.68
259.165	22.87
259.381	63.83
259.597	-79.53
259.814	-5.8
260.03	31.06
260.246	39.25
260.463	59.73
260.679	35.16
260.895	-50.86
261.112	108.88
261.328	67.92
261.544	31.06
261.761	4.44
261.977	20.82
262.193	-48.81
262.409	57.68
262.626	69.97
262.842	61.78
263.058	2.39
263.274	10.58
263.49	-63.15
263.707	-16.04
263.923	39.25
264.139	41.3
264.355	-11.95
264.571	43.35
264.787	6.49
265.004	18.77
265.22	-16.04
265.436	-30.38
265.652	-73.39
265.868	22.87
266.084	4.44
266.3	37.2
266.516	31.06
266.732	-24.23
266.948	-44.71
267.164	-11.95
267.38	-3.75
267.596	-1.71
267.812	20.82
268.028	72.02
268.244	-48.81
268.46	67.92
268.676	-54.95
268.892	41.3
269.108	-5.8
269.324	35.16
269.54	31.06
269.756	22.87
269.972	-34.47
270.188	96.6
270.403	2.39
270.619	10.58
270.835	53.59
271.051	-24.23
271.267	-9.9
271.483	-36.52
271.698	26.96
271.914	51.54
272.13	100.69
272.346	41.3
272.562	67.92
272.777	33.11
272.993	80.21
273.209	-20.14
273.425	55.64
273.64	-18.09
273.856	39.25
274.072	-13.99
274.287	59.73
274.503	43.35
274.719	4.44
274.934	31.06
275.15	-22.19
275.366	6.49
275.581	-32.43
275.797	35.16
276.012	0.34
276.228	-1.71
276.444	22.87
276.659	65.88
276.875	-18.09
277.09	-16.04
277.306	-20.14
277.521	24.92
277.737	-38.57
277.952	-1.71
278.168	94.55
278.383	0.34
278.599	-3.75
278.814	-30.38
279.03	24.92
279.245	57.68
279.461	-40.62
279.676	14.68
279.892	29.01
280.107	-1.71
280.322	22.87
280.538	6.49
280.753	-52.91
280.969	-65.19
281.184	-77.48
281.399	57.68
281.615	-3.75
281.83	61.78
282.045	100.69
282.26	72.02
282.476	-48.81
282.691	-13.99
282.906	-79.53
283.122	47.44
283.337	84.31
283.552	35.16
283.767	26.96
283.983	12.63
284.198	18.77
284.413	39.25
284.628	35.16
284.843	6.49
285.058	-30.38
285.274	33.11
285.489	-83.63
285.704	-9.9
285.919	57.68
286.134	-50.86
286.349	0.34
286.564	31.06
286.779	41.3
286.995	-7.85
287.21	16.73
287.425	39.25
287.64	8.53
287.855	31.06
288.07	4.44
288.285	57.68
288.5	74.07
288.715	29.01
288.93	88.4
289.145	-1.71
289.36	-65.19
289.575	-5.8
289.79	26.96
290.004	84.31
290.219	-40.62
290.434	6.49
290.649	26.96
290.864	26.96
291.079	63.83
291.294	12.63
291.509	37.2
291.724	24.92
291.938	-13.99
292.153	12.63
292.368	-24.23
292.583	41.3
292.798	12.63
293.012	0.34
293.227	-20.14
293.442	41.3
293.657	106.84
293.871	41.3
294.086	-24.23
294.301	20.82
294.516	35.16
294.73	8.53
294.945	6.49
295.16	47.44
295.374	26.96
295.589	16.73
295.804	-44.71
296.018	41.3
296.233	20.82
296.447	26.96
296.662	-46.76
296.877	8.53
297.091	72.02
297.306	26.96
297.52	-73.39
297.735	16.73
297.949	-71.34
298.164	24.92
298.378	20.82
298.593	16.73
298.807	-28.33
299.022	18.77
299.236	100.69
299.451	-28.33
299.665	51.54
299.88	-30.38
300.094	45.4
300.309	10.58
300.523	-24.23
300.737	0.34
300.952	76.12
301.166	-5.8
301.381	-1.71
301.595	-24.23
301.809	-22.19
302.024	6.49
302.238	8.53
302.452	45.4
302.667	-1.71
302.881	22.87
303.095	14.68
303.309	10.58
303.524	-38.57
303.738	18.77
303.952	74.07
304.166	65.88
304.381	-26.28
304.595	37.2
304.809	20.82
305.023	57.68
305.237	-3.75
305.452	47.44
305.666	72.02
305.88	6.49
306.094	82.26
306.308	55.64
306.522	94.55
306.736	51.54
306.95	37.2
307.164	29.01
307.379	14.68
307.593	45.4
307.807	-11.95
308.021	39.25
308.235	-7.85
308.449	53.59
308.663	12.63
308.877	-30.38
309.091	-3.75
309.305	8.53
309.519	-38.57
309.733	22.87
309.947	-28.33
310.161	29.01
310.374	45.4
310.588	-44.71
310.802	8.53
311.016	-20.14
311.23	18.77
311.444	24.92
311.658	-11.95
311.872	72.02
312.085	63.83
312.299	31.06
312.513	26.96
312.727	-1.71
312.941	-18.09
313.154	49.49
313.368	4.44
313.582	-7.85
313.796	31.06
314.009	33.11
314.223	-28.33
314.437	-26.28
314.651	61.78
314.864	53.59
315.078	69.97
315.292	-24.23
315.505	16.73
315.719	-22.19
315.933	14.68
316.146	43.35
316.36	-34.47
316.573	72.02
316.787	-18.09
317.001	14.68
317.214	2.39
317.428	-59.05
317.641	0.34
317.855	-5.8
318.068	51.54
318.282	26.96
318.495	-7.85
318.709	35.16
318.922	-67.24
319.136	57.68
319.349	2.39
319.563	-32.43
319.776	39.25
319.99	6.49
320.203	16.73
320.417	-7.85
320.63	57.68
320.843	61.78
321.057	82.26
321.27	98.64
321.483	92.5
321.697	31.06
321.91	2.39
322.124	-26.28
322.337	2.39
322.55	-9.9
322.763	57.68
322.977	39.25
323.19	37.2
323.403	49.49
323.617	-16.04
323.83	49.49
324.043	-9.9
324.256	10.58
324.469	12.63
324.683	12.63
324.896	24.92
325.109	-97.96
325.322	65.88
325.535	80.21
325.748	-9.9
325.962	20.82
326.175	35.16
326.388	-26.28
326.601	72.02
326.814	-1.71
327.027	-48.81
327.24	59.73
327.453	57.68
327.666	-26.28
327.879	-16.04
328.092	65.88
328.305	20.82
328.518	29.01
328.731	-42.67
328.944	24.92
329.157	24.92
329.37	-20.14
329.583	24.92
329.796	74.07
330.009	49.49
330.222	-22.19
330.435	98.64
330.648	14.68
330.861	39.25
331.073	74.07
331.286	-11.95
331.499	-38.57
331.712	14.68
331.925	26.96
332.138	-20.14
332.35	63.83
332.563	22.87
332.776	29.01
332.989	-13.99
333.202	-13.99
333.414	-69.29
333.627	22.87
333.84	43.35
334.053	-40.62
334.265	-22.19
334.478	-7.85
334.691	76.12
334.903	-44.71
335.116	-40.62
335.329	24.92
335.541	24.92
335.754	33.11
335.966	14.68
336.179	14.68
336.392	6.49
336.604	6.49
336.817	65.88
337.029	47.44
337.242	-3.75
337.454	8.53
337.667	-67.24
337.88	37.2
338.092	2.39
338.305	-65.19
338.517	14.68
338.729	-16.04
338.942	63.83
339.154	0.34
339.367	-30.38
339.579	-1.71
339.792	-69.29
340.004	43.35
340.217	29.01
340.429	35.16
340.641	-9.9
340.854	14.68
341.066	18.77
341.278	43.35
341.491	53.59
341.703	-1.71
341.915	8.53
342.128	35.16
342.34	12.63
342.552	33.11
342.764	0.34
342.977	61.78
343.189	-1.71
343.401	49.49
343.613	2.39
343.826	-5.8
344.038	37.2
344.25	49.49
344.462	8.53
344.674	29.01
344.886	33.11
345.099	29.01
345.311	0.34
345.523	-22.19
345.735	-42.67
345.947	-30.38
346.159	-26.28
346.371	18.77
346.583	2.39
346.795	24.92
347.007	-110.25
347.219	92.5
347.431	20.82
347.643	98.64
347.855	57.68
348.067	-13.99
348.279	16.73
348.491	20.82
348.703	-20.14
348.915	-7.85
349.127	24.92
349.339	18.77
349.551	88.4
349.763	84.31
349.975	35.16
350.187	22.87
350.399	-11.95
350.61	51.54
350.822	65.88
351.034	29.01
351.246	-34.47
351.458	74.07
351.669	41.3
351.881	-13.99
352.093	-7.85
352.305	35.16
352.517	26.96
352.728	59.73
352.94	6.49
353.152	90.45
353.363	84.31
353.575	49.49
353.787	49.49
353.999	45.4
354.21	-7.85
354.422	47.44
354.633	-42.67
354.845	39.25
355.057	10.58
355.268	10.58
355.48	-71.34
355.692	4.44
355.903	47.44
356.115	-81.58
356.326	14.68
356.538	14.68
356.749	-1.71
356.961	37.2
357.172	-65.19
357.384	94.55
357.595	18.77
357.807	14.68
358.018	35.16
358.23	-9.9
358.441	104.79
358.653	18.77
358.864	-30.38
359.075	45.4
359.287	-22.19
359.498	96.6
359.709	43.35
359.921	-32.43
360.132	-42.67
360.344	24.92
360.555	-54.95
360.766	49.49
360.977	-83.63
361.189	82.26
361.4	-36.52
361.611	24.92
361.823	49.49
362.034	143.7
362.245	35.16
362.456	-9.9
362.667	35.16
362.879	67.92
363.09	84.31
363.301	33.11
363.512	-26.28
363.723	74.07
363.935	-20.14
364.146	-9.9
364.357	-11.95
364.568	41.3
364.779	2.39
364.99	74.07
365.201	43.35
365.412	-7.85
365.623	14.68
365.834	29.01
366.045	31.06
366.256	14.68
366.467	53.59
366.678	-9.9
366.889	0.34
367.1	-36.52
367.311	67.92
367.522	31.06
367.733	69.97
367.944	33.11
368.155	-26.28
368.366	-7.85
368.577	8.53
368.788	33.11
368.999	-7.85
369.209	20.82
369.42	-40.62
369.631	18.77
369.842	80.21
370.053	39.25
370.264	53.59
370.474	84.31
370.685	2.39
370.896	20.82
371.107	-38.57
371.317	57.68
371.528	29.01
371.739	43.35
371.95	82.26
372.16	65.88
372.371	-22.19
372.582	14.68
372.792	37.2
373.003	-1.71
373.214	29.01
373.424	14.68
373.635	-30.38
373.846	53.59
374.056	-9.9
374.267	65.88
374.477	49.49
374.688	26.96
374.898	63.83
375.109	35.16
375.319	-24.23
375.53	33.11
375.74	37.2
375.951	-1.71
376.161	4.44
376.372	74.07
376.582	-44.71
376.793	43.35
377.003	-26.28
377.214	12.63
377.424	61.78
377.635	16.73
377.845	24.92
378.055	-48.81
378.266	20.82
378.476	51.54
378.686	24.92
378.897	-57
379.107	-46.76
379.317	57.68
379.528	-3.75
379.738	72.02
379.948	63.83
380.158	-16.04
380.369	43.35
380.579	47.44
380.789	20.82
380.999	31.06
381.21	37.2
381.42	41.3
381.63	-1.71
381.84	16.73
382.05	92.5
382.261	72.02
382.471	29.01
382.681	-50.86
382.891	78.16
383.101	51.54
383.311	18.77
383.521	65.88
383.731	14.68
383.941	0.34
384.151	6.49
384.361	49.49
384.571	33.11
384.781	18.77
384.991	45.4
385.201	135.51
385.411	63.83
385.621	55.64
385.831	82.26
386.041	-13.99
386.251	24.92
386.461	10.58
386.671	8.53
386.881	59.73
387.091	-3.75
387.301	-30.38
387.511	4.44
387.72	55.64
387.93	18.77
388.14	74.07
388.35	41.3
388.56	10.58
388.769	-38.57
388.979	100.69
389.189	0.34
389.399	-1.71
389.609	-20.14
389.818	6.49
390.028	35.16
390.238	-32.43
390.447	-38.57
390.657	51.54
390.867	18.77
391.076	-40.62
391.286	61.78
391.496	29.01
391.705	-1.71
391.915	88.4
392.125	-22.19
392.334	55.64
392.544	18.77
392.753	-13.99
392.963	39.25
393.172	14.68
393.382	47.44
393.591	35.16
393.801	6.49
394.01	49.49
394.22	10.58
394.429	8.53
394.639	33.11
394.848	16.73
395.058	90.45
395.267	57.68
395.477	47.44
395.686	18.77
395.895	67.92
396.105	63.83
396.314	18.77
396.524	39.25
396.733	104.79
396.942	59.73
397.152	6.49
397.361	123.22
397.57	127.32
397.78	14.68
397.989	90.45
398.198	24.92
398.407	49.49
398.617	45.4
398.826	106.84
399.035	39.25
399.244	45.4
399.453	141.65
399.663	18.77
399.872	74.07
400.081	108.88
400.29	57.68
400.499	53.59
400.708	74.07
400.917	26.96
401.127	-9.9
401.336	94.55
401.545	16.73
401.754	88.4
401.963	115.03
402.172	86.36
402.381	104.79
402.59	35.16
402.799	47.44
403.008	55.64
403.217	33.11
403.426	86.36
403.635	96.6
403.844	-11.95
404.053	65.88
404.262	-3.75
404.471	96.6
404.68	49.49
404.888	57.68
405.097	49.49
405.306	110.93
405.515	31.06
405.724	88.4
405.933	82.26
406.142	115.03
406.35	8.53
406.559	90.45
406.768	88.4
406.977	104.79
407.185	63.83
407.394	96.6
407.603	141.65
407.812	78.16
408.02	123.22
408.229	112.98
408.438	155.99
408.646	133.46
408.855	108.88
409.064	153.94
409.272	106.84
409.481	225.62
409.69	141.65
409.898	108.88
410.107	121.17
410.315	143.7
410.524	227.67
410.733	194.9
410.941	188.75
411.15	194.9
411.358	166.23
411.567	176.47
411.775	244.05
411.984	213.33
412.192	162.13
412.401	231.76
412.609	266.58
412.818	260.43
413.026	268.63
413.234	229.71
413.443	313.68
413.651	352.59
413.86	287.06
414.068	280.91
414.276	272.72
414.485	303.44
414.693	268.63
414.901	297.3
415.11	416.08
415.318	330.06
415.526	377.17
415.734	356.69
415.943	399.7
416.151	350.54
416.359	414.03
416.567	414.03
416.776	434.51
416.984	483.66
417.192	485.71
417.4	508.24
417.608	426.32
417.817	514.38
418.025	504.14
418.233	571.72
418.441	487.76
418.649	481.61
418.857	610.64
419.065	643.4
419.273	592.2
419.481	682.31
419.689	747.85
419.897	682.31
420.105	807.24
420.313	682.31
420.521	776.52
420.729	753.99
420.937	917.83
421.145	807.24
421.353	903.5
421.561	874.82
421.769	891.21
421.977	1059.14
422.185	1016.13
422.393	1034.57
422.601	1098.05
422.809	1118.53
423.017	1167.68
423.224	1184.07
423.432	1177.92
423.64	1163.59
423.848	1251.65
424.056	1296.71
424.263	1407.3
424.471	1395.01
424.679	1386.82
424.887	1501.5
425.094	1550.65
425.302	1478.97
425.51	1589.57
425.718	1718.59
425.925	1640.76
426.133	1691.96
426.341	1859.9
426.548	1880.38
426.756	1939.77
426.964	1890.62
427.171	2068.79
427.379	2087.22
427.586	2081.08
427.794	2126.13
428.001	2320.69
428.209	2414.9
428.417	2351.41
428.624	2490.67
428.832	2486.58
429.039	2445.62
429.247	2464.05
429.454	2849.07
429.662	2957.61
429.869	2750.76
430.076	2810.15
430.284	2941.22
430.491	2953.51
430.699	3154.21
430.906	3229.99
431.114	3268.9
431.321	3281.19
431.528	3307.81
431.736	3666.21
431.943	3920.15
432.15	3643.68
432.358	3637.53
432.565	3862.81
432.772	3782.94
432.979	4159.77
433.187	4131.09
433.394	4204.82
433.601	4491.54
433.808	4448.53
434.016	4444.43
434.223	4516.11
434.43	4864.27
434.637	4833.55
434.844	5134.6
435.052	5169.41
435.259	5216.52
435.466	5351.68
435.673	5093.64
435.88	5572.86
436.087	5800.19
436.294	5785.85
436.501	5718.27
436.708	5867.77
436.915	6011.13
437.122	6086.9
437.329	6273.27
437.537	6418.68
437.743	6635.76
437.95	6510.83
438.157	6897.9
438.364	7196.9
438.571	6920.43
438.778	7084.27
438.985	7876.83
439.192	7549.15
439.399	7782.62
439.606	7637.22
439.813	8149.21
440.02	8388.82
440.227	8480.98
440.433	8306.9
440.64	8409.3
440.847	8468.69
441.054	8714.45
441.261	9232.58
441.467	9263.3
441.674	9472.2
441.881	9709.76
442.088	9676.99
442.294	9519.3
442.501	9984.19
442.708	10057.92
442.914	10582.2
443.121	10834.1
443.328	10487.99
443.534	11321.51
443.741	10801.33
443.948	10948.78
444.154	11710.63
444.361	11659.43
444.568	11641
444.774	11632.8
444.981	11784.35
445.187	12130.46
445.394	12839.06
445.6	12585.11
445.807	13746.31
446.013	13148.3
446.22	13377.67
446.426	13762.69
446.633	14022.78
446.839	14590.07
447.046	13709.44
447.252	14715
447.459	14798.96
447.665	14743.67
447.871	15415.4
448.078	16027.74
448.284	15024.24
448.491	15573.1
448.697	16253.02
448.903	16435.29
449.11	16740.44
449.316	16334.94
449.522	16570.46
449.728	17164.37
449.935	17188.94
450.141	17137.74
450.347	17530.95
450.553	16986.19
450.76	17150.03
450.966	18053.19
451.172	17576.01
451.378	18303.04
451.584	17774.66
451.791	18473.02
451.997	18241.6
452.203	18540.6
452.409	18784.31
452.615	18126.91
452.821	17612.87
453.027	17713.22
453.233	18456.64
453.44	17653.83
453.646	17807.43
453.852	18208.83
454.058	18556.99
454.264	17956.93
454.47	18108.48
454.676	17936.45
454.882	18391.1
455.088	16932.95
455.294	17266.77
455.5	17516.62
455.705	17516.62
455.911	17258.57
456.117	16476.25
456.323	16332.89
456.529	15661.16
456.735	16384.09
456.941	15820.9
457.147	15595.62
457.352	15155.31
457.558	14911.6
457.764	14983.28
457.97	14801.01
458.176	14366.84
458.381	14284.92
458.587	13725.83
458.793	13856.9
458.999	12763.28
459.204	13992.06
459.41	13738.12
459.616	12705.94
459.821	12753.04
460.027	12628.12
460.233	12372.12
460.438	11786.4
460.644	11942.05
460.85	11417.77
461.055	11317.42
461.261	11219.11
461.466	10248.38
461.672	10279.1
461.878	10774.7
462.083	9949.37
462.289	9748.67
462.494	9898.17
462.7	9373.89
462.905	9236.68
463.111	9552.07
463.316	9763.01
463.522	9306.31
463.727	9513.16
463.932	9294.02
464.138	9197.77
464.343	9214.15
464.549	9027.79
464.754	9339.08
464.959	9277.64
465.165	9326.79
465.37	8956.11
465.575	8761.55
465.781	9097.42
465.986	8882.38
466.191	8700.11
466.397	8728.78
466.602	8165.59
466.807	8415.44
467.012	8413.4
467.218	8315.09
467.423	8380.63
467.628	8437.97
467.833	8679.63
468.038	8558.8
468.244	8329.43
468.449	8571.09
468.654	8190.17
468.859	8249.56
469.064	8095.96
469.269	7821.53
469.474	7870.69
469.679	8079.58
469.885	7848.16
470.09	7889.12
470.295	7913.69
470.5	7551.2
470.705	7723.23
470.91	7739.62
471.115	7518.43
471.32	7645.41
471.525	7463.14
471.73	7448.8
471.935	7362.79
472.139	7139.56
472.344	7282.92
472.549	7102.7
472.754	7164.14
472.959	6908.14
473.164	6887.66
473.369	6678.77
473.574	6785.26
473.778	6844.65
473.983	6703.34
474.188	6686.96
474.393	6418.68
474.598	6351.09
474.802	6443.25
475.007	6430.96
475.212	6457.59
475.417	5961.98
475.621	5908.73
475.826	6047.99
476.031	5916.92
476.235	5835
476.44	6019.32
476.645	5939.45
476.849	5810.43
477.054	5650.69
477.259	5761.28
477.463	5579.01
477.668	5372.16
477.872	5710.08
478.077	5445.89
478.282	5339.4
478.486	5359.88
478.691	5308.68
478.895	5275.91
479.1	5269.76
479.304	5331.2
479.509	5222.66
479.713	5114.12
479.918	5116.17
480.122	5083.4
480.326	5085.45
480.531	5077.26
480.735	5075.21
480.94	4948.23
481.144	4970.76
481.348	4964.62
481.553	5081.35
481.757	4829.45
481.961	5187.85
482.166	4827.4
482.37	5026.06
482.574	4907.27
482.778	4894.99
482.983	4884.75
483.187	4903.18
483.391	5042.44
483.595	4886.79
483.8	4972.81
484.004	4903.18
484.208	4950.28
484.412	4937.99
484.616	4841.74
484.821	5050.63
485.025	4983.05
485.229	4987.15
485.433	4823.31
485.637	4837.64
485.841	4901.13
486.045	4935.95
486.249	4937.99
486.453	4946.19
486.657	5026.06
486.861	5169.41
487.065	4878.6
487.269	4989.19
487.473	4964.62
487.677	4942.09
487.881	5198.09
488.085	4999.43
488.289	5064.97
488.493	5128.46
488.697	5095.69
488.901	5101.83
489.105	5267.72
489.309	5003.53
489.512	5069.06
489.716	5212.42
489.92	5189.89
490.124	5179.65
490.328	5337.35
490.531	5185.8
490.735	5277.96
490.939	5302.53
491.143	5257.48
491.346	5230.85
491.55	5333.25
491.754	5552.38
491.958	5386.5
492.161	5589.25
492.365	5468.42
492.569	5372.16
492.772	5615.87
492.976	5523.71
493.18	5667.07
493.383	5830.91
493.587	5581.06
493.79	5712.13
493.994	5851.39
494.197	5769.47
494.401	5767.42
494.605	5910.78
494.808	6002.94
495.012	5939.45
495.215	6234.36
495.419	6039.8
495.622	6224.12
495.825	6400.24
496.029	6465.78
496.232	6635.76
496.436	6504.69
496.639	6514.93
496.843	6529.27
497.046	6822.13
497.249	6699.25
497.453	6717.68
497.656	7028.97
497.859	6838.51
498.063	7239.91
498.266	7201
498.469	7250.15
498.673	7227.62
498.876	7293.16
499.079	7479.52
499.282	7463.14
499.485	7717.09
499.689	7764.19
499.892	7999.71
500.095	7952.6
500.298	8089.82
500.501	8186.07
500.705	8356.05
500.908	8323.29
501.111	8349.91
501.314	8663.25
501.517	8693.97
501.72	8911.05
501.923	8720.59
502.126	9078.99
502.329	9322.7
502.532	9371.85
502.735	9304.26
502.938	9595.07
503.141	9791.68
503.344	9885.89
503.547	9998.52
503.75	10070.2
503.953	10344.63
504.156	10369.21
504.359	10504.37
504.562	10463.41
504.765	10819.76
504.968	10907.82
505.17	11055.28
505.373	11100.33
505.576	11348.14
505.779	11481.25
505.982	11581.6
506.185	11862.18
506.387	11825.31
506.59	12060.83
506.793	12275.87
506.996	12239
507.198	12572.82
507.401	12615.83
507.604	12714.13
507.807	12943.5
508.009	13154.44
508.212	13400.2
508.415	13662.34
508.617	13705.35
508.82	13531.27
509.022	13985.92
509.225	14293.12
509.428	14504.06
509.63	14626.93
509.833	14921.84
510.035	14956.66
510.238	14903.41
510.44	15210.61
510.643	15593.58
510.845	15661.16
511.048	15521.9
511.25	15949.92
511.453	16015.46
511.655	16627.8
511.858	16218.21
512.06	16560.22
512.262	16951.38
512.465	16920.66
512.667	17176.66
512.87	17268.81
513.072	17737.8
513.274	18036.8
513.477	18055.23
513.679	18229.31
513.881	18497.6
514.084	18643
514.286	18765.88
514.488	18892.85
514.69	19462.19
514.893	19359.79
515.095	19552.3
515.297	19920.93
515.499	19707.94
515.701	20373.53
515.904	20486.17
516.106	20674.59
516.308	20803.61
516.51	21284.88
516.712	21374.99
516.914	21370.9
517.116	21854.22
517.318	21987.33
517.52	22089.73
517.722	22061.06
517.925	22435.84
518.127	22976.5
518.329	22820.86
518.531	22913.02
518.733	23277.55
518.935	23400.43
519.136	23824.36
519.338	24033.25
519.54	23992.3
519.742	24209.38
519.944	24383.46
520.146	24623.07
520.348	24936.41
520.55	25180.12
520.752	25020.38
520.954	25671.63
521.155	25515.98
521.357	26070.98
521.559	26345.41
521.761	26427.33
521.963	26865.6
522.164	26597.31
522.366	26814.4
522.568	27092.92
522.77	27320.24
522.971	27791.28
523.173	27361.2
523.375	27635.63
523.576	27975.59
523.778	27813.8
523.98	28493.73
524.181	28133.29
524.383	28319.65
524.584	28759.97
524.786	28698.53
524.988	28651.42
525.189	28895.13
525.391	29513.62
525.592	29470.61
525.794	29554.58
525.995	29773.71
526.197	29810.57
526.398	29767.57
526.6	30424.97
526.801	30330.76
527.003	30328.71
527.204	30257.03
527.406	30721.92
527.607	30502.79
527.808	31065.98
528.01	30871.42
528.211	31266.68
528.412	31758.19
528.614	31545.2
528.815	31401.85
529.016	31876.97
529.218	31514.48
529.419	31864.69
529.62	31786.86
529.822	31893.36
530.023	31793.01
530.224	32130.92
530.425	32331.62
530.626	31684.47
530.828	31668.08
531.029	32647.01
531.23	32345.96
531.431	32323.43
531.632	32542.56
531.833	32421.73
532.035	32763.75
532.236	32929.63
532.437	32794.46
532.638	32757.6
532.839	32868.19
533.04	33107.8
533.241	32710.5
533.442	33138.52
533.643	32804.7
533.844	33433.43
534.045	33130.33
534.246	32874.34
534.447	33415
534.648	32759.65
534.849	33236.83
535.05	33060.7
535.251	33228.63
535.451	33351.51
535.652	33443.67
535.853	33251.16
536.054	33105.76
536.255	33482.58
536.456	33242.97
536.657	33955.66
536.857	33613.65
537.058	33431.38
537.259	33941.33
537.46	33769.3
537.66	33535.83
537.861	33662.8
538.062	33359.7
538.263	33687.38
538.463	33552.21
538.664	33470.29
538.865	33781.59
539.065	34164.56
539.266	33537.88
539.466	34357.07
539.667	33861.46
539.868	34150.22
540.068	33863.5
540.269	33836.88
540.469	34154.32
540.67	34010.96
540.87	33980.24
541.071	34062.16
541.271	34264.91
541.472	33933.14
541.672	33832.79
541.873	34027.34
542.073	33589.08
542.274	34613.06
542.474	33892.18
542.675	34088.78
542.875	34096.97
543.075	34047.82
543.276	33746.77
543.476	34187.08
543.676	34047.82
543.877	34029.39
544.077	34117.45
544.277	33984.33
544.478	33976.14
544.678	34471.75
544.878	34326.35
545.078	33568.6
545.279	33978.19
545.479	34074.45
545.679	34154.32
545.879	34490.18
546.079	34201.42
546.28	34137.93
546.48	34203.47
546.68	34391.88
546.88	34287.43
547.08	34338.63
547.28	34080.59
547.48	34045.77
547.68	34201.42
547.88	34412.36
548.081	34506.57
548.281	34232.14
548.481	34015.05
548.681	34606.92
548.881	34371.4
549.081	34309.96
549.28	33924.94
549.48	34881.35
549.68	34289.48
549.88	34416.46
550.08	34451.27
550.28	34684.74
550.48	34316.11
550.68	34649.92
550.88	34045.77
551.08	34342.73
551.279	34537.29
551.479	33877.84
551.679	34436.94
551.879	34344.78
552.079	34369.35
552.278	34285.39
552.478	34688.84
552.678	34248.52
552.878	34428.74
553.077	34350.92
553.277	34176.84
553.477	34854.72
553.676	34297.67
553.876	34211.66
554.076	34260.81
554.275	34025.29
554.475	33558.36
554.674	34326.35
554.874	33992.53
555.074	33820.5
555.273	34199.37
555.473	34289.48
555.672	34092.88
555.872	34031.44
556.071	34160.46
556.271	34170.7
556.47	34096.97
556.67	34228.04
556.869	33929.04
557.068	34320.2
557.268	33963.86
557.467	33689.43
557.667	33941.33
557.866	33974.09
558.065	34074.45
558.265	33591.12
558.464	33507.16
558.663	33912.66
558.863	33488.73
559.062	34307.91
559.261	33945.42
559.461	34258.76
559.66	33754.96
559.859	33767.25
560.058	33509.21
560.258	34127.69
560.457	33683.28
560.656	33984.33
560.855	33935.18
561.054	33793.87
561.253	33601.36
561.453	33625.94
561.652	34002.77
561.851	33650.52
562.05	33546.07
562.249	33447.77
562.448	34195.28
562.647	33574.74
562.846	33800.02
563.045	33769.3
563.244	33593.17
563.443	33748.82
563.642	33347.42
563.841	33716.05
564.04	33511.25
564.239	34156.36
564.438	33539.93
564.637	33679.19
564.836	33341.27
565.035	33439.58
565.234	33458.01
565.432	33083.23
565.631	33263.45
565.83	33687.38
566.029	33234.78
566.228	33097.56
566.427	33408.86
566.625	33306.46
566.824	32806.75
567.023	33482.58
567.222	32966.49
567.42	33365.85
567.619	33357.66
567.818	33240.92
568.016	33019.74
568.215	32941.92
568.414	33208.15
568.612	33120.09
568.811	33124.19
569.01	33296.22
569.208	32513.89
569.407	33308.51
569.605	32366.44
569.804	33081.18
570.002	32831.33
570.201	32976.73
570.4	32690.02
570.598	32499.56
570.797	32491.37
570.995	32786.27
571.193	32216.94
571.392	32692.07
571.59	32509.8
571.789	32409.45
571.987	32298.86
572.186	32370.54
572.384	32571.24
572.582	32483.17
572.781	32085.87
572.979	32249.71
573.177	32194.41
573.376	32245.61
573.574	32071.53
573.772	32173.93
573.971	31989.61
574.169	32016.24
574.367	32163.69
574.565	32184.17
574.763	31727.47
574.962	32059.24
575.16	31606.64
575.358	31577.97
575.556	31508.34
575.754	31573.88
575.952	31631.22
576.151	31807.34
576.349	31401.85
576.547	31555.44
576.745	31020.92
576.943	30977.92
577.141	31244.15
577.339	31170.43
577.537	31156.09
577.735	30748.54
577.933	30891.9
578.131	31045.5
578.329	30615.43
578.527	30592.9
578.725	30875.52
578.923	30945.15
579.121	30394.25
579.319	30472.07
579.516	30908.29
579.714	30689.15
579.912	30734.21
580.11	30295.94
580.308	30373.77
580.506	30472.07
580.704	30068.62
580.901	30343.05
581.099	30207.88
581.297	29888.4
581.495	29882.25
581.692	29984.65
581.89	29611.92
582.088	29966.22
582.285	29644.69
582.483	30216.07
582.681	29742.99
582.878	29601.68
583.076	29421.46
583.274	29712.27
583.471	28983.2
583.669	29327.25
583.866	29026.2
584.064	29470.61
584.262	28841.89
584.459	29308.82
584.657	29110.17
584.854	29050.78
585.052	28551.07
585.249	28606.37
585.447	28796.83
585.644	28481.44
585.841	28399.52
586.039	28626.85
586.236	28454.82
586.434	28542.88
586.631	28194.73
586.828	28137.38
587.026	28168.1
587.223	28164.01
587.42	28102.57
587.618	28049.32
587.815	27723.69
588.012	27815.85
588.21	27881.39
588.407	28008.36
588.604	27598.77
588.801	27467.7
588.999	27410.36
589.196	27504.56
589.393	27338.68
589.59	27180.98
589.787	27133.88
589.984	27189.17
590.182	26851.26
590.379	27178.93
590.576	26974.14
590.773	27293.62
590.97	26908.6
591.167	26783.68
591.364	26585.02
591.561	26636.22
591.758	26445.76
591.955	26255.3
592.152	26730.43
592.349	26226.63
592.546	26400.71
592.743	26279.88
592.94	26195.91
593.137	26335.17
593.334	26130.37
593.531	26056.65
593.727	26081.22
593.924	25708.49
594.121	25698.25
594.318	25917.39
594.515	25233.36
594.712	25649.1
594.908	25216.98
595.105	25624.53
595.302	25173.97
595.499	25198.55
595.696	25253.84
595.892	24991.7
596.089	25417.68
596.286	25032.66
596.482	24848.35
596.679	25337.81
596.876	25204.69
597.072	24655.84
597.269	24670.17
597.466	24682.46
597.662	24485.86
597.859	24868.83
598.055	24647.65
598.252	24358.88
598.448	24172.52
598.645	24563.68
598.841	24023.01
599.038	23633.9
599.234	24193
599.431	23707.63
599.627	23640.04
599.824	24102.89
600.02	23566.32
600.217	23801.83
600.413	23887.85
600.609	23379.95
600.806	23476.21
601.002	23349.23
601.198	23359.47
601.395	23203.83
601.591	23384.05
601.787	23070.71
601.984	22996.98
602.18	23398.38
602.376	22919.16
602.572	22691.84
602.769	22804.47
602.965	22607.87
603.161	22882.3
603.357	22482.94
603.553	22554.62
603.75	22319.1
603.946	22624.25
604.142	22628.35
604.338	22245.38
604.534	22364.16
604.73	22257.67
604.926	22181.89
605.122	22194.18
605.318	21895.18
605.514	21868.55
605.71	21854.22
605.906	21743.63
606.102	21719.05
606.298	21610.51
606.494	21592.08
606.69	21669.9
606.886	21800.97
607.082	21184.53
607.278	21436.43
607.474	21338.13
607.67	21608.46
607.866	20969.49
608.062	21407.76
608.257	21028.88
608.453	21446.67
608.649	21110.8
608.845	20779.03
609.041	21239.83
609.236	21119
609.432	21041.17
609.628	20906.01
609.824	20658.2
610.019	20865.05
610.215	20672.54
610.411	20690.97
610.606	20371.49
610.802	20449.31
610.998	20394.01
611.193	20492.32
611.389	20291.62
611.584	20353.05
611.78	20641.82
611.976	20273.18
612.171	20375.58
612.367	20285.47
612.562	20138.02
612.758	20117.54
612.953	19720.23
613.149	20430.88
613.344	19884.07
613.539	20244.51
613.735	19978.28
613.93	20068.39
614.126	20066.34
614.321	20195.36
614.517	19638.31
614.712	19845.16
614.907	19494.96
615.103	19540.01
615.298	19660.84
615.493	19644.46
615.688	19322.93
615.884	19793.96
616.079	19478.57
616.274	19388.46
616.47	19478.57
616.665	19349.55
616.86	19462.19
617.055	19415.09
617.25	19189.81
617.445	19275.82
617.641	18821.17
617.836	19251.25
618.031	19107.89
618.226	18944.05
618.421	18759.74
618.616	19179.57
618.811	18577.47
619.006	18757.69
619.201	18438.2
619.396	18513.98
619.591	18368.57
619.786	18624.57
619.981	18145.34
620.176	18434.11
620.371	18391.1
620.566	18401.34
620.761	18114.62
620.956	18155.58
621.151	17786.95
621.346	17842.25
621.541	17584.2
621.735	17793.09
621.93	17676.36
622.125	17782.85
622.32	17526.86
622.515	17332.3
622.709	17166.42
622.904	16932.95
623.099	16783.45
623.294	17090.64
623.488	16865.36
623.683	16930.9
623.878	16562.26
624.072	16867.41
624.267	16564.31
624.462	16498.78
624.656	16351.32
624.851	16633.94
625.046	16062.56
625.24	16326.75
625.435	16037.98
625.629	16140.38
625.824	15779.94
626.018	15822.95
626.213	15575.14
626.407	15876.2
626.602	15226.99
626.796	15587.43
626.991	15386.73
627.185	15372.39
627.38	15095.92
627.574	15093.87
627.768	15087.73
627.963	14882.93
628.157	14995.57
628.352	14813.3
628.546	14712.95
628.74	14682.23
628.935	14561.4
629.129	14846.07
629.323	14338.17
629.517	14461.05
629.712	14317.69
629.906	14176.38
630.1	13949.06
630.294	14106.75
630.489	13990.02
630.683	14131.33
630.877	13813.89
631.071	13561.99
631.265	13854.85
631.459	13697.16
631.653	13785.22
631.848	13498.5
632.042	13351.05
632.236	13418.63
632.43	13455.5
632.624	13353.1
632.818	13160.59
633.012	13172.88
633.206	13125.77
633.4	12935.31
633.594	12955.79
633.788	12920.98
633.982	13004.94
634.176	12908.69
634.369	12718.23
634.563	12572.82
634.757	12419.22
634.951	12601.49
635.145	12476.57
635.339	12441.75
635.533	12363.93
635.726	12155.04
635.92	11985.05
636.114	12159.13
636.308	12116.12
636.501	12017.82
636.695	11980.96
636.889	11921.57
637.083	11837.6
637.276	11694.24
637.47	11819.17
637.664	11518.12
637.857	11641
638.051	11331.75
638.244	11389.1
638.438	11509.93
638.632	11153.58
638.825	11251.88
639.019	11106.48
639.212	11184.3
639.406	11282.6
639.599	11094.19
639.793	11153.58
639.986	10942.64
640.18	11210.92
640.373	10838.19
640.567	10850.48
640.76	10576.05
640.954	10590.39
641.147	10973.36
641.34	10510.52
641.534	10453.17
641.727	10389.69
641.92	10467.51
642.114	10145.98
642.307	10215.61
642.5	10080.44
642.694	9988.28
642.887	10000.57
643.08	10014.91
643.273	9932.99
643.467	9832.64
643.66	10072.25
643.853	9867.45
644.046	9754.82
644.239	9699.52
644.432	9580.74
644.626	9726.14
644.819	9636.03
645.012	9445.57
645.205	9547.97
645.398	9513.16
645.591	9527.49
645.784	9406.66
645.977	9068.75
646.17	9220.3
646.363	9003.21
646.556	8974.54
646.749	8808.65
646.942	9005.26
647.135	8872.14
647.328	8851.66
647.521	8863.95
647.714	8499.41
647.907	8745.17
648.099	8751.31
648.292	8632.53
648.485	8599.76
648.678	8407.25
648.871	8515.8
649.064	8384.73
649.256	8560.85
649.449	8231.13
649.642	8286.42
649.835	8061.15
650.027	8063.19
650.22	8016.09
650.413	7934.17
650.605	7870.69
650.798	7909.6
650.991	8163.54
651.183	7919.84
651.376	7690.46
651.568	7717.09
651.761	7547.11
651.954	7624.93
652.146	7725.28
652.339	7717.09
652.531	7473.38
652.724	7452.9
652.916	7399.65
653.109	7436.52
653.301	7446.76
653.494	7457
653.686	7174.38
653.879	7348.45
654.071	7104.74
654.263	7106.79
654.456	7162.09
654.648	7221.48
654.84	7018.73
655.033	7051.5
655.225	6906.09
655.417	6781.17
655.61	6811.89
655.802	6936.81
655.994	6781.17
656.186	6795.5
656.379	6764.78
656.571	6695.15
656.763	6566.13
656.955	6580.46
657.148	6381.81
657.34	6404.34
657.532	6465.78
657.724	6277.37
657.916	6396.15
658.108	6441.2
658.3	6230.26
658.492	6224.12
658.684	6129.91
658.876	6209.78
659.068	6084.86
659.26	5988.6
659.452	6148.34
659.644	5857.53
659.836	6076.66
660.028	5916.92
660.22	5841.15
660.412	5761.28
660.604	5691.65
660.796	5761.28
660.988	5662.97
661.18	5636.35
661.372	5540.1
661.563	5558.53
661.755	5462.27
661.947	5429.51
662.139	5579.01
662.331	5327.11
662.522	5308.68
662.714	5237
662.906	5249.29
663.097	5269.76
663.289	5218.57
663.481	5050.63
663.673	5273.86
663.864	5087.5
664.056	5175.56
664.247	5034.25
664.439	4927.75
664.631	4921.61
664.822	4874.51
665.014	4788.49
665.205	4798.73
665.397	4913.42
665.588	4815.12
665.78	4741.39
665.971	4823.31
666.163	4671.76
666.354	4710.67
666.546	4684.05
666.737	4534.54
666.929	4512.02
667.12	4577.55
667.311	4440.34
667.503	4366.61
667.694	4370.71
667.885	4307.22
668.077	4407.57
668.268	4251.92
668.459	4258.07
668.651	4495.63
668.842	4192.53
669.033	4323.6
669.224	4167.96
669.416	4231.44
669.607	4139.29
669.798	4149.53
669.989	4149.53
670.18	4116.76
670.371	4045.08
670.563	3850.52
670.754	4018.46
670.945	3975.45
671.136	3971.35
671.327	3862.81
671.518	3922.2
671.709	3887.39
671.9	3760.41
672.091	3815.71
672.282	3758.36
672.473	3664.16
672.664	3782.94
672.855	3641.63
673.046	3664.16
673.237	3731.74
673.428	3645.73
673.619	3612.96
673.809	3586.33
674	3541.28
674.191	3594.53
674.382	3445.02
674.573	3553.57
674.764	3424.55
674.954	3414.31
675.145	3512.61
675.336	3451.17
675.527	3365.15
675.717	3440.93
675.908	3301.67
676.099	3307.81
676.289	3356.96
676.48	3445.02
676.671	3307.81
676.861	3385.63
677.052	3234.08
677.243	3168.55
677.433	3215.65
677.624	3168.55
677.814	3082.53
678.005	3225.89
678.195	3146.02
678.386	3146.02
678.576	3270.95
678.767	3100.97
678.957	3127.59
679.148	3012.9
679.338	3207.46
679.529	3275.04
679.719	3119.4
679.909	3055.91
680.1	3070.25
680.29	3166.5
680.481	3047.72
680.671	3017
680.861	3115.3
681.052	2990.38
681.242	2965.8
681.432	3051.81
681.622	2998.57
681.813	3070.25
682.003	2840.87
682.193	2842.92
682.383	2912.55
682.573	2832.68
682.764	2828.59
682.954	2920.74
683.144	2937.13
683.334	2787.63
683.524	2849.07
683.714	2951.46
683.904	2812.2
684.094	2771.24
684.284	2758.96
684.474	2806.06
684.664	2857.26
684.854	2908.46
685.044	2783.53
685.234	2791.72
685.424	2906.41
685.614	2826.54
685.804	2713.9
685.994	2707.76
686.184	2789.67
686.374	2916.65
686.564	2705.71
686.753	2853.16
686.943	2791.72
687.133	2738.48
687.323	2787.63
687.513	2892.07
687.702	2818.35
687.892	2754.86
688.082	2709.8
688.272	2900.27
688.461	2761
688.651	2844.97
688.841	2793.77
689.03	2740.52
689.22	2683.18
689.41	2709.8
689.599	2799.91
689.789	2699.56
689.979	2697.52
690.168	2695.47
690.358	2650.41
690.547	2652.46
690.737	2627.89
690.926	2713.9
691.116	2529.58
691.305	2650.41
691.495	2605.36
691.684	2529.58
691.874	2715.95
692.063	2646.32
692.252	2609.45
692.442	2677.04
692.631	2586.93
692.82	2677.04
693.01	2578.73
693.199	2634.03
693.388	2623.79
693.578	2578.73
693.767	2574.64
693.956	2537.77
694.146	2601.26
694.335	2607.41
694.524	2523.44
694.713	2554.16
694.902	2515.25
695.092	2586.93
695.281	2455.86
695.47	2582.83
695.659	2455.86
695.848	2531.63
696.037	2548.01
696.226	2494.77
696.415	2552.11
696.604	2605.36
696.793	2398.51
696.982	2578.73
697.171	2431.28
697.36	2468.14
697.549	2416.94
697.738	2427.18
697.927	2421.04
698.116	2439.47
698.305	2384.18
698.494	2316.59
698.683	2378.03
698.872	2378.03
699.061	2455.86
699.25	2285.87
699.438	2341.17
699.627	2359.6
699.816	2345.27
700.005	2304.31
700.193	2335.03
700.382	2326.83
700.571	2238.77
700.76	2292.02
700.948	2171.19
701.137	2267.44
701.326	2388.27
701.514	2130.23
701.703	2281.78
701.892	2294.07
702.08	2171.19
702.269	2210.1
702.457	2302.26
702.646	2163
702.834	2079.03
703.023	2134.32
703.212	2160.95
703.4	2105.65
703.589	2099.51
703.777	2136.37
703.965	2019.64
704.154	2085.17
704.342	2025.78
704.531	2087.22
704.719	1999.16
704.907	1960.25
705.096	2060.6
705.284	1995.06
705.472	2134.32
705.661	2009.4
705.849	2046.26
706.037	1943.86
706.226	1937.72
706.414	1907
706.602	1952.06
706.79	1960.25
706.979	1960.25
707.167	1890.62
707.355	1898.81
707.543	1900.86
707.731	1915.19
707.919	1876.28
708.107	1878.33
708.296	1775.93
708.484	1802.55
708.672	1913.14
708.86	1847.61
709.048	1825.08
709.236	1911.1
709.424	1786.17
709.612	1753.4
709.8	1710.4
709.988	1790.27
710.176	1863.99
710.364	1841.47
710.551	1603.9
710.739	1767.74
710.927	1718.59
711.115	1679.68
711.303	1691.96
711.491	1665.34
711.679	1653.05
711.866	1653.05
712.054	1536.32
712.242	1681.72
712.43	1712.44
712.617	1628.48
712.805	1667.39
712.993	1556.8
713.181	1571.13
713.368	1636.67
713.556	1583.42
713.744	1497.41
713.931	1591.61
714.119	1679.68
714.306	1620.28
714.494	1585.47
714.682	1495.36
714.869	1521.98
715.057	1511.74
715.244	1562.94
715.432	1579.33
715.619	1579.33
715.807	1487.17
715.994	1558.85
716.182	1481.02
716.369	1521.98
716.556	1534.27
716.744	1427.78
716.931	1403.2
717.119	1450.3
717.306	1425.73
717.493	1433.92
717.681	1329.47
717.868	1454.4
718.055	1421.63
718.242	1390.91
718.43	1407.3
718.617	1485.12
718.804	1431.87
718.991	1352
719.179	1380.67
719.366	1374.53
719.553	1368.38
719.74	1362.24
719.927	1251.65
720.114	1259.84
720.301	1298.75
720.488	1270.08
720.676	1311.04
720.863	1327.43
721.05	1235.27
721.237	1319.23
721.424	1214.79
721.611	1227.07
721.798	1202.5
721.985	1304.9
722.172	1222.98
722.358	1126.72
722.545	1304.9
722.732	1261.89
722.919	1245.51
723.106	1204.55
723.293	1077.57
723.48	1124.68
723.667	1169.73
723.853	1083.72
724.04	1175.88
724.227	1208.64
724.414	1118.53
724.6	1059.14
724.787	1118.53
724.974	1098.05
725.161	1145.16
725.347	1143.11
725.534	1053
725.72	1085.76
725.907	1106.24
726.094	1161.54
726.28	1087.81
726.467	1040.71
726.653	1030.47
726.84	1073.48
727.027	1071.43
727.213	1085.76
727.4	1083.72
727.586	1026.37
727.773	1012.04
727.959	1048.9
728.145	921.93
728.332	969.03
728.518	1001.8
728.705	1089.86
728.891	952.65
729.077	1001.8
729.264	975.17
729.45	1014.09
729.636	880.97
729.823	936.26
730.009	940.36
730.195	1030.47
730.382	975.17
730.568	969.03
730.754	950.6
730.94	926.02
731.126	942.41
731.313	909.64
731.499	885.06
731.685	903.5
731.871	899.4
732.057	829.77
732.243	870.73
732.429	786.76
732.615	858.44
732.801	952.65
732.987	864.58
733.173	921.93
733.359	923.98
733.545	860.49
733.731	880.97
733.917	913.74
734.103	825.67
734.289	856.39
734.475	817.48
734.661	803.15
734.847	815.43
735.033	864.58
735.219	899.4
735.404	723.27
735.59	860.49
735.776	770.38
735.962	768.33
736.148	866.63
736.333	729.42
736.519	794.95
736.705	731.47
736.89	780.62
737.076	811.34
737.262	727.37
737.447	772.43
737.633	731.47
737.819	772.43
738.004	813.38
738.19	794.95
738.375	792.91
738.561	723.27
738.747	708.94
738.932	823.62
739.118	723.27
739.303	782.67
739.489	704.84
739.674	682.31
739.859	676.17
740.045	700.75
740.23	739.66
740.416	721.23
740.601	733.51
740.786	702.79
740.972	735.56
741.157	727.37
741.342	622.92
741.528	694.6
741.713	706.89
741.898	674.12
742.084	676.17
742.269	690.51
742.454	651.6
742.639	694.6
742.824	622.92
743.01	674.12
743.195	614.73
743.38	608.59
743.565	635.21
743.75	606.54
743.935	610.64
744.12	594.25
744.305	661.84
744.49	561.48
744.675	618.83
744.86	618.83
745.045	604.49
745.23	592.2
745.415	604.49
745.6	584.01
745.785	647.5
745.97	569.68
746.155	651.6
746.34	586.06
746.525	567.63
746.71	506.19
746.895	588.11
747.079	565.58
747.264	567.63
747.449	495.95
747.634	522.57
747.819	541.01
748.003	512.33
748.188	483.66
748.373	479.57
748.557	559.44
748.742	473.42
748.927	538.96
749.111	631.12
749.296	483.66
749.481	532.81
749.665	543.05
749.85	457.04
750.034	532.81
750.219	473.42
750.404	479.57
750.588	481.61
750.773	508.24
750.957	504.14
751.141	502.09
751.326	526.67
751.51	532.81
751.695	448.85
751.879	450.89
752.064	493.9
752.248	473.42
752.432	491.85
752.617	506.19
752.801	520.53
752.985	403.79
753.17	426.32
753.354	471.37
753.538	434.51
753.722	491.85
753.907	432.46
754.091	393.55
754.275	422.22
754.459	395.6
754.643	512.33
754.828	379.22
755.012	448.85
755.196	434.51
755.38	465.23
755.564	397.65
755.748	473.42
755.932	465.23
756.116	418.13
756.3	430.41
756.484	401.74
756.668	356.69
756.852	440.65
757.036	323.92
757.22	338.26
757.404	358.74
757.588	414.03
757.772	319.82
757.956	467.28
758.14	377.17
758.323	377.17
758.507	315.73
758.691	368.98
758.875	336.21
759.059	323.92
759.242	379.22
759.426	375.12
759.61	338.26
759.794	342.35
759.977	407.89
760.161	438.61
760.345	366.93
760.528	368.98
760.712	342.35
760.895	371.02
761.079	358.74
761.263	313.68
761.446	332.11
761.63	385.36
761.813	371.02
761.997	299.34
762.18	301.39
762.364	457.04
762.547	330.06
762.731	358.74
762.914	364.88
763.098	299.34
763.281	323.92
763.464	215.38
763.648	342.35
763.831	309.58
764.015	301.39
764.198	342.35
764.381	285.01
764.564	317.78
764.748	295.25
764.931	358.74
765.114	278.87
765.297	303.44
765.481	293.2
765.664	303.44
765.847	244.05
766.03	403.79
766.213	301.39
766.397	287.06
766.58	330.06
766.763	336.21
766.946	203.09
767.129	291.15
767.312	295.25
767.495	276.82
767.678	217.43
767.861	334.16
768.044	291.15
768.227	291.15
768.41	325.97
768.593	323.92
768.776	328.02
768.959	252.24
769.142	313.68
769.324	237.91
769.507	291.15
769.69	301.39
769.873	289.1
770.056	330.06
770.239	360.78
770.421	346.45
770.604	270.67
770.787	311.63
770.97	213.33
771.152	209.23
771.335	321.87
771.518	285.01
771.7	307.54
771.883	196.95
772.066	303.44
772.248	278.87
772.431	282.96
772.613	225.62
772.796	270.67
772.978	278.87
773.161	348.5
773.343	293.2
773.526	356.69
773.708	242
773.891	303.44
774.073	237.91
774.256	203.09
774.438	260.43
774.621	237.91
774.803	325.97
774.985	233.81
775.168	291.15
775.35	268.63
775.532	309.58
775.715	309.58
775.897	254.29
776.079	297.3
776.261	276.82
776.444	231.76
776.626	194.9
776.808	254.29
776.99	190.8
777.173	250.19
777.355	254.29
777.537	188.75
777.719	235.86
777.901	237.91
778.083	244.05
778.265	246.1
778.447	297.3
778.629	213.33
778.811	301.39
778.993	248.15
779.175	330.06
779.357	237.91
779.539	254.29
779.721	256.34
779.903	201.04
780.085	186.71
780.267	211.28
780.449	190.8
780.631	227.67
780.812	198.99
780.994	190.8
781.176	80.21
781.358	217.43
781.54	162.13
781.721	164.18
781.903	192.85
782.085	225.62
782.267	233.81
782.448	264.53
782.63	133.46
782.812	237.91
782.993	229.71
783.175	203.09
783.357	192.85
783.538	170.32
783.72	172.37
783.901	119.12
784.083	242
784.264	121.17
784.446	115.03
784.627	188.75
784.809	330.06
784.99	145.75
785.172	215.38
785.353	160.08
785.535	190.8
785.716	168.27
785.897	188.75
786.079	194.9
786.26	74.07
786.441	112.98
786.623	160.08
786.804	168.27
786.985	147.8
787.167	92.5
787.348	168.27
787.529	98.64
787.71	155.99
787.891	188.75
788.073	86.36
788.254	151.89
788.435	227.67
788.616	123.22
788.797	117.08
788.978	108.88
789.159	98.64
789.34	96.6
789.522	172.37
789.703	192.85
789.884	219.47
790.065	129.36
790.246	108.88
790.427	170.32
790.607	155.99
790.788	147.8
790.969	139.6
791.15	39.25
791.331	141.65
791.512	137.56
791.693	94.55
791.874	96.6
792.054	170.32
792.235	121.17
792.416	115.03
792.597	172.37
792.778	164.18
792.958	69.97
793.139	94.55
793.32	149.84
793.5	158.03
793.681	223.57
793.862	63.83
794.042	162.13
794.223	112.98
794.404	80.21
794.584	98.64
794.765	88.4
794.945	94.55
795.126	207.19
795.306	133.46
795.487	178.51
795.667	108.88
795.848	149.84
796.028	94.55
796.209	129.36
796.389	147.8
796.57	141.65
796.75	123.22
796.93	112.98
797.111	133.46
797.291	125.27
797.471	63.83
797.652	121.17
797.832	72.02
798.012	145.75
798.192	49.49
798.373	84.31
798.553	106.84
798.733	110.93
798.913	88.4
799.093	131.41
799.274	100.69
799.454	115.03
799.634	59.73
799.814	98.64
799.994	123.22
800.174	143.7
800.354	131.41
800.534	76.12
800.714	110.93
800.894	57.68
801.074	96.6
801.254	141.65
801.434	98.64
801.614	119.12
801.794	108.88
801.974	280.91
802.154	108.88
802.334	106.84
802.514	45.4
802.693	39.25
802.873	57.68
803.053	112.98
803.233	59.73
803.413	43.35
803.592	67.92
803.772	-16.04
803.952	57.68
804.131	112.98
804.311	100.69
804.491	104.79
804.67	80.21
804.85	131.41
805.03	123.22
805.209	6.49
805.389	74.07
805.568	96.6
805.748	115.03
805.928	106.84
806.107	92.5
806.287	-5.8
806.466	74.07
806.646	104.79
806.825	115.03
807.004	106.84
807.184	24.92
807.363	72.02
807.543	96.6
807.722	86.36
807.901	76.12
808.081	57.68
808.26	12.63
808.439	51.54
808.619	55.64
808.798	92.5
808.977	125.27
809.156	98.64
809.336	49.49
809.515	-1.71
809.694	45.4
809.873	4.44
810.052	41.3
810.231	37.2
810.411	133.46
810.59	84.31
810.769	121.17
810.948	90.45
811.127	14.68
811.306	37.2
811.485	57.68
811.664	100.69
811.843	14.68
812.022	88.4
812.201	47.44
812.38	57.68
812.559	98.64
812.737	22.87
812.916	22.87
813.095	26.96
813.274	74.07
813.453	16.73
813.632	29.01
813.811	106.84
813.989	0.34
814.168	43.35
814.347	37.2
814.526	8.53
814.704	-11.95
814.883	162.13
815.062	63.83
815.24	84.31
815.419	16.73
815.598	-11.95
815.776	26.96
815.955	53.59
816.133	69.97
816.312	63.83
816.49	14.68
816.669	80.21
816.847	31.06
817.026	63.83
817.204	33.11
817.383	12.63
817.561	82.26
817.74	20.82
817.918	84.31
818.097	29.01
818.275	102.74
818.453	115.03
818.632	33.11
818.81	31.06
818.988	4.44
819.167	61.78
819.345	59.73
819.523	63.83
819.701	49.49
819.879	63.83
820.058	55.64
820.236	2.39
820.414	-13.99
820.592	72.02
820.77	41.3
820.948	63.83
821.127	63.83
821.305	-1.71
821.483	117.08
821.661	76.12
821.839	45.4
822.017	-7.85
822.195	-1.71
822.373	-13.99
822.551	39.25
822.729	80.21
822.907	55.64
823.085	57.68
823.262	0.34
823.44	65.88
823.618	-22.19
823.796	47.44
823.974	57.68
824.152	10.58
824.329	37.2
824.507	12.63
824.685	-34.47
824.863	29.01
825.04	-36.52
825.218	26.96
825.396	72.02
825.574	100.69
825.751	8.53
825.929	29.01
826.107	0.34
826.284	41.3
826.462	55.64
826.639	-28.33
826.817	-71.34
826.994	39.25
827.172	8.53
827.349	51.54
827.527	63.83
827.704	78.16
827.882	102.74
828.059	53.59
828.237	47.44
828.414	57.68
828.591	-38.57
828.769	-11.95
828.946	51.54
829.124	-1.71
829.301	26.96
829.478	39.25
829.655	-24.23
829.833	49.49
830.01	41.3
830.187	-46.76
830.364	43.35
830.542	6.49
830.719	35.16
830.896	51.54
831.073	33.11
831.25	2.39
831.427	10.58
831.604	14.68
831.782	-24.23
831.959	35.16
832.136	18.77
832.313	82.26
832.49	12.63
832.667	31.06
832.844	43.35
833.021	4.44
833.198	-46.76
833.374	39.25
833.551	31.06
833.728	104.79
833.905	72.02
834.082	-1.71
834.259	67.92
834.436	-13.99
834.612	12.63
834.789	22.87
834.966	4.44
835.143	-9.9
835.319	80.21
835.496	59.73
835.673	0.34
835.85	6.49
836.026	47.44
836.203	31.06
836.38	-5.8
836.556	63.83
836.733	-26.28
836.909	20.82
837.086	49.49
837.262	59.73
837.439	24.92
837.616	51.54
837.792	4.44
837.968	-50.86
838.145	-69.29
838.321	26.96
838.498	-54.95
838.674	74.07
838.851	45.4
839.027	10.58
839.203	49.49
839.38	14.68
839.556	-26.28
839.732	24.92
839.909	-1.71
840.085	82.26
840.261	33.11
840.437	-16.04
840.614	117.08
840.79	57.68
840.966	8.53
841.142	12.63
841.318	-24.23
841.494	-20.14
841.671	-24.23
841.847	63.83
842.023	-22.19
842.199	29.01
842.375	-28.33
842.551	14.68
842.727	-7.85
842.903	-26.28
843.079	47.44
843.255	-71.34
843.431	55.64
843.607	63.83
843.783	-32.43
843.959	-5.8
844.134	6.49
844.31	31.06
844.486	37.2
844.662	-30.38
844.838	-1.71
845.013	-9.9
845.189	35.16
845.365	33.11
845.541	-1.71
845.716	33.11
845.892	61.78
846.068	0.34
846.244	-38.57
846.419	-1.71
846.595	10.58
846.77	-9.9
846.946	49.49
847.122	-44.71
847.297	-18.09
847.473	26.96
847.648	29.01
847.824	78.16
847.999	2.39
848.175	8.53
848.35	-40.62
848.526	-13.99
848.701	6.49
848.876	74.07
849.052	63.83
849.227	22.87
849.403	8.53
849.578	-32.43
849.753	18.77
849.929	20.82
850.104	-42.67
850.279	20.82
850.454	-20.14
850.63	51.54
850.805	0.34
850.98	14.68
851.155	63.83
851.33	20.82
851.505	35.16
851.681	90.45
851.856	-1.71
852.031	10.58
852.206	43.35
852.381	4.44
852.556	37.2
852.731	-1.71
852.906	0.34
853.081	8.53
853.256	-81.58
853.431	-30.38
853.606	-46.76
853.781	2.39
853.956	-7.85
854.131	55.64
854.305	22.87
854.48	37.2
854.655	-11.95
854.83	-54.95
855.005	10.58
855.18	-26.28
855.354	51.54
855.529	18.77
855.704	2.39
855.879	6.49
856.053	-26.28
856.228	63.83
856.403	-18.09
856.577	8.53
856.752	-46.76
856.926	74.07
857.101	-59.05
857.276	29.01
857.45	37.2
857.625	16.73
857.799	35.16
857.974	-3.75
858.148	-93.87
858.323	-24.23
858.497	12.63
858.672	-18.09
858.846	-59.05
859.02	76.12
859.195	-91.82
859.369	-24.23
859.543	-28.33
859.718	24.92
859.892	10.58
860.066	33.11
860.241	-18.09
860.415	8.53
860.589	16.73
860.763	41.3
860.938	-16.04
861.112	18.77
861.286	-18.09
861.46	35.16
861.634	-22.19
861.808	31.06
861.982	-13.99
862.157	14.68
862.331	8.53
862.505	88.4
862.679	-9.9
862.853	-22.19
863.027	43.35
863.201	55.64
863.375	-28.33
863.549	2.39
863.722	94.55
863.896	29.01
864.07	72.02
864.244	2.39
864.418	-16.04
864.592	-30.38
864.766	-20.14
864.939	-1.71
865.113	82.26
865.287	-30.38
865.461	26.96
865.634	16.73
865.808	39.25
865.982	-73.39
866.156	-26.28
866.329	14.68
866.503	10.58
866.676	47.44
866.85	20.82
867.024	-9.9
867.197	-3.75
867.371	-18.09
867.544	98.64
867.718	4.44
867.891	45.4
868.065	-30.38
868.238	-9.9
868.412	72.02
868.585	-46.76
868.759	-38.57
868.932	-9.9
869.105	20.82
869.279	22.87
869.452	-28.33
869.625	12.63
869.799	-26.28
869.972	-42.67
870.145	67.92
870.319	-5.8
870.492	59.73
870.665	-16.04
870.838	31.06
871.011	-42.67
871.185	12.63
871.358	-3.75
871.531	-22.19
871.704	41.3
871.877	16.73
872.05	26.96
872.223	-87.72
872.396	24.92
872.569	-46.76
872.742	-9.9
872.915	-7.85
873.088	0.34
873.261	-13.99
873.434	37.2
873.607	-28.33
873.78	20.82
873.953	-7.85
874.126	-22.19
874.299	24.92
874.471	37.2
874.644	92.5
874.817	67.92
874.99	12.63
875.163	-24.23
875.335	-11.95
875.508	0.34
875.681	47.44
875.853	-7.85
876.026	-26.28
876.199	-57
876.371	-18.09
876.544	39.25
876.717	-42.67
876.889	-79.53
877.062	37.2
877.234	-26.28
877.407	41.3
877.579	-16.04
877.752	-9.9
877.924	-32.43
878.097	12.63
878.269	2.39
878.442	0.34
878.614	26.96
878.786	-57
878.959	-13.99
879.131	45.4
879.303	4.44
879.476	-24.23
879.648	-7.85
879.82	-106.15
879.993	43.35
880.165	-22.19
880.337	-69.29
880.509	-34.47
880.681	-40.62
880.854	-40.62
881.026	12.63
881.198	22.87
881.37	20.82
881.542	106.84
881.714	-34.47
881.886	-28.33
882.058	22.87
882.23	22.87
882.402	-1.71
882.574	29.01
882.746	-20.14
882.918	10.58
883.09	-34.47
883.262	18.77
883.434	-40.62
883.606	53.59
883.778	-77.48
883.95	-9.9
884.122	-13.99
884.293	6.49
884.465	-40.62
884.637	24.92
884.809	8.53
884.98	47.44
885.152	4.44
885.324	39.25
885.496	-30.38
885.667	-5.8
885.839	-28.33
886.011	49.49
886.182	-42.67
886.354	8.53
886.525	-85.67
886.697	-18.09
886.869	-50.86
887.04	39.25
887.212	16.73
887.383	31.06
887.555	31.06
887.726	26.96
887.897	16.73
888.069	2.39
888.24	63.83
888.412	22.87
888.583	-46.76
888.754	49.49
888.926	-11.95
889.097	29.01
889.268	-7.85
889.44	-20.14
889.611	-46.76
889.782	-59.05
889.953	-40.62
890.125	43.35
890.296	-1.71
890.467	-34.47
890.638	14.68
890.809	76.12
890.98	12.63
891.151	12.63
891.323	-11.95
891.494	18.77
891.665	-1.71
891.836	-50.86
892.007	16.73
892.178	18.77
892.349	26.96
892.52	-7.85
892.691	-7.85
892.862	4.44
893.032	-59.05
893.203	26.96
893.374	43.35
893.545	41.3
893.716	-85.67
893.887	4.44
894.057	-42.67
894.228	57.68
894.399	-42.67
894.57	-65.19
894.74	59.73
894.911	0.34
895.082	-22.19
895.253	-34.47
895.423	10.58
895.594	20.82
895.764	-26.28
895.935	22.87
896.106	26.96
896.276	10.58
896.447	-32.43
896.617	31.06
896.788	2.39
896.958	26.96
897.129	-71.34
897.299	-7.85
897.47	-3.75
897.64	6.49
897.81	-26.28
897.981	-52.91
898.151	22.87
898.322	-22.19
898.492	-13.99
898.662	-1.71
898.832	-9.9
899.003	-13.99
899.173	29.01
899.343	67.92
899.513	-36.52
