Data from USB4F104151__3__12-53-04-389.txt Node

Date: Fri Mar 14 12:53:04 EDT 2025
User: louis
Spectrometer: USB4F10415
Trigger mode: 4
Integration Time (sec): 1.000000E-2
Scans to average: 1
Electric dark correction enabled: true
Nonlinearity correction enabled: false
Boxcar width: 0
XAxis mode: Wavelengths
Number of Pixels in Spectrum: 3648
>>>>>Begin Spectral Data<<<<<
178.204	8.02
178.424	8.02
178.644	8.02
178.864	-37.03
179.084	26.45
179.304	61.27
179.524	-59.56
179.744	-45.23
179.964	36.69
180.184	-43.18
180.404	3.93
180.624	-4.27
180.844	38.74
181.064	10.07
181.283	14.17
181.503	28.5
181.723	-41.13
181.943	24.4
182.163	89.94
182.383	36.69
182.602	81.75
182.822	85.84
183.042	36.69
183.262	3.93
183.482	67.41
183.701	71.51
183.921	34.64
184.141	53.08
184.361	55.12
184.58	28.5
184.8	89.94
185.02	28.5
185.239	10.07
185.459	34.64
185.679	51.03
185.898	24.4
186.118	-32.94
186.338	40.79
186.557	-28.84
186.777	32.6
186.997	38.74
187.216	-16.55
187.436	79.7
187.655	77.65
187.875	96.08
188.095	16.21
188.314	-22.7
188.534	57.17
188.753	120.66
188.973	-2.22
189.192	87.89
189.412	18.26
189.631	42.84
189.851	-18.6
190.07	-18.6
190.29	51.03
190.509	51.03
190.729	3.93
190.948	-2.22
191.168	48.98
191.387	-0.17
191.607	63.32
191.826	71.51
192.045	-47.27
192.265	12.12
192.484	8.02
192.704	-39.08
192.923	5.97
193.142	65.36
193.362	79.7
193.581	147.28
193.8	36.69
194.02	85.84
194.239	-22.7
194.458	12.12
194.678	53.08
194.897	91.99
195.116	32.6
195.335	98.13
195.555	67.41
195.774	24.4
195.993	67.41
196.212	46.93
196.432	24.4
196.651	42.84
196.87	30.55
197.089	75.6
197.308	42.84
197.528	12.12
197.747	-106.67
197.966	38.74
198.185	91.99
198.404	16.21
198.623	57.17
198.842	53.08
199.062	18.26
199.281	-2.22
199.5	-12.46
199.719	128.85
199.938	-10.41
200.157	51.03
200.376	73.56
200.595	30.55
200.814	63.32
201.033	-4.27
201.252	20.31
201.471	124.76
201.69	94.04
201.909	81.75
202.128	38.74
202.347	-6.31
202.566	20.31
202.785	44.88
203.004	3.93
203.223	130.9
203.442	77.65
203.661	59.22
203.879	28.5
204.098	44.88
204.317	-24.75
204.536	110.42
204.755	79.7
204.974	85.84
205.193	30.55
205.411	73.56
205.63	10.07
205.849	40.79
206.068	42.84
206.287	61.27
206.505	32.6
206.724	53.08
206.943	151.38
207.162	-4.27
207.381	42.84
207.599	40.79
207.818	79.7
208.037	69.46
208.255	36.69
208.474	112.47
208.693	-26.79
208.911	22.36
209.13	28.5
209.349	16.21
209.567	61.27
209.786	46.93
210.005	87.89
210.223	85.84
210.442	3.93
210.661	108.37
210.879	106.32
211.098	10.07
211.316	91.99
211.535	-0.17
211.753	124.76
211.972	-24.75
212.191	18.26
212.409	53.08
212.628	69.46
212.846	61.27
213.065	26.45
213.283	-0.17
213.502	-43.18
213.72	10.07
213.938	-37.03
214.157	46.93
214.375	77.65
214.594	38.74
214.812	3.93
215.031	108.37
215.249	-0.17
215.467	40.79
215.686	32.6
215.904	48.98
216.122	65.36
216.341	75.6
216.559	-16.55
216.778	132.95
216.996	120.66
217.214	1.88
217.432	42.84
217.651	65.36
217.869	57.17
218.087	18.26
218.306	61.27
218.524	1.88
218.742	44.88
218.96	16.21
219.179	83.8
219.397	55.12
219.615	151.38
219.833	63.32
220.051	10.07
220.27	94.04
220.488	40.79
220.706	-16.55
220.924	77.65
221.142	28.5
221.36	-10.41
221.578	71.51
221.796	42.84
222.015	81.75
222.233	-8.36
222.451	139.09
222.669	34.64
222.887	24.4
223.105	32.6
223.323	112.47
223.541	79.7
223.759	89.94
223.977	63.32
224.195	26.45
224.413	73.56
224.631	91.99
224.849	-6.31
225.067	118.61
225.285	42.84
225.503	40.79
225.721	30.55
225.939	44.88
226.157	28.5
226.375	55.12
226.592	46.93
226.81	67.41
227.028	28.5
227.246	-4.27
227.464	30.55
227.682	79.7
227.9	-2.22
228.117	40.79
228.335	94.04
228.553	5.97
228.771	71.51
228.989	24.4
229.206	26.45
229.424	96.08
229.642	-0.17
229.86	120.66
230.077	26.45
230.295	16.21
230.513	63.32
230.731	24.4
230.948	73.56
231.166	51.03
231.384	-30.89
231.601	-0.17
231.819	14.17
232.037	-4.27
232.254	57.17
232.472	5.97
232.689	73.56
232.907	102.23
233.125	73.56
233.342	73.56
233.56	38.74
233.777	42.84
233.995	1.88
234.213	102.23
234.43	57.17
234.648	-4.27
234.865	26.45
235.083	59.22
235.3	69.46
235.518	69.46
235.735	-16.55
235.953	14.17
236.17	22.36
236.388	81.75
236.605	22.36
236.822	96.08
237.04	102.23
237.257	51.03
237.475	89.94
237.692	44.88
237.909	51.03
238.127	67.41
238.344	51.03
238.562	36.69
238.779	42.84
238.996	42.84
239.214	34.64
239.431	73.56
239.648	-4.27
239.865	89.94
240.083	30.55
240.3	73.56
240.517	26.45
240.735	40.79
240.952	22.36
241.169	65.36
241.386	75.6
241.603	5.97
241.821	75.6
242.038	126.8
242.255	24.4
242.472	132.95
242.689	40.79
242.907	79.7
243.124	61.27
243.341	59.22
243.558	87.89
243.775	-0.17
243.992	85.84
244.209	12.12
244.426	81.75
244.643	75.6
244.86	28.5
245.078	124.76
245.295	24.4
245.512	32.6
245.729	-41.13
245.946	32.6
246.163	69.46
246.38	77.65
246.597	42.84
246.814	73.56
247.031	65.36
247.248	12.12
247.464	55.12
247.681	55.12
247.898	16.21
248.115	124.76
248.332	16.21
248.549	145.24
248.766	102.23
248.983	73.56
249.2	26.45
249.417	36.69
249.633	94.04
249.85	14.17
250.067	98.13
250.284	94.04
250.501	26.45
250.717	71.51
250.934	69.46
251.151	83.8
251.368	65.36
251.585	67.41
251.801	98.13
252.018	81.75
252.235	61.27
252.451	106.32
252.668	40.79
252.885	147.28
253.102	61.27
253.318	-22.7
253.535	8.02
253.752	40.79
253.968	-26.79
254.185	38.74
254.401	65.36
254.618	18.26
254.835	14.17
255.051	34.64
255.268	10.07
255.484	-26.79
255.701	87.89
255.917	38.74
256.134	24.4
256.351	51.03
256.567	87.89
256.784	63.32
257	38.74
257.217	79.7
257.433	38.74
257.65	69.46
257.866	55.12
258.082	1.88
258.299	24.4
258.515	55.12
258.732	24.4
258.948	114.52
259.165	130.9
259.381	91.99
259.597	-37.03
259.814	108.37
260.03	130.9
260.246	14.17
260.463	36.69
260.679	61.27
260.895	22.36
261.112	69.46
261.328	16.21
261.544	77.65
261.761	110.42
261.977	106.32
262.193	51.03
262.409	83.8
262.626	30.55
262.842	48.98
263.058	-16.55
263.274	63.32
263.49	5.97
263.707	65.36
263.923	61.27
264.139	69.46
264.355	30.55
264.571	79.7
264.787	30.55
265.004	67.41
265.22	69.46
265.436	65.36
265.652	75.6
265.868	73.56
266.084	24.4
266.3	44.88
266.516	34.64
266.732	51.03
266.948	55.12
267.164	36.69
267.38	75.6
267.596	46.93
267.812	57.17
268.028	20.31
268.244	100.18
268.46	-0.17
268.676	20.31
268.892	69.46
269.108	57.17
269.324	53.08
269.54	46.93
269.756	98.13
269.972	36.69
270.188	65.36
270.403	59.22
270.619	46.93
270.835	5.97
271.051	61.27
271.267	96.08
271.483	26.45
271.698	42.84
271.914	100.18
272.13	-0.17
272.346	22.36
272.562	67.41
272.777	79.7
272.993	126.8
273.209	147.28
273.425	-6.31
273.64	34.64
273.856	75.6
274.072	87.89
274.287	55.12
274.503	59.22
274.719	149.33
274.934	71.51
275.15	51.03
275.366	53.08
275.581	57.17
275.797	116.56
276.012	10.07
276.228	34.64
276.444	24.4
276.659	81.75
276.875	36.69
277.09	57.17
277.306	63.32
277.521	69.46
277.737	14.17
277.952	81.75
278.168	69.46
278.383	57.17
278.599	-24.75
278.814	81.75
279.03	14.17
279.245	104.28
279.461	48.98
279.676	55.12
279.892	30.55
280.107	108.37
280.322	14.17
280.538	120.66
280.753	65.36
280.969	106.32
281.184	81.75
281.399	135
281.615	67.41
281.83	73.56
282.045	40.79
282.26	73.56
282.476	81.75
282.691	46.93
282.906	57.17
283.122	87.89
283.337	18.26
283.552	89.94
283.767	77.65
283.983	48.98
284.198	55.12
284.413	14.17
284.628	-2.22
284.843	38.74
285.058	32.6
285.274	55.12
285.489	24.4
285.704	-16.55
285.919	120.66
286.134	63.32
286.349	30.55
286.564	69.46
286.779	22.36
286.995	73.56
287.21	22.36
287.425	126.8
287.64	-51.37
287.855	20.31
288.07	102.23
288.285	51.03
288.5	63.32
288.715	24.4
288.93	38.74
289.145	16.21
289.36	-12.46
289.575	63.32
289.79	114.52
290.004	32.6
290.219	22.36
290.434	71.51
290.649	65.36
290.864	-20.65
291.079	12.12
291.294	122.71
291.509	-30.89
291.724	1.88
291.938	-4.27
292.153	5.97
292.368	16.21
292.583	61.27
292.798	28.5
293.012	42.84
293.227	83.8
293.442	24.4
293.657	48.98
293.871	57.17
294.086	34.64
294.301	83.8
294.516	89.94
294.73	71.51
294.945	42.84
295.16	8.02
295.374	30.55
295.589	53.08
295.804	38.74
296.018	69.46
296.233	3.93
296.447	46.93
296.662	69.46
296.877	110.42
297.091	40.79
297.306	75.6
297.52	48.98
297.735	94.04
297.949	-14.51
298.164	-26.79
298.378	79.7
298.593	8.02
298.807	-0.17
299.022	59.22
299.236	79.7
299.451	79.7
299.665	67.41
299.88	112.47
300.094	106.32
300.309	18.26
300.523	42.84
300.737	28.5
300.952	69.46
301.166	22.36
301.381	5.97
301.595	61.27
301.809	44.88
302.024	102.23
302.238	59.22
302.452	116.56
302.667	48.98
302.881	69.46
303.095	75.6
303.309	79.7
303.524	1.88
303.738	57.17
303.952	-2.22
304.166	30.55
304.381	3.93
304.595	59.22
304.809	79.7
305.023	120.66
305.237	77.65
305.452	10.07
305.666	71.51
305.88	112.47
306.094	36.69
306.308	75.6
306.522	102.23
306.736	120.66
306.95	10.07
307.164	32.6
307.379	28.5
307.593	32.6
307.807	104.28
308.021	124.76
308.235	108.37
308.449	79.7
308.663	-6.31
308.877	57.17
309.091	53.08
309.305	104.28
309.519	132.95
309.733	79.7
309.947	-12.46
310.161	55.12
310.374	96.08
310.588	55.12
310.802	63.32
311.016	59.22
311.23	94.04
311.444	-16.55
311.658	51.03
311.872	104.28
312.085	112.47
312.299	71.51
312.513	26.45
312.727	67.41
312.941	20.31
313.154	143.19
313.368	126.8
313.582	18.26
313.796	75.6
314.009	67.41
314.223	32.6
314.437	98.13
314.651	106.32
314.864	71.51
315.078	73.56
315.292	42.84
315.505	26.45
315.719	55.12
315.933	3.93
316.146	40.79
316.36	-43.18
316.573	73.56
316.787	120.66
317.001	63.32
317.214	79.7
317.428	57.17
317.641	48.98
317.855	55.12
318.068	51.03
318.282	22.36
318.495	65.36
318.709	67.41
318.922	67.41
319.136	51.03
319.349	67.41
319.563	91.99
319.776	57.17
319.99	104.28
320.203	89.94
320.417	10.07
320.63	32.6
320.843	98.13
321.057	42.84
321.27	108.37
321.483	59.22
321.697	137.04
321.91	89.94
322.124	55.12
322.337	-16.55
322.55	67.41
322.763	61.27
322.977	48.98
323.19	69.46
323.403	87.89
323.617	8.02
323.83	79.7
324.043	108.37
324.256	55.12
324.469	89.94
324.683	106.32
324.896	38.74
325.109	143.19
325.322	26.45
325.535	32.6
325.748	63.32
325.962	57.17
326.175	12.12
326.388	28.5
326.601	139.09
326.814	91.99
327.027	46.93
327.24	114.52
327.453	48.98
327.666	44.88
327.879	81.75
328.092	61.27
328.305	46.93
328.518	48.98
328.731	36.69
328.944	16.21
329.157	112.47
329.37	85.84
329.583	22.36
329.796	26.45
330.009	57.17
330.222	73.56
330.435	75.6
330.648	44.88
330.861	51.03
331.073	63.32
331.286	38.74
331.499	87.89
331.712	55.12
331.925	30.55
332.138	-0.17
332.35	57.17
332.563	57.17
332.776	104.28
332.989	94.04
333.202	114.52
333.414	79.7
333.627	102.23
333.84	26.45
334.053	87.89
334.265	34.64
334.478	36.69
334.691	28.5
334.903	75.6
335.116	26.45
335.329	-28.84
335.541	46.93
335.754	85.84
335.966	75.6
336.179	8.02
336.392	51.03
336.604	51.03
336.817	77.65
337.029	22.36
337.242	79.7
337.454	102.23
337.667	32.6
337.88	85.84
338.092	63.32
338.305	120.66
338.517	-10.41
338.729	14.17
338.942	128.85
339.154	42.84
339.367	145.24
339.579	112.47
339.792	85.84
340.004	81.75
340.217	77.65
340.429	65.36
340.641	149.33
340.854	57.17
341.066	59.22
341.278	106.32
341.491	114.52
341.703	12.12
341.915	79.7
342.128	130.9
342.34	104.28
342.552	75.6
342.764	122.71
342.977	100.18
343.189	53.08
343.401	59.22
343.613	94.04
343.826	73.56
344.038	65.36
344.25	96.08
344.462	91.99
344.674	79.7
344.886	24.4
345.099	87.89
345.311	16.21
345.523	73.56
345.735	38.74
345.947	30.55
346.159	8.02
346.371	20.31
346.583	128.85
346.795	59.22
347.007	-0.17
347.219	61.27
347.431	53.08
347.643	36.69
347.855	26.45
348.067	110.42
348.279	40.79
348.491	-6.31
348.703	30.55
348.915	57.17
349.127	67.41
349.339	75.6
349.551	18.26
349.763	48.98
349.975	77.65
350.187	73.56
350.399	63.32
350.61	116.56
350.822	59.22
351.034	59.22
351.246	98.13
351.458	75.6
351.669	-4.27
351.881	73.56
352.093	32.6
352.305	81.75
352.517	75.6
352.728	59.22
352.94	14.17
353.152	73.56
353.363	36.69
353.575	98.13
353.787	30.55
353.999	102.23
354.21	75.6
354.422	71.51
354.633	118.61
354.845	36.69
355.057	61.27
355.268	32.6
355.48	132.95
355.692	124.76
355.903	112.47
356.115	63.32
356.326	83.8
356.538	26.45
356.749	71.51
356.961	32.6
357.172	10.07
357.384	79.7
357.595	83.8
357.807	42.84
358.018	71.51
358.23	44.88
358.441	34.64
358.653	16.21
358.864	67.41
359.075	30.55
359.287	79.7
359.498	10.07
359.709	77.65
359.921	61.27
360.132	38.74
360.344	55.12
360.555	32.6
360.766	98.13
360.977	81.75
361.189	69.46
361.4	28.5
361.611	81.75
361.823	24.4
362.034	104.28
362.245	24.4
362.456	61.27
362.667	38.74
362.879	22.36
363.09	87.89
363.301	8.02
363.512	53.08
363.723	14.17
363.935	65.36
364.146	126.8
364.357	75.6
364.568	81.75
364.779	46.93
364.99	14.17
365.201	106.32
365.412	48.98
365.623	79.7
365.834	120.66
366.045	36.69
366.256	67.41
366.467	10.07
366.678	38.74
366.889	34.64
367.1	104.28
367.311	61.27
367.522	171.86
367.733	-24.75
367.944	118.61
368.155	169.81
368.366	85.84
368.577	26.45
368.788	124.76
368.999	-24.75
369.209	38.74
369.42	53.08
369.631	145.24
369.842	55.12
370.053	44.88
370.264	114.52
370.474	55.12
370.685	38.74
370.896	63.32
371.107	61.27
371.317	77.65
371.528	94.04
371.739	94.04
371.95	98.13
372.16	100.18
372.371	81.75
372.582	12.12
372.792	137.04
373.003	71.51
373.214	87.89
373.424	89.94
373.635	24.4
373.846	55.12
374.056	73.56
374.267	53.08
374.477	69.46
374.688	42.84
374.898	91.99
375.109	87.89
375.319	-0.17
375.53	91.99
375.74	106.32
375.951	55.12
376.161	118.61
376.372	106.32
376.582	8.02
376.793	55.12
377.003	71.51
377.214	46.93
377.424	73.56
377.635	32.6
377.845	83.8
378.055	108.37
378.266	53.08
378.476	-2.22
378.686	59.22
378.897	91.99
379.107	53.08
379.317	34.64
379.528	36.69
379.738	8.02
379.948	46.93
380.158	98.13
380.369	57.17
380.579	87.89
380.789	38.74
380.999	85.84
381.21	46.93
381.42	24.4
381.63	57.17
381.84	153.43
382.05	102.23
382.261	24.4
382.471	106.32
382.681	69.46
382.891	147.28
383.101	55.12
383.311	55.12
383.521	81.75
383.731	63.32
383.941	98.13
384.151	112.47
384.361	53.08
384.571	42.84
384.781	77.65
384.991	69.46
385.201	108.37
385.411	61.27
385.621	61.27
385.831	77.65
386.041	71.51
386.251	112.47
386.461	55.12
386.671	53.08
386.881	44.88
387.091	89.94
387.301	165.71
387.511	46.93
387.72	145.24
387.93	100.18
388.14	16.21
388.35	112.47
388.56	59.22
388.769	67.41
388.979	110.42
389.189	69.46
389.399	79.7
389.609	114.52
389.818	143.19
390.028	89.94
390.238	83.8
390.447	126.8
390.657	114.52
390.867	102.23
391.076	87.89
391.286	137.04
391.496	26.45
391.705	73.56
391.915	42.84
392.125	104.28
392.334	61.27
392.544	178
392.753	161.62
392.963	18.26
393.172	26.45
393.382	61.27
393.591	40.79
393.801	65.36
394.01	77.65
394.22	71.51
394.429	77.65
394.639	57.17
394.848	22.36
395.058	69.46
395.267	65.36
395.477	135
395.686	73.56
395.895	42.84
396.105	157.52
396.314	63.32
396.524	102.23
396.733	98.13
396.942	87.89
397.152	75.6
397.361	73.56
397.57	91.99
397.78	55.12
397.989	163.67
398.198	137.04
398.407	145.24
398.617	40.79
398.826	65.36
399.035	16.21
399.244	65.36
399.453	137.04
399.663	48.98
399.872	61.27
400.081	102.23
400.29	79.7
400.499	192.34
400.708	110.42
400.917	141.14
401.127	85.84
401.336	94.04
401.545	151.38
401.754	61.27
401.963	161.62
402.172	155.47
402.381	149.33
402.59	126.8
402.799	147.28
403.008	153.43
403.217	135
403.426	94.04
403.635	120.66
403.844	114.52
404.053	159.57
404.262	108.37
404.471	147.28
404.68	163.67
404.888	55.12
405.097	124.76
405.306	151.38
405.515	161.62
405.724	169.81
405.933	151.38
406.142	120.66
406.35	184.15
406.559	124.76
406.768	182.1
406.977	141.14
407.185	122.71
407.394	210.77
407.603	155.47
407.812	198.48
408.02	184.15
408.229	165.71
408.438	182.1
408.646	180.05
408.855	145.24
409.064	171.86
409.272	278.35
409.481	229.2
409.69	288.59
409.898	194.39
410.107	239.44
410.315	270.16
410.524	180.05
410.733	288.59
410.941	247.63
411.15	343.89
411.358	264.02
411.567	378.7
411.775	366.42
411.984	300.88
412.192	317.26
412.401	311.12
412.609	331.6
412.818	378.7
413.026	411.47
413.234	427.85
413.443	376.66
413.651	401.23
413.86	464.72
414.068	419.66
414.276	436.05
414.485	405.33
414.693	472.91
414.901	495.44
415.11	456.53
415.318	509.77
415.526	554.83
415.734	544.59
415.943	579.4
416.151	573.26
416.359	567.12
416.567	612.17
416.776	642.89
416.984	759.63
417.192	673.61
417.4	763.72
417.608	720.71
417.817	800.59
418.025	816.97
418.233	782.15
418.441	829.26
418.649	872.26
418.857	880.46
419.065	886.6
419.273	905.03
419.481	1009.48
419.689	1013.57
419.897	1099.59
420.105	1107.78
420.313	1101.64
420.521	1095.49
420.729	1158.98
420.937	1118.02
421.145	1206.08
421.353	1298.24
421.561	1230.66
421.769	1341.25
421.977	1349.44
422.185	1371.97
422.393	1417.02
422.601	1609.53
422.809	1570.62
423.017	1599.29
423.224	1744.7
423.432	1693.5
423.64	1816.38
423.848	1728.31
424.056	1777.47
424.263	1998.65
424.471	1881.91
424.679	1965.88
424.887	2148.15
425.094	2258.74
425.302	2260.79
425.51	2230.07
425.718	2254.64
425.925	2395.95
426.133	2535.21
426.341	2592.56
426.548	2731.82
426.756	2727.72
426.964	2705.2
427.171	2924.33
427.379	3061.54
427.586	3071.78
427.794	3231.52
428.001	3180.32
428.209	3481.38
428.417	3260.2
428.624	3548.96
428.832	3530.53
429.039	3503.9
429.247	3594.01
429.454	3925.79
429.662	4132.63
429.869	3798.81
430.076	4290.32
430.284	4120.34
430.491	4185.88
430.699	4448.02
430.906	4466.45
431.114	4409.11
431.321	4697.87
431.528	4763.4
431.736	5003.02
431.943	5388.04
432.15	5308.16
432.358	5193.48
432.565	5480.19
432.772	5596.93
432.979	5873.4
433.187	6029.05
433.394	5936.89
433.601	6481.65
433.808	6229.75
434.016	6401.78
434.223	6584.05
434.43	7022.31
434.637	6876.91
434.844	7202.54
435.052	7311.08
435.259	7554.79
435.466	7483.11
435.673	7272.17
435.88	7964.38
436.087	8429.27
436.294	8275.67
436.501	8212.18
436.708	8361.69
436.915	8482.52
437.122	8949.45
437.329	8957.64
437.537	9141.96
437.743	9430.73
437.95	9395.91
438.157	9823.94
438.364	10213.05
438.571	10092.22
438.778	10350.26
438.985	11165.35
439.192	10671.79
439.399	11091.63
439.606	10895.02
439.813	11685.54
440.02	12082.84
440.227	12164.76
440.433	11853.47
440.64	12383.9
440.847	12033.69
441.054	12226.2
441.261	13160.08
441.467	13115.02
441.674	13328.01
441.881	13723.27
442.088	13794.95
442.294	13715.08
442.501	13870.72
442.708	14595.7
442.914	15054.45
443.121	15609.45
443.328	15171.18
443.534	16272.99
443.741	15812.2
443.948	15672.93
444.154	16975.44
444.361	16680.53
444.568	16879.19
444.774	16776.79
444.981	17024.59
445.187	17344.08
445.394	18247.23
445.6	17987.14
445.807	19719.72
446.013	19015.22
446.22	19279.41
446.426	19928.61
446.633	20100.64
446.839	20495.9
447.046	19930.66
447.252	21171.73
447.459	21087.76
447.665	20973.08
447.871	22029.83
448.078	22750.71
448.284	21892.62
448.491	22248.96
448.697	23340.53
448.903	23662.06
449.11	23625.2
449.316	23535.09
449.522	23885.29
449.728	24534.49
449.935	24593.89
450.141	24585.69
450.347	24917.47
450.553	24415.71
450.76	24808.92
450.966	25527.76
451.172	25361.87
451.378	26078.66
451.584	25232.85
451.791	25826.76
451.997	25777.61
452.203	26279.36
452.409	26602.94
452.615	26557.89
452.821	25218.52
453.027	24780.25
453.233	26488.26
453.44	25353.68
453.646	25556.43
453.852	25886.15
454.058	26172.87
454.264	25425.36
454.47	26011.08
454.676	25320.91
454.882	26193.35
455.088	23983.59
455.294	24483.3
455.5	24888.79
455.705	24626.65
455.911	23903.72
456.117	23682.54
456.323	23299.57
456.529	22050.31
456.735	22916.6
456.941	22246.91
457.147	22072.84
457.352	21372.43
457.558	20948.5
457.764	21102.1
457.97	20708.89
458.176	20430.37
458.381	20495.9
458.587	19398.19
458.793	19506.73
458.999	18351.68
459.204	19711.53
459.41	19230.26
459.616	17903.17
459.821	17970.76
460.027	17694.28
460.233	17227.34
460.438	16563.8
460.644	16985.68
460.85	16051.81
461.055	15810.15
461.261	16080.48
461.466	14564.98
461.672	14253.69
461.878	15189.61
462.083	14134.91
462.289	14069.37
462.494	13696.64
462.7	13215.37
462.905	13016.72
463.111	13393.54
463.316	13475.46
463.522	13186.7
463.727	13176.46
463.932	13174.41
464.138	12994.19
464.343	13065.87
464.549	12656.28
464.754	13203.08
464.959	13076.11
465.165	12936.85
465.37	12418.71
465.575	12031.65
465.781	12535.45
465.986	12701.33
466.191	12439.19
466.397	12078.75
466.602	11419.3
466.807	11878.05
467.012	11896.48
467.218	11814.56
467.423	11640.48
467.628	11753.12
467.833	12232.35
468.038	11722.4
468.244	11409.06
468.449	12027.55
468.654	11472.55
468.859	11409.06
469.064	11484.84
469.269	10966.7
469.474	10841.78
469.679	11220.65
469.885	10788.53
470.09	11108.01
470.295	10927.79
470.5	10819.25
470.705	10847.92
470.91	10469.05
471.115	10663.6
471.32	10798.77
471.525	10647.22
471.73	10348.22
471.935	10297.02
472.139	10041.02
472.344	10010.3
472.549	9899.71
472.754	9842.37
472.959	9430.73
473.164	9567.94
473.369	9275.08
473.574	9723.58
473.778	9604.8
473.983	9563.84
474.188	9320.14
474.393	9072.33
474.598	9035.47
474.802	8832.72
475.007	8847.05
475.212	9107.15
475.417	8541.91
475.621	8648.4
475.826	8664.79
476.031	8345.3
476.235	8214.23
476.44	8369.88
476.645	8275.67
476.849	8257.24
477.054	8103.64
477.259	7864.03
477.463	8003.29
477.668	7687.9
477.872	7902.94
478.077	7665.38
478.282	7503.59
478.486	7636.7
478.691	7380.71
478.895	7446.24
479.1	7347.94
479.304	7442.15
479.509	7235.3
479.713	7321.32
479.918	7120.62
480.122	7190.25
480.326	7018.22
480.531	7139.05
480.735	6911.72
480.94	7003.88
481.144	7208.68
481.348	6825.71
481.553	7028.46
481.757	6782.7
481.961	6858.48
482.166	7036.65
482.37	6946.54
482.574	6700.78
482.778	6915.82
482.983	7161.58
483.187	6903.53
483.391	6844.14
483.595	6702.83
483.8	6885.1
484.004	6897.39
484.208	6962.92
484.412	6969.07
484.616	6827.76
484.821	7149.29
485.025	6627.06
485.229	6893.29
485.433	6825.71
485.637	6844.14
485.841	6913.77
486.045	7020.27
486.249	7059.18
486.453	6846.19
486.657	6967.02
486.861	7190.25
487.065	6874.86
487.269	7016.17
487.473	6696.69
487.677	7071.47
487.881	7057.13
488.085	6905.58
488.289	7046.89
488.493	6971.11
488.697	6921.96
488.901	7003.88
489.105	7165.67
489.309	7128.81
489.512	7184.1
489.716	7401.19
489.92	7327.46
490.124	7259.88
490.328	7450.34
490.531	7167.72
490.735	7364.32
490.939	7327.46
491.143	7370.47
491.346	7202.54
491.55	7460.58
491.754	7524.07
491.958	7358.18
492.161	7474.92
492.365	7739.1
492.569	7632.61
492.772	7667.42
492.976	7673.57
493.18	7673.57
493.383	7925.47
493.587	7976.67
493.79	7972.57
493.994	7935.71
494.197	8031.96
494.401	8025.82
494.605	8189.66
494.808	8249.05
495.012	8392.41
495.215	8486.61
495.419	8414.93
495.622	8466.13
495.825	8703.7
496.029	8672.98
496.232	8623.83
496.436	8781.52
496.639	8994.51
496.843	9074.38
497.046	9309.9
497.249	9397.96
497.453	9408.2
497.656	9299.66
497.859	9395.91
498.063	9563.84
498.266	9748.16
498.469	9803.46
498.673	10106.56
498.876	10237.63
499.079	10172.09
499.282	10366.65
499.485	10553.01
499.689	10571.44
499.892	10743.47
500.095	10671.79
500.298	11085.48
500.501	10884.78
500.705	11361.96
500.908	11488.93
501.111	11531.94
501.314	11810.47
501.517	11841.18
501.72	12197.53
501.923	11851.42
502.126	12277.4
502.329	12547.73
502.532	12580.5
502.735	12783.25
502.938	12936.85
503.141	13031.05
503.344	13237.9
503.547	13377.16
503.75	13710.98
503.953	13815.43
504.156	13872.77
504.359	13973.12
504.562	13866.63
504.765	14675.57
504.968	14456.44
505.17	14974.58
505.373	14906.99
505.576	15048.3
505.779	15347.31
505.982	15482.47
506.185	16074.34
506.387	15629.93
506.59	15873.64
506.793	16266.85
506.996	16332.38
507.198	16692.82
507.401	16727.64
507.604	16879.19
507.807	17475.15
508.009	17522.25
508.212	17524.3
508.415	17759.81
508.617	18310.72
508.82	18249.28
509.022	18155.07
509.225	18611.77
509.428	18953.78
509.63	18964.02
509.833	19232.3
510.035	19277.36
510.238	19668.52
510.44	19748.39
510.643	20291.1
510.845	20450.85
511.048	20432.41
511.25	20966.93
511.453	20938.26
511.655	21566.99
511.858	21294.61
512.06	21863.94
512.262	21929.48
512.465	21980.68
512.667	22296.07
512.87	22828.54
513.072	22857.21
513.274	23215.6
513.477	23447.02
513.679	23952.87
513.881	23959.02
514.084	23965.16
514.286	23981.54
514.488	24571.36
514.69	25019.86
514.893	25155.03
515.095	24901.08
515.297	25847.24
515.499	25701.84
515.701	25988.55
515.904	26222.02
516.106	26338.76
516.308	26996.15
516.51	27424.18
516.712	26994.11
516.914	27168.18
517.116	27835.82
517.318	28200.36
517.52	28460.45
517.722	28464.55
517.925	28874.14
518.127	29132.18
518.329	29519.25
518.531	29218.2
518.733	30147.98
518.935	30045.58
519.136	30117.26
519.338	30647.68
519.54	30721.41
519.742	31323.51
519.944	31161.72
520.146	31827.31
520.348	31679.86
520.55	31905.13
520.752	32441.7
520.954	32370.02
521.155	32474.47
521.357	33095
521.559	33441.11
521.761	33670.48
521.963	33756.5
522.164	33852.75
522.366	34065.74
522.568	34288.97
522.77	34334.03
522.971	35177.79
523.173	34970.94
523.375	35239.23
523.576	34987.33
523.778	35491.13
523.98	35779.89
524.181	35523.9
524.383	36003.12
524.584	36414.76
524.786	36594.98
524.988	36388.14
525.189	36969.76
525.391	37086.5
525.592	37418.27
525.794	37262.62
525.995	37477.66
526.197	37260.57
526.398	37592.34
526.6	37997.84
526.801	38139.15
527.003	38294.8
527.204	38040.85
527.406	38862.08
527.607	38814.98
527.808	38925.57
528.01	38239.5
528.211	38726.92
528.412	39509.24
528.614	39314.69
528.815	39396.6
529.016	39849.21
529.218	39212.29
529.419	39560.44
529.62	39503.1
529.822	39689.46
530.023	39998.71
530.224	39658.74
530.425	40123.63
530.626	39847.16
530.828	39998.71
531.029	41008.36
531.23	40047.86
531.431	40094.96
531.632	40477.93
531.833	40535.27
532.035	40731.88
532.236	40447.21
532.437	40920.29
532.638	40590.57
532.839	40977.64
533.04	41188.58
533.241	40045.81
533.442	41608.41
533.643	40555.75
533.844	40967.4
534.045	41465.05
534.246	41020.64
534.447	41383.13
534.648	41012.45
534.849	41477.34
535.05	41284.83
535.251	41104.61
535.451	41098.47
535.652	41516.25
535.853	41041.12
536.054	41323.74
536.255	41731.29
536.456	40774.89
536.657	41966.8
536.857	41352.41
537.058	41448.67
537.259	41835.73
537.46	41598.17
537.66	41911.51
537.861	41782.49
538.062	41319.65
538.263	41671.9
538.463	41559.26
538.664	41264.35
538.865	41776.34
539.065	41778.39
539.266	41395.42
539.466	41899.22
539.667	41635.03
539.868	42179.79
540.068	41966.8
540.269	41768.15
540.469	42216.66
540.67	41727.19
540.87	41800.92
541.071	41526.49
541.271	41901.27
541.472	41868.5
541.672	41970.9
541.873	41645.27
542.073	41346.27
542.274	42138.83
542.474	41802.97
542.675	41675.99
542.875	42024.15
543.075	41970.9
543.276	41598.17
543.476	42081.49
543.676	41610.46
543.877	41698.52
544.077	42011.86
544.277	41731.29
544.478	41800.92
544.678	42233.04
544.878	41866.45
545.078	41729.24
545.279	41807.06
545.479	41714.9
545.679	41784.54
545.879	41682.14
546.079	42251.47
546.28	41815.26
546.48	41616.6
546.68	41577.69
546.88	42089.68
547.08	41751.77
547.28	41929.94
547.48	41667.8
547.68	41774.3
547.88	41841.88
548.081	41827.54
548.281	42230.99
548.481	41719
548.681	42194.13
548.881	41604.31
549.081	41845.97
549.28	41802.97
549.48	42003.67
549.68	41632.99
549.88	42400.97
550.08	41747.67
550.28	41835.73
550.48	41817.3
550.68	42530
550.88	41637.08
551.08	41784.54
551.279	41755.86
551.479	41520.35
551.679	42208.47
551.879	41856.21
552.079	42073.3
552.278	41698.52
552.478	41899.22
552.678	41673.95
552.878	41874.65
553.077	41776.34
553.277	41884.89
553.477	41800.92
553.676	41383.13
553.876	41655.51
554.076	42061.01
554.275	41477.34
554.475	41469.15
554.674	41802.97
554.874	41557.21
555.074	41180.38
555.273	41811.16
555.473	41841.88
555.672	41213.15
555.872	41714.9
556.071	41794.78
556.271	41780.44
556.47	41632.99
556.67	41391.33
556.869	41450.72
557.068	41520.35
557.268	41397.47
557.467	41589.98
557.667	41598.17
557.866	41137.38
558.065	41444.57
558.265	41274.59
558.464	41417.95
558.663	41389.28
558.863	41061.6
559.062	41225.44
559.261	41063.65
559.461	41628.89
559.66	40815.85
559.859	40840.42
560.058	41008.36
560.258	41223.39
560.457	40621.29
560.656	40881.38
560.855	40609
561.054	41120.99
561.253	41153.76
561.453	40867.05
561.652	40879.33
561.851	41053.41
562.05	40817.89
562.249	40662.25
562.448	41237.73
562.647	40858.85
562.846	40826.09
563.045	41225.44
563.244	40785.13
563.443	40860.9
563.642	40502.51
563.841	40613.1
564.04	40465.64
564.239	40832.23
564.438	40989.92
564.637	40697.06
564.836	40727.78
565.035	40248.56
565.234	40289.52
565.432	40492.27
565.631	40674.54
565.83	40695.02
566.029	40482.03
566.228	40387.82
566.427	40314.09
566.625	40412.4
566.824	39763.19
567.023	40361.2
567.222	39453.95
567.42	41176.29
567.619	40269.04
567.818	40219.89
568.016	39892.21
568.215	40373.49
568.414	40645.87
568.612	40539.37
568.811	39929.08
569.01	40305.9
569.208	39265.53
569.407	40015.09
569.605	39707.9
569.804	40287.47
570.002	39879.92
570.201	39980.28
570.4	39449.85
570.598	39380.22
570.797	39273.73
570.995	39824.63
571.193	39220.48
571.392	39662.84
571.59	39208.19
571.789	39603.45
571.987	39269.63
572.186	39101.7
572.384	39054.59
572.582	39677.18
572.781	39421.18
572.979	39105.79
573.177	38839.56
573.376	39105.79
573.574	38655.24
573.772	39130.37
573.971	38786.31
574.169	38477.07
574.367	38636.81
574.565	38573.32
574.763	38253.84
574.962	38130.96
575.16	38176.01
575.358	38421.77
575.556	37731.61
575.754	38522.12
575.952	37930.26
576.151	38507.79
576.349	38194.45
576.547	38085.9
576.745	38225.17
576.943	38040.85
577.141	37725.46
577.339	37960.98
577.537	37731.61
577.735	37584.15
577.933	37377.31
578.131	37584.15
578.329	37651.73
578.527	37350.68
578.725	37276.96
578.923	37340.44
579.121	36828.45
579.319	36986.14
579.516	37365.02
579.714	36994.34
579.912	36977.95
580.11	36881.7
580.308	37000.48
580.506	36795.68
580.704	36130.09
580.901	36619.56
581.099	36887.84
581.297	36322.6
581.495	36146.48
581.692	36136.24
581.89	35700.02
582.088	36107.57
582.285	35861.81
582.483	36035.89
582.681	36181.29
582.878	35829.04
583.076	35824.95
583.274	35958.06
583.471	35392.83
583.669	35573.05
583.866	35284.28
584.064	35484.98
584.262	34909.5
584.459	35511.61
584.657	34932.03
584.854	35007.81
585.052	34612.55
585.249	34895.17
585.447	34733.38
585.644	34477.38
585.841	34852.16
586.039	34710.85
586.236	34227.53
586.434	34397.51
586.631	34342.22
586.828	34555.21
587.026	34440.52
587.223	34467.14
587.42	34280.78
587.618	33844.56
587.815	33645.91
588.012	33711.44
588.21	33545.56
588.407	33957.2
588.604	33647.96
588.801	33367.38
588.999	33305.95
589.196	33238.36
589.393	33287.51
589.59	33228.12
589.787	32998.75
589.984	32922.97
590.182	32748.9
590.379	32916.83
590.576	32679.27
590.773	32822.62
590.97	32441.7
591.167	32697.7
591.364	32142.7
591.561	32212.33
591.758	32357.74
591.955	32128.36
592.152	32226.67
592.349	32050.54
592.546	32114.03
592.743	32042.35
592.94	31632.75
593.137	31702.39
593.334	31944.05
593.531	31049.08
593.727	31937.9
593.924	31552.88
594.121	31049.08
594.318	31112.57
594.515	31311.22
594.712	31536.5
594.908	30588.29
595.105	31067.52
595.302	30584.19
595.499	31284.6
595.696	30643.59
595.892	30489.99
596.089	30832
596.286	30674.31
596.482	30342.53
596.679	30377.35
596.876	30557.57
597.072	30649.73
597.269	30299.53
597.466	29869.45
597.662	30051.72
597.859	29840.78
598.055	29949.32
598.252	29771.15
598.448	29603.22
598.645	29291.93
598.841	29226.39
599.038	29064.6
599.234	29384.08
599.431	29076.89
599.627	29078.94
599.824	29140.38
600.02	28667.3
600.217	28894.62
600.413	28845.47
600.609	28525.99
600.806	28100.01
601.002	28480.93
601.198	28233.13
601.395	28282.28
601.591	28061.1
601.787	28126.63
601.984	28034.47
602.18	28458.4
602.376	27907.5
602.572	27774.38
602.769	27762.09
602.965	27684.27
603.161	27432.37
603.357	27487.67
603.553	27225.53
603.75	27258.29
603.946	27395.51
604.142	27262.39
604.338	27149.75
604.534	26846.65
604.73	26709.44
604.926	26748.35
605.122	26965.43
605.318	26797.5
605.514	26553.79
605.71	26441.15
605.906	26213.83
606.102	26400.19
606.298	26338.76
606.494	26172.87
606.69	26508.74
606.886	26410.43
607.082	25865.67
607.278	26164.68
607.474	26047.94
607.67	26183.11
607.866	25566.67
608.062	25986.5
608.257	25679.31
608.453	25765.32
608.649	25693.65
608.845	25597.39
609.041	25648.59
609.236	25947.59
609.432	25429.46
609.628	25331.15
609.824	25466.32
610.019	25343.44
610.215	25300.44
610.411	25396.69
610.606	24894.94
610.802	25343.44
610.998	25175.51
611.193	25408.98
611.389	24610.27
611.584	25001.43
611.78	24743.39
611.976	25109.97
612.171	25066.97
612.367	24497.63
612.562	24538.59
612.758	24526.3
612.953	24346.08
613.149	24579.55
613.344	24589.79
613.539	24720.86
613.735	24208.87
613.93	24448.48
614.126	24358.37
614.321	24473.06
614.517	24202.72
614.712	24284.64
614.907	23985.64
615.103	24421.86
615.298	23971.3
615.493	24090.09
615.688	23797.23
615.884	24440.29
616.079	23705.07
616.274	24192.48
616.47	23645.68
616.665	23965.16
616.86	23563.76
617.055	23770.6
617.25	23258.61
617.445	23678.44
617.641	23082.49
617.836	23584.24
618.031	23148.02
618.226	23338.48
618.421	23051.77
618.616	23207.41
618.811	22857.21
619.006	23156.21
619.201	22685.18
619.396	23033.33
619.591	22539.77
619.786	22763
619.981	22517.25
620.176	22537.73
620.371	22128.13
620.566	22345.22
620.761	22156.8
620.956	22208
621.151	21976.58
621.346	21964.29
621.541	21306.9
621.735	22044.16
621.93	21347.86
622.125	21718.54
622.32	21247.51
622.515	21243.41
622.709	20923.93
622.904	21042.71
623.099	20919.83
623.294	21143.06
623.488	20852.25
623.683	20739.61
623.878	20385.31
624.072	20305.44
624.267	20491.8
624.462	20377.12
624.656	19938.85
624.851	20235.81
625.046	19928.61
625.24	19920.42
625.435	19631.66
625.629	19555.88
625.824	19435.05
626.018	19662.38
626.213	18978.36
626.407	19146.29
626.602	19131.95
626.796	19060.27
626.991	19043.89
627.185	18970.16
627.38	18701.88
627.574	18542.14
627.768	18390.59
627.963	18572.86
628.157	18497.08
628.352	18470.46
628.546	17833.54
628.74	18052.67
628.935	17868.36
629.129	18032.19
629.323	17655.37
629.517	17790.53
629.712	17757.77
629.906	17538.63
630.1	17380.94
630.294	17290.83
630.489	17391.18
630.683	17135.18
630.877	16918.1
631.071	16825.94
631.265	17028.69
631.459	16551.51
631.653	16989.78
631.848	16547.42
632.042	16592.47
632.236	16594.52
632.43	16328.28
632.624	16647.77
632.818	16297.56
633.012	16189.02
633.206	15998.56
633.4	16242.27
633.594	15535.72
633.788	15883.87
633.982	15775.33
634.176	15752.8
634.369	15523.43
634.563	15494.76
634.757	15500.9
634.951	15531.62
635.145	15400.55
635.339	15373.93
635.533	14931.57
635.726	15144.56
635.92	14962.29
636.114	14898.8
636.308	14829.17
636.501	14747.25
636.695	14524.02
636.889	14530.17
637.083	14425.72
637.276	14526.07
637.47	14478.97
637.664	14237.31
637.857	14356.09
638.051	14296.7
638.244	13948.54
638.438	14222.97
638.632	13942.4
638.825	14012.03
639.019	13885.06
639.212	13833.86
639.406	13522.57
639.599	13678.21
639.793	13844.1
639.986	13491.85
640.18	13295.24
640.373	13559.43
640.567	13123.21
640.76	13278.86
640.954	13047.44
641.147	12832.4
641.34	13049.49
641.534	13043.34
641.727	12723.86
641.92	12863.12
642.114	12689.04
642.307	12486.29
642.5	12633.75
642.694	12502.68
642.887	12572.31
643.08	12533.4
643.273	12228.25
643.467	12390.04
643.66	12105.37
643.853	12009.12
644.046	11894.43
644.239	11869.86
644.432	11607.72
644.626	11650.72
644.819	11732.64
645.012	11753.12
645.205	11521.7
645.398	11638.44
645.591	11376.3
645.784	11316.9
645.977	11243.18
646.17	11407.02
646.363	11171.5
646.556	11099.82
646.749	11048.62
646.942	11077.29
647.135	10886.83
647.328	11120.3
647.521	10860.21
647.714	10792.62
647.907	10766
648.099	10567.35
648.292	10720.95
648.485	10426.04
648.678	10593.97
648.871	10600.12
649.064	10413.75
649.256	10358.46
649.449	10260.15
649.642	10081.98
649.835	10190.52
650.027	10170.04
650.22	10012.35
650.413	9885.37
650.605	10045.12
650.798	9871.04
650.991	9739.97
651.183	9742.02
651.376	9647.81
651.568	9447.11
651.761	9567.94
651.954	9629.38
652.146	9301.7
652.339	9383.62
652.531	9402.05
652.724	9281.22
652.916	9352.9
653.109	9139.91
653.301	9238.22
653.494	9064.14
653.686	8937.16
653.879	9070.28
654.071	8824.53
654.263	8773.33
654.456	8752.85
654.648	8935.12
654.84	8660.69
655.033	8675.02
655.225	8658.64
655.417	8394.45
655.61	8603.35
655.802	8517.33
655.994	8468.18
656.186	8509.14
656.379	8384.21
656.571	8265.43
656.763	8036.06
656.955	8208.09
657.148	8115.93
657.34	8025.82
657.532	7884.51
657.724	8023.77
657.916	7921.37
658.108	7999.2
658.3	7874.27
658.492	7710.43
658.684	7773.92
658.876	7749.34
659.068	7583.46
659.26	7546.59
659.452	7489.25
659.644	7608.03
659.836	7423.72
660.028	7440.1
660.22	7335.65
660.412	7274.21
660.604	7274.21
660.796	7212.78
660.988	7257.83
661.18	6995.69
661.372	6952.68
661.563	7089.9
661.755	6911.72
661.947	7016.17
662.139	7018.22
662.331	6831.85
662.522	6629.1
662.714	6897.39
662.906	6751.98
663.097	6620.91
663.289	6614.77
663.481	6477.55
663.673	6514.42
663.864	6401.78
664.056	6264.57
664.247	6309.62
664.439	6215.41
664.631	6364.92
664.822	6223.61
665.014	6149.88
665.205	6039.29
665.397	6057.72
665.588	6156.02
665.78	6145.78
665.971	6035.19
666.163	6115.06
666.354	6055.67
666.546	5953.27
666.737	5947.13
666.929	5764.86
667.12	5766.91
667.311	5836.54
667.503	5781.25
667.694	5809.92
667.885	5598.98
668.077	5502.72
668.268	5656.32
668.459	5623.55
668.651	5521.15
668.842	5420.8
669.033	5410.56
669.224	5349.12
669.416	5416.71
669.607	5218.05
669.798	5369.6
669.989	5353.22
670.18	5170.95
670.371	5222.15
670.563	5107.46
670.754	5162.76
670.945	5078.79
671.136	5029.64
671.327	5121.8
671.518	4896.52
671.709	4953.87
671.9	5039.88
672.091	4951.82
672.282	4937.48
672.473	4802.32
672.664	4990.73
672.855	4781.84
673.046	4759.31
673.237	4869.9
673.428	4820.75
673.619	4775.69
673.809	4663.05
674	4749.07
674.191	4648.72
674.382	4527.89
674.573	4609.81
674.764	4517.65
674.954	4595.47
675.145	4366.1
675.336	4452.11
675.527	4445.97
675.717	4525.84
675.908	4462.35
676.099	4511.5
676.289	4359.95
676.48	4171.54
676.671	4421.39
676.861	4421.39
677.052	4359.95
677.243	4249.36
677.433	4212.5
677.624	4194.07
677.814	4282.13
678.005	4163.35
678.195	4232.98
678.386	4247.32
678.576	4054.81
678.767	4208.41
678.957	4196.12
679.148	4200.21
679.338	4077.34
679.529	4067.1
679.719	3987.22
679.909	3917.59
680.1	3966.74
680.29	4063
680.481	3782.43
680.671	3905.31
680.861	3940.12
681.052	4056.86
681.242	4052.76
681.432	3897.11
681.622	3796.76
681.813	3794.72
682.003	3884.83
682.193	3784.48
682.383	3790.62
682.573	3837.72
682.764	3927.83
682.954	3729.18
683.144	3854.11
683.334	3700.51
683.524	3747.61
683.714	3583.77
683.904	3739.42
684.094	3684.13
684.284	3852.06
684.474	3757.85
684.664	3774.24
684.854	3651.36
685.044	3776.28
685.234	3643.17
685.424	3579.68
685.614	3626.78
685.804	3690.27
685.994	3634.97
686.184	3682.08
686.374	3645.21
686.564	3524.38
686.753	3542.82
686.943	3585.82
687.133	3606.3
687.323	3561.25
687.513	3641.12
687.702	3520.29
687.892	3440.42
688.082	3419.94
688.272	3606.3
688.461	3548.96
688.651	3583.77
688.841	3473.18
689.03	3561.25
689.22	3458.85
689.41	3454.75
689.599	3352.35
689.789	3434.27
689.979	3458.85
690.168	3426.08
690.358	3272.48
690.547	3411.75
690.737	3487.52
690.926	3389.22
691.116	3409.7
691.305	3438.37
691.495	3278.63
691.684	3319.59
691.874	3424.03
692.063	3245.86
692.252	3280.68
692.442	3303.2
692.631	3170.08
692.82	3274.53
693.01	3340.07
693.199	3184.42
693.388	3133.22
693.578	3290.92
693.767	3168.04
693.956	3186.47
694.146	3131.17
694.335	3188.52
694.524	3176.23
694.713	3192.61
694.902	3114.79
695.092	3190.56
695.281	3241.76
695.47	3084.07
695.659	3096.36
695.848	3065.64
696.037	3077.93
696.226	3016.49
696.415	3118.89
696.604	2950.95
696.793	3028.78
696.982	2897.71
697.171	3002.15
697.36	3118.89
697.549	2928.42
697.738	2987.82
697.927	2940.71
698.116	2875.18
698.305	2899.75
698.494	2893.61
698.683	2797.35
698.872	2953
699.061	2846.51
699.25	2924.33
699.438	2864.94
699.627	2823.98
699.816	2717.48
700.005	2875.18
700.193	2821.93
700.382	2727.72
700.571	2830.12
700.76	2709.29
700.948	2807.59
701.137	2651.95
701.326	2733.87
701.514	2709.29
701.703	2682.67
701.892	2668.33
702.08	2815.79
702.269	2701.1
702.457	2621.23
702.646	2674.48
702.834	2426.67
703.023	2596.65
703.212	2584.37
703.4	2643.76
703.589	2531.12
703.777	2539.31
703.965	2457.39
704.154	2504.5
704.342	2539.31
704.531	2459.44
704.719	2518.83
704.907	2475.82
705.096	2527.02
705.284	2377.52
705.472	2502.45
705.661	2453.3
705.849	2398
706.037	2346.8
706.226	2350.9
706.414	2367.28
706.602	2252.59
706.79	2391.86
706.979	2217.78
707.167	2244.4
707.355	2307.89
707.543	2307.89
707.731	2232.12
707.919	2211.64
708.107	2150.2
708.296	2328.37
708.484	2160.44
708.672	2240.31
708.86	2324.27
709.048	2271.03
709.236	2236.21
709.424	2217.78
709.612	2205.49
709.8	2209.59
709.988	2086.71
710.176	2033.46
710.364	2117.43
710.551	1955.64
710.739	2080.57
710.927	2051.89
711.115	2029.37
711.303	2037.56
711.491	2148.15
711.679	2043.7
711.866	2017.08
712.054	2055.99
712.242	1974.07
712.43	1984.31
712.617	2088.76
712.805	1939.26
712.993	1879.86
713.181	1916.73
713.368	1961.78
713.556	1933.11
713.744	1834.81
713.931	1945.4
714.119	1937.21
714.306	1693.5
714.494	1879.86
714.682	1793.85
714.869	1920.82
715.057	1881.91
715.244	1787.71
715.432	1873.72
715.619	1883.96
715.807	1771.32
715.994	1759.03
716.182	1685.31
716.369	1865.53
716.556	1734.46
716.744	1791.8
716.931	1795.9
717.119	1732.41
717.306	1670.97
717.493	1609.53
717.681	1652.54
717.868	1634.11
718.055	1632.06
718.242	1652.54
718.43	1609.53
718.617	1716.03
718.804	1662.78
718.991	1611.58
719.179	1568.57
719.366	1640.25
719.553	1623.87
719.74	1564.48
719.927	1662.78
720.114	1523.52
720.301	1556.29
720.488	1611.58
720.676	1412.93
720.863	1533.76
721.05	1589.05
721.237	1529.66
721.424	1462.08
721.611	1582.91
721.798	1511.23
721.985	1435.46
722.172	1466.17
722.358	1468.22
722.545	1425.22
722.732	1453.89
722.919	1371.97
723.106	1431.36
723.293	1396.54
723.48	1451.84
723.667	1414.98
723.853	1402.69
724.04	1447.74
724.227	1421.12
724.414	1468.22
724.6	1382.21
724.787	1339.2
724.974	1417.02
725.161	1437.5
725.347	1324.87
725.534	1279.81
725.72	1331.01
725.907	1365.82
726.094	1343.3
726.28	1232.71
726.467	1369.92
726.653	1251.14
726.84	1247.04
727.027	1230.66
727.213	1300.29
727.4	1197.89
727.586	1261.38
727.773	1251.14
727.959	1220.42
728.145	1267.52
728.332	1232.71
728.518	1267.52
728.705	1208.13
728.891	1183.56
729.077	1201.99
729.264	1267.52
729.45	1122.12
729.636	1148.74
729.823	1212.23
730.009	1118.02
730.195	1105.73
730.382	1099.59
730.568	1185.6
730.754	1263.43
730.94	1118.02
731.126	1165.12
731.313	1183.56
731.499	1095.49
731.685	1077.06
731.871	1093.44
732.057	1060.68
732.243	1124.16
732.429	1091.4
732.615	1089.35
732.801	1091.4
732.987	1072.96
733.173	1113.92
733.359	1007.43
733.545	1056.58
733.731	1015.62
733.917	1150.79
734.103	919.37
734.289	991.05
734.475	980.81
734.661	1034.05
734.847	1019.72
735.033	978.76
735.219	1003.33
735.404	1032.01
735.59	966.47
735.776	950.09
735.962	964.42
736.148	1075.01
736.333	1044.29
736.519	993.09
736.705	941.89
736.89	1009.48
737.076	945.99
737.262	972.61
737.447	874.31
737.633	933.7
737.819	984.9
738.004	855.88
738.19	991.05
738.375	960.33
738.561	950.09
738.747	868.17
738.932	853.83
739.118	941.89
739.303	870.22
739.489	870.22
739.674	849.74
739.859	896.84
740.045	966.47
740.23	831.3
740.416	767.82
740.601	778.06
740.786	880.46
740.972	823.11
741.157	816.97
741.342	870.22
741.528	917.32
741.713	917.32
741.898	808.78
742.084	876.36
742.269	831.3
742.454	841.54
742.639	749.39
742.824	763.72
743.01	786.25
743.195	763.72
743.38	747.34
743.565	792.39
743.75	917.32
743.935	794.44
744.12	802.63
744.305	671.56
744.49	745.29
744.675	696.14
744.86	753.48
745.045	778.06
745.23	700.23
745.415	765.77
745.6	745.29
745.785	669.52
745.97	823.11
746.155	714.57
746.34	757.58
746.525	786.25
746.71	630.6
746.895	716.62
747.079	667.47
747.264	761.67
747.449	755.53
747.634	675.66
747.819	679.75
748.003	694.09
748.188	593.74
748.373	673.61
748.557	657.23
748.742	741.19
748.927	683.85
749.111	628.56
749.296	542.54
749.481	628.56
749.665	646.99
749.85	630.6
750.034	681.8
750.219	634.7
750.404	577.36
750.588	661.32
750.773	651.08
750.957	630.6
751.141	616.27
751.326	552.78
751.51	532.3
751.695	573.26
751.879	577.36
752.064	612.17
752.248	655.18
752.432	624.46
752.617	601.93
752.801	585.55
752.985	544.59
753.17	601.93
753.354	620.36
753.538	468.81
753.722	491.34
753.907	526.16
754.091	483.15
754.275	565.07
754.459	554.83
754.643	546.64
754.828	505.68
755.012	554.83
755.196	493.39
755.38	474.96
755.564	522.06
755.748	548.68
755.932	493.39
756.116	509.77
756.3	477.01
756.484	503.63
756.668	419.66
756.852	452.43
757.036	517.97
757.22	405.33
757.404	505.68
757.588	448.33
757.772	454.48
757.956	491.34
758.14	532.3
758.323	452.43
758.507	481.1
758.691	436.05
758.875	608.08
759.059	481.1
759.242	393.04
759.426	444.24
759.61	466.77
759.794	442.19
759.977	448.33
760.161	489.29
760.345	444.24
760.528	448.33
760.712	528.21
760.895	456.53
761.079	448.33
761.263	395.09
761.446	360.27
761.63	421.71
761.813	376.66
761.997	399.18
762.18	431.95
762.364	407.38
762.547	438.09
762.731	399.18
762.914	429.9
763.098	368.46
763.281	354.13
763.464	380.75
763.648	403.28
763.831	491.34
764.015	440.14
764.198	423.76
764.381	415.57
764.564	409.42
764.748	423.76
764.931	388.94
765.114	376.66
765.297	493.39
765.481	403.28
765.664	401.23
765.847	425.81
766.03	395.09
766.213	376.66
766.397	399.18
766.58	368.46
766.763	464.72
766.946	358.22
767.129	347.98
767.312	354.13
767.495	358.22
767.678	403.28
767.861	378.7
768.044	378.7
768.227	427.85
768.41	354.13
768.593	307.02
768.776	364.37
768.959	421.71
769.142	376.66
769.324	366.42
769.507	413.52
769.69	333.65
769.873	384.85
770.056	368.46
770.239	356.18
770.421	493.39
770.604	429.9
770.787	423.76
770.97	425.81
771.152	321.36
771.335	384.85
771.518	368.46
771.7	440.14
771.883	411.47
772.066	352.08
772.248	300.88
772.431	411.47
772.613	350.03
772.796	446.29
772.978	401.23
773.161	370.51
773.343	288.59
773.526	370.51
773.708	372.56
773.891	323.41
774.073	286.54
774.256	403.28
774.438	390.99
774.621	290.64
774.803	343.89
774.985	278.35
775.168	376.66
775.35	331.6
775.532	335.7
775.715	382.8
775.897	309.07
776.079	401.23
776.261	323.41
776.444	399.18
776.626	399.18
776.808	315.22
776.99	382.8
777.173	333.65
777.355	374.61
777.537	339.79
777.719	272.21
777.901	411.47
778.083	333.65
778.265	311.12
778.447	323.41
778.629	278.35
778.811	311.12
778.993	378.7
779.175	354.13
779.357	239.44
779.539	364.37
779.721	239.44
779.903	294.74
780.085	259.92
780.267	251.73
780.449	270.16
780.631	368.46
780.812	298.83
780.994	235.35
781.176	333.65
781.358	288.59
781.54	210.77
781.721	345.94
781.903	284.5
782.085	282.45
782.267	358.22
782.448	241.49
782.63	214.87
782.812	249.68
782.993	321.36
783.175	311.12
783.357	264.02
783.538	309.07
783.72	251.73
783.901	302.93
784.083	247.63
784.264	333.65
784.446	204.63
784.627	231.25
784.809	294.74
784.99	218.96
785.172	188.24
785.353	251.73
785.535	257.87
785.716	255.83
785.897	245.59
786.079	272.21
786.26	233.3
786.441	284.5
786.623	216.91
786.804	171.86
786.985	210.77
787.167	294.74
787.348	208.72
787.529	165.71
787.71	225.11
787.891	264.02
788.073	225.11
788.254	229.2
788.435	208.72
788.616	200.53
788.797	163.67
788.978	231.25
789.159	214.87
789.34	272.21
789.522	155.47
789.703	204.63
789.884	198.48
790.065	218.96
790.246	200.53
790.427	153.43
790.607	161.62
790.788	145.24
790.969	198.48
791.15	221.01
791.331	190.29
791.512	214.87
791.693	235.35
791.874	143.19
792.054	184.15
792.235	178
792.416	163.67
792.597	214.87
792.778	218.96
792.958	212.82
793.139	171.86
793.32	186.19
793.5	149.33
793.681	223.06
793.862	147.28
794.042	198.48
794.223	169.81
794.404	180.05
794.584	178
794.765	163.67
794.945	167.76
795.126	124.76
795.306	216.91
795.487	251.73
795.667	171.86
795.848	149.33
796.028	188.24
796.209	145.24
796.389	126.8
796.57	141.14
796.75	153.43
796.93	155.47
797.111	153.43
797.291	151.38
797.471	124.76
797.652	182.1
797.832	128.85
798.012	231.25
798.192	155.47
798.373	167.76
798.553	141.14
798.733	165.71
798.913	98.13
799.093	130.9
799.274	112.47
799.454	145.24
799.634	81.75
799.814	196.43
799.994	165.71
800.174	173.91
800.354	94.04
800.534	149.33
800.714	165.71
800.894	157.52
801.074	122.71
801.254	139.09
801.434	143.19
801.614	85.84
801.794	139.09
801.974	405.33
802.154	124.76
802.334	235.35
802.514	155.47
802.693	126.8
802.873	165.71
803.053	188.24
803.233	184.15
803.413	165.71
803.592	175.95
803.772	163.67
803.952	118.61
804.131	98.13
804.311	184.15
804.491	161.62
804.67	102.23
804.85	104.28
805.03	186.19
805.209	108.37
805.389	98.13
805.568	96.08
805.748	44.88
805.928	132.95
806.107	73.56
806.287	178
806.466	165.71
806.646	67.41
806.825	98.13
807.004	118.61
807.184	108.37
807.363	112.47
807.543	81.75
807.722	122.71
807.901	83.8
808.081	151.38
808.26	59.22
808.439	110.42
808.619	169.81
808.798	120.66
808.977	87.89
809.156	91.99
809.336	102.23
809.515	114.52
809.694	94.04
809.873	190.29
810.052	91.99
810.231	116.56
810.411	116.56
810.59	128.85
810.769	55.12
810.948	48.98
811.127	32.6
811.306	173.91
811.485	55.12
811.664	71.51
811.843	149.33
812.022	110.42
812.201	114.52
812.38	161.62
812.559	102.23
812.737	89.94
812.916	38.74
813.095	94.04
813.274	94.04
813.453	130.9
813.632	141.14
813.811	53.08
813.989	-2.22
814.168	120.66
814.347	83.8
814.526	143.19
814.704	165.71
814.883	155.47
815.062	149.33
815.24	112.47
815.419	75.6
815.598	40.79
815.776	89.94
815.955	145.24
816.133	116.56
816.312	38.74
816.49	114.52
816.669	75.6
816.847	106.32
817.026	83.8
817.204	104.28
817.383	135
817.561	30.55
817.74	135
817.918	75.6
818.097	46.93
818.275	100.18
818.453	91.99
818.632	143.19
818.81	106.32
818.988	116.56
819.167	124.76
819.345	85.84
819.523	112.47
819.701	83.8
819.879	120.66
820.058	96.08
820.236	102.23
820.414	120.66
820.592	132.95
820.77	63.32
820.948	51.03
821.127	79.7
821.305	81.75
821.483	24.4
821.661	100.18
821.839	100.18
822.017	126.8
822.195	135
822.373	139.09
822.551	135
822.729	26.45
822.907	71.51
823.085	38.74
823.262	18.26
823.44	16.21
823.618	85.84
823.796	110.42
823.974	141.14
824.152	106.32
824.329	24.4
824.507	87.89
824.685	104.28
824.863	75.6
825.04	71.51
825.218	126.8
825.396	91.99
825.574	77.65
825.751	73.56
825.929	48.98
826.107	71.51
826.284	83.8
826.462	89.94
826.639	114.52
826.817	38.74
826.994	55.12
827.172	126.8
827.349	116.56
827.527	67.41
827.704	124.76
827.882	81.75
828.059	61.27
828.237	51.03
828.414	122.71
828.591	28.5
828.769	186.19
828.946	-16.55
829.124	135
829.301	104.28
829.478	73.56
829.655	32.6
829.833	108.37
830.01	51.03
830.187	51.03
830.364	-12.46
830.542	81.75
830.719	36.69
830.896	108.37
831.073	73.56
831.25	48.98
831.427	44.88
831.604	-0.17
831.782	22.36
831.959	71.51
832.136	75.6
832.313	102.23
832.49	67.41
832.667	163.67
832.844	10.07
833.021	59.22
833.198	81.75
833.374	53.08
833.551	106.32
833.728	81.75
833.905	85.84
834.082	69.46
834.259	91.99
834.436	87.89
834.612	96.08
834.789	22.36
834.966	81.75
835.143	79.7
835.319	-34.99
835.496	81.75
835.673	91.99
835.85	128.85
836.026	34.64
836.203	94.04
836.38	87.89
836.556	40.79
836.733	26.45
836.909	91.99
837.086	116.56
837.262	36.69
837.439	46.93
837.616	53.08
837.792	46.93
837.968	55.12
838.145	67.41
838.321	42.84
838.498	67.41
838.674	18.26
838.851	26.45
839.027	44.88
839.203	12.12
839.38	73.56
839.556	87.89
839.732	71.51
839.909	79.7
840.085	32.6
840.261	65.36
840.437	83.8
840.614	20.31
840.79	87.89
840.966	55.12
841.142	18.26
841.318	61.27
841.494	94.04
841.671	63.32
841.847	77.65
842.023	94.04
842.199	61.27
842.375	98.13
842.551	63.32
842.727	51.03
842.903	61.27
843.079	89.94
843.255	-14.51
843.431	61.27
843.607	34.64
843.783	26.45
843.959	-47.27
844.134	112.47
844.31	48.98
844.486	26.45
844.662	98.13
844.838	3.93
845.013	71.51
845.189	51.03
845.365	36.69
845.541	38.74
845.716	110.42
845.892	106.32
846.068	77.65
846.244	55.12
846.419	57.17
846.595	63.32
846.77	55.12
846.946	112.47
847.122	71.51
847.297	98.13
847.473	36.69
847.648	32.6
847.824	5.97
847.999	40.79
848.175	71.51
848.35	94.04
848.526	5.97
848.701	30.55
848.876	40.79
849.052	42.84
849.227	42.84
849.403	79.7
849.578	65.36
849.753	104.28
849.929	91.99
850.104	-41.13
850.279	30.55
850.454	81.75
850.63	53.08
850.805	-18.6
850.98	36.69
851.155	5.97
851.33	34.64
851.505	-20.65
851.681	59.22
851.856	48.98
852.031	57.17
852.206	87.89
852.381	116.56
852.556	59.22
852.731	67.41
852.906	42.84
853.081	81.75
853.256	96.08
853.431	55.12
853.606	124.76
853.781	91.99
853.956	89.94
854.131	32.6
854.305	57.17
854.48	8.02
854.655	-10.41
854.83	46.93
855.005	67.41
855.18	-10.41
855.354	53.08
855.529	75.6
855.704	22.36
855.879	67.41
856.053	53.08
856.228	65.36
856.403	28.5
856.577	36.69
856.752	61.27
856.926	63.32
857.101	106.32
857.276	75.6
857.45	28.5
857.625	126.8
857.799	32.6
857.974	85.84
858.148	10.07
858.323	48.98
858.497	128.85
858.672	96.08
858.846	57.17
859.02	75.6
859.195	5.97
859.369	44.88
859.543	87.89
859.718	44.88
859.892	18.26
860.066	67.41
860.241	75.6
860.415	51.03
860.589	28.5
860.763	85.84
860.938	61.27
861.112	8.02
861.286	1.88
861.46	96.08
861.634	-10.41
861.808	40.79
861.982	83.8
862.157	34.64
862.331	69.46
862.505	55.12
862.679	-26.79
862.853	5.97
863.027	22.36
863.201	40.79
863.375	22.36
863.549	57.17
863.722	83.8
863.896	36.69
864.07	51.03
864.244	42.84
864.418	75.6
864.592	18.26
864.766	100.18
864.939	-24.75
865.113	22.36
865.287	3.93
865.461	12.12
865.634	8.02
865.808	36.69
865.982	110.42
866.156	59.22
866.329	98.13
866.503	75.6
866.676	40.79
866.85	30.55
867.024	20.31
867.197	16.21
867.371	110.42
867.544	79.7
867.718	87.89
867.891	30.55
868.065	57.17
868.238	10.07
868.412	34.64
868.585	12.12
868.759	94.04
868.932	69.46
869.105	51.03
869.279	87.89
869.452	46.93
869.625	106.32
869.799	75.6
869.972	-37.03
870.145	42.84
870.319	26.45
870.492	26.45
870.665	61.27
870.838	67.41
871.011	24.4
871.185	38.74
871.358	3.93
871.531	75.6
871.704	-16.55
871.877	79.7
872.05	48.98
872.223	-14.51
872.396	30.55
872.569	55.12
872.742	16.21
872.915	16.21
873.088	1.88
873.261	51.03
873.434	38.74
873.607	51.03
873.78	3.93
873.953	85.84
874.126	-16.55
874.299	-24.75
874.471	24.4
874.644	53.08
874.817	26.45
874.99	106.32
875.163	53.08
875.335	42.84
875.508	14.17
875.681	94.04
875.853	-2.22
876.026	83.8
876.199	30.55
876.371	40.79
876.544	75.6
876.717	145.24
876.889	42.84
877.062	22.36
877.234	-16.55
877.407	40.79
877.579	67.41
877.752	89.94
877.924	104.28
878.097	57.17
878.269	40.79
878.442	-14.51
878.614	22.36
878.786	51.03
878.959	16.21
879.131	102.23
879.303	20.31
879.476	-16.55
879.648	63.32
879.82	59.22
879.993	102.23
880.165	-22.7
880.337	65.36
880.509	12.12
880.681	59.22
880.854	22.36
881.026	81.75
881.198	104.28
881.37	67.41
881.542	46.93
881.714	57.17
881.886	24.4
882.058	122.71
882.23	51.03
882.402	26.45
882.574	38.74
882.746	98.13
882.918	20.31
883.09	24.4
883.262	20.31
883.434	30.55
883.606	48.98
883.778	32.6
883.95	63.32
884.122	-24.75
884.293	5.97
884.465	20.31
884.637	61.27
884.809	44.88
884.98	14.17
885.152	98.13
885.324	57.17
885.496	1.88
885.667	71.51
885.839	-6.31
886.011	59.22
886.182	14.17
886.354	32.6
886.525	59.22
886.697	75.6
886.869	1.88
887.04	81.75
887.212	65.36
887.383	32.6
887.555	53.08
887.726	83.8
887.897	100.18
888.069	87.89
888.24	67.41
888.412	10.07
888.583	77.65
888.754	61.27
888.926	48.98
889.097	46.93
889.268	94.04
889.44	59.22
889.611	16.21
889.782	34.64
889.953	57.17
890.125	-2.22
890.296	36.69
890.467	-30.89
890.638	-2.22
890.809	75.6
890.98	26.45
891.151	20.31
891.323	8.02
891.494	61.27
891.665	5.97
891.836	57.17
892.007	-4.27
892.178	48.98
892.349	55.12
892.52	-8.36
892.691	-14.51
892.862	122.71
893.032	32.6
893.203	77.65
893.374	44.88
893.545	46.93
893.716	91.99
893.887	51.03
894.057	-14.51
894.228	12.12
894.399	51.03
894.57	14.17
894.74	16.21
894.911	-26.79
895.082	24.4
895.253	38.74
895.423	10.07
895.594	57.17
895.764	5.97
895.935	44.88
896.106	40.79
896.276	65.36
896.447	-2.22
896.617	59.22
896.788	65.36
896.958	-41.13
897.129	-4.27
897.299	-18.6
897.47	53.08
897.64	73.56
897.81	110.42
897.981	55.12
898.151	38.74
898.322	3.93
898.492	38.74
898.662	96.08
898.832	8.02
899.003	14.17
899.173	32.6
899.343	-16.55
899.513	28.5
