Data from USB4F104151__70__12-54-14-521.txt Node

Date: Fri Mar 14 12:54:14 EDT 2025
User: louis
Spectrometer: USB4F10415
Trigger mode: 4
Integration Time (sec): 1.000000E-2
Scans to average: 1
Electric dark correction enabled: true
Nonlinearity correction enabled: false
Boxcar width: 0
XAxis mode: Wavelengths
Number of Pixels in Spectrum: 3648
>>>>>Begin Spectral Data<<<<<
178.204	-91.82
178.424	-91.82
178.644	-91.82
178.864	-3.75
179.084	-48.81
179.304	6.49
179.524	26.96
179.744	-18.09
179.964	26.96
180.184	0.34
180.404	61.78
180.624	26.96
180.844	-22.19
181.064	-36.52
181.283	-36.52
181.503	-20.14
181.723	-16.04
181.943	12.63
182.163	57.68
182.383	-28.33
182.602	12.63
182.822	16.73
183.042	43.35
183.262	55.64
183.482	2.39
183.701	-59.05
183.921	29.01
184.141	0.34
184.361	59.73
184.58	47.44
184.8	20.82
185.02	33.11
185.239	-5.8
185.459	55.64
185.679	37.2
185.898	-20.14
186.118	6.49
186.338	-24.23
186.557	0.34
186.777	80.21
186.997	-11.95
187.216	43.35
187.436	29.01
187.655	-16.04
187.875	51.54
188.095	51.54
188.314	8.53
188.534	18.77
188.753	65.88
188.973	65.88
189.192	14.68
189.412	-13.99
189.631	61.78
189.851	49.49
190.07	45.4
190.29	35.16
190.509	-48.81
190.729	-65.19
190.948	115.03
191.168	53.59
191.387	29.01
191.607	67.92
191.826	63.83
192.045	14.68
192.265	45.4
192.484	-18.09
192.704	39.25
192.923	51.54
193.142	39.25
193.362	-16.04
193.581	29.01
193.8	-30.38
194.02	57.68
194.239	16.73
194.458	47.44
194.678	35.16
194.897	55.64
195.116	0.34
195.335	12.63
195.555	41.3
195.774	31.06
195.993	57.68
196.212	43.35
196.432	26.96
196.651	22.87
196.87	20.82
197.089	115.03
197.308	-5.8
197.528	67.92
197.747	18.77
197.966	-38.57
198.185	10.58
198.404	31.06
198.623	43.35
198.842	53.59
199.062	59.73
199.281	74.07
199.5	-3.75
199.719	-13.99
199.938	57.68
200.157	108.88
200.376	-1.71
200.595	0.34
200.814	63.83
201.033	20.82
201.252	45.4
201.471	39.25
201.69	-3.75
201.909	78.16
202.128	22.87
202.347	80.21
202.566	43.35
202.785	-44.71
203.004	49.49
203.223	29.01
203.442	22.87
203.661	10.58
203.879	80.21
204.098	39.25
204.317	88.4
204.536	-3.75
204.755	47.44
204.974	51.54
205.193	24.92
205.411	16.73
205.63	20.82
205.849	29.01
206.068	8.53
206.287	16.73
206.505	63.83
206.724	72.02
206.943	65.88
207.162	49.49
207.381	-11.95
207.599	-18.09
207.818	2.39
208.037	26.96
208.255	14.68
208.474	-44.71
208.693	12.63
208.911	35.16
209.13	-9.9
209.349	8.53
209.567	16.73
209.786	47.44
210.005	53.59
210.223	74.07
210.442	33.11
210.661	41.3
210.879	29.01
211.098	37.2
211.316	39.25
211.535	59.73
211.753	59.73
211.972	10.58
212.191	6.49
212.409	80.21
212.628	67.92
212.846	131.41
213.065	45.4
213.283	10.58
213.502	31.06
213.72	-7.85
213.938	39.25
214.157	41.3
214.375	10.58
214.594	12.63
214.812	61.78
215.031	16.73
215.249	61.78
215.467	-5.8
215.686	-20.14
215.904	16.73
216.122	-9.9
216.341	-16.04
216.559	35.16
216.778	-18.09
216.996	-7.85
217.214	6.49
217.432	22.87
217.651	-38.57
217.869	12.63
218.087	-13.99
218.306	92.5
218.524	55.64
218.742	72.02
218.96	106.84
219.179	31.06
219.397	47.44
219.615	-24.23
219.833	14.68
220.051	47.44
220.27	45.4
220.488	37.2
220.706	63.83
220.924	-26.28
221.142	39.25
221.36	-18.09
221.578	16.73
221.796	10.58
222.015	47.44
222.233	-9.9
222.451	98.64
222.669	-5.8
222.887	6.49
223.105	14.68
223.323	31.06
223.541	-3.75
223.759	-11.95
223.977	61.78
224.195	51.54
224.413	-54.95
224.631	14.68
224.849	94.55
225.067	-11.95
225.285	16.73
225.503	76.12
225.721	72.02
225.939	33.11
226.157	49.49
226.375	55.64
226.592	-13.99
226.81	22.87
227.028	98.64
227.246	86.36
227.464	39.25
227.682	20.82
227.9	31.06
228.117	35.16
228.335	-5.8
228.553	31.06
228.771	12.63
228.989	69.97
229.206	2.39
229.424	41.3
229.642	-3.75
229.86	-36.52
230.077	78.16
230.295	45.4
230.513	39.25
230.731	41.3
230.948	76.12
231.166	-20.14
231.384	-50.86
231.601	14.68
231.819	12.63
232.037	14.68
232.254	-38.57
232.472	16.73
232.689	4.44
232.907	-5.8
233.125	0.34
233.342	22.87
233.56	12.63
233.777	12.63
233.995	67.92
234.213	41.3
234.43	-9.9
234.648	47.44
234.865	41.3
235.083	-40.62
235.3	2.39
235.518	76.12
235.735	78.16
235.953	69.97
236.17	41.3
236.388	51.54
236.605	57.68
236.822	-18.09
237.04	51.54
237.257	33.11
237.475	8.53
237.692	82.26
237.909	-5.8
238.127	51.54
238.344	16.73
238.562	-5.8
238.779	4.44
238.996	8.53
239.214	-54.95
239.431	10.58
239.648	74.07
239.865	35.16
240.083	2.39
240.3	24.92
240.517	96.6
240.735	22.87
240.952	24.92
241.169	106.84
241.386	-1.71
241.603	18.77
241.821	39.25
242.038	59.73
242.255	125.27
242.472	76.12
242.689	88.4
242.907	65.88
243.124	74.07
243.341	59.73
243.558	59.73
243.775	47.44
243.992	-11.95
244.209	74.07
244.426	-30.38
244.643	24.92
244.86	6.49
245.078	90.45
245.295	10.58
245.512	-1.71
245.729	74.07
245.946	80.21
246.163	78.16
246.38	12.63
246.597	115.03
246.814	53.59
247.031	-5.8
247.248	37.2
247.464	47.44
247.681	35.16
247.898	78.16
248.115	-9.9
248.332	-28.33
248.549	72.02
248.766	22.87
248.983	47.44
249.2	-22.19
249.417	20.82
249.633	82.26
249.85	45.4
250.067	26.96
250.284	-36.52
250.501	100.69
250.717	155.99
250.934	-38.57
251.151	8.53
251.368	33.11
251.585	65.88
251.801	26.96
252.018	53.59
252.235	18.77
252.451	2.39
252.668	72.02
252.885	16.73
253.102	-24.23
253.318	49.49
253.535	18.77
253.752	31.06
253.968	-20.14
254.185	6.49
254.401	135.51
254.618	22.87
254.835	80.21
255.051	53.59
255.268	24.92
255.484	-3.75
255.701	22.87
255.917	43.35
256.134	55.64
256.351	41.3
256.567	74.07
256.784	14.68
257	110.93
257.217	-3.75
257.433	43.35
257.65	55.64
257.866	0.34
258.082	69.97
258.299	-7.85
258.515	98.64
258.732	49.49
258.948	33.11
259.165	88.4
259.381	14.68
259.597	63.83
259.814	8.53
260.03	55.64
260.246	29.01
260.463	16.73
260.679	55.64
260.895	22.87
261.112	14.68
261.328	8.53
261.544	-44.71
261.761	8.53
261.977	-83.63
262.193	33.11
262.409	16.73
262.626	98.64
262.842	35.16
263.058	59.73
263.274	35.16
263.49	-34.47
263.707	18.77
263.923	16.73
264.139	82.26
264.355	35.16
264.571	8.53
264.787	63.83
265.004	49.49
265.22	33.11
265.436	16.73
265.652	53.59
265.868	51.54
266.084	24.92
266.3	57.68
266.516	-32.43
266.732	96.6
266.948	69.97
267.164	63.83
267.38	94.55
267.596	76.12
267.812	43.35
268.028	-1.71
268.244	63.83
268.46	6.49
268.676	31.06
268.892	35.16
269.108	29.01
269.324	33.11
269.54	53.59
269.756	26.96
269.972	16.73
270.188	65.88
270.403	41.3
270.619	37.2
270.835	-1.71
271.051	69.97
271.267	6.49
271.483	31.06
271.698	29.01
271.914	-3.75
272.13	26.96
272.346	4.44
272.562	59.73
272.777	8.53
272.993	47.44
273.209	47.44
273.425	106.84
273.64	63.83
273.856	43.35
274.072	63.83
274.287	2.39
274.503	37.2
274.719	-13.99
274.934	-13.99
275.15	14.68
275.366	22.87
275.581	61.78
275.797	96.6
276.012	31.06
276.228	-9.9
276.444	-9.9
276.659	110.93
276.875	-1.71
277.09	78.16
277.306	2.39
277.521	24.92
277.737	22.87
277.952	39.25
278.168	26.96
278.383	26.96
278.599	24.92
278.814	41.3
279.03	0.34
279.245	65.88
279.461	-1.71
279.676	22.87
279.892	16.73
280.107	41.3
280.322	22.87
280.538	31.06
280.753	35.16
280.969	72.02
281.184	10.58
281.399	59.73
281.615	-3.75
281.83	80.21
282.045	-44.71
282.26	39.25
282.476	-24.23
282.691	43.35
282.906	-16.04
283.122	-83.63
283.337	102.74
283.552	51.54
283.767	12.63
283.983	26.96
284.198	82.26
284.413	14.68
284.628	16.73
284.843	14.68
285.058	94.55
285.274	67.92
285.489	24.92
285.704	-7.85
285.919	31.06
286.134	80.21
286.349	76.12
286.564	51.54
286.779	53.59
286.995	35.16
287.21	29.01
287.425	26.96
287.64	12.63
287.855	8.53
288.07	6.49
288.285	-5.8
288.5	57.68
288.715	29.01
288.93	0.34
289.145	20.82
289.36	14.68
289.575	-1.71
289.79	100.69
290.004	55.64
290.219	65.88
290.434	45.4
290.649	43.35
290.864	39.25
291.079	8.53
291.294	6.49
291.509	-9.9
291.724	43.35
291.938	35.16
292.153	65.88
292.368	65.88
292.583	82.26
292.798	39.25
293.012	37.2
293.227	8.53
293.442	49.49
293.657	-26.28
293.871	22.87
294.086	24.92
294.301	35.16
294.516	14.68
294.73	49.49
294.945	29.01
295.16	39.25
295.374	47.44
295.589	74.07
295.804	12.63
296.018	-13.99
296.233	8.53
296.447	55.64
296.662	41.3
296.877	22.87
297.091	78.16
297.306	-52.91
297.52	88.4
297.735	53.59
297.949	-20.14
298.164	24.92
298.378	-61.1
298.593	41.3
298.807	33.11
299.022	39.25
299.236	-42.67
299.451	4.44
299.665	96.6
299.88	10.58
300.094	-3.75
300.309	61.78
300.523	2.39
300.737	29.01
300.952	-13.99
301.166	41.3
301.381	35.16
301.595	63.83
301.809	51.54
302.024	55.64
302.238	22.87
302.452	39.25
302.667	51.54
302.881	18.77
303.095	65.88
303.309	49.49
303.524	22.87
303.738	63.83
303.952	18.77
304.166	55.64
304.381	-16.04
304.595	90.45
304.809	-13.99
305.023	12.63
305.237	-26.28
305.452	47.44
305.666	2.39
305.88	-5.8
306.094	51.54
306.308	115.03
306.522	18.77
306.736	0.34
306.95	18.77
307.164	96.6
307.379	63.83
307.593	90.45
307.807	24.92
308.021	63.83
308.235	84.31
308.449	39.25
308.663	45.4
308.877	88.4
309.091	65.88
309.305	49.49
309.519	-38.57
309.733	98.64
309.947	10.58
310.161	26.96
310.374	16.73
310.588	59.73
310.802	65.88
311.016	-16.04
311.23	-28.33
311.444	-38.57
311.658	-42.67
311.872	-5.8
312.085	43.35
312.299	49.49
312.513	29.01
312.727	18.77
312.941	14.68
313.154	39.25
313.368	49.49
313.582	41.3
313.796	45.4
314.009	18.77
314.223	76.12
314.437	55.64
314.651	35.16
314.864	-59.05
315.078	0.34
315.292	-16.04
315.505	33.11
315.719	51.54
315.933	-5.8
316.146	67.92
316.36	49.49
316.573	108.88
316.787	18.77
317.001	115.03
317.214	47.44
317.428	59.73
317.641	4.44
317.855	35.16
318.068	55.64
318.282	37.2
318.495	76.12
318.709	49.49
318.922	72.02
319.136	98.64
319.349	84.31
319.563	24.92
319.776	-13.99
319.99	8.53
320.203	100.69
320.417	110.93
320.63	26.96
320.843	10.58
321.057	12.63
321.27	-75.43
321.483	63.83
321.697	55.64
321.91	-1.71
322.124	82.26
322.337	67.92
322.55	0.34
322.763	33.11
322.977	78.16
323.19	57.68
323.403	51.54
323.617	123.22
323.83	41.3
324.043	61.78
324.256	29.01
324.469	33.11
324.683	-11.95
324.896	94.55
325.109	6.49
325.322	-28.33
325.535	35.16
325.748	72.02
325.962	88.4
326.175	-7.85
326.388	29.01
326.601	31.06
326.814	76.12
327.027	-24.23
327.24	55.64
327.453	43.35
327.666	31.06
327.879	35.16
328.092	55.64
328.305	92.5
328.518	39.25
328.731	47.44
328.944	104.79
329.157	49.49
329.37	74.07
329.583	74.07
329.796	94.55
330.009	57.68
330.222	37.2
330.435	76.12
330.648	35.16
330.861	14.68
331.073	104.79
331.286	2.39
331.499	63.83
331.712	-30.38
331.925	16.73
332.138	104.79
332.35	55.64
332.563	33.11
332.776	92.5
332.989	78.16
333.202	90.45
333.414	-34.47
333.627	10.58
333.84	16.73
334.053	18.77
334.265	14.68
334.478	100.69
334.691	29.01
334.903	59.73
335.116	115.03
335.329	69.97
335.541	0.34
335.754	59.73
335.966	-16.04
336.179	47.44
336.392	61.78
336.604	-1.71
336.817	67.92
337.029	37.2
337.242	-5.8
337.454	65.88
337.667	24.92
337.88	31.06
338.092	2.39
338.305	51.54
338.517	37.2
338.729	10.58
338.942	110.93
339.154	74.07
339.367	92.5
339.579	6.49
339.792	41.3
340.004	47.44
340.217	57.68
340.429	47.44
340.641	35.16
340.854	51.54
341.066	4.44
341.278	67.92
341.491	14.68
341.703	20.82
341.915	78.16
342.128	74.07
342.34	41.3
342.552	59.73
342.764	63.83
342.977	53.59
343.189	63.83
343.401	63.83
343.613	33.11
343.826	31.06
344.038	45.4
344.25	14.68
344.462	41.3
344.674	18.77
344.886	0.34
345.099	0.34
345.311	-16.04
345.523	-40.62
345.735	37.2
345.947	57.68
346.159	61.78
346.371	49.49
346.583	43.35
346.795	37.2
347.007	41.3
347.219	8.53
347.431	33.11
347.643	26.96
347.855	-32.43
348.067	84.31
348.279	86.36
348.491	-13.99
348.703	8.53
348.915	-48.81
349.127	37.2
349.339	8.53
349.551	29.01
349.763	14.68
349.975	35.16
350.187	55.64
350.399	51.54
350.61	115.03
350.822	14.68
351.034	74.07
351.246	39.25
351.458	63.83
351.669	8.53
351.881	14.68
352.093	53.59
352.305	74.07
352.517	63.83
352.728	0.34
352.94	45.4
353.152	63.83
353.363	-16.04
353.575	57.68
353.787	59.73
353.999	49.49
354.21	59.73
354.422	80.21
354.633	55.64
354.845	24.92
355.057	37.2
355.268	106.84
355.48	43.35
355.692	43.35
355.903	125.27
356.115	102.74
356.326	10.58
356.538	63.83
356.749	63.83
356.961	24.92
357.172	22.87
357.384	47.44
357.595	-42.67
357.807	18.77
358.018	61.78
358.23	55.64
358.441	6.49
358.653	-22.19
358.864	49.49
359.075	10.58
359.287	112.98
359.498	20.82
359.709	65.88
359.921	55.64
360.132	14.68
360.344	55.64
360.555	41.3
360.766	72.02
360.977	41.3
361.189	47.44
361.4	29.01
361.611	14.68
361.823	33.11
362.034	39.25
362.245	0.34
362.456	37.2
362.667	31.06
362.879	47.44
363.09	18.77
363.301	20.82
363.512	24.92
363.723	78.16
363.935	-20.14
364.146	104.79
364.357	57.68
364.568	133.46
364.779	59.73
364.99	12.63
365.201	37.2
365.412	74.07
365.623	0.34
365.834	53.59
366.045	57.68
366.256	59.73
366.467	31.06
366.678	65.88
366.889	-7.85
367.1	61.78
367.311	35.16
367.522	59.73
367.733	-18.09
367.944	33.11
368.155	26.96
368.366	129.36
368.577	22.87
368.788	96.6
368.999	8.53
369.209	76.12
369.42	127.32
369.631	94.55
369.842	24.92
370.053	110.93
370.264	49.49
370.474	35.16
370.685	26.96
370.896	20.82
371.107	78.16
371.317	100.69
371.528	41.3
371.739	22.87
371.95	84.31
372.16	76.12
372.371	6.49
372.582	41.3
372.792	-24.23
373.003	82.26
373.214	121.17
373.424	2.39
373.635	47.44
373.846	80.21
374.056	80.21
374.267	80.21
374.477	-18.09
374.688	14.68
374.898	20.82
375.109	43.35
375.319	-1.71
375.53	76.12
375.74	88.4
375.951	59.73
376.161	29.01
376.372	84.31
376.582	59.73
376.793	59.73
377.003	69.97
377.214	100.69
377.424	51.54
377.635	80.21
377.845	8.53
378.055	-24.23
378.266	96.6
378.476	100.69
378.686	14.68
378.897	106.84
379.107	100.69
379.317	61.78
379.528	-26.28
379.738	6.49
379.948	112.98
380.158	39.25
380.369	-22.19
380.579	76.12
380.789	69.97
380.999	88.4
381.21	49.49
381.42	104.79
381.63	33.11
381.84	80.21
382.05	92.5
382.261	63.83
382.471	-13.99
382.681	-13.99
382.891	29.01
383.101	43.35
383.311	24.92
383.521	29.01
383.731	18.77
383.941	57.68
384.151	37.2
384.361	59.73
384.571	55.64
384.781	88.4
384.991	65.88
385.201	53.59
385.411	29.01
385.621	35.16
385.831	33.11
386.041	14.68
386.251	8.53
386.461	84.31
386.671	51.54
386.881	63.83
387.091	51.54
387.301	8.53
387.511	24.92
387.72	8.53
387.93	104.79
388.14	-20.14
388.35	41.3
388.56	31.06
388.769	20.82
388.979	90.45
389.189	29.01
389.399	110.93
389.609	145.75
389.818	82.26
390.028	0.34
390.238	115.03
390.447	69.97
390.657	53.59
390.867	39.25
391.076	131.41
391.286	26.96
391.496	29.01
391.705	57.68
391.915	6.49
392.125	96.6
392.334	33.11
392.544	41.3
392.753	69.97
392.963	53.59
393.172	92.5
393.382	-1.71
393.591	80.21
393.801	90.45
394.01	129.36
394.22	88.4
394.429	84.31
394.639	-7.85
394.848	4.44
395.058	88.4
395.267	37.2
395.477	18.77
395.686	16.73
395.895	106.84
396.105	88.4
396.314	92.5
396.524	14.68
396.733	22.87
396.942	147.8
397.152	121.17
397.361	74.07
397.57	86.36
397.78	117.08
397.989	-11.95
398.198	110.93
398.407	98.64
398.617	78.16
398.826	84.31
399.035	67.92
399.244	131.41
399.453	31.06
399.663	96.6
399.872	53.59
400.081	74.07
400.29	123.22
400.499	35.16
400.708	143.7
400.917	72.02
401.127	96.6
401.336	90.45
401.545	108.88
401.754	94.55
401.963	26.96
402.172	102.74
402.381	121.17
402.59	131.41
402.799	84.31
403.008	112.98
403.217	127.32
403.426	121.17
403.635	94.55
403.844	137.56
404.053	135.51
404.262	121.17
404.471	141.65
404.68	100.69
404.888	65.88
405.097	72.02
405.306	35.16
405.515	69.97
405.724	102.74
405.933	131.41
406.142	59.73
406.35	127.32
406.559	104.79
406.768	135.51
406.977	121.17
407.185	143.7
407.394	106.84
407.603	100.69
407.812	92.5
408.02	104.79
408.229	131.41
408.438	98.64
408.646	151.89
408.855	178.51
409.064	131.41
409.272	149.84
409.481	248.15
409.69	178.51
409.898	106.84
410.107	196.95
410.315	153.94
410.524	158.03
410.733	194.9
410.941	186.71
411.15	256.34
411.358	219.47
411.567	192.85
411.775	182.61
411.984	225.62
412.192	336.21
412.401	301.39
412.609	305.49
412.818	291.15
413.026	246.1
413.234	268.63
413.443	264.53
413.651	299.34
413.86	252.24
414.068	293.2
414.276	397.65
414.485	231.76
414.693	313.68
414.901	375.12
415.11	414.03
415.318	409.94
415.526	473.42
415.734	409.94
415.943	358.74
416.151	409.94
416.359	448.85
416.567	452.94
416.776	434.51
416.984	538.96
417.192	547.15
417.4	465.23
417.608	547.15
417.817	647.5
418.025	565.58
418.233	584.01
418.441	534.86
418.649	635.21
418.857	661.84
419.065	565.58
419.273	692.55
419.481	680.27
419.689	721.23
419.897	686.41
420.105	823.62
420.313	743.75
420.521	819.53
420.729	784.71
420.937	835.91
421.145	835.91
421.353	885.06
421.561	1055.05
421.769	995.65
421.977	1063.24
422.185	1038.66
422.393	1042.76
422.601	1200.45
422.809	1132.87
423.017	1124.68
423.224	1151.3
423.432	1202.5
423.64	1169.73
423.848	1341.76
424.056	1261.89
424.263	1397.06
424.471	1386.82
424.679	1409.34
424.887	1546.56
425.094	1538.37
425.302	1562.94
425.51	1605.95
425.718	1685.82
425.925	1728.83
426.133	1868.09
426.341	1753.4
426.548	1911.1
426.756	1917.24
426.964	2013.49
427.171	2136.37
427.379	2173.24
427.586	2136.37
427.794	2220.34
428.001	2222.39
428.209	2494.77
428.417	2275.63
428.624	2527.53
428.832	2449.71
429.039	2586.93
429.247	2625.84
429.454	2824.49
429.662	2898.22
429.869	2758.96
430.076	3111.21
430.284	2849.07
430.491	2998.57
430.699	3254.56
430.906	3217.7
431.114	3359.01
431.321	3449.12
431.528	3473.7
431.736	3586.33
431.943	3801.37
432.15	3621.15
432.358	3698.97
432.565	4012.31
432.772	3850.52
432.979	4159.77
433.187	4170.01
433.394	4118.81
433.601	4729.1
433.808	4593.94
434.016	4512.02
434.223	4614.41
434.43	4989.19
434.637	4907.27
434.844	5175.56
435.052	5368.07
435.259	5347.59
435.466	5237
435.673	5341.44
435.88	5685.5
436.087	5904.64
436.294	5818.62
436.501	5634.3
436.708	5796.09
436.915	6146.3
437.122	6158.58
437.329	6281.46
437.537	6502.64
437.743	6656.24
437.95	6627.57
438.157	6985.96
438.364	7377.12
438.571	7231.72
438.778	7180.52
438.985	8028.38
439.192	7727.33
439.399	7905.5
439.606	7653.6
439.813	8116.44
440.02	8669.39
440.227	8368.34
440.433	8452.31
440.64	8665.3
440.847	8530.13
441.054	8728.78
441.261	9353.41
441.467	9386.18
441.674	9545.92
441.881	9908.41
442.088	9652.42
442.294	9785.54
442.501	10043.58
442.708	10080.44
442.914	10567.86
443.121	11096.24
443.328	10703.03
443.534	11561.12
443.741	11026.61
443.948	10950.83
444.154	11972.77
444.361	11747.49
444.568	11874.46
444.774	11626.66
444.981	11784.35
445.187	12200.09
445.394	12794
445.6	12720.28
445.807	13783.17
446.013	13252.75
446.22	13600.9
446.426	14225.53
446.633	14317.69
446.839	14805.11
447.046	13957.25
447.252	15032.43
447.459	14850.16
447.665	14936.18
447.871	15300.72
448.078	16189.53
448.284	15415.4
448.491	15927.39
448.697	16351.32
448.903	16504.92
449.11	16650.33
449.316	16613.46
449.522	16967.76
449.728	17395.79
449.935	17373.26
450.141	17463.37
450.347	17721.41
450.553	16945.23
450.76	17569.87
450.966	18079.81
451.172	17659.98
451.378	18368.57
451.584	17954.88
451.791	18405.44
451.997	18114.62
452.203	18393.15
452.409	18710.58
452.615	18620.47
452.821	17889.35
453.027	17596.49
453.233	18497.6
453.44	18153.54
453.646	18116.67
453.852	18106.43
454.058	18544.7
454.264	18024.51
454.47	18546.75
454.676	17913.92
454.882	18628.67
455.088	16832.6
455.294	17385.55
455.5	17436.75
455.705	17700.94
455.911	17109.07
456.117	16803.92
456.323	16511.07
456.529	15644.77
456.735	16302.17
456.941	15925.35
457.147	15661.16
457.352	15251.56
457.558	14975.09
457.764	15030.38
457.97	14825.59
458.176	14409.85
458.381	14381.18
458.587	13899.91
458.793	13811.84
458.999	12949.65
459.204	14192.76
459.41	13797.51
459.616	12763.28
459.821	12859.54
460.027	12763.28
460.233	12509.33
460.438	11985.05
460.644	12378.26
460.85	11550.89
461.055	11065.52
461.261	11440.29
461.466	10672.31
461.672	10242.23
461.878	10846.38
462.083	10256.57
462.289	10068.16
462.494	10070.2
462.7	9625.79
462.905	9468.1
463.111	9582.79
463.316	9672.9
463.522	9525.44
463.727	9593.03
463.932	9298.12
464.138	9302.22
464.343	9265.35
464.549	9187.53
464.754	9402.57
464.959	9441.48
465.165	9421
465.37	9074.89
465.575	8728.78
465.781	8870.09
465.986	8986.83
466.191	9165
466.397	8696.02
466.602	8190.17
466.807	8540.37
467.012	8497.36
467.218	8415.44
467.423	8427.73
467.628	8263.9
467.833	8919.25
468.038	8618.19
468.244	8157.4
468.449	8696.02
468.654	8302.81
468.859	8171.74
469.064	8161.5
469.269	8022.23
469.474	7934.17
469.679	8245.46
469.885	7764.19
470.09	7995.61
470.295	8085.72
470.5	7827.68
470.705	7790.81
470.91	7727.33
471.115	7532.77
471.32	7784.67
471.525	7641.31
471.73	7571.68
471.935	7516.39
472.139	7278.82
472.344	7180.52
472.549	7227.62
472.754	7145.7
472.959	7186.66
473.164	6572.27
473.369	6918.38
473.574	7026.92
473.778	6992.11
473.983	6891.76
474.188	6850.8
474.393	6627.57
474.598	6545.65
474.802	6494.45
475.007	6527.22
475.212	6459.63
475.417	6279.41
475.621	6199.54
475.826	6213.88
476.031	6076.66
476.235	5918.97
476.44	6060.28
476.645	5841.15
476.849	6093.05
477.054	5859.58
477.259	5755.13
477.463	5767.42
477.668	5587.2
477.872	5601.54
478.077	5568.77
478.282	5388.55
478.486	5406.98
478.691	5404.93
478.895	5341.44
479.1	5521.67
479.304	5179.65
479.509	5187.85
479.713	5363.97
479.918	5015.82
480.122	5130.5
480.326	5232.9
480.531	5110.02
480.735	5081.35
480.94	5042.44
481.144	5228.81
481.348	4958.47
481.553	5036.3
481.757	4991.24
481.961	5069.06
482.166	5107.98
482.37	5044.49
482.574	4942.09
482.778	4847.88
482.983	5050.63
483.187	4909.32
483.391	4946.19
483.595	4983.05
483.8	4964.62
484.004	4888.84
484.208	5077.26
484.412	4999.43
484.616	5046.54
484.821	5017.86
485.025	4954.38
485.229	4864.27
485.433	5071.11
485.637	4940.04
485.841	5015.82
486.045	5050.63
486.249	4931.85
486.453	4946.19
486.657	5036.3
486.861	5103.88
487.065	4950.28
487.269	5052.68
487.473	4894.99
487.677	4962.57
487.881	5255.43
488.085	5093.64
488.289	5230.85
488.493	5091.59
488.697	5159.17
488.901	5140.74
489.105	5040.39
489.309	5173.51
489.512	5165.32
489.716	5232.9
489.92	5327.11
490.124	5323.01
490.328	5144.84
490.531	5202.18
490.735	5345.54
490.939	5392.64
491.143	5325.06
491.346	5296.39
491.55	5581.06
491.754	5427.46
491.958	5492.99
492.161	5601.54
492.365	5572.86
492.569	5497.09
492.772	5601.54
492.976	5552.38
493.18	5767.42
493.383	5740.8
493.587	5818.62
493.79	5830.91
493.994	5873.92
494.197	5912.83
494.401	5998.84
494.605	5878.01
494.808	6091
495.012	6158.58
495.215	5978.36
495.419	6166.78
495.622	6209.78
495.825	6406.39
496.029	6293.75
496.232	6488.31
496.436	6430.96
496.639	6605.04
496.843	6582.51
497.046	6873.32
497.249	6877.42
497.453	6951.15
497.656	7002.35
497.859	7026.92
498.063	7180.52
498.266	7262.44
498.469	7246.05
498.673	7135.46
498.876	7321.83
499.079	7684.32
499.282	7489.76
499.485	7870.69
499.689	7682.27
499.892	8075.48
500.095	7948.51
500.298	8132.83
500.501	8247.51
500.705	8444.12
500.908	8610
501.111	8562.9
501.314	8691.92
501.517	8804.56
501.72	8937.68
501.923	9025.74
502.126	9160.91
502.329	9328.84
502.532	9296.07
502.735	9562.31
502.938	9754.82
503.141	9808.06
503.344	10053.82
503.547	9803.97
503.75	10221.75
503.953	10295.48
504.156	10477.75
504.359	10614.96
504.562	10621.11
504.765	10977.45
504.968	11094.19
505.17	11120.81
505.373	11303.08
505.576	11487.4
505.779	11565.22
505.982	11796.64
506.185	12120.22
506.387	11896.99
506.59	12101.79
506.793	12419.22
506.996	12300.44
507.198	12943.5
507.401	12712.08
507.604	12705.94
507.807	13373.58
508.009	13531.27
508.212	13244.56
508.415	13578.37
508.617	13860.99
508.82	13910.15
509.022	13957.25
509.225	14477.43
509.428	14493.82
509.63	14604.41
509.833	14786.68
510.035	15233.13
510.238	15054.96
510.44	15376.49
510.643	15452.27
510.845	15751.27
511.048	15532.14
511.25	15845.48
511.453	16269.41
511.655	16779.35
511.858	16568.41
512.06	16728.15
512.262	17268.81
512.465	16967.76
512.667	17293.39
512.87	17438.8
513.072	17664.07
513.274	17879.11
513.477	18309.18
513.679	18161.73
513.881	18376.76
514.084	18835.51
514.286	18686.01
514.488	19183.66
514.69	19388.46
514.893	19290.16
515.095	19810.34
515.297	19959.84
515.499	19927.08
515.701	20469.79
515.904	20742.17
516.106	20533.28
516.308	20776.98
516.51	21483.53
516.712	21487.63
516.914	21409.81
517.116	22296.58
517.318	21954.57
517.52	22065.16
517.722	22300.67
517.925	22728.7
518.127	22614.01
518.329	23160.82
518.531	22896.63
518.733	23445.49
518.935	23617.52
519.136	23599.09
519.338	24305.63
519.54	24170.47
519.742	24487.9
519.944	24704.99
520.146	24774.62
520.348	25372.63
520.55	25221.08
520.752	25505.74
520.954	25884.62
521.155	25264.08
521.357	26445.76
521.559	26343.36
521.761	26580.93
521.963	26544.06
522.164	26847.16
522.366	27168.69
522.568	27383.73
522.77	27324.34
522.971	27752.37
523.173	27828.14
523.375	28143.53
523.576	28034.99
523.778	28434.34
523.98	28422.05
524.181	28645.28
524.383	28682.14
524.584	28975
524.786	29241.24
524.988	29296.53
525.189	29769.62
525.391	29634.45
525.592	29802.38
525.794	30496.64
525.995	30076.81
526.197	29962.12
526.398	30193.54
526.6	30719.87
526.801	30402.44
527.003	30769.02
527.204	30541.7
527.406	30852.99
527.607	31076.22
527.808	31614.83
528.01	30875.52
528.211	31213.43
528.412	31811.44
528.614	31786.86
528.815	31444.85
529.016	32163.69
529.218	31522.68
529.419	31872.88
529.62	31967.09
529.822	31858.54
530.023	32202.6
530.224	32159.59
530.425	32350.06
530.626	32057.2
530.828	31842.16
531.029	33199.96
531.23	32280.42
531.431	32458.6
531.632	32550.76
531.833	32755.55
532.035	32663.39
532.236	32618.34
532.437	32851.81
532.638	32735.07
532.839	32999.26
533.04	33169.24
533.241	33070.94
533.442	33681.24
533.643	33472.34
533.844	33410.9
534.045	33234.78
534.246	33451.86
534.447	33292.12
534.648	33150.81
534.849	33699.67
535.05	33402.71
535.251	34084.69
535.451	32929.63
535.652	33568.6
535.853	33875.79
536.054	34056.01
536.255	34039.63
536.456	33748.82
536.657	34062.16
536.857	34221.9
537.058	33853.26
537.259	34350.92
537.46	34021.2
537.66	33775.44
537.861	33890.13
538.062	33734.48
538.263	34187.08
538.463	33644.37
538.664	33941.33
538.865	34307.91
539.065	34312.01
539.266	33894.22
539.466	34269
539.667	33703.76
539.868	34295.63
540.068	34002.77
540.269	34414.41
540.469	34260.81
540.67	33957.71
540.87	34197.32
541.071	34494.28
541.271	34367.3
541.472	34062.16
541.672	34221.9
541.873	34176.84
542.073	34058.06
542.274	34289.48
542.474	34164.56
542.675	34226
542.875	34766.66
543.075	34479.94
543.276	33998.67
543.476	34742.08
543.676	34289.48
543.877	34365.26
544.077	34752.32
544.277	34420.55
544.478	34273.1
544.678	34555.72
544.878	34428.74
545.078	34355.02
545.279	34473.8
545.479	34209.61
545.679	34496.33
545.879	34182.99
546.079	34709.32
546.28	34785.09
546.48	34307.91
546.68	34770.75
546.88	34611.01
547.08	34547.53
547.28	34223.95
547.48	34025.29
547.68	34428.74
547.88	33974.09
548.081	34510.66
548.281	34174.8
548.481	34309.96
548.681	34770.75
548.881	34506.57
549.081	34615.11
549.28	34352.97
549.48	34748.23
549.68	34205.52
549.88	34948.93
550.08	34572.1
550.28	34758.47
550.48	34346.83
550.68	34977.6
550.88	34842.43
551.08	34178.89
551.279	34477.9
551.479	34588.49
551.679	34322.25
551.879	34522.95
552.079	34983.74
552.278	34627.4
552.478	34479.94
552.678	34731.84
552.878	34819.91
553.077	34598.73
553.277	34324.3
553.477	35049.28
553.676	34389.83
553.876	34436.94
554.076	34545.48
554.275	34537.29
554.475	34088.78
554.674	34182.99
554.874	34608.97
555.074	34254.67
555.273	34631.49
555.473	34643.78
555.672	34430.79
555.872	34297.67
556.071	34764.61
556.271	34645.83
556.47	34217.8
556.67	34258.76
556.869	34252.62
557.068	34672.45
557.268	33982.29
557.467	34412.36
557.667	34205.52
557.866	34387.78
558.065	34209.61
558.265	34064.21
558.464	34000.72
558.663	34457.42
558.863	33922.9
559.062	34303.82
559.261	33748.82
559.461	34481.99
559.66	33861.46
559.859	33967.95
560.058	34033.49
560.258	34223.95
560.457	33525.59
560.656	33890.13
560.855	34142.03
561.054	34135.88
561.253	33621.84
561.453	33992.53
561.652	33730.39
561.851	34129.74
562.05	34000.72
562.249	33955.66
562.448	34107.21
562.647	33705.81
562.846	33810.26
563.045	34107.21
563.244	33642.32
563.443	34084.69
563.642	33417.05
563.841	34058.06
564.04	33507.16
564.239	33818.45
564.438	33165.15
564.637	34111.31
564.836	33845.07
565.035	33879.89
565.234	33804.11
565.432	33470.29
565.631	33806.16
565.83	33771.35
566.029	33607.51
566.228	33720.15
566.427	33552.21
566.625	33636.18
566.824	33109.85
567.023	33677.14
567.222	33079.13
567.42	33668.95
567.619	33886.03
567.818	33419.1
568.016	33204.06
568.215	33425.24
568.414	33292.12
568.612	33748.82
568.811	33458.01
569.01	33253.21
569.208	33029.98
569.407	33343.32
569.605	32868.19
569.804	33328.98
570.002	32964.45
570.201	33001.31
570.4	32655.2
570.598	33124.19
570.797	32743.27
570.995	32675.68
571.193	32976.73
571.392	32753.51
571.59	32339.82
571.789	32561
571.987	32655.2
572.186	32829.28
572.384	32782.18
572.582	32700.26
572.781	32575.33
572.979	32110.44
573.177	32642.92
573.376	32382.82
573.574	31993.71
573.772	32393.06
573.971	32434.02
574.169	32194.41
574.367	31807.34
574.565	32339.82
574.763	32155.5
574.962	32171.88
575.16	31571.83
575.358	32032.62
575.556	31446.9
575.754	31926.13
575.952	31281.02
576.151	31887.21
576.349	31426.42
576.547	31317.88
576.745	31680.37
576.943	31577.97
577.141	31524.72
577.339	31373.17
577.537	30992.25
577.735	31115.13
577.933	30721.92
578.131	31369.08
578.329	31108.99
578.527	31004.54
578.725	30820.22
578.923	31133.56
579.121	30797.7
579.319	30535.56
579.516	30861.18
579.714	30861.18
579.912	30304.13
580.11	30279.56
580.308	30832.51
580.506	30859.13
580.704	30140.3
580.901	30431.11
581.099	30531.46
581.297	30379.91
581.495	30033.8
581.692	30418.82
581.89	29814.67
582.088	29853.58
582.285	30136.2
582.483	30406.53
582.681	29953.93
582.878	29509.52
583.076	29611.92
583.274	29587.35
583.471	29411.22
583.669	29667.22
583.866	29147.03
584.064	29282.2
584.262	29147.03
584.459	29538.19
584.657	29032.35
584.854	29382.55
585.052	29075.35
585.249	28805.02
585.447	29052.83
585.644	28434.34
585.841	29175.7
586.039	29024.15
586.236	28759.97
586.434	28192.68
586.631	28346.28
586.828	28520.35
587.026	28463.01
587.223	28211.11
587.42	28266.41
587.618	28487.59
587.815	27754.41
588.012	27688.88
588.21	27774.89
588.407	28278.69
588.604	27918.25
588.801	27754.41
588.999	27551.66
589.196	27584.43
589.393	27492.27
589.59	27750.32
589.787	27328.44
589.984	27512.75
590.182	27043.77
590.379	27535.28
590.576	27074.49
590.773	27162.55
590.97	27346.87
591.167	27058.1
591.364	26677.18
591.561	26752.96
591.758	26695.61
591.955	26605.5
592.152	26671.04
592.349	26431.43
592.546	26609.6
592.743	26525.63
592.94	26157
593.137	26427.33
593.334	26150.85
593.531	25911.24
593.727	26220.49
593.924	25999.3
594.121	25989.06
594.318	26027.98
594.515	25776.08
594.712	25864.14
594.908	25810.89
595.105	26093.51
595.302	25352.15
595.499	25452.5
595.696	25487.31
595.892	24997.85
596.089	25151.45
596.286	25370.58
596.482	25257.94
596.679	25303
596.876	25210.84
597.072	25053.14
597.269	24911.83
597.466	24817.63
597.662	24526.82
597.859	24748
598.055	24563.68
598.252	24397.79
598.448	24659.93
598.645	24377.31
598.841	24238.05
599.038	24281.06
599.234	24405.98
599.431	24199.14
599.627	24211.43
599.824	23928.81
600.02	23918.57
600.217	23736.3
600.413	23697.39
600.609	23762.92
600.806	23807.98
601.002	23756.78
601.198	23623.66
601.395	23455.73
601.591	23363.57
601.787	23644.14
601.984	23138.29
602.18	23502.83
602.376	23136.24
602.572	23164.92
602.769	23136.24
602.965	22900.73
603.161	22706.17
603.357	22769.66
603.553	22796.28
603.75	22798.33
603.946	22470.65
604.142	22833.14
604.338	22167.56
604.534	22579.2
604.73	22083.59
604.926	22237.19
605.122	22190.08
605.318	22439.93
605.514	21948.42
605.71	21870.6
605.906	22020.1
606.102	22011.91
606.298	21981.19
606.494	21837.83
606.69	21721.1
606.886	21907.46
607.082	21239.83
607.278	21934.09
607.474	21411.85
607.67	21571.6
607.866	21168.15
608.062	21395.47
608.257	21012.5
608.453	21342.22
608.649	21418
608.845	21026.84
609.041	21219.35
609.236	21395.47
609.432	20727.83
609.628	21147.67
609.824	21098.52
610.019	21002.26
610.215	21045.27
610.411	21067.8
610.606	20881.43
610.802	20971.54
610.998	20916.25
611.193	20662.3
611.389	20514.84
611.584	20516.89
611.78	20279.33
611.976	20629.53
612.171	20557.85
612.367	20520.99
612.562	20279.33
612.758	19976.23
612.953	20144.16
613.149	20031.52
613.344	20455.45
613.539	20564
613.735	20224.03
613.93	20357.15
614.126	19978.28
614.321	20236.32
614.517	20006.95
614.712	19779.62
614.907	19748.9
615.103	20006.95
615.298	19918.89
615.493	20131.87
615.688	19861.54
615.884	19900.45
616.079	19544.11
616.274	19757.1
616.47	19499.05
616.665	19357.74
616.86	19589.16
617.055	19286.06
617.25	19298.35
617.445	19513.39
617.641	18806.84
617.836	19435.56
618.031	18923.57
618.226	19122.23
618.421	18931.76
618.616	19355.69
618.811	18925.62
619.006	19103.79
619.201	18667.58
619.396	18999.35
619.591	18452.54
619.786	18722.87
619.981	18561.08
620.176	18665.53
620.371	18073.67
620.566	18348.09
620.761	18192.45
620.956	18376.76
621.151	18124.86
621.346	18077.76
621.541	18186.3
621.735	17879.11
621.93	17682.5
622.125	17713.22
622.32	17692.74
622.515	17330.25
622.709	17164.37
622.904	17334.35
623.099	17252.43
623.294	17410.12
623.488	17125.46
623.683	16965.71
623.878	16836.69
624.072	16844.88
624.267	16922.71
624.462	16736.34
624.656	16492.63
624.851	16660.57
625.046	16736.34
625.24	16377.95
625.435	16359.52
625.629	16257.12
625.824	15982.69
626.018	16056.42
626.213	15566.95
626.407	15945.83
626.602	15564.9
626.796	15616.1
626.991	15726.69
627.185	15339.63
627.38	15302.76
627.574	15220.85
627.768	15300.72
627.963	15120.49
628.157	14868.59
628.352	15104.11
628.546	14870.64
628.74	14884.98
628.935	14696.57
629.129	14813.3
629.323	14454.9
629.517	14207.1
629.712	14506.1
629.906	14588.02
630.1	14157.95
630.294	14182.52
630.489	14039.17
630.683	14368.89
630.877	13756.55
631.071	13928.58
631.265	14278.78
631.459	13590.66
631.653	13828.23
631.848	13879.43
632.042	13498.5
632.236	13570.18
632.43	13510.79
632.624	13449.35
632.818	13328.52
633.012	13283.47
633.206	13238.41
633.4	13295.75
633.594	12800.15
633.788	13027.47
633.982	12935.31
634.176	12939.41
634.369	12884.11
634.563	12642.45
634.757	12605.59
634.951	12578.97
635.145	12441.75
635.339	12525.72
635.533	12435.61
635.726	12343.45
635.92	12251.29
636.114	12198.04
636.308	12277.91
636.501	12191.9
636.695	12148.89
636.889	12079.26
637.083	11919.52
637.276	11851.94
637.47	11741.35
637.664	11731.11
637.857	11731.11
638.051	11647.14
638.244	11585.7
638.438	11491.49
638.632	11466.92
638.825	11456.68
639.019	11479.21
639.212	11225.26
639.406	11227.31
639.599	11188.39
639.793	11083.95
639.986	11022.51
640.18	11045.04
640.373	11071.66
640.567	10639.54
640.76	11045.04
640.954	10483.89
641.147	10682.55
641.34	10700.98
641.534	10389.69
641.727	10512.56
641.92	10547.38
642.114	10541.24
642.307	10449.08
642.5	10420.41
642.694	10231.99
642.887	10258.62
643.08	10188.99
643.273	10162.36
643.467	9959.61
643.66	9900.22
643.853	9838.78
644.046	9613.51
644.239	9814.21
644.432	9773.25
644.626	9623.75
644.819	9722.05
645.012	9543.88
645.205	9488.58
645.398	9502.92
645.591	9289.93
645.784	9398.47
645.977	9255.11
646.17	8986.83
646.363	9158.86
646.556	9048.27
646.749	9001.16
646.942	8997.07
647.135	9060.56
647.328	8765.65
647.521	8915.15
647.714	8790.22
647.907	8483.03
648.099	8937.68
648.292	8679.63
648.485	8663.25
648.678	8343.77
648.871	8394.97
649.064	8540.37
649.256	8466.64
649.449	8362.2
649.642	8210.65
649.835	8253.66
650.027	8247.51
650.22	8214.74
650.413	7950.56
650.605	8175.83
650.798	7919.84
650.991	7745.76
651.183	7985.37
651.376	7872.73
651.568	7839.97
651.761	7739.62
651.954	7602.4
652.146	7739.62
652.339	7600.35
652.531	7512.29
652.724	7487.72
652.916	7405.8
653.109	7532.77
653.301	7581.92
653.494	7502.05
653.686	7311.59
653.879	7448.8
654.071	7223.53
654.263	7244.01
654.456	7340.26
654.648	7100.65
654.84	7074.03
655.033	7039.21
655.225	6961.39
655.417	6971.63
655.61	6953.2
655.802	6977.77
655.994	6869.23
656.186	6641.9
656.379	6713.58
656.571	6619.38
656.763	6539.51
656.955	6566.13
657.148	6557.94
657.34	6574.32
657.532	6349.04
657.724	6568.18
657.916	6353.14
658.108	6316.28
658.3	6590.7
658.492	6217.97
658.684	6119.67
658.876	6162.68
659.068	6088.95
659.26	6119.67
659.452	6230.26
659.644	6076.66
659.836	5916.92
660.028	5927.16
660.22	5847.29
660.412	5777.66
660.604	5941.5
660.796	5789.95
660.988	5824.76
661.18	5658.88
661.372	5576.96
661.563	5617.92
661.755	5593.34
661.947	5429.51
662.139	5306.63
662.331	5505.28
662.522	5441.79
662.714	5306.63
662.906	5292.29
663.097	5380.36
663.289	5484.8
663.481	5067.02
663.673	5159.17
663.864	5159.17
664.056	5196.04
664.247	5169.41
664.439	5024.01
664.631	5128.46
664.822	5030.15
665.014	4884.75
665.205	4964.62
665.397	4940.04
665.588	4849.93
665.78	4866.32
665.971	4749.58
666.163	4632.85
666.354	4651.28
666.546	4669.71
666.737	4675.85
666.929	4454.67
667.12	4606.22
667.311	4563.22
667.503	4430.1
667.694	4489.49
667.885	4421.91
668.077	4356.37
668.268	4311.32
668.459	4327.7
668.651	4348.18
668.842	4227.35
669.033	4315.41
669.224	4288.79
669.416	4206.87
669.607	4288.79
669.798	4151.57
669.989	4208.92
670.18	4028.7
670.371	3971.35
670.563	4006.17
670.754	3957.02
670.945	3836.19
671.136	4036.89
671.327	3938.59
671.518	3819.8
671.709	3830.04
671.9	3885.34
672.091	3834.14
672.282	3789.08
672.473	3885.34
672.664	3871
672.855	3698.97
673.046	3764.51
673.237	3672.35
673.428	3807.52
673.619	3619.1
673.809	3670.3
674	3543.33
674.191	3692.83
674.382	3676.45
674.573	3694.88
674.764	3645.73
674.954	3545.38
675.145	3551.52
675.336	3512.61
675.527	3451.17
675.717	3555.62
675.908	3377.44
676.099	3537.18
676.289	3322.15
676.48	3363.11
676.671	3213.6
676.861	3318.05
677.052	3365.15
677.243	3270.95
677.433	3346.72
677.624	3232.04
677.814	3258.66
678.005	3342.63
678.195	3391.78
678.386	3158.31
678.576	3119.4
678.767	3186.98
678.957	3219.75
679.148	3125.54
679.338	3178.79
679.529	3227.94
679.719	3234.08
679.909	3031.34
680.1	3105.06
680.29	2992.42
680.481	3057.96
680.671	3082.53
680.861	2976.04
681.052	3047.72
681.242	3033.38
681.432	3098.92
681.622	3055.91
681.813	2984.23
682.003	3039.53
682.193	2998.57
682.383	3072.29
682.573	2967.85
682.764	2935.08
682.954	2933.03
683.144	2996.52
683.334	2992.42
683.524	2980.14
683.714	3035.43
683.904	2771.24
684.094	2857.26
684.284	2926.89
684.474	2869.55
684.664	2906.41
684.854	2898.22
685.044	2906.41
685.234	2814.25
685.424	2890.03
685.614	2853.16
685.804	2933.03
685.994	2916.65
686.184	2951.46
686.374	2834.73
686.564	2730.28
686.753	2998.57
686.943	2840.87
687.133	2779.43
687.323	2795.82
687.513	2808.11
687.702	2890.03
687.892	2822.44
688.082	2787.63
688.272	2812.2
688.461	2689.32
688.651	2816.3
688.841	2672.94
689.03	2728.24
689.22	2791.72
689.41	2849.07
689.599	2713.9
689.789	2752.81
689.979	2836.78
690.168	2660.65
690.358	2763.05
690.547	2771.24
690.737	2644.27
690.926	2677.04
691.116	2763.05
691.305	2750.76
691.495	2670.89
691.684	2734.38
691.874	2705.71
692.063	2687.28
692.252	2658.6
692.442	2709.8
692.631	2718
692.82	2724.14
693.01	2703.66
693.199	2527.53
693.388	2631.98
693.578	2691.37
693.767	2654.51
693.956	2648.36
694.146	2636.08
694.335	2603.31
694.524	2556.21
694.713	2531.63
694.902	2644.27
695.092	2644.27
695.281	2582.83
695.47	2605.36
695.659	2500.91
695.848	2486.58
696.037	2492.72
696.226	2564.4
696.415	2648.36
696.604	2470.19
696.793	2437.42
696.982	2545.97
697.171	2412.85
697.36	2468.14
697.549	2488.62
697.738	2502.96
697.927	2367.79
698.116	2242.87
698.305	2378.03
698.494	2351.41
698.683	2378.03
698.872	2459.95
699.061	2392.37
699.25	2441.52
699.438	2337.07
699.627	2310.45
699.816	2437.42
700.005	2408.75
700.193	2320.69
700.382	2337.07
700.571	2289.97
700.76	2281.78
700.948	2324.79
701.137	2326.83
701.326	2212.15
701.514	2345.27
701.703	2330.93
701.892	2277.68
702.08	2261.3
702.269	2302.26
702.457	2179.38
702.646	2156.85
702.834	2122.04
703.023	2146.61
703.212	2105.65
703.4	2146.61
703.589	2244.92
703.777	2119.99
703.965	2091.32
704.154	2142.52
704.342	2183.48
704.531	2097.46
704.719	2011.45
704.907	2097.46
705.096	2009.4
705.284	2040.12
705.472	2046.26
705.661	2033.97
705.849	1947.96
706.037	2042.17
706.226	1958.2
706.414	1997.11
706.602	1974.58
706.79	1976.63
706.979	1999.16
707.167	1970.49
707.355	1880.38
707.543	1894.71
707.731	2025.78
707.919	2005.3
708.107	1925.43
708.296	1909.05
708.484	1890.62
708.672	1958.2
708.86	1796.41
709.048	1876.28
709.236	1853.75
709.424	1943.86
709.612	1816.89
709.8	1911.1
709.988	1845.56
710.176	1790.27
710.364	1816.89
710.551	1661.24
710.739	1820.99
710.927	1780.03
711.115	1720.64
711.303	1855.8
711.491	1706.3
711.679	1700.16
711.866	1743.16
712.054	1734.97
712.242	1726.78
712.43	1636.67
712.617	1616.19
712.805	1704.25
712.993	1642.81
713.181	1663.29
713.368	1700.16
713.556	1702.2
713.744	1554.75
713.931	1630.52
714.119	1546.56
714.306	1608
714.494	1636.67
714.682	1503.55
714.869	1579.33
715.057	1454.4
715.244	1517.89
715.432	1581.37
715.619	1497.41
715.807	1524.03
715.994	1536.32
716.182	1552.7
716.369	1517.89
716.556	1470.78
716.744	1628.48
716.931	1429.82
717.119	1456.45
717.306	1429.82
717.493	1466.69
717.681	1407.3
717.868	1431.87
718.055	1450.3
718.242	1319.23
718.43	1526.08
718.617	1343.81
718.804	1491.26
718.991	1382.72
719.179	1419.58
719.366	1384.77
719.553	1337.66
719.74	1364.29
719.927	1290.56
720.114	1403.2
720.301	1354.05
720.488	1243.46
720.676	1331.52
720.863	1239.36
721.05	1392.96
721.237	1253.7
721.424	1296.71
721.611	1235.27
721.798	1253.7
721.985	1319.23
722.172	1212.74
722.358	1222.98
722.545	1214.79
722.732	1284.42
722.919	1251.65
723.106	1190.21
723.293	1237.31
723.48	1177.92
723.667	1141.06
723.853	1188.16
724.04	1163.59
724.227	1225.03
724.414	1177.92
724.6	1188.16
724.787	1118.53
724.974	1155.4
725.161	1028.42
725.347	1190.21
725.534	1145.16
725.72	1104.2
725.907	1073.48
726.094	1134.92
726.28	1057.09
726.467	1104.2
726.653	1032.52
726.84	1171.78
727.027	1085.76
727.213	1163.59
727.4	1034.57
727.586	1108.29
727.773	1091.91
727.959	1016.13
728.145	1063.24
728.332	1020.23
728.518	1055.05
728.705	1032.52
728.891	1067.33
729.077	909.64
729.264	991.56
729.45	1057.09
729.636	1030.47
729.823	1067.33
730.009	897.35
730.195	952.65
730.382	1036.61
730.568	938.31
730.754	1042.76
730.94	899.4
731.126	1040.71
731.313	934.22
731.499	987.46
731.685	973.13
731.871	909.64
732.057	987.46
732.243	969.03
732.429	971.08
732.615	954.69
732.801	835.91
732.987	905.54
733.173	919.88
733.359	870.73
733.545	874.82
733.731	944.45
733.917	940.36
734.103	895.3
734.289	893.26
734.475	856.39
734.661	878.92
734.847	901.45
735.033	807.24
735.219	893.26
735.404	868.68
735.59	792.91
735.776	784.71
735.962	852.3
736.148	856.39
736.333	905.54
736.519	874.82
736.705	807.24
736.89	786.76
737.076	719.18
737.262	848.2
737.447	733.51
737.633	782.67
737.819	753.99
738.004	776.52
738.19	780.62
738.375	790.86
738.561	764.23
738.747	760.14
738.932	694.6
739.118	803.15
739.303	772.43
739.489	792.91
739.674	727.37
739.859	661.84
740.045	680.27
740.23	708.94
740.416	758.09
740.601	772.43
740.786	801.1
740.972	706.89
741.157	667.98
741.342	733.51
741.528	647.5
741.713	749.9
741.898	676.17
742.084	655.69
742.269	692.55
742.454	645.45
742.639	670.03
742.824	637.26
743.01	747.85
743.195	684.36
743.38	657.74
743.565	721.23
743.75	653.64
743.935	624.97
744.12	616.78
744.305	688.46
744.49	643.4
744.675	678.22
744.86	588.11
745.045	592.2
745.23	647.5
745.415	643.4
745.6	653.64
745.785	604.49
745.97	624.97
746.155	674.12
746.34	528.72
746.525	573.77
746.71	516.43
746.895	538.96
747.079	547.15
747.264	651.6
747.449	590.16
747.634	491.85
747.819	571.72
748.003	579.92
748.188	481.61
748.373	545.1
748.557	543.05
748.742	637.26
748.927	555.34
749.111	561.48
749.296	528.72
749.481	512.33
749.665	590.16
749.85	532.81
750.034	510.29
750.219	598.35
750.404	454.99
750.588	596.3
750.773	534.86
750.957	475.47
751.141	514.38
751.326	483.66
751.51	473.42
751.695	543.05
751.879	452.94
752.064	516.43
752.248	457.04
752.432	541.01
752.617	506.19
752.801	477.52
752.985	457.04
753.17	473.42
753.354	483.66
753.538	518.48
753.722	463.18
753.907	407.89
754.091	428.37
754.275	508.24
754.459	473.42
754.643	459.09
754.828	559.44
755.012	444.75
755.196	387.41
755.38	393.55
755.564	409.94
755.748	403.79
755.932	368.98
756.116	418.13
756.3	373.07
756.484	356.69
756.668	444.75
756.852	377.17
757.036	395.6
757.22	475.47
757.404	342.35
757.588	424.27
757.772	454.99
757.956	444.75
758.14	340.3
758.323	397.65
758.507	375.12
758.691	377.17
758.875	387.41
759.059	454.99
759.242	399.7
759.426	364.88
759.61	450.89
759.794	352.59
759.977	416.08
760.161	424.27
760.345	407.89
760.528	434.51
760.712	377.17
760.895	366.93
761.079	368.98
761.263	358.74
761.446	342.35
761.63	344.4
761.813	325.97
761.997	301.39
762.18	457.04
762.364	338.26
762.547	332.11
762.731	383.31
762.914	368.98
763.098	393.55
763.281	203.09
763.464	362.83
763.648	391.5
763.831	342.35
764.015	381.26
764.198	366.93
764.381	323.92
764.564	418.13
764.748	381.26
764.931	352.59
765.114	354.64
765.297	350.54
765.481	395.6
765.664	416.08
765.847	332.11
766.03	354.64
766.213	346.45
766.397	274.77
766.58	352.59
766.763	438.61
766.946	332.11
767.129	330.06
767.312	293.2
767.495	317.78
767.678	366.93
767.861	278.87
768.044	328.02
768.227	352.59
768.41	317.78
768.593	389.46
768.776	328.02
768.959	360.78
769.142	323.92
769.324	334.16
769.507	311.63
769.69	295.25
769.873	319.82
770.056	323.92
770.239	315.73
770.421	317.78
770.604	317.78
770.787	321.87
770.97	334.16
771.152	270.67
771.335	364.88
771.518	282.96
771.7	276.82
771.883	285.01
772.066	366.93
772.248	229.71
772.431	293.2
772.613	416.08
772.796	196.95
772.978	309.58
773.161	305.49
773.343	297.3
773.526	180.56
773.708	299.34
773.891	246.1
774.073	293.2
774.256	248.15
774.438	258.39
774.621	248.15
774.803	287.06
774.985	213.33
775.168	366.93
775.35	352.59
775.532	336.21
775.715	178.51
775.897	258.39
776.079	274.77
776.261	235.86
776.444	225.62
776.626	274.77
776.808	299.34
776.99	303.44
777.173	223.57
777.355	274.77
777.537	262.48
777.719	334.16
777.901	235.86
778.083	280.91
778.265	254.29
778.447	305.49
778.629	330.06
778.811	252.24
778.993	235.86
779.175	244.05
779.357	268.63
779.539	174.42
779.721	186.71
779.903	272.72
780.085	266.58
780.267	244.05
780.449	190.8
780.631	215.38
780.812	285.01
780.994	235.86
781.176	221.52
781.358	162.13
781.54	203.09
781.721	166.23
781.903	231.76
782.085	229.71
782.267	166.23
782.448	272.72
782.63	225.62
782.812	227.67
782.993	223.57
783.175	254.29
783.357	198.99
783.538	196.95
783.72	178.51
783.901	237.91
784.083	260.43
784.264	168.27
784.446	129.36
784.627	188.75
784.809	305.49
784.99	219.47
785.172	196.95
785.353	168.27
785.535	201.04
785.716	190.8
785.897	125.27
786.079	201.04
786.26	203.09
786.441	135.51
786.623	219.47
786.804	311.63
786.985	170.32
787.167	133.46
787.348	135.51
787.529	139.6
787.71	235.86
787.891	162.13
788.073	188.75
788.254	198.99
788.435	192.85
788.616	194.9
788.797	242
788.978	145.75
789.159	172.37
789.34	225.62
789.522	104.79
789.703	145.75
789.884	141.65
790.065	143.7
790.246	239.95
790.427	160.08
790.607	139.6
790.788	129.36
790.969	143.7
791.15	227.67
791.331	141.65
791.512	153.94
791.693	117.08
791.874	188.75
792.054	174.42
792.235	172.37
792.416	162.13
792.597	153.94
792.778	182.61
792.958	145.75
793.139	135.51
793.32	180.56
793.5	86.36
793.681	182.61
793.862	137.56
794.042	180.56
794.223	57.68
794.404	180.56
794.584	121.17
794.765	74.07
794.945	96.6
795.126	82.26
795.306	137.56
795.487	137.56
795.667	145.75
795.848	164.18
796.028	155.99
796.209	80.21
796.389	143.7
796.57	112.98
796.75	22.87
796.93	166.23
797.111	246.1
797.291	178.51
797.471	162.13
797.652	104.79
797.832	88.4
798.012	108.88
798.192	121.17
798.373	143.7
798.553	115.03
798.733	65.88
798.913	164.18
799.093	125.27
799.274	133.46
799.454	192.85
799.634	155.99
799.814	90.45
799.994	112.98
800.174	194.9
800.354	57.68
800.534	125.27
800.714	35.16
800.894	88.4
801.074	121.17
801.254	149.84
801.434	80.21
801.614	80.21
801.794	80.21
801.974	309.58
802.154	76.12
802.334	57.68
802.514	162.13
802.693	74.07
802.873	131.41
803.053	112.98
803.233	37.2
803.413	172.37
803.592	127.32
803.772	59.73
803.952	18.77
804.131	51.54
804.311	125.27
804.491	63.83
804.67	108.88
804.85	96.6
805.03	90.45
805.209	108.88
805.389	69.97
805.568	123.22
805.748	76.12
805.928	123.22
806.107	121.17
806.287	104.79
806.466	112.98
806.646	135.51
806.825	53.59
807.004	112.98
807.184	80.21
807.363	127.32
807.543	63.83
807.722	129.36
807.901	135.51
808.081	57.68
808.26	112.98
808.439	57.68
808.619	90.45
808.798	127.32
808.977	121.17
809.156	160.08
809.336	86.36
809.515	127.32
809.694	82.26
809.873	80.21
810.052	63.83
810.231	-24.23
810.411	106.84
810.59	29.01
810.769	33.11
810.948	123.22
811.127	53.59
811.306	47.44
811.485	69.97
811.664	172.37
811.843	41.3
812.022	100.69
812.201	57.68
812.38	78.16
812.559	45.4
812.737	141.65
812.916	33.11
813.095	72.02
813.274	80.21
813.453	65.88
813.632	72.02
813.811	47.44
813.989	10.58
814.168	74.07
814.347	8.53
814.526	147.8
814.704	69.97
814.883	49.49
815.062	26.96
815.24	61.78
815.419	-16.04
815.598	26.96
815.776	8.53
815.955	57.68
816.133	10.58
816.312	115.03
816.49	96.6
816.669	74.07
816.847	82.26
817.026	35.16
817.204	84.31
817.383	76.12
817.561	59.73
817.74	33.11
817.918	69.97
818.097	84.31
818.275	41.3
818.453	90.45
818.632	76.12
818.81	84.31
818.988	33.11
819.167	100.69
819.345	78.16
819.523	74.07
819.701	65.88
819.879	76.12
820.058	76.12
820.236	145.75
820.414	86.36
820.592	47.44
820.77	-26.28
820.948	67.92
821.127	61.78
821.305	41.3
821.483	57.68
821.661	59.73
821.839	43.35
822.017	67.92
822.195	26.96
822.373	98.64
822.551	57.68
822.729	65.88
822.907	80.21
823.085	102.74
823.262	-11.95
823.44	65.88
823.618	6.49
823.796	170.32
823.974	26.96
824.152	41.3
824.329	82.26
824.507	84.31
824.685	86.36
824.863	82.26
825.04	24.92
825.218	43.35
825.396	65.88
825.574	31.06
825.751	33.11
825.929	39.25
826.107	20.82
826.284	67.92
826.462	45.4
826.639	20.82
826.817	63.83
826.994	39.25
827.172	16.73
827.349	33.11
827.527	63.83
827.704	20.82
827.882	37.2
828.059	55.64
828.237	43.35
828.414	133.46
828.591	49.49
828.769	43.35
828.946	47.44
829.124	106.84
829.301	65.88
829.478	43.35
829.655	49.49
829.833	76.12
830.01	61.78
830.187	16.73
830.364	72.02
830.542	29.01
830.719	80.21
830.896	100.69
831.073	153.94
831.25	59.73
831.427	49.49
831.604	104.79
831.782	-5.8
831.959	74.07
832.136	49.49
832.313	47.44
832.49	65.88
832.667	72.02
832.844	20.82
833.021	127.32
833.198	0.34
833.374	80.21
833.551	14.68
833.728	96.6
833.905	100.69
834.082	72.02
834.259	26.96
834.436	14.68
834.612	72.02
834.789	55.64
834.966	82.26
835.143	74.07
835.319	69.97
835.496	31.06
835.673	72.02
835.85	37.2
836.026	-1.71
836.203	39.25
836.38	-32.43
836.556	67.92
836.733	67.92
836.909	82.26
837.086	26.96
837.262	57.68
837.439	33.11
837.616	63.83
837.792	26.96
837.968	49.49
838.145	-24.23
838.321	22.87
838.498	-20.14
838.674	94.55
838.851	31.06
839.027	72.02
839.203	16.73
839.38	104.79
839.556	29.01
839.732	104.79
839.909	0.34
840.085	100.69
840.261	135.51
840.437	-7.85
840.614	31.06
840.79	78.16
840.966	65.88
841.142	-11.95
841.318	35.16
841.494	96.6
841.671	14.68
841.847	-38.57
842.023	41.3
842.199	26.96
842.375	22.87
842.551	88.4
842.727	-24.23
842.903	90.45
843.079	80.21
843.255	69.97
843.431	90.45
843.607	53.59
843.783	53.59
843.959	69.97
844.134	-36.52
844.31	63.83
844.486	16.73
844.662	24.92
844.838	-34.47
845.013	65.88
845.189	59.73
845.365	22.87
845.541	26.96
845.716	94.55
845.892	67.92
846.068	84.31
846.244	-7.85
846.419	76.12
846.595	-3.75
846.77	14.68
846.946	-7.85
847.122	110.93
847.297	51.54
847.473	14.68
847.648	35.16
847.824	47.44
847.999	4.44
848.175	45.4
848.35	-13.99
848.526	104.79
848.701	86.36
848.876	47.44
849.052	65.88
849.227	18.77
849.403	41.3
849.578	45.4
849.753	10.58
849.929	22.87
850.104	-48.81
850.279	2.39
850.454	59.73
850.63	24.92
850.805	88.4
850.98	82.26
851.155	61.78
851.33	69.97
851.505	-7.85
851.681	39.25
851.856	45.4
852.031	-5.8
852.206	72.02
852.381	43.35
852.556	76.12
852.731	-42.67
852.906	84.31
853.081	129.36
853.256	125.27
853.431	37.2
853.606	47.44
853.781	57.68
853.956	-24.23
854.131	69.97
854.305	59.73
854.48	51.54
854.655	-40.62
854.83	-36.52
855.005	20.82
855.18	4.44
855.354	94.55
855.529	63.83
855.704	-65.19
855.879	47.44
856.053	-32.43
856.228	14.68
856.403	14.68
856.577	8.53
856.752	94.55
856.926	-3.75
857.101	59.73
857.276	8.53
857.45	47.44
857.625	59.73
857.799	43.35
857.974	47.44
858.148	16.73
858.323	-26.28
858.497	12.63
858.672	53.59
858.846	82.26
859.02	88.4
859.195	10.58
859.369	47.44
859.543	14.68
859.718	59.73
859.892	72.02
860.066	26.96
860.241	-16.04
860.415	18.77
860.589	-3.75
860.763	-48.81
860.938	31.06
861.112	26.96
861.286	61.78
861.46	72.02
861.634	31.06
861.808	67.92
861.982	31.06
862.157	26.96
862.331	37.2
862.505	22.87
862.679	-46.76
862.853	4.44
863.027	57.68
863.201	98.64
863.375	67.92
863.549	63.83
863.722	63.83
863.896	10.58
864.07	-9.9
864.244	10.58
864.418	98.64
864.592	102.74
864.766	37.2
864.939	-1.71
865.113	12.63
865.287	8.53
865.461	24.92
865.634	37.2
865.808	82.26
865.982	45.4
866.156	-38.57
866.329	0.34
866.503	-1.71
866.676	12.63
866.85	2.39
867.024	-81.58
867.197	-30.38
867.371	80.21
867.544	8.53
867.718	63.83
867.891	-16.04
868.065	39.25
868.238	49.49
868.412	96.6
868.585	39.25
868.759	24.92
868.932	-9.9
869.105	55.64
869.279	4.44
869.452	10.58
869.625	94.55
869.799	43.35
869.972	72.02
870.145	-5.8
870.319	16.73
870.492	6.49
870.665	-5.8
870.838	43.35
871.011	33.11
871.185	14.68
871.358	59.73
871.531	29.01
871.704	59.73
871.877	-36.52
872.05	0.34
872.223	-44.71
872.396	31.06
872.569	55.64
872.742	0.34
872.915	-26.28
873.088	61.78
873.261	-30.38
873.434	39.25
873.607	76.12
873.78	33.11
873.953	31.06
874.126	49.49
874.299	10.58
874.471	43.35
874.644	41.3
874.817	22.87
874.99	41.3
875.163	-9.9
875.335	31.06
875.508	-1.71
875.681	-7.85
875.853	20.82
876.026	59.73
876.199	33.11
876.371	0.34
876.544	-9.9
876.717	69.97
876.889	20.82
877.062	63.83
877.234	39.25
877.407	47.44
877.579	76.12
877.752	41.3
877.924	39.25
878.097	-81.58
878.269	16.73
878.442	22.87
878.614	-1.71
878.786	84.31
878.959	24.92
879.131	67.92
879.303	2.39
879.476	39.25
879.648	43.35
879.82	4.44
879.993	51.54
880.165	49.49
880.337	18.77
880.509	14.68
880.681	16.73
880.854	-38.57
881.026	-38.57
881.198	43.35
881.37	-7.85
881.542	61.78
881.714	-20.14
881.886	12.63
882.058	59.73
882.23	-7.85
882.402	-40.62
882.574	-48.81
882.746	53.59
882.918	69.97
883.09	16.73
883.262	24.92
883.434	6.49
883.606	4.44
883.778	-20.14
883.95	69.97
884.122	29.01
884.293	41.3
884.465	24.92
884.637	-28.33
884.809	-42.67
884.98	59.73
885.152	59.73
885.324	49.49
885.496	-7.85
885.667	-7.85
885.839	-42.67
886.011	22.87
886.182	24.92
886.354	57.68
886.525	8.53
886.697	6.49
886.869	63.83
887.04	-22.19
887.212	-7.85
887.383	-13.99
887.555	-3.75
887.726	-32.43
887.897	41.3
888.069	33.11
888.24	43.35
888.412	8.53
888.583	26.96
888.754	29.01
888.926	-34.47
889.097	-34.47
889.268	31.06
889.44	24.92
889.611	20.82
889.782	31.06
889.953	12.63
890.125	22.87
890.296	-59.05
890.467	8.53
890.638	22.87
890.809	53.59
890.98	59.73
891.151	45.4
891.323	61.78
891.494	-16.04
891.665	4.44
891.836	31.06
892.007	55.64
892.178	39.25
892.349	67.92
892.52	-1.71
892.691	-11.95
892.862	37.2
893.032	39.25
893.203	10.58
893.374	6.49
893.545	24.92
893.716	-1.71
893.887	16.73
894.057	-28.33
894.228	51.54
894.399	57.68
894.57	88.4
894.74	-13.99
894.911	76.12
895.082	37.2
895.253	37.2
895.423	16.73
895.594	35.16
895.764	4.44
895.935	0.34
896.106	-54.95
896.276	6.49
896.447	80.21
896.617	10.58
896.788	22.87
896.958	96.6
897.129	-20.14
897.299	26.96
897.47	162.13
897.64	45.4
897.81	-44.71
897.981	63.83
898.151	-46.76
898.322	74.07
898.492	29.01
898.662	8.53
898.832	-9.9
899.003	-3.75
899.173	37.2
899.343	14.68
899.513	0.34
