Data from USB4F104151__46__12-53-54-534.txt Node

Date: Fri Mar 14 12:53:54 EDT 2025
User: louis
Spectrometer: USB4F10415
Trigger mode: 4
Integration Time (sec): 1.000000E-2
Scans to average: 1
Electric dark correction enabled: true
Nonlinearity correction enabled: false
Boxcar width: 0
XAxis mode: Wavelengths
Number of Pixels in Spectrum: 3648
>>>>>Begin Spectral Data<<<<<
178.204	-18.77
178.424	-18.77
178.644	-18.77
178.864	-39.25
179.084	-22.87
179.304	13.99
179.524	-6.49
179.744	-22.87
179.964	5.8
180.184	22.19
180.404	-29.01
180.624	-20.82
180.844	7.85
181.064	-39.25
181.283	54.95
181.503	7.85
181.723	5.8
181.943	16.04
182.163	73.39
182.383	-16.73
182.602	22.19
182.822	67.24
183.042	-24.92
183.262	-16.73
183.482	-37.2
183.701	34.47
183.921	24.23
184.141	75.43
184.361	-22.87
184.58	40.62
184.8	3.75
185.02	20.14
185.239	48.81
185.459	38.57
185.679	-29.01
185.898	-20.82
186.118	26.28
186.338	-2.39
186.557	-41.3
186.777	18.09
186.997	9.9
187.216	-47.44
187.436	54.95
187.655	28.33
187.875	61.1
188.095	36.52
188.314	85.67
188.534	48.81
188.753	-18.77
188.973	-16.73
189.192	22.19
189.412	-102.74
189.631	7.85
189.851	-43.35
190.07	32.43
190.29	36.52
190.509	112.3
190.729	-16.73
190.948	30.38
191.168	48.81
191.387	-6.49
191.607	36.52
191.826	46.76
192.045	-72.02
192.265	9.9
192.484	-43.35
192.704	22.19
192.923	7.85
193.142	3.75
193.362	28.33
193.581	3.75
193.8	-16.73
194.02	5.8
194.239	48.81
194.458	-6.49
194.678	-14.68
194.897	24.23
195.116	44.71
195.335	1.71
195.555	42.67
195.774	59.05
195.993	11.95
196.212	69.29
196.432	22.19
196.651	1.71
196.87	18.09
197.089	-2.39
197.308	-16.73
197.528	79.53
197.747	-51.54
197.966	44.71
198.185	-4.44
198.404	30.38
198.623	-10.58
198.842	-47.44
199.062	-14.68
199.281	3.75
199.5	36.52
199.719	20.14
199.938	83.63
200.157	18.09
200.376	32.43
200.595	36.52
200.814	-20.82
201.033	-22.87
201.252	-47.44
201.471	16.04
201.69	28.33
201.909	1.71
202.128	5.8
202.347	59.05
202.566	30.38
202.785	-43.35
203.004	24.23
203.223	54.95
203.442	24.23
203.661	69.29
203.879	77.48
204.098	26.28
204.317	26.28
204.536	36.52
204.755	-10.58
204.974	-12.63
205.193	38.57
205.411	40.62
205.63	42.67
205.849	11.95
206.068	-29.01
206.287	87.72
206.505	16.04
206.724	-61.78
206.943	1.71
207.162	28.33
207.381	1.71
207.599	1.71
207.818	-18.77
208.037	-72.02
208.255	1.71
208.474	85.67
208.693	-45.4
208.911	9.9
209.13	20.14
209.349	22.19
209.567	102.06
209.786	26.28
210.005	24.23
210.223	93.87
210.442	24.23
210.661	93.87
210.879	5.8
211.098	-8.53
211.316	63.15
211.535	36.52
211.753	50.86
211.972	20.14
212.191	-12.63
212.409	16.04
212.628	-39.25
212.846	50.86
213.065	32.43
213.283	36.52
213.502	-20.82
213.72	-10.58
213.938	-8.53
214.157	13.99
214.375	46.76
214.594	11.95
214.812	20.14
215.031	38.57
215.249	30.38
215.467	34.47
215.686	20.14
215.904	61.1
216.122	-33.11
216.341	-10.58
216.559	20.14
216.778	-4.44
216.996	124.58
217.214	36.52
217.432	-18.77
217.651	24.23
217.869	-20.82
218.087	71.34
218.306	11.95
218.524	81.58
218.742	28.33
218.96	1.71
219.179	-12.63
219.397	7.85
219.615	59.05
219.833	42.67
220.051	-12.63
220.27	1.71
220.488	40.62
220.706	-10.58
220.924	-4.44
221.142	-59.73
221.36	77.48
221.578	36.52
221.796	22.19
222.015	28.33
222.233	9.9
222.451	30.38
222.669	-24.92
222.887	-55.64
223.105	-51.54
223.323	9.9
223.541	-47.44
223.759	67.24
223.977	-31.06
224.195	9.9
224.413	26.28
224.631	65.19
224.849	3.75
225.067	11.95
225.285	-4.44
225.503	52.91
225.721	-24.92
225.939	65.19
226.157	-26.96
226.375	-4.44
226.592	79.53
226.81	22.19
227.028	7.85
227.246	24.23
227.464	30.38
227.682	-2.39
227.9	52.91
228.117	11.95
228.335	44.71
228.553	-26.96
228.771	40.62
228.989	3.75
229.206	36.52
229.424	46.76
229.642	30.38
229.86	-18.77
230.077	11.95
230.295	24.23
230.513	73.39
230.731	110.25
230.948	9.9
231.166	-0.34
231.384	9.9
231.601	48.81
231.819	28.33
232.037	1.71
232.254	26.28
232.472	28.33
232.689	-10.58
232.907	20.14
233.125	-57.68
233.342	28.33
233.56	52.91
233.777	36.52
233.995	42.67
234.213	95.91
234.43	-16.73
234.648	-2.39
234.865	-0.34
235.083	-2.39
235.3	-59.73
235.518	57
235.735	36.52
235.953	11.95
236.17	13.99
236.388	-31.06
236.605	-10.58
236.822	9.9
237.04	50.86
237.257	-20.82
237.475	-8.53
237.692	54.95
237.909	22.19
238.127	-63.83
238.344	-14.68
238.562	30.38
238.779	44.71
238.996	9.9
239.214	-14.68
239.431	79.53
239.648	9.9
239.865	22.19
240.083	-18.77
240.3	57
240.517	5.8
240.735	5.8
240.952	-8.53
241.169	3.75
241.386	16.04
241.603	44.71
241.821	24.23
242.038	57
242.255	30.38
242.472	-12.63
242.689	3.75
242.907	100.01
243.124	52.91
243.341	34.47
243.558	-4.44
243.775	-51.54
243.992	-0.34
244.209	11.95
244.426	-22.87
244.643	26.28
244.86	50.86
245.078	-37.2
245.295	-37.2
245.512	48.81
245.729	13.99
245.946	9.9
246.163	57
246.38	30.38
246.597	-43.35
246.814	26.28
247.031	-4.44
247.248	-2.39
247.464	-26.96
247.681	44.71
247.898	9.9
248.115	5.8
248.332	-16.73
248.549	71.34
248.766	-0.34
248.983	7.85
249.2	30.38
249.417	9.9
249.633	-12.63
249.85	79.53
250.067	36.52
250.284	-4.44
250.501	54.95
250.717	-12.63
250.934	7.85
251.151	13.99
251.368	-74.07
251.585	3.75
251.801	18.09
252.018	-16.73
252.235	24.23
252.451	22.19
252.668	1.71
252.885	11.95
253.102	83.63
253.318	-57.68
253.535	11.95
253.752	11.95
253.968	-29.01
254.185	48.81
254.401	-29.01
254.618	40.62
254.835	-31.06
255.051	-2.39
255.268	44.71
255.484	18.09
255.701	16.04
255.917	28.33
256.134	46.76
256.351	34.47
256.567	16.04
256.784	-0.34
257	-22.87
257.217	18.09
257.433	-29.01
257.65	83.63
257.866	52.91
258.082	3.75
258.299	5.8
258.515	50.86
258.732	-22.87
258.948	-22.87
259.165	-8.53
259.381	-78.16
259.597	28.33
259.814	5.8
260.03	20.14
260.246	18.09
260.463	-10.58
260.679	40.62
260.895	-14.68
261.112	-31.06
261.328	100.01
261.544	-6.49
261.761	42.67
261.977	-6.49
262.193	26.28
262.409	22.19
262.626	-6.49
262.842	11.95
263.058	52.91
263.274	-16.73
263.49	22.19
263.707	48.81
263.923	-33.11
264.139	9.9
264.355	-20.82
264.571	-31.06
264.787	26.28
265.004	1.71
265.22	38.57
265.436	-22.87
265.652	-24.92
265.868	3.75
266.084	34.47
266.3	42.67
266.516	-35.16
266.732	38.57
266.948	-24.92
267.164	-20.82
267.38	9.9
267.596	-12.63
267.812	-4.44
268.028	-31.06
268.244	18.09
268.46	-2.39
268.676	18.09
268.892	18.09
269.108	24.23
269.324	-20.82
269.54	-31.06
269.756	-2.39
269.972	106.15
270.188	87.72
270.403	52.91
270.619	48.81
270.835	1.71
271.051	7.85
271.267	-14.68
271.483	-59.73
271.698	-41.3
271.914	42.67
272.13	-18.77
272.346	54.95
272.562	34.47
272.777	22.19
272.993	5.8
273.209	71.34
273.425	59.05
273.64	-22.87
273.856	20.14
274.072	-2.39
274.287	5.8
274.503	-6.49
274.719	57
274.934	36.52
275.15	-12.63
275.366	-18.77
275.581	59.05
275.797	-18.77
276.012	22.19
276.228	61.1
276.444	7.85
276.659	1.71
276.875	30.38
277.09	18.09
277.306	54.95
277.521	52.91
277.737	81.58
277.952	22.19
278.168	13.99
278.383	46.76
278.599	24.23
278.814	22.19
279.03	18.09
279.245	61.1
279.461	-4.44
279.676	3.75
279.892	1.71
280.107	26.28
280.322	1.71
280.538	-18.77
280.753	-31.06
280.969	20.14
281.184	22.19
281.399	22.19
281.615	34.47
281.83	52.91
282.045	-22.87
282.26	-4.44
282.476	46.76
282.691	11.95
282.906	28.33
283.122	-63.83
283.337	36.52
283.552	26.28
283.767	11.95
283.983	59.05
284.198	-45.4
284.413	20.14
284.628	-35.16
284.843	32.43
285.058	-16.73
285.274	16.04
285.489	-14.68
285.704	20.14
285.919	48.81
286.134	34.47
286.349	-31.06
286.564	30.38
286.779	75.43
286.995	13.99
287.21	34.47
287.425	69.29
287.64	63.15
287.855	-18.77
288.07	-63.83
288.285	20.14
288.5	3.75
288.715	-22.87
288.93	67.24
289.145	-24.92
289.36	54.95
289.575	87.72
289.79	7.85
290.004	3.75
290.219	102.06
290.434	-51.54
290.649	95.91
290.864	20.14
291.079	-59.73
291.294	-74.07
291.509	11.95
291.724	-61.78
291.938	71.34
292.153	-31.06
292.368	50.86
292.583	59.05
292.798	-10.58
293.012	36.52
293.227	-63.83
293.442	44.71
293.657	-35.16
293.871	44.71
294.086	-33.11
294.301	30.38
294.516	-2.39
294.73	46.76
294.945	-0.34
295.16	44.71
295.374	-2.39
295.589	-24.92
295.804	-26.96
296.018	5.8
296.233	16.04
296.447	22.19
296.662	48.81
296.877	-2.39
297.091	9.9
297.306	9.9
297.52	5.8
297.735	50.86
297.949	5.8
298.164	77.48
298.378	18.09
298.593	11.95
298.807	91.82
299.022	-6.49
299.236	-12.63
299.451	-57.68
299.665	5.8
299.88	73.39
300.094	38.57
300.309	32.43
300.523	20.14
300.737	5.8
300.952	11.95
301.166	7.85
301.381	-45.4
301.595	59.05
301.809	32.43
302.024	46.76
302.238	-2.39
302.452	79.53
302.667	93.87
302.881	20.14
303.095	-8.53
303.309	7.85
303.524	11.95
303.738	40.62
303.952	22.19
304.166	44.71
304.381	-31.06
304.595	-29.01
304.809	9.9
305.023	63.15
305.237	73.39
305.452	-14.68
305.666	13.99
305.88	38.57
306.094	3.75
306.308	-4.44
306.522	24.23
306.736	-31.06
306.95	-14.68
307.164	38.57
307.379	-0.34
307.593	61.1
307.807	16.04
308.021	5.8
308.235	-35.16
308.449	26.28
308.663	-2.39
308.877	81.58
309.091	26.28
309.305	40.62
309.519	20.14
309.733	-22.87
309.947	-24.92
310.161	-26.96
310.374	36.52
310.588	-2.39
310.802	-20.82
311.016	67.24
311.23	9.9
311.444	32.43
311.658	-2.39
311.872	16.04
312.085	34.47
312.299	34.47
312.513	40.62
312.727	-14.68
312.941	5.8
313.154	9.9
313.368	-100.69
313.582	20.14
313.796	7.85
314.009	34.47
314.223	-84.31
314.437	69.29
314.651	30.38
314.864	-2.39
315.078	5.8
315.292	-8.53
315.505	-49.49
315.719	-4.44
315.933	34.47
316.146	-18.77
316.36	-74.07
316.573	40.62
316.787	48.81
317.001	-22.87
317.214	20.14
317.428	16.04
317.641	3.75
317.855	-6.49
318.068	-12.63
318.282	-37.2
318.495	-47.44
318.709	50.86
318.922	61.1
319.136	7.85
319.349	-0.34
319.563	3.75
319.776	42.67
319.99	-12.63
320.203	-14.68
320.417	-12.63
320.63	7.85
320.843	38.57
321.057	42.67
321.27	30.38
321.483	36.52
321.697	-31.06
321.91	40.62
322.124	26.28
322.337	30.38
322.55	65.19
322.763	38.57
322.977	3.75
323.19	16.04
323.403	-29.01
323.617	-16.73
323.83	18.09
324.043	16.04
324.256	-24.92
324.469	1.71
324.683	32.43
324.896	67.24
325.109	26.28
325.322	28.33
325.535	77.48
325.748	-14.68
325.962	-20.82
326.175	20.14
326.388	91.82
326.601	52.91
326.814	-8.53
327.027	-31.06
327.24	42.67
327.453	-4.44
327.666	30.38
327.879	28.33
328.092	-24.92
328.305	5.8
328.518	7.85
328.731	3.75
328.944	52.91
329.157	40.62
329.37	34.47
329.583	-6.49
329.796	-24.92
330.009	1.71
330.222	11.95
330.435	59.05
330.648	26.28
330.861	13.99
331.073	1.71
331.286	46.76
331.499	-41.3
331.712	-84.31
331.925	59.05
332.138	89.77
332.35	57
332.563	-24.92
332.776	3.75
332.989	7.85
333.202	-29.01
333.414	38.57
333.627	69.29
333.84	-16.73
334.053	13.99
334.265	26.28
334.478	16.04
334.691	-49.49
334.903	36.52
335.116	-2.39
335.329	50.86
335.541	16.04
335.754	-8.53
335.966	13.99
336.179	9.9
336.392	-0.34
336.604	-43.35
336.817	20.14
337.029	-33.11
337.242	13.99
337.454	-6.49
337.667	-63.83
337.88	110.25
338.092	46.76
338.305	50.86
338.517	-18.77
338.729	-4.44
338.942	28.33
339.154	7.85
339.367	-0.34
339.579	61.1
339.792	-6.49
340.004	36.52
340.217	3.75
340.429	-6.49
340.641	-8.53
340.854	-2.39
341.066	-18.77
341.278	-24.92
341.491	63.15
341.703	-47.44
341.915	61.1
342.128	-35.16
342.34	11.95
342.552	16.04
342.764	7.85
342.977	-14.68
343.189	44.71
343.401	93.87
343.613	-16.73
343.826	-4.44
344.038	38.57
344.25	40.62
344.462	24.23
344.674	32.43
344.886	28.33
345.099	28.33
345.311	30.38
345.523	36.52
345.735	-29.01
345.947	22.19
346.159	-51.54
346.371	-8.53
346.583	9.9
346.795	63.15
347.007	93.87
347.219	-35.16
347.431	-26.96
347.643	48.81
347.855	57
348.067	44.71
348.279	-2.39
348.491	-0.34
348.703	67.24
348.915	-10.58
349.127	1.71
349.339	24.23
349.551	11.95
349.763	83.63
349.975	-20.82
350.187	44.71
350.399	69.29
350.61	77.48
350.822	1.71
351.034	11.95
351.246	22.19
351.458	-4.44
351.669	40.62
351.881	34.47
352.093	32.43
352.305	38.57
352.517	-18.77
352.728	52.91
352.94	75.43
353.152	-31.06
353.363	-18.77
353.575	-29.01
353.787	32.43
353.999	1.71
354.21	71.34
354.422	42.67
354.633	48.81
354.845	-26.96
355.057	52.91
355.268	22.19
355.48	48.81
355.692	13.99
355.903	-2.39
356.115	9.9
356.326	-41.3
356.538	42.67
356.749	-8.53
356.961	26.28
357.172	40.62
357.384	-33.11
357.595	24.23
357.807	71.34
358.018	-22.87
358.23	77.48
358.441	1.71
358.653	9.9
358.864	-37.2
359.075	32.43
359.287	73.39
359.498	46.76
359.709	16.04
359.921	42.67
360.132	34.47
360.344	3.75
360.555	-39.25
360.766	108.2
360.977	100.01
361.189	20.14
361.4	38.57
361.611	-20.82
361.823	85.67
362.034	91.82
362.245	-6.49
362.456	-6.49
362.667	7.85
362.879	59.05
363.09	36.52
363.301	50.86
363.512	-2.39
363.723	46.76
363.935	-18.77
364.146	-16.73
364.357	13.99
364.568	9.9
364.779	-33.11
364.99	13.99
365.201	38.57
365.412	63.15
365.623	18.09
365.834	1.71
366.045	1.71
366.256	-39.25
366.467	22.19
366.678	1.71
366.889	-8.53
367.1	42.67
367.311	3.75
367.522	18.09
367.733	-43.35
367.944	30.38
368.155	40.62
368.366	59.05
368.577	30.38
368.788	30.38
368.999	18.09
369.209	-6.49
369.42	3.75
369.631	61.1
369.842	-12.63
370.053	16.04
370.264	22.19
370.474	61.1
370.685	69.29
370.896	97.96
371.107	-0.34
371.317	36.52
371.528	-4.44
371.739	75.43
371.95	-2.39
372.16	13.99
372.371	57
372.582	16.04
372.792	13.99
373.003	-108.88
373.214	7.85
373.424	16.04
373.635	-47.44
373.846	100.01
374.056	-4.44
374.267	34.47
374.477	67.24
374.688	22.19
374.898	13.99
375.109	-10.58
375.319	30.38
375.53	11.95
375.74	-0.34
375.951	-26.96
376.161	-35.16
376.372	52.91
376.582	-31.06
376.793	89.77
377.003	-14.68
377.214	44.71
377.424	38.57
377.635	100.01
377.845	36.52
378.055	36.52
378.266	9.9
378.476	-43.35
378.686	48.81
378.897	22.19
379.107	46.76
379.317	-12.63
379.528	-22.87
379.738	50.86
379.948	16.04
380.158	13.99
380.369	16.04
380.579	26.28
380.789	-2.39
380.999	48.81
381.21	-29.01
381.42	91.82
381.63	26.28
381.84	63.15
382.05	-26.96
382.261	3.75
382.471	-20.82
382.681	50.86
382.891	-8.53
383.101	54.95
383.311	57
383.521	-29.01
383.731	-35.16
383.941	20.14
384.151	-10.58
384.361	-2.39
384.571	13.99
384.781	42.67
384.991	13.99
385.201	30.38
385.411	118.44
385.621	16.04
385.831	22.19
386.041	24.23
386.251	63.15
386.461	42.67
386.671	3.75
386.881	28.33
387.091	16.04
387.301	65.19
387.511	5.8
387.72	26.28
387.93	5.8
388.14	18.09
388.35	59.05
388.56	-29.01
388.769	-16.73
388.979	-10.58
389.189	-53.59
389.399	-0.34
389.609	126.63
389.818	50.86
390.028	-29.01
390.238	46.76
390.447	61.1
390.657	28.33
390.867	-4.44
391.076	-0.34
391.286	44.71
391.496	34.47
391.705	65.19
391.915	-8.53
392.125	79.53
392.334	11.95
392.544	42.67
392.753	1.71
392.963	46.76
393.172	1.71
393.382	87.72
393.591	65.19
393.801	36.52
394.01	28.33
394.22	67.24
394.429	-18.77
394.639	65.19
394.848	36.52
395.058	28.33
395.267	26.28
395.477	104.11
395.686	11.95
395.895	32.43
396.105	28.33
396.314	5.8
396.524	11.95
396.733	46.76
396.942	120.49
397.152	-18.77
397.361	20.14
397.57	30.38
397.78	65.19
397.989	-10.58
398.198	20.14
398.407	85.67
398.617	71.34
398.826	71.34
399.035	75.43
399.244	104.11
399.453	-6.49
399.663	77.48
399.872	9.9
400.081	32.43
400.29	75.43
400.499	34.47
400.708	26.28
400.917	9.9
401.127	28.33
401.336	40.62
401.545	20.14
401.754	-4.44
401.963	-26.96
402.172	71.34
402.381	-35.16
402.59	124.58
402.799	52.91
403.008	71.34
403.217	13.99
403.426	20.14
403.635	24.23
403.844	93.87
404.053	63.15
404.262	59.05
404.471	-12.63
404.68	87.72
404.888	46.76
405.097	-24.92
405.306	13.99
405.515	32.43
405.724	22.19
405.933	130.73
406.142	52.91
406.35	71.34
406.559	26.28
406.768	20.14
406.977	-6.49
407.185	48.81
407.394	9.9
407.603	46.76
407.812	69.29
408.02	63.15
408.229	128.68
408.438	38.57
408.646	59.05
408.855	106.15
409.064	112.3
409.272	50.86
409.481	85.67
409.69	44.71
409.898	67.24
410.107	91.82
410.315	36.52
410.524	59.05
410.733	155.3
410.941	24.23
411.15	104.11
411.358	91.82
411.567	104.11
411.775	42.67
411.984	120.49
412.192	44.71
412.401	97.96
412.609	153.26
412.818	114.34
413.026	122.54
413.234	183.98
413.443	91.82
413.651	102.06
413.86	128.68
414.068	104.11
414.276	120.49
414.485	89.77
414.693	116.39
414.901	149.16
415.11	163.5
415.318	118.44
415.526	130.73
415.734	77.48
415.943	175.78
416.151	110.25
416.359	79.53
416.567	147.11
416.776	140.97
416.984	186.02
417.192	140.97
417.4	149.16
417.608	161.45
417.817	192.17
418.025	274.09
418.233	239.27
418.441	249.51
418.649	231.08
418.857	155.3
419.065	261.8
419.273	235.18
419.481	208.55
419.689	284.33
419.897	308.9
420.105	272.04
420.313	241.32
420.521	265.89
420.729	235.18
420.937	274.09
421.145	353.96
421.353	308.9
421.561	356.01
421.769	419.49
421.977	368.29
422.185	337.57
422.393	444.07
422.601	458.4
422.809	396.96
423.017	478.88
423.224	323.24
423.432	452.26
423.64	495.27
423.848	489.12
424.056	390.82
424.263	575.14
424.471	446.12
424.679	523.94
424.887	554.66
425.094	554.66
425.302	542.37
425.51	593.57
425.718	640.67
425.925	612
426.133	665.25
426.341	620.19
426.548	665.25
426.756	747.17
426.964	720.54
427.171	728.74
427.379	777.89
427.586	818.85
427.794	845.47
428.001	868
428.209	917.15
428.417	839.33
428.624	994.97
428.832	849.57
429.039	927.39
429.247	1011.36
429.454	1025.69
429.662	1099.42
429.869	1052.31
430.076	1085.08
430.284	1042.07
430.491	1128.09
430.699	1126.04
430.906	1113.75
431.114	1203.86
431.321	1218.2
431.528	1275.54
431.736	1390.23
431.943	1302.17
432.15	1484.44
432.358	1408.66
432.565	1453.72
432.772	1447.57
432.979	1539.73
433.187	1560.21
433.394	1609.36
433.601	1623.7
433.808	1740.43
434.016	1666.71
434.223	1830.54
434.43	1877.65
434.637	1848.97
434.844	1967.76
435.052	1937.04
435.259	1912.46
435.466	2006.67
435.673	1980.04
435.88	2057.87
436.087	2223.75
436.294	2256.52
436.501	2188.94
436.708	2274.95
436.915	2248.33
437.122	2330.25
437.329	2264.71
437.537	2492.04
437.743	2508.42
437.95	2530.95
438.157	2627.2
438.364	2641.54
438.571	2621.06
438.778	2643.59
438.985	2958.97
439.192	2852.48
439.399	2735.74
439.606	2803.33
439.813	3065.47
440.02	3178.11
440.227	3040.89
440.433	3128.95
440.64	3190.39
440.847	3217.02
441.054	3362.42
441.261	3454.58
441.467	3403.38
441.674	3350.14
441.881	3708.53
442.088	3622.52
442.294	3497.59
442.501	3665.52
442.708	3821.17
442.914	4011.63
443.121	4042.35
443.328	4019.82
443.534	4195.95
443.741	3980.91
443.948	4109.93
444.154	4355.69
444.361	4306.54
444.568	4292.2
444.774	4347.5
444.981	4333.16
445.187	4566.63
445.394	4761.19
445.6	4529.77
445.807	5191.26
446.013	4978.27
446.22	4920.93
446.426	5209.69
446.633	5164.64
446.839	5402.2
447.046	5307.99
447.252	5498.45
447.459	5572.18
447.665	5520.98
447.871	5684.82
448.078	5854.8
448.284	5533.27
448.491	5723.73
448.697	5932.62
448.903	6006.35
449.11	6155.85
449.316	6176.33
449.522	6196.81
449.728	6407.75
449.935	6635.08
450.141	6366.79
450.347	6522.44
450.553	6633.03
450.76	6485.58
450.966	6643.27
451.172	6579.78
451.378	6837.83
451.584	6862.4
451.791	6803.01
451.997	6768.2
452.203	7005.76
452.409	6972.99
452.615	6872.64
452.821	6698.56
453.027	6669.89
453.233	6874.69
453.44	6727.24
453.646	6604.36
453.852	6846.02
454.058	6917.7
454.264	6710.85
454.47	6872.64
454.676	6614.6
454.882	6977.09
455.088	6417.99
455.294	6465.1
455.5	6606.41
455.705	6522.44
455.911	6397.51
456.117	6245.96
456.323	6125.13
456.529	5701.2
456.735	6243.92
456.941	5885.52
457.147	5920.34
457.352	5725.78
457.558	5580.37
457.764	5756.5
457.97	5590.61
458.176	5357.14
458.381	5475.93
458.587	5230.17
458.793	5256.79
458.999	4912.74
459.204	5328.47
459.41	5156.44
459.616	4705.89
459.821	4851.3
460.027	4867.68
460.233	4712.03
460.438	4464.23
460.644	4572.77
460.85	4386.41
461.055	4265.58
461.261	4234.86
461.466	4079.21
461.672	3935.85
461.878	4189.8
462.083	3956.33
462.289	3812.98
462.494	3929.71
462.7	3774.07
462.905	3362.42
463.111	3675.76
463.316	3577.46
463.522	3716.72
463.727	3591.8
463.932	3614.32
464.138	3706.48
464.343	3587.7
464.549	3575.41
464.754	3585.65
464.959	3520.12
465.165	3593.84
465.37	3473.01
465.575	3233.4
465.781	3497.59
465.986	3395.19
466.191	3311.22
466.397	3409.53
466.602	3128.95
466.807	3180.15
467.012	3257.98
467.218	3323.51
467.423	3235.45
467.628	3346.04
467.833	3401.33
468.038	3169.91
468.244	3325.56
468.449	3276.41
468.654	3126.91
468.859	3120.76
469.064	3212.92
469.269	3088
469.474	3159.67
469.679	3147.39
469.885	3022.46
470.09	2913.92
470.295	3057.28
470.5	2860.67
470.705	3088
470.91	2993.79
471.115	2903.68
471.32	2881.15
471.525	2946.69
471.73	2893.44
471.935	2739.84
472.139	2788.99
472.344	2760.32
472.549	2838.14
472.754	2797.18
472.959	2670.21
473.164	2576
473.369	2643.59
473.574	2619.01
473.778	2518.66
473.983	2481.8
474.188	2668.16
474.393	2573.96
474.598	2584.2
474.802	2514.56
475.007	2432.65
475.212	2590.34
475.417	2307.72
475.621	2268.81
475.826	2438.79
476.031	2385.54
476.235	2338.44
476.44	2352.77
476.645	2254.47
476.849	2256.52
477.054	2207.37
477.259	2240.14
477.463	2231.94
477.668	2125.45
477.872	2066.06
478.077	2041.48
478.282	2059.92
478.486	2111.11
478.691	2047.63
478.895	2006.67
479.1	1961.61
479.304	2082.44
479.509	2057.87
479.713	1967.76
479.918	1818.25
480.122	1988.24
480.326	2031.24
480.531	1980.04
480.735	1947.28
480.94	1918.61
481.144	1896.08
481.348	1967.76
481.553	1980.04
481.757	1822.35
481.961	1777.3
482.166	1951.37
482.37	1900.17
482.574	1914.51
482.778	1922.7
482.983	1918.61
483.187	1881.74
483.391	1883.79
483.595	1941.13
483.8	1930.89
484.004	1988.24
484.208	1967.76
484.412	1910.41
484.616	2012.81
484.821	1887.89
485.025	1896.08
485.229	1922.7
485.433	1918.61
485.637	1863.31
485.841	2074.25
486.045	1926.8
486.249	1990.28
486.453	1967.76
486.657	1934.99
486.861	1982.09
487.065	1894.03
487.269	1980.04
487.473	2053.77
487.677	2031.24
487.881	2096.78
488.085	2072.2
488.289	2000.52
488.493	1963.66
488.697	2131.59
488.901	2070.16
489.105	2166.41
489.309	2090.63
489.512	2201.23
489.716	1951.37
489.92	2025.1
490.124	2029.2
490.328	2117.26
490.531	2143.88
490.735	2174.6
490.939	2156.17
491.143	2033.29
491.346	2047.63
491.55	2215.56
491.754	2172.55
491.958	2172.55
492.161	2240.14
492.365	2197.13
492.569	2270.86
492.772	2338.44
492.976	2209.42
493.18	2256.52
493.383	2340.49
493.587	2264.71
493.79	2330.25
493.994	2385.54
494.197	2346.63
494.401	2379.4
494.605	2442.89
494.808	2506.37
495.012	2426.5
495.215	2518.66
495.419	2467.46
495.622	2582.15
495.825	2565.76
496.029	2496.13
496.232	2700.93
496.436	2682.5
496.639	2737.79
496.843	2662.02
497.046	2887.29
497.249	2786.94
497.453	2823.81
497.656	2936.45
497.859	2883.2
498.063	2969.21
498.266	2975.36
498.469	2836.1
498.673	3092.09
498.876	3114.62
499.079	3133.05
499.282	3114.62
499.485	3151.48
499.689	3286.65
499.892	3321.46
500.095	3190.39
500.298	3399.29
500.501	3462.77
500.705	3423.86
500.908	3434.1
501.111	3575.41
501.314	3491.45
501.517	3636.85
501.72	3731.06
501.923	3841.65
502.126	3706.48
502.329	4040.3
502.532	4038.25
502.735	3987.05
502.938	4052.59
503.141	3958.38
503.344	4288.11
503.547	4144.75
503.75	4265.58
503.953	4357.74
504.156	4503.14
504.359	4441.7
504.562	4548.2
504.765	4476.52
504.968	4806.24
505.17	4812.39
505.373	4697.7
505.576	4767.33
505.779	4920.93
505.982	4916.83
506.185	5123.68
506.387	5068.38
506.59	5113.44
506.793	5365.34
506.996	5123.68
507.198	5545.56
507.401	5555.8
507.604	5467.74
507.807	5623.38
508.009	5615.19
508.212	5781.07
508.415	5908.05
508.617	5846.61
508.82	5996.11
509.022	5965.39
509.225	6178.38
509.428	6162
509.63	6096.46
509.833	6325.83
510.035	6485.58
510.238	6491.72
510.44	6356.55
510.643	6612.55
510.845	6688.32
511.048	6653.51
511.25	6819.39
511.453	6997.57
511.655	7120.45
511.858	7048.77
512.06	7175.74
512.262	7358.01
512.465	7312.96
512.667	7558.71
512.87	7530.04
513.072	7632.44
513.274	7810.61
513.477	7847.47
513.679	7947.83
513.881	8029.74
514.084	8146.48
514.286	8257.07
514.488	8134.19
514.69	8687.14
514.893	8627.75
515.095	8502.82
515.297	8648.23
515.499	8676.9
515.701	8848.93
515.904	8910.37
516.106	9229.85
516.308	9084.45
516.51	9229.85
516.712	9375.26
516.914	9319.96
517.116	9653.78
517.318	9723.41
517.52	9702.93
517.722	9747.99
517.925	9803.29
518.127	10100.24
518.329	9956.88
518.531	10102.29
518.733	10384.91
518.935	10235.41
519.136	10235.41
519.338	10728.97
519.54	10636.81
519.742	10591.75
519.944	10886.66
520.146	10817.03
520.348	10987.01
520.55	11077.12
520.752	11202.05
520.954	11372.03
521.155	11251.2
521.357	11507.2
521.559	11568.63
521.761	11746.81
521.963	11890.17
522.164	12092.91
522.366	11906.55
522.568	11892.21
522.77	12002.8
522.971	12416.49
523.173	12314.09
523.375	12322.29
523.576	12633.58
523.778	12553.71
523.98	12430.83
524.181	12609
524.383	12905.96
524.584	12922.34
524.786	13116.9
524.988	12961.25
525.189	13071.84
525.391	13430.24
525.592	13207.01
525.794	13329.89
525.995	13485.53
526.197	13571.55
526.398	13553.12
526.6	13757.91
526.801	13651.42
527.003	13682.14
527.204	13714.91
527.406	14077.4
527.607	14089.68
527.808	14050.77
528.01	14132.69
528.211	13915.61
528.412	14249.43
528.614	14208.47
528.815	14527.95
529.016	14519.76
529.218	14417.36
529.419	14446.03
529.62	14335.44
529.822	14411.21
530.023	14601.68
530.224	14558.67
530.425	14687.69
530.626	14474.7
530.828	14495.18
531.029	15005.13
531.23	14837.19
531.431	14677.45
531.632	14826.95
531.833	15007.17
532.035	14964.17
532.236	14853.58
532.437	15091.14
532.638	14898.63
532.839	15433.15
533.04	15195.59
533.241	15037.89
533.442	15314.37
533.643	15412.67
533.844	15089.09
534.045	15353.28
534.246	15207.87
534.447	15410.62
534.648	15396.29
534.849	15418.82
535.05	15326.66
535.251	15633.85
535.451	15216.07
535.652	15746.49
535.853	15687.1
536.054	15576.51
536.255	15709.63
536.456	15340.99
536.657	15752.63
536.857	15541.69
537.058	15658.43
537.259	15420.86
537.46	15801.79
537.66	15562.17
537.861	15578.56
538.062	15910.33
538.263	15513.02
538.463	15709.63
538.664	15754.68
538.865	15807.93
539.065	15926.71
539.266	15775.16
539.466	15693.24
539.667	15685.05
539.868	16381.36
540.068	15984.05
540.269	15648.19
540.469	16096.69
540.67	15809.98
540.87	15625.66
541.071	15951.29
541.271	15928.76
541.472	15928.76
541.672	15975.86
541.873	15900.09
542.073	15717.82
542.274	15939
542.474	16000.44
542.675	15848.89
542.875	16307.63
543.075	15906.23
543.276	16000.44
543.476	16061.88
543.676	16158.13
543.877	16127.41
544.077	16188.85
544.277	16031.16
544.478	16070.07
544.678	15939
544.878	16252.34
545.078	15848.89
545.279	16149.94
545.479	16014.77
545.679	16367.02
545.879	16348.59
546.079	15795.64
546.28	16244.15
546.48	15998.39
546.68	16141.75
546.88	16293.3
547.08	16262.58
547.28	16328.11
547.48	16084.41
547.68	16072.12
547.88	16004.53
548.081	16246.19
548.281	16002.49
548.481	16000.44
548.681	16262.58
548.881	15971.77
549.081	16317.87
549.28	16147.89
549.48	16319.92
549.68	16041.4
549.88	16555.44
550.08	16127.41
550.28	16450.99
550.48	16438.7
550.68	16297.39
550.88	16262.58
551.08	16264.63
551.279	16217.52
551.479	16289.2
551.679	16246.19
551.879	16260.53
552.079	16332.21
552.278	16584.11
552.478	16315.83
552.678	16301.49
552.878	16403.89
553.077	16528.81
553.277	16205.24
553.477	16342.45
553.676	16340.4
553.876	16240.05
554.076	16338.35
554.275	16311.73
554.475	16162.23
554.674	16397.74
554.874	16328.11
555.074	16043.45
555.273	16313.78
555.473	16213.43
555.672	15904.18
555.872	16201.14
556.071	16405.94
556.271	16436.66
556.47	16207.28
556.67	15857.08
556.869	16205.24
557.068	16403.89
557.268	16002.49
557.467	16031.16
557.667	16029.11
557.866	16184.76
558.065	16207.28
558.265	16119.22
558.464	16225.72
558.663	16367.02
558.863	16031.16
559.062	16104.88
559.261	15957.43
559.461	16295.35
559.66	16076.21
559.859	16139.7
560.058	15906.23
560.258	16022.97
560.457	16039.35
560.656	16170.42
560.855	16190.9
561.054	16209.33
561.253	16055.73
561.453	16027.06
561.652	15961.53
561.851	16139.7
562.05	16080.31
562.249	15820.22
562.448	16207.28
562.647	16119.22
562.846	15764.92
563.045	15744.44
563.244	15803.83
563.443	16055.73
563.642	15979.96
563.841	16088.5
564.04	15924.66
564.239	16258.48
564.438	15848.89
564.637	15775.16
564.836	15910.33
565.035	15758.78
565.234	15889.85
565.432	15963.58
565.631	16049.59
565.83	16037.3
566.029	15994.29
566.228	15818.17
566.427	15613.37
566.625	15832.51
566.824	15627.71
567.023	15838.65
567.222	15717.82
567.42	15736.25
567.619	15760.83
567.818	15766.97
568.016	15594.94
568.215	15705.53
568.414	15846.84
568.612	15957.43
568.811	15805.88
569.01	15787.45
569.208	15605.18
569.407	15838.65
569.605	15525.31
569.804	15568.32
570.002	15680.96
570.201	15642.04
570.4	15666.62
570.598	15689.15
570.797	15525.31
570.995	15527.36
571.193	15367.62
571.392	15564.22
571.59	15205.83
571.789	15533.5
571.987	15386.05
572.186	15359.42
572.384	15308.23
572.582	15402.43
572.781	15394.24
572.979	15105.48
573.177	15316.42
573.376	15361.47
573.574	15111.62
573.772	15285.7
573.971	15054.28
574.169	15175.11
574.367	15261.12
574.565	15101.38
574.763	15259.07
574.962	15072.71
575.16	14814.66
575.358	15060.42
575.556	14607.82
575.754	14980.55
575.952	14884.3
576.151	15115.72
576.349	14536.14
576.547	15134.15
576.745	14808.52
576.943	14867.91
577.141	14656.97
577.339	14878.15
577.537	14513.61
577.735	14691.79
577.933	14468.56
578.131	14530
578.329	14685.64
578.527	14616.01
578.725	14613.96
578.923	14685.64
579.121	14693.83
579.319	14439.89
579.516	14538.19
579.714	14038.48
579.912	14398.93
580.11	14286.29
580.308	14366.16
580.506	14323.15
580.704	14034.39
580.901	14366.16
581.099	14226.9
581.297	14069.2
581.495	14104.02
581.692	14165.46
581.89	13913.56
582.088	14210.51
582.285	14003.67
582.483	14165.46
582.681	13931.99
582.878	13729.24
583.076	13632.99
583.274	13987.29
583.471	13997.53
583.669	13802.97
583.866	13872.6
584.064	13850.07
584.262	13565.4
584.459	13837.78
584.657	13780.44
584.854	13698.52
585.052	13309.41
585.249	13585.88
585.447	13487.58
585.644	13395.42
585.841	13538.78
586.039	13616.6
586.236	13231.58
586.434	13514.2
586.631	13311.46
586.828	13352.41
587.026	13309.41
587.223	13168.1
587.42	13190.63
587.618	13217.25
587.815	13080.04
588.012	13100.51
588.21	13166.05
588.407	13211.11
588.604	13127.14
588.801	12770.79
588.999	12928.49
589.196	12948.97
589.393	12944.87
589.59	12852.71
589.787	12938.73
589.984	12721.64
590.182	12819.94
590.379	12690.92
590.576	12803.56
590.773	12606.95
590.97	12600.81
591.167	12692.97
591.364	12654.06
591.561	12545.52
591.758	12344.81
591.955	12398.06
592.152	12439.02
592.349	12314.09
592.546	12398.06
592.743	12312.05
592.94	12236.27
593.137	12213.74
593.334	12283.38
593.531	12219.89
593.727	12211.7
593.924	12078.58
594.121	12056.05
594.318	12062.19
594.515	11931.12
594.712	12176.88
594.908	11888.12
595.105	11875.83
595.302	11978.23
595.499	12006.9
595.696	11707.9
595.892	11810.29
596.089	11970.04
596.286	11806.2
596.482	11781.62
596.679	11658.74
596.876	11795.96
597.072	11691.51
597.269	11836.92
597.466	11505.15
597.662	11322.88
597.859	11570.68
598.055	11640.31
598.252	11408.89
598.448	11599.35
598.645	11292.16
598.841	11320.83
599.038	11709.94
599.234	11367.93
599.431	11245.06
599.627	11099.65
599.824	11159.04
600.02	11001.35
600.217	11144.7
600.413	11191.81
600.609	11103.75
600.806	11038.21
601.002	11089.41
601.198	10958.34
601.395	10808.84
601.591	10855.94
601.787	10970.63
601.984	10702.34
602.18	10927.62
602.376	10909.19
602.572	10882.56
602.769	10587.66
602.965	10567.18
603.161	10448.4
603.357	10825.22
603.553	10636.81
603.75	10499.59
603.946	10593.8
604.142	10618.38
604.338	10360.33
604.534	10472.97
604.73	10432.01
604.926	10274.32
605.122	10257.93
605.318	10395.15
605.514	10405.39
605.71	10169.87
605.906	10290.7
606.102	10085.9
606.298	10356.24
606.494	10370.57
606.69	10124.82
606.886	10061.33
607.082	10036.75
607.278	10159.63
607.474	9881.11
607.67	10071.57
607.866	9801.24
608.062	9874.96
608.257	9872.92
608.453	9981.46
608.649	9946.64
608.845	9860.63
609.041	9776.66
609.236	9825.81
609.432	9694.74
609.628	9727.51
609.824	9842.2
610.019	9524.76
610.215	9709.08
610.411	9633.3
610.606	9479.71
610.802	9739.8
610.998	9592.34
611.193	9545.24
611.389	9524.76
611.584	9440.79
611.78	9328.16
611.976	9473.56
612.171	9371.16
612.367	9438.75
612.562	9375.26
612.758	9309.72
612.953	9299.48
613.149	9561.62
613.344	9100.83
613.539	9471.51
613.735	9287.2
613.93	9412.12
614.126	9371.16
614.321	9408.03
614.517	9203.23
614.712	9139.74
614.907	9127.46
615.103	9055.78
615.298	9256.48
615.493	9301.53
615.688	9020.96
615.884	9362.97
616.079	8963.62
616.274	9141.79
616.47	9143.84
616.665	9016.87
616.86	8730.15
617.055	8973.86
617.25	8863.27
617.445	9014.82
617.641	8758.82
617.836	8867.36
618.031	8787.49
618.226	8783.4
618.421	8801.83
618.616	8754.73
618.811	8619.56
619.006	8728.1
619.201	8586.79
619.396	8795.68
619.591	8386.09
619.786	8574.5
619.981	8388.14
620.176	8490.54
620.371	8328.75
620.566	8283.69
620.761	8199.73
620.956	8437.29
621.151	8302.12
621.346	8205.87
621.541	8162.86
621.735	8152.62
621.93	8103.47
622.125	8048.18
622.32	7888.43
622.515	7982.64
622.709	8027.7
622.904	7982.64
623.099	7962.16
623.294	7968.31
623.488	7806.52
623.683	7769.65
623.878	7544.38
624.072	7708.21
624.267	7755.32
624.462	7585.33
624.656	7575.1
624.851	7630.39
625.046	7315
625.24	7358.01
625.435	7398.97
625.629	7192.12
625.824	7376.44
626.018	7224.89
626.213	7116.35
626.407	7208.51
626.602	7185.98
626.796	7159.36
626.991	7163.45
627.185	7167.55
627.38	7114.3
627.574	6886.98
627.768	6831.68
627.963	7040.58
628.157	6794.82
628.352	6680.13
628.546	6760
628.74	6825.54
628.935	6561.35
629.129	6657.61
629.323	6807.11
629.517	6581.83
629.712	6788.68
629.906	6475.34
630.1	6325.83
630.294	6587.97
630.489	6411.85
630.683	6489.67
630.877	6291.02
631.071	6225.48
631.265	6262.35
631.459	6274.63
631.653	6159.95
631.848	6176.33
632.042	6129.23
632.236	6293.07
632.43	6157.9
632.624	6186.57
632.818	6032.97
633.012	5813.84
633.206	6028.88
633.4	5897.81
633.594	5985.87
633.788	5932.62
633.982	5889.62
634.176	5959.25
634.369	5965.39
634.563	5895.76
634.757	5809.75
634.951	5781.07
635.145	5662.29
635.339	5701.2
635.533	5707.35
635.726	5856.85
635.92	5428.82
636.114	5690.96
636.308	5434.97
636.501	5445.21
636.695	5383.77
636.889	5543.51
637.083	5387.86
637.276	5406.3
637.47	5578.33
637.664	5383.77
637.857	5301.85
638.051	5359.19
638.244	5328.47
638.438	5260.89
638.632	5269.08
638.825	5117.53
639.019	5023.33
639.212	5117.53
639.406	5207.64
639.599	5115.48
639.793	5066.33
639.986	4869.73
640.18	5113.44
640.373	5121.63
640.567	4959.84
640.76	4902.5
640.954	4859.49
641.147	4853.34
641.34	4730.47
641.534	4849.25
641.727	4681.32
641.92	4826.72
642.114	4841.06
642.307	4716.13
642.5	4572.77
642.694	4578.92
642.887	4609.64
643.08	4593.25
643.273	4548.2
643.467	4593.25
643.66	4540.01
643.853	4357.74
644.046	4472.42
644.239	4365.93
644.432	4521.57
644.626	4415.08
644.819	4419.18
645.012	4234.86
645.205	4284.01
645.398	4163.18
645.591	4320.87
645.784	4304.49
645.977	4290.15
646.17	4107.88
646.363	4177.51
646.556	4036.21
646.749	4173.42
646.942	4167.28
647.135	4056.68
647.328	3827.31
647.521	4042.35
647.714	3950.19
647.907	3974.77
648.099	3829.36
648.292	3921.52
648.485	3872.37
648.678	3917.42
648.871	3726.96
649.064	3745.39
649.256	3735.15
649.449	3696.24
649.642	3706.48
649.835	3626.61
650.027	3577.46
650.22	3690.1
650.413	3726.96
650.605	3614.32
650.798	3579.51
650.991	3503.73
651.183	3686
651.376	3513.97
651.568	3456.63
651.761	3483.25
651.954	3536.5
652.146	3407.48
652.339	3483.25
652.531	3542.64
652.724	3311.22
652.916	3335.8
653.109	3253.88
653.301	3200.63
653.494	3272.31
653.686	3104.38
653.879	3282.55
654.071	3333.75
654.263	3063.42
654.456	3198.59
654.648	3249.79
654.84	3088
655.033	3145.34
655.225	2967.17
655.417	3028.6
655.61	3124.86
655.802	3067.52
655.994	3038.84
656.186	2932.35
656.379	3073.66
656.571	3022.46
656.763	2952.83
656.955	2934.4
657.148	2993.79
657.34	2803.33
657.532	2883.2
657.724	2854.53
657.916	2891.39
658.108	2866.81
658.3	2903.68
658.492	2533
658.684	2637.44
658.876	2698.88
659.068	2686.59
659.26	2686.59
659.452	2711.17
659.644	2764.42
659.836	2584.2
660.028	2666.11
660.22	2729.6
660.412	2657.92
660.604	2606.72
660.796	2496.13
660.988	2494.08
661.18	2496.13
661.372	2514.56
661.563	2467.46
661.755	2461.32
661.947	2365.06
662.139	2442.89
662.331	2387.59
662.522	2346.63
662.714	2471.56
662.906	2297.48
663.097	2137.74
663.289	2254.47
663.481	2166.41
663.673	2299.53
663.864	2201.23
664.056	2188.94
664.247	2164.36
664.439	2078.35
664.631	2152.07
664.822	2272.9
665.014	2074.25
665.205	2064.01
665.397	2061.96
665.588	2113.16
665.78	2070.16
665.971	2002.57
666.163	2074.25
666.354	1975.95
666.546	1994.38
666.737	2086.54
666.929	1963.66
667.12	1969.8
667.311	2000.52
667.503	2004.62
667.694	1775.25
667.885	1912.46
668.077	1918.61
668.268	1891.98
668.459	1808.02
668.651	1805.97
668.842	1840.78
669.033	1826.45
669.224	1724.05
669.416	1705.62
669.607	1779.34
669.798	1674.9
669.989	1816.21
670.18	1801.87
670.371	1670.8
670.563	1670.8
670.754	1664.66
670.945	1674.9
671.136	1689.23
671.327	1617.55
671.518	1605.27
671.709	1621.65
671.9	1592.98
672.091	1650.32
672.282	1578.64
672.473	1697.42
672.664	1576.59
672.855	1488.53
673.046	1623.7
673.237	1541.78
673.428	1525.4
673.619	1521.3
673.809	1523.35
674	1560.21
674.191	1509.01
674.382	1466
674.573	1468.05
674.764	1488.53
674.954	1404.57
675.145	1377.94
675.336	1480.34
675.527	1435.28
675.717	1435.28
675.908	1476.24
676.099	1414.81
676.289	1443.48
676.48	1390.23
676.671	1414.81
676.861	1371.8
677.052	1285.78
677.243	1328.79
677.433	1357.46
677.624	1406.61
677.814	1361.56
678.005	1314.45
678.195	1379.99
678.386	1377.94
678.576	1316.5
678.767	1285.78
678.957	1414.81
679.148	1341.08
679.338	1298.07
679.529	1269.4
679.719	1320.6
679.909	1277.59
680.1	1291.93
680.29	1263.26
680.481	1283.74
680.671	1345.17
680.861	1287.83
681.052	1289.88
681.242	1334.93
681.432	1322.65
681.622	1207.96
681.813	1175.19
682.003	1349.27
682.193	1314.45
682.383	1253.02
682.573	1275.54
682.764	1253.02
682.954	1298.07
683.144	1343.13
683.334	1091.23
683.524	1167
683.714	1179.29
683.904	1214.1
684.094	1210.01
684.284	1300.12
684.474	1207.96
684.664	1339.03
684.854	1263.26
685.044	1316.5
685.234	1236.63
685.424	1173.14
685.614	1142.43
685.804	1146.52
685.994	1191.58
686.184	1224.34
686.374	1148.57
686.564	1267.35
686.753	1238.68
686.943	1189.53
687.133	1326.74
687.323	1123.99
687.513	1226.39
687.702	1224.34
687.892	1210.01
688.082	1291.93
688.272	1253.02
688.461	1228.44
688.651	1195.67
688.841	1128.09
689.03	1240.73
689.22	1261.21
689.41	1148.57
689.599	1115.8
689.789	1281.69
689.979	1183.38
690.168	1197.72
690.358	1171.1
690.547	1154.71
690.737	1269.4
690.926	1222.3
691.116	1236.63
691.305	1214.1
691.495	1187.48
691.684	1216.15
691.874	1181.34
692.063	1244.82
692.252	1271.45
692.442	1224.34
692.631	1244.82
692.82	1367.7
693.01	1201.82
693.199	1300.12
693.388	1265.3
693.578	1259.16
693.767	1328.79
693.956	1201.82
694.146	1224.34
694.335	1212.06
694.524	1158.81
694.713	1177.24
694.902	1167
695.092	1185.43
695.281	1240.73
695.47	1142.43
695.659	1201.82
695.848	1242.78
696.037	1173.14
696.226	1205.91
696.415	1109.66
696.604	1228.44
696.793	1050.27
696.982	1171.1
697.171	1222.3
697.36	1199.77
697.549	1150.62
697.738	1183.38
697.927	1205.91
698.116	1156.76
698.305	1150.62
698.494	1121.95
698.683	1062.55
698.872	1095.32
699.061	1146.52
699.25	1103.51
699.438	1078.94
699.627	1072.79
699.816	1023.64
700.005	1085.08
700.193	1042.07
700.382	1085.08
700.571	1103.51
700.76	1152.67
700.948	1150.62
701.137	1046.17
701.326	1089.18
701.514	1091.23
701.703	1052.31
701.892	1076.89
702.08	1103.51
702.269	964.25
702.457	1072.79
702.646	1019.55
702.834	1083.03
703.023	1093.27
703.212	1050.27
703.4	994.97
703.589	1050.27
703.777	976.54
703.965	1035.93
704.154	1017.5
704.342	1046.17
704.531	1003.16
704.719	1046.17
704.907	1052.31
705.096	1015.45
705.284	978.59
705.472	956.06
705.661	1027.74
705.849	988.83
706.037	951.96
706.226	980.64
706.414	949.92
706.602	964.25
706.79	884.38
706.979	935.58
707.167	876.19
707.355	919.2
707.543	982.68
707.731	1035.93
707.919	1005.21
708.107	931.48
708.296	886.43
708.484	902.81
708.672	876.19
708.86	868
709.048	892.57
709.236	845.47
709.424	919.2
709.612	921.24
709.8	812.7
709.988	896.67
710.176	915.1
710.364	824.99
710.551	919.2
710.739	943.77
710.927	870.05
711.115	841.37
711.303	784.03
711.491	892.57
711.679	898.72
711.866	904.86
712.054	833.18
712.242	855.71
712.43	806.56
712.617	812.7
712.805	857.76
712.993	747.17
713.181	767.65
713.368	796.32
713.556	790.17
713.744	761.5
713.931	810.65
714.119	779.93
714.306	759.46
714.494	841.37
714.682	818.85
714.869	802.46
715.057	726.69
715.244	767.65
715.432	847.52
715.619	790.17
715.807	829.09
715.994	726.69
716.182	673.44
716.369	784.03
716.556	712.35
716.744	757.41
716.931	657.06
717.119	755.36
717.306	704.16
717.493	743.07
717.681	704.16
717.868	712.35
718.055	650.91
718.242	626.34
718.43	601.76
718.617	632.48
718.804	667.3
718.991	741.02
719.179	614.05
719.366	612
719.553	712.35
719.74	612
719.927	661.15
720.114	650.91
720.301	648.86
720.488	601.76
720.676	599.71
720.863	683.68
721.05	622.24
721.237	556.71
721.424	542.37
721.611	630.43
721.798	554.66
721.985	579.23
722.172	564.9
722.358	534.18
722.545	657.06
722.732	607.91
722.919	648.86
723.106	581.28
723.293	581.28
723.48	560.8
723.667	583.33
723.853	599.71
724.04	513.7
724.227	589.47
724.414	587.43
724.6	571.04
724.787	579.23
724.974	515.75
725.161	437.92
725.347	542.37
725.534	542.37
725.72	585.38
725.907	525.99
726.094	536.23
726.28	579.23
726.467	583.33
726.653	566.95
726.84	530.08
727.027	503.46
727.213	544.42
727.4	595.62
727.586	505.51
727.773	528.03
727.959	452.26
728.145	546.47
728.332	534.18
728.518	466.6
728.705	480.93
728.891	460.45
729.077	511.65
729.264	472.74
729.45	554.66
729.636	546.47
729.823	503.46
730.009	472.74
730.195	435.88
730.382	489.12
730.568	372.39
730.754	458.4
730.94	470.69
731.126	558.75
731.313	425.64
731.499	394.92
731.685	470.69
731.871	384.68
732.057	460.45
732.243	421.54
732.429	454.31
732.615	437.92
732.801	515.75
732.987	421.54
733.173	458.4
733.359	474.79
733.545	480.93
733.731	417.44
733.917	499.36
734.103	425.64
734.289	468.64
734.475	409.25
734.661	409.25
734.847	401.06
735.033	493.22
735.219	378.53
735.404	399.01
735.59	419.49
735.776	356.01
735.962	356.01
736.148	403.11
736.333	345.77
736.519	427.68
736.705	437.92
736.89	454.31
737.076	366.25
737.262	439.97
737.447	337.57
737.633	382.63
737.819	370.34
738.004	399.01
738.19	362.15
738.375	378.53
738.561	409.25
738.747	401.06
738.932	370.34
739.118	405.16
739.303	411.3
739.489	353.96
739.674	370.34
739.859	370.34
740.045	321.19
740.23	370.34
740.416	372.39
740.601	392.87
740.786	329.38
740.972	364.2
741.157	329.38
741.342	313
741.528	347.81
741.713	360.1
741.898	319.14
742.084	364.2
742.269	364.2
742.454	356.01
742.639	380.58
742.824	349.86
743.01	321.19
743.195	376.48
743.38	335.53
743.565	267.94
743.75	337.57
743.935	349.86
744.12	304.81
744.305	220.84
744.49	290.47
744.675	343.72
744.86	259.75
745.045	286.37
745.23	298.66
745.415	353.96
745.6	317.09
745.785	245.41
745.97	253.61
746.155	341.67
746.34	374.44
746.525	263.85
746.71	288.42
746.895	306.85
747.079	294.57
747.264	224.94
747.449	347.81
747.634	362.15
747.819	255.65
748.003	282.28
748.188	241.32
748.373	304.81
748.557	337.57
748.742	298.66
748.927	310.95
749.111	269.99
749.296	296.61
749.481	255.65
749.665	288.42
749.85	261.8
750.034	325.29
750.219	243.37
750.404	290.47
750.588	288.42
750.773	257.7
750.957	315.05
751.141	218.79
751.326	233.13
751.51	263.85
751.695	224.94
751.879	241.32
752.064	235.18
752.248	226.98
752.432	308.9
752.617	222.89
752.801	214.7
752.985	208.55
753.17	239.27
753.354	231.08
753.538	183.98
753.722	269.99
753.907	237.22
754.091	263.85
754.275	247.46
754.459	206.5
754.643	198.31
754.828	214.7
755.012	243.37
755.196	210.6
755.38	231.08
755.564	147.11
755.748	198.31
755.932	206.5
756.116	198.31
756.3	253.61
756.484	222.89
756.668	190.12
756.852	216.74
757.036	177.83
757.22	222.89
757.404	255.65
757.588	153.26
757.772	194.22
757.956	241.32
758.14	243.37
758.323	204.46
758.507	153.26
758.691	179.88
758.875	255.65
759.059	229.03
759.242	192.17
759.426	208.55
759.61	153.26
759.794	204.46
759.977	212.65
760.161	220.84
760.345	149.16
760.528	200.36
760.712	161.45
760.895	186.02
761.079	81.58
761.263	165.54
761.446	151.21
761.63	140.97
761.813	181.93
761.997	167.59
762.18	122.54
762.364	286.37
762.547	145.06
762.731	110.25
762.914	198.31
763.098	192.17
763.281	128.68
763.464	198.31
763.648	192.17
763.831	159.4
764.015	161.45
764.198	163.5
764.381	173.74
764.564	143.02
764.748	108.2
764.931	110.25
765.114	134.82
765.297	155.3
765.481	95.91
765.664	210.6
765.847	91.82
766.03	173.74
766.213	167.59
766.397	224.94
766.58	159.4
766.763	81.58
766.946	157.35
767.129	151.21
767.312	134.82
767.495	188.07
767.678	85.67
767.861	104.11
768.044	126.63
768.227	100.01
768.41	128.68
768.593	171.69
768.776	116.39
768.959	147.11
769.142	208.55
769.324	83.63
769.507	93.87
769.69	132.78
769.873	179.88
770.056	200.36
770.239	190.12
770.421	161.45
770.604	190.12
770.787	75.43
770.97	163.5
771.152	181.93
771.335	171.69
771.518	114.34
771.7	132.78
771.883	161.45
772.066	163.5
772.248	206.5
772.431	194.22
772.613	194.22
772.796	216.74
772.978	132.78
773.161	102.06
773.343	183.98
773.526	145.06
773.708	110.25
773.891	132.78
774.073	151.21
774.256	169.64
774.438	229.03
774.621	104.11
774.803	233.13
774.985	171.69
775.168	126.63
775.35	163.5
775.532	134.82
775.715	165.54
775.897	112.3
776.079	110.25
776.261	179.88
776.444	163.5
776.626	75.43
776.808	112.3
776.99	171.69
777.173	151.21
777.355	128.68
777.537	108.2
777.719	175.78
777.901	91.82
778.083	118.44
778.265	147.11
778.447	151.21
778.629	122.54
778.811	167.59
778.993	87.72
779.175	110.25
779.357	95.91
779.539	63.15
779.721	140.97
779.903	83.63
780.085	91.82
780.267	67.24
780.449	79.53
780.631	63.15
780.812	93.87
780.994	165.54
781.176	81.58
781.358	100.01
781.54	110.25
781.721	48.81
781.903	132.78
782.085	108.2
782.267	42.67
782.448	59.05
782.63	163.5
782.812	124.58
782.993	83.63
783.175	102.06
783.357	81.58
783.538	114.34
783.72	120.49
783.901	91.82
784.083	32.43
784.264	-26.96
784.446	108.2
784.627	57
784.809	114.34
784.99	116.39
785.172	116.39
785.353	67.24
785.535	57
785.716	38.57
785.897	81.58
786.079	34.47
786.26	81.58
786.441	69.29
786.623	73.39
786.804	145.06
786.985	75.43
787.167	9.9
787.348	67.24
787.529	134.82
787.71	126.63
787.891	24.23
788.073	79.53
788.254	97.96
788.435	118.44
788.616	91.82
788.797	87.72
788.978	69.29
789.159	130.73
789.34	118.44
789.522	102.06
789.703	116.39
789.884	73.39
790.065	57
790.246	61.1
790.427	118.44
790.607	61.1
790.788	85.67
790.969	63.15
791.15	36.52
791.331	38.57
791.512	116.39
791.693	32.43
791.874	71.34
792.054	108.2
792.235	9.9
792.416	65.19
792.597	67.24
792.778	30.38
792.958	100.01
793.139	106.15
793.32	34.47
793.5	-4.44
793.681	32.43
793.862	54.95
794.042	61.1
794.223	24.23
794.404	5.8
794.584	-18.77
794.765	87.72
794.945	24.23
795.126	30.38
795.306	52.91
795.487	-14.68
795.667	54.95
795.848	1.71
796.028	95.91
796.209	22.19
796.389	20.14
796.57	44.71
796.75	38.57
796.93	69.29
797.111	48.81
797.291	30.38
797.471	44.71
797.652	95.91
797.832	100.01
798.012	75.43
798.192	-10.58
798.373	42.67
798.553	128.68
798.733	73.39
798.913	28.33
799.093	18.09
799.274	57
799.454	-24.92
799.634	9.9
799.814	65.19
799.994	87.72
800.174	28.33
800.354	65.19
800.534	7.85
800.714	54.95
800.894	34.47
801.074	36.52
801.254	40.62
801.434	1.71
801.614	63.15
801.794	13.99
801.974	290.47
802.154	20.14
802.334	18.09
802.514	-0.34
802.693	75.43
802.873	44.71
803.053	89.77
803.233	50.86
803.413	73.39
803.592	59.05
803.772	-4.44
803.952	44.71
804.131	79.53
804.311	34.47
804.491	48.81
804.67	-2.39
804.85	57
805.03	30.38
805.209	5.8
805.389	46.76
805.568	-29.01
805.748	63.15
805.928	104.11
806.107	112.3
806.287	83.63
806.466	7.85
806.646	50.86
806.825	93.87
807.004	42.67
807.184	61.1
807.363	73.39
807.543	32.43
807.722	46.76
807.901	-35.16
808.081	52.91
808.26	34.47
808.439	28.33
808.619	40.62
808.798	1.71
808.977	57
809.156	9.9
809.336	42.67
809.515	-18.77
809.694	48.81
809.873	30.38
810.052	-2.39
810.231	24.23
810.411	85.67
810.59	83.63
810.769	1.71
810.948	50.86
811.127	69.29
811.306	79.53
811.485	75.43
811.664	32.43
811.843	22.19
812.022	-22.87
812.201	-65.88
812.38	95.91
812.559	61.1
812.737	42.67
812.916	-8.53
813.095	-8.53
813.274	9.9
813.453	36.52
813.632	-20.82
813.811	59.05
813.989	54.95
814.168	-35.16
814.347	24.23
814.526	46.76
814.704	75.43
814.883	83.63
815.062	-6.49
815.24	40.62
815.419	59.05
815.598	106.15
815.776	-33.11
815.955	50.86
816.133	36.52
816.312	59.05
816.49	24.23
816.669	-26.96
816.847	3.75
817.026	63.15
817.204	16.04
817.383	50.86
817.561	59.05
817.74	11.95
817.918	73.39
818.097	59.05
818.275	32.43
818.453	1.71
818.632	-18.77
818.81	93.87
818.988	-14.68
819.167	50.86
819.345	-47.44
819.523	18.09
819.701	32.43
819.879	85.67
820.058	20.14
820.236	75.43
820.414	22.19
820.592	16.04
820.77	-26.96
820.948	59.05
821.127	1.71
821.305	89.77
821.483	5.8
821.661	-20.82
821.839	52.91
822.017	-16.73
822.195	-22.87
822.373	22.19
822.551	-22.87
822.729	20.14
822.907	40.62
823.085	44.71
823.262	-41.3
823.44	77.48
823.618	-12.63
823.796	-0.34
823.974	-12.63
824.152	-29.01
824.329	26.28
824.507	-61.78
824.685	34.47
824.863	30.38
825.04	-24.92
825.218	81.58
825.396	79.53
825.574	65.19
825.751	18.09
825.929	42.67
826.107	-72.02
826.284	26.28
826.462	-47.44
826.639	-20.82
826.817	-33.11
826.994	-8.53
827.172	-76.12
827.349	104.11
827.527	5.8
827.704	18.09
827.882	42.67
828.059	-22.87
828.237	20.14
828.414	-0.34
828.591	9.9
828.769	42.67
828.946	22.19
829.124	52.91
829.301	54.95
829.478	38.57
829.655	-2.39
829.833	77.48
830.01	28.33
830.187	48.81
830.364	42.67
830.542	42.67
830.719	36.52
830.896	9.9
831.073	22.19
831.25	30.38
831.427	75.43
831.604	-6.49
831.782	30.38
831.959	36.52
832.136	-6.49
832.313	-18.77
832.49	26.28
832.667	69.29
832.844	13.99
833.021	-10.58
833.198	34.47
833.374	36.52
833.551	59.05
833.728	28.33
833.905	42.67
834.082	36.52
834.259	67.24
834.436	-8.53
834.612	-29.01
834.789	63.15
834.966	63.15
835.143	-16.73
835.319	20.14
835.496	61.1
835.673	32.43
835.85	9.9
836.026	44.71
836.203	79.53
836.38	71.34
836.556	-0.34
836.733	36.52
836.909	73.39
837.086	-4.44
837.262	-4.44
837.439	34.47
837.616	-14.68
837.792	20.14
837.968	32.43
838.145	22.19
838.321	-41.3
838.498	3.75
838.674	18.09
838.851	-10.58
839.027	42.67
839.203	40.62
839.38	30.38
839.556	57
839.732	83.63
839.909	40.62
840.085	57
840.261	30.38
840.437	63.15
840.614	-24.92
840.79	67.24
840.966	7.85
841.142	20.14
841.318	-33.11
841.494	59.05
841.671	-35.16
841.847	-63.83
842.023	7.85
842.199	54.95
842.375	-6.49
842.551	34.47
842.727	-6.49
842.903	71.34
843.079	44.71
843.255	93.87
843.431	97.96
843.607	-29.01
843.783	-10.58
843.959	36.52
844.134	59.05
844.31	46.76
844.486	24.23
844.662	-29.01
844.838	-43.35
845.013	124.58
845.189	28.33
845.365	30.38
845.541	26.28
845.716	34.47
845.892	16.04
846.068	-16.73
846.244	22.19
846.419	26.28
846.595	-39.25
846.77	44.71
846.946	-18.77
847.122	22.19
847.297	-14.68
847.473	-26.96
847.648	36.52
847.824	-69.97
847.999	-29.01
848.175	-4.44
848.35	28.33
848.526	18.09
848.701	61.1
848.876	32.43
849.052	20.14
849.227	-47.44
849.403	-88.4
849.578	-18.77
849.753	36.52
849.929	-33.11
850.104	3.75
850.279	40.62
850.454	-45.4
850.63	65.19
850.805	-14.68
850.98	20.14
851.155	-4.44
851.33	-2.39
851.505	-26.96
851.681	3.75
851.856	-16.73
852.031	22.19
852.206	-39.25
852.381	42.67
852.556	-29.01
852.731	46.76
852.906	-22.87
853.081	26.28
853.256	-67.92
853.431	1.71
853.606	-31.06
853.781	-18.77
853.956	24.23
854.131	24.23
854.305	11.95
854.48	26.28
854.655	-26.96
854.83	-14.68
855.005	9.9
855.18	5.8
855.354	9.9
855.529	3.75
855.704	-8.53
855.879	22.19
856.053	61.1
856.228	32.43
856.403	-14.68
856.577	69.29
856.752	-16.73
856.926	28.33
857.101	-20.82
857.276	16.04
857.45	-39.25
857.625	-24.92
857.799	-6.49
857.974	34.47
858.148	9.9
858.323	24.23
858.497	-35.16
858.672	-12.63
858.846	-51.54
859.02	-20.82
859.195	26.28
859.369	16.04
859.543	-2.39
859.718	7.85
859.892	59.05
860.066	22.19
860.241	-31.06
860.415	50.86
860.589	-12.63
860.763	-20.82
860.938	-37.2
861.112	85.67
861.286	22.19
861.46	-65.88
861.634	-8.53
861.808	61.1
861.982	42.67
862.157	-22.87
862.331	30.38
862.505	-6.49
862.679	-10.58
862.853	-6.49
863.027	5.8
863.201	26.28
863.375	-6.49
863.549	100.01
863.722	-4.44
863.896	-41.3
864.07	22.19
864.244	26.28
864.418	18.09
864.592	22.19
864.766	-6.49
864.939	-0.34
865.113	13.99
865.287	13.99
865.461	-10.58
865.634	1.71
865.808	-37.2
865.982	26.28
866.156	-82.26
866.329	-22.87
866.503	36.52
866.676	-55.64
866.85	-2.39
867.024	20.14
867.197	-8.53
867.371	5.8
867.544	59.05
867.718	24.23
867.891	54.95
868.065	75.43
868.238	-4.44
868.412	44.71
868.585	-6.49
868.759	-6.49
868.932	16.04
869.105	100.01
869.279	61.1
869.452	36.52
869.625	20.14
869.799	16.04
869.972	-26.96
870.145	20.14
870.319	-24.92
870.492	7.85
870.665	-51.54
870.838	5.8
871.011	-24.92
871.185	59.05
871.358	-22.87
871.531	-35.16
871.704	-80.21
871.877	-22.87
872.05	-26.96
872.223	-37.2
872.396	-76.12
872.569	20.14
872.742	75.43
872.915	20.14
873.088	-8.53
873.261	-16.73
873.434	32.43
873.607	3.75
873.78	24.23
873.953	67.24
874.126	-26.96
874.299	-31.06
874.471	-29.01
874.644	30.38
874.817	83.63
874.99	75.43
875.163	36.52
875.335	9.9
875.508	-18.77
875.681	-43.35
875.853	18.09
876.026	50.86
876.199	40.62
876.371	-6.49
876.544	-10.58
876.717	-61.78
876.889	22.19
877.062	5.8
877.234	-22.87
877.407	-29.01
877.579	75.43
877.752	44.71
877.924	32.43
878.097	3.75
878.269	-49.49
878.442	-24.92
878.614	-72.02
878.786	9.9
878.959	-47.44
879.131	-18.77
879.303	30.38
879.476	75.43
879.648	24.23
879.82	-26.96
879.993	20.14
880.165	-4.44
880.337	16.04
880.509	28.33
880.681	-41.3
880.854	-6.49
881.026	13.99
881.198	16.04
881.37	-6.49
881.542	38.57
881.714	28.33
881.886	9.9
882.058	20.14
882.23	1.71
882.402	-33.11
882.574	-4.44
882.746	22.19
882.918	-31.06
883.09	-6.49
883.262	18.09
883.434	24.23
883.606	-18.77
883.778	-24.92
883.95	5.8
884.122	42.67
884.293	-26.96
884.465	20.14
884.637	-2.39
884.809	57
884.98	30.38
885.152	-29.01
885.324	-74.07
885.496	-16.73
885.667	57
885.839	9.9
886.011	50.86
886.182	46.76
886.354	-35.16
886.525	18.09
886.697	-39.25
886.869	-43.35
887.04	-6.49
887.212	-39.25
887.383	32.43
887.555	38.57
887.726	40.62
887.897	40.62
888.069	40.62
888.24	-31.06
888.412	18.09
888.583	-16.73
888.754	-16.73
888.926	-31.06
889.097	-55.64
889.268	-26.96
889.44	18.09
889.611	22.19
889.782	26.28
889.953	-16.73
890.125	9.9
890.296	-39.25
890.467	63.15
890.638	100.01
890.809	-29.01
890.98	-41.3
891.151	40.62
891.323	-59.73
891.494	-2.39
891.665	30.38
891.836	20.14
892.007	5.8
892.178	-53.59
892.349	-22.87
892.52	13.99
892.691	-31.06
892.862	18.09
893.032	-49.49
893.203	-26.96
893.374	-33.11
893.545	3.75
893.716	-31.06
893.887	-47.44
894.057	-16.73
894.228	18.09
894.399	-0.34
894.57	-18.77
894.74	-8.53
894.911	38.57
895.082	-22.87
895.253	-14.68
895.423	30.38
895.594	5.8
895.764	-4.44
895.935	40.62
896.106	-29.01
896.276	28.33
896.447	-39.25
896.617	-31.06
896.788	-18.77
896.958	24.23
897.129	34.47
897.299	7.85
897.47	9.9
897.64	13.99
897.81	-16.73
897.981	38.57
898.151	7.85
898.322	38.57
898.492	44.71
898.662	-69.97
898.832	71.34
899.003	26.28
899.173	59.05
899.343	9.9
899.513	44.71
