Data from USB4F104151__23__12-53-28-587.txt Node

Date: Fri Mar 14 12:53:28 EDT 2025
User: louis
Spectrometer: USB4F10415
Trigger mode: 4
Integration Time (sec): 1.000000E-2
Scans to average: 1
Electric dark correction enabled: true
Nonlinearity correction enabled: false
Boxcar width: 0
XAxis mode: Wavelengths
Number of Pixels in Spectrum: 3648
>>>>>Begin Spectral Data<<<<<
178.204	-54.1
178.424	-54.1
178.644	-54.1
178.864	-86.87
179.084	-23.38
179.304	-45.91
179.524	-33.62
179.744	-23.38
179.964	-11.09
180.184	7.34
180.404	-23.38
180.624	-4.95
180.844	50.35
181.064	64.68
181.283	58.54
181.503	5.29
181.723	-43.86
181.943	-29.52
182.163	17.58
182.383	52.39
182.602	74.92
182.822	11.43
183.042	-43.86
183.262	5.29
183.482	15.53
183.701	5.29
183.921	66.73
184.141	-41.81
184.361	-9.05
184.58	-7
184.8	72.87
185.02	-60.24
185.239	36.01
185.459	-25.43
185.679	-47.96
185.898	-56.15
186.118	79.02
186.338	38.06
186.557	-45.91
186.777	27.82
186.997	-41.81
187.216	76.97
187.436	62.63
187.655	-2.9
187.875	-0.85
188.095	-17.24
188.314	21.67
188.534	-19.29
188.753	11.43
188.973	-58.2
189.192	-2.9
189.412	-23.38
189.631	48.3
189.851	33.96
190.07	7.34
190.29	36.01
190.509	36.01
190.729	-4.95
190.948	-9.05
191.168	23.72
191.387	11.43
191.607	46.25
191.826	-9.05
192.045	50.35
192.265	60.59
192.484	48.3
192.704	9.39
192.923	-13.14
193.142	83.11
193.362	38.06
193.581	36.01
193.8	-39.76
194.02	-62.29
194.239	19.63
194.458	-13.14
194.678	1.19
194.897	-2.9
195.116	-4.95
195.335	-29.52
195.555	5.29
195.774	68.78
195.993	1.19
196.212	-9.05
196.432	74.92
196.651	-9.05
196.87	-56.15
197.089	23.72
197.308	-4.95
197.528	19.63
197.747	-62.29
197.966	40.11
198.185	1.19
198.404	-54.1
198.623	-29.52
198.842	-27.48
199.062	-2.9
199.281	38.06
199.5	21.67
199.719	56.49
199.938	-47.96
200.157	-31.57
200.376	38.06
200.595	-19.29
200.814	-52.05
201.033	-9.05
201.252	56.49
201.471	27.82
201.69	50.35
201.909	17.58
202.128	-56.15
202.347	52.39
202.566	9.39
202.785	-2.9
203.004	-50
203.223	60.59
203.442	-23.38
203.661	-19.29
203.879	17.58
204.098	-0.85
204.317	-47.96
204.536	-11.09
204.755	7.34
204.974	31.91
205.193	11.43
205.411	33.96
205.63	27.82
205.849	-29.52
206.068	13.48
206.287	17.58
206.505	42.15
206.724	-37.72
206.943	7.34
207.162	25.77
207.381	27.82
207.599	36.01
207.818	-0.85
208.037	7.34
208.255	36.01
208.474	42.15
208.693	-2.9
208.911	52.39
209.13	-4.95
209.349	70.83
209.567	-21.33
209.786	-27.48
210.005	11.43
210.223	-27.48
210.442	38.06
210.661	-21.33
210.879	5.29
211.098	-7
211.316	-93.01
211.535	21.67
211.753	13.48
211.972	27.82
212.191	19.63
212.409	-9.05
212.628	-41.81
212.846	-0.85
213.065	33.96
213.283	31.91
213.502	81.07
213.72	-47.96
213.938	46.25
214.157	79.02
214.375	21.67
214.594	-25.43
214.812	36.01
215.031	85.16
215.249	-13.14
215.467	-37.72
215.686	17.58
215.904	-15.19
216.122	-35.67
216.341	81.07
216.559	-27.48
216.778	38.06
216.996	19.63
217.214	-2.9
217.432	-17.24
217.651	25.77
217.869	-54.1
218.087	-17.24
218.306	83.11
218.524	9.39
218.742	-43.86
218.96	11.43
219.179	11.43
219.397	-0.85
219.615	19.63
219.833	-21.33
220.051	85.16
220.27	48.3
220.488	38.06
220.706	81.07
220.924	122.02
221.142	-19.29
221.36	11.43
221.578	13.48
221.796	-50
222.015	48.3
222.233	-9.05
222.451	29.87
222.669	5.29
222.887	27.82
223.105	-15.19
223.323	1.19
223.541	64.68
223.759	29.87
223.977	60.59
224.195	-2.9
224.413	19.63
224.631	40.11
224.849	-27.48
225.067	-31.57
225.285	-29.52
225.503	-9.05
225.721	-13.14
225.939	40.11
226.157	-62.29
226.375	38.06
226.592	48.3
226.81	-11.09
227.028	-9.05
227.246	36.01
227.464	-27.48
227.682	54.44
227.9	-37.72
228.117	58.54
228.335	-4.95
228.553	72.87
228.771	42.15
228.989	29.87
229.206	48.3
229.424	27.82
229.642	-19.29
229.86	17.58
230.077	-21.33
230.295	56.49
230.513	3.24
230.731	15.53
230.948	27.82
231.166	-11.09
231.384	-7
231.601	31.91
231.819	-58.2
232.037	21.67
232.254	-25.43
232.472	38.06
232.689	9.39
232.907	19.63
233.125	36.01
233.342	-45.91
233.56	-7
233.777	50.35
233.995	-11.09
234.213	-47.96
234.43	11.43
234.648	-45.91
234.865	-21.33
235.083	13.48
235.3	-29.52
235.518	70.83
235.735	21.67
235.953	-17.24
236.17	1.19
236.388	13.48
236.605	-21.33
236.822	7.34
237.04	-74.58
237.257	-13.14
237.475	48.3
237.692	1.19
237.909	81.07
238.127	95.4
238.344	-0.85
238.562	33.96
238.779	-39.76
238.996	-19.29
239.214	23.72
239.431	87.21
239.648	-11.09
239.865	17.58
240.083	-52.05
240.3	38.06
240.517	83.11
240.735	-19.29
240.952	7.34
241.169	-0.85
241.386	62.63
241.603	29.87
241.821	5.29
242.038	66.73
242.255	19.63
242.472	-9.05
242.689	-29.52
242.907	56.49
243.124	-21.33
243.341	-115.54
243.558	-23.38
243.775	52.39
243.992	-68.44
244.209	31.91
244.426	48.3
244.643	-7
244.86	-47.96
245.078	31.91
245.295	29.87
245.512	33.96
245.729	27.82
245.946	50.35
246.163	54.44
246.38	38.06
246.597	11.43
246.814	83.11
247.031	-37.72
247.248	31.91
247.464	79.02
247.681	27.82
247.898	40.11
248.115	-17.24
248.332	11.43
248.549	25.77
248.766	64.68
248.983	97.45
249.2	1.19
249.417	60.59
249.633	-29.52
249.85	-11.09
250.067	-39.76
250.284	-60.24
250.501	-37.72
250.717	52.39
250.934	5.29
251.151	-4.95
251.368	15.53
251.585	105.64
251.801	-39.76
252.018	-13.14
252.235	-17.24
252.451	9.39
252.668	25.77
252.885	15.53
253.102	21.67
253.318	5.29
253.535	-15.19
253.752	-2.9
253.968	-19.29
254.185	3.24
254.401	-23.38
254.618	-0.85
254.835	-39.76
255.051	27.82
255.268	3.24
255.484	-35.67
255.701	7.34
255.917	-2.9
256.134	31.91
256.351	42.15
256.567	58.54
256.784	7.34
257	-25.43
257.217	17.58
257.433	27.82
257.65	1.19
257.866	66.73
258.082	40.11
258.299	27.82
258.515	-45.91
258.732	115.88
258.948	19.63
259.165	-72.53
259.381	11.43
259.597	31.91
259.814	83.11
260.03	27.82
260.246	-21.33
260.463	-4.95
260.679	-33.62
260.895	62.63
261.112	11.43
261.328	33.96
261.544	46.25
261.761	29.87
261.977	-33.62
262.193	7.34
262.409	3.24
262.626	-25.43
262.842	-7
263.058	11.43
263.274	29.87
263.49	13.48
263.707	7.34
263.923	-9.05
264.139	1.19
264.355	11.43
264.571	13.48
264.787	-9.05
265.004	11.43
265.22	33.96
265.436	13.48
265.652	-39.76
265.868	58.54
266.084	-60.24
266.3	79.02
266.516	-31.57
266.732	-11.09
266.948	-56.15
267.164	19.63
267.38	64.68
267.596	54.44
267.812	21.67
268.028	11.43
268.244	46.25
268.46	-43.86
268.676	-23.38
268.892	142.5
269.108	5.29
269.324	-80.72
269.54	38.06
269.756	-4.95
269.972	-29.52
270.188	87.21
270.403	-21.33
270.619	15.53
270.835	-19.29
271.051	-2.9
271.267	-11.09
271.483	-37.72
271.698	36.01
271.914	17.58
272.13	-0.85
272.346	19.63
272.562	-4.95
272.777	7.34
272.993	23.72
273.209	-37.72
273.425	-15.19
273.64	5.29
273.856	25.77
274.072	23.72
274.287	1.19
274.503	9.39
274.719	-50
274.934	15.53
275.15	-41.81
275.366	27.82
275.581	-11.09
275.797	38.06
276.012	38.06
276.228	-2.9
276.444	74.92
276.659	76.97
276.875	42.15
277.09	3.24
277.306	-33.62
277.521	87.21
277.737	50.35
277.952	68.78
278.168	29.87
278.383	-43.86
278.599	5.29
278.814	29.87
279.03	-23.38
279.245	15.53
279.461	19.63
279.676	40.11
279.892	-13.14
280.107	7.34
280.322	-9.05
280.538	36.01
280.753	5.29
280.969	15.53
281.184	3.24
281.399	17.58
281.615	-37.72
281.83	93.35
282.045	-103.25
282.26	-37.72
282.476	-56.15
282.691	7.34
282.906	-17.24
283.122	66.73
283.337	-35.67
283.552	83.11
283.767	21.67
283.983	33.96
284.198	29.87
284.413	-17.24
284.628	-13.14
284.843	-9.05
285.058	29.87
285.274	29.87
285.489	15.53
285.704	1.19
285.919	-41.81
286.134	60.59
286.349	-0.85
286.564	31.91
286.779	31.91
286.995	74.92
287.21	-4.95
287.425	38.06
287.64	27.82
287.855	33.96
288.07	19.63
288.285	74.92
288.5	52.39
288.715	21.67
288.93	-17.24
289.145	-27.48
289.36	87.21
289.575	13.48
289.79	-11.09
290.004	-15.19
290.219	9.39
290.434	-93.01
290.649	56.49
290.864	21.67
291.079	54.44
291.294	-41.81
291.509	17.58
291.724	13.48
291.938	33.96
292.153	-9.05
292.368	17.58
292.583	13.48
292.798	-27.48
293.012	31.91
293.227	54.44
293.442	11.43
293.657	17.58
293.871	1.19
294.086	40.11
294.301	50.35
294.516	-27.48
294.73	68.78
294.945	-11.09
295.16	-52.05
295.374	68.78
295.589	64.68
295.804	-11.09
296.018	5.29
296.233	-29.52
296.447	7.34
296.662	5.29
296.877	54.44
297.091	-23.38
297.306	-27.48
297.52	-9.05
297.735	48.3
297.949	5.29
298.164	52.39
298.378	62.63
298.593	44.2
298.807	-2.9
299.022	27.82
299.236	3.24
299.451	5.29
299.665	56.49
299.88	-19.29
300.094	5.29
300.309	-23.38
300.523	-39.76
300.737	-47.96
300.952	23.72
301.166	-29.52
301.381	19.63
301.595	60.59
301.809	-45.91
302.024	7.34
302.238	11.43
302.452	29.87
302.667	-11.09
302.881	70.83
303.095	60.59
303.309	-17.24
303.524	-37.72
303.738	7.34
303.952	-70.48
304.166	-11.09
304.381	-60.24
304.595	1.19
304.809	42.15
305.023	13.48
305.237	-33.62
305.452	33.96
305.666	70.83
305.88	31.91
306.094	-27.48
306.308	27.82
306.522	-17.24
306.736	19.63
306.95	33.96
307.164	-4.95
307.379	42.15
307.593	27.82
307.807	3.24
308.021	17.58
308.235	3.24
308.449	-58.2
308.663	-0.85
308.877	11.43
309.091	21.67
309.305	38.06
309.519	13.48
309.733	19.63
309.947	11.43
310.161	-17.24
310.374	23.72
310.588	70.83
310.802	-35.67
311.016	15.53
311.23	40.11
311.444	13.48
311.658	17.58
311.872	70.83
312.085	31.91
312.299	44.2
312.513	17.58
312.727	42.15
312.941	38.06
313.154	13.48
313.368	23.72
313.582	-17.24
313.796	21.67
314.009	87.21
314.223	-13.14
314.437	-17.24
314.651	-0.85
314.864	64.68
315.078	-7
315.292	-31.57
315.505	11.43
315.719	5.29
315.933	-27.48
316.146	-50
316.36	-23.38
316.573	36.01
316.787	-27.48
317.001	40.11
317.214	-76.63
317.428	21.67
317.641	-47.96
317.855	48.3
318.068	-4.95
318.282	19.63
318.495	-0.85
318.709	36.01
318.922	13.48
319.136	21.67
319.349	27.82
319.563	-4.95
319.776	-9.05
319.99	-9.05
320.203	25.77
320.417	-17.24
320.63	5.29
320.843	60.59
321.057	-11.09
321.27	56.49
321.483	25.77
321.697	21.67
321.91	5.29
322.124	36.01
322.337	-0.85
322.55	5.29
322.763	-27.48
322.977	-131.92
323.19	68.78
323.403	29.87
323.617	-17.24
323.83	54.44
324.043	-54.1
324.256	85.16
324.469	-9.05
324.683	93.35
324.896	25.77
325.109	19.63
325.322	-45.91
325.535	15.53
325.748	60.59
325.962	9.39
326.175	-21.33
326.388	31.91
326.601	27.82
326.814	23.72
327.027	-9.05
327.24	38.06
327.453	52.39
327.666	23.72
327.879	48.3
328.092	19.63
328.305	-7
328.518	21.67
328.731	-23.38
328.944	54.44
329.157	-15.19
329.37	81.07
329.583	-17.24
329.796	17.58
330.009	-2.9
330.222	-52.05
330.435	-9.05
330.648	-9.05
330.861	54.44
331.073	21.67
331.286	29.87
331.499	-2.9
331.712	-23.38
331.925	40.11
332.138	21.67
332.35	-25.43
332.563	50.35
332.776	7.34
332.989	7.34
333.202	76.97
333.414	3.24
333.627	38.06
333.84	-23.38
334.053	-4.95
334.265	-25.43
334.478	44.2
334.691	21.67
334.903	-23.38
335.116	-4.95
335.329	-17.24
335.541	-19.29
335.754	60.59
335.966	-50
336.179	66.73
336.392	-2.9
336.604	40.11
336.817	-11.09
337.029	27.82
337.242	15.53
337.454	36.01
337.667	29.87
337.88	1.19
338.092	31.91
338.305	-7
338.517	29.87
338.729	-43.86
338.942	31.91
339.154	3.24
339.367	-25.43
339.579	11.43
339.792	5.29
340.004	-21.33
340.217	-33.62
340.429	11.43
340.641	36.01
340.854	-35.67
341.066	11.43
341.278	85.16
341.491	27.82
341.703	-9.05
341.915	-2.9
342.128	1.19
342.34	1.19
342.552	-33.62
342.764	-11.09
342.977	1.19
343.189	7.34
343.401	31.91
343.613	19.63
343.826	-21.33
344.038	36.01
344.25	54.44
344.462	27.82
344.674	42.15
344.886	-39.76
345.099	44.2
345.311	9.39
345.523	-60.24
345.735	7.34
345.947	21.67
346.159	-9.05
346.371	-15.19
346.583	-37.72
346.795	25.77
347.007	-7
347.219	46.25
347.431	48.3
347.643	15.53
347.855	-37.72
348.067	23.72
348.279	46.25
348.491	5.29
348.703	7.34
348.915	42.15
349.127	52.39
349.339	19.63
349.551	9.39
349.763	40.11
349.975	-35.67
350.187	-13.14
350.399	5.29
350.61	62.63
350.822	38.06
351.034	21.67
351.246	-2.9
351.458	44.2
351.669	-13.14
351.881	19.63
352.093	52.39
352.305	-13.14
352.517	-11.09
352.728	146.6
352.94	7.34
353.152	36.01
353.363	-2.9
353.575	38.06
353.787	-19.29
353.999	79.02
354.21	3.24
354.422	-37.72
354.633	-47.96
354.845	36.01
355.057	5.29
355.268	-23.38
355.48	3.24
355.692	56.49
355.903	-0.85
356.115	60.59
356.326	-37.72
356.538	50.35
356.749	11.43
356.961	-35.67
357.172	9.39
357.384	66.73
357.595	27.82
357.807	-25.43
358.018	99.5
358.23	-13.14
358.441	-13.14
358.653	76.97
358.864	-37.72
359.075	64.68
359.287	33.96
359.498	66.73
359.709	-29.52
359.921	44.2
360.132	29.87
360.344	-13.14
360.555	40.11
360.766	99.5
360.977	29.87
361.189	36.01
361.4	-19.29
361.611	36.01
361.823	21.67
362.034	31.91
362.245	-0.85
362.456	-33.62
362.667	29.87
362.879	40.11
363.09	-21.33
363.301	15.53
363.512	66.73
363.723	21.67
363.935	33.96
364.146	44.2
364.357	40.11
364.568	-19.29
364.779	64.68
364.99	-41.81
365.201	31.91
365.412	46.25
365.623	-45.91
365.834	150.7
366.045	-35.67
366.256	7.34
366.467	52.39
366.678	64.68
366.889	21.67
367.1	5.29
367.311	44.2
367.522	79.02
367.733	29.87
367.944	15.53
368.155	-4.95
368.366	50.35
368.577	9.39
368.788	13.48
368.999	-33.62
369.209	-19.29
369.42	27.82
369.631	81.07
369.842	9.39
370.053	66.73
370.264	21.67
370.474	-39.76
370.685	19.63
370.896	-15.19
371.107	21.67
371.317	62.63
371.528	46.25
371.739	-60.24
371.95	9.39
372.16	-31.57
372.371	15.53
372.582	-31.57
372.792	68.78
373.003	46.25
373.214	23.72
373.424	-23.38
373.635	-35.67
373.846	40.11
374.056	19.63
374.267	17.58
374.477	-13.14
374.688	-21.33
374.898	-41.81
375.109	-25.43
375.319	31.91
375.53	48.3
375.74	56.49
375.951	19.63
376.161	-50
376.372	29.87
376.582	17.58
376.793	27.82
377.003	9.39
377.214	44.2
377.424	46.25
377.635	85.16
377.845	5.29
378.055	52.39
378.266	-0.85
378.476	21.67
378.686	-0.85
378.897	-9.05
379.107	-4.95
379.317	-17.24
379.528	5.29
379.738	83.11
379.948	-17.24
380.158	1.19
380.369	60.59
380.579	-37.72
380.789	-0.85
380.999	25.77
381.21	-82.77
381.42	46.25
381.63	7.34
381.84	33.96
382.05	68.78
382.261	40.11
382.471	-52.05
382.681	36.01
382.891	97.45
383.101	-19.29
383.311	36.01
383.521	-37.72
383.731	1.19
383.941	-0.85
384.151	21.67
384.361	17.58
384.571	-29.52
384.781	-37.72
384.991	44.2
385.201	25.77
385.411	42.15
385.621	64.68
385.831	-29.52
386.041	-0.85
386.251	-2.9
386.461	-60.24
386.671	-11.09
386.881	11.43
387.091	50.35
387.301	-25.43
387.511	21.67
387.72	-21.33
387.93	3.24
388.14	7.34
388.35	48.3
388.56	60.59
388.769	42.15
388.979	-2.9
389.189	-88.92
389.399	17.58
389.609	9.39
389.818	3.24
390.028	23.72
390.238	44.2
390.447	19.63
390.657	1.19
390.867	11.43
391.076	-4.95
391.286	-7
391.496	-9.05
391.705	66.73
391.915	38.06
392.125	17.58
392.334	-0.85
392.544	15.53
392.753	-80.72
392.963	23.72
393.172	91.31
393.382	17.58
393.591	52.39
393.801	-4.95
394.01	97.45
394.22	50.35
394.429	66.73
394.639	-23.38
394.848	58.54
395.058	40.11
395.267	-27.48
395.477	62.63
395.686	70.83
395.895	36.01
396.105	36.01
396.314	-52.05
396.524	13.48
396.733	-17.24
396.942	36.01
397.152	-7
397.361	11.43
397.57	-31.57
397.78	-50
397.989	44.2
398.198	17.58
398.407	-62.29
398.617	81.07
398.826	25.77
399.035	56.49
399.244	44.2
399.453	52.39
399.663	70.83
399.872	93.35
400.081	-7
400.29	87.21
400.499	7.34
400.708	103.59
400.917	29.87
401.127	-9.05
401.336	50.35
401.545	50.35
401.754	38.06
401.963	54.44
402.172	-25.43
402.381	19.63
402.59	54.44
402.799	-4.95
403.008	74.92
403.217	40.11
403.426	38.06
403.635	72.87
403.844	52.39
404.053	21.67
404.262	21.67
404.471	93.35
404.68	60.59
404.888	95.4
405.097	72.87
405.306	13.48
405.515	5.29
405.724	17.58
405.933	31.91
406.142	81.07
406.35	44.2
406.559	27.82
406.768	48.3
406.977	76.97
407.185	-15.19
407.394	105.64
407.603	27.82
407.812	5.29
408.02	122.02
408.229	13.48
408.438	54.44
408.646	50.35
408.855	97.45
409.064	60.59
409.272	62.63
409.481	70.83
409.69	40.11
409.898	79.02
410.107	38.06
410.315	93.35
410.524	85.16
410.733	72.87
410.941	60.59
411.15	5.29
411.358	54.44
411.567	60.59
411.775	13.48
411.984	105.64
412.192	91.31
412.401	62.63
412.609	117.93
412.818	54.44
413.026	50.35
413.234	109.74
413.443	95.4
413.651	109.74
413.86	140.46
414.068	173.22
414.276	140.46
414.485	113.83
414.693	109.74
414.901	126.12
415.11	138.41
415.318	165.03
415.526	146.6
415.734	148.65
415.943	50.35
416.151	236.71
416.359	191.66
416.567	119.98
416.776	119.98
416.984	156.84
417.192	173.22
417.4	189.61
417.608	79.02
417.817	173.22
418.025	242.85
418.233	212.14
418.441	203.94
418.649	203.94
418.857	193.7
419.065	195.75
419.273	265.38
419.481	257.19
419.689	326.82
419.897	289.96
420.105	222.38
420.313	242.85
420.521	279.72
420.729	341.16
420.937	308.39
421.145	283.81
421.353	275.62
421.561	318.63
421.769	367.78
421.977	285.86
422.185	373.92
422.393	347.3
422.601	396.45
422.809	437.41
423.017	398.5
423.224	365.73
423.432	421.03
423.64	388.26
423.848	332.97
424.056	464.04
424.263	486.56
424.471	519.33
424.679	455.84
424.887	402.6
425.094	578.72
425.302	578.72
425.51	597.15
425.718	488.61
425.925	593.06
426.133	566.43
426.341	564.39
426.548	705.7
426.756	623.78
426.964	652.45
427.171	662.69
427.379	711.84
427.586	707.74
427.794	715.94
428.001	834.72
428.209	744.61
428.417	720.03
428.624	822.43
428.832	879.77
429.039	801.95
429.247	879.77
429.454	978.08
429.662	969.88
429.869	935.07
430.076	988.32
430.284	1023.13
430.491	1033.37
430.699	1027.23
430.906	1103
431.114	1080.47
431.321	1117.34
431.528	1207.45
431.736	1277.08
431.943	1250.46
432.15	1236.12
432.358	1201.3
432.565	1244.31
432.772	1291.41
432.979	1377.43
433.187	1383.57
433.394	1402.01
433.601	1565.84
433.808	1551.51
434.016	1502.36
434.223	1563.79
434.43	1662.1
434.637	1664.15
434.844	1727.63
435.052	1778.83
435.259	1750.16
435.466	1768.59
435.673	1803.41
435.88	1954.96
436.087	2069.64
436.294	1983.63
436.501	1952.91
436.708	1981.58
436.915	2067.6
437.122	2118.79
437.329	2086.03
437.537	2237.58
437.743	2342.02
437.95	2176.14
438.157	2278.54
438.364	2358.41
438.571	2479.24
438.778	2413.7
438.985	2595.97
439.192	2452.61
439.399	2610.31
439.606	2546.82
439.813	2712.71
440.02	2870.4
440.227	2874.49
440.433	2804.86
440.64	2862.21
440.847	2923.65
441.054	2925.69
441.261	3153.02
441.467	3075.2
441.674	3015.8
441.881	3157.11
442.088	3437.69
442.294	3148.92
442.501	3363.96
442.708	3378.3
442.914	3523.7
443.121	3691.63
443.328	3585.14
443.534	3716.21
443.741	3689.59
443.948	3734.64
444.154	3980.4
444.361	4019.31
444.568	3822.7
444.774	3884.14
444.981	4023.41
445.187	4111.47
445.394	4346.98
445.6	4140.14
445.807	4830.3
446.013	4555.88
446.22	4562.02
446.426	4740.19
446.633	4693.09
446.839	4881.5
447.046	4654.18
447.252	4951.14
447.459	5127.26
447.665	4914.27
447.871	5219.42
448.078	5479.51
448.284	5061.73
448.491	5387.35
448.697	5532.76
448.903	5594.2
449.11	5721.17
449.316	5667.92
449.522	5694.55
449.728	5712.98
449.935	5870.67
450.141	5934.16
450.347	6032.46
450.553	5719.12
450.76	5846.1
450.966	6083.66
451.172	5958.74
451.378	6181.96
451.584	6093.9
451.791	6208.59
451.997	6276.17
452.203	6415.43
452.409	6380.62
452.615	6204.49
452.821	6122.57
453.027	5977.17
453.233	6368.33
453.44	6118.48
453.646	6073.42
453.852	6040.65
454.058	6231.12
454.264	6089.81
454.47	6149.2
454.676	6091.85
454.882	6081.61
455.088	5715.03
455.294	5694.55
455.5	5852.24
455.705	5792.85
455.911	5633.11
456.117	5577.81
456.323	5319.77
456.529	5131.36
456.735	5450.84
456.941	5375.06
457.147	5139.55
457.352	5035.1
457.558	4904.03
457.764	5112.92
457.97	4758.63
458.176	4897.89
458.381	4717.67
458.587	4523.11
458.793	4619.36
458.999	4342.89
459.204	4652.13
459.41	4402.28
459.616	4250.73
459.821	4138.09
460.027	4238.44
460.233	4134
460.438	3935.34
460.644	3884.14
460.85	3890.29
461.055	3941.49
461.261	3775.6
461.466	3400.82
461.672	3296.38
461.878	3605.62
462.083	3445.88
462.289	3232.89
462.494	3396.73
462.7	3138.68
462.905	2991.23
463.111	3279.99
463.316	3257.46
463.522	3036.28
463.727	3224.7
463.932	3126.39
464.138	3060.86
464.343	3083.39
464.549	3024
464.754	3107.96
464.959	3124.35
465.165	3183.74
465.37	2978.94
465.575	3005.56
465.781	2991.23
465.986	2976.89
466.191	2929.79
466.397	2823.3
466.602	2765.95
466.807	2790.53
467.012	3026.04
467.218	2745.47
467.423	2837.63
467.628	2790.53
467.833	2940.03
468.038	2755.71
468.244	2681.99
468.449	2925.69
468.654	2667.65
468.859	2800.77
469.064	2690.18
469.269	2602.11
469.474	2712.71
469.679	2645.12
469.885	2628.74
470.09	2612.35
470.295	2602.11
470.5	2626.69
470.705	2622.59
470.91	2636.93
471.115	2454.66
471.32	2618.5
471.525	2532.48
471.73	2444.42
471.935	2518.15
472.139	2477.19
472.344	2397.32
472.549	2299.02
472.754	2428.04
472.959	2239.62
473.164	2321.54
473.369	2276.49
473.574	2329.74
473.778	2182.28
473.983	2251.91
474.188	2182.28
474.393	2233.48
474.598	2190.47
474.802	2145.42
475.007	2004.11
475.212	2165.9
475.417	1971.34
475.621	2112.65
475.826	2020.49
476.031	2081.93
476.235	2120.84
476.44	2008.2
476.645	2086.03
476.849	1952.91
477.054	2016.4
477.259	2077.83
477.463	1918.09
477.668	2040.97
477.872	1930.38
478.077	1877.13
478.282	1948.81
478.486	1875.09
478.691	1838.22
478.895	1774.74
479.1	1803.41
479.304	1793.17
479.509	1637.52
479.713	1891.47
479.918	1793.17
480.122	1737.87
480.326	1778.83
480.531	1856.65
480.735	1647.76
480.94	1676.43
481.144	1823.89
481.348	1625.23
481.553	1782.93
481.757	1635.47
481.961	1770.64
482.166	1744.02
482.37	1698.96
482.574	1703.06
482.778	1746.06
482.983	1797.26
483.187	1672.34
483.391	1686.67
483.595	1668.24
483.8	1674.39
484.004	1778.83
484.208	1752.21
484.412	1680.53
484.616	1676.43
484.821	1756.3
485.025	1658
485.229	1668.24
485.433	1664.15
485.637	1725.58
485.841	1709.2
486.045	1821.84
486.249	1733.78
486.453	1592.47
486.657	1686.67
486.861	1698.96
487.065	1698.96
487.269	1645.71
487.473	1596.56
487.677	1694.86
487.881	1762.45
488.085	1715.34
488.289	1731.73
488.493	1717.39
488.697	1719.44
488.901	1797.26
489.105	1830.03
489.309	1727.63
489.512	1827.98
489.716	1752.21
489.92	1799.31
490.124	1813.65
490.328	1782.93
490.531	1813.65
490.735	1727.63
490.939	1832.08
491.143	1821.84
491.346	1707.15
491.55	1854.61
491.754	1801.36
491.958	1901.71
492.161	1850.51
492.365	1854.61
492.569	1905.81
492.772	1881.23
492.976	1940.62
493.18	1889.42
493.383	1961.1
493.587	2020.49
493.79	1952.91
493.994	1967.24
494.197	1936.53
494.401	1846.41
494.605	2049.16
494.808	1950.86
495.012	2088.07
495.215	2032.78
495.419	2045.07
495.622	2079.88
495.825	2004.11
496.029	2124.94
496.232	2153.61
496.436	2219.14
496.639	2249.86
496.843	2184.33
497.046	2239.62
497.249	2241.67
497.453	2292.87
497.656	2294.92
497.859	2356.36
498.063	2325.64
498.266	2368.65
498.469	2450.57
498.673	2512
498.876	2485.38
499.079	2436.23
499.282	2473.09
499.485	2626.69
499.689	2608.26
499.892	2669.7
500.095	2593.92
500.298	2784.38
500.501	2661.51
500.705	2800.77
500.908	2757.76
501.111	2872.45
501.314	2858.11
501.517	2952.32
501.72	2845.82
501.923	2876.54
502.126	2944.13
502.329	2999.42
502.532	3056.76
502.735	3099.77
502.938	3064.96
503.141	3159.16
503.344	3085.44
503.547	3282.04
503.75	3284.09
503.953	3431.54
504.156	3460.21
504.359	3402.87
504.562	3482.74
504.765	3519.6
504.968	3527.8
505.17	3585.14
505.373	3562.61
505.576	3673.2
505.779	3736.69
505.982	3847.28
506.185	3851.38
506.387	3921.01
506.59	3837.04
506.793	4097.13
506.996	4101.23
507.198	4140.14
507.401	3957.87
507.604	4201.58
507.807	4177
508.009	4338.79
508.212	4361.32
508.415	4437.09
508.617	4451.43
508.82	4416.62
509.022	4330.6
509.225	4533.35
509.428	4600.93
509.63	4772.96
509.833	4621.41
510.035	4908.13
510.238	4799.59
510.44	4957.28
510.643	4985.95
510.845	5108.83
511.048	5041.25
511.25	5217.37
511.453	5260.38
511.655	5352.54
511.858	5278.81
512.06	5416.02
512.262	5284.95
512.465	5401.69
512.667	5553.24
512.87	5618.77
513.072	5778.51
513.274	5653.59
513.477	5737.56
513.679	6001.74
513.881	5864.53
514.084	6018.13
514.286	5981.26
514.488	6153.29
514.69	6173.77
514.893	6138.96
515.095	6194.25
515.297	6460.49
515.499	6335.56
515.701	6317.13
515.904	6442.06
516.106	6710.34
516.308	6667.33
516.51	6790.21
516.712	6624.33
516.914	6841.41
517.116	6927.42
517.318	7121.98
517.52	7027.78
517.722	6958.14
517.925	7240.76
518.127	7173.18
518.329	7175.23
518.531	7492.66
518.733	7619.64
518.935	7666.74
519.136	7638.07
519.338	7568.44
519.54	7707.7
519.742	7836.72
519.944	7752.76
520.146	7949.36
520.348	8098.86
520.55	8135.73
520.752	7967.79
520.954	8301.61
521.155	8240.17
521.357	8240.17
521.559	8385.58
521.761	8541.22
521.963	8694.82
522.164	8633.38
522.366	8623.14
522.568	8838.18
522.77	8713.25
522.971	8854.56
523.173	8850.47
523.375	9088.03
523.576	8893.47
523.778	9030.69
523.98	9208.86
524.181	9075.74
524.383	9198.62
524.584	9405.47
524.786	9229.34
524.988	9325.6
525.189	9405.47
525.391	9391.13
525.592	9288.73
525.794	9718.81
525.995	9638.94
526.197	9663.51
526.398	9737.24
526.6	9729.05
526.801	9882.64
527.003	9782.29
527.204	9847.83
527.406	10007.57
527.607	9862.16
527.808	9956.37
528.01	9876.5
528.211	9919.51
528.412	10204.17
528.614	10163.22
528.815	9999.38
529.016	10148.88
529.218	10230.8
529.419	10261.52
529.62	10437.64
529.822	10310.67
530.023	10380.3
530.224	10331.15
530.425	10238.99
530.626	10220.56
530.828	10419.21
531.029	10656.78
531.23	10374.16
531.431	10372.11
531.632	10554.38
531.833	10529.8
532.035	10519.56
532.236	10468.36
532.437	10695.69
532.638	10378.25
532.839	10667.02
533.04	10535.95
533.241	10372.11
533.442	10888.2
533.643	10513.42
533.844	10732.55
534.045	10722.31
534.246	10554.38
534.447	10798.09
534.648	10648.58
534.849	10664.97
535.05	10599.43
535.251	10705.93
535.451	10910.72
535.652	10941.44
535.853	10765.32
536.054	10996.74
536.255	10783.75
536.456	10771.46
536.657	10779.65
536.857	10707.98
537.058	10728.45
537.259	10703.88
537.46	10724.36
537.66	10828.81
537.861	10654.73
538.062	10572.81
538.263	10744.84
538.463	10701.83
538.664	10789.89
538.865	10982.4
539.065	10728.45
539.266	10777.61
539.466	11070.47
539.667	10742.79
539.868	10796.04
540.068	10648.58
540.269	10650.63
540.469	10918.92
540.67	10677.26
540.87	10832.9
541.071	10810.37
541.271	10898.44
541.472	10775.56
541.672	10783.75
541.873	10611.72
542.073	10800.13
542.274	11054.08
542.474	10746.89
542.675	10652.68
542.875	10957.83
543.075	10943.49
543.276	10716.17
543.476	10853.38
543.676	10654.73
543.877	10877.96
544.077	10902.53
544.277	10783.75
544.478	10615.82
544.678	10785.8
544.878	10824.71
545.078	10939.4
545.279	10841.09
545.479	10562.57
545.679	10712.07
545.879	10955.78
546.079	10695.69
546.28	10730.5
546.48	10728.45
546.68	10726.41
546.88	10753.03
547.08	10783.75
547.28	10718.22
547.48	10669.06
547.68	10591.24
547.88	10626.06
548.081	10759.17
548.281	10873.86
548.481	10730.5
548.681	10826.76
548.881	10724.36
549.081	10982.4
549.28	10849.29
549.48	10832.9
549.68	10716.17
549.88	10994.69
550.08	10554.38
550.28	10767.37
550.48	10826.76
550.68	10793.99
550.88	10460.17
551.08	10845.19
551.279	10763.27
551.479	10720.26
551.679	10822.66
551.879	10621.96
552.079	10744.84
552.278	10576.91
552.478	10593.29
552.678	10773.51
552.878	10712.07
553.077	10646.54
553.277	10644.49
553.477	10920.96
553.676	10699.78
553.876	10654.73
554.076	10689.54
554.275	10757.13
554.475	10644.49
554.674	10497.03
554.874	10591.24
555.074	10765.32
555.273	10472.46
555.473	10765.32
555.672	10599.43
555.872	10529.8
556.071	10849.29
556.271	10738.69
556.47	10529.8
556.67	10456.08
556.869	10603.53
557.068	10494.99
557.268	10728.45
557.467	10642.44
557.667	10533.9
557.866	10486.79
558.065	10566.67
558.265	10347.53
558.464	10425.36
558.663	10576.91
558.863	10398.73
559.062	10607.62
559.261	10322.96
559.461	10503.18
559.66	10386.44
559.859	10353.68
560.058	10501.13
560.258	10497.03
560.457	10423.31
560.656	10519.56
560.855	10464.27
561.054	10374.16
561.253	10249.23
561.453	10269.71
561.652	10232.85
561.851	10271.76
562.05	10204.17
562.249	10114.06
562.448	10335.24
562.647	10382.35
562.846	10331.15
563.045	10179.6
563.244	10202.13
563.443	10261.52
563.642	10163.22
563.841	10372.11
564.04	9929.75
564.239	10370.06
564.438	10116.11
564.637	10286.09
564.836	9948.18
565.035	9995.28
565.234	10308.62
565.432	10056.72
565.631	9960.47
565.83	10193.94
566.029	10091.54
566.228	9989.14
566.427	9980.95
566.625	9835.54
566.824	9915.41
567.023	10193.94
567.222	9821.2
567.42	9866.26
567.619	9800.73
567.818	9935.89
568.016	9849.88
568.215	9831.44
568.414	9864.21
568.612	9966.61
568.811	9655.32
569.01	9833.49
569.208	9772.05
569.407	9640.98
569.605	9817.11
569.804	9743.38
570.002	9786.39
570.201	9606.17
570.4	9683.99
570.598	9573.4
570.797	9532.44
570.995	9667.61
571.193	9473.05
571.392	9573.4
571.59	9425.95
571.789	9534.49
571.987	9471
572.186	9262.11
572.384	9454.62
572.582	9573.4
572.781	9403.42
572.979	9255.97
573.177	9403.42
573.376	9397.28
573.574	9380.89
573.772	9245.73
573.971	9106.46
574.169	9356.32
574.367	9090.08
574.565	9221.15
574.763	9114.66
574.962	9301.02
575.16	9065.5
575.358	8924.19
575.556	8895.52
575.754	9188.38
575.952	9237.53
576.151	9092.13
576.349	8793.12
576.547	8746.02
576.745	8956.96
576.943	9172
577.141	8954.91
577.339	8864.8
577.537	8899.62
577.735	8881.19
577.933	8983.59
578.131	8819.75
578.329	8791.08
578.527	8623.14
578.725	8875.04
578.923	8741.93
579.121	8782.88
579.319	8510.5
579.516	8700.97
579.714	8799.27
579.912	8614.95
580.11	8578.09
580.308	8541.22
580.506	8520.74
580.704	8326.19
580.901	8567.85
581.099	8524.84
581.297	8494.12
581.495	8363.05
581.692	8453.16
581.89	8356.91
582.088	8584.23
582.285	8285.23
582.483	8252.46
582.681	8346.67
582.878	8100.91
583.076	8096.82
583.274	8334.38
583.471	8168.49
583.669	8246.32
583.866	8322.09
584.064	8178.73
584.262	8135.73
584.459	8244.27
584.657	8113.2
584.854	8182.83
585.052	7865.39
585.249	8043.57
585.447	7967.79
585.644	8051.76
585.841	7992.37
586.039	8094.77
586.236	8016.94
586.434	7994.42
586.631	7943.22
586.828	7980.08
587.026	7797.81
587.223	7846.96
587.42	7836.72
587.618	7849.01
587.815	7750.71
588.012	7633.97
588.21	7713.84
588.407	7910.45
588.604	7763
588.801	7664.69
588.999	7466.04
589.196	7748.66
589.393	7607.35
589.59	7539.77
589.787	7564.34
589.984	7517.24
590.182	7427.13
590.379	7482.42
590.576	7365.69
590.773	7539.77
590.97	7279.68
591.167	7414.84
591.364	7320.63
591.561	7498.81
591.758	7296.06
591.955	7097.41
592.152	7328.83
592.349	7261.24
592.546	7216.19
592.743	7212.09
592.94	7031.87
593.137	7334.97
593.334	7187.52
593.531	7097.41
593.727	7152.7
593.924	7300.16
594.121	7040.06
594.318	7083.07
594.515	6990.91
594.712	6990.91
594.908	7187.52
595.105	7025.73
595.302	6937.66
595.499	7062.59
595.696	6990.91
595.892	6786.12
596.089	7091.26
596.286	7009.34
596.482	6947.9
596.679	6906.95
596.876	6952
597.072	6902.85
597.269	6714.44
597.466	6618.18
597.662	6708.29
597.859	6822.98
598.055	6675.52
598.252	6509.64
598.448	6726.72
598.645	6597.7
598.841	6663.24
599.038	6663.24
599.234	6751.3
599.431	6503.5
599.627	6730.82
599.824	6384.71
600.02	6587.46
600.217	6638.66
600.413	6411.34
600.609	6452.3
600.806	6530.12
601.002	6298.7
601.198	6433.86
601.395	6472.78
601.591	6304.84
601.787	6489.16
601.984	6374.47
602.18	6313.03
602.376	6184.01
602.572	6313.03
602.769	6337.61
602.965	6220.88
603.161	6227.02
603.357	6235.21
603.553	6157.39
603.75	6218.83
603.946	6136.91
604.142	6132.81
604.338	6079.57
604.534	6065.23
604.73	6067.28
604.926	6059.09
605.122	6171.72
605.318	6141
605.514	6141
605.71	5928.02
605.906	5999.7
606.102	5852.24
606.298	6057.04
606.494	5805.14
606.69	5954.64
606.886	5944.4
607.082	5837.91
607.278	5848.15
607.474	5688.4
607.67	5835.86
607.866	5690.45
608.062	5819.47
608.257	5704.79
608.453	5569.62
608.649	5682.26
608.845	5639.25
609.041	5669.97
609.236	5792.85
609.432	5665.88
609.628	5727.32
609.824	5676.12
610.019	5483.61
610.215	5557.33
610.411	5663.83
610.606	5436.5
610.802	5663.83
610.998	5635.16
611.193	5434.46
611.389	5526.61
611.584	5495.89
611.78	5467.22
611.976	5524.57
612.171	5567.57
612.367	5418.07
612.562	5436.5
612.758	5358.68
612.953	5362.78
613.149	5368.92
613.344	5471.32
613.539	5454.94
613.735	5446.74
613.93	5391.45
614.126	5483.61
614.321	5313.63
614.517	5413.98
614.712	5262.43
614.907	5309.53
615.103	5252.19
615.298	5196.89
615.493	5332.06
615.688	5284.95
615.884	5395.54
616.079	5174.36
616.274	5254.23
616.47	5252.19
616.665	5184.6
616.86	5162.08
617.055	5336.15
617.25	5178.46
617.445	5243.99
617.641	5026.91
617.836	5139.55
618.031	5192.8
618.226	5184.6
618.421	5037.15
618.616	5074.01
618.811	4897.89
619.006	5076.06
619.201	4879.46
619.396	4949.09
619.591	4895.84
619.786	5071.97
619.981	5055.58
620.176	5018.72
620.371	4779.11
620.566	4811.87
620.761	4914.27
620.956	4852.83
621.151	4856.93
621.346	4740.19
621.541	4783.2
621.735	4877.41
621.93	4736.1
622.125	4660.32
622.32	4625.51
622.515	4637.8
622.709	4586.6
622.904	4582.5
623.099	4695.14
623.294	4496.49
623.488	4576.36
623.683	4639.84
623.878	4527.21
624.072	4418.66
624.267	4615.27
624.462	4201.58
624.656	4340.84
624.851	4428.9
625.046	4340.84
625.24	4400.23
625.435	4297.83
625.629	4314.22
625.824	4183.15
626.018	4291.69
626.213	4263.02
626.407	4328.55
626.602	4240.49
626.796	4142.19
626.991	4230.25
627.185	4064.36
627.38	4035.69
627.574	4123.76
627.768	3933.29
627.963	3939.44
628.157	3880.05
628.352	4027.5
628.546	3902.58
628.74	3959.92
628.935	3892.34
629.129	3951.73
629.323	3912.81
629.517	3794.03
629.712	3789.94
629.906	3697.78
630.1	3773.55
630.294	3830.9
630.489	3779.7
630.683	3777.65
630.877	3660.91
631.071	3693.68
631.265	3730.55
631.459	3681.39
631.653	3634.29
631.848	3546.23
632.042	3501.17
632.236	3599.48
632.43	3462.26
632.624	3538.04
632.818	3484.79
633.012	3574.9
633.206	3476.6
633.4	3605.62
633.594	3392.63
633.788	3359.86
633.982	3349.62
634.176	3468.41
634.369	3419.25
634.563	3419.25
634.757	3361.91
634.951	3361.91
635.145	3370.1
635.339	3279.99
635.533	3214.46
635.726	3265.66
635.92	3343.48
636.114	3277.94
636.308	3159.16
636.501	3177.59
636.695	3226.75
636.889	3269.75
637.083	3140.73
637.276	3058.81
637.47	3042.43
637.664	3136.63
637.857	3028.09
638.051	3159.16
638.244	2991.23
638.438	3019.9
638.632	3087.48
638.825	2974.85
639.019	2931.84
639.212	2907.26
639.406	2925.69
639.599	3003.52
639.793	2845.82
639.986	2905.21
640.18	3036.28
640.373	2985.09
640.567	2905.21
640.76	2841.73
640.954	2851.97
641.147	2671.75
641.34	2790.53
641.534	2710.66
641.727	2800.77
641.92	2862.21
642.114	2759.81
642.307	2665.6
642.5	2702.47
642.694	2661.51
642.887	2796.67
643.08	2718.85
643.273	2733.18
643.467	2573.44
643.66	2692.23
643.853	2548.87
644.046	2620.55
644.239	2514.05
644.432	2550.92
644.626	2552.96
644.819	2456.71
645.012	2581.64
645.205	2571.4
645.398	2348.17
645.591	2438.28
645.784	2522.24
645.977	2509.96
646.17	2505.86
646.363	2391.17
646.556	2434.18
646.749	2360.45
646.942	2428.04
647.135	2313.35
647.328	2397.32
647.521	2413.7
647.714	2389.13
647.907	2387.08
648.099	2290.82
648.292	2307.21
648.485	2198.67
648.678	2256.01
648.871	2208.9
649.064	2294.92
649.256	2288.78
649.449	2249.86
649.642	2294.92
649.835	2219.14
650.027	2143.37
650.22	2213
650.413	2065.55
650.605	2213
650.798	2217.1
650.991	2100.36
651.183	2180.23
651.376	2055.31
651.568	2081.93
651.761	2020.49
651.954	2116.75
652.146	2036.88
652.339	2049.16
652.531	2014.35
652.724	1989.77
652.916	1932.43
653.109	1909.9
653.301	2043.02
653.494	1954.96
653.686	1905.81
653.879	1848.46
654.071	2012.3
654.263	1934.48
654.456	1901.71
654.648	1965.2
654.84	1821.84
655.033	1805.46
655.225	1885.33
655.417	1842.32
655.61	1838.22
655.802	1791.12
655.994	1852.56
656.186	1928.33
656.379	1754.26
656.571	1834.13
656.763	1705.1
656.955	1797.26
657.148	1692.82
657.34	1678.48
657.532	1731.73
657.724	1690.77
657.916	1756.3
658.108	1629.33
658.3	1584.27
658.492	1680.53
658.684	1725.58
658.876	1653.91
659.068	1625.23
659.26	1576.08
659.452	1639.57
659.644	1535.12
659.836	1516.69
660.028	1623.19
660.22	1619.09
660.412	1662.1
660.604	1496.21
660.796	1668.24
660.988	1477.78
661.18	1586.32
661.372	1559.7
661.563	1424.53
661.755	1494.16
661.947	1510.55
662.139	1473.68
662.331	1434.77
662.522	1430.68
662.714	1481.88
662.906	1408.15
663.097	1391.77
663.289	1432.72
663.481	1414.29
663.673	1410.2
663.864	1354.9
664.056	1395.86
664.247	1350.81
664.439	1418.39
664.631	1354.9
664.822	1334.42
665.014	1406.1
665.205	1320.09
665.397	1363.09
665.588	1330.33
665.78	1299.61
665.971	1313.94
666.163	1258.65
666.354	1318.04
666.546	1227.93
666.737	1240.22
666.929	1299.61
667.12	1193.11
667.311	1244.31
667.503	1213.59
667.694	1234.07
667.885	1213.59
668.077	1279.13
668.268	1150.11
668.459	1328.28
668.651	1295.51
668.842	1234.07
669.033	1211.54
669.224	1207.45
669.416	1225.88
669.607	1152.15
669.798	1166.49
669.989	1160.34
670.18	1150.11
670.371	1180.82
670.563	1066.14
670.754	1068.19
670.945	1189.02
671.136	1160.34
671.327	1074.33
671.518	1119.39
671.709	1158.3
671.9	1107.1
672.091	1084.57
672.282	1029.27
672.473	1086.62
672.664	1039.51
672.855	1115.29
673.046	1086.62
673.237	1100.95
673.428	1051.8
673.619	1105.05
673.809	1019.04
674	1137.82
674.191	945.31
674.382	1057.95
674.573	1078.43
674.764	1010.84
674.954	1004.7
675.145	1053.85
675.336	1035.42
675.527	1053.85
675.717	1080.47
675.908	1004.7
676.099	1076.38
676.289	1014.94
676.48	949.4
676.671	1000.6
676.861	937.12
677.052	1031.32
677.243	990.36
677.433	1027.23
677.624	976.03
677.814	1014.94
678.005	945.31
678.195	1019.04
678.386	949.4
678.576	965.79
678.767	947.36
678.957	978.08
679.148	1021.08
679.338	963.74
679.529	894.11
679.719	885.92
679.909	994.46
680.1	916.64
680.29	973.98
680.481	1033.37
680.671	955.55
680.861	904.35
681.052	1025.18
681.242	988.32
681.432	955.55
681.622	992.41
681.813	906.4
682.003	939.16
682.193	930.97
682.383	924.83
682.573	943.26
682.764	949.4
682.954	920.73
683.144	887.97
683.334	1019.04
683.524	896.16
683.714	976.03
683.904	906.4
684.094	918.68
684.284	951.45
684.474	920.73
684.664	953.5
684.854	941.21
685.044	906.4
685.234	953.5
685.424	881.82
685.614	838.81
685.804	988.32
685.994	914.59
686.184	973.98
686.374	900.25
686.564	914.59
686.753	869.53
686.943	978.08
687.133	851.1
687.323	947.36
687.513	984.22
687.702	906.4
687.892	812.19
688.082	869.53
688.272	851.1
688.461	881.82
688.651	900.25
688.841	838.81
689.03	924.83
689.22	949.4
689.41	849.05
689.599	869.53
689.789	840.86
689.979	881.82
690.168	836.77
690.358	806.05
690.547	896.16
690.737	900.25
690.926	861.34
691.116	961.69
691.305	914.59
691.495	842.91
691.684	894.11
691.874	871.58
692.063	918.68
692.252	869.53
692.442	898.2
692.631	957.6
692.82	918.68
693.01	869.53
693.199	767.13
693.388	849.05
693.578	912.54
693.767	832.67
693.956	732.32
694.146	922.78
694.335	785.57
694.524	842.91
694.713	918.68
694.902	867.49
695.092	818.33
695.281	773.28
695.47	834.72
695.659	810.14
695.848	746.66
696.037	840.86
696.226	799.9
696.415	769.18
696.604	853.15
696.793	928.92
696.982	804
697.171	904.35
697.36	777.37
697.549	820.38
697.738	754.85
697.927	791.71
698.116	892.06
698.305	742.56
698.494	750.75
698.683	793.76
698.872	806.05
699.061	799.9
699.25	701.6
699.438	806.05
699.627	863.39
699.816	818.33
700.005	693.41
700.193	734.37
700.382	834.72
700.571	797.85
700.76	769.18
700.948	756.9
701.137	748.7
701.326	808.09
701.514	787.61
701.703	765.09
701.892	775.33
702.08	758.94
702.269	775.33
702.457	810.14
702.646	754.85
702.834	814.24
703.023	754.85
703.212	797.85
703.4	697.5
703.589	724.13
703.777	810.14
703.965	773.28
704.154	744.61
704.342	732.32
704.531	732.32
704.719	758.94
704.907	666.78
705.096	754.85
705.284	705.7
705.472	775.33
705.661	820.38
705.849	705.7
706.037	760.99
706.226	736.42
706.414	634.02
706.602	713.89
706.79	722.08
706.979	634.02
707.167	728.22
707.355	685.22
707.543	715.94
707.731	668.83
707.919	707.74
708.107	781.47
708.296	740.51
708.484	636.06
708.672	748.7
708.86	670.88
709.048	763.04
709.236	773.28
709.424	660.64
709.612	740.51
709.8	674.98
709.988	576.67
710.176	674.98
710.364	656.54
710.551	636.06
710.739	650.4
710.927	685.22
711.115	591.01
711.303	726.18
711.491	724.13
711.679	722.08
711.866	683.17
712.054	638.11
712.242	595.11
712.43	760.99
712.617	660.64
712.805	674.98
712.993	619.68
713.181	638.11
713.368	707.74
713.556	672.93
713.744	658.59
713.931	670.88
714.119	677.02
714.306	732.32
714.494	658.59
714.682	705.7
714.869	605.35
715.057	699.55
715.244	687.26
715.432	627.87
715.619	654.5
715.807	662.69
715.994	603.3
716.182	629.92
716.369	683.17
716.556	640.16
716.744	578.72
716.931	599.2
717.119	697.5
717.306	595.11
717.493	574.63
717.681	664.74
717.868	552.1
718.055	615.59
718.242	595.11
718.43	554.15
718.617	648.35
718.804	681.12
718.991	668.83
719.179	576.67
719.366	611.49
719.553	658.59
719.74	631.97
719.927	601.25
720.114	601.25
720.301	638.11
720.488	568.48
720.676	609.44
720.863	591.01
721.05	617.63
721.237	535.71
721.424	607.39
721.611	574.63
721.798	613.54
721.985	564.39
722.172	697.5
722.358	646.3
722.545	578.72
722.732	584.87
722.919	578.72
723.106	607.39
723.293	629.92
723.48	636.06
723.667	572.58
723.853	560.29
724.04	593.06
724.227	658.59
724.414	634.02
724.6	607.39
724.787	607.39
724.974	597.15
725.161	550.05
725.347	627.87
725.534	609.44
725.72	609.44
725.907	509.09
726.094	629.92
726.28	560.29
726.467	580.77
726.653	556.19
726.84	539.81
727.027	642.21
727.213	537.76
727.4	634.02
727.586	578.72
727.773	607.39
727.959	545.95
728.145	574.63
728.332	572.58
728.518	474.28
728.705	607.39
728.891	484.52
729.077	554.15
729.264	619.68
729.45	611.49
729.636	601.25
729.823	552.1
730.009	550.05
730.195	494.76
730.382	609.44
730.568	564.39
730.754	515.23
730.94	566.43
731.126	564.39
731.313	541.86
731.499	601.25
731.685	576.67
731.871	574.63
732.057	603.3
732.243	511.14
732.429	586.91
732.615	492.71
732.801	423.08
732.987	502.95
733.173	642.21
733.359	597.15
733.545	490.66
733.731	523.43
733.917	519.33
734.103	554.15
734.289	556.19
734.475	539.81
734.661	631.97
734.847	570.53
735.033	572.58
735.219	566.43
735.404	513.19
735.59	527.52
735.776	623.78
735.962	574.63
736.148	644.26
736.333	591.01
736.519	519.33
736.705	543.91
736.89	457.89
737.076	527.52
737.262	494.76
737.447	541.86
737.633	537.76
737.819	595.11
738.004	519.33
738.19	552.1
738.375	539.81
738.561	490.66
738.747	679.07
738.932	507.04
739.118	570.53
739.303	447.65
739.489	500.9
739.674	537.76
739.859	498.85
740.045	527.52
740.23	580.77
740.416	531.62
740.601	599.2
740.786	472.23
740.972	556.19
741.157	525.47
741.342	451.75
741.528	490.66
741.713	509.09
741.898	509.09
742.084	566.43
742.269	494.76
742.454	453.8
742.639	607.39
742.824	486.56
743.01	527.52
743.195	531.62
743.38	498.85
743.565	455.84
743.75	574.63
743.935	531.62
744.12	511.14
744.305	455.84
744.49	519.33
744.675	478.37
744.86	388.26
745.045	519.33
745.23	457.89
745.415	500.9
745.6	486.56
745.785	427.17
745.97	486.56
746.155	464.04
746.34	548
746.525	412.84
746.71	504.99
746.895	455.84
747.079	513.19
747.264	529.57
747.449	488.61
747.634	490.66
747.819	496.8
748.003	445.6
748.188	461.99
748.373	437.41
748.557	447.65
748.742	464.04
748.927	468.13
749.111	519.33
749.296	515.23
749.481	439.46
749.665	394.4
749.85	355.49
750.034	423.08
750.219	445.6
750.404	464.04
750.588	517.28
750.773	423.08
750.957	326.82
751.141	406.69
751.326	423.08
751.51	451.75
751.695	363.69
751.879	474.28
752.064	455.84
752.248	439.46
752.432	461.99
752.617	443.56
752.801	382.12
752.985	390.31
753.17	416.93
753.354	314.53
753.538	347.3
753.722	359.59
753.907	308.39
754.091	410.79
754.275	345.25
754.459	351.4
754.643	459.94
754.828	357.54
755.012	341.16
755.196	337.06
755.38	443.56
755.564	277.67
755.748	394.4
755.932	361.64
756.116	402.6
756.3	324.77
756.484	390.31
756.668	365.73
756.852	302.25
757.036	365.73
757.22	337.06
757.404	312.49
757.588	337.06
757.772	404.64
757.956	320.68
758.14	349.35
758.323	310.44
758.507	302.25
758.691	339.11
758.875	312.49
759.059	330.92
759.242	335.01
759.426	345.25
759.61	324.77
759.794	322.73
759.977	449.7
760.161	382.12
760.345	302.25
760.528	314.53
760.712	300.2
760.895	298.15
761.079	240.81
761.263	310.44
761.446	251.05
761.63	263.33
761.813	289.96
761.997	316.58
762.18	308.39
762.364	287.91
762.547	324.77
762.731	259.24
762.914	306.34
763.098	320.68
763.281	259.24
763.464	339.11
763.648	357.54
763.831	312.49
764.015	249
764.198	212.14
764.381	308.39
764.564	267.43
764.748	273.57
764.931	189.61
765.114	253.09
765.297	312.49
765.481	261.29
765.664	312.49
765.847	273.57
766.03	322.73
766.213	203.94
766.397	265.38
766.58	275.62
766.763	263.33
766.946	208.04
767.129	281.77
767.312	347.3
767.495	261.29
767.678	273.57
767.861	277.67
768.044	218.28
768.227	300.2
768.41	283.81
768.593	287.91
768.776	281.77
768.959	228.52
769.142	316.58
769.324	253.09
769.507	244.9
769.69	275.62
769.873	226.47
770.056	296.1
770.239	218.28
770.421	273.57
770.604	228.52
770.787	294.05
770.97	285.86
771.152	283.81
771.335	191.66
771.518	242.85
771.7	183.46
771.883	355.49
772.066	218.28
772.248	181.42
772.431	242.85
772.613	195.75
772.796	242.85
772.978	234.66
773.161	210.09
773.343	289.96
773.526	177.32
773.708	300.2
773.891	152.74
774.073	216.23
774.256	218.28
774.438	230.57
774.621	224.42
774.803	218.28
774.985	195.75
775.168	263.33
775.35	232.62
775.532	259.24
775.715	210.09
775.897	226.47
776.079	228.52
776.261	222.38
776.444	277.67
776.626	122.02
776.808	183.46
776.99	257.19
777.173	220.33
777.355	160.94
777.537	195.75
777.719	232.62
777.901	154.79
778.083	146.6
778.265	156.84
778.447	222.38
778.629	128.17
778.811	169.13
778.993	142.5
779.175	177.32
779.357	193.7
779.539	185.51
779.721	154.79
779.903	226.47
780.085	130.22
780.267	162.98
780.449	156.84
780.631	175.27
780.812	154.79
780.994	167.08
781.176	179.37
781.358	126.12
781.54	142.5
781.721	134.31
781.903	171.18
782.085	140.46
782.267	185.51
782.448	214.18
782.63	95.4
782.812	169.13
782.993	117.93
783.175	203.94
783.357	199.85
783.538	124.07
783.72	171.18
783.901	152.74
784.083	99.5
784.264	220.33
784.446	175.27
784.627	171.18
784.809	64.68
784.99	95.4
785.172	105.64
785.353	167.08
785.535	109.74
785.716	158.89
785.897	150.7
786.079	109.74
786.26	105.64
786.441	81.07
786.623	66.73
786.804	138.41
786.985	158.89
787.167	113.83
787.348	142.5
787.529	183.46
787.71	124.07
787.891	138.41
788.073	122.02
788.254	130.22
788.435	109.74
788.616	169.13
788.797	154.79
788.978	142.5
789.159	111.78
789.34	140.46
789.522	79.02
789.703	130.22
789.884	97.45
790.065	126.12
790.246	81.07
790.427	130.22
790.607	79.02
790.788	89.26
790.969	46.25
791.15	169.13
791.331	107.69
791.512	148.65
791.693	95.4
791.874	162.98
792.054	105.64
792.235	103.59
792.416	52.39
792.597	193.7
792.778	70.83
792.958	173.22
793.139	138.41
793.32	119.98
793.5	38.06
793.681	119.98
793.862	105.64
794.042	15.53
794.223	97.45
794.404	99.5
794.584	46.25
794.765	113.83
794.945	99.5
795.126	76.97
795.306	60.59
795.487	105.64
795.667	81.07
795.848	93.35
796.028	140.46
796.209	144.55
796.389	113.83
796.57	70.83
796.75	62.63
796.93	74.92
797.111	101.55
797.291	85.16
797.471	5.29
797.652	119.98
797.832	11.43
798.012	160.94
798.192	81.07
798.373	115.88
798.553	158.89
798.733	54.44
798.913	68.78
799.093	85.16
799.274	103.59
799.454	62.63
799.634	68.78
799.814	130.22
799.994	83.11
800.174	162.98
800.354	50.35
800.534	105.64
800.714	70.83
800.894	60.59
801.074	60.59
801.254	64.68
801.434	74.92
801.614	91.31
801.794	58.54
801.974	287.91
802.154	97.45
802.334	103.59
802.514	107.69
802.693	150.7
802.873	36.01
803.053	66.73
803.233	29.87
803.413	58.54
803.592	23.72
803.772	27.82
803.952	21.67
804.131	89.26
804.311	17.58
804.491	52.39
804.67	48.3
804.85	13.48
805.03	19.63
805.209	-0.85
805.389	70.83
805.568	124.07
805.748	23.72
805.928	56.49
806.107	85.16
806.287	109.74
806.466	52.39
806.646	7.34
806.825	107.69
807.004	62.63
807.184	21.67
807.363	142.5
807.543	58.54
807.722	62.63
807.901	103.59
808.081	46.25
808.26	-0.85
808.439	50.35
808.619	142.5
808.798	101.55
808.977	56.49
809.156	46.25
809.336	38.06
809.515	23.72
809.694	52.39
809.873	48.3
810.052	93.35
810.231	54.44
810.411	97.45
810.59	-17.24
810.769	42.15
810.948	23.72
811.127	72.87
811.306	85.16
811.485	44.2
811.664	72.87
811.843	19.63
812.022	103.59
812.201	54.44
812.38	44.2
812.559	21.67
812.737	25.77
812.916	-11.09
813.095	66.73
813.274	124.07
813.453	81.07
813.632	27.82
813.811	52.39
813.989	-7
814.168	122.02
814.347	1.19
814.526	89.26
814.704	40.11
814.883	36.01
815.062	19.63
815.24	66.73
815.419	48.3
815.598	44.2
815.776	31.91
815.955	99.5
816.133	-31.57
816.312	60.59
816.49	-4.95
816.669	52.39
816.847	33.96
817.026	3.24
817.204	23.72
817.383	-4.95
817.561	52.39
817.74	91.31
817.918	-31.57
818.097	64.68
818.275	3.24
818.453	-33.62
818.632	68.78
818.81	33.96
818.988	62.63
819.167	81.07
819.345	7.34
819.523	31.91
819.701	29.87
819.879	27.82
820.058	-23.38
820.236	36.01
820.414	19.63
820.592	68.78
820.77	38.06
820.948	36.01
821.127	-27.48
821.305	38.06
821.483	-4.95
821.661	66.73
821.839	105.64
822.017	27.82
822.195	3.24
822.373	13.48
822.551	19.63
822.729	79.02
822.907	1.19
823.085	19.63
823.262	33.96
823.44	-21.33
823.618	-2.9
823.796	48.3
823.974	38.06
824.152	46.25
824.329	3.24
824.507	-9.05
824.685	19.63
824.863	58.54
825.04	21.67
825.218	19.63
825.396	33.96
825.574	31.91
825.751	66.73
825.929	83.11
826.107	27.82
826.284	44.2
826.462	58.54
826.639	-11.09
826.817	85.16
826.994	46.25
827.172	95.4
827.349	40.11
827.527	-33.62
827.704	3.24
827.882	48.3
828.059	11.43
828.237	11.43
828.414	91.31
828.591	13.48
828.769	15.53
828.946	23.72
829.124	11.43
829.301	3.24
829.478	42.15
829.655	11.43
829.833	-0.85
830.01	48.3
830.187	85.16
830.364	42.15
830.542	46.25
830.719	40.11
830.896	29.87
831.073	15.53
831.25	17.58
831.427	64.68
831.604	36.01
831.782	-7
831.959	25.77
832.136	60.59
832.313	56.49
832.49	-33.62
832.667	36.01
832.844	93.35
833.021	-35.67
833.198	54.44
833.374	-4.95
833.551	54.44
833.728	36.01
833.905	-2.9
834.082	-29.52
834.259	31.91
834.436	-70.48
834.612	-2.9
834.789	52.39
834.966	36.01
835.143	81.07
835.319	-19.29
835.496	48.3
835.673	54.44
835.85	56.49
836.026	-27.48
836.203	3.24
836.38	-35.67
836.556	7.34
836.733	27.82
836.909	60.59
837.086	-21.33
837.262	76.97
837.439	5.29
837.616	-13.14
837.792	-25.43
837.968	142.5
838.145	27.82
838.321	15.53
838.498	60.59
838.674	48.3
838.851	-11.09
839.027	15.53
839.203	-37.72
839.38	5.29
839.556	-117.59
839.732	54.44
839.909	36.01
840.085	60.59
840.261	58.54
840.437	76.97
840.614	7.34
840.79	46.25
840.966	-13.14
841.142	-21.33
841.318	5.29
841.494	15.53
841.671	1.19
841.847	-27.48
842.023	13.48
842.199	15.53
842.375	52.39
842.551	27.82
842.727	93.35
842.903	72.87
843.079	3.24
843.255	29.87
843.431	-47.96
843.607	33.96
843.783	25.77
843.959	85.16
844.134	-39.76
844.31	-37.72
844.486	-0.85
844.662	52.39
844.838	23.72
845.013	25.77
845.189	13.48
845.365	-31.57
845.541	13.48
845.716	68.78
845.892	-37.72
846.068	-7
846.244	79.02
846.419	103.59
846.595	11.43
846.77	36.01
846.946	25.77
847.122	-17.24
847.297	-19.29
847.473	-21.33
847.648	62.63
847.824	-9.05
847.999	-15.19
848.175	-25.43
848.35	-45.91
848.526	54.44
848.701	-21.33
848.876	68.78
849.052	44.2
849.227	19.63
849.403	15.53
849.578	-15.19
849.753	52.39
849.929	11.43
850.104	-13.14
850.279	36.01
850.454	52.39
850.63	117.93
850.805	-47.96
850.98	5.29
851.155	-37.72
851.33	25.77
851.505	-13.14
851.681	64.68
851.856	50.35
852.031	36.01
852.206	-9.05
852.381	-35.67
852.556	-15.19
852.731	-33.62
852.906	25.77
853.081	31.91
853.256	-45.91
853.431	66.73
853.606	3.24
853.781	-33.62
853.956	-17.24
854.131	7.34
854.305	15.53
854.48	-31.57
854.655	3.24
854.83	-4.95
855.005	-39.76
855.18	42.15
855.354	19.63
855.529	-11.09
855.704	1.19
855.879	21.67
856.053	19.63
856.228	74.92
856.403	-21.33
856.577	15.53
856.752	87.21
856.926	5.29
857.101	9.39
857.276	-62.29
857.45	25.77
857.625	58.54
857.799	-0.85
857.974	50.35
858.148	3.24
858.323	-58.2
858.497	-9.05
858.672	33.96
858.846	1.19
859.02	48.3
859.195	-62.29
859.369	52.39
859.543	31.91
859.718	50.35
859.892	21.67
860.066	64.68
860.241	-21.33
860.415	25.77
860.589	13.48
860.763	56.49
860.938	-17.24
861.112	-47.96
861.286	109.74
861.46	-7
861.634	-74.58
861.808	13.48
861.982	-78.68
862.157	-35.67
862.331	21.67
862.505	31.91
862.679	3.24
862.853	60.59
863.027	-50
863.201	31.91
863.375	-68.44
863.549	50.35
863.722	25.77
863.896	93.35
864.07	19.63
864.244	5.29
864.418	-11.09
864.592	-19.29
864.766	-50
864.939	3.24
865.113	-33.62
865.287	62.63
865.461	11.43
865.634	-37.72
865.808	-33.62
865.982	11.43
866.156	-25.43
866.329	7.34
866.503	-41.81
866.676	21.67
866.85	52.39
867.024	-9.05
867.197	11.43
867.371	-7
867.544	-56.15
867.718	-35.67
867.891	-11.09
868.065	42.15
868.238	13.48
868.412	-31.57
868.585	9.39
868.759	62.63
868.932	-4.95
869.105	-17.24
869.279	-62.29
869.452	-41.81
869.625	17.58
869.799	-13.14
869.972	1.19
870.145	1.19
870.319	25.77
870.492	-70.48
870.665	-33.62
870.838	48.3
871.011	-72.53
871.185	-13.14
871.358	-37.72
871.531	40.11
871.704	-35.67
871.877	-13.14
872.05	-29.52
872.223	19.63
872.396	25.77
872.569	7.34
872.742	-62.29
872.915	19.63
873.088	-7
873.261	31.91
873.434	19.63
873.607	-37.72
873.78	-4.95
873.953	64.68
874.126	46.25
874.299	-17.24
874.471	7.34
874.644	21.67
874.817	-84.82
874.99	76.97
875.163	-72.53
875.335	-103.25
875.508	-2.9
875.681	1.19
875.853	-7
876.026	-0.85
876.199	-4.95
876.371	-45.91
876.544	33.96
876.717	48.3
876.889	29.87
877.062	85.16
877.234	56.49
877.407	79.02
877.579	-27.48
877.752	19.63
877.924	-93.01
878.097	23.72
878.269	-29.52
878.442	52.39
878.614	17.58
878.786	-74.58
878.959	19.63
879.131	27.82
879.303	-2.9
879.476	72.87
879.648	-4.95
879.82	3.24
879.993	33.96
880.165	15.53
880.337	-37.72
880.509	42.15
880.681	29.87
880.854	-4.95
881.026	25.77
881.198	-13.14
881.37	-33.62
881.542	-4.95
881.714	95.4
881.886	3.24
882.058	3.24
882.23	31.91
882.402	-21.33
882.574	25.77
882.746	-31.57
882.918	-13.14
883.09	23.72
883.262	93.35
883.434	-29.52
883.606	-21.33
883.778	-2.9
883.95	15.53
884.122	1.19
884.293	64.68
884.465	-31.57
884.637	-2.9
884.809	23.72
884.98	23.72
885.152	1.19
885.324	-31.57
885.496	-52.05
885.667	52.39
885.839	-11.09
886.011	66.73
886.182	-50
886.354	42.15
886.525	40.11
886.697	-15.19
886.869	23.72
887.04	58.54
887.212	-25.43
887.383	23.72
887.555	5.29
887.726	-21.33
887.897	-0.85
888.069	64.68
888.24	-17.24
888.412	13.48
888.583	-9.05
888.754	5.29
888.926	62.63
889.097	11.43
889.268	13.48
889.44	-0.85
889.611	-9.05
889.782	-39.76
889.953	1.19
890.125	62.63
890.296	-13.14
890.467	-15.19
890.638	-4.95
890.809	-4.95
890.98	-31.57
891.151	60.59
891.323	-43.86
891.494	-19.29
891.665	-25.43
891.836	-15.19
892.007	-43.86
892.178	38.06
892.349	-78.68
892.52	23.72
892.691	15.53
892.862	1.19
893.032	-52.05
893.203	3.24
893.374	-9.05
893.545	66.73
893.716	-9.05
893.887	-66.39
894.057	66.73
894.228	11.43
894.399	-21.33
894.57	60.59
894.74	48.3
894.911	23.72
895.082	-37.72
895.253	-17.24
895.423	-41.81
895.594	15.53
895.764	27.82
895.935	-66.39
896.106	-11.09
896.276	48.3
896.447	-95.06
896.617	-23.38
896.788	54.44
896.958	9.39
897.129	11.43
897.299	15.53
897.47	9.39
897.64	-19.29
897.81	52.39
897.981	11.43
898.151	25.77
898.322	9.39
898.492	11.43
898.662	72.87
898.832	21.67
899.003	70.83
899.173	-4.95
899.343	-41.81
899.513	-15.19
