Data from USB4F104151__89__12-54-51-542.txt Node

Date: Fri Mar 14 12:54:51 EDT 2025
User: louis
Spectrometer: USB4F10415
Trigger mode: 4
Integration Time (sec): 1.000000E-2
Scans to average: 1
Electric dark correction enabled: true
Nonlinearity correction enabled: false
Boxcar width: 0
XAxis mode: Wavelengths
Number of Pixels in Spectrum: 3648
>>>>>Begin Spectral Data<<<<<
178.204	-25.09
178.424	-25.09
178.644	-25.09
178.864	-92.67
179.084	-0.51
179.304	-57.86
179.524	11.78
179.744	-41.47
179.964	7.68
180.184	3.58
180.404	67.07
180.624	22.02
180.844	28.16
181.064	-6.66
181.283	-39.42
181.503	17.92
181.723	-12.8
181.943	42.5
182.163	44.54
182.383	1.54
182.602	34.3
182.822	22.02
183.042	5.63
183.262	62.98
183.482	-59.9
183.701	11.78
183.921	24.06
184.141	42.5
184.361	11.78
184.58	-8.7
184.8	67.07
185.02	-43.52
185.239	32.26
185.459	11.78
185.679	-59.9
185.898	42.5
186.118	36.35
186.338	44.54
186.557	1.54
186.777	-33.28
186.997	17.92
187.216	48.64
187.436	77.31
187.655	22.02
187.875	112.13
188.095	-12.8
188.314	28.16
188.534	91.65
188.753	69.12
188.973	36.35
189.192	56.83
189.412	24.06
189.631	7.68
189.851	54.78
190.07	1.54
190.29	-31.23
190.509	38.4
190.729	22.02
190.948	58.88
191.168	24.06
191.387	28.16
191.607	15.87
191.826	26.11
192.045	85.5
192.265	11.78
192.484	-31.23
192.704	22.02
192.923	13.82
193.142	28.16
193.362	22.02
193.581	32.26
193.8	22.02
194.02	52.74
194.239	71.17
194.458	19.97
194.678	-41.47
194.897	40.45
195.116	-8.7
195.335	-8.7
195.555	50.69
195.774	67.07
195.993	-47.62
196.212	24.06
196.432	-64
196.651	19.97
196.87	24.06
197.089	79.36
197.308	58.88
197.528	26.11
197.747	11.78
197.966	44.54
198.185	7.68
198.404	32.26
198.623	36.35
198.842	-23.04
199.062	17.92
199.281	75.26
199.5	11.78
199.719	-14.85
199.938	56.83
200.157	52.74
200.376	-8.7
200.595	36.35
200.814	30.21
201.033	71.17
201.252	79.36
201.471	48.64
201.69	13.82
201.909	30.21
202.128	-10.75
202.347	101.89
202.566	-18.94
202.785	-16.9
203.004	99.84
203.223	52.74
203.442	11.78
203.661	42.5
203.879	22.02
204.098	101.89
204.317	48.64
204.536	58.88
204.755	85.5
204.974	75.26
205.193	32.26
205.411	79.36
205.63	44.54
205.849	56.83
206.068	17.92
206.287	22.02
206.505	-0.51
206.724	13.82
206.943	-10.75
207.162	-35.33
207.381	75.26
207.599	-41.47
207.818	-2.56
208.037	32.26
208.255	34.3
208.474	32.26
208.693	50.69
208.911	-10.75
209.13	-2.56
209.349	19.97
209.567	56.83
209.786	1.54
210.005	56.83
210.223	-2.56
210.442	-27.14
210.661	-6.66
210.879	73.21
211.098	67.07
211.316	9.73
211.535	28.16
211.753	5.63
211.972	26.11
212.191	34.3
212.409	28.16
212.628	-10.75
212.846	56.83
213.065	-61.95
213.283	-27.14
213.502	-39.42
213.72	58.88
213.938	22.02
214.157	22.02
214.375	-12.8
214.594	36.35
214.812	30.21
215.031	-12.8
215.249	-16.9
215.467	89.6
215.686	-27.14
215.904	24.06
216.122	19.97
216.341	44.54
216.559	77.31
216.778	-6.66
216.996	101.89
217.214	48.64
217.432	42.5
217.651	-37.38
217.869	83.45
218.087	44.54
218.306	30.21
218.524	38.4
218.742	81.41
218.96	-4.61
219.179	60.93
219.397	22.02
219.615	11.78
219.833	71.17
220.051	9.73
220.27	69.12
220.488	5.63
220.706	34.3
220.924	-25.09
221.142	-12.8
221.36	30.21
221.578	-6.66
221.796	28.16
222.015	42.5
222.233	128.51
222.451	54.78
222.669	36.35
222.887	42.5
223.105	38.4
223.323	3.58
223.541	-20.99
223.759	17.92
223.977	-6.66
224.195	60.93
224.413	73.21
224.631	32.26
224.849	81.41
225.067	50.69
225.285	58.88
225.503	73.21
225.721	9.73
225.939	5.63
226.157	44.54
226.375	71.17
226.592	-37.38
226.81	32.26
227.028	-39.42
227.246	22.02
227.464	58.88
227.682	-6.66
227.9	58.88
228.117	11.78
228.335	46.59
228.553	112.13
228.771	-39.42
228.989	-8.7
229.206	54.78
229.424	58.88
229.642	71.17
229.86	1.54
230.077	24.06
230.295	101.89
230.513	-6.66
230.731	126.46
230.948	83.45
231.166	3.58
231.384	38.4
231.601	3.58
231.819	52.74
232.037	71.17
232.254	50.69
232.472	73.21
232.689	11.78
232.907	24.06
233.125	91.65
233.342	77.31
233.56	40.45
233.777	-14.85
233.995	22.02
234.213	62.98
234.43	17.92
234.648	42.5
234.865	-41.47
235.083	44.54
235.3	15.87
235.518	24.06
235.735	5.63
235.953	1.54
236.17	-0.51
236.388	15.87
236.605	62.98
236.822	118.27
237.04	22.02
237.257	36.35
237.475	-25.09
237.692	54.78
237.909	40.45
238.127	-6.66
238.344	-6.66
238.562	-8.7
238.779	108.03
238.996	105.98
239.214	19.97
239.431	1.54
239.648	-2.56
239.865	11.78
240.083	50.69
240.3	46.59
240.517	11.78
240.735	-6.66
240.952	120.32
241.169	62.98
241.386	56.83
241.603	44.54
241.821	34.3
242.038	34.3
242.255	36.35
242.472	54.78
242.689	-2.56
242.907	-31.23
243.124	13.82
243.341	-14.85
243.558	42.5
243.775	44.54
243.992	50.69
244.209	71.17
244.426	73.21
244.643	-4.61
244.86	-43.52
245.078	19.97
245.295	36.35
245.512	-43.52
245.729	9.73
245.946	1.54
246.163	11.78
246.38	44.54
246.597	36.35
246.814	-27.14
247.031	19.97
247.248	28.16
247.464	-29.18
247.681	71.17
247.898	36.35
248.115	19.97
248.332	34.3
248.549	103.93
248.766	65.02
248.983	67.07
249.2	36.35
249.417	1.54
249.633	-4.61
249.85	89.6
250.067	77.31
250.284	38.4
250.501	-6.66
250.717	-6.66
250.934	67.07
251.151	13.82
251.368	19.97
251.585	81.41
251.801	-27.14
252.018	26.11
252.235	46.59
252.451	19.97
252.668	62.98
252.885	48.64
253.102	73.21
253.318	71.17
253.535	44.54
253.752	15.87
253.968	9.73
254.185	26.11
254.401	26.11
254.618	-27.14
254.835	69.12
255.051	110.08
255.268	46.59
255.484	46.59
255.701	24.06
255.917	19.97
256.134	-8.7
256.351	65.02
256.567	-76.29
256.784	69.12
257	-64
257.217	7.68
257.433	32.26
257.65	91.65
257.866	40.45
258.082	-2.56
258.299	-18.94
258.515	130.56
258.732	24.06
258.948	52.74
259.165	50.69
259.381	17.92
259.597	81.41
259.814	-12.8
260.03	7.68
260.246	101.89
260.463	65.02
260.679	22.02
260.895	17.92
261.112	71.17
261.328	44.54
261.544	7.68
261.761	81.41
261.977	65.02
262.193	-25.09
262.409	81.41
262.626	42.5
262.842	46.59
263.058	22.02
263.274	-29.18
263.49	-29.18
263.707	42.5
263.923	7.68
264.139	34.3
264.355	87.55
264.571	44.54
264.787	71.17
265.004	58.88
265.22	71.17
265.436	24.06
265.652	30.21
265.868	13.82
266.084	46.59
266.3	30.21
266.516	-14.85
266.732	108.03
266.948	48.64
267.164	22.02
267.38	50.69
267.596	81.41
267.812	9.73
268.028	30.21
268.244	48.64
268.46	28.16
268.676	42.5
268.892	1.54
269.108	7.68
269.324	-2.56
269.54	67.07
269.756	40.45
269.972	-45.57
270.188	71.17
270.403	48.64
270.619	95.74
270.835	81.41
271.051	60.93
271.267	5.63
271.483	77.31
271.698	77.31
271.914	73.21
272.13	17.92
272.346	48.64
272.562	-31.23
272.777	79.36
272.993	-20.99
273.209	-12.8
273.425	-4.61
273.64	91.65
273.856	58.88
274.072	-2.56
274.287	42.5
274.503	26.11
274.719	85.5
274.934	71.17
275.15	73.21
275.366	65.02
275.581	50.69
275.797	22.02
276.012	-4.61
276.228	32.26
276.444	7.68
276.659	62.98
276.875	77.31
277.09	38.4
277.306	-31.23
277.521	28.16
277.737	34.3
277.952	65.02
278.168	-35.33
278.383	38.4
278.599	-4.61
278.814	112.13
279.03	15.87
279.245	-2.56
279.461	62.98
279.676	118.27
279.892	-53.76
280.107	132.61
280.322	11.78
280.538	44.54
280.753	-68.09
280.969	-53.76
281.184	-41.47
281.399	58.88
281.615	-10.75
281.83	75.26
282.045	69.12
282.26	44.54
282.476	15.87
282.691	-2.56
282.906	48.64
283.122	-6.66
283.337	48.64
283.552	15.87
283.767	87.55
283.983	19.97
284.198	-6.66
284.413	67.07
284.628	-18.94
284.843	50.69
285.058	24.06
285.274	5.63
285.489	38.4
285.704	22.02
285.919	81.41
286.134	5.63
286.349	-0.51
286.564	5.63
286.779	112.13
286.995	87.55
287.21	-12.8
287.425	22.02
287.64	-10.75
287.855	50.69
288.07	28.16
288.285	3.58
288.5	110.08
288.715	71.17
288.93	34.3
289.145	34.3
289.36	38.4
289.575	56.83
289.79	50.69
290.004	3.58
290.219	32.26
290.434	-2.56
290.649	32.26
290.864	34.3
291.079	50.69
291.294	5.63
291.509	85.5
291.724	108.03
291.938	40.45
292.153	34.3
292.368	-12.8
292.583	60.93
292.798	87.55
293.012	34.3
293.227	-49.66
293.442	-37.38
293.657	-31.23
293.871	108.03
294.086	71.17
294.301	46.59
294.516	15.87
294.73	91.65
294.945	-45.57
295.16	32.26
295.374	9.73
295.589	71.17
295.804	32.26
296.018	44.54
296.233	46.59
296.447	58.88
296.662	19.97
296.877	97.79
297.091	34.3
297.306	1.54
297.52	44.54
297.735	56.83
297.949	-10.75
298.164	-6.66
298.378	26.11
298.593	38.4
298.807	36.35
299.022	19.97
299.236	38.4
299.451	-6.66
299.665	56.83
299.88	65.02
300.094	-25.09
300.309	13.82
300.523	73.21
300.737	42.5
300.952	91.65
301.166	89.6
301.381	-27.14
301.595	56.83
301.809	-33.28
302.024	19.97
302.238	-33.28
302.452	71.17
302.667	7.68
302.881	38.4
303.095	-16.9
303.309	52.74
303.524	54.78
303.738	32.26
303.952	44.54
304.166	13.82
304.381	-41.47
304.595	128.51
304.809	9.73
305.023	28.16
305.237	-78.33
305.452	85.5
305.666	56.83
305.88	48.64
306.094	40.45
306.308	28.16
306.522	15.87
306.736	38.4
306.95	34.3
307.164	3.58
307.379	-16.9
307.593	67.07
307.807	110.08
308.021	110.08
308.235	42.5
308.449	93.69
308.663	26.11
308.877	58.88
309.091	44.54
309.305	32.26
309.519	75.26
309.733	22.02
309.947	13.82
310.161	17.92
310.374	112.13
310.588	44.54
310.802	9.73
311.016	83.45
311.23	124.41
311.444	58.88
311.658	87.55
311.872	-43.52
312.085	138.75
312.299	-2.56
312.513	-25.09
312.727	15.87
312.941	85.5
313.154	-25.09
313.368	42.5
313.582	54.78
313.796	73.21
314.009	46.59
314.223	69.12
314.437	-10.75
314.651	26.11
314.864	9.73
315.078	40.45
315.292	116.22
315.505	19.97
315.719	7.68
315.933	-31.23
316.146	-4.61
316.36	-37.38
316.573	114.17
316.787	77.31
317.001	67.07
317.214	87.55
317.428	32.26
317.641	36.35
317.855	11.78
318.068	52.74
318.282	60.93
318.495	54.78
318.709	32.26
318.922	-41.47
319.136	-25.09
319.349	24.06
319.563	56.83
319.776	42.5
319.99	52.74
320.203	67.07
320.417	44.54
320.63	-0.51
320.843	22.02
321.057	54.78
321.27	3.58
321.483	69.12
321.697	22.02
321.91	52.74
322.124	36.35
322.337	38.4
322.55	1.54
322.763	5.63
322.977	22.02
323.19	52.74
323.403	30.21
323.617	-12.8
323.83	79.36
324.043	36.35
324.256	124.41
324.469	-29.18
324.683	75.26
324.896	-2.56
325.109	15.87
325.322	46.59
325.535	13.82
325.748	-29.18
325.962	54.78
326.175	15.87
326.388	11.78
326.601	89.6
326.814	9.73
327.027	30.21
327.24	34.3
327.453	-18.94
327.666	11.78
327.879	54.78
328.092	40.45
328.305	71.17
328.518	40.45
328.731	-25.09
328.944	-20.99
329.157	28.16
329.37	-14.85
329.583	46.59
329.796	58.88
330.009	-6.66
330.222	67.07
330.435	19.97
330.648	-43.52
330.861	69.12
331.073	-12.8
331.286	34.3
331.499	89.6
331.712	-16.9
331.925	26.11
332.138	30.21
332.35	83.45
332.563	30.21
332.776	11.78
332.989	-14.85
333.202	58.88
333.414	-2.56
333.627	75.26
333.84	116.22
334.053	77.31
334.265	24.06
334.478	52.74
334.691	67.07
334.903	116.22
335.116	-6.66
335.329	26.11
335.541	-47.62
335.754	56.83
335.966	15.87
336.179	9.73
336.392	89.6
336.604	-10.75
336.817	65.02
337.029	19.97
337.242	7.68
337.454	42.5
337.667	38.4
337.88	-20.99
338.092	28.16
338.305	50.69
338.517	42.5
338.729	83.45
338.942	11.78
339.154	28.16
339.367	75.26
339.579	15.87
339.792	19.97
340.004	9.73
340.217	17.92
340.429	79.36
340.641	11.78
340.854	87.55
341.066	56.83
341.278	26.11
341.491	38.4
341.703	40.45
341.915	17.92
342.128	9.73
342.34	-25.09
342.552	38.4
342.764	1.54
342.977	32.26
343.189	46.59
343.401	-20.99
343.613	77.31
343.826	69.12
344.038	71.17
344.25	-14.85
344.462	-49.66
344.674	-0.51
344.886	65.02
345.099	116.22
345.311	-16.9
345.523	77.31
345.735	75.26
345.947	32.26
346.159	36.35
346.371	28.16
346.583	65.02
346.795	38.4
347.007	69.12
347.219	22.02
347.431	11.78
347.643	99.84
347.855	-6.66
348.067	5.63
348.279	-25.09
348.491	5.63
348.703	24.06
348.915	-12.8
349.127	56.83
349.339	87.55
349.551	32.26
349.763	58.88
349.975	62.98
350.187	32.26
350.399	19.97
350.61	32.26
350.822	54.78
351.034	15.87
351.246	54.78
351.458	-53.76
351.669	38.4
351.881	19.97
352.093	-20.99
352.305	-16.9
352.517	42.5
352.728	26.11
352.94	26.11
353.152	28.16
353.363	24.06
353.575	58.88
353.787	30.21
353.999	75.26
354.21	40.45
354.422	-76.29
354.633	17.92
354.845	-20.99
355.057	69.12
355.268	58.88
355.48	46.59
355.692	-47.62
355.903	-8.7
356.115	65.02
356.326	-29.18
356.538	32.26
356.749	32.26
356.961	26.11
357.172	42.5
357.384	24.06
357.595	17.92
357.807	52.74
358.018	30.21
358.23	42.5
358.441	60.93
358.653	-29.18
358.864	1.54
359.075	48.64
359.287	79.36
359.498	93.69
359.709	-4.61
359.921	62.98
360.132	60.93
360.344	58.88
360.555	17.92
360.766	56.83
360.977	44.54
361.189	28.16
361.4	71.17
361.611	36.35
361.823	97.79
362.034	50.69
362.245	44.54
362.456	-18.94
362.667	42.5
362.879	93.69
363.09	11.78
363.301	58.88
363.512	52.74
363.723	11.78
363.935	42.5
364.146	128.51
364.357	52.74
364.568	-14.85
364.779	56.83
364.99	17.92
365.201	46.59
365.412	-39.42
365.623	93.69
365.834	22.02
366.045	48.64
366.256	1.54
366.467	17.92
366.678	116.22
366.889	-8.7
367.1	46.59
367.311	65.02
367.522	62.98
367.733	34.3
367.944	28.16
368.155	5.63
368.366	34.3
368.577	19.97
368.788	40.45
368.999	85.5
369.209	81.41
369.42	93.69
369.631	81.41
369.842	34.3
370.053	83.45
370.264	40.45
370.474	26.11
370.685	44.54
370.896	75.26
371.107	36.35
371.317	69.12
371.528	56.83
371.739	17.92
371.95	-47.62
372.16	142.85
372.371	32.26
372.582	60.93
372.792	50.69
373.003	-12.8
373.214	19.97
373.424	54.78
373.635	40.45
373.846	75.26
374.056	13.82
374.267	112.13
374.477	-8.7
374.688	28.16
374.898	75.26
375.109	17.92
375.319	13.82
375.53	91.65
375.74	108.03
375.951	-23.04
376.161	42.5
376.372	85.5
376.582	-4.61
376.793	85.5
377.003	67.07
377.214	3.58
377.424	77.31
377.635	15.87
377.845	48.64
378.055	114.17
378.266	15.87
378.476	42.5
378.686	60.93
378.897	40.45
379.107	13.82
379.317	9.73
379.528	34.3
379.738	65.02
379.948	24.06
380.158	87.55
380.369	44.54
380.579	-8.7
380.789	26.11
380.999	87.55
381.21	87.55
381.42	48.64
381.63	-16.9
381.84	15.87
382.05	5.63
382.261	87.55
382.471	73.21
382.681	95.74
382.891	73.21
383.101	-2.56
383.311	42.5
383.521	-4.61
383.731	67.07
383.941	62.98
384.151	11.78
384.361	28.16
384.571	77.31
384.781	65.02
384.991	22.02
385.201	46.59
385.411	26.11
385.621	26.11
385.831	28.16
386.041	5.63
386.251	3.58
386.461	26.11
386.671	9.73
386.881	110.08
387.091	1.54
387.301	24.06
387.511	42.5
387.72	28.16
387.93	81.41
388.14	9.73
388.35	52.74
388.56	83.45
388.769	54.78
388.979	1.54
389.189	13.82
389.399	91.65
389.609	91.65
389.818	87.55
390.028	44.54
390.238	19.97
390.447	-0.51
390.657	73.21
390.867	26.11
391.076	-6.66
391.286	101.89
391.496	89.6
391.705	65.02
391.915	93.69
392.125	17.92
392.334	50.69
392.544	56.83
392.753	24.06
392.963	56.83
393.172	73.21
393.382	28.16
393.591	91.65
393.801	7.68
394.01	95.74
394.22	65.02
394.429	108.03
394.639	19.97
394.848	69.12
395.058	71.17
395.267	132.61
395.477	118.27
395.686	46.59
395.895	89.6
396.105	87.55
396.314	42.5
396.524	116.22
396.733	62.98
396.942	103.93
397.152	69.12
397.361	73.21
397.57	108.03
397.78	83.45
397.989	50.69
398.198	116.22
398.407	75.26
398.617	153.09
398.826	42.5
399.035	93.69
399.244	103.93
399.453	99.84
399.663	108.03
399.872	48.64
400.081	54.78
400.29	46.59
400.499	38.4
400.708	75.26
400.917	93.69
401.127	142.85
401.336	91.65
401.545	153.09
401.754	58.88
401.963	108.03
402.172	5.63
402.381	73.21
402.59	62.98
402.799	58.88
403.008	56.83
403.217	103.93
403.426	73.21
403.635	103.93
403.844	99.84
404.053	69.12
404.262	60.93
404.471	67.07
404.68	110.08
404.888	134.65
405.097	138.75
405.306	103.93
405.515	99.84
405.724	120.32
405.933	58.88
406.142	56.83
406.35	177.66
406.559	83.45
406.768	148.99
406.977	97.79
407.185	91.65
407.394	173.57
407.603	58.88
407.812	75.26
408.02	153.09
408.229	173.57
408.438	101.89
408.646	134.65
408.855	110.08
409.064	124.41
409.272	105.98
409.481	128.51
409.69	208.38
409.898	161.28
410.107	206.33
410.315	181.76
410.524	116.22
410.733	171.52
410.941	153.09
411.15	194.05
411.358	206.33
411.567	189.95
411.775	214.52
411.984	239.1
412.192	192
412.401	261.63
412.609	290.3
412.818	269.82
413.026	251.39
413.234	355.83
413.443	253.44
413.651	259.58
413.86	187.9
414.068	306.68
414.276	370.17
414.485	321.02
414.693	323.07
414.901	361.98
415.11	345.59
415.318	308.73
415.526	407.03
415.734	415.23
415.943	413.18
416.151	462.33
416.359	419.32
416.567	421.37
416.776	390.65
416.984	484.86
417.192	583.16
417.4	493.05
417.608	579.06
417.817	509.43
418.025	622.07
418.233	564.73
418.441	556.54
418.649	554.49
418.857	703.99
419.065	656.89
419.273	712.18
419.481	693.75
419.689	833.01
419.897	755.19
420.105	765.43
420.313	814.58
420.521	779.76
420.729	808.44
420.937	798.2
421.145	898.55
421.353	966.13
421.561	931.31
421.769	962.03
421.977	1031.66
422.185	1011.18
422.393	1011.18
422.601	1222.13
422.809	1236.46
423.017	1175.02
423.224	1279.47
423.432	1320.43
423.64	1271.28
423.848	1408.49
424.056	1345
424.263	1471.98
424.471	1420.78
424.679	1486.31
424.887	1590.76
425.094	1607.14
425.302	1588.71
425.51	1646.05
425.718	1760.74
425.925	1732.07
426.133	1873.38
426.341	1889.76
426.548	2139.62
426.756	1951.2
426.964	1902.05
427.171	2192.86
427.379	2252.25
427.586	2244.06
427.794	2244.06
428.001	2428.38
428.209	2600.41
428.417	2356.7
428.624	2581.98
428.832	2596.31
429.039	2614.74
429.247	2614.74
429.454	2815.45
429.662	3040.72
429.869	2751.96
430.076	3030.48
430.284	2942.42
430.491	3012.05
430.699	3141.07
430.906	3304.91
431.114	3245.52
431.321	3425.74
431.528	3626.44
431.736	3857.86
431.943	3929.54
432.15	3755.46
432.358	3630.54
432.565	3935.68
432.772	4005.31
432.979	4304.32
433.187	4228.54
433.394	4335.04
433.601	4607.42
433.808	4748.73
434.016	4617.66
434.223	4883.89
434.43	5197.23
434.637	5051.83
434.844	5350.83
435.052	5381.55
435.259	5377.45
435.466	5391.79
435.673	5430.7
435.88	5574.06
436.087	5952.93
436.294	5895.59
436.501	5934.5
436.708	6036.9
436.915	6157.73
437.122	6403.49
437.329	6497.69
437.537	6593.95
437.743	6663.58
437.95	6641.05
438.157	7097.75
438.364	7359.89
438.571	7376.27
438.778	7306.64
438.985	7884.17
439.192	7499.15
439.399	7945.61
439.606	7662.99
439.813	8377.73
440.02	8807.8
440.227	8617.34
440.433	8562.05
440.64	8885.62
440.847	8619.39
441.054	8955.26
441.261	9409.9
441.467	9512.3
441.674	9635.18
441.881	9839.98
442.088	9856.36
442.294	9950.57
442.501	10216.8
442.708	10474.85
442.914	10732.89
443.121	11386.19
443.328	10904.92
443.534	11677.01
443.741	11595.09
443.948	11265.36
444.154	12043.59
444.361	12092.74
444.568	12090.7
444.774	12145.99
444.981	12102.98
445.187	12412.23
445.394	13022.52
445.6	12938.55
445.807	13964.59
446.013	13600.05
446.22	13874.48
446.426	14275.88
446.633	14482.72
446.839	14978.33
447.046	14419.24
447.252	15250.71
447.459	15519
447.665	14984.48
447.871	15594.77
448.078	16733.44
448.284	15824.14
448.491	16266.5
448.697	16944.38
448.903	17075.45
449.11	17188.09
449.316	16985.34
449.522	17233.15
449.728	17605.88
449.935	17788.14
450.141	17886.45
450.347	18076.91
450.553	17982.7
450.76	17786.1
450.966	18517.22
451.172	18066.67
451.378	18928.86
451.584	18545.89
451.791	19078.36
451.997	18945.25
452.203	19225.82
452.409	19281.11
452.615	18859.23
452.821	18388.2
453.027	18154.73
453.233	18871.52
453.44	18517.22
453.646	18601.19
453.852	18640.1
454.058	19322.07
454.264	18320.62
454.47	19021.02
454.676	18488.55
454.882	19051.74
455.088	17566.96
455.294	17685.75
455.5	17974.51
455.705	18081
455.911	17513.72
456.117	17110.27
456.323	16792.83
456.529	16022.8
456.735	16766.21
456.941	16190.73
457.147	15891.73
457.352	15531.28
457.558	15230.23
457.764	15297.81
457.97	15295.77
458.176	14691.62
458.381	14714.14
458.587	13743.41
458.793	13825.33
458.999	13159.74
459.204	14193.96
459.41	13731.12
459.616	12883.26
459.821	12963.13
460.027	12997.95
460.233	12553.54
460.438	11965.77
460.644	12100.94
460.85	11586.9
461.055	11281.75
461.261	11371.86
461.466	10556.77
461.672	10263.91
461.878	10929.5
462.083	10184.04
462.289	9993.58
462.494	9989.48
462.7	9377.14
462.905	9207.16
463.111	9661.8
463.316	9723.24
463.522	9428.34
463.727	9366.9
463.932	9350.51
464.138	9330.03
464.343	9373.04
464.549	9123.19
464.754	9389.42
464.959	9235.83
465.165	9284.98
465.37	8797.56
465.575	8768.89
465.781	9051.51
465.986	9035.13
466.191	8727.93
466.397	8457.6
466.602	8152.45
466.807	8344.96
467.012	8381.82
467.218	8355.2
467.423	8347.01
467.628	8234.37
467.833	8756.6
468.038	8422.78
468.244	8048.01
468.449	8488.32
468.654	8363.39
468.859	8007.05
469.064	8052.1
469.269	7738.76
469.474	7873.93
469.679	7933.32
469.885	7722.38
470.09	7959.94
470.295	7902.6
470.5	7669.13
470.705	7603.6
470.91	7480.72
471.115	7351.7
471.32	7380.37
471.525	7529.87
471.73	7163.28
471.935	7255.44
472.139	7099.8
472.344	7046.55
472.549	7058.84
472.754	7046.55
472.959	6905.24
473.164	6636.95
473.369	6438.3
473.574	6770.07
473.778	6749.59
473.983	6847.9
474.188	6622.62
474.393	6358.43
474.598	6483.36
474.802	6350.24
475.007	6348.19
475.212	6325.66
475.417	6141.35
475.621	6206.88
475.826	6116.77
476.031	5926.31
476.235	5746.09
476.44	5940.65
476.645	5789.1
476.849	5957.03
477.054	5723.56
477.259	5866.92
477.463	5631.4
477.668	5653.93
477.872	5647.79
478.077	5553.58
478.282	5488.04
478.486	5422.51
478.691	5428.65
478.895	5363.12
479.1	5238.19
479.304	5277.1
479.509	5207.47
479.713	5117.36
479.918	5146.03
480.122	5033.4
480.326	5117.36
480.531	5012.92
480.735	5055.92
480.94	5064.11
481.144	5184.94
481.348	5072.31
481.553	5035.44
481.757	4851.13
481.961	5014.96
482.166	5021.11
482.37	4859.32
482.574	4926.9
482.778	4865.46
482.983	5025.2
483.187	4914.61
483.391	4994.48
483.595	4873.65
483.8	4801.97
484.004	4668.86
484.208	4949.43
484.412	4834.74
484.616	4910.52
484.821	4949.43
485.025	4572.6
485.229	4871.61
485.433	4924.85
485.637	4953.52
485.841	4871.61
486.045	4834.74
486.249	4926.9
486.453	4847.03
486.657	4914.61
486.861	4916.66
487.065	4779.45
487.269	4914.61
487.473	4761.02
487.677	5010.87
487.881	4931
488.085	4842.93
488.289	5123.51
488.493	4793.78
488.697	4926.9
488.901	5064.11
489.105	4994.48
489.309	4924.85
489.512	4881.85
489.716	5125.55
489.92	5012.92
490.124	4943.28
490.328	5240.24
490.531	5129.65
490.735	5072.31
490.939	5072.31
491.143	5082.55
491.346	5141.94
491.55	5154.23
491.754	5203.38
491.958	5146.03
492.161	5236.14
492.365	5299.63
492.569	5264.82
492.772	5305.78
492.976	5297.58
493.18	5506.48
493.383	5387.69
493.587	5477.8
493.79	5612.97
493.994	5486
494.197	5531.05
494.401	5635.5
494.605	5666.22
494.808	5623.21
495.012	5692.84
495.215	5760.42
495.419	5873.06
495.622	5664.17
495.825	5846.44
496.029	5903.78
496.232	5885.35
496.436	6032.8
496.639	6172.07
496.843	5991.84
497.046	6131.11
497.249	6268.32
497.453	6155.68
497.656	6458.78
497.859	6333.86
498.063	6499.74
498.266	6550.94
498.469	6475.17
498.673	6624.67
498.876	6772.12
499.079	6897.05
499.282	6628.76
499.485	6858.14
499.689	7200.15
499.892	7257.49
500.095	7101.84
500.298	7204.24
500.501	7380.37
500.705	7562.64
500.908	7570.83
501.111	7654.8
501.314	7732.62
501.517	7947.65
501.72	7964.04
501.923	7826.82
502.126	8158.6
502.329	8308.1
502.532	8314.24
502.735	8203.65
502.938	8570.24
503.141	8537.47
503.344	8785.27
503.547	8725.88
503.75	8879.48
503.953	8969.59
504.156	9112.95
504.359	9225.59
504.562	9219.44
504.765	9389.42
504.968	9465.2
505.17	9692.52
505.373	9626.99
505.576	9751.92
505.779	10001.77
505.982	10138.98
506.185	10329.44
506.387	10480.99
506.59	10411.36
506.793	10618.21
506.996	10536.29
507.198	10825.05
507.401	10739.04
507.604	10827.1
507.807	11226.45
508.009	11316.56
508.212	11369.81
508.415	11437.39
508.617	11705.68
508.82	11818.32
509.022	11658.57
509.225	12377.41
509.428	12074.31
509.63	12141.89
509.833	12455.23
510.035	12600.64
510.238	12576.06
510.44	12709.18
510.643	12999.99
510.845	13047.1
511.048	12952.89
511.25	13243.7
511.453	13395.25
511.655	13659.44
511.858	13821.23
512.06	13962.54
512.262	14116.14
512.465	14118.18
512.667	14279.97
512.87	14261.54
513.072	14429.48
513.274	14859.55
513.477	14834.97
513.679	15154.46
513.881	15252.76
514.084	15291.67
514.286	15344.92
514.488	15502.61
514.69	16033.04
514.893	15822.09
515.095	15971.6
515.297	16221.45
515.499	16117
515.701	16512.26
515.904	16260.36
516.106	16801.02
516.308	17069.31
516.51	17181.95
516.712	16977.15
516.914	17245.43
517.116	17816.82
517.318	17548.53
517.52	17845.49
517.722	18105.58
517.925	18339.05
518.127	18486.5
518.329	18500.84
518.531	18496.74
518.733	18889.95
518.935	18992.35
519.136	18853.09
519.338	19328.22
519.54	19447
519.742	19653.84
519.944	19987.66
520.146	19973.33
520.348	20094.16
520.55	20077.77
520.752	20090.06
520.954	20845.76
521.155	20430.02
521.357	20688.07
521.559	21198.01
521.761	21359.8
521.963	21341.37
522.164	21439.67
522.366	21417.15
522.568	21750.96
522.77	21810.36
522.971	22052.02
523.173	22066.35
523.375	22400.17
523.576	22418.6
523.778	22281.39
523.98	22725.8
524.181	23127.2
524.383	22944.93
524.584	23145.63
524.786	22869.16
524.988	23082.14
525.189	23217.31
525.391	23587.99
525.592	23442.59
525.794	23796.88
525.995	23635.1
526.197	23682.2
526.398	23721.11
526.6	23975.06
526.801	24165.52
527.003	24050.83
527.204	24278.16
527.406	24290.45
527.607	24220.81
527.808	24241.29
528.01	24198.29
528.211	24511.63
528.412	25054.34
528.614	24566.92
528.815	24888.45
529.016	25246.85
529.218	24736.9
529.419	24870.02
529.62	25148.54
529.822	25105.54
530.023	25037.95
530.224	25003.14
530.425	25437.31
530.626	24880.26
530.828	25064.58
531.029	25676.92
531.23	25197.7
531.431	25175.17
531.632	25341.05
531.833	25498.75
532.035	25595
532.236	25494.65
532.437	25613.43
532.638	25382.01
532.839	25386.11
533.04	25572.47
533.241	25463.93
533.442	26100.85
533.643	26051.7
533.844	25568.38
534.045	25969.78
534.246	25410.68
534.447	25838.71
534.648	25527.42
534.849	25898.1
535.05	25662.58
535.251	25736.31
535.451	25912.44
535.652	25898.1
535.853	25629.82
536.054	25973.88
536.255	26016.88
536.456	25742.46
536.657	25990.26
536.857	25502.84
537.058	25539.71
537.259	25627.77
537.46	25859.19
537.66	26080.37
537.861	25803.89
538.062	26047.6
538.263	26084.47
538.463	25767.03
538.664	26100.85
538.865	25932.92
539.065	25830.52
539.266	25607.29
539.466	26027.12
539.667	25533.56
539.868	26014.84
540.068	25977.97
540.269	25791.61
540.469	25887.86
540.67	25642.1
540.87	25697.4
541.071	25748.6
541.271	26098.8
541.472	25672.82
541.672	25740.41
541.873	25578.62
542.073	25490.56
542.274	26137.71
542.474	25871.48
542.675	25793.65
542.875	25857.14
543.075	25656.44
543.276	25685.11
543.476	25791.61
543.676	25588.86
543.877	25740.41
544.077	25674.87
544.277	25857.14
544.478	25486.46
544.678	25900.15
544.878	25627.77
545.078	25691.26
545.279	25406.59
545.479	25738.36
545.679	25896.05
545.879	25564.28
546.079	25885.81
546.28	25623.67
546.48	25547.9
546.68	25715.83
546.88	25541.75
547.08	25734.26
547.28	25756.79
547.48	25504.89
547.68	25652.34
547.88	25420.92
548.081	25707.64
548.281	25164.93
548.481	25500.79
548.681	25480.32
548.881	25674.87
549.081	25529.47
549.28	25416.83
549.48	25826.42
549.68	25158.78
549.88	25523.32
550.08	25431.16
550.28	25564.28
550.48	25658.49
550.68	25681.02
550.88	25312.38
551.08	25322.62
551.279	25695.35
551.479	25107.58
551.679	25502.84
551.879	25250.94
552.079	25746.55
552.278	25031.81
552.478	25453.69
552.678	25398.4
552.878	25355.39
553.077	25437.31
553.277	25175.17
553.477	25484.41
553.676	25296
553.876	25035.91
554.076	25136.26
554.275	25156.74
554.475	24837.25
554.674	25181.31
554.874	25250.94
555.074	24816.77
555.273	24929.41
555.473	24988.8
555.672	24937.6
555.872	25363.58
556.071	25105.54
556.271	25123.97
556.47	24751.24
556.67	24583.3
556.869	25308.29
557.068	25117.82
557.268	24515.72
557.467	24726.66
557.667	24894.6
557.866	24941.7
558.065	24704.14
558.265	24835.21
558.464	24642.7
558.663	25068.67
558.863	24417.42
559.062	25017.47
559.261	24331.4
559.461	24849.54
559.66	24419.47
559.859	24558.73
560.058	24458.38
560.258	24712.33
560.457	24255.63
560.656	24605.83
560.855	24347.79
561.054	24358.03
561.253	24009.87
561.453	24304.78
561.652	24200.33
561.851	24593.54
562.05	24179.86
562.249	24089.74
562.448	24280.21
562.647	23979.15
562.846	23966.87
563.045	23815.32
563.244	24188.05
563.443	24106.13
563.642	23907.48
563.841	23669.91
564.04	23735.45
564.239	24186
564.438	23866.52
564.637	23866.52
564.836	23858.32
565.035	23389.34
565.234	23835.8
565.432	23710.87
565.631	23465.11
565.83	23747.73
566.029	23676.05
566.228	23321.76
566.427	23661.72
566.625	23467.16
566.824	23004.32
567.023	23569.56
567.222	23368.86
567.42	23336.09
567.619	23262.37
567.818	23182.49
568.016	23000.23
568.215	23348.38
568.414	22955.17
568.612	23229.6
568.811	22987.94
569.01	22994.08
569.208	22881.44
569.407	22811.81
569.605	22369.45
569.804	23180.45
570.002	22609.06
570.201	22746.28
570.4	22504.62
570.598	22549.67
570.797	22297.77
570.995	22148.27
571.193	22066.35
571.392	22439.08
571.59	22312.11
571.789	22178.99
571.987	22123.69
572.186	22164.65
572.384	22224.04
572.582	22240.43
572.781	22197.42
572.979	21955.76
573.177	21933.23
573.376	22078.64
573.574	21705.91
573.772	22035.63
573.971	21720.24
574.169	21652.66
574.367	21843.12
574.565	21537.98
574.763	21732.53
574.962	21458.1
575.16	21337.27
575.358	21501.11
575.556	21220.54
575.754	21394.62
575.952	21030.08
576.151	21267.64
576.349	21064.89
576.547	21003.46
576.745	21023.94
576.943	20952.26
577.141	21025.98
577.339	20714.69
577.537	20952.26
577.735	20999.36
577.933	20722.88
578.131	21185.72
578.329	20571.33
578.527	20610.25
578.725	20530.37
578.923	20810.95
579.121	20657.35
579.319	20630.73
579.516	20487.37
579.714	20227.28
579.912	20210.89
580.11	20317.39
580.308	20049.1
580.506	19956.94
580.704	20032.72
580.901	19952.85
581.099	19930.32
581.297	19543.25
581.495	19858.64
581.692	19825.87
581.89	19668.18
582.088	19838.16
582.285	19551.45
582.483	19696.85
582.681	19428.57
582.878	19447
583.076	19225.82
583.274	19317.98
583.471	19039.45
583.669	19225.82
583.866	19238.11
584.064	19346.65
584.262	18935.01
584.459	19229.91
584.657	18805.99
584.854	19088.6
585.052	18601.19
585.249	18681.06
585.447	18785.51
585.644	18707.68
585.841	18760.93
586.039	19010.78
586.236	18320.62
586.434	18189.55
586.631	18447.59
586.828	18334.95
587.026	18435.3
587.223	18289.9
587.42	18472.17
587.618	18382.06
587.815	18087.15
588.012	18146.54
588.21	18240.75
588.407	18248.94
588.604	17906.93
588.801	17958.13
588.999	17988.85
589.196	17911.02
589.393	17949.93
589.59	17818.86
589.787	17503.48
589.984	17511.67
590.182	17358.07
590.379	17650.93
590.576	17624.31
590.773	17546.48
590.97	17306.87
591.167	17235.19
591.364	17231.1
591.561	17108.22
591.758	16911.61
591.955	17067.26
592.152	17351.93
592.349	17159.42
592.546	17061.12
592.743	16925.95
592.94	16897.28
593.137	17024.25
593.334	16854.27
593.531	16676.1
593.727	16852.22
593.924	16915.71
594.121	16663.81
594.318	16549.12
594.515	16434.44
594.712	16594.18
594.908	16409.86
595.105	16573.7
595.302	16205.06
595.499	16499.97
595.696	16317.7
595.892	16125.19
596.089	16356.61
596.286	16239.88
596.482	16157.96
596.679	15869.2
596.876	16059.66
597.072	15912.21
597.269	16104.71
597.466	15893.77
597.662	15846.67
597.859	15738.13
598.055	15897.87
598.252	15715.6
598.448	15820.05
598.645	15648.02
598.841	15242.52
599.038	15523.09
599.234	15531.28
599.431	15385.88
599.627	15271.19
599.824	15605.01
600.02	15344.92
600.217	15334.68
600.413	15074.59
600.609	14851.36
600.806	14775.58
601.002	15164.7
601.198	14816.54
601.395	14746.91
601.591	14703.9
601.787	15041.82
601.984	14931.23
602.18	14961.95
602.376	14542.11
602.572	14834.97
602.769	14810.4
602.965	14298.41
603.161	14507.3
603.357	14409
603.553	14386.47
603.75	14413.09
603.946	14368.04
604.142	14470.44
604.338	14277.93
604.534	14284.07
604.73	14091.56
604.926	14087.47
605.122	14308.65
605.318	14161.19
605.514	14144.81
605.71	14069.03
605.906	13987.11
606.102	13813.04
606.298	13978.92
606.494	13874.48
606.69	13970.73
606.886	13829.42
607.082	13690.16
607.278	13632.82
607.474	13333.81
607.67	13776.17
607.866	13161.78
608.062	13559.09
608.257	13299
608.453	13538.61
608.649	13290.81
608.845	13090.1
609.041	13172.02
609.236	13485.36
609.432	13303.09
609.628	13399.35
609.824	13147.45
610.019	13104.44
610.215	13102.39
610.411	13102.39
610.606	13030.71
610.802	13194.55
610.998	13176.12
611.193	13215.03
611.389	13073.72
611.584	12938.55
611.78	13073.72
611.976	12930.36
612.171	12574.02
612.367	12686.65
612.562	12858.68
612.758	12604.74
612.953	12559.68
613.149	12739.9
613.344	12692.8
613.539	12643.65
613.735	12705.09
613.93	12739.9
614.126	12561.73
614.321	12920.12
614.517	12492.1
614.712	12315.97
614.907	12234.05
615.103	12555.58
615.298	12340.55
615.493	12471.62
615.688	12119.37
615.884	12389.7
616.079	12172.61
616.274	12453.19
616.47	12178.76
616.665	12184.9
616.86	12305.73
617.055	11939.15
617.25	11941.19
617.445	12064.07
617.641	12027.21
617.836	11986.25
618.031	12127.56
618.226	11892.04
618.421	11842.89
618.616	12043.59
618.811	11846.99
619.006	11939.15
619.201	11650.38
619.396	11902.28
619.591	11670.86
619.786	11801.93
619.981	11445.59
620.176	11341.14
620.371	11398.48
620.566	11550.03
620.761	11289.94
620.956	11296.08
621.151	11171.16
621.346	11175.25
621.541	11187.54
621.735	11085.14
621.93	11017.56
622.125	10978.65
622.32	10743.13
622.515	10855.77
622.709	10646.88
622.904	10878.3
623.099	10673.5
623.294	10771.8
623.488	10706.27
623.683	10517.86
623.878	10280.29
624.072	10589.53
624.267	10298.72
624.462	10397.03
624.656	10163.56
624.851	10184.04
625.046	10059.11
625.24	10128.74
625.435	9975.14
625.629	10042.73
625.824	10030.44
626.018	9938.28
626.213	9739.63
626.407	9745.77
626.602	9553.26
626.796	9639.28
626.991	9717.1
627.185	9561.45
627.38	9526.64
627.574	9426.29
627.768	9528.69
627.963	9459.06
628.157	9307.51
628.352	9459.06
628.546	9274.74
628.74	9397.62
628.935	9041.27
629.129	9014.65
629.323	9059.7
629.517	8928.63
629.712	8820.09
629.906	8983.93
630.1	8822.14
630.294	8711.55
630.489	8607.1
630.683	8809.85
630.877	8621.44
631.071	8512.89
631.265	8789.37
631.459	8568.19
631.653	8392.06
631.848	8463.74
632.042	8215.94
632.236	8332.67
632.43	8187.27
632.624	8273.28
632.818	8189.32
633.012	8189.32
633.206	8064.39
633.4	8160.64
633.594	8220.03
633.788	8074.63
633.982	7925.13
634.176	8080.77
634.369	7855.5
634.563	7861.64
634.757	7742.86
634.951	7740.81
635.145	7753.1
635.339	7671.18
635.533	7730.57
635.726	7679.37
635.92	7497.1
636.114	7488.91
636.308	7413.13
636.501	7562.64
636.695	7382.42
636.889	7343.5
637.083	7404.94
637.276	7316.88
637.47	7189.91
637.664	7175.57
637.857	7069.08
638.051	7208.34
638.244	7013.78
638.438	7064.98
638.632	7062.93
638.825	7253.39
639.019	7013.78
639.212	7112.08
639.406	7009.69
639.599	6780.31
639.793	6770.07
639.986	6624.67
640.18	6765.98
640.373	6757.78
640.567	6800.79
640.76	6729.11
640.954	6559.13
641.147	6514.08
641.34	6528.41
641.534	6544.8
641.727	6268.32
641.92	6516.12
642.114	6456.73
642.307	6524.32
642.5	6229.41
642.694	6276.51
642.887	6225.31
643.08	6364.57
643.273	6135.2
643.467	6120.87
643.66	6038.95
643.853	5981.6
644.046	5877.16
644.239	6026.66
644.432	5911.97
644.626	6010.28
644.819	5985.7
645.012	5920.17
645.205	5748.14
645.398	5885.35
645.591	5688.75
645.784	5653.93
645.977	5688.75
646.17	5578.15
646.363	5631.4
646.556	5465.52
646.749	5627.31
646.942	5658.03
647.135	5506.48
647.328	5504.43
647.521	5447.08
647.714	5352.88
647.907	5299.63
648.099	5322.16
648.292	5283.25
648.485	5270.96
648.678	5168.56
648.871	5156.27
649.064	5260.72
649.256	5133.75
649.449	5031.35
649.642	5193.14
649.835	5111.22
650.027	4982.2
650.22	4908.47
650.413	4953.52
650.605	4974
650.798	4916.66
650.991	4832.69
651.183	4908.47
651.376	4724.15
651.568	4765.11
651.761	4859.32
651.954	4728.25
652.146	4754.87
652.339	4879.8
652.531	4701.62
652.724	4703.67
652.916	4558.27
653.109	4570.55
653.301	4474.3
653.494	4523.45
653.686	4459.96
653.879	4533.69
654.071	4478.4
654.263	4371.9
654.456	4326.85
654.648	4369.85
654.84	4330.94
655.033	4251.07
655.225	4214.21
655.417	4363.71
655.61	4189.63
655.802	4330.94
655.994	4302.27
656.186	4261.31
656.379	4218.3
656.571	4206.02
656.763	4122.05
656.955	4042.18
657.148	4021.7
657.34	4056.51
657.532	4066.75
657.724	4029.89
657.916	4064.71
658.108	3962.31
658.3	3939.78
658.492	3956.16
658.684	3847.62
658.876	3880.39
659.068	3909.06
659.26	3755.46
659.452	3802.57
659.644	3724.74
659.836	3913.16
660.028	3661.26
660.22	3753.41
660.412	3753.41
660.604	3567.05
660.796	3593.67
660.988	3491.27
661.18	3560.91
661.372	3435.98
661.563	3521.99
661.755	3511.75
661.947	3446.22
662.139	3554.76
662.331	3505.61
662.522	3444.17
662.714	3384.78
662.906	3311.05
663.097	3460.56
663.289	3349.96
663.481	3249.61
663.673	3470.8
663.864	3274.19
664.056	3177.94
664.247	3278.29
664.439	3220.94
664.631	3179.98
664.822	3179.98
665.014	3227.09
665.205	3069.39
665.397	3190.22
665.588	3083.73
665.78	3106.26
665.971	3050.96
666.163	3030.48
666.354	3030.48
666.546	2893.27
666.737	2979.28
666.929	2966.99
667.12	3050.96
667.311	2876.88
667.503	2962.9
667.694	2823.64
667.885	2946.52
668.077	2940.37
668.268	2966.99
668.459	2772.44
668.651	2811.35
668.842	2794.97
669.033	2713.05
669.224	2805.21
669.416	2766.29
669.607	2725.33
669.798	2624.98
669.989	2696.66
670.18	2700.76
670.371	2764.25
670.563	2706.9
670.754	2690.52
670.945	2782.68
671.136	2659.8
671.327	2588.12
671.518	2653.66
671.709	2653.66
671.9	2670.04
672.091	2567.64
672.282	2600.41
672.473	2657.75
672.664	2631.13
672.855	2457.05
673.046	2508.25
673.237	2608.6
673.428	2426.33
673.619	2590.17
673.809	2393.56
674	2493.91
674.191	2557.4
674.382	2364.89
674.573	2502.11
674.764	2379.23
674.954	2452.95
675.145	2446.81
675.336	2328.03
675.527	2403.8
675.717	2350.56
675.908	2321.88
676.099	2440.67
676.289	2303.45
676.48	2377.18
676.671	2350.56
676.861	2313.69
677.052	2311.64
677.243	2358.75
677.433	2358.75
677.624	2360.8
677.814	2309.6
678.005	2262.49
678.195	2348.51
678.386	2285.02
678.576	2282.97
678.767	2307.55
678.957	2213.34
679.148	2299.36
679.338	2235.87
679.529	2274.78
679.719	2196.96
679.909	2262.49
680.1	2264.54
680.29	2235.87
680.481	2194.91
680.671	2274.78
680.861	2246.11
681.052	2125.28
681.242	2248.16
681.432	2184.67
681.622	2143.71
681.813	2133.47
682.003	2133.47
682.193	2065.89
682.383	2250.21
682.573	2137.57
682.764	2123.23
682.954	2223.58
683.144	2149.86
683.334	2059.74
683.524	2164.19
683.714	2039.26
683.904	2031.07
684.094	2143.71
684.284	2141.66
684.474	2049.5
684.664	2117.09
684.854	2016.74
685.044	2006.5
685.234	2012.64
685.424	1961.44
685.614	2006.5
685.804	2061.79
685.994	2090.46
686.184	2090.46
686.374	1889.76
686.564	2037.22
686.753	2076.13
686.943	1983.97
687.133	2067.94
687.323	2053.6
687.513	1893.86
687.702	2026.98
687.892	1945.06
688.082	1990.11
688.272	2016.74
688.461	2008.55
688.651	2069.98
688.841	1895.91
689.03	1990.11
689.22	1947.11
689.41	1928.67
689.599	1955.3
689.789	2049.5
689.979	1910.24
690.168	1943.01
690.358	1885.67
690.547	1965.54
690.737	1949.15
690.926	1891.81
691.116	1965.54
691.305	1928.67
691.495	1883.62
691.684	1854.95
691.874	1877.48
692.063	1881.57
692.252	1910.24
692.442	1961.44
692.631	1951.2
692.82	1844.71
693.01	1859.04
693.199	1787.36
693.388	1793.51
693.578	1840.61
693.767	1904.1
693.956	1805.8
694.146	1832.42
694.335	1791.46
694.524	1830.37
694.713	1820.13
694.902	1836.52
695.092	1887.72
695.281	1818.08
695.47	1842.66
695.659	1721.83
695.848	1701.35
696.037	1781.22
696.226	1791.46
696.415	1740.26
696.604	1703.4
696.793	1689.06
696.982	1826.28
697.171	1713.64
697.36	1770.98
697.549	1738.21
697.738	1656.29
697.927	1678.82
698.116	1738.21
698.305	1715.69
698.494	1746.41
698.683	1701.35
698.872	1742.31
699.061	1699.3
699.25	1650.15
699.438	1709.54
699.627	1660.39
699.816	1758.69
700.005	1658.34
700.193	1656.29
700.382	1660.39
700.571	1799.65
700.76	1666.53
700.948	1703.4
701.137	1668.58
701.326	1701.35
701.514	1682.92
701.703	1687.01
701.892	1631.72
702.08	1517.03
702.269	1641.96
702.457	1601
702.646	1635.82
702.834	1557.99
703.023	1646.05
703.212	1590.76
703.4	1689.06
703.589	1578.47
703.777	1590.76
703.965	1609.19
704.154	1562.09
704.342	1562.09
704.531	1580.52
704.719	1439.21
704.907	1592.81
705.096	1564.14
705.284	1582.57
705.472	1570.28
705.661	1443.31
705.849	1488.36
706.037	1578.47
706.226	1527.27
706.414	1484.27
706.602	1578.47
706.79	1562.09
706.979	1506.79
707.167	1525.22
707.355	1486.31
707.543	1476.07
707.731	1525.22
707.919	1502.7
708.107	1590.76
708.296	1611.24
708.484	1426.92
708.672	1490.41
708.86	1486.31
709.048	1414.63
709.236	1484.27
709.424	1410.54
709.612	1574.38
709.8	1453.55
709.988	1347.05
710.176	1410.54
710.364	1410.54
710.551	1445.35
710.739	1396.2
710.927	1390.06
711.115	1324.52
711.303	1398.25
711.491	1385.96
711.679	1297.9
711.866	1379.82
712.054	1361.39
712.242	1377.77
712.43	1443.31
712.617	1334.76
712.805	1373.68
712.993	1332.72
713.181	1349.1
713.368	1492.46
713.556	1392.11
713.744	1304.04
713.931	1408.49
714.119	1365.48
714.306	1271.28
714.494	1459.69
714.682	1392.11
714.869	1291.76
715.057	1355.24
715.244	1308.14
715.432	1314.28
715.619	1254.89
715.807	1338.86
715.994	1287.66
716.182	1351.15
716.369	1342.96
716.556	1338.86
716.744	1324.52
716.931	1347.05
717.119	1377.77
717.306	1254.89
717.493	1306.09
717.681	1222.13
717.868	1252.84
718.055	1316.33
718.242	1244.65
718.43	1250.8
718.617	1213.93
718.804	1281.52
718.991	1168.88
719.179	1248.75
719.366	1222.13
719.553	1234.41
719.74	1291.76
719.927	1328.62
720.114	1228.27
720.301	1201.65
720.488	1224.17
720.676	1191.41
720.863	1240.56
721.05	1213.93
721.237	1215.98
721.424	1258.99
721.611	1095.15
721.798	1136.11
721.985	1213.93
722.172	1207.79
722.358	1203.69
722.545	1187.31
722.732	1168.88
722.919	1215.98
723.106	1156.59
723.293	1166.83
723.48	1150.45
723.667	1224.17
723.853	1189.36
724.04	1086.96
724.227	1082.86
724.414	1103.34
724.6	1191.41
724.787	1089.01
724.974	1134.06
725.161	1129.97
725.347	1150.45
725.534	1136.11
725.72	1148.4
725.907	1170.93
726.094	1074.67
726.28	1172.97
726.467	1000.94
726.653	1013.23
726.84	1091.06
727.027	1127.92
727.213	1187.31
727.4	1103.34
727.586	1160.69
727.773	1099.25
727.959	1080.82
728.145	1213.93
728.332	1078.77
728.518	1076.72
728.705	1119.73
728.891	1125.87
729.077	1093.1
729.264	1093.1
729.45	1129.97
729.636	1123.82
729.823	1023.47
730.009	1070.58
730.195	1056.24
730.382	1074.67
730.568	1091.06
730.754	1142.25
730.94	1070.58
731.126	1105.39
731.313	1068.53
731.499	1095.15
731.685	998.9
731.871	1111.54
732.057	1107.44
732.243	1123.82
732.429	1199.6
732.615	1035.76
732.801	1037.81
732.987	1046
733.173	1111.54
733.359	964.08
733.545	1048.05
733.731	968.18
733.917	1091.06
734.103	1060.34
734.289	1078.77
734.475	1115.63
734.661	1043.95
734.847	1113.58
735.033	1078.77
735.219	1068.53
735.404	1080.82
735.59	1015.28
735.776	1033.71
735.962	951.79
736.148	925.17
736.333	1009.14
736.519	1052.14
736.705	984.56
736.89	992.75
737.076	984.56
737.262	1009.14
737.447	972.27
737.633	1048.05
737.819	1095.15
738.004	996.85
738.19	1021.42
738.375	1011.18
738.561	1037.81
738.747	939.51
738.932	914.93
739.118	1000.94
739.303	931.31
739.489	1007.09
739.674	976.37
739.859	929.27
740.045	1039.86
740.23	1007.09
740.416	919.03
740.601	957.94
740.786	990.7
740.972	978.42
741.157	1074.67
741.342	1007.09
741.528	910.83
741.713	1005.04
741.898	951.79
742.084	970.23
742.269	910.83
742.454	978.42
742.639	933.36
742.824	955.89
743.01	986.61
743.195	1050.1
743.38	880.11
743.565	962.03
743.75	914.93
743.935	849.4
744.12	876.02
744.305	939.51
744.49	886.26
744.675	988.66
744.86	935.41
745.045	968.18
745.23	923.12
745.415	863.73
745.6	859.63
745.785	816.63
745.97	888.31
746.155	912.88
746.34	814.58
746.525	919.03
746.71	833.01
746.895	871.92
747.079	906.74
747.264	775.67
747.449	796.15
747.634	900.59
747.819	849.4
748.003	747
748.188	951.79
748.373	800.24
748.557	790
748.742	765.43
748.927	806.39
749.111	814.58
749.296	699.89
749.481	861.68
749.665	787.96
749.85	773.62
750.034	798.2
750.219	828.92
750.404	732.66
750.588	744.95
750.773	779.76
750.957	685.56
751.141	808.44
751.326	747
751.51	740.85
751.695	732.66
751.879	783.86
752.064	728.56
752.248	722.42
752.432	747
752.617	658.93
752.801	703.99
752.985	685.56
753.17	706.04
753.354	638.45
753.538	716.28
753.722	724.47
753.907	724.47
754.091	665.08
754.275	646.65
754.459	730.61
754.643	652.79
754.828	630.26
755.012	681.46
755.196	669.17
755.38	615.93
755.564	572.92
755.748	630.26
755.932	607.73
756.116	630.26
756.3	617.97
756.484	685.56
756.668	577.02
756.852	656.89
757.036	710.13
757.22	570.87
757.404	577.02
757.588	577.02
757.772	628.21
757.956	640.5
758.14	681.46
758.323	558.58
758.507	640.5
758.691	519.67
758.875	585.21
759.059	552.44
759.242	583.16
759.426	583.16
759.61	667.13
759.794	593.4
759.977	570.87
760.161	497.14
760.345	527.86
760.528	517.62
760.712	497.14
760.895	552.44
761.079	531.96
761.263	589.3
761.446	536.06
761.63	577.02
761.813	519.67
761.997	536.06
762.18	540.15
762.364	587.26
762.547	531.96
762.731	556.54
762.914	527.86
763.098	404.99
763.281	560.63
763.464	579.06
763.648	566.78
763.831	511.48
764.015	566.78
764.198	493.05
764.381	458.23
764.564	472.57
764.748	493.05
764.931	519.67
765.114	509.43
765.297	443.9
765.481	468.47
765.664	546.3
765.847	441.85
766.03	529.91
766.213	519.67
766.397	542.2
766.58	509.43
766.763	538.1
766.946	460.28
767.129	480.76
767.312	495.1
767.495	480.76
767.678	474.62
767.861	509.43
768.044	433.66
768.227	462.33
768.41	486.9
768.593	480.76
768.776	382.46
768.959	445.95
769.142	458.23
769.324	439.8
769.507	464.38
769.69	411.13
769.873	353.79
770.056	497.14
770.239	464.38
770.421	364.03
770.604	366.07
770.787	409.08
770.97	466.42
771.152	396.79
771.335	464.38
771.518	486.9
771.7	415.23
771.883	415.23
772.066	441.85
772.248	390.65
772.431	443.9
772.613	425.47
772.796	466.42
772.978	433.66
773.161	415.23
773.343	421.37
773.526	462.33
773.708	423.42
773.891	347.64
774.073	366.07
774.256	478.71
774.438	361.98
774.621	329.21
774.803	392.7
774.985	345.59
775.168	355.83
775.35	345.59
775.532	378.36
775.715	333.31
775.897	300.54
776.079	374.27
776.261	312.83
776.444	411.13
776.626	353.79
776.808	378.36
776.99	312.83
777.173	355.83
777.355	312.83
777.537	374.27
777.719	421.37
777.901	327.16
778.083	302.59
778.265	312.83
778.447	366.07
778.629	259.58
778.811	271.87
778.993	321.02
779.175	364.03
779.357	329.21
779.539	292.35
779.721	337.4
779.903	292.35
780.085	286.2
780.267	269.82
780.449	265.72
780.631	300.54
780.812	259.58
780.994	331.26
781.176	265.72
781.358	353.79
781.54	261.63
781.721	364.03
781.903	267.77
782.085	300.54
782.267	255.48
782.448	200.19
782.63	302.59
782.812	275.96
782.993	189.95
783.175	335.35
783.357	202.24
783.538	265.72
783.72	321.02
783.901	284.16
784.083	218.62
784.264	220.67
784.446	235
784.627	263.68
784.809	218.62
784.99	222.72
785.172	265.72
785.353	271.87
785.535	212.48
785.716	169.47
785.897	206.33
786.079	216.57
786.26	230.91
786.441	255.48
786.623	239.1
786.804	251.39
786.985	284.16
787.167	247.29
787.348	257.53
787.529	206.33
787.71	269.82
787.891	232.96
788.073	126.46
788.254	204.28
788.435	247.29
788.616	232.96
788.797	226.81
788.978	220.67
789.159	310.78
789.34	189.95
789.522	146.94
789.703	243.2
789.884	226.81
790.065	226.81
790.246	161.28
790.427	169.47
790.607	239.1
790.788	255.48
790.969	200.19
791.15	173.57
791.331	214.52
791.512	263.68
791.693	128.51
791.874	138.75
792.054	224.76
792.235	118.27
792.416	136.7
792.597	169.47
792.778	241.15
792.958	196.09
793.139	140.8
793.32	65.02
793.5	163.33
793.681	132.61
793.862	202.24
794.042	126.46
794.223	159.23
794.404	239.1
794.584	165.37
794.765	38.4
794.945	181.76
795.126	183.81
795.306	148.99
795.487	192
795.667	138.75
795.848	153.09
796.028	185.85
796.209	112.13
796.389	175.61
796.57	169.47
796.75	194.05
796.93	165.37
797.111	173.57
797.291	171.52
797.471	208.38
797.652	175.61
797.832	177.66
798.012	198.14
798.192	153.09
798.373	134.65
798.553	208.38
798.733	114.17
798.913	120.32
799.093	159.23
799.274	114.17
799.454	138.75
799.634	103.93
799.814	144.89
799.994	101.89
800.174	79.36
800.354	185.85
800.534	157.18
800.714	177.66
800.894	157.18
801.074	155.13
801.254	89.6
801.434	95.74
801.614	110.08
801.794	169.47
801.974	310.78
802.154	120.32
802.334	194.05
802.514	177.66
802.693	148.99
802.873	130.56
803.053	108.03
803.233	140.8
803.413	34.3
803.592	91.65
803.772	91.65
803.952	183.81
804.131	185.85
804.311	97.79
804.491	116.22
804.67	95.74
804.85	108.03
805.03	114.17
805.209	126.46
805.389	48.64
805.568	105.98
805.748	67.07
805.928	114.17
806.107	120.32
806.287	159.23
806.466	114.17
806.646	108.03
806.825	105.98
807.004	79.36
807.184	54.78
807.363	67.07
807.543	93.69
807.722	157.18
807.901	151.04
808.081	48.64
808.26	62.98
808.439	140.8
808.619	171.52
808.798	42.5
808.977	101.89
809.156	142.85
809.336	132.61
809.515	91.65
809.694	140.8
809.873	60.93
810.052	83.45
810.231	200.19
810.411	91.65
810.59	118.27
810.769	112.13
810.948	108.03
811.127	97.79
811.306	179.71
811.485	48.64
811.664	167.42
811.843	91.65
812.022	79.36
812.201	112.13
812.38	142.85
812.559	134.65
812.737	91.65
812.916	56.83
813.095	124.41
813.274	105.98
813.453	54.78
813.632	38.4
813.811	124.41
813.989	128.51
814.168	67.07
814.347	67.07
814.526	42.5
814.704	124.41
814.883	42.5
815.062	36.35
815.24	99.84
815.419	77.31
815.598	163.33
815.776	69.12
815.955	173.57
816.133	75.26
816.312	103.93
816.49	101.89
816.669	85.5
816.847	87.55
817.026	81.41
817.204	58.88
817.383	77.31
817.561	65.02
817.74	155.13
817.918	36.35
818.097	58.88
818.275	163.33
818.453	56.83
818.632	60.93
818.81	56.83
818.988	46.59
819.167	161.28
819.345	50.69
819.523	77.31
819.701	26.11
819.879	93.69
820.058	71.17
820.236	89.6
820.414	87.55
820.592	165.37
820.77	34.3
820.948	95.74
821.127	-12.8
821.305	97.79
821.483	87.55
821.661	73.21
821.839	1.54
822.017	62.98
822.195	22.02
822.373	91.65
822.551	52.74
822.729	99.84
822.907	73.21
823.085	54.78
823.262	83.45
823.44	44.54
823.618	89.6
823.796	58.88
823.974	15.87
824.152	95.74
824.329	67.07
824.507	67.07
824.685	91.65
824.863	44.54
825.04	97.79
825.218	44.54
825.396	101.89
825.574	50.69
825.751	112.13
825.929	103.93
826.107	40.45
826.284	79.36
826.462	77.31
826.639	36.35
826.817	28.16
826.994	40.45
827.172	103.93
827.349	54.78
827.527	19.97
827.704	60.93
827.882	65.02
828.059	56.83
828.237	56.83
828.414	7.68
828.591	91.65
828.769	105.98
828.946	11.78
829.124	83.45
829.301	89.6
829.478	67.07
829.655	105.98
829.833	103.93
830.01	75.26
830.187	54.78
830.364	40.45
830.542	58.88
830.719	65.02
830.896	34.3
831.073	52.74
831.25	60.93
831.427	48.64
831.604	69.12
831.782	32.26
831.959	42.5
832.136	48.64
832.313	95.74
832.49	-20.99
832.667	22.02
832.844	22.02
833.021	71.17
833.198	95.74
833.374	36.35
833.551	32.26
833.728	46.59
833.905	97.79
834.082	130.56
834.259	99.84
834.436	95.74
834.612	110.08
834.789	87.55
834.966	69.12
835.143	-0.51
835.319	40.45
835.496	69.12
835.673	28.16
835.85	85.5
836.026	118.27
836.203	93.69
836.38	-14.85
836.556	26.11
836.733	-14.85
836.909	75.26
837.086	19.97
837.262	28.16
837.439	85.5
837.616	103.93
837.792	15.87
837.968	87.55
838.145	87.55
838.321	34.3
838.498	50.69
838.674	44.54
838.851	5.63
839.027	65.02
839.203	-31.23
839.38	-20.99
839.556	-0.51
839.732	69.12
839.909	54.78
840.085	71.17
840.261	36.35
840.437	38.4
840.614	36.35
840.79	15.87
840.966	75.26
841.142	9.73
841.318	36.35
841.494	130.56
841.671	36.35
841.847	34.3
842.023	52.74
842.199	44.54
842.375	56.83
842.551	19.97
842.727	-12.8
842.903	77.31
843.079	36.35
843.255	75.26
843.431	71.17
843.607	13.82
843.783	-2.56
843.959	91.65
844.134	73.21
844.31	38.4
844.486	54.78
844.662	44.54
844.838	-39.42
845.013	62.98
845.189	71.17
845.365	36.35
845.541	79.36
845.716	46.59
845.892	-10.75
846.068	9.73
846.244	40.45
846.419	69.12
846.595	-2.56
846.77	65.02
846.946	1.54
847.122	13.82
847.297	32.26
847.473	99.84
847.648	26.11
847.824	36.35
847.999	28.16
848.175	48.64
848.35	-31.23
848.526	32.26
848.701	42.5
848.876	50.69
849.052	52.74
849.227	22.02
849.403	9.73
849.578	-12.8
849.753	5.63
849.929	71.17
850.104	50.69
850.279	32.26
850.454	42.5
850.63	46.59
850.805	-23.04
850.98	22.02
851.155	34.3
851.33	-2.56
851.505	99.84
851.681	69.12
851.856	36.35
852.031	19.97
852.206	101.89
852.381	85.5
852.556	99.84
852.731	28.16
852.906	44.54
853.081	-25.09
853.256	93.69
853.431	32.26
853.606	73.21
853.781	48.64
853.956	-12.8
854.131	28.16
854.305	44.54
854.48	-33.28
854.655	65.02
854.83	9.73
855.005	26.11
855.18	-25.09
855.354	75.26
855.529	44.54
855.704	30.21
855.879	54.78
856.053	24.06
856.228	-14.85
856.403	46.59
856.577	26.11
856.752	-49.66
856.926	110.08
857.101	42.5
857.276	44.54
857.45	36.35
857.625	-41.47
857.799	28.16
857.974	65.02
858.148	46.59
858.323	108.03
858.497	22.02
858.672	11.78
858.846	73.21
859.02	-18.94
859.195	-25.09
859.369	79.36
859.543	-6.66
859.718	9.73
859.892	75.26
860.066	52.74
860.241	40.45
860.415	3.58
860.589	-29.18
860.763	69.12
860.938	34.3
861.112	34.3
861.286	3.58
861.46	1.54
861.634	-27.14
861.808	56.83
861.982	17.92
862.157	85.5
862.331	97.79
862.505	1.54
862.679	44.54
862.853	85.5
863.027	-12.8
863.201	30.21
863.375	-25.09
863.549	34.3
863.722	7.68
863.896	69.12
864.07	17.92
864.244	3.58
864.418	44.54
864.592	52.74
864.766	38.4
864.939	13.82
865.113	9.73
865.287	3.58
865.461	-37.38
865.634	-47.62
865.808	46.59
865.982	79.36
866.156	56.83
866.329	103.93
866.503	5.63
866.676	11.78
866.85	13.82
867.024	-39.42
867.197	5.63
867.371	3.58
867.544	56.83
867.718	-37.38
867.891	52.74
868.065	32.26
868.238	24.06
868.412	62.98
868.585	24.06
868.759	112.13
868.932	-18.94
869.105	148.99
869.279	-57.86
869.452	28.16
869.625	42.5
869.799	28.16
869.972	-16.9
870.145	50.69
870.319	-37.38
870.492	-45.57
870.665	52.74
870.838	46.59
871.011	9.73
871.185	32.26
871.358	79.36
871.531	56.83
871.704	60.93
871.877	58.88
872.05	40.45
872.223	46.59
872.396	22.02
872.569	67.07
872.742	28.16
872.915	77.31
873.088	73.21
873.261	-2.56
873.434	62.98
873.607	32.26
873.78	42.5
873.953	9.73
874.126	1.54
874.299	17.92
874.471	-33.28
874.644	40.45
874.817	3.58
874.99	-16.9
875.163	101.89
875.335	17.92
875.508	19.97
875.681	93.69
875.853	34.3
876.026	67.07
876.199	79.36
876.371	44.54
876.544	85.5
876.717	44.54
876.889	26.11
877.062	36.35
877.234	67.07
877.407	11.78
877.579	34.3
877.752	19.97
877.924	56.83
878.097	46.59
878.269	26.11
878.442	9.73
878.614	22.02
878.786	71.17
878.959	48.64
879.131	9.73
879.303	22.02
879.476	28.16
879.648	-0.51
879.82	-10.75
879.993	-20.99
880.165	19.97
880.337	-10.75
880.509	11.78
880.681	-25.09
880.854	52.74
881.026	32.26
881.198	30.21
881.37	22.02
881.542	28.16
881.714	50.69
881.886	-53.76
882.058	40.45
882.23	30.21
882.402	-20.99
882.574	-14.85
882.746	56.83
882.918	67.07
883.09	5.63
883.262	-31.23
883.434	28.16
883.606	-31.23
883.778	28.16
883.95	11.78
884.122	95.74
884.293	112.13
884.465	-25.09
884.637	26.11
884.809	-18.94
884.98	-12.8
885.152	24.06
885.324	54.78
885.496	-53.76
885.667	120.32
885.839	42.5
886.011	42.5
886.182	13.82
886.354	28.16
886.525	22.02
886.697	-18.94
886.869	83.45
887.04	17.92
887.212	38.4
887.383	34.3
887.555	-0.51
887.726	42.5
887.897	-8.7
888.069	-10.75
888.24	-20.99
888.412	52.74
888.583	42.5
888.754	40.45
888.926	-2.56
889.097	38.4
889.268	24.06
889.44	-12.8
889.611	1.54
889.782	71.17
889.953	77.31
890.125	9.73
890.296	-8.7
890.467	71.17
890.638	9.73
890.809	17.92
890.98	11.78
891.151	-35.33
891.323	36.35
891.494	26.11
891.665	36.35
891.836	71.17
892.007	24.06
892.178	32.26
892.349	7.68
892.52	-25.09
892.691	-2.56
892.862	-6.66
893.032	13.82
893.203	-14.85
893.374	32.26
893.545	62.98
893.716	-23.04
893.887	60.93
894.057	-29.18
894.228	24.06
894.399	3.58
894.57	-0.51
894.74	-4.61
894.911	48.64
895.082	-39.42
895.253	7.68
895.423	28.16
895.594	124.41
895.764	-23.04
895.935	-31.23
896.106	22.02
896.276	26.11
896.447	-39.42
896.617	46.59
896.788	11.78
896.958	5.63
897.129	24.06
897.299	-23.04
897.47	48.64
897.64	9.73
897.81	3.58
897.981	56.83
898.151	17.92
898.322	22.02
898.492	19.97
898.662	83.45
898.832	-18.94
899.003	54.78
899.173	28.16
899.343	32.26
899.513	-20.99
