Data from USB4F104151__10__12-53-09-629.txt Node

Date: Fri Mar 14 12:53:09 EDT 2025
User: louis
Spectrometer: USB4F10415
Trigger mode: 4
Integration Time (sec): 1.000000E-2
Scans to average: 1
Electric dark correction enabled: true
Nonlinearity correction enabled: false
Boxcar width: 0
XAxis mode: Wavelengths
Number of Pixels in Spectrum: 3648
>>>>>Begin Spectral Data<<<<<
178.204	-66.39
178.424	-66.39
178.644	-66.39
178.864	-7
179.084	-54.1
179.304	-72.53
179.524	52.39
179.744	-45.91
179.964	42.15
180.184	-23.38
180.404	-82.77
180.624	1.19
180.844	48.3
181.064	29.87
181.283	31.91
181.503	42.15
181.723	-23.38
181.943	64.68
182.163	5.29
182.383	-0.85
182.602	-11.09
182.822	31.91
183.042	-33.62
183.262	-0.85
183.482	27.82
183.701	54.44
183.921	42.15
184.141	15.53
184.361	25.77
184.58	-25.43
184.8	76.97
185.02	40.11
185.239	25.77
185.459	5.29
185.679	93.35
185.898	42.15
186.118	91.31
186.338	-7
186.557	52.39
186.777	-25.43
186.997	25.77
187.216	-33.62
187.436	56.49
187.655	-11.09
187.875	85.16
188.095	54.44
188.314	-56.15
188.534	1.19
188.753	25.77
188.973	-19.29
189.192	-23.38
189.412	19.63
189.631	-17.24
189.851	38.06
190.07	-29.52
190.29	15.53
190.509	-0.85
190.729	17.58
190.948	56.49
191.168	103.59
191.387	48.3
191.607	-19.29
191.826	23.72
192.045	-15.19
192.265	-9.05
192.484	13.48
192.704	11.43
192.923	7.34
193.142	21.67
193.362	40.11
193.581	85.16
193.8	-11.09
194.02	25.77
194.239	-41.81
194.458	89.26
194.678	7.34
194.897	36.01
195.116	42.15
195.335	11.43
195.555	-50
195.774	-25.43
195.993	-11.09
196.212	85.16
196.432	72.87
196.651	42.15
196.87	3.24
197.089	76.97
197.308	27.82
197.528	50.35
197.747	27.82
197.966	-35.67
198.185	29.87
198.404	70.83
198.623	29.87
198.842	27.82
199.062	-9.05
199.281	-0.85
199.5	-27.48
199.719	-17.24
199.938	52.39
200.157	17.58
200.376	70.83
200.595	74.92
200.814	15.53
201.033	-39.76
201.252	3.24
201.471	19.63
201.69	52.39
201.909	-31.57
202.128	11.43
202.347	27.82
202.566	9.39
202.785	95.4
203.004	33.96
203.223	93.35
203.442	25.77
203.661	3.24
203.879	15.53
204.098	40.11
204.317	-21.33
204.536	31.91
204.755	27.82
204.974	7.34
205.193	87.21
205.411	-11.09
205.63	38.06
205.849	13.48
206.068	42.15
206.287	17.58
206.505	44.2
206.724	25.77
206.943	-41.81
207.162	-11.09
207.381	-25.43
207.599	-25.43
207.818	-29.52
208.037	42.15
208.255	52.39
208.474	15.53
208.693	-47.96
208.911	46.25
209.13	44.2
209.349	21.67
209.567	1.19
209.786	50.35
210.005	38.06
210.223	15.53
210.442	31.91
210.661	17.58
210.879	74.92
211.098	17.58
211.316	48.3
211.535	-60.24
211.753	-17.24
211.972	7.34
212.191	89.26
212.409	56.49
212.628	79.02
212.846	72.87
213.065	-4.95
213.283	-23.38
213.502	79.02
213.72	-78.68
213.938	21.67
214.157	58.54
214.375	-7
214.594	33.96
214.812	58.54
215.031	38.06
215.249	11.43
215.467	79.02
215.686	48.3
215.904	44.2
216.122	-9.05
216.341	-21.33
216.559	62.63
216.778	31.91
216.996	46.25
217.214	58.54
217.432	31.91
217.651	31.91
217.869	-27.48
218.087	89.26
218.306	38.06
218.524	29.87
218.742	87.21
218.96	107.69
219.179	-0.85
219.397	29.87
219.615	44.2
219.833	19.63
220.051	-58.2
220.27	23.72
220.488	31.91
220.706	46.25
220.924	-29.52
221.142	54.44
221.36	-54.1
221.578	72.87
221.796	83.11
222.015	-2.9
222.233	-35.67
222.451	42.15
222.669	-7
222.887	9.39
223.105	11.43
223.323	31.91
223.541	-4.95
223.759	23.72
223.977	23.72
224.195	66.73
224.413	1.19
224.631	1.19
224.849	36.01
225.067	48.3
225.285	1.19
225.503	31.91
225.721	17.58
225.939	27.82
226.157	40.11
226.375	152.74
226.592	-7
226.81	81.07
227.028	33.96
227.246	23.72
227.464	44.2
227.682	66.73
227.9	144.55
228.117	1.19
228.335	103.59
228.553	36.01
228.771	70.83
228.989	97.45
229.206	54.44
229.424	-0.85
229.642	-0.85
229.86	27.82
230.077	54.44
230.295	68.78
230.513	33.96
230.731	42.15
230.948	17.58
231.166	81.07
231.384	50.35
231.601	7.34
231.819	60.59
232.037	1.19
232.254	-17.24
232.472	21.67
232.689	-17.24
232.907	1.19
233.125	1.19
233.342	38.06
233.56	-2.9
233.777	17.58
233.995	44.2
234.213	-23.38
234.43	27.82
234.648	31.91
234.865	27.82
235.083	79.02
235.3	-2.9
235.518	64.68
235.735	117.93
235.953	42.15
236.17	-4.95
236.388	-47.96
236.605	31.91
236.822	56.49
237.04	27.82
237.257	52.39
237.475	13.48
237.692	3.24
237.909	52.39
238.127	-4.95
238.344	-0.85
238.562	-15.19
238.779	21.67
238.996	44.2
239.214	23.72
239.431	48.3
239.648	66.73
239.865	83.11
240.083	62.63
240.3	15.53
240.517	-0.85
240.735	21.67
240.952	-33.62
241.169	-19.29
241.386	40.11
241.603	50.35
241.821	103.59
242.038	31.91
242.255	3.24
242.472	31.91
242.689	-21.33
242.907	-13.14
243.124	23.72
243.341	3.24
243.558	79.02
243.775	9.39
243.992	46.25
244.209	31.91
244.426	33.96
244.643	46.25
244.86	81.07
245.078	-15.19
245.295	-27.48
245.512	50.35
245.729	-23.38
245.946	29.87
246.163	70.83
246.38	81.07
246.597	31.91
246.814	60.59
247.031	-2.9
247.248	36.01
247.464	19.63
247.681	62.63
247.898	27.82
248.115	-7
248.332	-66.39
248.549	-56.15
248.766	15.53
248.983	29.87
249.2	91.31
249.417	40.11
249.633	-7
249.85	38.06
250.067	7.34
250.284	-41.81
250.501	64.68
250.717	56.49
250.934	-9.05
251.151	44.2
251.368	29.87
251.585	50.35
251.801	52.39
252.018	-21.33
252.235	29.87
252.451	5.29
252.668	-33.62
252.885	36.01
253.102	-11.09
253.318	7.34
253.535	5.29
253.752	-47.96
253.968	58.54
254.185	72.87
254.401	97.45
254.618	40.11
254.835	-4.95
255.051	38.06
255.268	-0.85
255.484	36.01
255.701	62.63
255.917	7.34
256.134	62.63
256.351	-0.85
256.567	11.43
256.784	27.82
257	-43.86
257.217	33.96
257.433	21.67
257.65	3.24
257.866	9.39
258.082	87.21
258.299	23.72
258.515	36.01
258.732	21.67
258.948	56.49
259.165	42.15
259.381	29.87
259.597	83.11
259.814	36.01
260.03	64.68
260.246	48.3
260.463	40.11
260.679	103.59
260.895	62.63
261.112	23.72
261.328	-19.29
261.544	15.53
261.761	62.63
261.977	7.34
262.193	70.83
262.409	38.06
262.626	3.24
262.842	-45.91
263.058	15.53
263.274	50.35
263.49	50.35
263.707	85.16
263.923	7.34
264.139	36.01
264.355	1.19
264.571	54.44
264.787	44.2
265.004	83.11
265.22	50.35
265.436	64.68
265.652	-0.85
265.868	62.63
266.084	7.34
266.3	42.15
266.516	-13.14
266.732	36.01
266.948	72.87
267.164	70.83
267.38	56.49
267.596	50.35
267.812	66.73
268.028	74.92
268.244	50.35
268.46	36.01
268.676	-29.52
268.892	7.34
269.108	17.58
269.324	-0.85
269.54	-4.95
269.756	23.72
269.972	21.67
270.188	-0.85
270.403	1.19
270.619	81.07
270.835	74.92
271.051	62.63
271.267	-0.85
271.483	-25.43
271.698	9.39
271.914	105.64
272.13	-13.14
272.346	-50
272.562	23.72
272.777	56.49
272.993	-13.14
273.209	72.87
273.425	89.26
273.64	-35.67
273.856	79.02
274.072	119.98
274.287	52.39
274.503	-29.52
274.719	-17.24
274.934	76.97
275.15	25.77
275.366	36.01
275.581	13.48
275.797	36.01
276.012	109.74
276.228	36.01
276.444	29.87
276.659	-43.86
276.875	50.35
277.09	-21.33
277.306	1.19
277.521	-27.48
277.737	-11.09
277.952	97.45
278.168	44.2
278.383	-4.95
278.599	97.45
278.814	40.11
279.03	-9.05
279.245	50.35
279.461	74.92
279.676	44.2
279.892	-17.24
280.107	-25.43
280.322	-31.57
280.538	19.63
280.753	3.24
280.969	119.98
281.184	72.87
281.399	33.96
281.615	89.26
281.83	-21.33
282.045	-13.14
282.26	70.83
282.476	21.67
282.691	31.91
282.906	42.15
283.122	74.92
283.337	23.72
283.552	85.16
283.767	-17.24
283.983	-58.2
284.198	17.58
284.413	54.44
284.628	25.77
284.843	7.34
285.058	46.25
285.274	-9.05
285.489	83.11
285.704	33.96
285.919	25.77
286.134	11.43
286.349	13.48
286.564	64.68
286.779	-25.43
286.995	113.83
287.21	-64.34
287.425	11.43
287.64	-13.14
287.855	36.01
288.07	17.58
288.285	103.59
288.5	36.01
288.715	19.63
288.93	7.34
289.145	36.01
289.36	48.3
289.575	5.29
289.79	46.25
290.004	5.29
290.219	124.07
290.434	62.63
290.649	9.39
290.864	27.82
291.079	5.29
291.294	29.87
291.509	17.58
291.724	62.63
291.938	23.72
292.153	3.24
292.368	3.24
292.583	83.11
292.798	5.29
293.012	11.43
293.227	-45.91
293.442	23.72
293.657	-21.33
293.871	-0.85
294.086	-50
294.301	83.11
294.516	68.78
294.73	54.44
294.945	13.48
295.16	99.5
295.374	60.59
295.589	93.35
295.804	3.24
296.018	42.15
296.233	48.3
296.447	-2.9
296.662	-4.95
296.877	-25.43
297.091	72.87
297.306	27.82
297.52	-33.62
297.735	54.44
297.949	52.39
298.164	72.87
298.378	85.16
298.593	-21.33
298.807	42.15
299.022	62.63
299.236	5.29
299.451	60.59
299.665	-7
299.88	38.06
300.094	56.49
300.309	56.49
300.523	44.2
300.737	56.49
300.952	130.22
301.166	70.83
301.381	60.59
301.595	23.72
301.809	-33.62
302.024	70.83
302.238	93.35
302.452	72.87
302.667	-60.24
302.881	64.68
303.095	48.3
303.309	58.54
303.524	64.68
303.738	-0.85
303.952	42.15
304.166	54.44
304.381	58.54
304.595	27.82
304.809	44.2
305.023	29.87
305.237	72.87
305.452	91.31
305.666	-19.29
305.88	-52.05
306.094	79.02
306.308	7.34
306.522	62.63
306.736	-7
306.95	13.48
307.164	-13.14
307.379	13.48
307.593	56.49
307.807	44.2
308.021	64.68
308.235	68.78
308.449	9.39
308.663	-4.95
308.877	103.59
309.091	40.11
309.305	-0.85
309.519	-41.81
309.733	15.53
309.947	48.3
310.161	46.25
310.374	-19.29
310.588	87.21
310.802	36.01
311.016	9.39
311.23	62.63
311.444	40.11
311.658	54.44
311.872	36.01
312.085	101.55
312.299	105.64
312.513	25.77
312.727	3.24
312.941	89.26
313.154	-11.09
313.368	76.97
313.582	83.11
313.796	9.39
314.009	42.15
314.223	97.45
314.437	-2.9
314.651	72.87
314.864	31.91
315.078	33.96
315.292	62.63
315.505	23.72
315.719	27.82
315.933	50.35
316.146	-35.67
316.36	27.82
316.573	62.63
316.787	25.77
317.001	36.01
317.214	70.83
317.428	27.82
317.641	-31.57
317.855	25.77
318.068	17.58
318.282	31.91
318.495	56.49
318.709	19.63
318.922	44.2
319.136	85.16
319.349	-19.29
319.563	19.63
319.776	99.5
319.99	-19.29
320.203	52.39
320.417	-4.95
320.63	58.54
320.843	33.96
321.057	60.59
321.27	-17.24
321.483	25.77
321.697	97.45
321.91	9.39
322.124	-23.38
322.337	13.48
322.55	44.2
322.763	7.34
322.977	19.63
323.19	-19.29
323.403	52.39
323.617	-9.05
323.83	66.73
324.043	-15.19
324.256	15.53
324.469	50.35
324.683	81.07
324.896	60.59
325.109	99.5
325.322	66.73
325.535	42.15
325.748	66.73
325.962	83.11
326.175	42.15
326.388	144.55
326.601	-17.24
326.814	9.39
327.027	74.92
327.24	25.77
327.453	76.97
327.666	48.3
327.879	29.87
328.092	-29.52
328.305	52.39
328.518	-54.1
328.731	-4.95
328.944	48.3
329.157	31.91
329.37	50.35
329.583	95.4
329.796	56.49
330.009	29.87
330.222	83.11
330.435	38.06
330.648	56.49
330.861	27.82
331.073	-2.9
331.286	58.54
331.499	-0.85
331.712	40.11
331.925	56.49
332.138	103.59
332.35	79.02
332.563	11.43
332.776	101.55
332.989	-54.1
333.202	62.63
333.414	76.97
333.627	-39.76
333.84	50.35
334.053	144.55
334.265	3.24
334.478	17.58
334.691	38.06
334.903	126.12
335.116	33.96
335.329	72.87
335.541	-11.09
335.754	68.78
335.966	27.82
336.179	64.68
336.392	-50
336.604	81.07
336.817	72.87
337.029	33.96
337.242	-33.62
337.454	68.78
337.667	19.63
337.88	50.35
338.092	74.92
338.305	44.2
338.517	-15.19
338.729	27.82
338.942	19.63
339.154	72.87
339.367	9.39
339.579	68.78
339.792	48.3
340.004	13.48
340.217	-43.86
340.429	-21.33
340.641	48.3
340.854	31.91
341.066	17.58
341.278	83.11
341.491	97.45
341.703	91.31
341.915	87.21
342.128	23.72
342.34	33.96
342.552	-0.85
342.764	40.11
342.977	83.11
343.189	76.97
343.401	23.72
343.613	40.11
343.826	11.43
344.038	56.49
344.25	113.83
344.462	50.35
344.674	25.77
344.886	46.25
345.099	70.83
345.311	1.19
345.523	74.92
345.735	-23.38
345.947	72.87
346.159	-9.05
346.371	83.11
346.583	29.87
346.795	68.78
347.007	74.92
347.219	25.77
347.431	9.39
347.643	21.67
347.855	36.01
348.067	50.35
348.279	52.39
348.491	27.82
348.703	91.31
348.915	119.98
349.127	38.06
349.339	136.36
349.551	72.87
349.763	29.87
349.975	15.53
350.187	9.39
350.399	1.19
350.61	81.07
350.822	38.06
351.034	-15.19
351.246	23.72
351.458	99.5
351.669	48.3
351.881	83.11
352.093	66.73
352.305	101.55
352.517	44.2
352.728	40.11
352.94	50.35
353.152	-19.29
353.363	27.82
353.575	72.87
353.787	-15.19
353.999	3.24
354.21	-9.05
354.422	7.34
354.633	48.3
354.845	19.63
355.057	58.54
355.268	21.67
355.48	11.43
355.692	-25.43
355.903	52.39
356.115	36.01
356.326	87.21
356.538	97.45
356.749	64.68
356.961	72.87
357.172	27.82
357.384	48.3
357.595	19.63
357.807	33.96
358.018	103.59
358.23	101.55
358.441	119.98
358.653	29.87
358.864	81.07
359.075	-41.81
359.287	68.78
359.498	74.92
359.709	62.63
359.921	5.29
360.132	-35.67
360.344	31.91
360.555	19.63
360.766	64.68
360.977	21.67
361.189	33.96
361.4	91.31
361.611	25.77
361.823	44.2
362.034	-2.9
362.245	-0.85
362.456	89.26
362.667	33.96
362.879	72.87
363.09	17.58
363.301	115.88
363.512	-13.14
363.723	81.07
363.935	58.54
364.146	27.82
364.357	1.19
364.568	68.78
364.779	-27.48
364.99	66.73
365.201	81.07
365.412	-45.91
365.623	119.98
365.834	33.96
366.045	40.11
366.256	74.92
366.467	-23.38
366.678	58.54
366.889	17.58
367.1	91.31
367.311	113.83
367.522	15.53
367.733	38.06
367.944	3.24
368.155	25.77
368.366	44.2
368.577	33.96
368.788	15.53
368.999	72.87
369.209	-27.48
369.42	107.69
369.631	83.11
369.842	62.63
370.053	48.3
370.264	17.58
370.474	23.72
370.685	89.26
370.896	-13.14
371.107	11.43
371.317	13.48
371.528	-13.14
371.739	66.73
371.95	85.16
372.16	5.29
372.371	11.43
372.582	21.67
372.792	29.87
373.003	1.19
373.214	54.44
373.424	-29.52
373.635	54.44
373.846	105.64
374.056	-43.86
374.267	76.97
374.477	-19.29
374.688	68.78
374.898	-11.09
375.109	33.96
375.319	99.5
375.53	42.15
375.74	66.73
375.951	1.19
376.161	76.97
376.372	74.92
376.582	-41.81
376.793	44.2
377.003	74.92
377.214	60.59
377.424	-17.24
377.635	97.45
377.845	40.11
378.055	126.12
378.266	15.53
378.476	107.69
378.686	21.67
378.897	128.17
379.107	68.78
379.317	7.34
379.528	31.91
379.738	148.65
379.948	21.67
380.158	109.74
380.369	29.87
380.579	70.83
380.789	87.21
380.999	11.43
381.21	15.53
381.42	128.17
381.63	74.92
381.84	36.01
382.05	9.39
382.261	50.35
382.471	40.11
382.681	33.96
382.891	85.16
383.101	48.3
383.311	9.39
383.521	17.58
383.731	19.63
383.941	74.92
384.151	54.44
384.361	72.87
384.571	1.19
384.781	117.93
384.991	119.98
385.201	89.26
385.411	46.25
385.621	70.83
385.831	-9.05
386.041	50.35
386.251	3.24
386.461	15.53
386.671	85.16
386.881	33.96
387.091	9.39
387.301	56.49
387.511	40.11
387.72	58.54
387.93	89.26
388.14	48.3
388.35	60.59
388.56	93.35
388.769	79.02
388.979	3.24
389.189	42.15
389.399	-9.05
389.609	46.25
389.818	15.53
390.028	60.59
390.238	40.11
390.447	72.87
390.657	-2.9
390.867	3.24
391.076	70.83
391.286	54.44
391.496	62.63
391.705	76.97
391.915	91.31
392.125	81.07
392.334	85.16
392.544	7.34
392.753	85.16
392.963	95.4
393.172	99.5
393.382	-7
393.591	101.55
393.801	31.91
394.01	101.55
394.22	83.11
394.429	97.45
394.639	15.53
394.848	13.48
395.058	93.35
395.267	29.87
395.477	54.44
395.686	101.55
395.895	117.93
396.105	136.36
396.314	52.39
396.524	-0.85
396.733	109.74
396.942	74.92
397.152	109.74
397.361	85.16
397.57	158.89
397.78	93.35
397.989	66.73
398.198	117.93
398.407	74.92
398.617	101.55
398.826	74.92
399.035	76.97
399.244	122.02
399.453	46.25
399.663	64.68
399.872	169.13
400.081	111.78
400.29	66.73
400.499	91.31
400.708	81.07
400.917	103.59
401.127	109.74
401.336	76.97
401.545	130.22
401.754	58.54
401.963	115.88
402.172	74.92
402.381	83.11
402.59	85.16
402.799	144.55
403.008	64.68
403.217	132.26
403.426	144.55
403.635	23.72
403.844	74.92
404.053	128.17
404.262	203.94
404.471	97.45
404.68	134.31
404.888	109.74
405.097	76.97
405.306	171.18
405.515	68.78
405.724	140.46
405.933	175.27
406.142	187.56
406.35	101.55
406.559	203.94
406.768	154.79
406.977	179.37
407.185	113.83
407.394	152.74
407.603	138.41
407.812	105.64
408.02	267.43
408.229	156.84
408.438	197.8
408.646	158.89
408.855	185.51
409.064	74.92
409.272	156.84
409.481	249
409.69	199.85
409.898	228.52
410.107	269.48
410.315	236.71
410.524	255.14
410.733	285.86
410.941	287.91
411.15	287.91
411.358	261.29
411.567	273.57
411.775	285.86
411.984	271.53
412.192	234.66
412.401	357.54
412.609	355.49
412.818	339.11
413.026	369.83
413.234	369.83
413.443	371.88
413.651	394.4
413.86	388.26
414.068	517.28
414.276	468.13
414.485	441.51
414.693	476.32
414.901	451.75
415.11	513.19
415.318	529.57
415.526	525.47
415.734	453.8
415.943	535.71
416.151	605.35
416.359	568.48
416.567	527.52
416.776	689.31
416.984	615.59
417.192	681.12
417.4	707.74
417.608	679.07
417.817	724.13
418.025	722.08
418.233	822.43
418.441	812.19
418.649	828.57
418.857	898.2
419.065	804
419.273	965.79
419.481	910.49
419.689	1078.43
419.897	1025.18
420.105	1096.86
420.313	1152.15
420.521	1158.3
420.729	1107.1
420.937	1232.02
421.145	1252.5
421.353	1215.64
421.561	1438.87
421.769	1420.44
421.977	1424.53
422.185	1440.92
422.393	1461.4
422.601	1664.15
422.809	1551.51
423.017	1639.57
423.224	1629.33
423.432	1672.34
423.64	1764.5
423.848	1903.76
424.056	1928.33
424.263	2065.55
424.471	2040.97
424.679	2028.68
424.887	2116.75
425.094	2190.47
425.302	2225.29
425.51	2333.83
425.718	2372.74
425.925	2342.02
426.133	2434.18
426.341	2663.55
426.548	2808.96
426.756	2718.85
426.964	2862.21
427.171	2899.07
427.379	2950.27
427.586	3052.67
427.794	3064.96
428.001	3185.79
428.209	3456.12
428.417	3417.21
428.624	3630.2
428.832	3644.53
429.039	3609.72
429.247	3562.61
429.454	4007.02
429.662	4205.67
429.869	3925.1
430.076	4107.37
430.284	4222.06
430.491	4220.01
430.699	4580.45
430.906	4695.14
431.114	4672.61
431.321	4772.96
431.528	4883.55
431.736	5114.97
431.943	5334.11
432.15	5262.43
432.358	5278.81
432.565	5559.38
432.772	5635.16
432.979	5915.73
433.187	6085.71
433.394	6040.65
433.601	6530.12
433.808	6659.14
434.016	6515.78
434.223	6784.07
434.43	7150.65
434.637	7048.26
434.844	7287.87
435.052	7531.58
435.259	7472.18
435.466	7552.06
435.673	7638.07
435.88	8016.94
436.087	8418.35
436.294	8346.67
436.501	8299.56
436.708	8563.75
436.915	8913.95
437.122	9202.72
437.329	9249.82
437.537	9382.94
437.743	9643.03
437.95	9534.49
438.157	10032.15
438.364	10550.28
438.571	10394.64
438.778	10343.44
438.985	11576.31
439.192	11023.36
439.399	11453.44
439.606	11045.89
439.813	11555.83
440.02	12454.89
440.227	12231.66
440.433	11977.72
440.64	12399.6
440.847	12229.62
441.054	12717.03
441.261	13415.39
441.467	13364.19
441.674	13511.64
441.881	14111.7
442.088	14029.78
442.294	13992.92
442.501	14420.94
442.708	14687.18
442.914	15098.82
443.121	15750.07
443.328	15442.88
443.534	16276.4
443.741	16214.96
443.948	15758.27
444.154	17169.32
444.361	16870.31
444.568	17204.13
444.774	17089.45
444.981	17439.65
445.187	17931.16
445.394	18848.65
445.6	18420.63
445.807	19958.65
446.013	19360.64
446.22	19473.28
446.426	20458.35
446.633	20562.8
446.839	21146.47
447.046	20364.15
447.252	21402.47
447.459	21369.7
447.665	21408.61
447.871	22217.56
448.078	23436.1
448.284	22412.12
448.491	22858.57
448.697	23892.8
448.903	24322.87
449.11	24363.83
449.316	24011.58
449.522	24490.8
449.728	25113.39
449.935	25410.34
450.141	25113.39
450.347	25768.74
450.553	25105.2
450.76	25520.93
450.966	25908
451.172	25932.57
451.378	26348.31
451.584	26082.08
451.791	26747.67
451.997	26446.62
452.203	27147.02
452.409	27087.63
452.615	26823.44
452.821	25938.72
453.027	25729.83
453.233	27212.56
453.44	25834.27
453.646	26295.07
453.852	26223.39
454.058	26809.11
454.264	26227.48
454.47	26667.8
454.676	25858.85
454.882	26743.57
455.088	24550.2
455.294	25041.71
455.5	25422.63
455.705	25588.52
455.911	24361.78
456.117	24025.92
456.323	23513.92
456.529	22541.14
456.735	23190.34
456.941	22885.2
457.147	22485.84
457.352	21760.86
457.558	21738.33
457.764	21603.17
457.97	21144.42
458.176	20925.29
458.381	20669.3
458.587	19843.96
458.793	19583.87
458.999	19014.54
459.204	20093.82
459.41	19790.72
459.616	18293.65
459.821	18346.9
460.027	18129.81
460.233	17894.3
460.438	17120.17
460.644	17173.41
460.85	16262.07
461.055	16288.69
461.261	16135.09
461.466	14951.37
461.672	14541.77
461.878	15528.89
462.083	14621.64
462.289	14152.66
462.494	14248.91
462.7	13394.91
462.905	13138.91
463.111	13741.02
463.316	13636.57
463.522	13421.53
463.727	13466.59
463.932	13368.29
464.138	13366.24
464.343	13501.4
464.549	12987.36
464.754	13296.61
464.959	13339.62
465.165	13226.98
465.37	12786.66
465.575	12229.62
465.781	12968.93
465.986	13009.89
466.191	12340.21
466.397	12145.65
466.602	11631.61
466.807	12116.98
467.012	12012.53
467.218	11992.05
467.423	11938.8
467.628	11983.86
467.833	12461.04
468.038	12045.3
468.244	11723.77
468.449	12076.02
468.654	11727.86
468.859	11721.72
469.064	11478.01
469.269	11256.83
469.474	11353.09
469.679	11394.04
469.885	11236.35
470.09	11406.33
470.295	11099.14
470.5	10884.1
470.705	11045.89
470.91	10771.46
471.115	10869.76
471.32	10685.45
471.525	10587.15
471.73	10472.46
471.935	10652.68
472.139	10230.8
472.344	10413.07
472.549	10120.21
472.754	9970.71
472.959	9853.97
473.164	9587.74
473.369	9593.88
473.574	9864.21
473.778	9714.71
473.983	9634.84
474.188	9509.91
474.393	9352.22
474.598	9198.62
474.802	9108.51
475.007	8959.01
475.212	9004.07
475.417	8762.4
475.621	8707.11
475.826	8641.57
476.031	8567.85
476.235	8432.68
476.44	8594.47
476.645	8264.75
476.849	8182.83
477.054	8283.18
477.259	8131.63
477.463	8156.21
477.668	7863.35
477.872	8072.24
478.077	8014.9
478.282	7719.99
478.486	7685.17
478.691	7740.47
478.895	7654.45
479.1	7619.64
479.304	7384.12
479.509	7322.68
479.713	7556.15
479.918	7312.44
480.122	7271.48
480.326	7169.09
480.531	7332.92
480.735	7191.61
480.94	7265.34
481.144	7396.41
481.348	6964.29
481.553	7156.8
481.757	7058.49
481.961	7107.65
482.166	7289.92
482.37	7121.98
482.574	7054.4
482.778	7054.4
482.983	7150.65
483.187	7240.76
483.391	7089.21
483.595	6919.23
483.8	6880.32
484.004	7031.87
484.208	7138.37
484.412	6906.95
484.616	6952
484.821	6999.1
485.025	6775.88
485.229	7056.45
485.433	7103.55
485.637	7040.06
485.841	6900.8
486.045	6962.24
486.249	7038.02
486.453	6923.33
486.657	7058.49
486.861	7189.56
487.065	6906.95
487.269	7136.32
487.473	6980.67
487.677	7228.48
487.881	7140.41
488.085	7171.13
488.289	7052.35
488.493	7074.88
488.697	7150.65
488.901	7248.96
489.105	7027.78
489.309	7291.96
489.512	7294.01
489.716	7259.2
489.92	7334.97
490.124	7289.92
490.328	7515.19
490.531	7449.66
490.735	7449.66
490.939	7554.1
491.143	7418.94
491.346	7347.26
491.55	7783.48
491.754	7742.52
491.958	7619.64
492.161	7605.3
492.365	7633.97
492.569	7756.85
492.772	7609.4
492.976	7799.86
493.18	7816.24
493.383	7912.5
493.587	7986.22
493.79	8008.75
493.994	7975.98
494.197	8133.68
494.401	8240.17
494.605	7959.6
494.808	8211.5
495.012	8479.79
495.215	8348.72
495.419	8420.39
495.622	8721.45
495.825	8743.97
496.029	8707.11
496.232	8985.63
496.436	8897.57
496.639	9278.49
496.843	9172
497.046	9309.21
497.249	9270.3
497.453	9325.6
497.656	9466.91
497.859	9645.08
498.063	9604.12
498.266	10009.62
498.469	9866.26
498.673	10138.64
498.876	10191.89
499.079	10335.24
499.282	10374.16
499.485	10572.81
499.689	10699.78
499.892	10888.2
500.095	10861.57
500.298	11113.47
500.501	11045.89
500.705	11414.52
500.908	11418.62
501.111	11406.33
501.314	11629.56
501.517	11817.97
501.72	12100.59
501.923	12137.46
502.126	12391.41
502.329	12626.92
502.532	12604.39
502.735	12876.77
502.938	12989.41
503.141	12876.77
503.344	13382.62
503.547	13276.13
503.75	13673.43
503.953	13747.16
504.156	13945.81
504.359	14019.54
504.562	14103.51
504.765	14443.47
504.968	14488.53
505.17	14783.43
505.373	15072.2
505.576	15287.23
505.779	15498.17
505.982	15713.21
506.185	15799.23
506.387	15905.72
506.59	16135.09
506.793	16540.59
506.996	16300.98
507.198	16812.97
507.401	16759.72
507.604	16827.31
507.807	17251.24
508.009	17488.8
508.212	17789.85
508.415	17912.73
508.617	18008.98
508.82	18303.89
509.022	18158.49
509.225	18867.08
509.428	18967.43
509.63	18977.67
509.833	19235.72
510.035	19561.34
510.238	19438.47
510.44	19864.44
510.643	20110.2
510.845	20310.9
511.048	20153.21
511.25	20867.95
511.453	21146.47
511.655	21422.95
511.858	21341.03
512.06	21390.18
512.262	22066.01
512.465	21939.04
512.667	22051.67
512.87	22559.57
513.072	22784.85
513.274	23049.03
513.477	23317.32
513.679	23374.66
513.881	23694.15
514.084	24210.23
514.286	24062.78
514.488	24331.06
514.69	25230.12
514.893	24906.54
515.095	25047.85
515.297	25275.18
515.499	25541.41
515.701	25998.11
515.904	26401.56
516.106	26149.66
516.308	26751.76
516.51	26743.57
516.712	26821.39
516.914	27423.5
517.116	27540.23
517.318	27775.75
517.52	28484.34
517.722	28365.56
517.925	28797.68
518.127	28873.46
518.329	29172.46
518.531	28959.47
518.733	29893.35
518.935	29614.82
519.136	30163.68
519.338	30628.57
519.54	30923.47
519.742	30687.96
519.944	30900.95
520.146	31345.36
520.348	31357.64
520.55	31804.1
520.752	31840.96
520.954	32389.82
521.155	32297.66
521.357	32963.25
521.559	33051.31
521.761	33434.28
521.963	33721
522.164	33764.01
522.366	33794.73
522.568	34063.01
522.77	34302.62
522.971	35109.52
523.173	34716.31
523.375	34812.57
523.576	34874.01
523.778	34843.29
523.98	35527.31
524.181	36086.4
524.383	35695.24
524.584	36108.93
524.786	35969.67
524.988	36137.6
525.189	36657.79
525.391	36936.31
525.592	36932.22
525.794	36729.47
525.995	37386.86
526.197	37470.83
526.398	37460.59
526.6	37628.52
526.801	37892.71
527.003	38120.04
527.204	37917.29
527.406	38429.28
527.607	38425.18
527.808	38572.64
528.01	37857.9
528.211	38756.96
528.412	39623.25
528.614	38998.62
528.815	39058.01
529.016	39756.36
529.218	38996.57
529.419	39416.4
529.62	39117.4
529.822	39860.81
530.023	39551.57
530.224	39776.84
530.425	39420.5
530.626	39193.17
530.828	39510.61
531.029	40174.15
531.23	40172.1
531.431	39834.19
531.632	40120.9
531.833	40110.66
532.035	40186.44
532.236	40587.84
532.437	40520.26
532.638	40153.67
532.839	40806.97
533.04	41028.15
533.241	40479.3
533.442	41132.6
533.643	40983.1
533.844	40831.55
534.045	40821.31
534.246	40739.39
534.447	41089.59
534.648	40931.9
534.849	40968.76
535.05	40761.92
535.251	41329.2
535.451	41386.55
535.652	41388.6
535.853	41060.92
536.054	41316.92
536.255	41339.44
536.456	40942.14
536.657	41925.16
536.857	41265.72
537.058	41118.26
537.259	41538.1
537.46	41714.22
537.66	41071.16
537.861	41450.03
538.062	41230.9
538.263	41574.96
538.463	41474.61
538.664	41751.09
538.865	41648.69
539.065	41699.89
539.266	41191.99
539.466	41740.85
539.667	41253.43
539.868	42058.28
540.068	41800.24
540.269	41507.38
540.469	41902.64
540.67	41390.64
540.87	41810.48
541.071	41916.97
541.271	41943.59
541.472	42017.32
541.672	41599.54
541.873	41138.74
542.073	41155.13
542.274	41964.07
542.474	41865.77
542.675	41210.42
542.875	41699.89
543.075	41806.38
543.276	41523.76
543.476	42252.84
543.676	41542.19
543.877	42258.98
544.077	41898.54
544.277	41841.2
544.478	41720.37
544.678	41900.59
544.878	41749.04
545.078	41894.44
545.279	41587.25
545.479	41800.24
545.679	41953.83
545.879	41882.16
546.079	41894.44
546.28	41615.92
546.48	41787.95
546.68	42191.4
546.88	41865.77
547.08	41740.85
547.28	41783.85
547.48	41392.69
547.68	41998.89
547.88	41300.53
548.081	41863.72
548.281	42033.71
548.481	42050.09
548.681	42379.81
548.881	41941.55
549.081	42007.08
549.28	41732.65
549.48	42179.11
549.68	42205.73
549.88	42551.84
550.08	41687.6
550.28	42361.38
550.48	42142.25
550.68	42330.66
550.88	41634.35
551.08	41916.97
551.279	42111.53
551.479	41388.6
551.679	41982.51
551.879	41890.35
552.079	42084.9
552.278	41716.27
552.478	41509.43
552.678	42322.47
552.878	42084.9
553.077	41579.06
553.277	41564.72
553.477	41925.16
553.676	41239.09
553.876	41744.94
554.076	41927.21
554.275	41562.67
554.475	41341.49
554.674	41622.06
554.874	41505.33
555.074	41327.16
555.273	41495.09
555.473	41927.21
555.672	41271.86
555.872	41282.1
556.071	41554.48
556.271	41951.79
556.47	41427.51
556.67	41237.05
556.869	41677.36
557.068	41894.44
557.268	41173.56
557.467	41048.63
557.667	41226.81
557.866	41263.67
558.065	41146.93
558.265	41181.75
558.464	40763.96
558.663	41384.5
558.863	40833.6
559.062	41583.15
559.261	40706.62
559.461	41570.86
559.66	40718.91
559.859	41235
560.058	40430.15
560.258	41038.39
560.457	40874.55
560.656	40940.09
560.855	40974.91
561.054	40927.8
561.253	40680
561.453	40895.03
561.652	40622.65
561.851	40892.99
562.05	40692.29
562.249	40770.11
562.448	40995.39
562.647	40669.76
562.846	40677.95
563.045	40956.47
563.244	40403.52
563.443	41026.1
563.642	40247.88
563.841	40696.38
564.04	40432.19
564.239	40952.38
564.438	40671.81
564.637	40735.29
564.836	40696.38
565.035	40270.4
565.234	40677.95
565.432	40206.92
565.631	40565.31
565.83	40708.67
566.029	40321.6
566.228	40206.92
566.427	40278.6
566.625	40340.04
566.824	39993.93
567.023	40657.47
567.222	39672.4
567.42	40501.82
567.619	40180.29
567.818	40008.26
568.016	40131.14
568.215	40028.74
568.414	40073.8
568.612	40262.21
568.811	39725.64
569.01	40024.65
569.208	39625.29
569.407	39633.49
569.605	39309.91
569.804	40079.94
570.002	39246.42
570.201	39842.38
570.4	38969.94
570.598	39328.34
570.797	39371.35
570.995	39481.94
571.193	39029.34
571.392	39404.11
571.59	39187.03
571.789	39066.2
571.987	39012.95
572.186	39006.81
572.384	38939.22
572.582	39193.17
572.781	38705.76
572.979	38511.2
573.177	39080.53
573.376	39098.97
573.574	38675.04
573.772	39068.25
573.971	38636.13
574.169	38537.82
574.367	38349.41
574.565	38695.52
574.763	37683.82
574.962	38390.37
575.16	37878.38
575.358	37954.15
575.556	37735.02
575.754	38312.55
575.952	37460.59
576.151	37970.54
576.349	37606
576.547	37548.65
576.745	37476.97
576.943	37923.43
577.141	37446.26
577.339	37577.33
577.537	37190.26
577.735	37462.64
577.933	36997.75
578.131	37091.96
578.329	36774.52
578.527	36539.01
578.725	37030.52
578.923	36913.78
579.121	36659.84
579.319	36903.54
579.516	36743.8
579.714	36508.29
579.912	36618.88
580.11	36336.26
580.308	36346.5
580.506	36272.77
580.704	35646.09
580.901	36254.34
581.099	36401.79
581.297	35938.95
581.495	35809.93
581.692	35988.1
581.89	35383.95
582.088	36084.36
582.285	35388.05
582.483	35474.06
582.681	35592.84
582.878	35203.73
583.076	35447.44
583.274	35453.58
583.471	34736.79
583.669	35158.67
583.866	34583.19
584.064	34939.54
584.262	34575
584.459	34992.79
584.657	34775.7
584.854	35003.03
585.052	34620.06
585.249	34839.19
585.447	34593.43
585.644	34073.25
585.841	34097.83
586.039	34167.46
586.236	33757.86
586.434	34075.3
586.631	33503.92
586.828	34044.58
587.026	33630.89
587.223	33770.15
587.42	33749.67
587.618	33749.67
587.815	33219.25
588.012	33385.13
588.21	33237.68
588.407	33530.54
588.604	33104.56
588.801	32971.44
588.999	32946.87
589.196	32928.44
589.393	32940.72
589.59	32983.73
589.787	32402.11
589.984	32342.72
590.182	32508.6
590.379	32690.87
590.576	32191.17
590.773	32400.06
590.97	31976.13
591.167	32039.62
591.364	31453.9
591.561	31972.03
591.758	31732.42
591.955	31494.86
592.152	31972.03
592.349	31384.27
592.546	31730.37
592.743	31642.31
592.94	31011.54
593.137	31408.84
593.334	31412.94
593.531	30972.63
593.727	30859.99
593.924	30952.15
594.121	30448.35
594.318	30673.62
594.515	30399.19
594.712	30741.21
594.908	30386.91
595.105	30425.82
595.302	30368.48
595.499	30270.17
595.696	30046.94
595.892	29702.89
596.089	30165.73
596.286	30165.73
596.482	30116.58
596.679	29594.34
596.876	29477.61
597.072	29559.53
597.269	29504.23
597.466	29383.4
597.662	29391.59
597.859	29678.31
598.055	29659.88
598.252	28930.8
598.448	29459.18
598.645	28812.02
598.841	28541.69
599.038	28777.2
599.234	29113.07
599.431	28676.85
599.627	28545.78
599.824	28674.81
600.02	28332.79
600.217	28533.5
600.413	28209.92
600.609	28023.55
600.806	27929.34
601.002	28332.79
601.198	27460.36
601.395	27816.71
601.591	27763.46
601.787	27810.56
601.984	27216.65
602.18	27476.74
602.376	27384.58
602.572	27323.15
602.769	27480.84
602.965	27128.59
603.161	26991.37
603.357	26964.75
603.553	27140.88
603.75	26888.98
603.946	26510.1
604.142	26632.98
604.338	26204.95
604.534	26471.19
604.73	26794.77
604.926	26387.22
605.122	26225.43
605.318	26217.24
605.514	25951.01
605.71	26219.29
605.906	25871.14
606.102	25961.25
606.298	25908
606.494	25690.91
606.69	25903.9
606.886	26059.55
607.082	25500.45
607.278	25914.14
607.474	25264.94
607.67	25955.1
607.866	25266.99
608.062	25774.88
608.257	25174.83
608.453	25246.51
608.649	25295.66
608.845	24937.26
609.041	25103.15
609.236	25217.83
609.432	25004.85
609.628	24709.94
609.824	24711.99
610.019	24513.33
610.215	24935.21
610.411	24806.19
610.606	24750.9
610.802	24480.57
610.998	24689.46
611.193	24617.78
611.389	24445.75
611.584	24396.6
611.78	24359.73
611.976	24193.85
612.171	24445.75
612.367	24146.75
612.562	24132.41
612.758	23794.5
612.953	23997.24
613.149	24224.57
613.344	23565.12
613.539	23993.15
613.735	23882.56
613.93	23665.47
614.126	23575.36
614.321	24081.21
614.517	23544.64
614.712	23784.26
614.907	23507.78
615.103	23679.81
615.298	23612.23
615.493	23698.24
615.688	23110.47
615.884	23561.03
616.079	23081.8
616.274	23292.74
616.47	23403.33
616.665	23405.38
616.86	23212.87
617.055	23182.15
617.25	22936.4
617.445	23092.04
617.641	22518.61
617.836	22991.69
618.031	22713.17
618.226	23126.86
618.421	22446.93
618.616	22887.25
618.811	22274.9
619.006	22537.04
619.201	22178.65
619.396	22371.16
619.591	21805.92
619.786	22276.95
619.981	21674.85
620.176	21898.08
620.371	21574.5
620.566	21713.76
620.761	21332.84
620.956	21490.53
621.151	21304.17
621.346	20872.04
621.541	20810.61
621.735	21199.72
621.93	20880.24
622.125	21072.75
622.32	20880.24
622.515	21007.21
622.709	20560.75
622.904	20341.62
623.099	20298.61
623.294	20558.7
623.488	19975.03
623.683	20343.67
623.878	19817.34
624.072	19686.27
624.267	19905.4
624.462	19583.87
624.656	19497.86
624.851	19712.89
625.046	19547.01
625.24	19485.57
625.435	18856.84
625.629	19254.15
625.824	18891.66
626.018	18877.32
626.213	18193.3
626.407	18416.53
626.602	18326.42
626.796	18643.85
626.991	18367.38
627.185	18187.16
627.38	18160.53
627.574	17931.16
627.768	17918.87
627.963	17955.74
628.157	17675.16
628.352	17699.74
628.546	17384.35
628.74	17767.32
628.935	17429.41
629.129	17247.14
629.323	16956.33
629.517	17271.72
629.712	17116.07
629.906	17144.74
630.1	16862.12
630.294	16851.88
630.489	16761.77
630.683	16698.28
630.877	16303.03
631.071	16556.97
631.265	16659.37
631.459	16251.83
631.653	16018.36
631.848	16149.43
632.042	15893.43
632.236	16274.35
632.43	15643.58
632.624	15981.49
632.818	15825.85
633.012	15692.73
633.206	15657.92
633.4	15506.37
633.594	15252.42
633.788	15254.47
633.982	15360.96
634.176	15250.37
634.369	15047.62
634.563	15014.85
634.757	14941.13
634.951	15219.65
635.145	14803.91
635.339	14947.27
635.533	14621.64
635.726	14390.22
635.92	14123.99
636.114	14521.29
636.308	14289.87
636.501	14402.51
636.695	14271.44
636.889	14377.94
637.083	13999.06
637.276	14083.03
637.47	14019.54
637.664	14109.65
637.857	13876.18
638.051	13679.58
638.244	13685.72
638.438	13634.52
638.632	13454.3
638.825	13517.79
639.019	13388.77
639.212	13218.78
639.406	13093.86
639.599	13183.97
639.793	13108.19
639.986	13083.62
640.18	13132.77
640.373	12899.3
640.567	12852.2
640.76	12882.92
640.954	12788.71
641.147	12643.31
641.34	12450.8
641.534	12694.5
641.727	12581.87
641.92	12487.66
642.114	12262.38
642.307	12223.47
642.5	12264.43
642.694	11895.8
642.887	12061.68
643.08	11908.08
643.273	11860.98
643.467	11703.29
643.66	11813.88
643.853	11703.29
644.046	11402.24
644.239	11813.88
644.432	11416.57
644.626	11377.66
644.819	11437.05
645.012	11254.78
645.205	11269.12
645.398	11254.78
645.591	10980.36
645.784	11062.27
645.977	10746.89
646.17	10966.02
646.363	10996.74
646.556	10810.37
646.749	10777.61
646.942	10613.77
647.135	10583.05
647.328	10451.98
647.521	10552.33
647.714	10404.88
647.907	10355.72
648.099	10437.64
648.292	10124.3
648.485	10038.29
648.678	10124.3
648.871	9985.04
649.064	9747.48
649.256	9813.01
649.449	10019.86
649.642	9724.95
649.835	9612.31
650.027	9698.33
650.22	9825.3
650.413	9534.49
650.605	9520.15
650.798	9577.5
650.991	9450.52
651.183	9511.96
651.376	9206.81
651.568	9368.6
651.761	9245.73
651.954	9331.74
652.146	9034.78
652.339	9030.69
652.531	8965.15
652.724	8946.72
652.916	8743.97
653.109	8848.42
653.301	8692.77
653.494	8836.13
653.686	8670.25
653.879	8776.74
654.071	8610.86
654.263	8553.51
654.456	8660.01
654.648	8348.72
654.84	8555.56
655.033	8195.12
655.225	8205.36
655.417	8225.84
655.61	8129.58
655.802	8244.27
655.994	8191.02
656.186	8092.72
656.379	8037.42
656.571	8006.7
656.763	7803.96
656.955	7896.11
657.148	7803.96
657.34	7775.28
657.532	7699.51
657.724	7562.3
657.916	7513.14
658.108	7418.94
658.3	7593.01
658.492	7527.48
658.684	7275.58
658.876	7351.35
659.068	7345.21
659.26	7330.87
659.452	7244.86
659.644	7261.24
659.836	7085.12
660.028	7042.11
660.22	6904.9
660.412	6941.76
660.604	6960.19
660.796	6845.51
660.988	6822.98
661.18	6736.96
661.372	6736.96
661.563	6505.54
661.755	6528.07
661.947	6603.85
662.139	6526.02
662.331	6591.56
662.522	6292.55
662.714	6388.81
662.906	6413.38
663.097	6362.19
663.289	6270.03
663.481	6339.66
663.673	6210.64
663.864	6241.36
664.056	6067.28
664.247	6085.71
664.439	5997.65
664.631	5995.6
664.822	5880.91
665.014	5903.44
665.205	5751.89
665.397	5772.37
665.588	5753.94
665.78	5796.95
665.971	5764.18
666.163	5631.06
666.354	5704.79
666.546	5602.39
666.737	5416.02
666.929	5446.74
667.12	5622.87
667.311	5459.03
667.503	5446.74
667.694	5375.06
667.885	5436.5
668.077	5282.91
668.268	5235.8
668.459	5110.88
668.651	5229.66
668.842	5260.38
669.033	5069.92
669.224	4990.05
669.416	5057.63
669.607	5069.92
669.798	5067.87
669.989	5039.2
670.18	4836.45
670.371	4920.42
670.563	4893.79
670.754	4793.44
670.945	4754.53
671.136	4783.2
671.327	4770.91
671.518	4695.14
671.709	4789.35
671.9	4725.86
672.091	4678.76
672.282	4494.44
672.473	4588.64
672.664	4566.12
672.855	4377.7
673.046	4394.09
673.237	4441.19
673.428	4564.07
673.619	4379.75
673.809	4465.77
674	4332.65
674.191	4396.14
674.382	4519.01
674.573	4424.81
674.764	4179.05
674.954	4260.97
675.145	4193.39
675.336	4230.25
675.527	4185.19
675.717	4232.3
675.908	4156.52
676.099	4224.11
676.289	4193.39
676.48	4152.43
676.671	4013.17
676.861	4084.84
677.052	4023.41
677.243	4056.17
677.433	3914.86
677.624	4043.88
677.814	3984.49
678.005	3730.55
678.195	3824.75
678.386	4193.39
678.576	3904.62
678.767	3843.18
678.957	3939.44
679.148	3890.29
679.338	3933.29
679.529	3816.56
679.719	3908.72
679.909	3718.26
680.1	3818.61
680.29	3765.36
680.481	3726.45
680.671	3814.51
680.861	3681.39
681.052	3738.74
681.242	3603.57
681.432	3613.81
681.622	3603.57
681.813	3644.53
682.003	3632.24
682.193	3562.61
682.383	3611.76
682.573	3644.53
682.764	3572.85
682.954	3638.39
683.144	3538.04
683.334	3472.5
683.524	3519.6
683.714	3464.31
683.904	3462.26
684.094	3595.38
684.284	3454.07
684.474	3456.12
684.664	3394.68
684.854	3542.13
685.044	3505.27
685.234	3439.73
685.424	3562.61
685.614	3372.15
685.804	3529.84
685.994	3501.17
686.184	3437.69
686.374	3433.59
686.564	3384.44
686.753	3464.31
686.943	3394.68
687.133	3267.7
687.323	3296.38
687.513	3409.01
687.702	3236.99
687.892	3284.09
688.082	3429.49
688.272	3292.28
688.461	3329.14
688.651	3300.47
688.841	3187.83
689.03	3279.99
689.22	3294.33
689.41	3083.39
689.599	3177.59
689.789	3327.1
689.979	3310.71
690.168	3132.54
690.358	3177.59
690.547	3173.5
690.737	3292.28
690.926	3275.9
691.116	3140.73
691.305	3222.65
691.495	3146.87
691.684	3226.75
691.874	3239.03
692.063	3228.79
692.252	3218.55
692.442	3130.49
692.631	3251.32
692.82	3122.3
693.01	3093.63
693.199	3089.53
693.388	3089.53
693.578	3114.11
693.767	3062.91
693.956	3046.52
694.146	3114.11
694.335	3091.58
694.524	3097.72
694.713	3081.34
694.902	3087.48
695.092	2962.56
695.281	2968.7
695.47	3146.87
695.659	3019.9
695.848	2980.99
696.037	2913.41
696.226	3013.76
696.415	2864.25
696.604	2997.37
696.793	2792.58
696.982	3024
697.171	2987.13
697.36	2997.37
697.549	2925.69
697.738	2942.08
697.927	2815.1
698.116	2888.83
698.305	2849.92
698.494	2710.66
698.683	2903.17
698.872	2862.21
699.061	2763.9
699.25	2741.38
699.438	2792.58
699.627	2714.75
699.816	2630.79
700.005	2714.75
700.193	2630.79
700.382	2774.14
700.571	2714.75
700.76	2718.85
700.948	2759.81
701.137	2622.59
701.326	2663.55
701.514	2616.45
701.703	2653.31
701.892	2591.88
702.08	2655.36
702.269	2651.27
702.457	2690.18
702.646	2649.22
702.834	2593.92
703.023	2557.06
703.212	2591.88
703.4	2446.47
703.589	2561.16
703.777	2479.24
703.965	2393.22
704.154	2518.15
704.342	2466.95
704.531	2495.62
704.719	2407.56
704.907	2458.76
705.096	2469
705.284	2417.8
705.472	2299.02
705.661	2479.24
705.849	2446.47
706.037	2280.58
706.226	2325.64
706.414	2311.3
706.602	2286.73
706.79	2274.44
706.979	2311.3
707.167	2382.98
707.355	2237.58
707.543	2178.19
707.731	2270.34
707.919	2346.12
708.107	2225.29
708.296	2169.99
708.484	2143.37
708.672	2141.32
708.86	2116.75
709.048	2067.6
709.236	2083.98
709.424	2135.18
709.612	1993.87
709.8	2071.69
709.988	2067.6
710.176	2124.94
710.364	2202.76
710.551	2137.23
710.739	2034.83
710.927	1993.87
711.115	2020.49
711.303	2016.4
711.491	2098.31
711.679	1979.53
711.866	1926.29
712.054	2065.55
712.242	1997.96
712.43	2022.54
712.617	1942.67
712.805	2012.3
712.993	1997.96
713.181	1893.52
713.368	1899.66
713.556	1959.05
713.744	1950.86
713.931	1993.87
714.119	1866.89
714.306	1866.89
714.494	1868.94
714.682	1848.46
714.869	1866.89
715.057	1784.98
715.244	1787.02
715.432	1879.18
715.619	1825.93
715.807	1825.93
715.994	1692.82
716.182	1801.36
716.369	1746.06
716.556	1887.37
716.744	1776.78
716.931	1701.01
717.119	1772.69
717.306	1733.78
717.493	1633.43
717.681	1674.39
717.868	1664.15
718.055	1682.58
718.242	1707.15
718.43	1584.27
718.617	1715.34
718.804	1647.76
718.991	1608.85
719.179	1606.8
719.366	1664.15
719.553	1563.79
719.74	1592.47
719.927	1531.03
720.114	1547.41
720.301	1512.6
720.488	1543.32
720.676	1574.03
720.863	1440.92
721.05	1647.76
721.237	1522.84
721.424	1531.03
721.611	1557.65
721.798	1510.55
721.985	1432.72
722.172	1459.35
722.358	1451.16
722.545	1447.06
722.732	1434.77
722.919	1320.09
723.106	1533.08
723.293	1373.33
723.48	1402.01
723.667	1361.05
723.853	1453.2
724.04	1320.09
724.227	1369.24
724.414	1326.23
724.6	1483.92
724.787	1356.95
724.974	1264.79
725.161	1307.8
725.347	1354.9
725.534	1350.81
725.72	1242.26
725.907	1449.11
726.094	1246.36
726.28	1365.14
726.467	1215.64
726.653	1201.3
726.84	1309.85
727.027	1346.71
727.213	1268.89
727.4	1275.03
727.586	1182.87
727.773	1215.64
727.959	1213.59
728.145	1369.24
728.332	1191.06
728.518	1186.97
728.705	1191.06
728.891	1160.34
729.077	1197.21
729.264	1191.06
729.45	1201.3
729.636	1197.21
729.823	1189.02
730.009	1137.82
730.195	1195.16
730.382	1133.72
730.568	1168.54
730.754	1148.06
730.94	1154.2
731.126	1066.14
731.313	1113.24
731.499	1107.1
731.685	1086.62
731.871	1070.23
732.057	1141.91
732.243	1135.77
732.429	1064.09
732.615	1129.63
732.801	1146.01
732.987	1090.71
733.173	994.46
733.359	1100.95
733.545	1092.76
733.731	1043.61
733.917	1068.19
734.103	1012.89
734.289	1135.77
734.475	951.45
734.661	1055.9
734.847	1045.66
735.033	1059.99
735.219	969.88
735.404	1113.24
735.59	965.79
735.776	908.44
735.962	1019.04
736.148	1037.47
736.333	1059.99
736.519	984.22
736.705	947.36
736.89	959.64
737.076	984.22
737.262	930.97
737.447	986.27
737.633	963.74
737.819	912.54
738.004	877.73
738.19	1004.7
738.375	928.92
738.561	920.73
738.747	904.35
738.932	842.91
739.118	1010.84
739.303	865.44
739.489	840.86
739.674	871.58
739.859	930.97
740.045	894.11
740.23	924.83
740.416	857.25
740.601	865.44
740.786	756.9
740.972	814.24
741.157	869.53
741.342	838.81
741.528	822.43
741.713	826.53
741.898	896.16
742.084	752.8
742.269	787.61
742.454	853.15
742.639	832.67
742.824	824.48
743.01	756.9
743.195	717.98
743.38	769.18
743.565	746.66
743.75	816.29
743.935	801.95
744.12	883.87
744.305	836.77
744.49	736.42
744.675	773.28
744.86	765.09
745.045	801.95
745.23	765.09
745.415	652.45
745.6	687.26
745.785	820.38
745.97	726.18
746.155	808.09
746.34	746.66
746.525	715.94
746.71	695.46
746.895	648.35
747.079	664.74
747.264	748.7
747.449	703.65
747.634	664.74
747.819	699.55
748.003	607.39
748.188	658.59
748.373	648.35
748.557	736.42
748.742	681.12
748.927	703.65
749.111	625.83
749.296	580.77
749.481	646.3
749.665	634.02
749.85	593.06
750.034	687.26
750.219	625.83
750.404	646.3
750.588	597.15
750.773	566.43
750.957	662.69
751.141	548
751.326	613.54
751.51	611.49
751.695	531.62
751.879	576.67
752.064	580.77
752.248	625.83
752.432	640.16
752.617	484.52
752.801	599.2
752.985	537.76
753.17	584.87
753.354	595.11
753.538	603.3
753.722	586.91
753.907	568.48
754.091	525.47
754.275	548
754.459	580.77
754.643	474.28
754.828	466.08
755.012	482.47
755.196	615.59
755.38	490.66
755.564	523.43
755.748	527.52
755.932	523.43
756.116	482.47
756.3	515.23
756.484	533.67
756.668	439.46
756.852	457.89
757.036	437.41
757.22	523.43
757.404	492.71
757.588	476.32
757.772	468.13
757.956	429.22
758.14	492.71
758.323	478.37
758.507	472.23
758.691	478.37
758.875	435.36
759.059	539.81
759.242	488.61
759.426	445.6
759.61	365.73
759.794	480.42
759.977	464.04
760.161	435.36
760.345	527.52
760.528	468.13
760.712	500.9
760.895	474.28
761.079	457.89
761.263	418.98
761.446	466.08
761.63	414.88
761.813	429.22
761.997	474.28
762.18	427.17
762.364	445.6
762.547	375.97
762.731	431.27
762.914	429.22
763.098	416.93
763.281	408.74
763.464	406.69
763.648	382.12
763.831	375.97
764.015	425.12
764.198	427.17
764.381	437.41
764.564	367.78
764.748	416.93
764.931	459.94
765.114	320.68
765.297	421.03
765.481	402.6
765.664	416.93
765.847	425.12
766.03	369.83
766.213	300.2
766.397	375.97
766.58	343.21
766.763	410.79
766.946	330.92
767.129	416.93
767.312	400.55
767.495	343.21
767.678	332.97
767.861	476.32
768.044	375.97
768.227	359.59
768.41	398.5
768.593	359.59
768.776	378.02
768.959	349.35
769.142	396.45
769.324	392.36
769.507	414.88
769.69	445.6
769.873	347.3
770.056	359.59
770.239	355.49
770.421	378.02
770.604	402.6
770.787	330.92
770.97	337.06
771.152	296.1
771.335	337.06
771.518	449.7
771.7	316.58
771.883	384.16
772.066	335.01
772.248	365.73
772.431	425.12
772.613	384.16
772.796	380.07
772.978	349.35
773.161	324.77
773.343	361.64
773.526	341.16
773.708	335.01
773.891	330.92
774.073	349.35
774.256	335.01
774.438	335.01
774.621	392.36
774.803	357.54
774.985	347.3
775.168	267.43
775.35	279.72
775.532	396.45
775.715	330.92
775.897	281.77
776.079	257.19
776.261	345.25
776.444	277.67
776.626	302.25
776.808	310.44
776.99	332.97
777.173	345.25
777.355	314.53
777.537	324.77
777.719	257.19
777.901	326.82
778.083	312.49
778.265	306.34
778.447	306.34
778.629	298.15
778.811	332.97
778.993	275.62
779.175	314.53
779.357	289.96
779.539	267.43
779.721	283.81
779.903	275.62
780.085	273.57
780.267	273.57
780.449	320.68
780.631	310.44
780.812	277.67
780.994	335.01
781.176	316.58
781.358	222.38
781.54	216.23
781.721	222.38
781.903	304.29
782.085	249
782.267	277.67
782.448	224.42
782.63	255.14
782.812	242.85
782.993	224.42
783.175	257.19
783.357	234.66
783.538	285.86
783.72	263.33
783.901	287.91
784.083	230.57
784.264	261.29
784.446	173.22
784.627	236.71
784.809	283.81
784.99	263.33
785.172	234.66
785.353	240.81
785.535	148.65
785.716	232.62
785.897	171.18
786.079	238.76
786.26	189.61
786.441	187.56
786.623	205.99
786.804	257.19
786.985	246.95
787.167	193.7
787.348	187.56
787.529	236.71
787.71	222.38
787.891	183.46
788.073	99.5
788.254	226.47
788.435	199.85
788.616	171.18
788.797	132.26
788.978	128.17
789.159	162.98
789.34	76.97
789.522	132.26
789.703	193.7
789.884	199.85
790.065	132.26
790.246	273.57
790.427	156.84
790.607	181.42
790.788	197.8
790.969	179.37
791.15	162.98
791.331	162.98
791.512	162.98
791.693	152.74
791.874	150.7
792.054	87.21
792.235	171.18
792.416	130.22
792.597	150.7
792.778	228.52
792.958	173.22
793.139	179.37
793.32	154.79
793.5	216.23
793.681	214.18
793.862	189.61
794.042	195.75
794.223	173.22
794.404	140.46
794.584	107.69
794.765	144.55
794.945	122.02
795.126	99.5
795.306	124.07
795.487	199.85
795.667	154.79
795.848	144.55
796.028	189.61
796.209	177.32
796.389	189.61
796.57	124.07
796.75	138.41
796.93	148.65
797.111	144.55
797.291	167.08
797.471	205.99
797.652	81.07
797.832	85.16
798.012	97.45
798.192	146.6
798.373	179.37
798.553	124.07
798.733	156.84
798.913	91.31
799.093	44.2
799.274	150.7
799.454	144.55
799.634	156.84
799.814	189.61
799.994	171.18
800.174	115.88
800.354	111.78
800.534	130.22
800.714	93.35
800.894	107.69
801.074	126.12
801.254	89.26
801.434	124.07
801.614	124.07
801.794	54.44
801.974	273.57
802.154	117.93
802.334	91.31
802.514	89.26
802.693	85.16
802.873	154.79
803.053	132.26
803.233	117.93
803.413	85.16
803.592	146.6
803.772	165.03
803.952	29.87
804.131	109.74
804.311	160.94
804.491	58.54
804.67	93.35
804.85	83.11
805.03	144.55
805.209	64.68
805.389	105.64
805.568	76.97
805.748	58.54
805.928	142.5
806.107	122.02
806.287	146.6
806.466	130.22
806.646	95.4
806.825	171.18
807.004	95.4
807.184	132.26
807.363	97.45
807.543	128.17
807.722	130.22
807.901	177.32
808.081	36.01
808.26	70.83
808.439	60.59
808.619	60.59
808.798	122.02
808.977	148.65
809.156	138.41
809.336	171.18
809.515	105.64
809.694	68.78
809.873	76.97
810.052	146.6
810.231	122.02
810.411	64.68
810.59	148.65
810.769	72.87
810.948	91.31
811.127	74.92
811.306	31.91
811.485	89.26
811.664	48.3
811.843	126.12
812.022	146.6
812.201	93.35
812.38	64.68
812.559	119.98
812.737	132.26
812.916	81.07
813.095	25.77
813.274	62.63
813.453	113.83
813.632	99.5
813.811	146.6
813.989	56.49
814.168	25.77
814.347	107.69
814.526	134.31
814.704	87.21
814.883	115.88
815.062	74.92
815.24	136.36
815.419	89.26
815.598	66.73
815.776	54.44
815.955	101.55
816.133	107.69
816.312	66.73
816.49	136.36
816.669	17.58
816.847	13.48
817.026	132.26
817.204	132.26
817.383	72.87
817.561	36.01
817.74	-17.24
817.918	58.54
818.097	46.25
818.275	89.26
818.453	122.02
818.632	70.83
818.81	50.35
818.988	74.92
819.167	117.93
819.345	62.63
819.523	52.39
819.701	97.45
819.879	52.39
820.058	46.25
820.236	81.07
820.414	72.87
820.592	99.5
820.77	33.96
820.948	52.39
821.127	23.72
821.305	119.98
821.483	54.44
821.661	50.35
821.839	54.44
822.017	107.69
822.195	25.77
822.373	64.68
822.551	29.87
822.729	93.35
822.907	107.69
823.085	105.64
823.262	31.91
823.44	79.02
823.618	66.73
823.796	46.25
823.974	33.96
824.152	74.92
824.329	19.63
824.507	36.01
824.685	36.01
824.863	58.54
825.04	87.21
825.218	101.55
825.396	-4.95
825.574	56.49
825.751	48.3
825.929	50.35
826.107	130.22
826.284	58.54
826.462	38.06
826.639	29.87
826.817	31.91
826.994	70.83
827.172	-17.24
827.349	48.3
827.527	3.24
827.704	50.35
827.882	62.63
828.059	91.31
828.237	64.68
828.414	101.55
828.591	54.44
828.769	87.21
828.946	74.92
829.124	44.2
829.301	40.11
829.478	85.16
829.655	58.54
829.833	31.91
830.01	7.34
830.187	64.68
830.364	70.83
830.542	11.43
830.719	50.35
830.896	93.35
831.073	-15.19
831.25	60.59
831.427	109.74
831.604	105.64
831.782	27.82
831.959	62.63
832.136	74.92
832.313	48.3
832.49	52.39
832.667	79.02
832.844	25.77
833.021	68.78
833.198	85.16
833.374	83.11
833.551	27.82
833.728	15.53
833.905	-37.72
834.082	66.73
834.259	85.16
834.436	50.35
834.612	-4.95
834.789	89.26
834.966	-17.24
835.143	83.11
835.319	-7
835.496	7.34
835.673	72.87
835.85	85.16
836.026	50.35
836.203	97.45
836.38	40.11
836.556	64.68
836.733	-37.72
836.909	74.92
837.086	7.34
837.262	33.96
837.439	3.24
837.616	7.34
837.792	46.25
837.968	58.54
838.145	3.24
838.321	68.78
838.498	52.39
838.674	89.26
838.851	21.67
839.027	48.3
839.203	54.44
839.38	46.25
839.556	111.78
839.732	64.68
839.909	1.19
840.085	-2.9
840.261	76.97
840.437	52.39
840.614	50.35
840.79	81.07
840.966	58.54
841.142	11.43
841.318	58.54
841.494	13.48
841.671	7.34
841.847	93.35
842.023	-17.24
842.199	-9.05
842.375	-58.2
842.551	76.97
842.727	25.77
842.903	79.02
843.079	-21.33
843.255	19.63
843.431	-13.14
843.607	74.92
843.783	-2.9
843.959	62.63
844.134	-93.01
844.31	60.59
844.486	11.43
844.662	33.96
844.838	-11.09
845.013	44.2
845.189	21.67
845.365	-13.14
845.541	23.72
845.716	31.91
845.892	15.53
846.068	9.39
846.244	7.34
846.419	7.34
846.595	15.53
846.77	50.35
846.946	81.07
847.122	17.58
847.297	40.11
847.473	-47.96
847.648	-54.1
847.824	107.69
847.999	105.64
848.175	79.02
848.35	-11.09
848.526	23.72
848.701	89.26
848.876	25.77
849.052	46.25
849.227	-21.33
849.403	38.06
849.578	66.73
849.753	-50
849.929	17.58
850.104	-0.85
850.279	31.91
850.454	83.11
850.63	21.67
850.805	54.44
850.98	3.24
851.155	15.53
851.33	44.2
851.505	79.02
851.681	76.97
851.856	21.67
852.031	17.58
852.206	27.82
852.381	38.06
852.556	109.74
852.731	19.63
852.906	54.44
853.081	17.58
853.256	62.63
853.431	46.25
853.606	25.77
853.781	3.24
853.956	38.06
854.131	15.53
854.305	74.92
854.48	-7
854.655	40.11
854.83	70.83
855.005	36.01
855.18	44.2
855.354	40.11
855.529	76.97
855.704	-39.76
855.879	27.82
856.053	-60.24
856.228	15.53
856.403	19.63
856.577	70.83
856.752	48.3
856.926	23.72
857.101	101.55
857.276	-21.33
857.45	7.34
857.625	3.24
857.799	-72.53
857.974	91.31
858.148	17.58
858.323	-7
858.497	-17.24
858.672	-78.68
858.846	-29.52
859.02	21.67
859.195	-13.14
859.369	-47.96
859.543	56.49
859.718	42.15
859.892	44.2
860.066	76.97
860.241	-25.43
860.415	-21.33
860.589	-19.29
860.763	-25.43
860.938	25.77
861.112	-11.09
861.286	19.63
861.46	15.53
861.634	56.49
861.808	56.49
861.982	31.91
862.157	62.63
862.331	-7
862.505	-9.05
862.679	64.68
862.853	-0.85
863.027	9.39
863.201	40.11
863.375	-43.86
863.549	40.11
863.722	17.58
863.896	11.43
864.07	40.11
864.244	-21.33
864.418	-9.05
864.592	7.34
864.766	7.34
864.939	23.72
865.113	-17.24
865.287	52.39
865.461	-7
865.634	25.77
865.808	46.25
865.982	105.64
866.156	44.2
866.329	36.01
866.503	-25.43
866.676	1.19
866.85	-4.95
867.024	-17.24
867.197	11.43
867.371	44.2
867.544	-60.24
867.718	44.2
867.891	95.4
868.065	-35.67
868.238	76.97
868.412	40.11
868.585	-0.85
868.759	72.87
868.932	25.77
869.105	62.63
869.279	-56.15
869.452	48.3
869.625	1.19
869.799	17.58
869.972	-70.48
870.145	48.3
870.319	21.67
870.492	-39.76
870.665	-2.9
870.838	-13.14
871.011	23.72
871.185	-15.19
871.358	-21.33
871.531	31.91
871.704	42.15
871.877	40.11
872.05	-31.57
872.223	40.11
872.396	48.3
872.569	25.77
872.742	-58.2
872.915	29.87
873.088	-13.14
873.261	95.4
873.434	52.39
873.607	3.24
873.78	38.06
873.953	9.39
874.126	27.82
874.299	54.44
874.471	15.53
874.644	-27.48
874.817	79.02
874.99	33.96
875.163	-23.38
875.335	38.06
875.508	-56.15
875.681	40.11
875.853	-0.85
876.026	31.91
876.199	-60.24
876.371	7.34
876.544	19.63
876.717	-7
876.889	-70.48
877.062	-19.29
877.234	-0.85
877.407	-13.14
877.579	-9.05
877.752	48.3
877.924	79.02
878.097	91.31
878.269	74.92
878.442	60.59
878.614	31.91
878.786	-11.09
878.959	54.44
879.131	33.96
879.303	-72.53
879.476	113.83
879.648	13.48
879.82	29.87
879.993	-41.81
880.165	-2.9
880.337	74.92
880.509	38.06
880.681	-41.81
880.854	21.67
881.026	9.39
881.198	23.72
881.37	-25.43
881.542	13.48
881.714	-23.38
881.886	-50
882.058	5.29
882.23	56.49
882.402	-33.62
882.574	25.77
882.746	21.67
882.918	107.69
883.09	-66.39
883.262	13.48
883.434	21.67
883.606	9.39
883.778	19.63
883.95	83.11
884.122	-9.05
884.293	81.07
884.465	58.54
884.637	58.54
884.809	103.59
884.98	70.83
885.152	-25.43
885.324	87.21
885.496	-58.2
885.667	33.96
885.839	44.2
886.011	83.11
886.182	1.19
886.354	124.07
886.525	-13.14
886.697	-23.38
886.869	44.2
887.04	-25.43
887.212	15.53
887.383	66.73
887.555	19.63
887.726	-2.9
887.897	56.49
888.069	76.97
888.24	50.35
888.412	1.19
888.583	1.19
888.754	21.67
888.926	-17.24
889.097	-2.9
889.268	-15.19
889.44	54.44
889.611	105.64
889.782	50.35
889.953	-25.43
890.125	99.5
890.296	42.15
890.467	-15.19
890.638	5.29
890.809	-2.9
890.98	58.54
891.151	42.15
891.323	74.92
891.494	31.91
891.665	29.87
891.836	-15.19
892.007	9.39
892.178	42.15
892.349	13.48
892.52	23.72
892.691	29.87
892.862	7.34
893.032	36.01
893.203	9.39
893.374	-0.85
893.545	46.25
893.716	-50
893.887	3.24
894.057	21.67
894.228	19.63
894.399	-54.1
894.57	9.39
894.74	-21.33
894.911	31.91
895.082	15.53
895.253	-31.57
895.423	-31.57
895.594	52.39
895.764	25.77
895.935	-17.24
896.106	50.35
896.276	13.48
896.447	-45.91
896.617	-33.62
896.788	40.11
896.958	-25.43
897.129	-11.09
897.299	-17.24
897.47	-47.96
897.64	-2.9
897.81	33.96
897.981	-11.09
898.151	31.91
898.322	-23.38
898.492	-58.2
898.662	-4.95
898.832	17.58
899.003	48.3
899.173	15.53
899.343	-15.19
899.513	56.49
