Data from USB4F104151__59__12-36-26-535.txt Node

Date: Fri Mar 14 12:36:26 EDT 2025
User: louis
Spectrometer: USB4F10415
Trigger mode: 4
Integration Time (sec): 2.000000E-2
Scans to average: 1
Electric dark correction enabled: true
Nonlinearity correction enabled: false
Boxcar width: 0
XAxis mode: Wavelengths
Number of Pixels in Spectrum: 3648
>>>>>Begin Spectral Data<<<<<
178.204	-104.79
178.424	-104.79
178.644	-104.79
178.864	-106.84
179.084	-35.16
179.304	-4.44
179.524	-39.25
179.744	3.75
179.964	-33.11
180.184	-2.39
180.404	-4.44
180.624	3.75
180.844	32.43
181.064	-88.4
181.283	110.25
181.503	9.9
181.723	11.95
181.943	-35.16
182.163	67.24
182.383	77.48
182.602	54.95
182.822	67.24
183.042	36.52
183.262	22.19
183.482	-16.73
183.701	57
183.921	11.95
184.141	32.43
184.361	38.57
184.58	93.87
184.8	75.43
185.02	3.75
185.239	79.53
185.459	34.47
185.679	83.63
185.898	-0.34
186.118	54.95
186.338	63.15
186.557	77.48
186.777	-49.49
186.997	40.62
187.216	20.14
187.436	26.28
187.655	13.99
187.875	40.62
188.095	34.47
188.314	69.29
188.534	138.92
188.753	13.99
188.973	81.58
189.192	13.99
189.412	-24.92
189.631	79.53
189.851	67.24
190.07	48.81
190.29	-41.3
190.509	42.67
190.729	40.62
190.948	38.57
191.168	128.68
191.387	34.47
191.607	18.09
191.826	-2.39
192.045	-16.73
192.265	63.15
192.484	22.19
192.704	57
192.923	77.48
193.142	112.3
193.362	73.39
193.581	36.52
193.8	97.96
194.02	87.72
194.239	48.81
194.458	24.23
194.678	46.76
194.897	48.81
195.116	106.15
195.335	75.43
195.555	102.06
195.774	44.71
195.993	34.47
196.212	69.29
196.432	-8.53
196.651	89.77
196.87	30.38
197.089	194.22
197.308	34.47
197.528	11.95
197.747	65.19
197.966	59.05
198.185	52.91
198.404	5.8
198.623	18.09
198.842	9.9
199.062	147.11
199.281	50.86
199.5	79.53
199.719	91.82
199.938	112.3
200.157	-24.92
200.376	95.91
200.595	-0.34
200.814	22.19
201.033	18.09
201.252	104.11
201.471	140.97
201.69	112.3
201.909	26.28
202.128	50.86
202.347	77.48
202.566	118.44
202.785	-0.34
203.004	20.14
203.223	36.52
203.442	71.34
203.661	46.76
203.879	65.19
204.098	71.34
204.317	102.06
204.536	145.06
204.755	-39.25
204.974	65.19
205.193	44.71
205.411	145.06
205.63	40.62
205.849	3.75
206.068	95.91
206.287	69.29
206.505	95.91
206.724	65.19
206.943	63.15
207.162	116.39
207.381	3.75
207.599	77.48
207.818	63.15
208.037	50.86
208.255	69.29
208.474	38.57
208.693	36.52
208.911	54.95
209.13	61.1
209.349	108.2
209.567	95.91
209.786	155.3
210.005	5.8
210.223	65.19
210.442	-12.63
210.661	75.43
210.879	69.29
211.098	69.29
211.316	91.82
211.535	116.39
211.753	54.95
211.972	114.34
212.191	7.85
212.409	54.95
212.628	26.28
212.846	9.9
213.065	3.75
213.283	24.23
213.502	59.05
213.72	69.29
213.938	73.39
214.157	126.63
214.375	89.77
214.594	102.06
214.812	34.47
215.031	102.06
215.249	54.95
215.467	97.96
215.686	40.62
215.904	48.81
216.122	46.76
216.341	42.67
216.559	93.87
216.778	30.38
216.996	85.67
217.214	-12.63
217.432	38.57
217.651	32.43
217.869	102.06
218.087	102.06
218.306	28.33
218.524	30.38
218.742	83.63
218.96	71.34
219.179	83.63
219.397	5.8
219.615	65.19
219.833	42.67
220.051	7.85
220.27	48.81
220.488	93.87
220.706	122.54
220.924	11.95
221.142	87.72
221.36	16.04
221.578	-20.82
221.796	61.1
222.015	95.91
222.233	9.9
222.451	34.47
222.669	-20.82
222.887	97.96
223.105	20.14
223.323	-0.34
223.541	28.33
223.759	38.57
223.977	18.09
224.195	32.43
224.413	79.53
224.631	100.01
224.849	108.2
225.067	20.14
225.285	18.09
225.503	61.1
225.721	-0.34
225.939	59.05
226.157	50.86
226.375	200.36
226.592	-16.73
226.81	-12.63
227.028	63.15
227.246	52.91
227.464	104.11
227.682	46.76
227.9	46.76
228.117	65.19
228.335	1.71
228.553	54.95
228.771	85.67
228.989	89.77
229.206	59.05
229.424	77.48
229.642	5.8
229.86	71.34
230.077	77.48
230.295	48.81
230.513	44.71
230.731	44.71
230.948	34.47
231.166	77.48
231.384	-6.49
231.601	73.39
231.819	57
232.037	26.28
232.254	13.99
232.472	13.99
232.689	75.43
232.907	-24.92
233.125	16.04
233.342	91.82
233.56	67.24
233.777	-45.4
233.995	13.99
234.213	73.39
234.43	95.91
234.648	116.39
234.865	36.52
235.083	59.05
235.3	89.77
235.518	52.91
235.735	34.47
235.953	-0.34
236.17	110.25
236.388	5.8
236.605	22.19
236.822	77.48
237.04	42.67
237.257	77.48
237.475	26.28
237.692	100.01
237.909	110.25
238.127	16.04
238.344	9.9
238.562	89.77
238.779	18.09
238.996	44.71
239.214	79.53
239.431	54.95
239.648	24.23
239.865	65.19
240.083	-16.73
240.3	28.33
240.517	69.29
240.735	63.15
240.952	32.43
241.169	-20.82
241.386	44.71
241.603	34.47
241.821	-8.53
242.038	61.1
242.255	54.95
242.472	-22.87
242.689	44.71
242.907	104.11
243.124	-18.77
243.341	89.77
243.558	69.29
243.775	54.95
243.992	54.95
244.209	93.87
244.426	87.72
244.643	59.05
244.86	59.05
245.078	46.76
245.295	42.67
245.512	54.95
245.729	11.95
245.946	87.72
246.163	71.34
246.38	59.05
246.597	5.8
246.814	-8.53
247.031	54.95
247.248	28.33
247.464	52.91
247.681	57
247.898	42.67
248.115	75.43
248.332	59.05
248.549	116.39
248.766	32.43
248.983	147.11
249.2	112.3
249.417	106.15
249.633	-16.73
249.85	22.19
250.067	42.67
250.284	120.49
250.501	91.82
250.717	83.63
250.934	38.57
251.151	116.39
251.368	61.1
251.585	22.19
251.801	132.78
252.018	65.19
252.235	44.71
252.451	104.11
252.668	57
252.885	122.54
253.102	71.34
253.318	54.95
253.535	46.76
253.752	87.72
253.968	52.91
254.185	83.63
254.401	59.05
254.618	95.91
254.835	48.81
255.051	46.76
255.268	104.11
255.484	67.24
255.701	63.15
255.917	81.58
256.134	63.15
256.351	20.14
256.567	112.3
256.784	114.34
257	28.33
257.217	38.57
257.433	9.9
257.65	134.82
257.866	85.67
258.082	-8.53
258.299	18.09
258.515	59.05
258.732	42.67
258.948	36.52
259.165	65.19
259.381	95.91
259.597	77.48
259.814	61.1
260.03	28.33
260.246	104.11
260.463	85.67
260.679	71.34
260.895	30.38
261.112	32.43
261.328	71.34
261.544	54.95
261.761	124.58
261.977	65.19
262.193	20.14
262.409	44.71
262.626	52.91
262.842	57
263.058	-2.39
263.274	118.44
263.49	3.75
263.707	44.71
263.923	106.15
264.139	46.76
264.355	52.91
264.571	97.96
264.787	38.57
265.004	54.95
265.22	65.19
265.436	61.1
265.652	24.23
265.868	42.67
266.084	36.52
266.3	32.43
266.516	36.52
266.732	67.24
266.948	42.67
267.164	-35.16
267.38	126.63
267.596	81.58
267.812	93.87
268.028	87.72
268.244	50.86
268.46	85.67
268.676	81.58
268.892	85.67
269.108	69.29
269.324	36.52
269.54	50.86
269.756	5.8
269.972	52.91
270.188	34.47
270.403	67.24
270.619	11.95
270.835	24.23
271.051	42.67
271.267	24.23
271.483	44.71
271.698	112.3
271.914	65.19
272.13	50.86
272.346	57
272.562	7.85
272.777	149.16
272.993	97.96
273.209	116.39
273.425	77.48
273.64	116.39
273.856	46.76
274.072	36.52
274.287	46.76
274.503	116.39
274.719	91.82
274.934	38.57
275.15	65.19
275.366	75.43
275.581	89.77
275.797	85.67
276.012	63.15
276.228	95.91
276.444	71.34
276.659	30.38
276.875	57
277.09	22.19
277.306	116.39
277.521	136.87
277.737	22.19
277.952	57
278.168	54.95
278.383	153.26
278.599	42.67
278.814	93.87
279.03	61.1
279.245	110.25
279.461	52.91
279.676	106.15
279.892	75.43
280.107	57
280.322	5.8
280.538	28.33
280.753	44.71
280.969	128.68
281.184	77.48
281.399	120.49
281.615	40.62
281.83	46.76
282.045	26.28
282.26	57
282.476	95.91
282.691	71.34
282.906	38.57
283.122	71.34
283.337	42.67
283.552	65.19
283.767	26.28
283.983	44.71
284.198	87.72
284.413	71.34
284.628	-47.44
284.843	20.14
285.058	46.76
285.274	-24.92
285.489	28.33
285.704	59.05
285.919	63.15
286.134	71.34
286.349	106.15
286.564	110.25
286.779	97.96
286.995	145.06
287.21	20.14
287.425	79.53
287.64	95.91
287.855	110.25
288.07	46.76
288.285	104.11
288.5	77.48
288.715	136.87
288.93	-14.68
289.145	42.67
289.36	108.2
289.575	79.53
289.79	40.62
290.004	149.16
290.219	48.81
290.434	77.48
290.649	24.23
290.864	11.95
291.079	57
291.294	42.67
291.509	75.43
291.724	85.67
291.938	3.75
292.153	63.15
292.368	63.15
292.583	46.76
292.798	46.76
293.012	104.11
293.227	50.86
293.442	171.69
293.657	93.87
293.871	114.34
294.086	91.82
294.301	79.53
294.516	48.81
294.73	75.43
294.945	89.77
295.16	54.95
295.374	79.53
295.589	59.05
295.804	104.11
296.018	97.96
296.233	124.58
296.447	79.53
296.662	-20.82
296.877	93.87
297.091	87.72
297.306	83.63
297.52	81.58
297.735	114.34
297.949	34.47
298.164	108.2
298.378	1.71
298.593	93.87
298.807	46.76
299.022	48.81
299.236	71.34
299.451	57
299.665	118.44
299.88	42.67
300.094	69.29
300.309	95.91
300.523	48.81
300.737	67.24
300.952	52.91
301.166	28.33
301.381	89.77
301.595	110.25
301.809	40.62
302.024	-4.44
302.238	48.81
302.452	75.43
302.667	32.43
302.881	63.15
303.095	87.72
303.309	46.76
303.524	38.57
303.738	69.29
303.952	65.19
304.166	110.25
304.381	102.06
304.595	138.92
304.809	89.77
305.023	89.77
305.237	-20.82
305.452	95.91
305.666	89.77
305.88	114.34
306.094	79.53
306.308	59.05
306.522	69.29
306.736	79.53
306.95	106.15
307.164	114.34
307.379	102.06
307.593	149.16
307.807	54.95
308.021	52.91
308.235	22.19
308.449	32.43
308.663	22.19
308.877	91.82
309.091	65.19
309.305	97.96
309.519	95.91
309.733	134.82
309.947	46.76
310.161	63.15
310.374	114.34
310.588	126.63
310.802	52.91
311.016	75.43
311.23	61.1
311.444	38.57
311.658	85.67
311.872	97.96
312.085	79.53
312.299	59.05
312.513	9.9
312.727	46.76
312.941	40.62
313.154	112.3
313.368	30.38
313.582	71.34
313.796	104.11
314.009	20.14
314.223	145.06
314.437	106.15
314.651	85.67
314.864	63.15
315.078	67.24
315.292	42.67
315.505	-0.34
315.719	46.76
315.933	151.21
316.146	44.71
316.36	110.25
316.573	165.54
316.787	-24.92
317.001	75.43
317.214	42.67
317.428	91.82
317.641	87.72
317.855	44.71
318.068	38.57
318.282	28.33
318.495	106.15
318.709	169.64
318.922	46.76
319.136	159.4
319.349	91.82
319.563	-8.53
319.776	69.29
319.99	44.71
320.203	61.1
320.417	71.34
320.63	85.67
320.843	38.57
321.057	106.15
321.27	71.34
321.483	75.43
321.697	77.48
321.91	108.2
322.124	26.28
322.337	83.63
322.55	30.38
322.763	118.44
322.977	46.76
323.19	52.91
323.403	81.58
323.617	93.87
323.83	120.49
324.043	34.47
324.256	81.58
324.469	52.91
324.683	65.19
324.896	128.68
325.109	71.34
325.322	77.48
325.535	79.53
325.748	79.53
325.962	95.91
326.175	1.71
326.388	65.19
326.601	67.24
326.814	114.34
327.027	73.39
327.24	122.54
327.453	104.11
327.666	124.58
327.879	48.81
328.092	97.96
328.305	93.87
328.518	63.15
328.731	73.39
328.944	138.92
329.157	73.39
329.37	77.48
329.583	75.43
329.796	102.06
330.009	71.34
330.222	112.3
330.435	81.58
330.648	114.34
330.861	97.96
331.073	67.24
331.286	85.67
331.499	69.29
331.712	71.34
331.925	1.71
332.138	36.52
332.35	87.72
332.563	73.39
332.776	114.34
332.989	50.86
333.202	46.76
333.414	75.43
333.627	89.77
333.84	65.19
334.053	48.81
334.265	157.35
334.478	24.23
334.691	44.71
334.903	104.11
335.116	69.29
335.329	61.1
335.541	24.23
335.754	102.06
335.966	114.34
336.179	120.49
336.392	126.63
336.604	26.28
336.817	40.62
337.029	3.75
337.242	75.43
337.454	63.15
337.667	36.52
337.88	95.91
338.092	52.91
338.305	75.43
338.517	48.81
338.729	136.87
338.942	54.95
339.154	28.33
339.367	83.63
339.579	77.48
339.792	57
340.004	81.58
340.217	54.95
340.429	120.49
340.641	-2.39
340.854	97.96
341.066	-10.58
341.278	69.29
341.491	73.39
341.703	20.14
341.915	77.48
342.128	120.49
342.34	38.57
342.552	79.53
342.764	61.1
342.977	32.43
343.189	24.23
343.401	54.95
343.613	46.76
343.826	89.77
344.038	130.73
344.25	28.33
344.462	13.99
344.674	69.29
344.886	24.23
345.099	79.53
345.311	69.29
345.523	83.63
345.735	40.62
345.947	75.43
346.159	106.15
346.371	122.54
346.583	61.1
346.795	110.25
347.007	65.19
347.219	89.77
347.431	97.96
347.643	110.25
347.855	75.43
348.067	79.53
348.279	38.57
348.491	136.87
348.703	75.43
348.915	71.34
349.127	5.8
349.339	120.49
349.551	130.73
349.763	9.9
349.975	93.87
350.187	11.95
350.399	102.06
350.61	63.15
350.822	79.53
351.034	83.63
351.246	130.73
351.458	61.1
351.669	87.72
351.881	42.67
352.093	42.67
352.305	120.49
352.517	128.68
352.728	69.29
352.94	108.2
353.152	83.63
353.363	11.95
353.575	73.39
353.787	97.96
353.999	155.3
354.21	130.73
354.422	69.29
354.633	87.72
354.845	120.49
355.057	155.3
355.268	108.2
355.48	128.68
355.692	95.91
355.903	3.75
356.115	24.23
356.326	16.04
356.538	163.5
356.749	134.82
356.961	145.06
357.172	73.39
357.384	112.3
357.595	202.41
357.807	52.91
358.018	63.15
358.23	85.67
358.441	110.25
358.653	106.15
358.864	16.04
359.075	22.19
359.287	61.1
359.498	104.11
359.709	89.77
359.921	46.76
360.132	97.96
360.344	171.69
360.555	104.11
360.766	75.43
360.977	102.06
361.189	126.63
361.4	114.34
361.611	120.49
361.823	138.92
362.034	38.57
362.245	26.28
362.456	95.91
362.667	22.19
362.879	54.95
363.09	54.95
363.301	196.26
363.512	13.99
363.723	106.15
363.935	138.92
364.146	112.3
364.357	57
364.568	97.96
364.779	81.58
364.99	132.78
365.201	73.39
365.412	24.23
365.623	-35.16
365.834	153.26
366.045	32.43
366.256	143.02
366.467	122.54
366.678	65.19
366.889	7.85
367.1	65.19
367.311	34.47
367.522	7.85
367.733	40.62
367.944	128.68
368.155	161.45
368.366	83.63
368.577	71.34
368.788	147.11
368.999	85.67
369.209	104.11
369.42	100.01
369.631	116.39
369.842	79.53
370.053	57
370.264	77.48
370.474	46.76
370.685	136.87
370.896	57
371.107	87.72
371.317	59.05
371.528	54.95
371.739	114.34
371.95	106.15
372.16	112.3
372.371	28.33
372.582	95.91
372.792	130.73
373.003	145.06
373.214	89.77
373.424	30.38
373.635	46.76
373.846	165.54
374.056	138.92
374.267	124.58
374.477	46.76
374.688	59.05
374.898	77.48
375.109	169.64
375.319	69.29
375.53	128.68
375.74	155.3
375.951	3.75
376.161	57
376.372	171.69
376.582	59.05
376.793	100.01
377.003	147.11
377.214	100.01
377.424	77.48
377.635	42.67
377.845	85.67
378.055	100.01
378.266	155.3
378.476	11.95
378.686	147.11
378.897	114.34
379.107	97.96
379.317	52.91
379.528	13.99
379.738	159.4
379.948	-6.49
380.158	118.44
380.369	114.34
380.579	57
380.789	63.15
380.999	67.24
381.21	91.82
381.42	50.86
381.63	177.83
381.84	81.58
382.05	145.06
382.261	110.25
382.471	87.72
382.681	71.34
382.891	28.33
383.101	69.29
383.311	79.53
383.521	95.91
383.731	186.02
383.941	151.21
384.151	122.54
384.361	7.85
384.571	122.54
384.781	81.58
384.991	114.34
385.201	89.77
385.411	108.2
385.621	63.15
385.831	11.95
386.041	132.78
386.251	177.83
386.461	181.93
386.671	20.14
386.881	153.26
387.091	138.92
387.301	153.26
387.511	48.81
387.72	157.35
387.93	91.82
388.14	151.21
388.35	147.11
388.56	91.82
388.769	143.02
388.979	110.25
389.189	116.39
389.399	104.11
389.609	65.19
389.818	108.2
390.028	110.25
390.238	102.06
390.447	48.81
390.657	165.54
390.867	124.58
391.076	100.01
391.286	79.53
391.496	61.1
391.705	167.59
391.915	140.97
392.125	218.79
392.334	100.01
392.544	118.44
392.753	140.97
392.963	63.15
393.172	198.31
393.382	128.68
393.591	157.35
393.801	95.91
394.01	147.11
394.22	108.2
394.429	106.15
394.639	73.39
394.848	75.43
395.058	147.11
395.267	181.93
395.477	120.49
395.686	179.88
395.895	167.59
396.105	157.35
396.314	97.96
396.524	143.02
396.733	114.34
396.942	167.59
397.152	173.74
397.361	241.32
397.57	155.3
397.78	163.5
397.989	190.12
398.198	231.08
398.407	181.93
398.617	173.74
398.826	210.6
399.035	177.83
399.244	188.07
399.453	81.58
399.663	149.16
399.872	202.41
400.081	181.93
400.29	171.69
400.499	253.61
400.708	224.94
400.917	171.69
401.127	151.21
401.336	181.93
401.545	216.74
401.754	208.55
401.963	136.87
402.172	210.6
402.381	196.26
402.59	249.51
402.799	179.88
403.008	249.51
403.217	214.7
403.426	183.98
403.635	153.26
403.844	261.8
404.053	179.88
404.262	208.55
404.471	216.74
404.68	251.56
404.888	200.36
405.097	241.32
405.306	317.09
405.515	239.27
405.724	282.28
405.933	274.09
406.142	276.13
406.35	237.22
406.559	292.52
406.768	329.38
406.977	362.15
407.185	300.71
407.394	362.15
407.603	345.77
407.812	267.94
408.02	343.72
408.229	323.24
408.438	321.19
408.646	306.85
408.855	343.72
409.064	442.02
409.272	493.22
409.481	403.11
409.69	425.64
409.898	423.59
410.107	462.5
410.315	523.94
410.524	407.2
410.733	503.46
410.941	523.94
411.15	566.95
411.358	534.18
411.567	566.95
411.775	661.15
411.984	566.95
412.192	695.97
412.401	581.28
412.609	646.82
412.818	720.54
413.026	734.88
413.234	734.88
413.443	781.98
413.651	757.41
413.86	876.19
414.068	827.04
414.276	900.76
414.485	941.72
414.693	921.24
414.901	1097.37
415.11	1029.79
415.318	1025.69
415.526	1103.51
415.734	1195.67
415.943	1181.34
416.151	1189.53
416.359	1177.24
416.567	1244.82
416.776	1275.54
416.984	1541.78
417.192	1324.69
417.4	1486.48
417.608	1523.35
417.817	1509.01
418.025	1617.55
418.233	1748.62
418.441	1756.82
418.649	1865.36
418.857	1939.09
419.065	1916.56
419.273	1908.37
419.481	1924.75
419.689	2086.54
419.897	2145.93
420.105	2213.51
420.313	2397.83
420.521	2360.97
420.729	2371.21
420.937	2473.6
421.145	2561.67
421.353	2584.2
421.561	2991.74
421.769	3053.18
421.977	2989.69
422.185	3008.12
422.393	3057.28
422.601	3411.57
422.809	3495.54
423.017	3417.72
423.224	3620.47
423.432	3671.67
423.64	3776.11
423.848	3970.67
424.056	3896.94
424.263	4085.36
424.471	4185.71
424.679	4286.06
424.887	4488.81
425.094	4697.7
425.302	4656.74
425.51	4865.63
425.718	4914.78
425.925	5191.26
426.133	5289.56
426.341	5527.13
426.548	5674.58
426.756	6071.89
426.964	5709.4
427.171	6245.96
427.379	6448.71
427.586	6661.7
427.794	6714.95
428.001	7102.01
428.209	7347.77
428.417	7153.21
428.624	7720.5
428.832	7661.11
429.039	7745.08
429.247	7634.49
429.454	8449.58
429.662	9164.32
429.869	8338.99
430.076	9023.01
430.284	8748.58
430.491	8961.57
430.699	9522.71
430.906	9631.26
431.114	9924.12
431.321	10413.58
431.528	10399.24
431.736	11073.03
431.943	11546.11
432.15	11075.07
432.358	11312.64
432.565	12033.52
432.772	11871.73
432.979	12574.19
433.187	12815.85
433.394	12836.33
433.601	13737.43
433.808	13583.84
434.016	13762.01
434.223	14194.13
434.43	15234.5
434.637	14730.7
434.844	15535.55
435.052	16305.59
435.259	15717.82
435.466	15949.24
435.673	15732.15
435.88	16782.76
436.087	17894.81
436.294	17878.43
436.501	17380.77
436.708	17862.04
436.915	18408.85
437.122	19258.76
437.329	19219.85
437.537	19864.96
437.743	19932.54
437.95	19897.72
438.157	20989.29
438.364	21394.79
438.571	21624.16
438.778	21720.42
438.985	23633.22
439.192	22863.18
439.399	23409.99
439.606	22834.51
439.813	24436.02
440.02	25847.07
440.227	25496.87
440.433	25220.39
440.64	26051.87
440.847	25877.79
441.054	26314.01
441.261	28077.31
441.467	27716.87
441.674	28372.22
441.881	29416.68
442.088	29254.89
442.294	29025.52
442.501	30041.31
442.708	30512.35
442.914	31616.2
443.121	32707.77
443.328	32292.03
443.534	34108.58
443.741	33330.35
443.948	33133.75
444.154	35626.12
444.361	34981.01
444.568	35067.03
444.774	35513.48
444.981	35904.65
445.187	37020.79
445.394	38470.75
445.6	37864.55
445.807	41464.88
446.013	39992.39
446.22	40758.33
446.426	42343.46
446.633	42204.2
446.839	43836.43
447.046	42134.57
447.252	44385.29
447.459	44567.55
447.665	44194.82
447.871	46246.89
448.078	48116.68
448.284	45693.94
448.491	47303.64
448.697	49292.22
448.903	49736.63
449.11	49861.55
449.316	49361.85
449.522	50066.35
449.728	51231.64
449.935	51852.18
450.141	51495.83
450.347	52867.97
450.553	51202.97
450.76	51710.87
450.966	53310.33
451.172	52720.52
451.378	54510.44
451.584	53091.2
451.791	54324.08
451.997	54295.41
452.203	54934.37
452.409	55411.55
452.615	55042.91
452.821	52933.51
453.027	52110.22
453.233	54879.08
453.44	52947.84
453.646	53601.14
453.852	53547.9
454.058	55112.55
454.264	53154.69
454.47	54578.03
454.676	52743.05
454.882	54739.82
455.088	50477.99
455.294	51248.03
455.5	51706.77
455.705	52075.41
455.911	49783.73
456.117	48829.38
456.323	48667.59
456.529	45980.65
456.735	48251.85
456.941	46808.03
457.147	46117.87
457.352	45102.07
457.558	44428.29
457.764	44684.29
457.97	43654.16
458.176	42767.39
458.381	42920.99
458.587	40774.72
458.793	40731.71
458.999	39091.29
459.204	41522.23
459.41	40729.66
459.616	37751.91
459.821	37700.72
460.027	37497.97
460.233	37106.8
460.438	35230.87
460.644	35488.91
460.85	33651.88
461.055	33541.29
461.261	33399.98
461.466	30571.74
461.672	29846.76
461.878	32007.36
462.083	29650.15
462.289	29621.48
462.494	28904.69
462.7	27925.76
462.905	26971.41
463.111	27587.85
463.316	28077.31
463.522	27145.48
463.727	27520.26
463.932	27251.98
464.138	27002.13
464.343	27188.49
464.549	26570.01
464.754	27331.85
464.959	27176.2
465.165	27129.1
465.37	25795.87
465.575	25208.11
465.781	26180.89
465.986	26457.37
466.191	25287.98
466.397	24724.79
466.602	23399.75
466.807	24481.08
467.012	24468.79
467.218	24909.1
467.423	23973.18
467.628	24247.61
467.833	25419.05
468.038	24300.86
468.244	23649.6
468.449	24390.97
468.654	23803.2
468.859	23776.58
469.064	23477.57
469.269	22590.8
469.474	22564.18
469.679	23299.4
469.885	22588.75
470.09	22664.53
470.295	22943.05
470.5	22496.6
470.705	22031.71
470.91	21837.15
471.115	21534.05
471.32	21871.96
471.525	21812.57
471.73	21323.11
471.935	21040.49
472.139	20620.66
472.344	20686.19
472.549	20245.88
472.754	20528.5
472.959	20043.13
473.164	19324.29
473.369	19451.27
473.574	19912.06
473.778	19846.52
473.983	19506.56
474.188	19248.52
474.393	18740.62
474.598	18859.4
474.802	18589.07
475.007	18421.14
475.212	18419.09
475.417	17823.13
475.621	17704.35
475.826	17761.69
476.031	17477.02
476.235	17253.8
476.44	17270.18
476.645	17089.96
476.849	17139.11
477.054	16866.73
477.259	16450.99
477.463	16436.66
477.668	16285.11
477.872	16375.22
478.077	15947.19
478.282	15453.63
478.486	15807.93
478.691	15674.81
478.895	15517.12
479.1	15033.8
479.304	15379.9
479.509	14751.18
479.713	15238.59
479.918	14935.49
480.122	14712.27
480.326	14982.6
480.531	14962.12
480.735	14640.59
480.94	14435.79
481.144	14958.02
481.348	14245.33
481.553	14757.32
481.757	14151.12
481.961	14513.61
482.166	14527.95
482.37	14376.4
482.574	14116.31
482.778	14407.12
482.983	14491.09
483.187	14441.93
483.391	14331.34
483.595	14083.54
483.8	14151.12
484.004	14224.85
484.208	14384.59
484.412	14263.76
484.616	14398.93
484.821	14409.17
485.025	14226.9
485.229	14368.21
485.433	14312.91
485.637	14343.63
485.841	14042.58
486.045	14366.16
486.249	14245.33
486.453	13876.69
486.657	14095.83
486.861	14372.3
487.065	14013.91
487.269	13960.66
487.473	13940.18
487.677	14388.69
487.881	14353.87
488.085	14323.15
488.289	14235.09
488.493	14200.27
488.697	14493.13
488.901	14462.41
489.105	14390.74
489.309	14288.34
489.512	14443.98
489.716	14224.85
489.92	14335.44
490.124	14163.41
490.328	14568.91
490.531	14458.32
490.735	14884.3
490.939	14716.36
491.143	14673.35
491.346	14456.27
491.55	14699.98
491.754	14790.09
491.958	14812.62
492.161	14855.62
492.365	15013.32
492.569	14638.54
492.772	15023.56
492.976	15080.9
493.18	15109.57
493.383	15246.79
493.587	15232.45
493.79	15498.69
493.994	15267.27
494.197	15586.75
494.401	15750.59
494.605	15758.78
494.808	15891.9
495.012	16184.76
495.215	16070.07
495.419	16096.69
495.622	16104.88
495.825	16412.08
496.029	16377.26
496.232	16713.13
496.436	16731.56
496.639	16995.75
496.843	17112.49
497.046	17247.65
497.249	17546.65
497.453	17448.35
497.656	17728.92
497.859	17644.96
498.063	18132.37
498.266	18351.51
498.469	18316.69
498.673	18509.2
498.876	18519.44
499.079	18718.09
499.282	18957.71
499.485	19258.76
499.689	19907.96
499.892	19598.72
500.095	19582.34
500.298	20061.56
500.501	20129.14
500.705	20741.49
500.908	20886.89
501.111	20940.14
501.314	21345.64
501.517	21474.66
501.72	21491.04
501.923	21445.99
502.126	22160.73
502.329	22402.39
502.532	22259.03
502.735	22517.08
502.938	23006.54
503.141	23276.87
503.344	23684.42
503.547	23506.24
503.75	23975.23
503.953	24345.91
504.156	24272.18
504.359	24700.21
504.562	24722.74
504.765	25394.47
504.968	25675.04
505.17	25773.35
505.373	25783.59
505.576	26430.74
505.779	26531.09
505.982	26727.7
506.185	27315.47
506.387	27444.49
506.59	27593.99
506.793	28353.79
506.996	27942.14
507.198	28683.51
507.401	28605.69
507.604	28982.51
507.807	29519.08
508.009	29693.16
508.212	29959.39
508.415	30221.53
508.617	30391.51
508.82	30663.89
509.022	30721.24
509.225	31411.4
509.428	31409.36
509.63	32031.94
509.833	31904.96
510.035	32728.25
510.238	32490.68
510.44	32980.15
510.643	33651.88
510.845	33959.08
511.048	33494.19
511.25	34049.19
511.453	34200.74
511.655	35714.19
511.858	34671.77
512.06	34962.58
512.262	35927.17
512.465	35619.98
512.667	36627.58
512.87	36652.16
513.072	36926.58
513.274	37588.08
513.477	37663.85
513.679	37987.43
513.881	38069.35
514.084	38704.22
514.286	38712.41
514.488	39011.42
514.69	40025.16
514.893	39937.1
515.095	40150.09
515.297	40772.67
515.499	40559.68
515.701	41391.16
515.904	41743.41
516.106	42257.45
516.308	42402.85
516.51	42679.33
516.712	42566.69
516.914	43236.37
517.116	43987.98
517.318	44059.66
517.52	44448.77
517.722	44499.97
517.925	44737.54
518.127	45923.31
518.329	45655.03
518.531	45081.59
518.733	46134.25
518.935	46640.1
519.136	46564.32
519.338	47438.81
519.54	47768.53
519.742	47864.78
519.944	48415.69
520.146	48577.48
520.348	48673.73
520.55	48919.49
520.752	49261.5
520.954	50164.65
521.155	49544.12
521.357	50564.01
521.559	50938.79
521.761	51467.16
521.963	51647.38
522.164	51538.84
522.366	51915.67
522.568	51889.04
522.77	52308.88
522.971	53132.16
523.173	52593.54
523.375	53105.54
523.576	53134.21
523.778	53427.07
523.98	54504.3
524.181	53871.48
524.383	53724.02
524.584	55260
524.786	55153.51
524.988	55126.88
525.189	55636.83
525.391	55516
525.592	56132.43
525.794	56189.78
525.995	56423.25
526.197	56798.02
526.398	56107.86
526.6	56996.68
526.801	57045.83
527.003	57740.09
527.204	57318.21
527.406	57676.6
527.607	57584.44
527.808	58125.11
528.01	57580.35
528.211	58266.42
528.412	58788.65
528.614	58209.07
528.815	58436.4
529.016	58899.24
529.218	58495.79
529.419	58542.89
529.62	58993.45
529.822	58805.03
530.023	59122.47
530.224	58845.99
530.425	59124.52
530.626	58452.78
530.828	58577.71
531.029	60078.87
531.23	58872.62
531.431	59343.65
531.632	59439.9
531.833	59677.47
532.035	59685.66
532.236	59734.81
532.437	60080.92
532.638	59482.91
532.839	60402.45
533.04	60068.63
533.241	59400.99
533.442	60859.15
533.643	60052.25
533.844	60705.55
534.045	59908.89
534.246	59183.91
534.447	60183.32
534.648	59777.82
534.849	60349.2
535.05	59745.05
535.251	60121.88
535.451	60154.64
535.652	60148.5
535.853	60224.28
536.054	60121.88
536.255	60527.38
536.456	59841.31
536.657	60646.16
536.857	60066.58
537.058	59786.01
537.259	60547.85
537.46	60019.48
537.66	60072.73
537.861	60216.08
538.062	59609.89
538.263	60056.34
538.463	59749.15
538.664	59990.81
538.865	60158.74
539.065	60889.87
539.266	59743
539.466	60568.33
539.667	59667.23
539.868	60400.4
540.068	59640.6
540.269	59929.37
540.469	60654.35
540.67	59718.43
540.87	59910.94
541.071	59597.6
541.271	60527.38
541.472	60039.96
541.672	59233.06
541.873	59892.5
542.073	59110.18
542.274	60216.08
542.474	59855.64
542.675	59237.15
542.875	60236.56
543.075	60031.77
543.276	59274.02
543.476	59980.57
543.676	59515.68
543.877	59900.7
544.077	59634.46
544.277	59654.94
544.478	59702.04
544.678	59722.52
544.878	59708.19
545.078	59589.41
545.279	59372.32
545.479	59233.06
545.679	59831.07
545.879	59679.52
546.079	59552.54
546.28	59192.1
546.48	59226.91
546.68	59427.62
546.88	59609.89
547.08	59681.56
547.28	59134.76
547.48	58874.66
547.68	59183.91
547.88	58979.11
548.081	59456.29
548.281	59319.07
548.481	59024.17
548.681	59527.97
548.881	59093.8
549.081	59224.87
549.28	59192.1
549.48	59388.7
549.68	59015.97
549.88	59638.56
550.08	59212.58
550.28	59360.03
550.48	58942.25
550.68	59396.9
550.88	58788.65
551.08	59061.03
551.279	59224.87
551.479	59306.79
551.679	59106.08
551.879	58794.79
552.079	59466.53
552.278	58809.13
552.478	58821.42
552.678	58782.51
552.878	58948.39
553.077	59097.89
553.277	58270.51
553.477	59130.66
553.676	58905.38
553.876	59364.13
554.076	58729.26
554.275	58819.37
554.475	58329.9
554.674	58872.62
554.874	58698.54
555.074	58254.13
555.273	58923.82
555.473	58731.31
555.672	58428.21
555.872	58082.1
556.071	58518.32
556.271	58987.3
556.47	58123.06
556.67	58047.28
556.869	58108.72
557.068	58299.19
557.268	58049.33
557.467	58712.87
557.667	57930.55
557.866	57803.58
558.065	57725.75
558.265	58204.98
558.464	57520.96
558.663	58284.85
558.863	57281.34
559.062	58004.28
559.261	57576.25
559.461	57611.07
559.66	57402.17
559.859	57494.33
560.058	57422.65
560.258	57770.81
560.457	57125.7
560.656	58037.05
560.855	57176.9
561.054	57295.68
561.253	56638.28
561.453	57207.62
561.652	56894.28
561.851	57080.64
562.05	56828.74
562.249	56902.47
562.448	57045.83
562.647	56591.18
562.846	56871.75
563.045	56775.5
563.244	56523.6
563.443	56808.26
563.642	55884.63
563.841	56288.08
564.04	56243.02
564.239	56374.09
564.438	55843.67
564.637	56054.61
564.836	56314.7
565.035	55606.11
565.234	55982.93
565.432	55532.38
565.631	55337.82
565.83	55657.31
566.029	55456.6
566.228	55456.6
566.427	55038.82
566.625	55141.22
566.824	54596.46
567.023	55202.66
567.222	54205.3
567.42	55083.87
567.619	54870.89
567.818	54911.84
568.016	54469.48
568.215	54793.06
568.414	54713.19
568.612	54627.18
568.811	54788.97
569.01	54080.37
569.208	53965.68
569.407	54233.97
569.605	53687.16
569.804	54137.71
570.002	53642.1
570.201	54129.52
570.4	53693.3
570.598	53433.21
570.797	53371.77
570.995	53396.35
571.193	52863.88
571.392	53562.23
571.59	52675.46
571.789	52736.9
571.987	53224.32
572.186	52372.36
572.384	52401.04
572.582	52806.53
572.781	53021.57
572.979	51680.15
573.177	52634.5
573.376	52720.52
573.574	52001.68
573.772	52280.2
573.971	52042.64
574.169	51835.8
574.367	51194.78
574.565	52022.16
574.763	51735.45
574.962	51256.22
575.16	50549.67
575.358	50996.13
575.556	51002.27
575.754	51876.76
575.952	50938.79
576.151	50809.76
576.349	50453.42
576.547	50271.15
576.745	50654.12
576.943	50658.21
577.141	50738.08
577.339	50561.96
577.537	50283.44
577.735	50187.18
577.933	49492.92
578.131	49777.59
578.329	49621.94
578.527	48976.83
578.725	49263.55
578.923	49628.09
579.121	48878.53
579.319	49439.67
579.516	49394.62
579.714	49382.33
579.912	48739.27
580.11	48765.89
580.308	48901.06
580.506	48501.7
580.704	48204.75
580.901	48524.23
581.099	49005.5
581.297	48022.48
581.495	47832.02
581.692	48174.03
581.89	47502.29
582.088	47821.78
582.285	47588.31
582.483	47938.51
582.681	47657.94
582.878	47455.19
583.076	46982.11
583.274	47352.79
583.471	46857.18
583.669	46980.06
583.866	46691.3
584.064	47109.08
584.262	46289.9
584.459	46615.52
584.657	46203.88
584.854	47084.51
585.052	45452.28
585.249	45693.94
585.447	46257.13
585.644	45822.96
585.841	45757.42
586.039	46412.77
586.236	45173.75
586.434	45382.65
586.631	45530.1
586.828	45253.62
587.026	44667.91
587.223	44471.3
587.42	44721.15
587.618	44958.72
587.815	43983.88
588.012	44434.44
588.21	44160.01
588.407	45022.2
588.604	43961.36
588.801	44084.23
588.999	43854.86
589.196	43848.72
589.393	43611.15
589.59	43668.5
589.787	43584.53
589.984	43295.77
590.182	43088.92
590.379	43156.5
590.576	42896.41
590.773	42980.38
590.97	42462.24
591.167	42544.16
591.364	42593.31
591.561	42581.02
591.758	42066.98
591.955	42236.97
592.152	42259.49
592.349	42013.74
592.546	42044.46
592.743	42476.58
592.94	41071.67
593.137	41491.51
593.334	41753.65
593.531	41061.43
593.727	41503.79
593.924	41241.65
594.121	40780.86
594.318	41260.09
594.515	40973.37
594.712	41139.25
594.908	40457.28
595.105	41030.71
595.302	40094.79
595.499	40227.91
595.696	40782.91
595.892	39634
596.089	40141.89
596.286	40279.11
596.482	39736.4
596.679	39724.11
596.876	39363.67
597.072	39707.72
597.269	39531.6
597.466	38935.64
597.662	39162.97
597.859	38679.64
598.055	39040.09
598.252	38812.76
598.448	38661.21
598.645	38444.13
598.841	38411.36
599.038	37993.57
599.234	38679.64
599.431	37813.35
599.627	38188.13
599.824	37989.48
600.02	37604.46
600.217	37696.62
600.413	37246.07
600.609	37651.56
600.806	37330.03
601.002	37424.24
601.198	37377.14
601.395	36920.44
601.591	36729.98
601.787	36963.45
601.984	36664.44
602.18	36795.51
602.376	36404.35
602.572	36117.64
602.769	35900.55
602.965	36183.17
603.161	36330.62
603.357	35812.49
603.553	35656.84
603.75	36062.34
603.946	35509.39
604.142	35708.04
604.338	35378.32
604.534	35843.21
604.73	35169.43
604.926	34888.85
605.122	35155.09
605.318	35097.75
605.514	34788.5
605.71	34544.8
605.906	34862.23
606.102	34851.99
606.298	34782.36
606.494	34749.59
606.69	34426.01
606.886	34671.77
607.082	33563.82
607.278	34307.23
607.474	33801.38
607.67	34217.12
607.866	33434.8
608.062	34247.84
608.257	33760.42
608.453	33924.26
608.649	33705.13
608.845	33250.48
609.041	33680.55
609.236	33266.86
609.432	32984.24
609.628	33500.33
609.824	33254.58
610.019	32971.96
610.215	33111.22
610.411	33008.82
610.606	32636.09
610.802	32974
610.998	33035.44
611.193	32699.58
611.389	32621.75
611.584	32531.64
611.78	32447.68
611.976	32642.23
612.171	32423.1
612.367	32478.4
612.562	32275.65
612.758	32326.85
612.953	32087.23
613.149	32265.41
613.344	31722.69
613.539	32494.78
613.735	31796.42
613.93	32310.46
614.126	31900.87
614.321	32285.89
614.517	31939.78
614.712	31737.03
614.907	31511.75
615.103	31575.24
615.298	31304.91
615.493	31749.32
615.688	31372.49
615.884	31616.2
616.079	31286.48
616.274	31345.87
616.47	31339.72
616.665	31214.8
616.86	30938.32
617.055	30768.34
617.25	30891.22
617.445	30950.61
617.641	30450.91
617.836	30823.64
618.031	30518.49
618.226	30897.36
618.421	30383.32
618.616	30719.19
618.811	30115.04
619.006	30557.4
619.201	29781.22
619.396	30215.39
619.591	29486.31
619.786	29963.49
619.981	29758.69
620.176	29809.89
620.371	28992.75
620.566	29410.54
620.761	29285.61
620.956	29263.08
621.151	28771.57
621.346	28781.81
621.541	28425.46
621.735	28876.02
621.93	28120.32
622.125	28243.2
622.32	28142.85
622.515	27981.06
622.709	27579.65
622.904	27751.68
623.099	27540.74
623.294	27645.19
623.488	26957.07
623.683	26903.82
623.878	26768.66
624.072	27038.99
624.267	27036.94
624.462	26891.54
624.656	26230.04
624.851	26357.02
625.046	26416.41
625.24	25957.66
625.435	26023.2
625.629	26064.16
625.824	25773.35
626.018	25470.25
626.213	25046.32
626.407	25441.57
626.602	24878.38
626.796	25179.43
626.991	24870.19
627.185	24681.78
627.38	24706.35
627.574	24433.97
627.768	24116.54
627.963	24364.34
628.157	24128.83
628.352	24008
628.546	23801.15
628.74	23903.55
628.935	23385.41
629.129	23385.41
629.323	23395.65
629.517	23242.06
629.712	23303.5
629.906	22949.2
630.1	22617.43
630.294	22959.44
630.489	22539.6
630.683	22508.88
630.877	22218.07
631.071	22138.2
631.265	22179.16
631.459	21847.39
631.653	21790.05
631.848	22009.18
632.042	21517.67
632.236	21769.57
632.43	21321.06
632.624	21259.62
632.818	21179.75
633.012	20735.34
633.206	20938.09
633.4	21054.83
633.594	20678
633.788	21054.83
633.982	20698.48
634.176	20622.7
634.369	20553.07
634.563	20252.02
634.757	20204.92
634.951	20462.96
635.145	19953.02
635.339	20000.12
635.533	19887.48
635.726	19770.75
635.92	19320.2
636.114	19682.69
636.308	19393.92
636.501	19318.15
636.695	18969.99
636.889	19117.45
637.083	18818.44
637.276	19051.91
637.47	18918.79
637.664	18541.97
637.857	18402.71
638.051	18656.65
638.244	18283.92
638.438	18627.98
638.632	18333.07
638.825	18179.48
639.019	18068.89
639.212	17937.82
639.406	17986.97
639.599	17829.27
639.793	17894.81
639.986	17341.86
640.18	17622.43
640.373	17685.92
640.567	17225.12
640.76	17405.35
640.954	17096.1
641.147	16999.85
641.34	17108.39
641.534	17034.66
641.727	16790.95
641.92	16909.74
642.114	16836.01
642.307	16577.97
642.5	16432.56
642.694	16147.89
642.887	16086.45
643.08	16356.79
643.273	16170.42
643.467	16102.84
643.66	15912.38
643.853	16094.65
644.046	15746.49
644.239	15975.86
644.432	15527.36
644.626	15420.86
644.819	15422.91
645.012	15353.28
645.205	15539.65
645.398	15367.62
645.591	15205.83
645.784	15132.1
645.977	15181.25
646.17	15044.04
646.363	14777.8
646.556	14503.37
646.749	14595.53
646.942	14859.72
647.135	14489.04
647.328	14654.92
647.521	14317.01
647.714	14245.33
647.907	14218.71
648.099	14243.28
648.292	14144.98
648.485	13989.33
648.678	13796.82
648.871	14024.15
649.064	13731.29
649.256	14044.63
649.449	13741.53
649.642	13579.74
649.835	13483.48
650.027	13383.13
650.22	13264.35
650.413	13436.38
650.605	13430.24
650.798	13155.81
650.991	13088.23
651.183	12934.63
651.376	13012.45
651.568	13057.51
651.761	12561.9
651.954	12592.62
652.146	12682.73
652.339	12715.5
652.531	12463.6
652.724	12535.28
652.916	12008.95
653.109	12494.32
653.301	12428.78
653.494	12207.6
653.686	12021.24
653.879	12266.99
654.071	12033.52
654.263	11990.52
654.456	12011
654.648	12064.24
654.84	11515.39
655.033	11711.99
655.225	11537.91
655.417	11537.91
655.61	11660.79
655.802	11617.79
655.994	11429.37
656.186	11464.19
656.379	11302.4
656.571	11193.86
656.763	11169.28
656.955	11159.04
657.148	10991.11
657.34	10901
657.532	10827.27
657.724	10923.52
657.916	10896.9
658.108	10866.18
658.3	10814.98
658.492	10780.17
658.684	10558.99
658.876	10425.87
659.068	10423.82
659.26	10391.05
659.452	10335.76
659.644	10341.9
659.836	10280.46
660.028	10440.2
660.22	10024.47
660.412	10112.53
660.604	10190.35
660.796	10120.72
660.988	10229.26
661.18	9819.67
661.372	9877.01
661.563	9778.71
661.755	9508.38
661.947	9567.77
662.139	9700.89
662.331	9659.93
662.522	9299.48
662.714	9569.82
662.906	9274.91
663.097	9457.18
663.289	9352.73
663.481	9268.77
663.673	9385.5
663.864	9162.27
664.056	9174.56
664.247	9240.09
664.439	9053.73
664.631	9238.05
664.822	9137.7
665.014	8830.5
665.205	8810.02
665.397	8904.23
665.588	8791.59
665.78	8588.84
665.971	8685.09
666.163	8629.8
666.354	8805.92
666.546	8371.75
666.737	8459.82
666.929	8478.25
667.12	8582.7
667.311	8498.73
667.503	8457.77
667.694	8437.29
667.885	8224.3
668.077	8279.6
668.268	8109.61
668.459	8261.16
668.651	8060.46
668.842	8212.01
669.033	7951.92
669.224	8101.42
669.416	7886.39
669.607	7896.63
669.798	7714.36
669.989	8011.31
670.18	7966.26
670.371	7851.57
670.563	7747.12
670.754	7749.17
670.945	7839.28
671.136	7706.17
671.327	7456.31
671.518	7560.76
671.709	7775.8
671.9	7484.98
672.091	7544.38
672.282	7364.15
672.473	7269.95
672.664	7593.53
672.855	7294.52
673.046	7331.39
673.237	7413.31
673.428	7575.1
673.619	7345.72
673.809	7198.27
674	7206.46
674.191	7224.89
674.382	7063.1
674.573	7089.73
674.764	7001.66
674.954	7042.62
675.145	7052.86
675.336	7190.08
675.527	6721.09
675.717	6940.22
675.908	6676.04
676.099	6925.89
676.289	6938.18
676.48	6829.63
676.671	6538.82
676.861	6909.51
677.052	6688.32
677.243	6676.04
677.433	6755.91
677.624	6501.96
677.814	6577.73
678.005	6673.99
678.195	6508.1
678.386	6514.25
678.576	6522.44
678.767	6573.64
678.957	6557.25
679.148	6444.62
679.338	6334.03
679.529	6506.06
679.719	6364.75
679.909	6520.39
680.1	6315.59
680.29	6284.87
680.481	6194.76
680.671	6205
680.861	6102.61
681.052	6274.63
681.242	6260.3
681.432	6223.44
681.622	5987.92
681.813	6137.42
682.003	6180.43
682.193	6149.71
682.383	6008.4
682.573	6209.1
682.764	6149.71
682.954	6020.69
683.144	5748.31
683.334	5822.03
683.524	5873.23
683.714	5916.24
683.904	5830.23
684.094	5969.49
684.284	5975.63
684.474	5803.6
684.664	5717.59
684.854	5807.7
685.044	5795.41
685.234	5695.06
685.424	5793.36
685.614	5598.81
685.804	5668.44
685.994	5568.09
686.184	5766.74
686.374	5668.44
686.564	5580.37
686.753	5566.04
686.943	5520.98
687.133	5467.74
687.323	5398.1
687.513	5480.02
687.702	5406.3
687.892	5367.38
688.082	5361.24
688.272	5328.47
688.461	5346.91
688.651	5353.05
688.841	5338.71
689.03	5279.32
689.22	5228.12
689.41	5250.65
689.599	5269.08
689.789	5158.49
689.979	5052
690.168	5178.97
690.358	5017.18
690.547	5111.39
690.737	5150.3
690.926	4980.32
691.116	5023.33
691.305	4988.51
691.495	4896.35
691.684	4853.34
691.874	4902.5
692.063	4763.23
692.252	4761.19
692.442	4869.73
692.631	4675.17
692.82	4798.05
693.01	4677.22
693.199	4693.6
693.388	4638.31
693.578	4693.6
693.767	4726.37
693.956	4568.68
694.146	4609.64
694.335	4693.6
694.524	4585.06
694.713	4654.69
694.902	4562.53
695.092	4580.96
695.281	4611.68
695.47	4474.47
695.659	4548.2
695.848	4376.17
696.037	4505.19
696.226	4472.42
696.415	4451.94
696.604	4417.13
696.793	4322.92
696.982	4382.31
697.171	4279.91
697.36	4423.27
697.549	4222.57
697.738	4374.12
697.927	4228.71
698.116	4374.12
698.305	4273.77
698.494	4214.38
698.683	4075.12
698.872	4187.75
699.061	4187.75
699.25	4329.06
699.438	4150.89
699.627	4302.44
699.816	4120.17
700.005	4097.64
700.193	4216.43
700.382	4111.98
700.571	4052.59
700.76	4138.6
700.948	4025.97
701.137	4015.73
701.326	4060.78
701.514	4046.44
701.703	4021.87
701.892	4003.44
702.08	4159.08
702.269	3931.76
702.457	3892.85
702.646	4068.97
702.834	3853.94
703.023	3933.81
703.212	3907.18
703.4	3960.43
703.589	3888.75
703.777	3892.85
703.965	3911.28
704.154	3874.42
704.342	3806.83
704.531	3880.56
704.719	3800.69
704.907	3948.14
705.096	3753.59
705.284	3720.82
705.472	3804.78
705.661	3772.02
705.849	3810.93
706.037	3882.61
706.226	3751.54
706.414	3796.59
706.602	3817.07
706.79	3724.91
706.979	3763.83
707.167	3794.54
707.355	3661.43
707.543	3724.91
707.731	3645.04
707.919	3585.65
708.107	3569.27
708.296	3612.28
708.484	3595.89
708.672	3653.23
708.86	3538.55
709.048	3610.23
709.236	3565.17
709.424	3593.84
709.612	3585.65
709.8	3643
709.988	3649.14
710.176	3466.87
710.364	3579.51
710.551	3571.32
710.739	3505.78
710.927	3626.61
711.115	3540.6
711.303	3540.6
711.491	3425.91
711.679	3544.69
711.866	3436.15
712.054	3419.77
712.242	3440.25
712.43	3468.92
712.617	3403.38
712.805	3505.78
712.993	3475.06
713.181	3452.53
713.368	3407.48
713.556	3470.97
713.744	3298.94
713.931	3487.35
714.119	3305.08
714.306	3419.77
714.494	3341.94
714.682	3331.7
714.869	3368.57
715.057	3239.55
715.244	3182.2
715.432	3288.7
715.619	3251.83
715.807	3321.46
715.994	3303.03
716.182	3223.16
716.369	3411.57
716.556	3202.68
716.744	3255.93
716.931	3311.22
717.119	3268.22
717.306	3241.59
717.493	3298.94
717.681	3180.15
717.868	3196.54
718.055	3143.29
718.242	3167.87
718.43	3198.59
718.617	3176.06
718.804	3186.3
718.991	3198.59
719.179	3262.07
719.366	3206.78
719.553	3159.67
719.74	3143.29
719.927	3190.39
720.114	3204.73
720.301	2872.96
720.488	3053.18
720.676	2924.16
720.863	3081.85
721.05	3057.28
721.237	3042.94
721.424	3114.62
721.611	3034.75
721.798	3090.04
721.985	2991.74
722.172	3006.08
722.358	3038.84
722.545	2969.21
722.732	2973.31
722.919	2961.02
723.106	2999.93
723.293	2973.31
723.48	2817.66
723.667	2872.96
723.853	2875.01
724.04	3061.37
724.227	2864.77
724.414	2965.12
724.6	2807.42
724.787	2918.01
724.974	2979.45
725.161	2903.68
725.347	2750.08
725.534	2868.86
725.72	2848.38
725.907	2795.14
726.094	2825.86
726.28	2760.32
726.467	2905.73
726.653	2860.67
726.84	2942.59
727.027	2875.01
727.213	2791.04
727.4	2879.1
727.586	2799.23
727.773	2821.76
727.959	2774.66
728.145	2842.24
728.332	2731.65
728.518	2776.7
728.705	2807.42
728.891	2743.94
729.077	2832
729.264	2756.22
729.45	2627.2
729.636	2793.09
729.823	2733.7
730.009	2799.23
730.195	2735.74
730.382	2717.31
730.568	2791.04
730.754	2778.75
730.94	2760.32
731.126	2745.98
731.313	2715.27
731.499	2725.51
731.685	2856.58
731.871	2721.41
732.057	2815.62
732.243	2623.11
732.429	2576
732.615	2598.53
732.801	2670.21
732.987	2590.34
733.173	2657.92
733.359	2674.31
733.545	2692.74
733.731	2598.53
733.917	2541.19
734.103	2655.87
734.289	2782.85
734.475	2662.02
734.661	2623.11
734.847	2582.15
735.033	2621.06
735.219	2625.15
735.404	2657.92
735.59	2522.76
735.776	2653.83
735.962	2569.86
736.148	2619.01
736.333	2500.23
736.519	2553.48
736.705	2526.85
736.89	2481.8
737.076	2586.24
737.262	2451.08
737.447	2539.14
737.633	2590.34
737.819	2403.97
738.004	2528.9
738.19	2471.56
738.375	2391.69
738.561	2498.18
738.747	2481.8
738.932	2391.69
739.118	2479.75
739.303	2406.02
739.489	2344.58
739.674	2369.16
739.859	2406.02
740.045	2410.12
740.23	2274.95
740.416	2395.78
740.601	2440.84
740.786	2334.34
740.972	2320.01
741.157	2313.86
741.342	2395.78
741.528	2360.97
741.713	2340.49
741.898	2238.09
742.084	2233.99
742.269	2274.95
742.454	2285.19
742.639	2320.01
742.824	2242.18
743.01	2369.16
743.195	2240.14
743.38	2213.51
743.565	2143.88
743.75	2258.57
743.935	2248.33
744.12	2195.08
744.305	2209.42
744.49	2223.75
744.675	2188.94
744.86	2285.19
745.045	2014.86
745.23	2102.92
745.415	2094.73
745.6	2096.78
745.785	2076.3
745.97	2064.01
746.155	2055.82
746.34	2113.16
746.525	2039.44
746.71	2074.25
746.895	1957.52
747.079	1961.61
747.264	1998.48
747.449	1992.33
747.634	2059.92
747.819	1982.09
748.003	1994.38
748.188	1875.6
748.373	1885.84
748.557	1922.7
748.742	1891.98
748.927	1918.61
749.111	1883.79
749.296	1822.35
749.481	1801.87
749.665	1887.89
749.85	1902.22
750.034	1912.46
750.219	1783.44
750.404	1881.74
750.588	1760.91
750.773	1789.58
750.957	1861.26
751.141	1846.93
751.326	1793.68
751.51	1713.81
751.695	1840.78
751.879	1722
752.064	1697.42
752.248	1711.76
752.432	1777.3
752.617	1603.22
752.801	1660.56
752.985	1642.13
753.17	1603.22
753.354	1664.66
753.538	1611.41
753.722	1613.46
753.907	1617.55
754.091	1615.51
754.275	1519.25
754.459	1506.96
754.643	1523.35
754.828	1523.35
755.012	1457.81
755.196	1506.96
755.38	1463.96
755.564	1408.66
755.748	1408.66
755.932	1447.57
756.116	1558.16
756.3	1420.95
756.484	1537.68
756.668	1406.61
756.852	1414.81
757.036	1468.05
757.22	1324.69
757.404	1328.79
757.588	1390.23
757.772	1373.85
757.956	1363.61
758.14	1332.89
758.323	1285.78
758.507	1277.59
758.691	1312.41
758.875	1363.61
759.059	1343.13
759.242	1324.69
759.426	1289.88
759.61	1361.56
759.794	1310.36
759.977	1361.56
760.161	1279.64
760.345	1334.93
760.528	1234.58
760.712	1293.97
760.895	1214.1
761.079	1265.3
761.263	1050.27
761.446	1146.52
761.63	1203.86
761.813	1279.64
761.997	1210.01
762.18	1171.1
762.364	1195.67
762.547	1111.71
762.731	1197.72
762.914	1193.62
763.098	1115.8
763.281	1183.38
763.464	1195.67
763.648	1164.95
763.831	1146.52
764.015	1078.94
764.198	1244.82
764.381	1101.47
764.564	1128.09
764.748	1052.31
764.931	1123.99
765.114	1015.45
765.297	1085.08
765.481	1078.94
765.664	1130.14
765.847	1058.46
766.03	1087.13
766.213	1003.16
766.397	1144.47
766.58	966.3
766.763	1177.24
766.946	1007.26
767.129	925.34
767.312	1007.26
767.495	1080.99
767.678	1007.26
767.861	1037.98
768.044	1109.66
768.227	1011.36
768.41	988.83
768.593	958.11
768.776	1003.16
768.959	1048.22
769.142	949.92
769.324	1040.03
769.507	1074.84
769.69	906.91
769.873	994.97
770.056	1021.6
770.239	968.35
770.421	1042.07
770.604	1007.26
770.787	906.91
770.97	966.3
771.152	984.73
771.335	1003.16
771.518	929.44
771.7	999.07
771.883	964.25
772.066	943.77
772.248	904.86
772.431	890.53
772.613	900.76
772.796	886.43
772.978	900.76
773.161	884.38
773.343	843.42
773.526	814.75
773.708	808.61
773.891	859.81
774.073	872.09
774.256	829.09
774.438	878.24
774.621	833.18
774.803	845.47
774.985	767.65
775.168	814.75
775.35	906.91
775.532	784.03
775.715	765.6
775.897	939.68
776.079	878.24
776.261	919.2
776.444	835.23
776.626	771.74
776.808	847.52
776.99	839.33
777.173	843.42
777.355	824.99
777.537	831.13
777.719	773.79
777.901	708.26
778.083	792.22
778.265	652.96
778.447	765.6
778.629	677.54
778.811	792.22
778.993	757.41
779.175	685.73
779.357	741.02
779.539	681.63
779.721	618.15
779.903	730.78
780.085	636.58
780.267	659.1
780.449	695.97
780.631	620.19
780.812	675.49
780.994	607.91
781.176	708.26
781.358	695.97
781.54	587.43
781.721	620.19
781.903	601.76
782.085	618.15
782.267	634.53
782.448	597.67
782.63	495.27
782.812	648.86
782.993	583.33
783.175	560.8
783.357	599.71
783.538	562.85
783.72	642.72
783.901	575.14
784.083	546.47
784.264	448.16
784.446	478.88
784.627	532.13
784.809	622.24
784.99	642.72
785.172	538.27
785.353	587.43
785.535	509.6
785.716	466.6
785.897	439.97
786.079	532.13
786.26	462.5
786.441	591.52
786.623	487.08
786.804	448.16
786.985	521.89
787.167	487.08
787.348	530.08
787.529	485.03
787.71	544.42
787.891	515.75
788.073	405.16
788.254	417.44
788.435	495.27
788.616	544.42
788.797	470.69
788.978	439.97
789.159	448.16
789.34	462.5
789.522	470.69
789.703	452.26
789.884	435.88
790.065	431.78
790.246	511.65
790.427	380.58
790.607	454.31
790.788	448.16
790.969	349.86
791.15	442.02
791.331	351.91
791.512	411.3
791.693	437.92
791.874	433.83
792.054	540.32
792.235	458.4
792.416	351.91
792.597	403.11
792.778	458.4
792.958	431.78
793.139	399.01
793.32	339.62
793.5	343.72
793.681	423.59
793.862	407.2
794.042	392.87
794.223	372.39
794.404	362.15
794.584	388.77
794.765	407.2
794.945	282.28
795.126	351.91
795.306	327.33
795.487	378.53
795.667	349.86
795.848	360.1
796.028	294.57
796.209	413.35
796.389	370.34
796.57	349.86
796.75	368.29
796.93	222.89
797.111	345.77
797.291	388.77
797.471	419.49
797.652	339.62
797.832	333.48
798.012	265.89
798.192	315.05
798.373	288.42
798.553	276.13
798.733	331.43
798.913	313
799.093	300.71
799.274	366.25
799.454	339.62
799.634	306.85
799.814	292.52
799.994	353.96
800.174	261.8
800.354	327.33
800.534	237.22
800.714	253.61
800.894	282.28
801.074	306.85
801.254	233.13
801.434	265.89
801.614	255.65
801.794	251.56
801.974	652.96
802.154	259.75
802.334	278.18
802.514	272.04
802.693	265.89
802.873	235.18
803.053	319.14
803.233	304.81
803.413	253.61
803.592	186.02
803.772	282.28
803.952	245.41
804.131	177.83
804.311	233.13
804.491	335.53
804.67	218.79
804.85	208.55
805.03	198.31
805.209	288.42
805.389	155.3
805.568	300.71
805.748	226.98
805.928	292.52
806.107	286.37
806.287	237.22
806.466	276.13
806.646	212.65
806.825	165.54
807.004	224.94
807.184	300.71
807.363	288.42
807.543	255.65
807.722	280.23
807.901	261.8
808.081	224.94
808.26	251.56
808.439	161.45
808.619	302.76
808.798	231.08
808.977	253.61
809.156	247.46
809.336	192.17
809.515	233.13
809.694	200.36
809.873	186.02
810.052	179.88
810.231	175.78
810.411	224.94
810.59	286.37
810.769	272.04
810.948	222.89
811.127	198.31
811.306	155.3
811.485	265.89
811.664	202.41
811.843	224.94
812.022	169.64
812.201	202.41
812.38	202.41
812.559	206.5
812.737	192.17
812.916	159.4
813.095	161.45
813.274	251.56
813.453	186.02
813.632	231.08
813.811	231.08
813.989	190.12
814.168	183.98
814.347	169.64
814.526	163.5
814.704	210.6
814.883	220.84
815.062	188.07
815.24	161.45
815.419	112.3
815.598	169.64
815.776	196.26
815.955	157.35
816.133	173.74
816.312	190.12
816.49	120.49
816.669	183.98
816.847	204.46
817.026	169.64
817.204	124.58
817.383	222.89
817.561	145.06
817.74	269.99
817.918	190.12
818.097	192.17
818.275	192.17
818.453	167.59
818.632	143.02
818.81	126.63
818.988	196.26
819.167	128.68
819.345	104.11
819.523	278.18
819.701	151.21
819.879	122.54
820.058	179.88
820.236	210.6
820.414	106.15
820.592	161.45
820.77	163.5
820.948	145.06
821.127	143.02
821.305	212.65
821.483	108.2
821.661	167.59
821.839	128.68
822.017	122.54
822.195	190.12
822.373	128.68
822.551	165.54
822.729	114.34
822.907	118.44
823.085	206.5
823.262	97.96
823.44	97.96
823.618	93.87
823.796	118.44
823.974	118.44
824.152	145.06
824.329	108.2
824.507	124.58
824.685	151.21
824.863	126.63
825.04	116.39
825.218	153.26
825.396	159.4
825.574	134.82
825.751	95.91
825.929	120.49
826.107	93.87
826.284	161.45
826.462	89.77
826.639	130.73
826.817	202.41
826.994	114.34
827.172	22.19
827.349	138.92
827.527	165.54
827.704	132.78
827.882	85.67
828.059	124.58
828.237	124.58
828.414	120.49
828.591	89.77
828.769	112.3
828.946	104.11
829.124	169.64
829.301	110.25
829.478	118.44
829.655	126.63
829.833	177.83
830.01	93.87
830.187	65.19
830.364	130.73
830.542	126.63
830.719	110.25
830.896	140.97
831.073	134.82
831.25	57
831.427	100.01
831.604	116.39
831.782	93.87
831.959	161.45
832.136	93.87
832.313	73.39
832.49	163.5
832.667	106.15
832.844	-0.34
833.021	102.06
833.198	167.59
833.374	81.58
833.551	108.2
833.728	104.11
833.905	-4.44
834.082	106.15
834.259	91.82
834.436	89.77
834.612	65.19
834.789	110.25
834.966	163.5
835.143	120.49
835.319	69.29
835.496	59.05
835.673	190.12
835.85	95.91
836.026	89.77
836.203	163.5
836.38	102.06
836.556	38.57
836.733	130.73
836.909	102.06
837.086	81.58
837.262	24.23
837.439	77.48
837.616	57
837.792	63.15
837.968	59.05
838.145	20.14
838.321	81.58
838.498	40.62
838.674	75.43
838.851	147.11
839.027	106.15
839.203	50.86
839.38	190.12
839.556	18.09
839.732	112.3
839.909	77.48
840.085	126.63
840.261	134.82
840.437	89.77
840.614	22.19
840.79	97.96
840.966	71.34
841.142	104.11
841.318	73.39
841.494	147.11
841.671	26.28
841.847	102.06
842.023	42.67
842.199	73.39
842.375	106.15
842.551	89.77
842.727	13.99
842.903	126.63
843.079	104.11
843.255	57
843.431	134.82
843.607	89.77
843.783	61.1
843.959	71.34
844.134	-8.53
844.31	128.68
844.486	67.24
844.662	83.63
844.838	13.99
845.013	132.78
845.189	91.82
845.365	69.29
845.541	79.53
845.716	79.53
845.892	130.73
846.068	61.1
846.244	34.47
846.419	69.29
846.595	48.81
846.77	48.81
846.946	149.16
847.122	57
847.297	44.71
847.473	104.11
847.648	34.47
847.824	-12.63
847.999	-2.39
848.175	108.2
848.35	26.28
848.526	149.16
848.701	-2.39
848.876	52.91
849.052	118.44
849.227	-2.39
849.403	147.11
849.578	122.54
849.753	93.87
849.929	112.3
850.104	-26.96
850.279	100.01
850.454	134.82
850.63	48.81
850.805	46.76
850.98	59.05
851.155	110.25
851.33	36.52
851.505	61.1
851.681	52.91
851.856	-12.63
852.031	67.24
852.206	65.19
852.381	50.86
852.556	83.63
852.731	36.52
852.906	132.78
853.081	97.96
853.256	122.54
853.431	36.52
853.606	52.91
853.781	77.48
853.956	120.49
854.131	30.38
854.305	24.23
854.48	114.34
854.655	79.53
854.83	71.34
855.005	22.19
855.18	124.58
855.354	34.47
855.529	73.39
855.704	85.67
855.879	95.91
856.053	87.72
856.228	42.67
856.403	42.67
856.577	52.91
856.752	40.62
856.926	-0.34
857.101	106.15
857.276	69.29
857.45	73.39
857.625	28.33
857.799	77.48
857.974	-4.44
858.148	-69.97
858.323	124.58
858.497	59.05
858.672	32.43
858.846	81.58
859.02	114.34
859.195	44.71
859.369	38.57
859.543	140.97
859.718	38.57
859.892	38.57
860.066	22.19
860.241	-35.16
860.415	50.86
860.589	18.09
860.763	69.29
860.938	5.8
861.112	69.29
861.286	128.68
861.46	100.01
861.634	32.43
861.808	48.81
861.982	71.34
862.157	77.48
862.331	69.29
862.505	28.33
862.679	34.47
862.853	-10.58
863.027	44.71
863.201	16.04
863.375	46.76
863.549	75.43
863.722	54.95
863.896	54.95
864.07	28.33
864.244	65.19
864.418	106.15
864.592	11.95
864.766	114.34
864.939	67.24
865.113	63.15
865.287	143.02
865.461	5.8
865.634	114.34
865.808	52.91
865.982	28.33
866.156	13.99
866.329	3.75
866.503	81.58
866.676	100.01
866.85	151.21
867.024	38.57
867.197	42.67
867.371	36.52
867.544	114.34
867.718	87.72
867.891	9.9
868.065	63.15
868.238	91.82
868.412	32.43
868.585	-24.92
868.759	36.52
868.932	71.34
869.105	28.33
869.279	7.85
869.452	-26.96
869.625	20.14
869.799	36.52
869.972	-37.2
870.145	100.01
870.319	61.1
870.492	48.81
870.665	1.71
870.838	65.19
871.011	-0.34
871.185	34.47
871.358	3.75
871.531	36.52
871.704	-18.77
871.877	-10.58
872.05	40.62
872.223	28.33
872.396	36.52
872.569	48.81
872.742	28.33
872.915	54.95
873.088	67.24
873.261	-4.44
873.434	100.01
873.607	-29.01
873.78	95.91
873.953	118.44
874.126	124.58
874.299	67.24
874.471	46.76
874.644	-2.39
874.817	38.57
874.99	75.43
875.163	-4.44
875.335	34.47
875.508	30.38
875.681	95.91
875.853	-39.25
876.026	108.2
876.199	63.15
876.371	54.95
876.544	54.95
876.717	75.43
876.889	-14.68
877.062	-6.49
877.234	11.95
877.407	26.28
877.579	52.91
877.752	61.1
877.924	3.75
878.097	77.48
878.269	75.43
878.442	52.91
878.614	-0.34
878.786	9.9
878.959	24.23
879.131	75.43
879.303	-22.87
879.476	22.19
879.648	79.53
879.82	22.19
879.993	-22.87
880.165	7.85
880.337	24.23
880.509	106.15
880.681	-24.92
880.854	7.85
881.026	-2.39
881.198	50.86
881.37	22.19
881.542	-33.11
881.714	44.71
881.886	-18.77
882.058	67.24
882.23	42.67
882.402	75.43
882.574	-0.34
882.746	16.04
882.918	32.43
883.09	36.52
883.262	-24.92
883.434	69.29
883.606	32.43
883.778	87.72
883.95	87.72
884.122	32.43
884.293	79.53
884.465	132.78
884.637	1.71
884.809	11.95
884.98	34.47
885.152	61.1
885.324	11.95
885.496	26.28
885.667	-10.58
885.839	7.85
886.011	77.48
886.182	54.95
886.354	75.43
886.525	73.39
886.697	46.76
886.869	-22.87
887.04	77.48
887.212	106.15
887.383	-10.58
887.555	52.91
887.726	11.95
887.897	67.24
888.069	22.19
888.24	77.48
888.412	-39.25
888.583	9.9
888.754	48.81
888.926	3.75
889.097	77.48
889.268	9.9
889.44	61.1
889.611	50.86
889.782	-59.73
889.953	26.28
890.125	46.76
890.296	-35.16
890.467	32.43
890.638	26.28
890.809	42.67
890.98	61.1
891.151	5.8
891.323	46.76
891.494	-0.34
891.665	59.05
891.836	73.39
892.007	71.34
892.178	-14.68
892.349	63.15
892.52	-4.44
892.691	-14.68
892.862	63.15
893.032	-14.68
893.203	48.81
893.374	59.05
893.545	42.67
893.716	22.19
893.887	77.48
894.057	30.38
894.228	-33.11
894.399	3.75
894.57	30.38
894.74	-14.68
894.911	95.91
895.082	42.67
895.253	32.43
895.423	18.09
895.594	40.62
895.764	124.58
895.935	32.43
896.106	30.38
896.276	16.04
896.447	16.04
896.617	18.09
896.788	-12.63
896.958	61.1
897.129	32.43
897.299	71.34
897.47	-33.11
897.64	52.91
897.81	16.04
897.981	73.39
898.151	-2.39
898.322	52.91
898.492	32.43
898.662	-16.73
898.832	-29.01
899.003	20.14
899.173	52.91
899.343	30.38
899.513	-37.2
