Data from USB4F104151__26__12-35-29-422.txt Node

Date: Fri Mar 14 12:35:29 EDT 2025
User: louis
Spectrometer: USB4F10415
Trigger mode: 4
Integration Time (sec): 2.000000E-2
Scans to average: 1
Electric dark correction enabled: true
Nonlinearity correction enabled: false
Boxcar width: 0
XAxis mode: Wavelengths
Number of Pixels in Spectrum: 3648
>>>>>Begin Spectral Data<<<<<
178.204	-63.32
178.424	-63.32
178.644	-63.32
178.864	-128.85
179.084	-135
179.304	-1.88
179.524	-69.46
179.744	77.99
179.964	8.36
180.184	-40.79
180.404	39.08
180.624	-18.26
180.844	0.17
181.064	-18.26
181.283	61.61
181.503	-34.64
181.723	-3.93
181.943	-30.55
182.163	86.19
182.383	71.85
182.602	30.89
182.822	92.33
183.042	73.9
183.262	63.66
183.482	12.46
183.701	18.6
183.921	43.18
184.141	18.6
184.361	80.04
184.58	-8.02
184.8	2.22
185.02	49.32
185.239	-1.88
185.459	-36.69
185.679	59.56
185.898	10.41
186.118	67.75
186.338	6.31
186.557	-14.17
186.777	-32.6
186.997	26.79
187.216	-36.69
187.436	110.76
187.655	24.75
187.875	-22.36
188.095	-18.26
188.314	51.37
188.534	73.9
188.753	28.84
188.973	22.7
189.192	86.19
189.412	96.43
189.631	20.65
189.851	63.66
190.07	53.42
190.29	-44.88
190.509	69.8
190.729	-8.02
190.948	30.89
191.168	100.52
191.387	100.52
191.607	4.27
191.826	6.31
192.045	-16.21
192.265	39.08
192.484	65.71
192.704	59.56
192.923	-44.88
193.142	51.37
193.362	-1.88
193.581	-20.31
193.8	55.47
194.02	28.84
194.239	47.27
194.458	-14.17
194.678	94.38
194.897	80.04
195.116	88.23
195.335	16.55
195.555	84.14
195.774	-10.07
195.993	0.17
196.212	51.37
196.432	32.94
196.651	34.99
196.87	47.27
197.089	45.23
197.308	80.04
197.528	47.27
197.747	-12.12
197.966	20.65
198.185	16.55
198.404	32.94
198.623	55.47
198.842	51.37
199.062	59.56
199.281	71.85
199.5	67.75
199.719	26.79
199.938	-8.02
200.157	-12.12
200.376	14.51
200.595	22.7
200.814	28.84
201.033	18.6
201.252	20.65
201.471	73.9
201.69	125.1
201.909	4.27
202.128	20.65
202.347	82.09
202.566	2.22
202.785	30.89
203.004	57.51
203.223	-10.07
203.442	-5.97
203.661	-26.45
203.879	18.6
204.098	26.79
204.317	0.17
204.536	102.57
204.755	61.61
204.974	39.08
205.193	16.55
205.411	37.03
205.63	39.08
205.849	45.23
206.068	-18.26
206.287	57.51
206.505	59.56
206.724	86.19
206.943	-8.02
207.162	92.33
207.381	-44.88
207.599	-3.93
207.818	6.31
208.037	84.14
208.255	-36.69
208.474	-1.88
208.693	69.8
208.911	34.99
209.13	12.46
209.349	-1.88
209.567	12.46
209.786	-10.07
210.005	6.31
210.223	41.13
210.442	4.27
210.661	26.79
210.879	75.95
211.098	22.7
211.316	34.99
211.535	53.42
211.753	2.22
211.972	102.57
212.191	41.13
212.409	20.65
212.628	2.22
212.846	41.13
213.065	-18.26
213.283	14.51
213.502	-28.5
213.72	45.23
213.938	65.71
214.157	-34.64
214.375	12.46
214.594	10.41
214.812	26.79
215.031	4.27
215.249	18.6
215.467	6.31
215.686	69.8
215.904	28.84
216.122	22.7
216.341	53.42
216.559	26.79
216.778	18.6
216.996	26.79
217.214	53.42
217.432	-40.79
217.651	-1.88
217.869	-24.4
218.087	28.84
218.306	-5.97
218.524	2.22
218.742	39.08
218.96	12.46
219.179	24.75
219.397	55.47
219.615	6.31
219.833	41.13
220.051	39.08
220.27	28.84
220.488	28.84
220.706	37.03
220.924	-8.02
221.142	28.84
221.36	-14.17
221.578	-10.07
221.796	39.08
222.015	77.99
222.233	-24.4
222.451	45.23
222.669	45.23
222.887	90.28
223.105	22.7
223.323	47.27
223.541	-1.88
223.759	-22.36
223.977	2.22
224.195	75.95
224.413	-10.07
224.631	41.13
224.849	-5.97
225.067	41.13
225.285	51.37
225.503	8.36
225.721	-24.4
225.939	65.71
226.157	22.7
226.375	100.52
226.592	8.36
226.81	59.56
227.028	18.6
227.246	102.57
227.464	-16.21
227.682	77.99
227.9	37.03
228.117	10.41
228.335	16.55
228.553	67.75
228.771	-30.55
228.989	18.6
229.206	22.7
229.424	26.79
229.642	-75.6
229.86	-1.88
230.077	100.52
230.295	49.32
230.513	65.71
230.731	41.13
230.948	45.23
231.166	-30.55
231.384	37.03
231.601	22.7
231.819	39.08
232.037	73.9
232.254	6.31
232.472	6.31
232.689	8.36
232.907	2.22
233.125	39.08
233.342	4.27
233.56	63.66
233.777	24.75
233.995	-53.08
234.213	123.05
234.43	45.23
234.648	10.41
234.865	20.65
235.083	45.23
235.3	34.99
235.518	49.32
235.735	-32.6
235.953	34.99
236.17	0.17
236.388	61.61
236.605	18.6
236.822	55.47
237.04	41.13
237.257	12.46
237.475	-14.17
237.692	37.03
237.909	63.66
238.127	67.75
238.344	69.8
238.562	34.99
238.779	-22.36
238.996	22.7
239.214	28.84
239.431	24.75
239.648	-3.93
239.865	96.43
240.083	63.66
240.3	82.09
240.517	-34.64
240.735	67.75
240.952	57.51
241.169	49.32
241.386	-102.23
241.603	41.13
241.821	16.55
242.038	94.38
242.255	12.46
242.472	-57.17
242.689	16.55
242.907	-26.45
243.124	43.18
243.341	37.03
243.558	2.22
243.775	14.51
243.992	-18.26
244.209	88.23
244.426	37.03
244.643	16.55
244.86	2.22
245.078	26.79
245.295	63.66
245.512	-46.93
245.729	-16.21
245.946	-24.4
246.163	43.18
246.38	49.32
246.597	108.71
246.814	90.28
247.031	28.84
247.248	-1.88
247.464	-22.36
247.681	8.36
247.898	24.75
248.115	65.71
248.332	69.8
248.549	49.32
248.766	63.66
248.983	65.71
249.2	22.7
249.417	-8.02
249.633	-55.12
249.85	47.27
250.067	90.28
250.284	77.99
250.501	106.67
250.717	69.8
250.934	-46.93
251.151	75.95
251.368	4.27
251.585	123.05
251.801	67.75
252.018	18.6
252.235	-1.88
252.451	26.79
252.668	-28.5
252.885	75.95
253.102	43.18
253.318	98.47
253.535	-48.98
253.752	4.27
253.968	4.27
254.185	24.75
254.401	-18.26
254.618	53.42
254.835	-24.4
255.051	61.61
255.268	-32.6
255.484	92.33
255.701	121
255.917	88.23
256.134	-32.6
256.351	32.94
256.567	-8.02
256.784	18.6
257	8.36
257.217	26.79
257.433	84.14
257.65	159.91
257.866	28.84
258.082	45.23
258.299	28.84
258.515	108.71
258.732	-3.93
258.948	28.84
259.165	-3.93
259.381	47.27
259.597	30.89
259.814	18.6
260.03	92.33
260.246	41.13
260.463	49.32
260.679	-18.26
260.895	12.46
261.112	45.23
261.328	34.99
261.544	8.36
261.761	22.7
261.977	45.23
262.193	-18.26
262.409	34.99
262.626	157.86
262.842	77.99
263.058	28.84
263.274	-24.4
263.49	77.99
263.707	69.8
263.923	63.66
264.139	2.22
264.355	90.28
264.571	73.9
264.787	-1.88
265.004	-10.07
265.22	28.84
265.436	-28.5
265.652	51.37
265.868	30.89
266.084	45.23
266.3	12.46
266.516	30.89
266.732	82.09
266.948	57.51
267.164	-5.97
267.38	32.94
267.596	22.7
267.812	28.84
268.028	55.47
268.244	55.47
268.46	114.86
268.676	-20.31
268.892	16.55
269.108	22.7
269.324	41.13
269.54	34.99
269.756	43.18
269.972	26.79
270.188	82.09
270.403	-16.21
270.619	30.89
270.835	-32.6
271.051	82.09
271.267	-57.17
271.483	84.14
271.698	88.23
271.914	-12.12
272.13	-46.93
272.346	-3.93
272.562	24.75
272.777	-26.45
272.993	39.08
273.209	-24.4
273.425	82.09
273.64	45.23
273.856	-14.17
274.072	-3.93
274.287	-10.07
274.503	77.99
274.719	20.65
274.934	45.23
275.15	32.94
275.366	14.51
275.581	49.32
275.797	61.61
276.012	-69.46
276.228	-40.79
276.444	20.65
276.659	32.94
276.875	6.31
277.09	41.13
277.306	55.47
277.521	57.51
277.737	24.75
277.952	-12.12
278.168	-5.97
278.383	75.95
278.599	55.47
278.814	32.94
279.03	-1.88
279.245	-42.84
279.461	16.55
279.676	12.46
279.892	37.03
280.107	63.66
280.322	-59.22
280.538	102.57
280.753	20.65
280.969	-26.45
281.184	34.99
281.399	65.71
281.615	-34.64
281.83	20.65
282.045	-42.84
282.26	-18.26
282.476	2.22
282.691	-1.88
282.906	43.18
283.122	20.65
283.337	10.41
283.552	55.47
283.767	6.31
283.983	34.99
284.198	32.94
284.413	0.17
284.628	-5.97
284.843	73.9
285.058	37.03
285.274	-5.97
285.489	-65.36
285.704	22.7
285.919	14.51
286.134	-5.97
286.349	-28.5
286.564	63.66
286.779	61.61
286.995	14.51
287.21	-22.36
287.425	90.28
287.64	-38.74
287.855	18.6
288.07	45.23
288.285	14.51
288.5	28.84
288.715	94.38
288.93	16.55
289.145	16.55
289.36	-14.17
289.575	10.41
289.79	57.51
290.004	8.36
290.219	59.56
290.434	-67.41
290.649	2.22
290.864	39.08
291.079	-34.64
291.294	4.27
291.509	53.42
291.724	49.32
291.938	47.27
292.153	16.55
292.368	14.51
292.583	-3.93
292.798	75.95
293.012	-18.26
293.227	4.27
293.442	8.36
293.657	51.37
293.871	10.41
294.086	92.33
294.301	47.27
294.516	69.8
294.73	92.33
294.945	131.24
295.16	53.42
295.374	59.56
295.589	53.42
295.804	2.22
296.018	28.84
296.233	51.37
296.447	106.67
296.662	24.75
296.877	82.09
297.091	71.85
297.306	30.89
297.52	63.66
297.735	-38.74
297.949	4.27
298.164	6.31
298.378	-1.88
298.593	16.55
298.807	-1.88
299.022	82.09
299.236	4.27
299.451	37.03
299.665	0.17
299.88	53.42
300.094	24.75
300.309	53.42
300.523	32.94
300.737	28.84
300.952	34.99
301.166	55.47
301.381	4.27
301.595	45.23
301.809	-10.07
302.024	57.51
302.238	34.99
302.452	114.86
302.667	-1.88
302.881	69.8
303.095	73.9
303.309	-10.07
303.524	65.71
303.738	-1.88
303.952	41.13
304.166	69.8
304.381	2.22
304.595	100.52
304.809	-8.02
305.023	-8.02
305.237	-5.97
305.452	24.75
305.666	63.66
305.88	45.23
306.094	24.75
306.308	20.65
306.522	80.04
306.736	32.94
306.95	-14.17
307.164	77.99
307.379	49.32
307.593	114.86
307.807	69.8
308.021	2.22
308.235	-30.55
308.449	84.14
308.663	16.55
308.877	96.43
309.091	47.27
309.305	43.18
309.519	-16.21
309.733	80.04
309.947	-8.02
310.161	63.66
310.374	77.99
310.588	10.41
310.802	-5.97
311.016	34.99
311.23	-10.07
311.444	2.22
311.658	26.79
311.872	86.19
312.085	55.47
312.299	137.38
312.513	55.47
312.727	41.13
312.941	-12.12
313.154	-34.64
313.368	43.18
313.582	12.46
313.796	67.75
314.009	26.79
314.223	10.41
314.437	41.13
314.651	55.47
314.864	39.08
315.078	14.51
315.292	30.89
315.505	18.6
315.719	8.36
315.933	100.52
316.146	55.47
316.36	-42.84
316.573	96.43
316.787	49.32
317.001	57.51
317.214	12.46
317.428	28.84
317.641	-12.12
317.855	-3.93
318.068	37.03
318.282	63.66
318.495	20.65
318.709	92.33
318.922	22.7
319.136	4.27
319.349	57.51
319.563	-38.74
319.776	63.66
319.99	43.18
320.203	82.09
320.417	0.17
320.63	6.31
320.843	55.47
321.057	30.89
321.27	61.61
321.483	-16.21
321.697	41.13
321.91	90.28
322.124	69.8
322.337	22.7
322.55	41.13
322.763	100.52
322.977	34.99
323.19	-28.5
323.403	20.65
323.617	92.33
323.83	57.51
324.043	82.09
324.256	18.6
324.469	37.03
324.683	90.28
324.896	20.65
325.109	34.99
325.322	-24.4
325.535	63.66
325.748	100.52
325.962	18.6
326.175	22.7
326.388	28.84
326.601	98.47
326.814	-1.88
327.027	47.27
327.24	96.43
327.453	-42.84
327.666	63.66
327.879	65.71
328.092	125.1
328.305	112.81
328.518	-3.93
328.731	-12.12
328.944	41.13
329.157	55.47
329.37	4.27
329.583	55.47
329.796	77.99
330.009	32.94
330.222	57.51
330.435	20.65
330.648	49.32
330.861	53.42
331.073	84.14
331.286	47.27
331.499	49.32
331.712	8.36
331.925	98.47
332.138	57.51
332.35	49.32
332.563	59.56
332.776	45.23
332.989	16.55
333.202	51.37
333.414	-65.36
333.627	41.13
333.84	47.27
334.053	22.7
334.265	41.13
334.478	34.99
334.691	37.03
334.903	22.7
335.116	118.95
335.329	-32.6
335.541	61.61
335.754	-3.93
335.966	0.17
336.179	88.23
336.392	2.22
336.604	39.08
336.817	73.9
337.029	4.27
337.242	-67.41
337.454	53.42
337.667	59.56
337.88	26.79
338.092	24.75
338.305	94.38
338.517	24.75
338.729	67.75
338.942	34.99
339.154	43.18
339.367	6.31
339.579	55.47
339.792	37.03
340.004	77.99
340.217	45.23
340.429	59.56
340.641	-36.69
340.854	125.1
341.066	-1.88
341.278	110.76
341.491	98.47
341.703	47.27
341.915	55.47
342.128	24.75
342.34	61.61
342.552	24.75
342.764	12.46
342.977	22.7
343.189	22.7
343.401	0.17
343.613	-28.5
343.826	73.9
344.038	18.6
344.25	-8.02
344.462	84.14
344.674	22.7
344.886	49.32
345.099	-12.12
345.311	63.66
345.523	24.75
345.735	-20.31
345.947	67.75
346.159	47.27
346.371	92.33
346.583	55.47
346.795	-10.07
347.007	-36.69
347.219	104.62
347.431	104.62
347.643	-5.97
347.855	18.6
348.067	47.27
348.279	8.36
348.491	65.71
348.703	-24.4
348.915	73.9
349.127	4.27
349.339	84.14
349.551	84.14
349.763	22.7
349.975	10.41
350.187	18.6
350.399	45.23
350.61	80.04
350.822	28.84
351.034	59.56
351.246	55.47
351.458	75.95
351.669	22.7
351.881	67.75
352.093	41.13
352.305	53.42
352.517	59.56
352.728	-1.88
352.94	37.03
353.152	47.27
353.363	37.03
353.575	18.6
353.787	65.71
353.999	16.55
354.21	32.94
354.422	26.79
354.633	34.99
354.845	61.61
355.057	63.66
355.268	112.81
355.48	24.75
355.692	75.95
355.903	12.46
356.115	32.94
356.326	-12.12
356.538	77.99
356.749	84.14
356.961	118.95
357.172	43.18
357.384	14.51
357.595	59.56
357.807	37.03
358.018	49.32
358.23	53.42
358.441	2.22
358.653	80.04
358.864	24.75
359.075	75.95
359.287	-10.07
359.498	-12.12
359.709	67.75
359.921	34.99
360.132	53.42
360.344	41.13
360.555	20.65
360.766	6.31
360.977	10.41
361.189	4.27
361.4	-24.4
361.611	71.85
361.823	57.51
362.034	22.7
362.245	43.18
362.456	65.71
362.667	28.84
362.879	-30.55
363.09	8.36
363.301	16.55
363.512	45.23
363.723	45.23
363.935	116.9
364.146	108.71
364.357	30.89
364.568	41.13
364.779	4.27
364.99	43.18
365.201	86.19
365.412	41.13
365.623	10.41
365.834	6.31
366.045	10.41
366.256	53.42
366.467	67.75
366.678	-3.93
366.889	57.51
367.1	65.71
367.311	69.8
367.522	75.95
367.733	82.09
367.944	2.22
368.155	45.23
368.366	10.41
368.577	94.38
368.788	26.79
368.999	2.22
369.209	69.8
369.42	69.8
369.631	114.86
369.842	26.79
370.053	55.47
370.264	80.04
370.474	51.37
370.685	59.56
370.896	10.41
371.107	118.95
371.317	65.71
371.528	26.79
371.739	69.8
371.95	-30.55
372.16	125.1
372.371	39.08
372.582	6.31
372.792	73.9
373.003	26.79
373.214	88.23
373.424	116.9
373.635	4.27
373.846	59.56
374.056	67.75
374.267	16.55
374.477	59.56
374.688	39.08
374.898	49.32
375.109	2.22
375.319	82.09
375.53	104.62
375.74	90.28
375.951	129.19
376.161	59.56
376.372	71.85
376.582	-20.31
376.793	94.38
377.003	57.51
377.214	92.33
377.424	90.28
377.635	37.03
377.845	86.19
378.055	127.14
378.266	49.32
378.476	26.79
378.686	67.75
378.897	10.41
379.107	26.79
379.317	-16.21
379.528	4.27
379.738	8.36
379.948	100.52
380.158	47.27
380.369	55.47
380.579	43.18
380.789	34.99
380.999	71.85
381.21	123.05
381.42	82.09
381.63	77.99
381.84	77.99
382.05	8.36
382.261	90.28
382.471	69.8
382.681	28.84
382.891	39.08
383.101	43.18
383.311	86.19
383.521	30.89
383.731	34.99
383.941	77.99
384.151	24.75
384.361	67.75
384.571	127.14
384.781	116.9
384.991	110.76
385.201	84.14
385.411	-16.21
385.621	77.99
385.831	96.43
386.041	22.7
386.251	65.71
386.461	121
386.671	-16.21
386.881	20.65
387.091	86.19
387.301	53.42
387.511	53.42
387.72	37.03
387.93	-5.97
388.14	71.85
388.35	65.71
388.56	90.28
388.769	-14.17
388.979	26.79
389.189	98.47
389.399	12.46
389.609	30.89
389.818	73.9
390.028	61.61
390.238	123.05
390.447	22.7
390.657	69.8
390.867	6.31
391.076	12.46
391.286	65.71
391.496	55.47
391.705	116.9
391.915	121
392.125	26.79
392.334	16.55
392.544	92.33
392.753	133.29
392.963	10.41
393.172	94.38
393.382	45.23
393.591	118.95
393.801	20.65
394.01	51.37
394.22	55.47
394.429	84.14
394.639	90.28
394.848	147.62
395.058	123.05
395.267	59.56
395.477	28.84
395.686	80.04
395.895	71.85
396.105	131.24
396.314	77.99
396.524	98.47
396.733	86.19
396.942	98.47
397.152	88.23
397.361	90.28
397.57	100.52
397.78	172.2
397.989	98.47
398.198	172.2
398.407	90.28
398.617	65.71
398.826	82.09
399.035	92.33
399.244	133.29
399.453	143.53
399.663	135.34
399.872	100.52
400.081	14.51
400.29	127.14
400.499	114.86
400.708	143.53
400.917	121
401.127	80.04
401.336	137.38
401.545	157.86
401.754	116.9
401.963	231.59
402.172	129.19
402.381	96.43
402.59	176.3
402.799	67.75
403.008	147.62
403.217	94.38
403.426	180.39
403.635	129.19
403.844	94.38
404.053	88.23
404.262	96.43
404.471	149.67
404.68	131.24
404.888	102.57
405.097	159.91
405.306	106.67
405.515	155.82
405.724	204.97
405.933	188.58
406.142	153.77
406.35	166.06
406.559	166.06
406.768	159.91
406.977	178.34
407.185	207.02
407.394	274.6
407.603	229.54
407.812	190.63
408.02	317.61
408.229	297.13
408.438	217.26
408.646	209.06
408.855	252.07
409.064	303.27
409.272	225.45
409.481	290.98
409.69	336.04
409.898	336.04
410.107	352.42
410.315	262.31
410.524	333.99
410.733	358.57
410.941	331.94
411.15	424.1
411.358	438.44
411.567	463.01
411.775	450.72
411.984	456.87
412.192	477.35
412.401	514.21
412.609	510.11
412.818	540.83
413.026	446.63
413.234	536.74
413.443	546.98
413.651	594.08
413.86	583.84
414.068	632.99
414.276	649.38
414.485	645.28
414.693	684.19
414.901	737.44
415.11	757.92
415.318	768.16
415.526	753.82
415.734	868.51
415.943	813.21
416.151	837.79
416.359	858.27
416.567	905.37
416.776	917.66
416.984	993.44
417.192	925.85
417.4	1001.63
417.608	987.29
417.817	1159.32
418.025	1046.68
418.233	1233.05
418.441	1190.04
418.649	1265.82
418.857	1378.45
419.065	1333.4
419.273	1390.74
419.481	1429.65
419.689	1460.37
419.897	1575.06
420.105	1575.06
420.313	1704.08
420.521	1671.31
420.729	1597.59
420.937	1677.46
421.145	1847.44
421.353	2013.32
421.561	1966.22
421.769	2005.13
421.977	2185.35
422.185	2052.24
422.393	2203.79
422.601	2441.35
422.809	2377.86
423.017	2347.14
423.224	2418.82
423.432	2527.36
423.64	2603.14
423.848	2766.98
424.056	2701.44
424.263	3063.93
424.471	2969.73
424.679	2998.4
424.887	3199.1
425.094	3291.26
425.302	3287.16
425.51	3389.56
425.718	3592.31
425.925	3698.8
426.133	3625.08
426.341	3938.41
426.548	4112.49
426.756	4094.06
426.964	4169.84
427.171	4241.51
427.379	4589.67
427.586	4622.44
427.794	4714.59
428.001	5036.13
428.209	5236.83
428.417	4976.73
428.624	5433.43
428.832	5482.58
429.039	5398.62
429.247	5486.68
429.454	5888.08
429.662	6144.08
429.869	5787.73
430.076	6264.91
430.284	6148.17
430.491	6226
430.699	6891.59
430.906	6705.22
431.114	6846.53
431.321	7239.74
431.528	7123.01
431.736	7718.96
431.943	8069.17
432.15	7645.24
432.358	7958.58
432.565	8402.99
432.772	8458.28
432.979	8812.58
433.187	9011.23
433.394	8941.6
433.601	9623.58
433.808	9654.3
434.016	9613.34
434.223	9799.7
434.43	10504.2
434.637	10295.31
434.844	10743.81
435.052	11161.6
435.259	11057.15
435.466	11247.62
435.673	10979.33
435.88	11821.05
436.087	12466.16
436.294	12304.37
436.501	12109.81
436.708	12437.48
436.915	12748.78
437.122	13252.58
437.329	13260.77
437.537	13725.66
437.743	13844.44
437.95	13871.06
438.157	14598.09
438.364	15192
438.571	15138.76
438.778	15114.18
438.985	16426.93
439.192	15859.64
439.399	16455.6
439.606	15919.03
439.813	17043.37
440.02	17856.41
440.227	17414.05
440.433	17438.62
440.64	17950.62
440.847	17997.72
441.054	18495.38
441.261	19492.74
441.467	19222.41
441.674	19703.68
441.881	20467.57
442.088	20080.5
442.294	20121.46
442.501	20854.64
442.708	21428.07
442.914	21862.24
443.121	22908.75
443.328	21966.68
443.534	24020.8
443.741	23095.11
443.948	22679.38
444.154	24670
444.361	24350.52
444.568	24960.81
444.774	24643.38
444.981	24698.67
445.187	25530.15
445.394	26650.39
445.6	26289.95
445.807	28573.43
446.013	27404.04
446.22	27531.01
446.426	29396.71
446.633	29232.88
446.839	30496.47
447.046	29132.53
447.252	30777.05
447.459	30672.6
447.665	30762.71
447.871	32308.93
448.078	33388.21
448.284	31866.56
448.491	32913.08
448.697	33812.13
448.903	34256.54
449.11	34590.36
449.316	34080.42
449.522	34987.67
449.728	35653.26
449.935	35894.92
450.141	35841.67
450.347	36404.86
450.553	35239.57
450.76	35976.84
450.966	37500.53
451.172	36712.06
451.378	37604.97
451.584	36912.76
451.791	37873.26
451.997	37670.51
452.203	38278.75
452.409	38428.26
452.615	38307.43
452.821	36689.53
453.027	36576.89
453.233	38407.78
453.44	36632.19
453.646	37471.85
453.852	37451.38
454.058	37811.82
454.264	36759.16
454.47	37482.09
454.676	37049.97
454.882	37967.46
455.088	35147.41
455.294	35509.9
455.5	35382.93
455.705	36226.69
455.911	34604.7
456.117	33975.97
456.323	33427.12
456.529	31725.25
456.735	33128.11
456.941	32347.84
457.147	31868.61
457.352	30664.41
457.558	30818
457.764	30789.33
457.97	29822.69
458.176	29480.68
458.381	29492.97
458.587	28133.12
458.793	27866.88
458.999	26588.95
459.204	28405.5
459.41	27584.26
459.616	26068.76
459.821	25648.93
460.027	25632.55
460.233	25157.42
460.438	23879.49
460.644	23945.02
460.85	22640.47
461.055	22695.76
461.261	22560.59
461.466	21045.1
461.672	20399.99
461.878	21745.5
462.083	20178.81
462.289	19791.74
462.494	19662.72
462.7	18980.75
462.905	18302.87
463.111	18995.08
463.316	19089.29
463.522	18526.1
463.727	18831.24
463.932	18517.9
464.138	18327.44
464.343	18503.57
464.549	17846.17
464.754	18548.62
464.959	18380.69
465.165	18139.03
465.37	17545.12
465.575	17119.14
465.781	17819.55
465.986	17989.53
466.191	17223.59
466.397	16920.49
466.602	15898.55
466.807	16365.49
467.012	16730.03
467.218	16650.16
467.423	16129.97
467.628	16498.61
467.833	16897.96
468.038	16469.94
468.244	15994.81
468.449	16609.2
468.654	16013.24
468.859	15808.44
469.064	16041.91
469.269	15214.53
469.474	15282.11
469.679	15626.17
469.885	15065.03
470.09	15392.7
470.295	15361.98
470.5	15108.04
470.705	15226.82
470.91	14751.69
471.115	14557.13
471.32	14835.66
471.525	14680.01
471.73	14430.16
471.935	14294.99
472.139	13803.48
472.344	13989.85
472.549	13653.98
472.754	13830.1
472.959	13408.22
473.164	13068.26
473.369	13096.93
473.574	13481.95
473.778	13289.44
473.983	13119.46
474.188	13092.83
474.393	12627.95
474.598	12693.48
474.802	12711.91
475.007	12484.59
475.212	12376.05
475.417	12070.9
475.621	12095.47
475.826	12079.09
476.031	11702.26
476.235	11513.85
476.44	11739.13
476.645	11679.74
476.849	11491.32
477.054	11417.6
477.259	11042.82
477.463	11382.78
477.668	10905.6
477.872	11028.48
478.077	10704.9
478.282	10610.7
478.486	10690.57
478.691	10477.58
478.895	10561.55
479.1	10483.72
479.304	10518.54
479.509	10151.95
479.713	10205.2
479.918	10147.86
480.122	9990.16
480.326	10135.57
480.531	10072.08
480.735	9881.62
480.94	9785.37
481.144	10170.38
481.348	9578.52
481.553	9832.47
481.757	9721.88
481.961	9674.78
482.166	9879.57
482.37	9877.52
482.574	9555.99
482.778	9689.11
482.983	9947.15
483.187	9568.28
483.391	9721.88
483.595	9498.65
483.8	9459.74
484.004	9828.37
484.208	9832.47
484.412	9566.23
484.616	9703.45
484.821	9664.54
485.025	9572.38
485.229	9900.05
485.433	9549.85
485.637	9545.75
485.841	9605.14
486.045	9492.51
486.249	9480.22
486.453	9535.51
486.657	9476.12
486.861	9537.56
487.065	9386.01
487.269	9601.05
487.473	9617.43
487.677	9672.73
487.881	9736.21
488.085	9469.98
488.289	9508.89
488.493	9705.49
488.697	9752.6
488.901	9652.25
489.105	9560.09
489.309	9717.78
489.512	9803.8
489.716	9625.62
489.92	9799.7
490.124	9768.98
490.328	9869.33
490.531	9893.91
490.735	10016.79
490.939	9941.01
491.143	9809.94
491.346	9863.19
491.55	9945.11
491.754	10113.04
491.958	10031.12
492.161	10248.21
492.365	10350.6
492.569	10053.65
492.772	10258.45
492.976	10407.95
493.18	10291.21
493.383	10661.9
493.587	10643.46
493.79	10625.03
493.994	10559.5
494.197	10891.27
494.401	10815.49
494.605	10801.16
494.808	10987.52
495.012	10885.12
495.215	11137.02
495.419	11112.45
495.622	10999.81
495.825	11360.25
496.029	11163.65
496.232	11595.77
496.436	11231.23
496.639	11753.46
496.843	11716.6
497.046	12013.56
497.249	11948.02
497.453	11962.36
497.656	12177.39
497.859	12132.34
498.063	12482.54
498.266	12554.22
498.469	12607.47
498.673	12552.17
498.876	12789.74
499.079	13058.02
499.282	13115.36
499.485	13588.44
499.689	13627.35
499.892	13760.47
500.095	13541.34
500.298	13844.44
500.501	14016.47
500.705	14198.74
500.908	14589.9
501.111	14518.22
501.314	14725.07
501.517	14884.81
501.72	14872.52
501.923	15323.07
502.126	15323.07
502.329	15753.15
502.532	15656.89
502.735	15886.26
502.938	16224.18
503.141	16388.02
503.344	16590.77
503.547	16336.82
503.75	16807.85
503.953	17266.6
504.156	17129.38
504.359	17260.45
504.562	17354.66
504.765	17891.23
504.968	17923.99
505.17	18309.01
505.373	17983.38
505.576	18399.12
505.779	18741.13
505.982	18767.76
506.185	19253.12
506.387	18909.07
506.59	19474.31
506.793	19877.76
506.996	19787.64
507.198	20463.47
507.401	20365.17
507.604	20516.72
507.807	20916.08
508.009	21106.54
508.212	21231.46
508.415	21438.31
508.617	21901.15
508.82	22028.12
509.022	21890.91
509.225	22329.17
509.428	22544.21
509.63	22847.31
509.833	23344.97
510.035	23656.26
510.238	23482.18
510.44	23891.77
510.643	24284.98
510.845	24190.78
511.048	24366.9
511.25	25028.4
511.453	24889.13
511.655	25691.94
511.858	25394.98
512.06	26023.71
512.262	26171.16
512.465	26255.13
512.667	26793.75
512.87	26689.3
513.072	27074.32
513.274	27518.73
513.477	27836.16
513.679	28043.01
513.881	28061.44
514.084	28301.05
514.286	28522.23
514.488	28530.42
514.69	29693.67
514.893	29456.11
515.095	29814.5
515.297	30107.36
515.499	29957.86
515.701	30609.11
515.904	31176.4
516.106	30861.01
516.308	31516.36
516.51	31973.06
516.712	31983.3
516.914	32632.5
517.116	32933.56
517.318	33050.29
517.52	33019.57
517.722	33287.85
517.925	33861.29
518.127	34012.84
518.329	34559.64
518.531	34326.17
518.733	35083.92
518.935	35372.69
519.136	35397.26
519.338	35880.58
519.54	36062.85
519.742	36509.31
519.944	36546.17
520.146	36785.79
520.348	37410.42
520.55	37209.71
520.752	37799.53
520.954	37979.75
521.155	38071.91
521.357	38723.16
521.559	38948.44
521.761	39601.74
521.963	39513.68
522.164	39579.21
522.366	39638.61
522.568	40117.83
522.77	40547.9
522.971	41043.51
523.173	40345.16
523.375	41403.95
523.576	41578.03
523.778	41477.68
523.98	41887.28
524.181	41711.15
524.383	41807.4
524.584	42614.3
524.786	42565.15
524.988	42450.47
525.189	42827.29
525.391	43271.7
525.592	43165.21
525.794	43623.95
525.995	43413.01
526.197	43603.47
526.398	43603.47
526.6	43920.91
526.801	44023.31
527.003	44107.27
527.204	44437
527.406	44830.21
527.607	44832.25
527.808	44903.93
528.01	44701.18
528.211	45108.73
528.412	46204.39
528.614	45217.27
528.815	45637.11
529.016	45911.53
529.218	45317.62
529.419	46132.71
529.62	45762.03
529.822	45858.29
530.023	45534.71
530.224	45995.5
530.425	45958.64
530.626	45979.12
530.828	45565.43
531.029	46671.33
531.23	45878.77
531.431	46089.71
531.632	46132.71
531.833	46269.93
532.035	45970.93
532.236	46421.48
532.437	46417.38
532.638	46128.62
532.839	46591.46
533.04	46499.3
533.241	45876.72
533.442	46982.62
533.643	46357.99
533.844	46493.16
534.045	46372.33
534.246	45856.24
534.447	46544.36
534.648	45977.07
534.849	46298.6
535.05	45860.33
535.251	46308.84
535.451	46648.8
535.652	46448.1
535.853	46085.61
536.054	46409.19
536.255	46110.19
536.456	46034.41
536.657	46812.64
536.857	45901.29
537.058	46091.76
537.259	46491.11
537.46	46126.57
537.66	46241.26
537.861	46276.07
538.062	45647.35
538.263	46372.33
538.463	46099.95
538.664	45991.4
538.865	46093.8
539.065	46259.69
539.266	46204.39
539.466	46468.58
539.667	45598.19
539.868	45897.2
540.068	45583.86
540.269	45782.51
540.469	46196.2
540.67	45850.1
540.87	45735.41
541.071	45381.11
541.271	46157.29
541.472	45581.81
541.672	45610.48
541.873	45215.22
542.073	45407.73
542.274	45573.62
542.474	45534.71
542.675	45153.79
542.875	45532.66
543.075	45430.26
543.276	44660.23
543.476	45598.19
543.676	45508.08
543.877	45444.6
544.077	44905.98
544.277	44869.12
544.478	45075.96
544.678	45245.94
544.878	45352.44
545.078	44969.47
545.279	45002.24
545.479	44760.58
545.679	45280.76
545.879	45176.31
546.079	44791.3
546.28	44815.87
546.48	44336.65
546.68	45106.68
546.88	45219.32
547.08	44826.11
547.28	44901.89
547.48	44097.03
547.68	44940.8
547.88	44410.37
548.081	45016.57
548.281	44750.34
548.481	44596.74
548.681	44848.64
548.881	44809.73
549.081	44543.49
549.28	44473.86
549.48	45297.14
549.68	44496.39
549.88	44916.22
550.08	44039.69
550.28	44918.27
550.48	44742.14
550.68	45118.97
550.88	44447.24
551.08	44756.48
551.279	44695.04
551.479	44312.07
551.679	44508.68
551.879	44445.19
552.079	44631.55
552.278	44125.71
552.478	44027.4
552.678	44105.23
552.878	44260.87
553.077	44357.13
553.277	44617.22
553.477	44711.42
553.676	43935.24
553.876	44795.39
554.076	44213.77
554.275	44125.71
554.475	43824.65
554.674	44361.22
554.874	44449.28
555.074	44199.43
555.273	44441.09
555.473	44246.54
555.672	43847.18
555.872	44013.07
556.071	43990.54
556.271	44246.54
556.47	43714.06
556.67	43593.23
556.869	43570.71
557.068	43933.2
557.268	43783.69
557.467	44135.95
557.667	43603.47
557.866	43845.13
558.065	43509.27
558.265	43458.07
558.464	43279.89
558.663	43638.29
558.863	43206.17
559.062	43910.67
559.261	43251.22
559.461	43492.88
559.66	43001.37
559.859	43619.86
560.058	42978.84
560.258	43482.64
560.457	42896.92
560.656	43507.22
560.855	42870.3
561.054	43079.19
561.253	42313.25
561.453	42919.45
561.652	43083.29
561.851	42561.06
562.05	42552.87
562.249	42491.43
562.448	42944.03
562.647	42616.35
562.846	42360.36
563.045	42266.15
563.244	42477.09
563.443	42567.2
563.642	41817.64
563.841	41932.33
564.04	41967.15
564.239	42153.51
564.438	41514.55
564.637	41655.86
564.836	41842.22
565.035	41242.17
565.234	41463.35
565.432	41330.23
565.631	41201.21
565.83	41428.53
566.029	41152.05
566.228	41160.25
566.427	40701.5
566.625	40597.06
566.824	40644.16
567.023	40918.59
567.222	39986.76
567.42	40715.84
567.619	40232.52
567.818	40318.53
568.016	40465.99
568.215	40427.07
568.414	39837.26
568.612	40308.29
568.811	39595.6
569.01	39876.17
569.208	39421.52
569.407	39712.33
569.605	39398.99
569.804	39743.05
570.002	38911.58
570.201	39382.61
570.4	38987.35
570.598	38782.55
570.797	38796.89
570.995	39134.81
571.193	38487.65
571.392	38942.3
571.59	38270.56
571.789	38237.8
571.987	38043.24
572.186	37975.66
572.384	37787.24
572.582	38276.71
572.781	38073.96
572.979	37254.77
573.177	38008.42
573.376	37899.88
573.574	37543.53
573.772	37486.19
573.971	36923
574.169	37123.7
574.367	36634.24
574.565	37480.05
574.763	36472.45
574.962	36875.9
575.16	36069
575.358	36454.01
575.556	36052.61
575.754	36624
575.952	36034.18
576.151	36345.47
576.349	35729.03
576.547	35890.82
576.745	35507.85
576.943	35952.26
577.141	35767.94
577.339	35653.26
577.537	35524.24
577.735	35401.36
577.933	35128.98
578.131	35208.85
578.329	35186.32
578.527	34657.95
578.725	34657.95
578.923	34832.02
579.121	34657.95
579.319	34363.04
579.516	34530.97
579.714	34342.56
579.912	34272.93
580.11	34078.37
580.308	34428.57
580.506	34291.36
580.704	33412.78
580.901	33861.29
581.099	33760.94
581.297	33353.39
581.495	33689.26
581.692	33431.21
581.89	33162.93
582.088	33207.98
582.285	33048.24
582.483	33539.75
582.681	32978.61
582.878	32933.56
583.076	32691.9
583.274	33099.44
583.471	32409.28
583.669	32655.03
583.866	32399.04
584.064	32376.51
584.262	32069.31
584.459	32493.24
584.657	32059.07
584.854	32292.54
585.052	31715.01
585.249	31848.13
585.447	32001.73
585.644	31418.06
585.841	31540.94
586.039	31932.1
586.236	31164.11
586.434	31260.37
586.631	31041.23
586.828	31106.77
587.026	31153.87
587.223	31057.62
587.42	30826.2
587.618	30918.35
587.815	30779.09
588.012	30750.42
588.21	30619.35
588.407	30764.76
588.604	30133.98
588.801	30033.63
588.999	30217.95
589.196	29984.48
589.393	30052.06
589.59	30039.78
589.787	30056.16
589.984	29974.24
590.182	29339.37
590.379	29945.57
590.576	29370.09
590.773	29331.18
590.97	29406.95
591.167	29417.19
591.364	29208.3
591.561	29228.78
591.758	29019.89
591.955	28763.89
592.152	28770.04
592.349	28759.8
592.546	29064.94
592.743	28780.28
592.94	28221.18
593.137	28907.25
593.334	28593.91
593.531	28378.87
593.727	28276.48
593.924	28110.59
594.121	28223.23
594.318	28045.05
594.515	28149.5
594.712	28415.74
594.908	28012.29
595.105	28190.46
595.302	27692.8
595.499	27285.26
595.696	27617.03
595.892	27406.09
596.089	27500.3
596.286	27596.55
596.482	27201.29
596.679	27164.43
596.876	27281.16
597.072	26980.11
597.269	27383.56
597.466	26763.03
597.662	26793.75
597.859	27059.98
598.055	27107.09
598.252	26822.42
598.448	26621.72
598.645	26580.76
598.841	26562.33
599.038	26435.35
599.234	26568.47
599.431	25859.87
599.627	25900.83
599.824	26074.91
600.02	26208.03
600.217	26130.2
600.413	25773.86
600.609	25880.35
600.806	26085.15
601.002	25798.43
601.198	25622.31
601.395	25544.48
601.591	25548.58
601.787	25403.18
601.984	25253.67
602.18	25433.89
602.376	25165.61
602.572	24979.25
602.769	24930.09
602.965	25089.84
603.161	25091.88
603.357	24600.37
603.553	24741.68
603.75	24880.94
603.946	24610.61
604.142	24713.01
604.338	24512.31
604.534	24764.21
604.73	24452.92
604.926	24276.79
605.122	24100.67
605.318	24139.58
605.514	24233.78
605.71	23861.05
605.906	23914.3
606.102	24002.36
606.298	23781.18
606.494	23826.24
606.69	23879.49
606.886	23897.92
607.082	23330.63
607.278	23678.79
607.474	23195.46
607.67	23613.25
607.866	23271.24
608.062	23531.33
608.257	23349.06
608.453	23283.53
608.649	23439.17
608.845	22994.76
609.041	23201.61
609.236	23254.86
609.432	22980.43
609.628	23246.66
609.824	23025.48
610.019	22906.7
610.215	22976.33
610.411	22773.58
610.606	22722.38
610.802	22869.84
610.998	22720.34
611.193	22732.62
611.389	22597.46
611.584	22601.55
611.78	22316.89
611.976	22595.41
612.171	22579.03
612.367	22415.19
612.562	22247.26
612.758	22060.89
612.953	22073.18
613.149	22175.58
613.344	21962.59
613.539	22497.11
613.735	22101.85
613.93	22488.92
614.126	21854.05
614.321	22304.6
614.517	22226.78
614.712	21755.74
614.907	21915.48
615.103	21659.49
615.298	21688.16
615.493	22222.68
615.688	21364.58
615.884	22110.04
616.079	21247.85
616.274	21829.47
616.47	21466.98
616.665	21548.9
616.86	21344.1
617.055	21147.5
617.25	20938.6
617.445	21458.79
617.641	20780.91
617.836	21264.23
618.031	20868.97
618.226	21174.12
618.421	20424.56
618.616	21135.21
618.811	20586.35
619.006	20873.07
619.201	20418.42
619.396	20557.68
619.591	20270.97
619.786	20440.95
619.981	20139.9
620.176	20350.84
620.371	20174.71
620.566	20035.45
620.761	19998.59
620.956	20119.42
621.151	19472.26
621.346	19918.71
621.541	19591.04
621.735	19715.97
621.93	19158.92
622.125	19466.11
622.32	18974.6
622.515	19277.7
622.709	18788.24
622.904	19122.05
623.099	18685.84
623.294	18966.41
623.488	18384.79
623.683	18769.8
623.878	18292.63
624.072	18528.14
624.267	18286.48
624.462	18085.78
624.656	18081.69
624.851	18091.93
625.046	18012.06
625.24	18038.68
625.435	17776.54
625.629	17545.12
625.824	17268.64
626.018	17751.96
626.213	16988.07
626.407	17133.48
626.602	16998.31
626.796	17088.42
626.991	17332.13
627.185	17147.81
627.38	16689.07
627.574	16670.64
627.768	16576.43
627.963	16445.36
628.157	16310.19
628.352	16547.76
628.546	16220.08
628.74	16181.17
628.935	16041.91
629.129	16195.51
629.323	15945.66
629.517	15826.87
629.712	15869.88
629.906	15816.63
630.1	15433.66
630.294	15525.82
630.489	15538.11
630.683	15353.79
630.877	15169.48
631.071	15294.4
631.265	15316.93
631.459	15019.97
631.653	15159.24
631.848	14944.2
632.042	14942.15
632.236	15124.42
632.43	14755.79
632.624	14682.06
632.818	14684.11
633.012	14458.83
633.206	14268.37
633.4	14415.82
633.594	14000.09
633.788	14239.7
633.982	14198.74
634.176	14213.07
634.369	14067.67
634.563	13850.58
634.757	13846.49
634.951	13846.49
635.145	13707.23
635.339	13899.73
635.533	13610.97
635.726	13455.33
635.92	13342.69
636.114	13486.04
636.308	13273.06
636.501	13164.51
636.695	13295.58
636.889	13021.16
637.083	13021.16
637.276	12914.66
637.47	12953.57
637.664	12759.02
637.857	12718.06
638.051	12984.29
638.244	12482.54
638.438	12527.6
638.632	12474.35
638.825	12369.9
639.019	12242.93
639.212	12105.71
639.406	12232.69
639.599	12126.19
639.793	12124.15
639.986	11788.28
640.18	11862.01
640.373	11640.83
640.567	11689.98
640.76	11745.27
640.954	11519.99
641.147	11515.9
641.34	11556.86
641.534	11276.29
641.727	11227.14
641.92	11206.66
642.114	11143.17
642.307	11259.9
642.5	11040.77
642.694	10915.84
642.887	10778.63
643.08	10782.73
643.273	10711.05
643.467	10545.16
643.66	10629.13
643.853	10573.83
644.046	10504.2
644.239	10432.52
644.432	10405.9
644.626	10350.6
644.819	10250.25
645.012	10350.6
645.205	10229.77
645.398	10364.94
645.591	10100.75
645.784	10016.79
645.977	9801.75
646.17	9881.62
646.363	9760.79
646.556	9572.38
646.749	9793.56
646.942	9457.69
647.135	9500.7
647.328	9461.79
647.521	9740.31
647.714	9240.61
647.907	9508.89
648.099	9400.35
648.292	9248.8
648.485	9091.1
648.678	8994.85
648.871	9132.06
649.064	8902.69
649.256	8986.66
649.449	8892.45
649.642	8736.81
649.835	8646.69
650.027	8736.81
650.22	8726.57
650.413	8646.69
650.605	8718.37
650.798	8699.94
650.991	8458.28
651.183	8503.34
651.376	8458.28
651.568	8267.82
651.761	8247.34
651.954	8255.53
652.146	8351.79
652.339	8280.11
652.531	8075.31
652.724	8017.97
652.916	8060.98
653.109	7960.63
653.301	8257.58
653.494	7888.95
653.686	7852.08
653.879	7938.1
654.071	7868.47
654.263	7583.8
654.456	7780.4
654.648	7751.73
654.84	7653.43
655.033	7467.06
655.225	7665.72
655.417	7626.81
655.61	7462.97
655.802	7442.49
655.994	7295.04
656.186	7348.28
656.379	7258.17
656.571	7331.9
656.763	7225.4
656.955	7229.5
657.148	7264.32
657.34	7161.92
657.532	6961.22
657.724	7026.75
657.916	7202.88
658.108	7088.19
658.3	6862.91
658.492	7018.56
658.684	6637.64
658.876	6873.15
659.068	6985.79
659.26	6740.04
659.452	6914.11
659.644	6668.36
659.836	6664.26
660.028	6666.31
660.22	6514.76
660.412	6719.56
660.604	6365.26
660.796	6445.13
660.988	6469.7
661.18	6529.1
661.372	6342.73
661.563	6422.6
661.755	6352.97
661.947	6367.31
662.139	6217.8
662.331	6250.57
662.522	6189.13
662.714	6115.41
662.906	6090.83
663.097	6180.94
663.289	5935.18
663.481	6170.7
663.673	6008.91
663.864	5959.76
664.056	5886.03
664.247	5826.64
664.439	6031.44
664.631	5881.94
664.822	5840.98
665.014	5797.97
665.205	5791.83
665.397	5627.99
665.588	5761.11
665.78	5562.45
665.971	5671
666.163	5574.74
666.354	5683.28
666.546	5478.49
666.737	5316.7
666.929	5576.79
667.12	5513.3
667.311	5525.59
667.503	5353.56
667.694	5445.72
667.885	5263.45
668.077	5273.69
668.268	5425.24
668.459	5410.9
668.651	5292.12
668.842	5353.56
669.033	5318.75
669.224	5161.05
669.416	5298.27
669.607	5124.19
669.798	5126.24
669.989	5228.63
670.18	5105.76
670.371	5058.65
670.563	5064.8
670.754	4935.78
670.945	4923.49
671.136	5060.7
671.327	4878.43
671.518	4993.12
671.709	5060.7
671.9	4925.54
672.091	4984.93
672.282	4870.24
672.473	4821.09
672.664	4862.05
672.855	5023.84
673.046	4765.79
673.237	4845.66
673.428	4851.81
673.619	4724.83
673.809	4819.04
674	4778.08
674.191	4677.73
674.382	4751.46
674.573	4755.55
674.764	4763.75
674.954	4796.51
675.145	4661.35
675.336	4690.02
675.527	4745.31
675.717	4563.05
675.908	4604
676.099	4683.88
676.289	4671.59
676.48	4759.65
676.671	4511.85
676.861	4604
677.052	4561
677.243	4544.61
677.433	4692.07
677.624	4649.06
677.814	4563.05
678.005	4550.76
678.195	4681.83
678.386	4425.83
678.576	4499.56
678.767	4520.04
678.957	4399.21
679.148	4540.52
679.338	4477.03
679.529	4366.44
679.719	4452.45
679.909	4565.09
680.1	4479.08
680.29	4511.85
680.481	4335.72
680.671	4372.58
680.861	4468.84
681.052	4380.78
681.242	4356.2
681.432	4388.97
681.622	4264.04
681.813	4354.15
682.003	4333.67
682.193	4362.34
682.383	4468.84
682.573	4382.82
682.764	4395.11
682.954	4300.91
683.144	4581.48
683.334	4333.67
683.524	4438.12
683.714	4368.49
683.904	4436.07
684.094	4491.37
684.284	4104.3
684.474	4352.1
684.664	4261.99
684.854	4264.04
685.044	4218.99
685.234	4169.84
685.424	4296.81
685.614	4159.6
685.804	4200.55
685.994	4454.5
686.184	4270.19
686.374	4214.89
686.564	4210.79
686.753	4313.19
686.943	4139.12
687.133	4098.16
687.323	4270.19
687.513	4208.75
687.702	4106.35
687.892	4139.12
688.082	4214.89
688.272	4157.55
688.461	4055.15
688.651	4089.96
688.841	4067.44
689.03	4130.92
689.22	4057.2
689.41	4057.2
689.599	4016.24
689.789	4098.16
689.979	4061.29
690.168	3928.17
690.358	3930.22
690.547	3895.41
690.737	4026.48
690.926	4032.62
691.116	3797.1
691.305	3956.85
691.495	3944.56
691.684	3995.76
691.874	3936.37
692.063	3952.75
692.252	3831.92
692.442	3846.26
692.631	3897.46
692.82	3905.65
693.01	3887.22
693.199	3803.25
693.388	3715.19
693.578	3672.18
693.767	3772.53
693.956	3739.76
694.146	3670.13
694.335	3776.63
694.524	3848.3
694.713	3739.76
694.902	3745.91
695.092	3817.58
695.281	3786.86
695.47	3711.09
695.659	3706.99
695.848	3696.75
696.037	3799.15
696.226	3616.88
696.415	3668.08
696.604	3795.06
696.793	3717.23
696.982	3690.61
697.171	3651.7
697.36	3799.15
697.549	3647.6
697.738	3577.97
697.927	3731.57
698.116	3645.56
698.305	3709.04
698.494	3690.61
698.683	3661.94
698.872	3805.3
699.061	3725.43
699.25	3631.22
699.438	3606.64
699.627	3600.5
699.816	3608.69
700.005	3633.27
700.193	3565.68
700.382	3600.5
700.571	3637.36
700.76	3590.26
700.948	3584.12
701.137	3561.59
701.326	3539.06
701.514	3553.4
701.703	3496.05
701.892	3637.36
702.08	3627.12
702.269	3653.75
702.457	3377.27
702.646	3455.09
702.834	3528.82
703.023	3522.68
703.212	3545.2
703.4	3494.01
703.589	3514.49
703.777	3360.89
703.965	3451
704.154	3489.91
704.342	3518.58
704.531	3432.57
704.719	3352.7
704.907	3438.71
705.096	3444.85
705.284	3381.37
705.472	3313.78
705.661	3346.55
705.849	3371.13
706.037	3268.73
706.226	3389.56
706.414	3475.57
706.602	3317.88
706.79	3528.82
706.979	3254.39
707.167	3235.96
707.355	3256.44
707.543	3235.96
707.731	3446.9
707.919	3223.67
708.107	3151.99
708.296	3248.25
708.484	3207.29
708.672	3254.39
708.86	3215.48
709.048	3117.18
709.236	3178.62
709.424	3233.91
709.612	3139.71
709.8	3180.67
709.988	3022.97
710.176	3199.1
710.364	3213.43
710.551	3246.2
710.739	3178.62
710.927	3162.23
711.115	2998.4
711.303	3104.89
711.491	2934.91
711.679	3074.17
711.866	3139.71
712.054	3063.93
712.242	3006.59
712.43	3076.22
712.617	3004.54
712.805	2957.44
712.993	2992.25
713.181	3039.36
713.368	3102.84
713.556	3100.8
713.744	2826.37
713.931	2986.11
714.119	2912.38
714.306	3020.92
714.494	3004.54
714.682	2936.96
714.869	2930.81
715.057	2867.33
715.244	2828.42
715.432	2957.44
715.619	2881.66
715.807	2934.91
715.994	2934.91
716.182	2926.72
716.369	2896
716.556	2822.27
716.744	2887.81
716.931	2769.02
717.119	2723.97
717.306	2748.54
717.493	2803.84
717.681	2824.32
717.868	2914.43
718.055	2814.08
718.242	2785.41
718.43	2781.31
718.617	2918.53
718.804	2742.4
718.991	2750.59
719.179	2783.36
719.366	2752.64
719.553	2644.1
719.74	2736.26
719.927	2644.1
720.114	2687.11
720.301	2668.67
720.488	2576.52
720.676	2545.8
720.863	2683.01
721.05	2676.87
721.237	2666.63
721.424	2685.06
721.611	2572.42
721.798	2543.75
721.985	2680.96
722.172	2529.41
722.358	2646.15
722.545	2586.76
722.732	2502.79
722.919	2605.19
723.106	2674.82
723.293	2547.84
723.48	2623.62
723.667	2523.27
723.853	2535.56
724.04	2564.23
724.227	2517.12
724.414	2396.29
724.6	2543.75
724.787	2517.12
724.974	2529.41
725.161	2539.65
725.347	2484.36
725.534	2457.73
725.72	2435.21
725.907	2398.34
726.094	2547.84
726.28	2416.77
726.467	2416.77
726.653	2234.5
726.84	2384.01
727.027	2545.8
727.213	2437.25
727.4	2246.79
727.586	2369.67
727.773	2293.9
727.959	2449.54
728.145	2369.67
728.332	2322.57
728.518	2334.86
728.705	2363.53
728.891	2357.38
729.077	2375.81
729.264	2304.14
729.45	2345.09
729.636	2351.24
729.823	2283.66
730.009	2347.14
730.195	2242.7
730.382	2261.13
730.568	2336.9
730.754	2238.6
730.94	2236.55
731.126	2254.98
731.313	2279.56
731.499	2154.63
731.685	2140.3
731.871	2216.07
732.057	2181.26
732.243	2201.74
732.429	2250.89
732.615	2250.89
732.801	2201.74
732.987	2146.44
733.173	2222.22
733.359	2211.98
733.545	2058.38
733.731	2197.64
733.917	2021.52
734.103	2076.81
734.289	2054.28
734.475	2070.67
734.661	2150.54
734.847	2189.45
735.033	2185.35
735.219	2162.83
735.404	2007.18
735.59	2113.67
735.776	2103.43
735.962	2187.4
736.148	2222.22
736.333	2037.9
736.519	2091.15
736.705	2027.66
736.89	2103.43
737.076	1941.65
737.262	2029.71
737.447	2023.56
737.633	2001.04
737.819	1919.12
738.004	2062.48
738.19	2095.24
738.375	2097.29
738.561	2023.56
738.747	2009.23
738.932	2027.66
739.118	1933.45
739.303	2021.52
739.489	1951.88
739.674	1912.97
739.859	1884.3
740.045	2025.61
740.23	1902.73
740.416	1880.21
740.601	2023.56
740.786	1884.3
740.972	1890.45
741.157	1990.8
741.342	1935.5
741.528	1777.81
741.713	1812.62
741.898	1753.23
742.084	1878.16
742.269	1915.02
742.454	1861.77
742.639	1865.87
742.824	1841.29
743.01	1829.01
743.195	1804.43
743.38	1886.35
743.565	1865.87
743.75	1736.85
743.935	1716.37
744.12	1878.16
744.305	1677.46
744.49	1751.18
744.675	1837.2
744.86	1718.42
745.045	1685.65
745.23	1722.51
745.415	1747.09
745.6	1722.51
745.785	1681.55
745.97	1665.17
746.155	1593.49
746.34	1630.35
746.525	1587.35
746.71	1759.38
746.895	1593.49
747.079	1712.27
747.264	1534.1
747.449	1562.77
747.634	1648.79
747.819	1527.96
748.003	1544.34
748.188	1493.14
748.373	1474.71
748.557	1593.49
748.742	1517.72
748.927	1476.76
749.111	1487
749.296	1499.28
749.481	1509.52
749.665	1454.23
749.85	1390.74
750.034	1450.13
750.219	1443.99
750.404	1446.04
750.588	1349.78
750.773	1405.08
750.957	1460.37
751.141	1472.66
751.326	1464.47
751.51	1421.46
751.695	1345.69
751.879	1251.48
752.064	1425.56
752.248	1376.41
752.432	1384.6
752.617	1355.93
752.801	1261.72
752.985	1325.21
753.17	1263.77
753.354	1366.17
753.538	1218.71
753.722	1271.96
753.907	1253.53
754.091	1167.51
754.275	1208.47
754.459	1110.17
754.643	1173.66
754.828	1235.1
755.012	1206.42
755.196	1147.03
755.38	1147.03
755.564	1009.82
755.748	1218.71
755.932	1144.99
756.116	1093.79
756.3	1161.37
756.484	1134.75
756.668	1214.62
756.852	1093.79
757.036	1112.22
757.22	1157.27
757.404	1065.11
757.588	1013.92
757.772	1077.4
757.956	1138.84
758.14	1048.73
758.323	1028.25
758.507	1077.4
758.691	954.52
758.875	993.44
759.059	1005.72
759.242	956.57
759.426	1024.16
759.61	985.24
759.794	962.72
759.977	997.53
760.161	1116.31
760.345	1032.35
760.528	919.71
760.712	1022.11
760.895	997.53
761.079	960.67
761.263	1005.72
761.446	813.21
761.63	927.9
761.813	950.43
761.997	854.17
762.18	923.8
762.364	899.23
762.547	911.52
762.731	911.52
762.914	866.46
763.098	909.47
763.281	923.8
763.464	868.51
763.648	886.94
763.831	919.71
764.015	845.98
764.198	946.33
764.381	843.93
764.564	880.8
764.748	766.11
764.931	833.69
765.114	854.17
765.297	819.36
765.481	778.4
765.664	759.97
765.847	888.99
766.03	796.83
766.213	845.98
766.397	780.45
766.58	782.49
766.763	888.99
766.946	829.6
767.129	852.13
767.312	841.89
767.495	667.81
767.678	848.03
767.861	796.83
768.044	770.21
768.227	874.65
768.41	770.21
768.593	753.82
768.776	772.25
768.959	725.15
769.142	809.12
769.324	727.2
769.507	766.11
769.69	788.64
769.873	714.91
770.056	731.3
770.239	757.92
770.421	776.35
770.604	649.38
770.787	632.99
770.97	678.05
771.152	716.96
771.335	727.2
771.518	688.29
771.7	731.3
771.883	690.34
772.066	671.9
772.248	690.34
772.431	737.44
772.613	692.38
772.796	698.53
772.978	673.95
773.161	686.24
773.343	637.09
773.526	639.14
773.708	678.05
773.891	682.14
774.073	632.99
774.256	684.19
774.438	680.1
774.621	645.28
774.803	581.79
774.985	659.62
775.168	641.18
775.35	583.84
775.532	686.24
775.715	626.85
775.897	581.79
776.079	616.61
776.261	563.36
776.444	579.75
776.626	600.23
776.808	508.07
776.99	602.27
777.173	522.4
777.355	485.54
777.537	565.41
777.719	622.75
777.901	565.41
778.083	551.07
778.265	569.51
778.447	618.66
778.629	483.49
778.811	549.03
778.993	549.03
779.175	602.27
779.357	491.68
779.539	510.11
779.721	458.92
779.903	538.79
780.085	512.16
780.267	503.97
780.449	483.49
780.631	585.89
780.812	483.49
780.994	503.97
781.176	569.51
781.358	506.02
781.54	546.98
781.721	407.72
781.903	463.01
782.085	536.74
782.267	479.4
782.448	389.28
782.63	452.77
782.812	499.88
782.993	526.5
783.175	442.53
783.357	405.67
783.538	516.26
783.72	397.48
783.901	393.38
784.083	477.35
784.264	448.68
784.446	368.81
784.627	393.38
784.809	401.57
784.99	399.52
785.172	299.17
785.353	438.44
785.535	315.56
785.716	313.51
785.897	436.39
786.079	397.48
786.26	432.29
786.441	325.8
786.623	270.5
786.804	288.93
786.985	401.57
787.167	305.32
787.348	336.04
787.529	377
787.71	372.9
787.891	370.85
788.073	327.85
788.254	352.42
788.435	309.41
788.616	385.19
788.797	333.99
788.978	299.17
789.159	317.61
789.34	346.28
789.522	354.47
789.703	303.27
789.884	338.09
790.065	331.94
790.246	385.19
790.427	288.93
790.607	245.93
790.788	329.89
790.969	338.09
791.15	356.52
791.331	274.6
791.512	256.17
791.693	270.5
791.874	254.12
792.054	350.37
792.235	299.17
792.416	221.35
792.597	258.21
792.778	346.28
792.958	268.45
793.139	307.37
793.32	323.75
793.5	231.59
793.681	219.3
793.862	274.6
794.042	276.65
794.223	215.21
794.404	264.36
794.584	196.78
794.765	215.21
794.945	362.66
795.126	319.65
795.306	186.54
795.487	254.12
795.667	209.06
795.848	284.84
796.028	278.69
796.209	262.31
796.389	321.7
796.57	223.4
796.75	305.32
796.93	266.41
797.111	229.54
797.291	213.16
797.471	254.12
797.652	225.45
797.832	204.97
798.012	268.45
798.192	274.6
798.373	153.77
798.553	145.58
798.733	139.43
798.913	282.79
799.093	229.54
799.274	299.17
799.454	252.07
799.634	180.39
799.814	231.59
799.994	233.64
800.174	233.64
800.354	270.5
800.534	245.93
800.714	192.68
800.894	127.14
801.074	198.82
801.254	254.12
801.434	188.58
801.614	237.74
801.794	225.45
801.974	594.08
802.154	147.62
802.334	170.15
802.514	207.02
802.693	184.49
802.873	198.82
803.053	198.82
803.233	231.59
803.413	135.34
803.592	121
803.772	151.72
803.952	239.78
804.131	223.4
804.311	188.58
804.491	223.4
804.67	164.01
804.85	204.97
805.03	233.64
805.209	178.34
805.389	166.06
805.568	166.06
805.748	151.72
805.928	176.3
806.107	254.12
806.287	164.01
806.466	188.58
806.646	217.26
806.825	176.3
807.004	145.58
807.184	196.78
807.363	137.38
807.543	155.82
807.722	209.06
807.901	264.36
808.081	270.5
808.26	125.1
808.439	166.06
808.619	143.53
808.798	125.1
808.977	157.86
809.156	139.43
809.336	145.58
809.515	209.06
809.694	127.14
809.873	104.62
810.052	180.39
810.231	166.06
810.411	209.06
810.59	155.82
810.769	127.14
810.948	145.58
811.127	139.43
811.306	153.77
811.485	176.3
811.664	182.44
811.843	186.54
812.022	141.48
812.201	153.77
812.38	102.57
812.559	127.14
812.737	143.53
812.916	159.91
813.095	155.82
813.274	77.99
813.453	121
813.632	94.38
813.811	184.49
813.989	104.62
814.168	149.67
814.347	164.01
814.526	137.38
814.704	182.44
814.883	141.48
815.062	129.19
815.24	127.14
815.419	166.06
815.598	143.53
815.776	94.38
815.955	112.81
816.133	174.25
816.312	112.81
816.49	61.61
816.669	137.38
816.847	174.25
817.026	141.48
817.204	90.28
817.383	32.94
817.561	143.53
817.74	86.19
817.918	174.25
818.097	100.52
818.275	49.32
818.453	143.53
818.632	88.23
818.81	102.57
818.988	108.71
819.167	77.99
819.345	125.1
819.523	80.04
819.701	147.62
819.879	110.76
820.058	202.92
820.236	92.33
820.414	125.1
820.592	104.62
820.77	80.04
820.948	63.66
821.127	-1.88
821.305	43.18
821.483	149.67
821.661	98.47
821.839	176.3
822.017	71.85
822.195	135.34
822.373	112.81
822.551	28.84
822.729	118.95
822.907	147.62
823.085	131.24
823.262	135.34
823.44	102.57
823.618	88.23
823.796	57.51
823.974	92.33
824.152	121
824.329	63.66
824.507	37.03
824.685	4.27
824.863	108.71
825.04	129.19
825.218	129.19
825.396	96.43
825.574	39.08
825.751	71.85
825.929	55.47
826.107	-8.02
826.284	49.32
826.462	26.79
826.639	137.38
826.817	77.99
826.994	75.95
827.172	41.13
827.349	149.67
827.527	112.81
827.704	94.38
827.882	37.03
828.059	118.95
828.237	63.66
828.414	135.34
828.591	84.14
828.769	73.9
828.946	90.28
829.124	114.86
829.301	63.66
829.478	127.14
829.655	98.47
829.833	43.18
830.01	-14.17
830.187	174.25
830.364	108.71
830.542	61.61
830.719	114.86
830.896	82.09
831.073	104.62
831.25	37.03
831.427	100.52
831.604	147.62
831.782	65.71
831.959	110.76
832.136	61.61
832.313	16.55
832.49	14.51
832.667	114.86
832.844	28.84
833.021	24.75
833.198	71.85
833.374	30.89
833.551	110.76
833.728	55.47
833.905	47.27
834.082	55.47
834.259	90.28
834.436	98.47
834.612	92.33
834.789	84.14
834.966	67.75
835.143	55.47
835.319	59.56
835.496	28.84
835.673	30.89
835.85	84.14
836.026	71.85
836.203	102.57
836.38	22.7
836.556	57.51
836.733	55.47
836.909	69.8
837.086	57.51
837.262	6.31
837.439	73.9
837.616	100.52
837.792	57.51
837.968	49.32
838.145	75.95
838.321	86.19
838.498	28.84
838.674	71.85
838.851	86.19
839.027	53.42
839.203	-5.97
839.38	63.66
839.556	14.51
839.732	6.31
839.909	28.84
840.085	116.9
840.261	34.99
840.437	28.84
840.614	28.84
840.79	106.67
840.966	65.71
841.142	43.18
841.318	75.95
841.494	61.61
841.671	-16.21
841.847	34.99
842.023	59.56
842.199	20.65
842.375	0.17
842.551	43.18
842.727	30.89
842.903	51.37
843.079	75.95
843.255	80.04
843.431	-18.26
843.607	14.51
843.783	34.99
843.959	108.71
844.134	69.8
844.31	123.05
844.486	-44.88
844.662	67.75
844.838	-8.02
845.013	114.86
845.189	10.41
845.365	14.51
845.541	20.65
845.716	77.99
845.892	-1.88
846.068	-26.45
846.244	37.03
846.419	106.67
846.595	55.47
846.77	71.85
846.946	73.9
847.122	55.47
847.297	55.47
847.473	47.27
847.648	110.76
847.824	67.75
847.999	20.65
848.175	10.41
848.35	-24.4
848.526	82.09
848.701	20.65
848.876	37.03
849.052	116.9
849.227	-18.26
849.403	47.27
849.578	32.94
849.753	14.51
849.929	63.66
850.104	8.36
850.279	94.38
850.454	-5.97
850.63	102.57
850.805	63.66
850.98	63.66
851.155	10.41
851.33	71.85
851.505	-8.02
851.681	26.79
851.856	14.51
852.031	102.57
852.206	53.42
852.381	-20.31
852.556	39.08
852.731	77.99
852.906	108.71
853.081	57.51
853.256	-32.6
853.431	10.41
853.606	14.51
853.781	-3.93
853.956	24.75
854.131	16.55
854.305	-34.64
854.48	14.51
854.655	12.46
854.83	-28.5
855.005	43.18
855.18	-16.21
855.354	14.51
855.529	-14.17
855.704	4.27
855.879	69.8
856.053	39.08
856.228	41.13
856.403	39.08
856.577	-1.88
856.752	43.18
856.926	47.27
857.101	-30.55
857.276	2.22
857.45	-32.6
857.625	34.99
857.799	-46.93
857.974	69.8
858.148	41.13
858.323	59.56
858.497	22.7
858.672	-28.5
858.846	14.51
859.02	92.33
859.195	-14.17
859.369	39.08
859.543	32.94
859.718	-30.55
859.892	47.27
860.066	-44.88
860.241	-38.74
860.415	16.55
860.589	12.46
860.763	-55.12
860.938	18.6
861.112	47.27
861.286	28.84
861.46	6.31
861.634	-30.55
861.808	92.33
861.982	-67.41
862.157	77.99
862.331	-24.4
862.505	22.7
862.679	-14.17
862.853	-12.12
863.027	-24.4
863.201	45.23
863.375	-40.79
863.549	14.51
863.722	30.89
863.896	55.47
864.07	-34.64
864.244	71.85
864.418	28.84
864.592	-12.12
864.766	-12.12
864.939	-12.12
865.113	-3.93
865.287	20.65
865.461	-34.64
865.634	4.27
865.808	53.42
865.982	-30.55
866.156	-36.69
866.329	28.84
866.503	49.32
866.676	53.42
866.85	53.42
867.024	49.32
867.197	45.23
867.371	49.32
867.544	4.27
867.718	6.31
867.891	37.03
868.065	55.47
868.238	28.84
868.412	69.8
868.585	12.46
868.759	-18.26
868.932	8.36
869.105	71.85
869.279	20.65
869.452	-59.22
869.625	-32.6
869.799	94.38
869.972	37.03
870.145	-30.55
870.319	8.36
870.492	45.23
870.665	-34.64
870.838	22.7
871.011	-69.46
871.185	53.42
871.358	4.27
871.531	-14.17
871.704	53.42
871.877	6.31
872.05	65.71
872.223	-51.03
872.396	-71.51
872.569	80.04
872.742	37.03
872.915	65.71
873.088	-8.02
873.261	-12.12
873.434	26.79
873.607	32.94
873.78	0.17
873.953	-108.37
874.126	32.94
874.299	55.47
874.471	20.65
874.644	55.47
874.817	39.08
874.99	55.47
875.163	-59.22
875.335	43.18
875.508	20.65
875.681	39.08
875.853	-53.08
876.026	73.9
876.199	-28.5
876.371	-61.27
876.544	16.55
876.717	61.61
876.889	39.08
877.062	20.65
877.234	-3.93
877.407	-3.93
877.579	41.13
877.752	26.79
877.924	20.65
878.097	2.22
878.269	22.7
878.442	-12.12
878.614	-22.36
878.786	0.17
878.959	12.46
879.131	6.31
879.303	-20.31
879.476	-3.93
879.648	8.36
879.82	59.56
879.993	8.36
880.165	28.84
880.337	-48.98
880.509	6.31
880.681	45.23
880.854	-28.5
881.026	57.51
881.198	24.75
881.37	34.99
881.542	20.65
881.714	-1.88
881.886	28.84
882.058	65.71
882.23	75.95
882.402	41.13
882.574	49.32
882.746	30.89
882.918	65.71
883.09	16.55
883.262	-42.84
883.434	-10.07
883.606	-59.22
883.778	63.66
883.95	-14.17
884.122	2.22
884.293	-1.88
884.465	-57.17
884.637	28.84
884.809	-20.31
884.98	26.79
885.152	-12.12
885.324	59.56
885.496	12.46
885.667	41.13
885.839	75.95
886.011	43.18
886.182	-36.69
886.354	18.6
886.525	-38.74
886.697	-28.5
886.869	10.41
887.04	-48.98
887.212	0.17
887.383	55.47
887.555	-26.45
887.726	28.84
887.897	45.23
888.069	30.89
888.24	-8.02
888.412	41.13
888.583	-22.36
888.754	45.23
888.926	0.17
889.097	-36.69
889.268	-1.88
889.44	-8.02
889.611	8.36
889.782	-26.45
889.953	-28.5
890.125	-18.26
890.296	-1.88
890.467	-65.36
890.638	-63.32
890.809	71.85
890.98	20.65
891.151	22.7
891.323	-1.88
891.494	-10.07
891.665	0.17
891.836	26.79
892.007	-3.93
892.178	10.41
892.349	45.23
892.52	12.46
892.691	-85.84
892.862	51.37
893.032	-20.31
893.203	16.55
893.374	12.46
893.545	73.9
893.716	-42.84
893.887	55.47
894.057	-14.17
894.228	-1.88
894.399	-22.36
894.57	41.13
894.74	75.95
894.911	71.85
895.082	-1.88
895.253	-28.5
895.423	-79.7
895.594	-61.27
895.764	-16.21
895.935	43.18
896.106	-1.88
896.276	8.36
896.447	4.27
896.617	-53.08
896.788	53.42
896.958	6.31
897.129	-22.36
897.299	34.99
897.47	106.67
897.64	10.41
897.81	80.04
897.981	18.6
898.151	-10.07
898.322	-40.79
898.492	20.65
898.662	-71.51
898.832	61.61
899.003	-3.93
899.173	8.36
899.343	0.17
899.513	8.36
