Data from USB4F104151__93__12-37-08-311.txt Node

Date: Fri Mar 14 12:37:08 EDT 2025
User: louis
Spectrometer: USB4F10415
Trigger mode: 4
Integration Time (sec): 2.000000E-2
Scans to average: 1
Electric dark correction enabled: true
Nonlinearity correction enabled: false
Boxcar width: 0
XAxis mode: Wavelengths
Number of Pixels in Spectrum: 3648
>>>>>Begin Spectral Data<<<<<
178.204	-36.35
178.424	-36.35
178.644	-36.35
178.864	-116.22
179.084	-36.35
179.304	-30.21
179.524	-15.87
179.744	6.66
179.964	16.9
180.184	-26.11
180.404	0.51
180.624	-1.54
180.844	-9.73
181.064	6.66
181.283	41.47
181.503	-42.5
181.723	53.76
181.943	-22.02
182.163	78.33
182.383	-15.87
182.602	29.18
182.822	-3.58
183.042	57.86
183.262	59.9
183.482	76.29
183.701	20.99
183.921	12.8
184.141	-5.63
184.361	14.85
184.58	29.18
184.8	29.18
185.02	0.51
185.239	80.38
185.459	-32.26
185.679	55.81
185.898	66.05
186.118	31.23
186.338	-5.63
186.557	90.62
186.777	-26.11
186.997	10.75
187.216	33.28
187.436	-32.26
187.655	64
187.875	139.77
188.095	-7.68
188.314	43.52
188.534	98.81
188.753	76.29
188.973	61.95
189.192	20.99
189.412	86.53
189.631	119.29
189.851	57.86
190.07	68.09
190.29	16.9
190.509	74.24
190.729	-19.97
190.948	113.15
191.168	221.69
191.387	-9.73
191.607	14.85
191.826	66.05
192.045	29.18
192.265	27.14
192.484	35.33
192.704	68.09
192.923	70.14
193.142	70.14
193.362	160.25
193.581	47.62
193.8	51.71
194.02	23.04
194.239	55.81
194.458	-17.92
194.678	6.66
194.897	33.28
195.116	-7.68
195.335	64
195.555	45.57
195.774	51.71
195.993	8.7
196.212	29.18
196.432	-7.68
196.651	18.94
196.87	-24.06
197.089	61.95
197.308	10.75
197.528	76.29
197.747	49.66
197.966	129.53
198.185	90.62
198.404	35.33
198.623	-3.58
198.842	29.18
199.062	82.43
199.281	102.91
199.5	31.23
199.719	51.71
199.938	147.97
200.157	88.57
200.376	76.29
200.595	111.1
200.814	47.62
201.033	-42.5
201.252	41.47
201.471	55.81
201.69	-3.58
201.909	64
202.128	18.94
202.347	39.42
202.566	61.95
202.785	14.85
203.004	-3.58
203.223	82.43
203.442	29.18
203.661	27.14
203.879	94.72
204.098	57.86
204.317	14.85
204.536	-17.92
204.755	82.43
204.974	96.77
205.193	-3.58
205.411	39.42
205.63	64
205.849	2.56
206.068	94.72
206.287	27.14
206.505	14.85
206.724	57.86
206.943	25.09
207.162	49.66
207.381	123.39
207.599	82.43
207.818	20.99
208.037	35.33
208.255	41.47
208.474	-36.35
208.693	37.38
208.911	107.01
209.13	12.8
209.349	39.42
209.567	18.94
209.786	129.53
210.005	27.14
210.223	43.52
210.442	14.85
210.661	74.24
210.879	8.7
211.098	64
211.316	20.99
211.535	8.7
211.753	72.19
211.972	74.24
212.191	41.47
212.409	51.71
212.628	27.14
212.846	102.91
213.065	-1.54
213.283	111.1
213.502	41.47
213.72	109.05
213.938	37.38
214.157	6.66
214.375	59.9
214.594	72.19
214.812	43.52
215.031	72.19
215.249	2.56
215.467	47.62
215.686	102.91
215.904	33.28
216.122	66.05
216.341	70.14
216.559	31.23
216.778	72.19
216.996	55.81
217.214	53.76
217.432	31.23
217.651	16.9
217.869	39.42
218.087	-13.82
218.306	49.66
218.524	107.01
218.742	31.23
218.96	27.14
219.179	29.18
219.397	51.71
219.615	133.63
219.833	51.71
220.051	55.81
220.27	113.15
220.488	80.38
220.706	88.57
220.924	35.33
221.142	61.95
221.36	64
221.578	59.9
221.796	57.86
222.015	12.8
222.233	-40.45
222.451	88.57
222.669	-36.35
222.887	92.67
223.105	-3.58
223.323	90.62
223.541	-34.3
223.759	10.75
223.977	66.05
224.195	117.25
224.413	92.67
224.631	43.52
224.849	18.94
225.067	100.86
225.285	55.81
225.503	18.94
225.721	70.14
225.939	27.14
226.157	35.33
226.375	133.63
226.592	49.66
226.81	23.04
227.028	76.29
227.246	25.09
227.464	64
227.682	31.23
227.9	35.33
228.117	-1.54
228.335	43.52
228.553	35.33
228.771	84.48
228.989	12.8
229.206	117.25
229.424	-28.16
229.642	-28.16
229.86	84.48
230.077	43.52
230.295	59.9
230.513	33.28
230.731	64
230.948	-17.92
231.166	45.57
231.384	20.99
231.601	33.28
231.819	8.7
232.037	-3.58
232.254	59.9
232.472	66.05
232.689	2.56
232.907	41.47
233.125	59.9
233.342	47.62
233.56	8.7
233.777	115.2
233.995	55.81
234.213	59.9
234.43	33.28
234.648	27.14
234.865	43.52
235.083	23.04
235.3	20.99
235.518	16.9
235.735	8.7
235.953	49.66
236.17	-36.35
236.388	47.62
236.605	37.38
236.822	61.95
237.04	61.95
237.257	20.99
237.475	51.71
237.692	119.29
237.909	94.72
238.127	80.38
238.344	25.09
238.562	39.42
238.779	74.24
238.996	92.67
239.214	78.33
239.431	37.38
239.648	51.71
239.865	-24.06
240.083	37.38
240.3	16.9
240.517	41.47
240.735	-5.63
240.952	43.52
241.169	41.47
241.386	84.48
241.603	74.24
241.821	31.23
242.038	14.85
242.255	-11.78
242.472	53.76
242.689	57.86
242.907	98.81
243.124	115.2
243.341	49.66
243.558	53.76
243.775	66.05
243.992	-7.68
244.209	96.77
244.426	84.48
244.643	-1.54
244.86	70.14
245.078	88.57
245.295	-34.3
245.512	-13.82
245.729	-83.45
245.946	59.9
246.163	72.19
246.38	35.33
246.597	82.43
246.814	23.04
247.031	-13.82
247.248	16.9
247.464	90.62
247.681	61.95
247.898	20.99
248.115	0.51
248.332	20.99
248.549	102.91
248.766	186.88
248.983	123.39
249.2	84.48
249.417	37.38
249.633	20.99
249.85	64
250.067	49.66
250.284	154.11
250.501	41.47
250.717	49.66
250.934	16.9
251.151	-3.58
251.368	43.52
251.585	33.28
251.801	-26.11
252.018	37.38
252.235	-38.4
252.451	31.23
252.668	31.23
252.885	84.48
253.102	88.57
253.318	43.52
253.535	59.9
253.752	74.24
253.968	-28.16
254.185	2.56
254.401	39.42
254.618	57.86
254.835	55.81
255.051	109.05
255.268	104.96
255.484	86.53
255.701	16.9
255.917	107.01
256.134	68.09
256.351	70.14
256.567	12.8
256.784	10.75
257	49.66
257.217	92.67
257.433	59.9
257.65	82.43
257.866	55.81
258.082	119.29
258.299	8.7
258.515	18.94
258.732	-1.54
258.948	2.56
259.165	84.48
259.381	20.99
259.597	129.53
259.814	-3.58
260.03	10.75
260.246	31.23
260.463	55.81
260.679	49.66
260.895	31.23
261.112	59.9
261.328	33.28
261.544	35.33
261.761	14.85
261.977	59.9
262.193	78.33
262.409	39.42
262.626	35.33
262.842	-9.73
263.058	55.81
263.274	37.38
263.49	45.57
263.707	90.62
263.923	66.05
264.139	61.95
264.355	23.04
264.571	86.53
264.787	82.43
265.004	96.77
265.22	43.52
265.436	37.38
265.652	47.62
265.868	82.43
266.084	-52.74
266.3	92.67
266.516	-7.68
266.732	43.52
266.948	49.66
267.164	10.75
267.38	27.14
267.596	-3.58
267.812	51.71
268.028	66.05
268.244	55.81
268.46	41.47
268.676	61.95
268.892	74.24
269.108	102.91
269.324	49.66
269.54	10.75
269.756	84.48
269.972	-5.63
270.188	23.04
270.403	78.33
270.619	70.14
270.835	47.62
271.051	39.42
271.267	64
271.483	90.62
271.698	72.19
271.914	33.28
272.13	92.67
272.346	64
272.562	37.38
272.777	49.66
272.993	45.57
273.209	35.33
273.425	23.04
273.64	-5.63
273.856	127.49
274.072	18.94
274.287	70.14
274.503	57.86
274.719	33.28
274.934	70.14
275.15	8.7
275.366	59.9
275.581	35.33
275.797	10.75
276.012	59.9
276.228	-22.02
276.444	35.33
276.659	8.7
276.875	80.38
277.09	94.72
277.306	84.48
277.521	29.18
277.737	27.14
277.952	37.38
278.168	76.29
278.383	86.53
278.599	-22.02
278.814	43.52
279.03	78.33
279.245	100.86
279.461	-22.02
279.676	88.57
279.892	4.61
280.107	10.75
280.322	68.09
280.538	96.77
280.753	-11.78
280.969	39.42
281.184	39.42
281.399	43.52
281.615	47.62
281.83	-7.68
282.045	-11.78
282.26	14.85
282.476	25.09
282.691	53.76
282.906	23.04
283.122	45.57
283.337	-1.54
283.552	41.47
283.767	66.05
283.983	70.14
284.198	86.53
284.413	59.9
284.628	0.51
284.843	109.05
285.058	76.29
285.274	-28.16
285.489	47.62
285.704	102.91
285.919	80.38
286.134	23.04
286.349	10.75
286.564	-48.64
286.779	14.85
286.995	59.9
287.21	0.51
287.425	82.43
287.64	-15.87
287.855	115.2
288.07	-36.35
288.285	43.52
288.5	61.95
288.715	102.91
288.93	76.29
289.145	18.94
289.36	92.67
289.575	55.81
289.79	109.05
290.004	-24.06
290.219	86.53
290.434	51.71
290.649	61.95
290.864	43.52
291.079	59.9
291.294	49.66
291.509	4.61
291.724	66.05
291.938	66.05
292.153	113.15
292.368	0.51
292.583	33.28
292.798	39.42
293.012	25.09
293.227	14.85
293.442	109.05
293.657	66.05
293.871	-24.06
294.086	55.81
294.301	113.15
294.516	31.23
294.73	37.38
294.945	16.9
295.16	-13.82
295.374	72.19
295.589	131.58
295.804	61.95
296.018	6.66
296.233	59.9
296.447	68.09
296.662	-11.78
296.877	82.43
297.091	129.53
297.306	33.28
297.52	49.66
297.735	51.71
297.949	92.67
298.164	-3.58
298.378	43.52
298.593	90.62
298.807	66.05
299.022	27.14
299.236	82.43
299.451	90.62
299.665	68.09
299.88	37.38
300.094	14.85
300.309	47.62
300.523	74.24
300.737	68.09
300.952	57.86
301.166	49.66
301.381	39.42
301.595	41.47
301.809	64
302.024	51.71
302.238	51.71
302.452	94.72
302.667	41.47
302.881	131.58
303.095	53.76
303.309	47.62
303.524	37.38
303.738	80.38
303.952	37.38
304.166	16.9
304.381	25.09
304.595	68.09
304.809	37.38
305.023	61.95
305.237	-5.63
305.452	39.42
305.666	14.85
305.88	49.66
306.094	6.66
306.308	49.66
306.522	29.18
306.736	80.38
306.95	72.19
307.164	57.86
307.379	49.66
307.593	90.62
307.807	41.47
308.021	92.67
308.235	2.56
308.449	78.33
308.663	2.56
308.877	43.52
309.091	18.94
309.305	29.18
309.519	8.7
309.733	29.18
309.947	31.23
310.161	57.86
310.374	76.29
310.588	76.29
310.802	80.38
311.016	66.05
311.23	76.29
311.444	0.51
311.658	49.66
311.872	53.76
312.085	55.81
312.299	78.33
312.513	33.28
312.727	70.14
312.941	37.38
313.154	0.51
313.368	18.94
313.582	94.72
313.796	66.05
314.009	47.62
314.223	47.62
314.437	49.66
314.651	104.96
314.864	72.19
315.078	59.9
315.292	55.81
315.505	43.52
315.719	76.29
315.933	109.05
316.146	84.48
316.36	72.19
316.573	107.01
316.787	59.9
317.001	102.91
317.214	39.42
317.428	39.42
317.641	16.9
317.855	25.09
318.068	47.62
318.282	66.05
318.495	113.15
318.709	70.14
318.922	76.29
319.136	119.29
319.349	74.24
319.563	86.53
319.776	64
319.99	47.62
320.203	45.57
320.417	45.57
320.63	59.9
320.843	86.53
321.057	-7.68
321.27	90.62
321.483	49.66
321.697	23.04
321.91	129.53
322.124	100.86
322.337	119.29
322.55	45.57
322.763	78.33
322.977	74.24
323.19	-9.73
323.403	-5.63
323.617	72.19
323.83	70.14
324.043	55.81
324.256	152.06
324.469	35.33
324.683	68.09
324.896	12.8
325.109	84.48
325.322	78.33
325.535	39.42
325.748	49.66
325.962	10.75
326.175	10.75
326.388	43.52
326.601	27.14
326.814	-19.97
327.027	18.94
327.24	121.34
327.453	45.57
327.666	76.29
327.879	72.19
328.092	47.62
328.305	59.9
328.518	117.25
328.731	8.7
328.944	100.86
329.157	27.14
329.37	39.42
329.583	70.14
329.796	111.1
330.009	49.66
330.222	10.75
330.435	16.9
330.648	117.25
330.861	39.42
331.073	74.24
331.286	78.33
331.499	31.23
331.712	0.51
331.925	78.33
332.138	76.29
332.35	68.09
332.563	74.24
332.776	68.09
332.989	53.76
333.202	57.86
333.414	104.96
333.627	84.48
333.84	-9.73
334.053	94.72
334.265	-15.87
334.478	72.19
334.691	45.57
334.903	-22.02
335.116	64
335.329	33.28
335.541	72.19
335.754	68.09
335.966	37.38
336.179	33.28
336.392	76.29
336.604	20.99
336.817	10.75
337.029	133.63
337.242	12.8
337.454	96.77
337.667	80.38
337.88	127.49
338.092	57.86
338.305	121.34
338.517	51.71
338.729	102.91
338.942	90.62
339.154	-30.21
339.367	-1.54
339.579	123.39
339.792	59.9
340.004	98.81
340.217	14.85
340.429	166.4
340.641	49.66
340.854	39.42
341.066	51.71
341.278	70.14
341.491	35.33
341.703	84.48
341.915	-17.92
342.128	70.14
342.34	64
342.552	6.66
342.764	57.86
342.977	25.09
343.189	154.11
343.401	90.62
343.613	-15.87
343.826	88.57
344.038	16.9
344.25	88.57
344.462	74.24
344.674	84.48
344.886	90.62
345.099	39.42
345.311	162.3
345.523	20.99
345.735	-30.21
345.947	2.56
346.159	6.66
346.371	64
346.583	49.66
346.795	145.92
347.007	123.39
347.219	137.73
347.431	61.95
347.643	57.86
347.855	18.94
348.067	123.39
348.279	-15.87
348.491	51.71
348.703	49.66
348.915	64
349.127	109.05
349.339	72.19
349.551	92.67
349.763	96.77
349.975	55.81
350.187	125.44
350.399	76.29
350.61	141.82
350.822	33.28
351.034	90.62
351.246	18.94
351.458	55.81
351.669	74.24
351.881	49.66
352.093	23.04
352.305	66.05
352.517	16.9
352.728	96.77
352.94	-50.69
353.152	139.77
353.363	94.72
353.575	47.62
353.787	82.43
353.999	57.86
354.21	80.38
354.422	98.81
354.633	70.14
354.845	90.62
355.057	29.18
355.268	66.05
355.48	43.52
355.692	117.25
355.903	53.76
356.115	84.48
356.326	-50.69
356.538	78.33
356.749	84.48
356.961	115.2
357.172	72.19
357.384	64
357.595	70.14
357.807	57.86
358.018	47.62
358.23	47.62
358.441	121.34
358.653	76.29
358.864	78.33
359.075	94.72
359.287	72.19
359.498	43.52
359.709	66.05
359.921	66.05
360.132	31.23
360.344	82.43
360.555	55.81
360.766	72.19
360.977	74.24
361.189	121.34
361.4	84.48
361.611	92.67
361.823	64
362.034	0.51
362.245	16.9
362.456	20.99
362.667	35.33
362.879	98.81
363.09	57.86
363.301	72.19
363.512	2.56
363.723	76.29
363.935	147.97
364.146	49.66
364.357	23.04
364.568	10.75
364.779	33.28
364.99	117.25
365.201	113.15
365.412	66.05
365.623	70.14
365.834	49.66
366.045	123.39
366.256	154.11
366.467	59.9
366.678	66.05
366.889	74.24
367.1	-24.06
367.311	111.1
367.522	82.43
367.733	0.51
367.944	98.81
368.155	43.52
368.366	64
368.577	107.01
368.788	70.14
368.999	39.42
369.209	115.2
369.42	129.53
369.631	10.75
369.842	57.86
370.053	37.38
370.264	74.24
370.474	-26.11
370.685	109.05
370.896	39.42
371.107	68.09
371.317	51.71
371.528	27.14
371.739	156.16
371.95	68.09
372.16	43.52
372.371	80.38
372.582	115.2
372.792	70.14
373.003	119.29
373.214	104.96
373.424	41.47
373.635	117.25
373.846	125.44
374.056	25.09
374.267	12.8
374.477	131.58
374.688	53.76
374.898	109.05
375.109	119.29
375.319	133.63
375.53	78.33
375.74	72.19
375.951	43.52
376.161	119.29
376.372	59.9
376.582	68.09
376.793	76.29
377.003	94.72
377.214	45.57
377.424	88.57
377.635	8.7
377.845	49.66
378.055	100.86
378.266	23.04
378.476	78.33
378.686	86.53
378.897	178.69
379.107	90.62
379.317	139.77
379.528	45.57
379.738	117.25
379.948	10.75
380.158	-40.45
380.369	102.91
380.579	37.38
380.789	107.01
380.999	141.82
381.21	68.09
381.42	121.34
381.63	16.9
381.84	59.9
382.05	111.1
382.261	104.96
382.471	84.48
382.681	131.58
382.891	61.95
383.101	156.16
383.311	66.05
383.521	86.53
383.731	49.66
383.941	133.63
384.151	59.9
384.361	47.62
384.571	92.67
384.781	98.81
384.991	113.15
385.201	193.02
385.411	0.51
385.621	104.96
385.831	113.15
386.041	53.76
386.251	86.53
386.461	100.86
386.671	74.24
386.881	74.24
387.091	59.9
387.301	129.53
387.511	115.2
387.72	70.14
387.93	123.39
388.14	68.09
388.35	78.33
388.56	82.43
388.769	66.05
388.979	96.77
389.189	113.15
389.399	127.49
389.609	59.9
389.818	147.97
390.028	31.23
390.238	150.01
390.447	31.23
390.657	123.39
390.867	113.15
391.076	113.15
391.286	70.14
391.496	45.57
391.705	74.24
391.915	92.67
392.125	117.25
392.334	166.4
392.544	197.12
392.753	94.72
392.963	111.1
393.172	92.67
393.382	53.76
393.591	217.6
393.801	152.06
394.01	78.33
394.22	137.73
394.429	143.87
394.639	129.53
394.848	98.81
395.058	123.39
395.267	82.43
395.477	90.62
395.686	129.53
395.895	94.72
396.105	156.16
396.314	117.25
396.524	115.2
396.733	129.53
396.942	160.25
397.152	109.05
397.361	98.81
397.57	127.49
397.78	139.77
397.989	107.01
398.198	264.7
398.407	125.44
398.617	233.98
398.826	109.05
399.035	152.06
399.244	98.81
399.453	131.58
399.663	143.87
399.872	133.63
400.081	82.43
400.29	96.77
400.499	119.29
400.708	145.92
400.917	98.81
401.127	172.54
401.336	164.35
401.545	164.35
401.754	168.45
401.963	219.64
402.172	223.74
402.381	107.01
402.59	145.92
402.799	184.83
403.008	188.93
403.217	160.25
403.426	133.63
403.635	156.16
403.844	209.4
404.053	127.49
404.262	164.35
404.471	233.98
404.68	160.25
404.888	131.58
405.097	199.16
405.306	154.11
405.515	197.12
405.724	233.98
405.933	172.54
406.142	207.36
406.35	229.88
406.559	244.22
406.768	283.13
406.977	287.23
407.185	227.84
407.394	268.8
407.603	301.56
407.812	371.19
408.02	281.08
408.229	315.9
408.438	295.42
408.646	305.66
408.855	291.32
409.064	428.54
409.272	363
409.481	348.67
409.69	406.01
409.898	379.39
410.107	381.43
410.315	408.06
410.524	377.34
410.733	406.01
410.941	442.87
411.15	442.87
411.358	424.44
411.567	492.02
411.775	549.37
411.984	502.26
412.192	526.84
412.401	575.99
412.609	582.14
412.818	596.47
413.026	594.42
413.234	662.01
413.443	743.92
413.651	690.68
413.86	702.97
414.068	838.13
414.276	807.41
414.485	793.08
414.693	772.6
414.901	879.09
415.11	944.63
415.318	846.32
415.526	944.63
415.734	942.58
415.943	977.39
416.151	1016.3
416.359	1081.84
416.567	1067.5
416.776	1133.04
416.984	1155.57
417.192	1364.46
417.4	1196.53
417.608	1235.44
417.817	1294.83
418.025	1372.65
418.233	1419.75
418.441	1380.84
418.649	1485.29
418.857	1581.54
419.065	1604.07
419.273	1706.47
419.481	1784.29
419.689	1802.72
419.897	1968.61
420.105	1931.75
420.313	2011.62
420.521	2087.39
420.729	2075.1
420.937	2183.65
421.145	2259.42
421.353	2353.63
421.561	2513.37
421.769	2505.18
421.977	2683.35
422.185	2525.66
422.393	2783.7
422.601	2984.4
422.809	2808.28
423.017	2886.1
423.224	2968.02
423.432	3131.86
423.64	3150.29
423.848	3584.46
424.056	3424.72
424.263	3613.13
424.471	3586.51
424.679	3697.1
424.887	3779.01
425.094	3942.85
425.302	3992
425.51	4053.44
425.718	4336.06
425.925	4250.05
426.133	4463.04
426.341	4762.04
426.548	4950.45
426.756	4987.32
426.964	4940.21
427.171	5267.89
427.379	5515.69
427.586	5525.93
427.794	5859.75
428.001	5949.86
428.209	6187.43
428.417	6023.59
428.624	6519.2
428.832	6640.03
429.039	6504.86
429.247	6672.79
429.454	7184.79
429.662	7733.64
429.869	7070.1
430.076	7676.3
430.284	7295.38
430.491	7715.21
430.699	8331.65
430.906	8262.02
431.114	8331.65
431.321	8618.36
431.528	8954.23
431.736	9490.8
431.943	9853.29
432.15	9542
432.358	9613.68
432.565	10221.92
432.772	9939.3
432.979	10377.57
433.187	10797.4
433.394	10871.13
433.601	11626.83
433.808	11606.35
434.016	11632.97
434.223	12257.6
434.43	12824.89
434.637	12398.91
434.844	13463.86
435.052	13404.47
435.259	13424.95
435.466	13580.59
435.673	13470
435.88	14315.81
436.087	14919.96
436.294	15067.42
436.501	14729.5
436.708	14979.36
436.915	15513.88
437.122	16345.35
437.329	16283.91
437.537	16845.05
437.743	17074.43
437.95	16773.38
438.157	17817.84
438.364	18374.89
438.571	18395.37
438.778	18440.42
438.985	20357.32
439.192	19378.39
439.399	20070.61
439.606	19618
439.813	20527.3
440.02	21553.34
440.227	21608.63
440.433	21444.79
440.64	22177.97
440.847	21995.7
441.054	22526.12
441.261	23799.96
441.467	23455.9
441.674	24184.97
441.881	24715.4
442.088	24889.48
442.294	24688.78
442.501	25421.95
442.708	25712.76
442.914	26712.17
443.121	28033.11
443.328	27383.9
443.534	29435.97
443.741	28674.12
443.948	27723.86
444.154	29849.66
444.361	29855.8
444.568	30285.87
444.774	30277.68
444.981	30320.69
445.187	31238.18
445.394	32417.81
445.6	32366.61
445.807	35479.52
446.013	33841.15
446.22	34316.28
446.426	36065.24
446.633	36153.3
446.839	37367.75
447.046	35725.28
447.252	37857.21
447.459	37885.89
447.665	37687.23
447.871	39348.14
448.078	40753.04
448.284	39176.11
448.491	40099.74
448.697	41541.51
448.903	42477.43
449.11	42747.76
449.316	41342.86
449.522	42512.25
449.728	43685.73
449.935	43978.59
450.141	43618.15
450.347	44382.04
450.553	43669.35
450.76	44269.4
450.966	45961.03
451.172	44605.27
451.378	46108.48
451.584	45418.31
451.791	46241.6
451.997	46440.25
452.203	47003.44
452.409	46899
452.615	46686.01
452.821	44855.12
453.027	44711.77
453.233	46821.17
453.44	45416.27
453.646	45811.52
453.852	46085.95
454.058	46868.28
454.264	45121.36
454.47	46004.03
454.676	45002.58
454.882	46384.96
455.088	42803.06
455.294	43618.15
455.5	43820.9
455.705	44498.78
455.911	42678.13
456.117	41846.66
456.323	41170.83
456.529	39192.49
456.735	40898.45
456.941	39847.84
457.147	38903.73
457.352	37980.09
457.558	37451.72
457.764	37590.98
457.97	36759.5
458.176	36208.6
458.381	36018.14
458.587	34160.63
458.793	34062.33
458.999	32354.32
459.204	34711.53
459.41	33908.73
459.616	31930.39
459.821	32055.32
460.027	31461.41
460.233	31373.35
460.438	29317.18
460.644	29904.95
460.85	28305.49
461.055	28076.12
461.261	27842.65
461.466	26085.49
461.672	24969.35
461.878	26984.55
462.083	25213.06
462.289	24795.27
462.494	24539.27
462.7	23488.67
462.905	22778.02
463.111	23640.22
463.316	23730.33
463.522	23093.41
463.727	22814.88
463.932	23017.63
464.138	22859.94
464.343	23279.77
464.549	22223.02
464.754	22960.29
464.959	22773.92
465.165	22323.37
465.37	21512.38
465.575	21074.11
465.781	22089.9
465.986	22126.77
466.191	21414.07
466.397	20754.63
466.602	20211.92
466.807	20607.17
467.012	20644.04
467.218	20621.51
467.423	20191.44
467.628	20478.15
467.833	21088.45
468.038	20166.86
468.244	19880.14
468.449	20660.42
468.654	20074.7
468.859	19966.16
469.064	19871.95
469.269	18839.78
469.474	19026.14
469.679	19575
469.885	19003.61
470.09	19103.96
470.295	18999.52
470.5	18557.16
470.705	18587.88
470.91	18145.52
471.115	17944.81
471.32	18569.44
471.525	18112.75
471.73	18063.6
471.935	17805.55
472.139	17330.42
472.344	17320.18
472.549	17438.97
472.754	16955.65
472.959	16646.4
473.164	16390.41
473.369	16130.31
473.574	16982.27
473.778	16584.96
473.983	16324.87
474.188	16390.41
474.393	15429.91
474.598	15739.15
474.802	15579.41
475.007	15522.07
475.212	15626.51
475.417	15040.79
475.621	14911.77
475.826	14975.26
476.031	14594.34
476.235	14266.66
476.44	14633.25
476.645	14340.39
476.849	14305.57
477.054	14131.5
477.259	13920.56
477.463	13814.06
477.668	13664.56
477.872	13676.85
478.077	13568.3
478.282	13005.11
478.486	13160.76
478.691	12915
478.895	13140.28
479.1	12767.55
479.304	12945.72
479.509	12407.11
479.713	12775.74
479.918	12507.46
480.122	12382.53
480.326	12491.07
480.531	12267.84
480.735	12294.47
480.94	12081.48
481.144	12521.79
481.348	11942.22
481.553	12147.01
481.757	11936.07
481.961	11985.23
482.166	12237.13
482.37	11997.51
482.574	11903.31
482.778	12038.47
482.983	12216.65
483.187	11985.23
483.391	12042.57
483.595	11766.09
483.8	11696.46
484.004	11989.32
484.208	12149.06
484.412	12020.04
484.616	11946.31
484.821	12132.68
485.025	11833.68
485.229	12054.86
485.433	11608.4
485.637	11874.63
485.841	11641.17
486.045	11876.68
486.249	11829.58
486.453	11784.52
486.657	11958.6
486.861	11977.03
487.065	11616.59
487.269	12065.1
487.473	11897.16
487.677	11977.03
487.881	12061
488.085	11835.72
488.289	11919.69
488.493	11686.22
488.697	12063.05
488.901	11893.07
489.105	11704.65
489.309	12132.68
489.512	12095.82
489.716	12040.52
489.92	12151.11
490.124	11950.41
490.328	12157.25
490.531	12343.62
490.735	12216.65
490.939	12202.31
491.143	12278.08
491.346	12151.11
491.55	12314.95
491.754	12296.52
491.958	12423.49
492.161	12304.71
492.365	12513.6
492.569	12521.79
492.772	12511.55
492.976	12605.76
493.18	12724.54
493.383	13031.74
493.587	13119.8
493.79	12880.19
493.994	12726.59
494.197	13060.41
494.401	13199.67
494.605	13060.41
494.808	13347.12
495.012	13480.24
495.215	13300.02
495.419	13719.85
495.622	13443.38
495.825	13824.3
496.029	13836.59
496.232	14125.35
496.436	13916.46
496.639	14278.95
496.843	14395.68
497.046	14749.98
497.249	14698.78
497.453	14637.34
497.656	14915.87
497.859	15114.52
498.063	14926.11
498.266	15376.66
498.469	15376.66
498.673	15423.76
498.876	15704.34
499.079	15921.42
499.282	16083.21
499.485	16204.04
499.689	16199.94
499.892	16699.65
500.095	16607.49
500.298	17178.87
500.501	16853.25
500.705	17299.7
500.908	17557.75
501.111	17596.66
501.314	17936.62
501.517	18045.16
501.72	18258.15
501.923	18438.37
502.126	18811.1
502.329	18989.28
502.532	18888.93
502.735	19060.96
502.938	19376.34
503.141	19654.87
503.344	20013.26
503.547	20019.41
503.75	20390.09
503.953	20420.81
504.156	20691.14
504.359	20801.73
504.562	20916.42
504.765	21418.17
504.968	21582.01
505.17	21588.15
505.373	21893.3
505.576	22333.61
505.779	22216.88
505.982	22538.41
506.185	23113.89
506.387	23199.9
506.59	23494.81
506.793	23926.93
506.996	23601.3
507.198	24240.27
507.401	24144.02
507.604	24561.8
507.807	25102.46
508.009	25350.27
508.212	25327.74
508.415	25487.48
508.617	25866.36
508.82	26032.24
509.022	26038.39
509.225	26687.59
509.428	26998.88
509.63	27113.57
509.833	27148.39
510.035	28047.44
510.238	28029.01
510.44	27875.41
510.643	28418.13
510.845	28719.18
511.048	28612.68
511.25	29276.23
511.453	29227.07
511.655	30046.26
511.858	29943.86
512.06	30033.97
512.262	30431.28
512.465	30425.14
512.667	31156.26
512.87	31219.75
513.072	31350.82
513.274	32172.05
513.477	32368.66
513.679	32817.16
513.881	32897.03
514.084	33243.14
514.286	33406.98
514.488	33517.57
514.69	34248.69
514.893	34799.6
515.095	34787.31
515.297	35256.29
515.499	35117.03
515.701	35747.81
515.904	36048.86
516.106	35674.08
516.308	36556.75
516.51	36927.44
516.712	37038.03
516.914	37181.38
517.116	38045.63
517.318	37863.36
517.52	38219.7
517.722	38741.94
517.925	38821.81
518.127	39202.73
518.329	39432.1
518.531	38873.01
518.733	40443.8
518.935	40458.13
519.136	40294.3
519.338	41099.15
519.54	41090.96
519.742	41576.33
519.944	41756.55
520.146	42289.02
520.348	42467.19
520.55	42848.11
520.752	43140.97
520.954	43646.82
521.155	43249.52
521.357	44109.66
521.559	44539.74
521.761	45373.26
521.963	44851.03
522.164	45186.89
522.366	45287.24
522.568	45735.75
522.77	45950.79
522.971	46882.61
523.173	46452.54
523.375	46571.32
523.576	46534.46
523.778	46819.13
523.98	47458.09
524.181	47288.11
524.383	47734.57
524.584	48000.8
524.786	48762.65
524.988	48332.57
525.189	49155.86
525.391	49147.67
525.592	49485.58
525.794	49340.18
525.995	49876.74
526.197	49616.65
526.398	49999.62
526.6	50462.46
526.801	50476.8
527.003	50595.58
527.204	50597.63
527.406	51072.76
527.607	50806.52
527.808	50982.65
528.01	50833.14
528.211	50988.79
528.412	51850.98
528.614	51914.47
528.815	51300.08
529.016	52149.99
529.218	51965.67
529.419	52182.76
529.62	52037.35
529.822	52362.98
530.023	52330.21
530.224	52231.91
530.425	52430.56
530.626	51998.44
530.828	52098.79
531.029	52950.74
531.23	52057.83
531.431	52457.18
531.632	52702.94
531.833	53087.96
532.035	52727.52
532.236	52958.94
532.437	53114.58
532.638	52960.98
532.839	53569.23
533.04	53352.15
533.241	52707.04
533.442	54007.5
533.643	53622.48
533.844	53309.14
534.045	53186.26
534.246	52733.66
534.447	53464.78
534.648	53049.05
534.849	53696.2
535.05	52932.31
535.251	53419.73
535.451	53690.06
535.652	53479.12
535.853	53085.91
536.054	53491.41
536.255	53081.81
536.456	53163.73
536.657	53849.8
536.857	53407.44
537.058	52846.3
537.259	53120.73
537.46	53047
537.66	53436.11
537.861	53530.32
538.062	53302.99
538.263	53317.33
538.463	53047
538.664	53399.25
538.865	53620.43
539.065	53612.24
539.266	53057.24
539.466	53933.77
539.667	53167.83
539.868	53716.68
540.068	53276.37
540.269	53202.64
540.469	53602
540.67	53292.75
540.87	53352.15
541.071	53229.27
541.271	53427.92
541.472	52952.79
541.672	52895.45
541.873	53161.68
542.073	52297.44
542.274	53511.89
542.474	53044.95
542.675	52768.47
542.875	53415.63
543.075	53028.57
543.276	52758.23
543.476	53036.76
543.676	52506.33
543.877	52862.68
544.077	52985.56
544.277	52868.83
544.478	52774.62
544.678	52969.18
544.878	52498.14
545.078	53071.57
545.279	52434.66
545.479	52623.07
545.679	52993.75
545.879	52866.78
546.079	53010.14
546.28	52928.22
546.48	52475.62
546.68	52627.16
546.88	52848.35
547.08	52524.77
547.28	52739.8
547.48	52334.31
547.68	52635.36
547.88	52258.53
548.081	53350.1
548.281	52692.7
548.481	52072.17
548.681	53073.62
548.881	52643.55
549.081	52461.28
549.28	52379.36
549.48	52782.81
549.68	52674.27
549.88	52606.69
550.08	52412.13
550.28	52520.67
550.48	52649.69
550.68	52680.41
550.88	51994.34
551.08	52416.22
551.279	52442.85
551.479	52215.52
551.679	52018.92
551.879	52023.01
552.079	52608.73
552.278	52387.55
552.478	52410.08
552.678	52293.35
552.878	52209.38
553.077	52336.35
553.277	51611.37
553.477	52893.4
553.676	52066.02
553.876	52270.82
554.076	52100.84
554.275	51445.49
554.475	51896.04
554.674	52557.53
554.874	51883.75
555.074	51594.99
555.273	51916.52
555.473	52487.9
555.672	51769.07
555.872	51730.15
556.071	51857.13
556.271	51805.93
556.47	51767.02
556.67	50898.68
556.869	51226.35
557.068	51773.16
557.268	51083
557.467	51273.46
557.667	51486.45
557.866	51443.44
558.065	51621.61
558.265	51195.63
558.464	51171.06
558.663	51527.41
558.863	50857.72
559.062	51660.52
559.261	50685.69
559.461	51117.81
559.66	50700.03
559.859	50974.45
560.058	50351.87
560.258	51224.31
560.457	50523.9
560.656	50855.67
560.855	50544.38
561.054	50536.19
561.253	49719.05
561.453	50222.85
561.652	50503.42
561.851	50454.27
562.05	50392.83
562.249	49905.41
562.448	50231.04
562.647	50177.79
562.846	49688.33
563.045	50212.61
563.244	49139.47
563.443	50341.63
563.642	49243.92
563.841	49377.04
564.04	49442.57
564.239	49948.42
564.438	49053.46
564.637	49567.5
564.836	49387.28
565.035	48858.9
565.234	49151.76
565.432	48893.72
565.631	49010.45
565.83	48873.24
566.029	48903.96
566.228	48594.71
566.427	48318.24
566.625	48160.55
566.824	48125.73
567.023	48477.98
567.222	47347.5
567.42	48541.47
567.619	47753
567.818	48434.97
568.016	47519.53
568.215	47769.38
568.414	47470.38
568.612	47871.78
568.811	47410.99
569.01	47279.92
569.208	47109.94
569.407	47378.22
569.605	47179.57
569.804	47038.26
570.002	46798.65
570.201	47048.5
570.4	46518.07
570.598	46694.2
570.797	46532.41
570.995	46554.94
571.193	45782.85
571.392	46645.05
571.59	46356.28
571.789	46233.41
571.987	46092.1
572.186	45987.65
572.384	45277.01
572.582	45756.23
572.781	45868.87
572.979	44889.94
573.177	45221.71
573.376	45535.05
573.574	44932.95
573.772	45358.92
573.971	45102.93
574.169	44576.6
574.367	44674.9
574.565	44660.57
574.763	44439.39
574.962	44611.42
575.16	44029.79
575.358	44650.33
575.556	43868
575.754	44449.63
575.952	43738.98
576.151	43894.63
576.349	43591.53
576.547	43513.7
576.745	43450.22
576.943	43648.87
577.141	43683.69
577.339	43489.13
577.537	43169.65
577.735	42985.33
577.933	42909.55
578.131	43157.36
578.329	42518.39
578.527	42829.68
578.725	42200.96
578.923	42663.8
579.121	42035.07
579.319	42463.1
579.516	41713.54
579.714	42082.17
579.912	41828.23
580.11	41832.32
580.308	42078.08
580.506	41641.86
580.704	41498.5
580.901	41574.28
581.099	41787.27
581.297	41414.54
581.495	41234.31
581.692	41154.44
581.89	40681.36
582.088	41242.51
582.285	40378.26
582.483	40523.67
582.681	40546.2
582.878	40664.98
583.076	40361.88
583.274	40329.11
583.471	40112.03
583.669	40087.45
583.866	39761.83
584.064	40036.25
584.262	39620.52
584.459	40001.44
584.657	39415.72
584.854	39587.75
585.052	38387.64
585.249	39116.72
585.447	39102.38
585.644	38848.43
585.841	39260.07
586.039	39319.46
586.236	38199.23
586.434	38678.45
586.631	38195.13
586.828	38229.94
587.026	38440.89
587.223	38174.65
587.42	37816.25
587.618	38064.06
587.815	37464
588.012	37738.43
588.21	37382.09
588.407	37769.15
588.604	37449.67
588.801	37015.5
588.999	37246.92
589.196	36890.57
589.393	37060.55
589.59	37490.63
589.787	36972.49
589.984	36716.5
590.182	36736.98
590.379	36644.82
590.576	36120.54
590.773	36534.23
590.97	36188.12
591.167	36440.02
591.364	35934.17
591.561	35852.25
591.758	35395.56
591.955	35647.46
592.152	36001.75
592.349	35282.92
592.546	35641.31
592.743	35616.74
592.94	34910.19
593.137	35055.59
593.334	35399.65
593.531	34375.67
593.727	34904.04
593.924	35164.14
594.121	34359.28
594.318	34873.32
594.515	34009.08
594.712	34564.08
594.908	34185.21
595.105	34564.08
595.302	33873.92
595.499	34109.43
595.696	33507.33
595.892	33714.17
596.089	33937.4
596.286	33538.05
596.482	33206.28
596.679	33658.88
596.876	33323.01
597.072	33173.51
597.269	33359.87
597.466	32667.66
597.662	32745.48
597.859	32739.34
598.055	32882.7
598.252	32544.78
598.448	32710.67
598.645	32407.57
598.841	31961.11
599.038	32313.36
599.234	32380.95
599.431	31680.54
599.627	31633.44
599.824	31907.87
600.02	31694.88
600.217	31799.32
600.413	31342.63
600.609	31475.74
600.806	31017
601.002	31447.07
601.198	31322.15
601.395	30951.46
601.591	30834.73
601.787	30789.67
601.984	30881.83
602.18	30904.36
602.376	30400.56
602.572	30550.06
602.769	30541.87
602.965	30240.82
603.161	30507.05
603.357	30433.33
603.553	30023.73
603.75	30146.61
603.946	29685.82
604.142	29814.84
604.338	29528.13
604.534	29763.64
604.73	29352
604.926	29368.38
605.122	29622.33
605.318	29128.77
605.514	28536.91
605.71	28864.58
605.906	29237.31
606.102	29206.59
606.298	28840.01
606.494	28868.68
606.69	28958.79
606.886	28893.26
607.082	28317.78
607.278	28760.14
607.474	28184.66
607.67	28627.02
607.866	27965.53
608.062	28422.22
608.257	28014.68
608.453	28217.43
608.649	28203.09
608.845	27914.33
609.041	28053.59
609.236	27979.86
609.432	27695.19
609.628	27687
609.824	27762.78
610.019	27830.36
610.215	27279.46
610.411	27537.5
610.606	27443.29
610.802	27496.54
610.998	27103.33
611.193	27609.18
611.389	27150.43
611.584	27304.03
611.78	27041.89
611.976	27344.99
612.171	26957.92
612.367	26937.44
612.562	27013.22
612.758	26081.39
612.953	26636.39
613.149	26712.17
613.344	26476.65
613.539	27052.13
613.735	26542.19
613.93	26644.59
614.126	26544.23
614.321	26509.42
614.517	26751.08
614.712	26298.48
614.907	26388.59
615.103	26796.14
615.298	26374.25
615.493	26421.36
615.688	25815.16
615.884	26478.7
616.079	25634.94
616.274	25960.56
616.47	25567.35
616.665	26017.91
616.86	25788.53
617.055	25768.05
617.25	25804.92
617.445	25753.72
617.641	25346.17
617.836	25690.23
618.031	25178.24
618.226	25712.76
618.421	25229.44
618.616	25256.06
618.811	25051.27
619.006	25327.74
619.201	24529.03
619.396	24606.86
619.591	24506.51
619.786	24846.47
619.981	24248.46
620.176	24516.75
620.371	24150.16
620.566	24418.44
620.761	24258.7
620.956	24336.52
621.151	23705.75
621.346	23877.78
621.541	23691.41
621.735	23877.78
621.93	23578.78
622.125	23273.63
622.32	23128.22
622.515	23040.16
622.709	22720.68
622.904	22954.15
623.099	22737.06
623.294	22802.6
623.488	22417.58
623.683	22466.73
623.878	22196.4
624.072	22329.52
624.267	22276.27
624.462	21907.63
624.656	21983.41
624.851	21815.48
625.046	21764.28
625.24	21713.08
625.435	21635.25
625.629	21303.48
625.824	21147.84
626.018	21029.06
626.213	20582.6
626.407	21170.36
626.602	20818.11
626.796	20734.15
626.991	20793.54
627.185	20529.35
627.38	20308.17
627.574	20193.48
627.768	19929.3
627.963	20066.51
628.157	19957.97
628.352	19882.19
628.546	19679.44
628.74	20125.9
628.935	19292.38
629.129	19310.81
629.323	19065.05
629.517	19091.68
629.712	18991.33
629.906	19017.95
630.1	18745.57
630.294	18704.61
630.489	18489.57
630.683	18735.33
630.877	18766.05
631.071	18508.01
631.265	18487.53
631.459	18381.03
631.653	18202.86
631.848	18206.95
632.042	17993.97
632.236	17688.82
632.43	17778.93
632.624	17748.21
632.818	17844.46
633.012	17436.92
633.206	17531.12
633.4	17334.52
633.594	17107.19
633.788	17287.42
633.982	17146.11
634.176	17176.83
634.369	16929.02
634.563	16781.57
634.757	16736.51
634.951	16836.86
635.145	16513.28
635.339	16756.99
635.533	16605.44
635.726	16140.55
635.92	16021.77
636.114	16083.21
636.308	16156.94
636.501	16230.66
636.695	16126.22
636.889	15796.49
637.083	15700.24
637.276	15741.2
637.47	15532.31
637.664	15540.5
637.857	15644.95
638.051	15603.99
638.244	15198.49
638.438	15376.66
638.632	15128.86
638.825	14850.33
639.019	14819.61
639.212	14792.99
639.406	14936.35
639.599	14694.69
639.793	14842.14
639.986	14698.78
640.18	14450.98
640.373	14534.95
640.567	14184.74
640.76	14149.93
640.954	14250.28
641.147	14246.18
641.34	13855.02
641.534	14151.98
641.727	13705.52
641.92	13779.25
642.114	13685.04
642.307	13537.59
642.5	13668.66
642.694	13261.11
642.887	13394.23
643.08	13609.26
643.273	13414.71
643.467	13263.16
643.66	13175.09
643.853	13197.62
644.046	12859.71
644.239	12988.73
644.432	12763.45
644.626	12955.96
644.819	12650.81
645.012	12536.13
645.205	12616
645.398	12734.78
645.591	12484.93
645.784	12532.03
645.977	12327.24
646.17	12300.61
646.363	12220.74
646.556	12097.86
646.749	12052.81
646.942	12278.08
647.135	11800.91
647.328	11886.92
647.521	11839.82
647.714	11798.86
647.907	11657.55
648.099	11741.52
648.292	11858.25
648.485	11393.36
648.678	11442.51
648.871	11471.18
649.064	11317.59
649.256	11432.27
649.449	11069.78
649.642	11129.17
649.835	11223.38
650.027	11172.18
650.22	11037.02
650.413	10967.38
650.605	10907.99
650.798	10774.88
650.991	10873.18
651.183	10836.31
651.376	10551.65
651.568	10592.61
651.761	10443.1
651.954	10414.43
652.146	10410.34
652.339	10598.75
652.531	10207.59
652.724	10248.55
652.916	9945.45
653.109	10309.99
653.301	10099.05
653.494	10287.46
653.686	10051.94
653.879	9855.34
654.071	9945.45
654.263	9619.82
654.456	9789.8
654.648	9808.23
654.84	9724.27
655.033	9650.54
655.225	9531.76
655.417	9640.3
655.61	9349.49
655.802	9507.18
655.994	9167.22
656.186	9580.91
656.379	9232.76
656.571	9412.98
656.763	9187.7
656.955	9281.91
657.148	9218.42
657.34	9167.22
657.532	9032.05
657.724	8888.7
657.916	9013.62
658.108	9214.32
658.3	8843.64
658.492	8956.28
658.684	8849.78
658.876	8702.33
659.068	8860.02
659.26	8558.97
659.452	8706.43
659.644	8700.28
659.836	8479.1
660.028	8589.69
660.22	8141.19
660.412	8290.69
660.604	8173.96
660.796	8311.17
660.988	8323.46
661.18	8182.15
661.372	8241.54
661.563	8137.09
661.755	8016.26
661.947	7985.54
662.139	7954.82
662.331	7860.62
662.522	7958.92
662.714	7893.38
662.906	7651.72
663.097	7747.98
663.289	7813.51
663.481	7602.57
663.673	7723.4
663.864	7600.52
664.056	7606.67
664.247	7481.74
664.439	7395.73
664.631	7405.97
664.822	7512.46
665.014	7471.5
665.205	7416.21
665.397	7362.96
665.588	7303.57
665.78	7289.23
665.971	7115.16
666.163	7278.99
666.354	7047.57
666.546	7047.57
666.737	6959.51
666.929	6857.11
667.12	7012.76
667.311	6842.78
667.503	6887.83
667.694	6965.65
667.885	6867.35
668.077	6750.62
668.268	6848.92
668.459	6830.49
668.651	6511
668.842	6674.84
669.033	6539.68
669.224	6693.27
669.416	6713.75
669.607	6586.78
669.798	6498.72
669.989	6523.29
670.18	6603.16
670.371	6578.59
670.563	6617.5
670.754	6324.64
670.945	6416.8
671.136	6492.57
671.327	6384.03
671.518	6422.94
671.709	6349.22
671.9	6281.63
672.091	6318.5
672.282	6179.23
672.473	6175.14
672.664	6250.91
672.855	6132.13
673.046	6156.71
673.237	6123.94
673.428	6107.55
673.619	6101.41
673.809	6052.26
674	5988.77
674.191	6158.75
674.382	6039.97
674.573	5933.48
674.764	5826.98
674.954	5831.08
675.145	5865.89
675.336	5761.45
675.527	5706.15
675.717	5804.46
675.908	5562.8
676.099	5757.35
676.289	5673.39
676.48	5779.88
676.671	5613.99
676.861	5706.15
677.052	5652.91
677.243	5597.61
677.433	5710.25
677.624	5835.17
677.814	5634.47
678.005	5493.16
678.195	5697.96
678.386	5542.32
678.576	5474.73
678.767	5544.36
678.957	5364.14
679.148	5476.78
679.338	5466.54
679.529	5460.4
679.719	5306.8
679.909	5507.5
680.1	5298.61
680.29	5222.83
680.481	5337.52
680.671	5286.32
680.861	5265.84
681.052	5126.58
681.242	5343.66
681.432	5314.99
681.622	5130.67
681.813	5261.74
682.003	5249.46
682.193	5130.67
682.383	5167.54
682.573	5157.3
682.764	5126.58
682.954	5214.64
683.144	5091.76
683.334	5009.84
683.524	5067.19
683.714	5122.48
683.904	4952.5
684.094	5079.47
684.284	4897.21
684.474	4960.69
684.664	5054.9
684.854	4878.77
685.044	4929.97
685.234	4897.21
685.424	4798.9
685.614	4977.08
685.804	4788.66
685.994	4889.01
686.184	5091.76
686.374	4735.42
686.564	4680.12
686.753	4794.81
686.943	4811.19
687.133	4630.97
687.323	4745.66
687.513	4637.11
687.702	4639.16
687.892	4561.34
688.082	4766.14
688.272	4839.86
688.461	4637.11
688.651	4581.82
688.841	4483.52
689.03	4581.82
689.22	4364.73
689.41	4456.89
689.599	4495.8
689.789	4458.94
689.979	4379.07
690.168	4393.4
690.358	4305.34
690.547	4510.14
690.737	4403.64
690.926	4293.05
691.116	4311.49
691.305	4467.13
691.495	4331.97
691.684	4110.79
691.874	4243.9
692.063	4209.09
692.252	4123.07
692.442	4157.89
692.631	4106.69
692.82	4248
693.01	4100.55
693.199	4221.38
693.388	3873.22
693.578	4082.11
693.767	4106.69
693.956	4032.96
694.146	4067.78
694.335	3973.57
694.524	3961.28
694.713	4078.02
694.902	4028.87
695.092	3848.65
695.281	4000.19
695.47	3779.01
695.659	3905.99
695.848	3897.8
696.037	3926.47
696.226	3789.25
696.415	3766.73
696.604	3924.42
696.793	3862.98
696.982	3772.87
697.171	3887.56
697.36	3817.93
697.549	3795.4
697.738	3875.27
697.927	3772.87
698.116	3740.1
698.305	3776.97
698.494	3717.58
698.683	3791.3
698.872	3844.55
699.061	3705.29
699.25	3731.91
699.438	3684.81
699.627	3707.34
699.816	3629.51
700.005	3768.77
700.193	3666.38
700.382	3649.99
700.571	3656.14
700.76	3584.46
700.948	3547.59
701.137	3709.38
701.326	3547.59
701.514	3541.45
701.703	3662.28
701.892	3553.74
702.08	3535.31
702.269	3432.91
702.457	3445.2
702.646	3457.48
702.834	3635.66
703.023	3490.25
703.212	3504.59
703.4	3449.29
703.589	3385.8
703.777	3578.31
703.965	3410.38
704.154	3248.59
704.342	3373.52
704.531	3445.2
704.719	3396.04
704.907	3516.87
705.096	3406.28
705.284	3457.48
705.472	3463.63
705.661	3398.09
705.849	3316.17
706.037	3383.76
706.226	3355.08
706.414	3314.13
706.602	3365.32
706.79	3437
706.979	3293.65
707.167	3361.23
707.355	3269.07
707.543	3226.06
707.731	3412.43
707.919	3281.36
708.107	3250.64
708.296	3379.66
708.484	3152.34
708.672	3305.93
708.86	3285.45
709.048	3246.54
709.236	3131.86
709.424	3334.61
709.612	3090.9
709.8	3060.18
709.988	3168.72
710.176	3160.53
710.364	3133.9
710.551	3123.66
710.739	3082.7
710.927	3144.14
711.115	3197.39
711.303	3140.05
711.491	3199.44
711.679	3144.14
711.866	3097.04
712.054	2984.4
712.242	3170.77
712.43	3064.27
712.617	3047.89
712.805	3029.46
712.993	3062.23
713.181	3008.98
713.368	3160.53
713.556	3037.65
713.744	3119.57
713.931	3039.7
714.119	3027.41
714.306	2906.58
714.494	3054.03
714.682	2879.96
714.869	3037.65
715.057	2945.49
715.244	3035.6
715.432	2957.78
715.619	2955.73
715.807	2972.11
715.994	2984.4
716.182	2945.49
716.369	2865.62
716.556	2787.8
716.744	2951.63
716.931	2892.24
717.119	2922.96
717.306	2955.73
717.493	2867.67
717.681	2882
717.868	2771.41
718.055	2849.24
718.242	2816.47
718.43	2963.92
718.617	2732.5
718.804	2910.68
718.991	2802.13
719.179	2841.04
719.366	2771.41
719.553	2681.3
719.74	2787.8
719.927	2781.65
720.114	2812.37
720.301	2779.61
720.488	2841.04
720.676	2812.37
720.863	2773.46
721.05	2720.21
721.237	2746.84
721.424	2736.6
721.611	2615.77
721.798	2759.13
721.985	2795.99
722.172	2742.74
722.358	2671.06
722.545	2656.73
722.732	2769.37
722.919	2693.59
723.106	2638.3
723.293	2626.01
723.48	2730.45
723.667	2697.69
723.853	2642.39
724.04	2701.78
724.227	2537.95
724.414	2757.08
724.6	2626.01
724.787	2611.67
724.974	2542.04
725.161	2626.01
725.347	2468.31
725.534	2632.15
725.72	2492.89
725.907	2646.49
726.094	2662.87
726.28	2462.17
726.467	2529.75
726.653	2421.21
726.84	2480.6
727.027	2632.15
727.213	2521.56
727.4	2535.9
727.586	2564.57
727.773	2406.88
727.959	2521.56
728.145	2607.58
728.332	2558.42
728.518	2349.53
728.705	2509.27
728.891	2585.05
729.077	2408.92
729.264	2435.55
729.45	2423.26
729.636	2449.88
729.823	2327
730.009	2453.98
730.195	2570.71
730.382	2494.94
730.568	2324.96
730.754	2394.59
730.94	2419.16
731.126	2521.56
731.313	2380.25
731.499	2333.15
731.685	2462.17
731.871	2429.4
732.057	2554.33
732.243	2402.78
732.429	2437.59
732.615	2501.08
732.801	2415.07
732.987	2269.66
733.173	2329.05
733.359	2372.06
733.545	2304.48
733.731	2327
733.917	2347.48
734.103	2347.48
734.289	2359.77
734.475	2284
734.661	2327
734.847	2376.16
735.033	2253.28
735.219	2236.89
735.404	2238.94
735.59	2294.24
735.776	2275.81
735.962	2208.22
736.148	2269.66
736.333	2277.85
736.519	2204.13
736.705	2236.89
736.89	2247.13
737.076	2167.26
737.262	2216.41
737.447	2298.33
737.633	2255.33
737.819	2238.94
738.004	2118.11
738.19	2195.93
738.375	2091.49
738.561	2222.56
738.747	2173.41
738.932	2212.32
739.118	2138.59
739.303	2103.78
739.489	2154.98
739.674	2169.31
739.859	2116.06
740.045	2138.59
740.23	2120.16
740.416	2105.82
740.601	2249.18
740.786	2062.82
740.972	2118.11
741.157	2028
741.342	2118.11
741.528	2079.2
741.713	2101.73
741.898	2107.87
742.084	1966.56
742.269	2097.63
742.454	1970.66
742.639	1991.14
742.824	1843.68
743.01	2021.86
743.195	1894.88
743.38	2017.76
743.565	1954.27
743.75	1941.99
743.935	1898.98
744.12	1872.36
744.305	1919.46
744.49	1896.93
744.675	2007.52
744.86	1831.4
745.045	1884.64
745.23	1845.73
745.415	1886.69
745.6	1810.92
745.785	1884.64
745.97	1880.55
746.155	1835.49
746.34	1868.26
746.525	1950.18
746.71	1835.49
746.895	1851.88
747.079	1833.44
747.264	1669.61
747.449	1747.43
747.634	1774.05
747.819	1681.89
748.003	1761.77
748.188	1567.21
748.373	1718.76
748.557	1735.14
748.742	1685.99
748.927	1714.66
749.111	1710.57
749.296	1688.04
749.481	1692.13
749.665	1665.51
749.85	1661.41
750.034	1599.98
750.219	1597.93
750.404	1585.64
750.588	1550.82
750.773	1554.92
750.957	1608.17
751.141	1669.61
751.326	1597.93
751.51	1528.3
751.695	1524.2
751.879	1458.67
752.064	1559.02
752.248	1403.37
752.432	1505.77
752.617	1487.34
752.801	1606.12
752.985	1507.82
753.17	1419.75
753.354	1438.19
753.538	1386.99
753.722	1409.51
753.907	1386.99
754.091	1470.95
754.275	1403.37
754.459	1456.62
754.643	1286.64
754.828	1354.22
755.012	1284.59
755.196	1206.77
755.38	1325.55
755.564	1241.58
755.748	1210.86
755.932	1257.96
756.116	1278.44
756.3	1262.06
756.484	1346.03
756.668	1231.34
756.852	1272.3
757.036	1268.2
757.22	1233.39
757.404	1176.05
757.588	1245.68
757.772	1221.1
757.956	1217.01
758.14	1141.23
758.323	1206.77
758.507	1182.19
758.691	1102.32
758.875	1171.95
759.059	1190.38
759.242	1079.79
759.426	1196.53
759.61	1161.71
759.794	1049.07
759.977	1110.51
760.161	1137.13
760.345	1038.83
760.528	1102.32
760.712	1104.37
760.895	1120.75
761.079	1114.61
761.263	1090.03
761.446	1083.89
761.63	1053.17
761.813	1092.08
761.997	1081.84
762.18	1071.6
762.364	1018.35
762.547	918
762.731	938.48
762.914	1047.02
763.098	1038.83
763.281	958.96
763.464	1030.64
763.648	1012.21
763.831	1030.64
764.015	989.68
764.198	946.67
764.381	932.34
764.564	977.39
764.748	889.33
764.931	928.24
765.114	948.72
765.297	981.49
765.481	975.35
765.664	932.34
765.847	926.19
766.03	987.63
766.213	891.38
766.397	860.66
766.58	911.86
766.763	954.87
766.946	973.3
767.129	874.99
767.312	883.19
767.495	936.43
767.678	909.81
767.861	948.72
768.044	920.05
768.227	918
768.41	915.95
768.593	879.09
768.776	846.32
768.959	850.42
769.142	899.57
769.324	858.61
769.507	862.71
769.69	864.75
769.873	819.7
770.056	889.33
770.239	745.97
770.421	815.6
770.604	801.27
770.787	819.7
770.97	815.6
771.152	764.4
771.335	766.45
771.518	872.95
771.7	739.83
771.883	815.6
772.066	850.42
772.248	838.13
772.431	813.56
772.613	831.99
772.796	768.5
772.978	813.56
773.161	825.84
773.343	856.56
773.526	743.92
773.708	778.74
773.891	768.5
774.073	766.45
774.256	702.97
774.438	731.64
774.621	756.21
774.803	772.6
774.985	723.44
775.168	768.5
775.35	666.1
775.532	805.36
775.715	717.3
775.897	604.66
776.079	684.53
776.261	731.64
776.444	619
776.626	702.97
776.808	639.48
776.99	606.71
777.173	711.16
777.355	662.01
777.537	643.57
777.719	651.77
777.901	643.57
778.083	680.44
778.265	555.51
778.447	651.77
778.629	621.05
778.811	647.67
778.993	680.44
779.175	664.05
779.357	496.12
779.539	598.52
779.721	563.7
779.903	588.28
780.085	659.96
780.267	584.18
780.449	551.42
780.631	635.38
780.812	569.85
780.994	549.37
781.176	586.23
781.358	526.84
781.54	567.8
781.721	610.81
781.903	573.94
782.085	635.38
782.267	483.83
782.448	539.13
782.63	500.22
782.812	545.27
782.993	596.47
783.175	465.4
783.357	479.74
783.538	567.8
783.72	557.56
783.901	500.22
784.083	473.59
784.264	457.21
784.446	487.93
784.627	393.72
784.809	481.78
784.99	426.49
785.172	496.12
785.353	457.21
785.535	449.02
785.716	428.54
785.897	420.35
786.079	416.25
786.26	373.24
786.441	461.3
786.623	381.43
786.804	459.26
786.985	473.59
787.167	340.47
787.348	492.02
787.529	465.4
787.71	412.15
787.891	406.01
788.073	424.44
788.254	377.34
788.435	416.25
788.616	393.72
788.797	383.48
788.978	408.06
789.159	346.62
789.34	379.39
789.522	471.54
789.703	420.35
789.884	387.58
790.065	381.43
790.246	401.91
790.427	395.77
790.607	422.39
790.788	377.34
790.969	371.19
791.15	453.11
791.331	385.53
791.512	356.86
791.693	295.42
791.874	322.04
792.054	346.62
792.235	363
792.416	279.04
792.597	322.04
792.778	412.15
792.958	338.43
793.139	336.38
793.32	291.32
793.5	332.28
793.681	330.23
793.862	330.23
794.042	326.14
794.223	307.71
794.404	322.04
794.584	360.95
794.765	330.23
794.945	322.04
795.126	334.33
795.306	317.95
795.487	297.47
795.667	363
795.848	369.15
796.028	293.37
796.209	274.94
796.389	334.33
796.57	262.65
796.75	236.03
796.93	276.99
797.111	270.84
797.291	221.69
797.471	311.8
797.652	305.66
797.832	248.32
798.012	340.47
798.192	213.5
798.373	240.12
798.553	303.61
798.733	266.75
798.913	219.64
799.093	238.08
799.274	236.03
799.454	197.12
799.634	309.76
799.814	248.32
799.994	225.79
800.174	252.41
800.354	186.88
800.534	281.08
800.714	270.84
800.894	199.16
801.074	162.3
801.254	242.17
801.434	266.75
801.614	320
801.794	240.12
801.974	586.23
802.154	236.03
802.334	178.69
802.514	252.41
802.693	227.84
802.873	240.12
803.053	309.76
803.233	195.07
803.413	207.36
803.592	190.97
803.772	266.75
803.952	283.13
804.131	207.36
804.311	248.32
804.491	248.32
804.67	262.65
804.85	231.93
805.03	182.78
805.209	182.78
805.389	197.12
805.568	221.69
805.748	229.88
805.928	199.16
806.107	266.75
806.287	158.21
806.466	211.45
806.646	217.6
806.825	186.88
807.004	207.36
807.184	190.97
807.363	180.73
807.543	205.31
807.722	207.36
807.901	240.12
808.081	205.31
808.26	141.82
808.439	164.35
808.619	227.84
808.798	174.59
808.977	215.55
809.156	152.06
809.336	154.11
809.515	168.45
809.694	172.54
809.873	197.12
810.052	137.73
810.231	186.88
810.411	6.66
810.59	168.45
810.769	229.88
810.948	197.12
811.127	119.29
811.306	158.21
811.485	143.87
811.664	184.83
811.843	137.73
812.022	147.97
812.201	125.44
812.38	100.86
812.559	201.21
812.737	170.49
812.916	156.16
813.095	205.31
813.274	147.97
813.453	182.78
813.632	145.92
813.811	182.78
813.989	109.05
814.168	199.16
814.347	100.86
814.526	139.77
814.704	123.39
814.883	229.88
815.062	221.69
815.24	207.36
815.419	217.6
815.598	145.92
815.776	188.93
815.955	190.97
816.133	125.44
816.312	166.4
816.49	66.05
816.669	115.2
816.847	100.86
817.026	104.96
817.204	147.97
817.383	145.92
817.561	160.25
817.74	203.26
817.918	176.64
818.097	207.36
818.275	135.68
818.453	147.97
818.632	86.53
818.81	203.26
818.988	135.68
819.167	131.58
819.345	176.64
819.523	119.29
819.701	145.92
819.879	98.81
820.058	145.92
820.236	53.76
820.414	76.29
820.592	107.01
820.77	109.05
820.948	174.59
821.127	207.36
821.305	76.29
821.483	92.67
821.661	164.35
821.839	41.47
822.017	145.92
822.195	109.05
822.373	92.67
822.551	156.16
822.729	166.4
822.907	135.68
823.085	172.54
823.262	127.49
823.44	119.29
823.618	100.86
823.796	150.01
823.974	68.09
824.152	51.71
824.329	84.48
824.507	88.57
824.685	90.62
824.863	111.1
825.04	51.71
825.218	158.21
825.396	113.15
825.574	190.97
825.751	61.95
825.929	113.15
826.107	84.48
826.284	78.33
826.462	59.9
826.639	143.87
826.817	131.58
826.994	98.81
827.172	59.9
827.349	152.06
827.527	117.25
827.704	115.2
827.882	86.53
828.059	90.62
828.237	152.06
828.414	131.58
828.591	72.19
828.769	51.71
828.946	94.72
829.124	150.01
829.301	100.86
829.478	74.24
829.655	115.2
829.833	96.77
830.01	59.9
830.187	154.11
830.364	150.01
830.542	92.67
830.719	121.34
830.896	115.2
831.073	100.86
831.25	107.01
831.427	160.25
831.604	113.15
831.782	29.18
831.959	141.82
832.136	117.25
832.313	117.25
832.49	123.39
832.667	129.53
832.844	123.39
833.021	100.86
833.198	119.29
833.374	90.62
833.551	51.71
833.728	100.86
833.905	31.23
834.082	78.33
834.259	86.53
834.436	111.1
834.612	139.77
834.789	96.77
834.966	33.28
835.143	119.29
835.319	47.62
835.496	82.43
835.673	129.53
835.85	127.49
836.026	119.29
836.203	121.34
836.38	-30.21
836.556	123.39
836.733	104.96
836.909	125.44
837.086	158.21
837.262	72.19
837.439	57.86
837.616	98.81
837.792	86.53
837.968	80.38
838.145	70.14
838.321	115.2
838.498	29.18
838.674	14.85
838.851	135.68
839.027	51.71
839.203	74.24
839.38	76.29
839.556	78.33
839.732	125.44
839.909	137.73
840.085	57.86
840.261	57.86
840.437	131.58
840.614	51.71
840.79	94.72
840.966	156.16
841.142	70.14
841.318	80.38
841.494	61.95
841.671	78.33
841.847	80.38
842.023	78.33
842.199	37.38
842.375	43.52
842.551	29.18
842.727	94.72
842.903	119.29
843.079	-15.87
843.255	20.99
843.431	-3.58
843.607	-5.63
843.783	39.42
843.959	100.86
844.134	16.9
844.31	154.11
844.486	18.94
844.662	6.66
844.838	31.23
845.013	84.48
845.189	94.72
845.365	86.53
845.541	-1.54
845.716	0.51
845.892	76.29
846.068	14.85
846.244	154.11
846.419	125.44
846.595	25.09
846.77	25.09
846.946	47.62
847.122	25.09
847.297	66.05
847.473	74.24
847.648	12.8
847.824	82.43
847.999	-13.82
848.175	121.34
848.35	80.38
848.526	119.29
848.701	4.61
848.876	119.29
849.052	94.72
849.227	25.09
849.403	70.14
849.578	23.04
849.753	68.09
849.929	25.09
850.104	59.9
850.279	68.09
850.454	88.57
850.63	20.99
850.805	98.81
850.98	43.52
851.155	37.38
851.33	104.96
851.505	2.56
851.681	27.14
851.856	33.28
852.031	57.86
852.206	45.57
852.381	25.09
852.556	82.43
852.731	-5.63
852.906	45.57
853.081	84.48
853.256	10.75
853.431	31.23
853.606	16.9
853.781	53.76
853.956	-9.73
854.131	90.62
854.305	86.53
854.48	23.04
854.655	41.47
854.83	-1.54
855.005	47.62
855.18	109.05
855.354	147.97
855.529	49.66
855.704	20.99
855.879	64
856.053	61.95
856.228	49.66
856.403	-5.63
856.577	96.77
856.752	55.81
856.926	39.42
857.101	37.38
857.276	16.9
857.45	-26.11
857.625	16.9
857.799	-9.73
857.974	37.38
858.148	-32.26
858.323	39.42
858.497	-42.5
858.672	35.33
858.846	49.66
859.02	16.9
859.195	-1.54
859.369	14.85
859.543	18.94
859.718	78.33
859.892	78.33
860.066	53.76
860.241	12.8
860.415	-7.68
860.589	-26.11
860.763	76.29
860.938	76.29
861.112	-22.02
861.286	0.51
861.46	2.56
861.634	53.76
861.808	51.71
861.982	-9.73
862.157	29.18
862.331	-3.58
862.505	20.99
862.679	-1.54
862.853	59.9
863.027	33.28
863.201	94.72
863.375	-11.78
863.549	80.38
863.722	55.81
863.896	82.43
864.07	86.53
864.244	57.86
864.418	-11.78
864.592	90.62
864.766	82.43
864.939	66.05
865.113	27.14
865.287	55.81
865.461	47.62
865.634	43.52
865.808	-5.63
865.982	47.62
866.156	33.28
866.329	29.18
866.503	45.57
866.676	20.99
866.85	37.38
867.024	51.71
867.197	-62.98
867.371	117.25
867.544	82.43
867.718	37.38
867.891	43.52
868.065	66.05
868.238	43.52
868.412	33.28
868.585	4.61
868.759	16.9
868.932	141.82
869.105	-15.87
869.279	37.38
869.452	14.85
869.625	10.75
869.799	47.62
869.972	39.42
870.145	80.38
870.319	37.38
870.492	53.76
870.665	4.61
870.838	64
871.011	41.47
871.185	-42.5
871.358	0.51
871.531	-11.78
871.704	0.51
871.877	57.86
872.05	51.71
872.223	96.77
872.396	14.85
872.569	100.86
872.742	59.9
872.915	113.15
873.088	10.75
873.261	-32.26
873.434	-3.58
873.607	39.42
873.78	51.71
873.953	16.9
874.126	10.75
874.299	16.9
874.471	29.18
874.644	-17.92
874.817	107.01
874.99	57.86
875.163	37.38
875.335	31.23
875.508	74.24
875.681	45.57
875.853	18.94
876.026	-69.12
876.199	33.28
876.371	88.57
876.544	41.47
876.717	35.33
876.889	49.66
877.062	41.47
877.234	39.42
877.407	18.94
877.579	-24.06
877.752	53.76
877.924	31.23
878.097	76.29
878.269	88.57
878.442	39.42
878.614	68.09
878.786	31.23
878.959	0.51
879.131	80.38
879.303	-5.63
879.476	51.71
879.648	-26.11
879.82	61.95
879.993	41.47
880.165	-42.5
880.337	0.51
880.509	23.04
880.681	35.33
880.854	72.19
881.026	-15.87
881.198	82.43
881.37	35.33
881.542	4.61
881.714	16.9
881.886	6.66
882.058	59.9
882.23	-24.06
882.402	-24.06
882.574	33.28
882.746	76.29
882.918	-5.63
883.09	4.61
883.262	-79.36
883.434	64
883.606	0.51
883.778	10.75
883.95	41.47
884.122	12.8
884.293	82.43
884.465	-38.4
884.637	-7.68
884.809	-28.16
884.98	47.62
885.152	59.9
885.324	31.23
885.496	-30.21
885.667	-42.5
885.839	14.85
886.011	80.38
886.182	68.09
886.354	70.14
886.525	-38.4
886.697	12.8
886.869	29.18
887.04	53.76
887.212	12.8
887.383	94.72
887.555	6.66
887.726	8.7
887.897	-3.58
888.069	49.66
888.24	55.81
888.412	27.14
888.583	18.94
888.754	-17.92
888.926	-11.78
889.097	45.57
889.268	29.18
889.44	82.43
889.611	-22.02
889.782	-15.87
889.953	86.53
890.125	109.05
890.296	-34.3
890.467	66.05
890.638	39.42
890.809	-7.68
890.98	18.94
891.151	27.14
891.323	-9.73
891.494	8.7
891.665	-1.54
891.836	47.62
892.007	25.09
892.178	29.18
892.349	43.52
892.52	66.05
892.691	6.66
892.862	113.15
893.032	-17.92
893.203	0.51
893.374	29.18
893.545	57.86
893.716	-17.92
893.887	10.75
894.057	45.57
894.228	-19.97
894.399	61.95
894.57	4.61
894.74	8.7
894.911	-38.4
895.082	29.18
895.253	-13.82
895.423	-5.63
895.594	-11.78
895.764	33.28
895.935	57.86
896.106	-48.64
896.276	47.62
896.447	12.8
896.617	27.14
896.788	0.51
896.958	10.75
897.129	-50.69
897.299	29.18
897.47	43.52
897.64	82.43
897.81	-5.63
897.981	-44.54
898.151	70.14
898.322	55.81
898.492	4.61
898.662	-9.73
898.832	55.81
899.003	31.23
899.173	23.04
899.343	14.85
899.513	-5.63
