Data from USB4F104151__64__12-36-31-535.txt Node

Date: Fri Mar 14 12:36:31 EDT 2025
User: louis
Spectrometer: USB4F10415
Trigger mode: 4
Integration Time (sec): 2.000000E-2
Scans to average: 1
Electric dark correction enabled: true
Nonlinearity correction enabled: false
Boxcar width: 0
XAxis mode: Wavelengths
Number of Pixels in Spectrum: 3648
>>>>>Begin Spectral Data<<<<<
178.204	-62.98
178.424	-62.98
178.644	-62.98
178.864	-93.69
179.084	-83.45
179.304	49.66
179.524	0.51
179.744	51.71
179.964	18.94
180.184	-128.51
180.404	-28.16
180.624	-5.63
180.844	-24.06
181.064	41.47
181.283	39.42
181.503	16.9
181.723	-32.26
181.943	-26.11
182.163	82.43
182.383	72.19
182.602	115.2
182.822	115.2
183.042	82.43
183.262	16.9
183.482	31.23
183.701	-7.68
183.921	37.38
184.141	-11.78
184.361	88.57
184.58	37.38
184.8	47.62
185.02	-19.97
185.239	96.77
185.459	-1.54
185.679	-1.54
185.898	4.61
186.118	53.76
186.338	-40.45
186.557	143.87
186.777	66.05
186.997	53.76
187.216	25.09
187.436	49.66
187.655	25.09
187.875	82.43
188.095	23.04
188.314	45.57
188.534	68.09
188.753	51.71
188.973	74.24
189.192	131.58
189.412	55.81
189.631	27.14
189.851	66.05
190.07	57.86
190.29	41.47
190.509	74.24
190.729	23.04
190.948	55.81
191.168	115.2
191.387	-17.92
191.607	49.66
191.826	33.28
192.045	2.56
192.265	39.42
192.484	25.09
192.704	-5.63
192.923	41.47
193.142	115.2
193.362	16.9
193.581	59.9
193.8	-9.73
194.02	57.86
194.239	49.66
194.458	74.24
194.678	125.44
194.897	80.38
195.116	23.04
195.335	59.9
195.555	27.14
195.774	20.99
195.993	98.81
196.212	35.33
196.432	-56.83
196.651	61.95
196.87	47.62
197.089	35.33
197.308	84.48
197.528	41.47
197.747	35.33
197.966	72.19
198.185	-11.78
198.404	125.44
198.623	47.62
198.842	70.14
199.062	78.33
199.281	25.09
199.5	8.7
199.719	16.9
199.938	39.42
200.157	-1.54
200.376	70.14
200.595	59.9
200.814	107.01
201.033	47.62
201.252	20.99
201.471	80.38
201.69	70.14
201.909	14.85
202.128	37.38
202.347	98.81
202.566	51.71
202.785	29.18
203.004	25.09
203.223	129.53
203.442	0.51
203.661	88.57
203.879	2.56
204.098	96.77
204.317	31.23
204.536	55.81
204.755	-34.3
204.974	14.85
205.193	2.56
205.411	102.91
205.63	16.9
205.849	43.52
206.068	51.71
206.287	57.86
206.505	96.77
206.724	-3.58
206.943	84.48
207.162	55.81
207.381	115.2
207.599	47.62
207.818	86.53
208.037	23.04
208.255	23.04
208.474	16.9
208.693	98.81
208.911	14.85
209.13	6.66
209.349	-42.5
209.567	55.81
209.786	31.23
210.005	-13.82
210.223	-3.58
210.442	37.38
210.661	18.94
210.879	0.51
211.098	100.86
211.316	68.09
211.535	64
211.753	20.99
211.972	68.09
212.191	-1.54
212.409	4.61
212.628	37.38
212.846	-24.06
213.065	0.51
213.283	39.42
213.502	90.62
213.72	45.57
213.938	41.47
214.157	70.14
214.375	-9.73
214.594	64
214.812	39.42
215.031	59.9
215.249	-7.68
215.467	-24.06
215.686	2.56
215.904	43.52
216.122	25.09
216.341	90.62
216.559	6.66
216.778	115.2
216.996	57.86
217.214	23.04
217.432	29.18
217.651	31.23
217.869	27.14
218.087	-24.06
218.306	6.66
218.524	70.14
218.742	-38.4
218.96	152.06
219.179	-15.87
219.397	-13.82
219.615	-9.73
219.833	59.9
220.051	123.39
220.27	96.77
220.488	45.57
220.706	6.66
220.924	102.91
221.142	84.48
221.36	43.52
221.578	96.77
221.796	47.62
222.015	61.95
222.233	61.95
222.451	55.81
222.669	20.99
222.887	92.67
223.105	35.33
223.323	57.86
223.541	4.61
223.759	45.57
223.977	80.38
224.195	61.95
224.413	76.29
224.631	70.14
224.849	117.25
225.067	86.53
225.285	25.09
225.503	29.18
225.721	-17.92
225.939	-54.78
226.157	82.43
226.375	107.01
226.592	-38.4
226.81	113.15
227.028	-1.54
227.246	104.96
227.464	37.38
227.682	35.33
227.9	88.57
228.117	82.43
228.335	123.39
228.553	18.94
228.771	29.18
228.989	86.53
229.206	29.18
229.424	68.09
229.642	92.67
229.86	-22.02
230.077	57.86
230.295	20.99
230.513	2.56
230.731	59.9
230.948	51.71
231.166	64
231.384	6.66
231.601	-5.63
231.819	8.7
232.037	59.9
232.254	31.23
232.472	41.47
232.689	-38.4
232.907	12.8
233.125	14.85
233.342	27.14
233.56	35.33
233.777	72.19
233.995	74.24
234.213	18.94
234.43	35.33
234.648	4.61
234.865	0.51
235.083	47.62
235.3	18.94
235.518	59.9
235.735	100.86
235.953	-1.54
236.17	-46.59
236.388	-7.68
236.605	16.9
236.822	96.77
237.04	86.53
237.257	55.81
237.475	-15.87
237.692	41.47
237.909	53.76
238.127	92.67
238.344	18.94
238.562	84.48
238.779	80.38
238.996	39.42
239.214	33.28
239.431	59.9
239.648	-1.54
239.865	14.85
240.083	8.7
240.3	72.19
240.517	25.09
240.735	20.99
240.952	35.33
241.169	25.09
241.386	107.01
241.603	39.42
241.821	2.56
242.038	53.76
242.255	18.94
242.472	14.85
242.689	33.28
242.907	51.71
243.124	31.23
243.341	45.57
243.558	68.09
243.775	-60.93
243.992	33.28
244.209	43.52
244.426	115.2
244.643	90.62
244.86	76.29
245.078	16.9
245.295	-32.26
245.512	150.01
245.729	23.04
245.946	64
246.163	74.24
246.38	-34.3
246.597	37.38
246.814	31.23
247.031	47.62
247.248	31.23
247.464	70.14
247.681	-3.58
247.898	64
248.115	61.95
248.332	10.75
248.549	45.57
248.766	127.49
248.983	29.18
249.2	74.24
249.417	109.05
249.633	61.95
249.85	27.14
250.067	10.75
250.284	0.51
250.501	-1.54
250.717	61.95
250.934	100.86
251.151	-17.92
251.368	57.86
251.585	2.56
251.801	0.51
252.018	8.7
252.235	109.05
252.451	51.71
252.668	-40.45
252.885	-26.11
253.102	33.28
253.318	129.53
253.535	6.66
253.752	23.04
253.968	23.04
254.185	-9.73
254.401	39.42
254.618	-11.78
254.835	10.75
255.051	29.18
255.268	-7.68
255.484	80.38
255.701	6.66
255.917	43.52
256.134	35.33
256.351	-13.82
256.567	49.66
256.784	29.18
257	33.28
257.217	57.86
257.433	10.75
257.65	-5.63
257.866	121.34
258.082	33.28
258.299	47.62
258.515	27.14
258.732	72.19
258.948	53.76
259.165	45.57
259.381	37.38
259.597	51.71
259.814	51.71
260.03	39.42
260.246	-46.59
260.463	-38.4
260.679	96.77
260.895	-1.54
261.112	82.43
261.328	74.24
261.544	-30.21
261.761	59.9
261.977	135.68
262.193	31.23
262.409	45.57
262.626	53.76
262.842	70.14
263.058	27.14
263.274	39.42
263.49	10.75
263.707	66.05
263.923	27.14
264.139	53.76
264.355	18.94
264.571	125.44
264.787	37.38
265.004	96.77
265.22	8.7
265.436	4.61
265.652	145.92
265.868	20.99
266.084	33.28
266.3	4.61
266.516	45.57
266.732	98.81
266.948	8.7
267.164	43.52
267.38	59.9
267.596	78.33
267.812	88.57
268.028	45.57
268.244	20.99
268.46	6.66
268.676	61.95
268.892	45.57
269.108	-34.3
269.324	31.23
269.54	25.09
269.756	6.66
269.972	43.52
270.188	123.39
270.403	49.66
270.619	109.05
270.835	31.23
271.051	39.42
271.267	33.28
271.483	-1.54
271.698	33.28
271.914	59.9
272.13	47.62
272.346	2.56
272.562	61.95
272.777	68.09
272.993	25.09
273.209	-30.21
273.425	31.23
273.64	43.52
273.856	78.33
274.072	-1.54
274.287	-60.93
274.503	76.29
274.719	64
274.934	86.53
275.15	47.62
275.366	92.67
275.581	-17.92
275.797	90.62
276.012	20.99
276.228	74.24
276.444	59.9
276.659	64
276.875	10.75
277.09	10.75
277.306	94.72
277.521	90.62
277.737	-42.5
277.952	55.81
278.168	37.38
278.383	43.52
278.599	88.57
278.814	16.9
279.03	74.24
279.245	59.9
279.461	68.09
279.676	33.28
279.892	2.56
280.107	2.56
280.322	51.71
280.538	14.85
280.753	51.71
280.969	59.9
281.184	82.43
281.399	84.48
281.615	18.94
281.83	57.86
282.045	14.85
282.26	53.76
282.476	66.05
282.691	125.44
282.906	86.53
283.122	29.18
283.337	35.33
283.552	47.62
283.767	61.95
283.983	133.63
284.198	39.42
284.413	16.9
284.628	-48.64
284.843	76.29
285.058	66.05
285.274	88.57
285.489	2.56
285.704	51.71
285.919	-38.4
286.134	37.38
286.349	-26.11
286.564	102.91
286.779	37.38
286.995	45.57
287.21	10.75
287.425	2.56
287.64	-32.26
287.855	94.72
288.07	-17.92
288.285	14.85
288.5	25.09
288.715	72.19
288.93	-9.73
289.145	82.43
289.36	35.33
289.575	23.04
289.79	35.33
290.004	12.8
290.219	18.94
290.434	94.72
290.649	35.33
290.864	-11.78
291.079	59.9
291.294	45.57
291.509	72.19
291.724	127.49
291.938	90.62
292.153	96.77
292.368	-3.58
292.583	57.86
292.798	29.18
293.012	84.48
293.227	68.09
293.442	-1.54
293.657	47.62
293.871	96.77
294.086	107.01
294.301	86.53
294.516	84.48
294.73	115.2
294.945	64
295.16	82.43
295.374	66.05
295.589	39.42
295.804	45.57
296.018	0.51
296.233	55.81
296.447	80.38
296.662	47.62
296.877	86.53
297.091	90.62
297.306	70.14
297.52	39.42
297.735	86.53
297.949	-50.69
298.164	20.99
298.378	49.66
298.593	88.57
298.807	102.91
299.022	135.68
299.236	156.16
299.451	84.48
299.665	2.56
299.88	4.61
300.094	-26.11
300.309	78.33
300.523	12.8
300.737	78.33
300.952	82.43
301.166	72.19
301.381	-38.4
301.595	64
301.809	8.7
302.024	86.53
302.238	61.95
302.452	109.05
302.667	47.62
302.881	86.53
303.095	43.52
303.309	-9.73
303.524	164.35
303.738	25.09
303.952	37.38
304.166	72.19
304.381	14.85
304.595	12.8
304.809	0.51
305.023	41.47
305.237	68.09
305.452	76.29
305.666	137.73
305.88	37.38
306.094	57.86
306.308	18.94
306.522	33.28
306.736	29.18
306.95	2.56
307.164	137.73
307.379	35.33
307.593	64
307.807	66.05
308.021	84.48
308.235	121.34
308.449	29.18
308.663	78.33
308.877	82.43
309.091	27.14
309.305	80.38
309.519	6.66
309.733	72.19
309.947	70.14
310.161	96.77
310.374	14.85
310.588	86.53
310.802	41.47
311.016	-1.54
311.23	64
311.444	-17.92
311.658	86.53
311.872	107.01
312.085	90.62
312.299	8.7
312.513	82.43
312.727	86.53
312.941	-7.68
313.154	66.05
313.368	-5.63
313.582	64
313.796	6.66
314.009	29.18
314.223	41.47
314.437	37.38
314.651	43.52
314.864	-9.73
315.078	-48.64
315.292	45.57
315.505	20.99
315.719	98.81
315.933	49.66
316.146	66.05
316.36	8.7
316.573	109.05
316.787	70.14
317.001	59.9
317.214	29.18
317.428	86.53
317.641	76.29
317.855	80.38
318.068	43.52
318.282	92.67
318.495	147.97
318.709	-3.58
318.922	43.52
319.136	96.77
319.349	172.54
319.563	86.53
319.776	43.52
319.99	-3.58
320.203	39.42
320.417	35.33
320.63	137.73
320.843	4.61
321.057	57.86
321.27	33.28
321.483	61.95
321.697	88.57
321.91	66.05
322.124	66.05
322.337	76.29
322.55	121.34
322.763	80.38
322.977	104.96
323.19	35.33
323.403	80.38
323.617	107.01
323.83	162.3
324.043	78.33
324.256	41.47
324.469	-60.93
324.683	115.2
324.896	143.87
325.109	51.71
325.322	14.85
325.535	119.29
325.748	41.47
325.962	45.57
326.175	72.19
326.388	68.09
326.601	64
326.814	117.25
327.027	55.81
327.24	111.1
327.453	39.42
327.666	119.29
327.879	107.01
328.092	92.67
328.305	16.9
328.518	84.48
328.731	74.24
328.944	43.52
329.157	12.8
329.37	72.19
329.583	27.14
329.796	53.76
330.009	37.38
330.222	-3.58
330.435	70.14
330.648	76.29
330.861	-58.88
331.073	82.43
331.286	14.85
331.499	72.19
331.712	82.43
331.925	68.09
332.138	78.33
332.35	100.86
332.563	66.05
332.776	84.48
332.989	96.77
333.202	92.67
333.414	-3.58
333.627	51.71
333.84	59.9
334.053	33.28
334.265	16.9
334.478	100.86
334.691	88.57
334.903	64
335.116	43.52
335.329	66.05
335.541	25.09
335.754	82.43
335.966	-32.26
336.179	96.77
336.392	102.91
336.604	53.76
336.817	121.34
337.029	29.18
337.242	-13.82
337.454	-1.54
337.667	43.52
337.88	104.96
338.092	86.53
338.305	35.33
338.517	55.81
338.729	127.49
338.942	86.53
339.154	78.33
339.367	39.42
339.579	45.57
339.792	47.62
340.004	-3.58
340.217	68.09
340.429	55.81
340.641	41.47
340.854	80.38
341.066	66.05
341.278	90.62
341.491	57.86
341.703	96.77
341.915	66.05
342.128	70.14
342.34	64
342.552	68.09
342.764	29.18
342.977	25.09
343.189	90.62
343.401	68.09
343.613	27.14
343.826	90.62
344.038	-11.78
344.25	31.23
344.462	14.85
344.674	37.38
344.886	109.05
345.099	88.57
345.311	57.86
345.523	16.9
345.735	10.75
345.947	86.53
346.159	107.01
346.371	45.57
346.583	41.47
346.795	86.53
347.007	18.94
347.219	86.53
347.431	39.42
347.643	80.38
347.855	39.42
348.067	78.33
348.279	-1.54
348.491	80.38
348.703	102.91
348.915	66.05
349.127	98.81
349.339	78.33
349.551	2.56
349.763	139.77
349.975	23.04
350.187	109.05
350.399	131.58
350.61	94.72
350.822	47.62
351.034	135.68
351.246	100.86
351.458	59.9
351.669	88.57
351.881	59.9
352.093	64
352.305	104.96
352.517	76.29
352.728	98.81
352.94	119.29
353.152	39.42
353.363	94.72
353.575	59.9
353.787	121.34
353.999	100.86
354.21	82.43
354.422	64
354.633	20.99
354.845	68.09
355.057	-19.97
355.268	8.7
355.48	61.95
355.692	68.09
355.903	20.99
356.115	51.71
356.326	88.57
356.538	45.57
356.749	86.53
356.961	64
357.172	94.72
357.384	68.09
357.595	68.09
357.807	100.86
358.018	86.53
358.23	33.28
358.441	45.57
358.653	143.87
358.864	49.66
359.075	133.63
359.287	96.77
359.498	139.77
359.709	49.66
359.921	-34.3
360.132	68.09
360.344	90.62
360.555	123.39
360.766	90.62
360.977	23.04
361.189	113.15
361.4	51.71
361.611	121.34
361.823	145.92
362.034	94.72
362.245	72.19
362.456	92.67
362.667	66.05
362.879	102.91
363.09	121.34
363.301	119.29
363.512	55.81
363.723	23.04
363.935	88.57
364.146	88.57
364.357	35.33
364.568	78.33
364.779	109.05
364.99	72.19
365.201	70.14
365.412	51.71
365.623	55.81
365.834	70.14
366.045	27.14
366.256	27.14
366.467	-9.73
366.678	66.05
366.889	10.75
367.1	72.19
367.311	111.1
367.522	76.29
367.733	90.62
367.944	125.44
368.155	-22.02
368.366	104.96
368.577	98.81
368.788	115.2
368.999	25.09
369.209	0.51
369.42	129.53
369.631	88.57
369.842	33.28
370.053	139.77
370.264	92.67
370.474	82.43
370.685	64
370.896	61.95
371.107	141.82
371.317	66.05
371.528	100.86
371.739	135.68
371.95	141.82
372.16	76.29
372.371	39.42
372.582	61.95
372.792	143.87
373.003	74.24
373.214	135.68
373.424	27.14
373.635	16.9
373.846	88.57
374.056	88.57
374.267	55.81
374.477	59.9
374.688	100.86
374.898	111.1
375.109	64
375.319	64
375.53	141.82
375.74	57.86
375.951	176.64
376.161	41.47
376.372	96.77
376.582	102.91
376.793	143.87
377.003	82.43
377.214	61.95
377.424	127.49
377.635	37.38
377.845	109.05
378.055	123.39
378.266	66.05
378.476	53.76
378.686	31.23
378.897	92.67
379.107	86.53
379.317	98.81
379.528	104.96
379.738	4.61
379.948	94.72
380.158	80.38
380.369	84.48
380.579	84.48
380.789	6.66
380.999	51.71
381.21	129.53
381.42	64
381.63	70.14
381.84	84.48
382.05	80.38
382.261	47.62
382.471	104.96
382.681	154.11
382.891	72.19
383.101	100.86
383.311	10.75
383.521	139.77
383.731	29.18
383.941	84.48
384.151	80.38
384.361	43.52
384.571	127.49
384.781	129.53
384.991	53.76
385.201	102.91
385.411	18.94
385.621	109.05
385.831	90.62
386.041	33.28
386.251	117.25
386.461	123.39
386.671	27.14
386.881	109.05
387.091	39.42
387.301	88.57
387.511	143.87
387.72	57.86
387.93	96.77
388.14	94.72
388.35	98.81
388.56	160.25
388.769	94.72
388.979	86.53
389.189	49.66
389.399	109.05
389.609	72.19
389.818	51.71
390.028	113.15
390.238	82.43
390.447	74.24
390.657	115.2
390.867	25.09
391.076	121.34
391.286	121.34
391.496	61.95
391.705	72.19
391.915	125.44
392.125	82.43
392.334	115.2
392.544	117.25
392.753	92.67
392.963	162.3
393.172	147.97
393.382	123.39
393.591	139.77
393.801	96.77
394.01	143.87
394.22	47.62
394.429	147.97
394.639	80.38
394.848	129.53
395.058	131.58
395.267	92.67
395.477	115.2
395.686	94.72
395.895	145.92
396.105	225.79
396.314	176.64
396.524	137.73
396.733	55.81
396.942	135.68
397.152	164.35
397.361	131.58
397.57	119.29
397.78	137.73
397.989	113.15
398.198	201.21
398.407	84.48
398.617	170.49
398.826	152.06
399.035	41.47
399.244	100.86
399.453	88.57
399.663	186.88
399.872	145.92
400.081	188.93
400.29	213.5
400.499	123.39
400.708	193.02
400.917	115.2
401.127	139.77
401.336	158.21
401.545	150.01
401.754	231.93
401.963	184.83
402.172	154.11
402.381	147.97
402.59	199.16
402.799	172.54
403.008	182.78
403.217	152.06
403.426	199.16
403.635	92.67
403.844	186.88
404.053	164.35
404.262	205.31
404.471	246.27
404.68	256.51
404.888	287.23
405.097	203.26
405.306	215.55
405.515	199.16
405.724	244.22
405.933	184.83
406.142	256.51
406.35	283.13
406.559	262.65
406.768	252.41
406.977	338.43
407.185	293.37
407.394	256.51
407.603	272.89
407.812	289.28
408.02	320
408.229	309.76
408.438	315.9
408.646	369.15
408.855	363
409.064	377.34
409.272	358.91
409.481	442.87
409.69	389.63
409.898	350.71
410.107	399.87
410.315	489.98
410.524	426.49
410.733	494.07
410.941	494.07
411.15	487.93
411.358	516.6
411.567	465.4
411.775	535.03
411.984	625.14
412.192	569.85
412.401	629.24
412.609	745.97
412.818	715.25
413.026	678.39
413.234	743.92
413.443	721.4
413.651	803.32
413.86	782.84
414.068	834.04
414.276	909.81
414.485	903.67
414.693	915.95
414.901	979.44
415.11	991.73
415.318	1016.3
415.526	1114.61
415.734	1092.08
415.943	1133.04
416.151	1180.14
416.359	1247.72
416.567	1290.73
416.776	1274.35
416.984	1362.41
417.192	1386.99
417.4	1257.96
417.608	1313.26
417.817	1505.77
418.025	1475.05
418.233	1651.17
418.441	1602.02
418.649	1745.38
418.857	1817.06
419.065	1798.63
419.273	1839.59
419.481	1935.84
419.689	2085.34
419.897	2097.63
420.105	2200.03
420.313	2210.27
420.521	2263.52
420.729	2353.63
420.937	2404.83
421.145	2443.74
421.353	2681.3
421.561	2724.31
421.769	2750.93
421.977	2906.58
422.185	2888.15
422.393	3054.03
422.601	3375.56
422.809	3287.5
423.017	3332.56
423.224	3445.2
423.432	3539.4
423.64	3658.18
423.848	3809.73
424.056	3768.77
424.263	4090.31
424.471	3973.57
424.679	4188.61
424.887	4383.17
425.094	4356.54
425.302	4532.67
425.51	4569.53
425.718	4901.3
425.925	4733.37
426.133	5036.47
426.341	5319.09
426.548	5591.47
426.756	5679.53
426.964	5667.24
427.171	5884.33
427.379	6068.64
427.586	6244.77
427.794	6336.93
428.001	6756.76
428.209	6869.4
428.417	6994.33
428.624	7322
428.832	7502.22
429.039	7303.57
429.247	7498.13
429.454	7995.78
429.662	8561.02
429.869	7979.4
430.076	8587.64
430.284	8452.48
430.491	8700.28
430.699	9089.4
430.906	9251.19
431.114	9593.2
431.321	9709.93
431.528	9976.17
431.736	10602.85
431.943	10975.58
432.15	10596.7
432.358	10871.13
432.565	11383.12
432.772	11387.22
432.979	12085.58
433.187	12310.85
433.394	12159.3
433.601	12984.63
433.808	13121.85
434.016	13107.51
434.223	13373.75
434.43	14586.15
434.637	14131.5
434.844	14881.05
435.052	15345.94
435.259	15040.79
435.466	15298.84
435.673	15073.56
435.88	16179.47
436.087	16675.07
436.294	16892.16
436.501	16765.18
436.708	16976.12
436.915	17527.03
437.122	18288.87
437.329	18295.02
437.537	18901.22
437.743	19335.38
437.95	18936.03
438.157	20185.29
438.364	20429
438.571	20646.08
438.778	20521.16
438.985	22843.56
439.192	21682.36
439.399	22481.06
439.606	21950.64
439.813	23001.25
440.02	24766.6
440.227	24184.97
440.433	23785.62
440.64	24895.62
440.847	24567.95
441.054	25483.39
441.261	26845.29
441.467	26646.63
441.674	27289.7
441.881	28162.13
442.088	27977.81
442.294	27703.39
442.501	28469.33
442.708	29364.29
442.914	30353.46
443.121	31471.65
443.328	30851.11
443.534	32714.76
443.741	31797.27
443.948	31680.54
444.154	33550.34
444.361	33572.86
444.568	34086.9
444.774	33626.11
444.981	33931.26
445.187	35244.01
445.394	36478.93
445.6	36179.93
445.807	39559.08
446.013	37636.03
446.22	38653.87
446.426	40052.64
446.633	40517.53
446.839	42012.54
447.046	40464.28
447.252	42012.54
447.459	42051.45
447.665	41951.1
447.871	43839.33
448.078	45756.23
448.284	43429.74
448.491	44953.43
448.697	46323.52
448.903	46798.65
449.11	47492.91
449.316	46587.71
449.522	47828.77
449.728	49053.46
449.935	49143.57
450.141	49344.27
450.347	49993.48
450.553	48676.63
450.76	49104.66
450.966	51150.58
451.172	50132.74
451.378	51705.58
451.584	50755.32
451.791	51764.97
451.997	51685.1
452.203	52614.88
452.409	52508.38
452.615	51998.44
452.821	50614.01
453.027	50214.66
453.233	52424.42
453.44	50362.11
453.646	51183.35
453.852	51089.14
454.058	51963.62
454.264	50243.33
454.47	51683.05
454.676	50294.53
454.882	51861.22
455.088	47454
455.294	48238.37
455.5	48750.36
455.705	49379.09
455.911	47650.6
456.117	46782.26
456.323	46090.05
456.529	43913.06
456.735	45711.17
456.941	44767.06
457.147	43630.44
457.352	42485.62
457.558	41996.16
457.764	41987.97
457.97	41398.15
458.176	40492.95
458.381	40619.92
458.587	38598.58
458.793	38637.49
458.999	36444.12
459.204	39008.17
459.41	37976
459.616	35655.65
459.821	35860.44
460.027	35338.21
460.233	34269.17
460.438	32862.22
460.644	33325.06
460.85	31840.28
461.055	30988.33
461.261	31463.46
461.466	28983.37
461.672	28155.99
461.878	30296.11
462.083	27752.54
462.289	27494.49
462.494	27132
462.7	25944.18
462.905	25116.8
463.111	26060.91
463.316	26413.16
463.522	25731.19
463.727	25962.61
463.932	25575.55
464.138	25526.39
464.343	25606.27
464.549	25014.4
464.754	25522.3
464.959	25352.32
465.165	25213.06
465.37	24051.86
465.575	23410.84
465.781	24561.8
465.986	24627.34
466.191	23974.03
466.397	23300.25
466.602	22311.08
466.807	23355.55
467.012	23261.34
467.218	23074.98
467.423	22513.83
467.628	22696.1
467.833	23406.75
468.038	22745.25
468.244	22104.24
468.449	22991.01
468.654	22083.76
468.859	21891.25
469.064	21934.26
469.269	21358.78
469.474	21196.99
469.679	21696.69
469.885	21246.14
470.09	21598.39
470.295	21401.79
470.5	20830.4
470.705	21047.49
470.91	20533.45
471.115	20177.1
471.32	20478.15
471.525	20396.23
471.73	19976.4
471.935	19747.03
472.139	19380.44
472.344	19374.3
472.549	19202.27
472.754	18962.65
472.959	18708.71
473.164	18368.74
473.369	18127.08
473.574	18706.66
473.778	18440.42
473.983	18372.84
474.188	17967.34
474.393	17572.08
474.598	17576.18
474.802	17248.5
475.007	17170.68
475.212	17178.87
475.417	16615.68
475.621	16498.95
475.826	16933.12
476.031	16365.83
476.235	15964.43
476.44	16441.61
476.645	15991.05
476.849	15972.62
477.054	15935.76
477.259	15583.51
477.463	15530.26
477.668	15106.33
477.872	15448.34
478.077	14987.55
478.282	14821.66
478.486	14639.39
478.691	14520.61
478.895	14563.62
479.1	14324.01
479.304	14543.14
479.509	13797.68
479.713	14418.21
479.918	13824.3
480.122	13861.16
480.326	13867.31
480.531	14002.47
480.735	13691.18
480.94	13627.7
481.144	14088.49
481.348	13381.94
481.553	13480.24
481.757	13244.73
481.961	13445.43
482.166	13674.8
482.37	13519.15
482.574	13343.03
482.778	13259.06
482.983	13433.14
483.187	13551.92
483.391	13314.36
483.595	13336.88
483.8	12960.06
484.004	13289.78
484.208	13613.36
484.412	13183.29
484.616	13480.24
484.821	13457.71
485.025	13023.55
485.229	13467.95
485.433	13355.32
485.637	13277.49
485.841	13353.27
486.045	13142.33
486.249	13338.93
486.453	13220.15
486.657	13203.77
486.861	13373.75
487.065	12894.52
487.269	13168.95
487.473	12912.95
487.677	13283.64
487.881	13553.97
488.085	13338.93
488.289	13230.39
488.493	13117.75
488.697	13504.82
488.901	13324.6
489.105	13265.21
489.309	13377.84
489.512	13513.01
489.716	13416.76
489.92	13451.57
490.124	13510.96
490.328	13748.53
490.531	13562.16
490.735	13625.65
490.939	13838.64
491.143	13990.19
491.346	13723.95
491.55	13926.7
491.754	13883.69
491.958	13981.99
492.161	14061.87
492.365	14141.74
492.569	14022.95
492.772	14205.22
492.976	14213.42
493.18	14283.05
493.383	14291.24
493.587	14496.03
493.79	14784.8
493.994	14383.4
494.197	14498.08
494.401	14573.86
494.605	14684.45
494.808	14876.96
495.012	14946.59
495.215	14946.59
495.419	15065.37
495.622	15239.45
495.825	15487.25
496.029	15368.47
496.232	15741.2
496.436	15874.32
496.639	16140.55
496.843	15567.12
497.046	16265.48
497.249	16408.84
497.453	16451.84
497.656	16654.59
497.859	16767.23
498.063	16912.64
498.266	17400.05
498.469	17338.62
498.673	17336.57
498.876	17553.65
499.079	17813.74
499.282	17703.15
499.485	18209
499.689	18196.71
499.892	18559.2
500.095	18841.82
500.298	19081.44
500.501	18970.85
500.705	19566.81
500.908	19740.88
501.111	19917.01
501.314	19968.21
501.517	20127.95
501.72	20267.21
501.923	20338.89
502.126	20932.8
502.329	21176.51
502.532	21330.11
502.735	21700.79
502.938	21751.99
503.141	21694.64
503.344	22141.1
503.547	22147.25
503.75	22786.21
503.953	22982.82
504.156	23367.84
504.359	23433.37
504.562	23546.01
504.765	24074.38
504.968	23836.82
505.17	24326.28
505.373	24899.72
505.576	24983.68
505.779	25317.5
505.982	25481.34
506.185	25747.58
506.387	25845.88
506.59	25802.87
506.793	26460.27
506.996	26278
507.198	27191.39
507.401	27021.41
507.604	27527.26
507.807	28098.64
508.009	27930.71
508.212	27838.55
508.415	28618.83
508.617	28819.53
508.82	28762.19
509.022	28893.26
509.225	29491.26
509.428	29767.74
509.63	29790.27
509.833	30234.67
510.035	30459.95
510.238	30556.21
510.44	31180.84
510.643	31619.1
510.845	31817.75
511.048	31827.99
511.25	32241.68
511.453	32464.91
511.655	33513.47
511.858	32946.19
512.06	33214.47
512.262	33628.16
512.465	33466.37
512.667	34168.82
512.87	34476.02
513.072	34965.48
513.274	35635.17
513.477	35729.37
513.679	36229.08
513.881	36440.02
514.084	36702.16
514.286	36882.38
514.488	36806.61
514.69	38111.16
514.893	37777.34
515.095	37881.79
515.297	38580.15
515.499	38451.13
515.701	39018.41
515.904	39341.99
516.106	39954.33
516.308	39833.5
516.51	40206.23
516.712	40650.64
516.914	40851.34
517.116	41676.68
517.318	41553.8
517.52	42061.69
517.722	42293.11
517.925	42454.9
518.127	42903.41
518.329	43501.42
518.531	43208.56
518.733	44326.75
518.935	44111.71
519.136	44298.08
519.338	44869.46
519.54	45055.82
519.742	45350.73
519.944	45676.36
520.146	45952.83
520.348	46468.92
520.55	46755.64
520.752	47120.18
520.954	47402.8
521.155	47347.5
521.357	48488.22
521.559	48361.25
521.761	49020.69
521.963	48459.55
522.164	49166.1
522.366	49239.82
522.568	49725.19
522.77	49835.78
522.971	50611.96
523.173	50294.53
523.375	50849.53
523.576	50884.34
523.778	51076.85
523.98	51457.77
524.181	51724.01
524.383	51801.83
524.584	52594.4
524.786	52502.24
524.988	52223.72
525.189	52944.6
525.391	53278.42
525.592	53468.88
525.794	53292.75
525.995	53350.1
526.197	53540.56
526.398	53483.22
526.6	54021.83
526.801	54509.25
527.003	54458.05
527.204	54662.85
527.406	54728.38
527.607	54671.04
527.808	55109.3
528.01	55035.58
528.211	55213.75
528.412	56561.31
528.614	56004.27
528.815	55758.51
529.016	56469.15
529.218	55672.49
529.419	56088.23
529.62	56131.24
529.822	56145.58
530.023	56016.55
530.224	56037.03
530.425	56366.76
530.626	56280.74
530.828	56344.23
531.029	57114.26
531.23	56356.52
531.431	56768.16
531.632	57038.49
531.833	56966.81
532.035	56895.13
532.236	57294.49
532.437	57499.28
532.638	56958.62
532.839	57421.46
533.04	57489.04
533.241	56393.38
533.442	58060.43
533.643	57384.6
533.844	57251.48
534.045	57212.57
534.246	56794.78
534.447	57101.98
534.648	57532.05
534.849	57362.07
535.05	57030.3
535.251	57431.7
535.451	56864.41
535.652	57421.46
535.853	57040.54
536.054	57534.1
536.255	57437.84
536.456	56891.04
536.657	58052.23
536.857	57325.21
537.058	57147.03
537.259	57937.55
537.46	57327.25
537.66	57439.89
537.861	57503.38
538.062	57198.23
538.263	57243.29
538.463	57265.81
538.664	56946.33
538.865	57323.16
539.065	57605.78
539.266	56850.08
539.466	57511.57
539.667	56483.49
539.868	57403.03
540.068	57040.54
540.269	57130.65
540.469	57745.04
540.67	56798.88
540.87	57214.61
541.071	57048.73
541.271	57466.52
541.472	57120.41
541.672	56962.71
541.873	56966.81
542.073	56071.85
542.274	57048.73
542.474	57218.71
542.675	56733.34
542.875	57583.25
543.075	57089.69
543.276	56600.22
543.476	56932
543.676	56374.95
543.877	57380.5
544.077	56782.49
544.277	56630.94
544.478	56579.74
544.678	57134.74
544.878	56710.81
545.078	57372.31
545.279	56721.05
545.479	56477.35
545.679	56786.59
545.879	56573.6
546.079	56454.82
546.28	56620.7
546.48	56473.25
546.68	56577.7
546.88	56960.67
547.08	56671.9
547.28	56383.14
547.48	55836.33
547.68	56610.46
547.88	55803.56
548.081	56333.99
548.281	56608.42
548.481	56518.31
548.681	57218.71
548.881	56286.89
549.081	56647.33
549.28	56057.51
549.48	56614.56
549.68	56686.24
549.88	56809.12
550.08	55998.12
550.28	56938.14
550.48	56368.8
550.68	56653.47
550.88	56022.7
551.08	56088.23
551.279	56317.6
551.479	56307.36
551.679	56166.05
551.879	55930.54
552.079	56575.65
552.278	56135.34
552.478	56000.17
552.678	56008.36
552.878	56254.12
553.077	55781.04
553.277	55213.75
553.477	56315.56
553.676	55946.92
553.876	55887.53
554.076	55934.63
554.275	55547.57
554.475	55318.2
554.674	56110.76
554.874	55975.59
555.074	55463.6
555.273	56004.27
555.473	55670.45
555.672	55135.93
555.872	55420.59
556.071	55303.86
556.271	55756.46
556.47	55180.98
556.67	54632.13
556.869	55297.72
557.068	55307.96
557.268	54910.65
557.467	55320.24
557.667	55019.19
557.866	55090.87
558.065	55244.47
558.265	54668.99
558.464	54818.49
558.663	55334.58
558.863	54511.3
559.062	55250.61
559.261	54294.21
559.461	55070.39
559.66	54163.14
559.859	54275.78
560.058	54255.3
560.258	54927.03
560.457	54144.71
560.656	54601.41
560.855	54154.95
561.054	54533.82
561.253	54154.95
561.453	54005.45
561.652	54365.89
561.851	53874.38
562.05	53610.19
562.249	53597.9
562.448	54183.62
562.647	54040.26
562.846	53706.44
563.045	53704.4
563.244	52877.02
563.443	53782.22
563.642	52807.39
563.841	53280.47
564.04	53257.94
564.239	53493.46
564.438	52860.63
564.637	53141.21
564.836	52891.35
565.035	52858.59
565.234	52866.78
565.432	52551.39
565.631	52502.24
565.83	52674.27
566.029	52489.95
566.228	52350.69
566.427	52348.64
566.625	52178.66
566.824	51678.96
567.023	52025.06
567.222	51265.27
567.42	51873.51
567.619	51719.91
567.818	51658.48
568.016	51594.99
568.215	51941.1
568.414	51128.05
568.612	51769.07
568.811	50976.5
569.01	51353.33
569.208	50429.69
569.407	50824.95
569.605	50616.06
569.804	51265.27
570.002	50069.25
570.201	50933.49
570.4	50464.51
570.598	50394.88
570.797	49907.46
570.995	50464.51
571.193	49696.52
571.392	50439.93
571.59	49524.49
571.789	50138.88
571.987	49538.83
572.186	49612.55
572.384	49688.33
572.582	49821.45
572.781	49745.67
572.979	48660.25
573.177	49069.84
573.376	49495.82
573.574	48807.7
573.772	49205.01
573.971	48766.74
574.169	48445.21
574.367	48092.96
574.565	48817.94
574.763	48496.41
574.962	47976.23
575.16	47619.88
575.358	48019.24
575.556	47355.69
575.754	48129.83
575.952	47030.07
576.151	48213.79
576.349	47578.92
576.547	47335.21
576.745	47656.74
576.943	47574.83
577.141	47230.77
577.339	47089.46
577.537	47071.03
577.735	46851.89
577.933	46616.38
578.131	46872.37
578.329	46485.31
578.527	46636.86
578.725	46126.91
578.923	46174.02
579.121	46247.74
579.319	46044.99
579.516	46571.32
579.714	46092.1
579.912	45623.11
580.11	45514.57
580.308	45551.43
580.506	45535.05
580.704	44832.6
580.901	45596.49
581.099	45430.6
581.297	44934.99
581.495	44982.1
581.692	45199.18
581.89	44420.95
582.088	44879.7
582.285	44853.08
582.483	45080.4
582.681	44277.6
582.878	44265.31
583.076	43982.69
583.274	44529.5
583.471	43474.79
583.669	43986.78
583.866	43331.43
584.064	44187.49
584.262	43151.21
584.459	43798.37
584.657	43161.45
584.854	43634.53
585.052	42571.64
585.249	43241.32
585.447	43054.96
585.644	42155.9
585.841	42446.71
586.039	42585.97
586.236	42227.58
586.434	42033.02
586.631	42139.52
586.828	42020.73
587.026	42137.47
587.223	41973.63
587.42	41721.73
587.618	41803.65
587.815	41078.67
588.012	41004.94
588.21	41256.84
588.407	41289.61
588.604	40839.06
588.801	40687.51
588.999	40859.54
589.196	40849.3
589.393	40550.29
589.59	40394.65
589.787	40089.5
589.984	40185.75
590.182	40007.58
590.379	40089.5
590.576	39886.75
590.773	39882.66
590.97	39585.7
591.167	39493.54
591.364	39374.76
591.561	39927.71
591.758	39139.24
591.955	39088.04
592.152	39399.33
592.349	39116.72
592.546	39067.56
592.743	38926.25
592.94	38363.06
593.137	38836.14
593.334	38539.19
593.531	38068.16
593.727	38266.81
593.924	37892.03
594.121	37787.58
594.318	38258.62
594.515	37685.18
594.712	38025.15
594.908	37896.13
595.105	37865.41
595.302	37281.74
595.499	37212.1
595.696	37277.64
595.892	36777.93
596.089	37179.34
596.286	36831.18
596.482	37138.38
596.679	36464.6
596.876	36605.91
597.072	36202.46
597.269	36380.63
597.466	36157.4
597.662	36247.51
597.859	36329.43
598.055	35866.59
598.252	35450.85
598.448	35131.37
598.645	35758.05
598.841	35016.68
599.038	35422.18
599.234	35280.87
599.431	35182.57
599.627	35022.83
599.824	35069.93
600.02	34904.04
600.217	34758.64
600.413	34902
600.609	34699.25
600.806	34482.16
601.002	34582.51
601.198	33972.22
601.395	33968.12
601.591	34062.33
601.787	34023.42
601.984	33851.39
602.18	33921.02
602.376	33519.62
602.572	33613.82
602.769	33679.36
602.965	33294.34
603.161	33314.82
603.357	33138.69
603.553	33193.99
603.75	33568.77
603.946	32575.5
604.142	33206.28
604.338	32469.01
604.534	32608.27
604.73	32516.11
604.926	32360.47
605.122	32397.33
605.318	32473.1
605.514	32008.22
605.71	31893.53
605.906	31746.08
606.102	32088.09
606.298	31991.83
606.494	31830.04
606.69	31596.57
606.886	31453.22
607.082	31586.33
607.278	31801.37
607.474	31033.38
607.67	31637.53
607.866	31006.76
608.062	31432.74
608.257	30973.99
608.453	31072.29
608.649	31074.34
608.845	30812.2
609.041	30758.95
609.236	30875.69
609.432	30566.45
609.628	30447.66
609.824	30644.27
610.019	30466.1
610.215	30429.23
610.411	30560.3
610.606	30435.38
610.802	30480.43
610.998	30122.04
611.193	30382.13
611.389	30074.93
611.584	29892.66
611.78	30101.56
611.976	30087.22
612.171	30044.21
612.367	29816.89
612.562	29816.89
612.758	29110.34
612.953	29438.01
613.149	29696.06
613.344	29337.66
613.539	29915.19
613.735	29741.11
613.93	29444.16
614.126	28899.4
614.321	29481.02
614.517	29251.65
614.712	29069.38
614.907	29089.86
615.103	29169.73
615.298	29063.24
615.493	29313.09
615.688	28598.35
615.884	28909.64
616.079	28665.93
616.274	28835.91
616.47	28784.71
616.665	28514.38
616.86	28029.01
617.055	28272.72
617.25	28221.52
617.445	28588.11
617.641	27959.38
617.836	28389.45
618.031	28020.82
618.226	27953.24
618.421	27852.89
618.616	28119.12
618.811	27557.98
619.006	28104.79
619.201	27267.17
619.396	27717.72
619.591	27342.94
619.786	27416.67
619.981	27197.54
620.176	27377.76
620.371	26794.09
620.566	26738.79
620.761	26521.71
620.956	26908.77
621.151	26351.73
621.346	26626.15
621.541	26308.72
621.735	26316.91
621.93	25938.04
622.125	25968.76
622.32	25591.93
622.515	25479.29
622.709	25546.87
622.904	25378.94
623.099	25194.62
623.294	25069.7
623.488	24791.17
623.683	25059.46
623.878	24535.18
624.072	24768.65
624.267	24615.05
624.462	24676.49
624.656	24357
624.851	23996.56
625.046	23873.68
625.24	23656.6
625.435	23517.34
625.629	23638.17
625.824	23533.72
626.018	23251.1
626.213	22997.15
626.407	23335.07
626.602	22468.78
626.796	22798.5
626.991	23021.73
627.185	22616.23
627.38	22468.78
627.574	22438.06
627.768	22433.96
627.963	21967.02
628.157	21983.41
628.352	22139.05
628.546	21305.53
628.74	22034.61
628.935	21528.76
629.129	21358.78
629.323	21168.32
629.517	21076.16
629.712	21065.92
629.906	21082.3
630.1	21125.31
630.294	20840.64
630.489	20621.51
630.683	20689.09
630.877	20338.89
631.071	20498.63
631.265	20388.04
631.459	20197.58
631.653	20191.44
631.848	20158.67
632.042	19927.25
632.236	19982.54
632.43	19402.97
632.624	19794.13
632.818	19531.99
633.012	19183.84
633.206	19362.01
633.4	19253.47
633.594	19005.66
633.788	19060.96
633.982	18800.87
634.176	19024.09
634.369	18743.52
634.563	18815.2
634.757	18231.53
634.951	18751.71
635.145	18307.3
635.339	18417.89
635.533	18127.08
635.726	18153.71
635.92	17914.09
636.114	17649.91
636.308	17803.5
636.501	17711.35
636.695	17879.28
636.889	17606.9
637.083	17393.91
637.276	17252.6
637.47	17240.31
637.664	17170.68
637.857	17350.9
638.051	17148.15
638.244	16832.77
638.438	16693.51
638.632	16845.05
638.825	16584.96
639.019	16374.02
639.212	16234.76
639.406	16331.01
639.599	16195.85
639.793	16163.08
639.986	15900.94
640.18	15792.4
640.373	16062.73
640.567	15786.26
640.76	16040.2
640.954	15614.23
641.147	15737.1
641.34	15407.38
641.534	15483.16
641.727	15640.85
641.92	15589.65
642.114	15202.58
642.307	15350.04
642.5	15141.14
642.694	14752.03
642.887	14944.54
643.08	14823.71
643.273	14874.91
643.467	14676.26
643.66	14422.31
643.853	14364.96
644.046	14434.6
644.239	14532.9
644.432	14203.18
644.626	14008.62
644.819	14092.58
645.012	14194.98
645.205	14072.11
645.398	13981.99
645.591	14027.05
645.784	13789.49
645.977	13771.05
646.17	13418.8
646.363	13705.52
646.556	13500.72
646.749	13482.29
646.942	13435.19
647.135	13416.76
647.328	13396.28
647.521	13214.01
647.714	12917.05
647.907	12996.92
648.099	13087.03
648.292	13257.01
648.485	12984.63
648.678	12722.49
648.871	12671.29
649.064	12575.04
649.256	12708.16
649.449	12587.33
649.642	12378.44
649.835	12298.56
650.027	12282.18
650.22	12194.12
650.413	12167.49
650.605	12204.36
650.798	12101.96
650.991	11909.45
651.183	11850.06
651.376	11874.63
651.568	11770.19
651.761	11784.52
651.954	11768.14
652.146	11583.82
652.339	11354.45
652.531	11653.45
652.724	11473.23
652.916	11360.59
653.109	11581.78
653.301	11280.72
653.494	11141.46
653.686	10807.64
653.879	11141.46
654.071	11143.51
654.263	11045.21
654.456	10860.89
654.648	11022.68
654.84	10658.14
655.033	10996.06
655.225	10643.81
655.417	10631.52
655.61	10715.48
655.802	10406.24
655.994	10621.28
656.186	10430.82
656.379	10170.72
656.571	10297.7
656.763	10326.37
656.955	10115.43
657.148	10289.51
657.34	10176.87
657.532	10064.23
657.724	9902.44
657.916	10107.24
658.108	9914.73
658.3	9775.47
658.492	9828.71
658.684	9611.63
658.876	9836.91
659.068	9689.45
659.26	9662.83
659.452	9636.2
659.644	9673.07
659.836	9599.34
660.028	9425.26
660.22	9300.34
660.412	9142.64
660.604	9154.93
660.796	9271.67
660.988	9126.26
661.18	9056.63
661.372	9189.75
661.563	9091.45
661.755	8778.11
661.947	9136.5
662.139	8681.85
662.331	8995.19
662.522	8731
662.714	8761.72
662.906	8757.63
663.097	8857.98
663.289	8792.44
663.481	8497.53
663.673	8360.32
663.864	8391.04
664.056	8456.57
664.247	8157.57
664.439	8311.17
664.631	8345.98
664.822	8268.16
665.014	8368.51
665.205	8204.67
665.397	8348.03
665.588	8210.82
665.78	7997.83
665.971	7973.25
666.163	8155.52
666.354	7907.72
666.546	7915.91
666.737	7868.81
666.929	7723.4
667.12	7721.35
667.311	7733.64
667.503	7625.1
667.694	7704.97
667.885	7678.35
668.077	7750.03
668.268	7735.69
668.459	7563.66
668.651	7600.52
668.842	7541.13
669.033	7381.39
669.224	7258.51
669.416	7496.08
669.607	7477.65
669.798	7418.25
669.989	7291.28
670.18	7201.17
670.371	7170.45
670.563	7156.11
670.754	7184.79
670.945	6865.3
671.136	7170.45
671.327	7025.04
671.518	7248.27
671.709	6977.94
671.9	6959.51
672.091	6953.37
672.282	6848.92
672.473	6873.5
672.664	6975.89
672.855	6775.19
673.046	6777.24
673.237	6832.54
673.428	6738.33
673.619	6738.33
673.809	6656.41
674	6777.24
674.191	6631.83
674.382	6539.68
674.573	6670.75
674.764	6525.34
674.954	6617.5
675.145	6662.55
675.336	6410.65
675.527	6566.3
675.717	6451.61
675.908	6365.6
676.099	6465.95
676.289	6212
676.48	6242.72
676.671	6433.18
676.861	6310.3
677.052	6355.36
677.243	6265.25
677.433	6277.54
677.624	6171.04
677.814	6224.29
678.005	6197.67
678.195	6181.28
678.386	5953.96
678.576	6111.65
678.767	6089.12
678.957	6240.67
679.148	6013.35
679.338	5900.71
679.529	5925.29
679.719	5859.75
679.909	5919.14
680.1	6056.36
680.29	5833.13
680.481	5964.2
680.671	5982.63
680.861	5982.63
681.052	5667.24
681.242	5884.33
681.432	5949.86
681.622	5804.46
681.813	5812.65
682.003	5736.87
682.193	5689.77
682.383	5712.3
682.573	5640.62
682.764	5755.3
682.954	5687.72
683.144	5695.91
683.334	5700.01
683.524	5634.47
683.714	5579.18
683.904	5564.84
684.094	5642.67
684.284	5691.82
684.474	5499.31
684.664	5607.85
684.854	5448.11
685.044	5374.38
685.234	5409.2
685.424	5407.15
685.614	5368.24
685.804	5460.4
685.994	5284.27
686.184	5423.53
686.374	5276.08
686.564	5095.86
686.753	5290.42
686.943	5405.1
687.133	5319.09
687.323	5374.38
687.513	5224.88
687.702	4987.32
687.892	5235.12
688.082	5054.9
688.272	5159.35
688.461	5009.84
688.651	5073.33
688.841	5005.75
689.03	4915.64
689.22	5013.94
689.41	4995.51
689.599	4954.55
689.789	4970.93
689.979	4938.16
690.168	4934.07
690.358	4704.7
690.547	4921.78
690.737	4768.18
690.926	4794.81
691.116	4647.35
691.305	4633.02
691.495	4633.02
691.684	4581.82
691.874	4506.04
692.063	4563.39
692.252	4559.29
692.442	4565.43
692.631	4434.36
692.82	4600.25
693.01	4559.29
693.199	4356.54
693.388	4583.87
693.578	4450.75
693.767	4370.88
693.956	4325.82
694.146	4465.08
694.335	4397.5
694.524	4303.29
694.713	4264.38
694.902	4317.63
695.092	4356.54
695.281	4190.66
695.47	4293.05
695.659	4334.01
695.848	4168.13
696.037	4323.77
696.226	4239.81
696.415	4141.5
696.604	4299.2
696.793	4239.81
696.982	4133.31
697.171	4133.31
697.36	4331.97
697.549	4221.38
697.738	4010.43
697.927	4008.39
698.116	4051.39
698.305	4094.4
698.494	4073.92
698.683	4080.07
698.872	4051.39
699.061	3977.67
699.25	3957.19
699.438	3893.7
699.627	3961.28
699.816	4112.83
700.005	4018.63
700.193	4082.11
700.382	3949
700.571	3785.16
700.76	3959.24
700.948	4006.34
701.137	3803.59
701.326	3928.52
701.514	3813.83
701.703	3846.6
701.892	3764.68
702.08	3854.79
702.269	3899.84
702.457	3805.64
702.646	3725.77
702.834	3705.29
703.023	3805.64
703.212	3850.69
703.4	3699.14
703.589	3686.86
703.777	3785.16
703.965	3543.5
704.154	3715.53
704.342	3656.14
704.531	3799.49
704.719	3506.63
704.907	3598.79
705.096	3649.99
705.284	3559.88
705.472	3658.18
705.661	3582.41
705.849	3758.53
706.037	3629.51
706.226	3592.65
706.414	3580.36
706.602	3643.85
706.79	3613.13
706.979	3553.74
707.167	3672.52
707.355	3531.21
707.543	3631.56
707.731	3613.13
707.919	3508.68
708.107	3557.83
708.296	3572.17
708.484	3461.58
708.672	3486.15
708.86	3539.4
709.048	3480.01
709.236	3357.13
709.424	3613.13
709.612	3381.71
709.8	3432.91
709.988	3439.05
710.176	3447.24
710.364	3375.56
710.551	3314.13
710.739	3404.24
710.927	3484.11
711.115	3375.56
711.303	3310.03
711.491	3402.19
711.679	3447.24
711.866	3381.71
712.054	3348.94
712.242	3404.24
712.43	3396.04
712.617	3281.36
712.805	3240.4
712.993	3338.7
713.181	3310.03
713.368	3328.46
713.556	3383.76
713.744	3264.97
713.931	3295.69
714.119	3279.31
714.306	3367.37
714.494	3322.32
714.682	3203.54
714.869	3226.06
715.057	3203.54
715.244	3162.58
715.432	3217.87
715.619	3211.73
715.807	3242.45
715.994	3160.53
716.182	3160.53
716.369	3164.62
716.556	3164.62
716.744	3117.52
716.931	3041.75
717.119	3213.77
717.306	3107.28
717.493	3099.09
717.681	3101.14
717.868	3185.1
718.055	3170.77
718.242	3127.76
718.43	3033.55
718.617	3164.62
718.804	3051.99
718.991	2978.26
719.179	2994.64
719.366	3025.36
719.553	3111.38
719.74	2998.74
719.927	2972.11
720.114	3094.99
720.301	3017.17
720.488	3131.86
720.676	2937.3
720.863	3119.57
721.05	2953.68
721.237	3082.7
721.424	3015.12
721.611	2963.92
721.798	2937.3
721.985	2988.5
722.172	3068.37
722.358	2918.87
722.545	2916.82
722.732	3021.27
722.919	2929.11
723.106	2853.33
723.293	2820.56
723.48	2920.92
723.667	2871.76
723.853	2937.3
724.04	2961.87
724.227	2802.13
724.414	2927.06
724.6	2918.87
724.787	2845.14
724.974	2888.15
725.161	2910.68
725.347	2892.24
725.534	2783.7
725.72	2750.93
725.907	2798.04
726.094	2769.37
726.28	2959.83
726.467	2814.42
726.653	2890.2
726.84	2832.85
727.027	2824.66
727.213	2681.3
727.4	2742.74
727.586	2785.75
727.773	2812.37
727.959	2882
728.145	2765.27
728.332	2886.1
728.518	2636.25
728.705	2787.8
728.891	2634.2
729.077	2734.55
729.264	2683.35
729.45	2638.3
729.636	2806.23
729.823	2732.5
730.009	2736.6
730.195	2748.89
730.382	2775.51
730.568	2669.02
730.754	2681.3
730.94	2671.06
731.126	2658.78
731.313	2613.72
731.499	2687.45
731.685	2734.55
731.871	2726.36
732.057	2669.02
732.243	2701.78
732.429	2648.54
732.615	2654.68
732.801	2679.26
732.987	2564.57
733.173	2568.66
733.359	2548.19
733.545	2589.14
733.731	2630.1
733.917	2480.6
734.103	2566.62
734.289	2552.28
734.475	2523.61
734.661	2560.47
734.847	2597.34
735.033	2652.63
735.219	2640.34
735.404	2494.94
735.59	2480.6
735.776	2529.75
735.962	2437.59
736.148	2562.52
736.333	2666.97
736.519	2505.18
736.705	2531.8
736.89	2542.04
737.076	2574.81
737.262	2507.23
737.447	2609.62
737.633	2548.19
737.819	2556.38
738.004	2480.6
738.19	2525.66
738.375	2429.4
738.561	2544.09
738.747	2417.12
738.932	2374.11
739.118	2466.27
739.303	2388.44
739.489	2378.2
739.674	2335.2
739.859	2449.88
740.045	2460.12
740.23	2347.48
740.416	2390.49
740.601	2402.78
740.786	2343.39
740.972	2351.58
741.157	2347.48
741.342	2290.14
741.528	2296.28
741.713	2255.33
741.898	2349.53
742.084	2245.09
742.269	2238.94
742.454	2208.22
742.639	2245.09
742.824	2257.37
743.01	2271.71
743.195	2345.44
743.38	2212.32
743.565	2279.9
743.75	2249.18
743.935	2216.41
744.12	2238.94
744.305	2167.26
744.49	2134.5
744.675	2136.54
744.86	2126.3
745.045	2175.45
745.23	2251.23
745.415	2062.82
745.6	2073.06
745.785	2073.06
745.97	2032.1
746.155	1974.75
746.34	2169.31
746.525	2038.24
746.71	2177.5
746.895	2023.91
747.079	2050.53
747.264	1927.65
747.449	2079.2
747.634	2050.53
747.819	1991.14
748.003	1987.04
748.188	1800.68
748.373	1939.94
748.557	1858.02
748.742	1890.79
748.927	1913.31
749.111	1888.74
749.296	1759.72
749.481	1772
749.665	1870.31
749.85	1784.29
750.034	1823.2
750.219	1874.4
750.404	1739.24
750.588	1841.64
750.773	1798.63
750.957	1806.82
751.141	1698.28
751.326	1796.58
751.51	1735.14
751.695	1825.25
751.879	1714.66
752.064	1776.1
752.248	1634.79
752.432	1765.86
752.617	1640.93
752.801	1632.74
752.985	1653.22
753.17	1657.32
753.354	1581.54
753.538	1593.83
753.722	1520.1
753.907	1585.64
754.091	1497.58
754.275	1438.19
754.459	1497.58
754.643	1473
754.828	1413.61
755.012	1546.73
755.196	1614.31
755.38	1561.06
755.564	1499.63
755.748	1542.63
755.932	1456.62
756.116	1511.91
756.3	1450.47
756.484	1421.8
756.668	1403.37
756.852	1341.93
757.036	1495.53
757.22	1436.14
757.404	1307.12
757.588	1524.2
757.772	1376.75
757.956	1370.6
758.14	1337.84
758.323	1479.15
758.507	1470.95
758.691	1327.6
758.875	1333.74
759.059	1317.36
759.242	1366.51
759.426	1319.4
759.61	1163.76
759.794	1278.44
759.977	1202.67
760.161	1346.03
760.345	1221.1
760.528	1280.49
760.712	1188.33
760.895	1243.63
761.079	1198.57
761.263	1233.39
761.446	1206.77
761.63	1184.24
761.813	1245.68
761.997	1235.44
762.18	1231.34
762.364	1163.76
762.547	1204.72
762.731	1147.37
762.914	1133.04
763.098	1163.76
763.281	1034.74
763.464	1047.02
763.648	1159.66
763.831	1128.94
764.015	1155.57
764.198	1073.65
764.381	1122.8
764.564	1051.12
764.748	1108.46
764.931	1178.09
765.114	1130.99
765.297	1081.84
765.481	1112.56
765.664	1083.89
765.847	1053.17
766.03	1055.22
766.213	1051.12
766.397	999.92
766.58	963.06
766.763	1106.42
766.946	1075.7
767.129	907.76
767.312	1079.79
767.495	1022.45
767.678	1049.07
767.861	1034.74
768.044	999.92
768.227	901.62
768.41	997.87
768.593	1071.6
768.776	942.58
768.959	989.68
769.142	1014.26
769.324	991.73
769.507	926.19
769.69	948.72
769.873	971.25
770.056	1081.84
770.239	1022.45
770.421	993.78
770.604	930.29
770.787	885.23
770.97	950.77
771.152	963.06
771.335	918
771.518	948.72
771.7	862.71
771.883	1036.78
772.066	805.36
772.248	901.62
772.431	858.61
772.613	936.43
772.796	788.98
772.978	889.33
773.161	879.09
773.343	821.75
773.526	852.47
773.708	803.32
773.891	778.74
774.073	793.08
774.256	915.95
774.438	887.28
774.621	776.69
774.803	825.84
774.985	799.22
775.168	725.49
775.35	731.64
775.532	846.32
775.715	782.84
775.897	735.73
776.079	719.35
776.261	750.07
776.444	791.03
776.626	721.4
776.808	793.08
776.99	791.03
777.173	752.12
777.355	745.97
777.537	719.35
777.719	788.98
777.901	788.98
778.083	791.03
778.265	723.44
778.447	729.59
778.629	793.08
778.811	729.59
778.993	717.3
779.175	707.06
779.357	721.4
779.539	633.33
779.721	680.44
779.903	678.39
780.085	700.92
780.267	571.9
780.449	684.53
780.631	700.92
780.812	682.49
780.994	629.24
781.176	621.05
781.358	610.81
781.54	569.85
781.721	592.37
781.903	627.19
782.085	573.94
782.267	629.24
782.448	580.09
782.63	602.61
782.812	588.28
782.993	563.7
783.175	588.28
783.357	610.81
783.538	465.4
783.72	567.8
783.901	586.23
784.083	571.9
784.264	498.17
784.446	532.98
784.627	522.74
784.809	483.83
784.99	575.99
785.172	553.46
785.353	506.36
785.535	520.7
785.716	475.64
785.897	502.26
786.079	512.5
786.26	504.31
786.441	543.22
786.623	451.07
786.804	516.6
786.985	457.21
787.167	446.97
787.348	471.54
787.529	500.22
787.71	506.36
787.891	449.02
788.073	430.59
788.254	377.34
788.435	510.46
788.616	428.54
788.797	354.81
788.978	416.25
789.159	375.29
789.34	444.92
789.522	393.72
789.703	365.05
789.884	387.58
790.065	434.68
790.246	438.78
790.427	485.88
790.607	451.07
790.788	383.48
790.969	324.09
791.15	475.64
791.331	463.35
791.512	354.81
791.693	416.25
791.874	436.73
792.054	459.26
792.235	416.25
792.416	369.15
792.597	422.39
792.778	369.15
792.958	389.63
793.139	317.95
793.32	432.63
793.5	387.58
793.681	358.91
793.862	438.78
794.042	387.58
794.223	317.95
794.404	295.42
794.584	268.8
794.765	340.47
794.945	350.71
795.126	369.15
795.306	320
795.487	305.66
795.667	338.43
795.848	375.29
796.028	338.43
796.209	287.23
796.389	346.62
796.57	326.14
796.75	311.8
796.93	283.13
797.111	315.9
797.291	295.42
797.471	389.63
797.652	322.04
797.832	301.56
798.012	385.53
798.192	274.94
798.373	287.23
798.553	266.75
798.733	262.65
798.913	342.52
799.093	289.28
799.274	254.46
799.454	242.17
799.634	350.71
799.814	207.36
799.994	287.23
800.174	260.6
800.354	307.71
800.534	217.6
800.714	256.51
800.894	268.8
801.074	248.32
801.254	270.84
801.434	276.99
801.614	195.07
801.794	262.65
801.974	594.42
802.154	279.04
802.334	279.04
802.514	236.03
802.693	373.24
802.873	170.49
803.053	274.94
803.233	238.08
803.413	207.36
803.592	197.12
803.772	250.36
803.952	272.89
804.131	178.69
804.311	305.66
804.491	283.13
804.67	258.56
804.85	188.93
805.03	221.69
805.209	264.7
805.389	168.45
805.568	233.98
805.748	217.6
805.928	246.27
806.107	233.98
806.287	197.12
806.466	244.22
806.646	240.12
806.825	270.84
807.004	242.17
807.184	254.46
807.363	283.13
807.543	182.78
807.722	242.17
807.901	266.75
808.081	240.12
808.26	184.83
808.439	217.6
808.619	233.98
808.798	223.74
808.977	154.11
809.156	186.88
809.336	236.03
809.515	207.36
809.694	193.02
809.873	201.21
810.052	176.64
810.231	170.49
810.411	223.74
810.59	238.08
810.769	168.45
810.948	197.12
811.127	172.54
811.306	172.54
811.485	117.25
811.664	139.77
811.843	172.54
812.022	203.26
812.201	182.78
812.38	107.01
812.559	160.25
812.737	203.26
812.916	158.21
813.095	158.21
813.274	190.97
813.453	174.59
813.632	131.58
813.811	193.02
813.989	107.01
814.168	143.87
814.347	154.11
814.526	279.04
814.704	217.6
814.883	160.25
815.062	90.62
815.24	176.64
815.419	176.64
815.598	233.98
815.776	168.45
815.955	127.49
816.133	76.29
816.312	211.45
816.49	160.25
816.669	252.41
816.847	170.49
817.026	150.01
817.204	170.49
817.383	125.44
817.561	141.82
817.74	211.45
817.918	150.01
818.097	188.93
818.275	131.58
818.453	104.96
818.632	172.54
818.81	113.15
818.988	154.11
819.167	174.59
819.345	178.69
819.523	109.05
819.701	133.63
819.879	150.01
820.058	174.59
820.236	119.29
820.414	170.49
820.592	133.63
820.77	197.12
820.948	193.02
821.127	117.25
821.305	205.31
821.483	119.29
821.661	195.07
821.839	145.92
822.017	152.06
822.195	180.73
822.373	61.95
822.551	156.16
822.729	174.59
822.907	125.44
823.085	139.77
823.262	182.78
823.44	92.67
823.618	72.19
823.796	98.81
823.974	125.44
824.152	139.77
824.329	166.4
824.507	190.97
824.685	143.87
824.863	172.54
825.04	98.81
825.218	49.66
825.396	139.77
825.574	74.24
825.751	158.21
825.929	53.76
826.107	139.77
826.284	74.24
826.462	158.21
826.639	139.77
826.817	123.39
826.994	123.39
827.172	137.73
827.349	174.59
827.527	131.58
827.704	20.99
827.882	70.14
828.059	125.44
828.237	57.86
828.414	70.14
828.591	78.33
828.769	37.38
828.946	35.33
829.124	137.73
829.301	164.35
829.478	94.72
829.655	41.47
829.833	109.05
830.01	45.57
830.187	98.81
830.364	74.24
830.542	96.77
830.719	145.92
830.896	137.73
831.073	131.58
831.25	147.97
831.427	119.29
831.604	102.91
831.782	109.05
831.959	57.86
832.136	80.38
832.313	76.29
832.49	86.53
832.667	37.38
832.844	90.62
833.021	141.82
833.198	74.24
833.374	92.67
833.551	127.49
833.728	115.2
833.905	39.42
834.082	82.43
834.259	135.68
834.436	121.34
834.612	104.96
834.789	37.38
834.966	66.05
835.143	70.14
835.319	145.92
835.496	111.1
835.673	158.21
835.85	125.44
836.026	37.38
836.203	156.16
836.38	96.77
836.556	109.05
836.733	127.49
836.909	78.33
837.086	76.29
837.262	33.28
837.439	4.61
837.616	104.96
837.792	35.33
837.968	74.24
838.145	57.86
838.321	100.86
838.498	66.05
838.674	55.81
838.851	39.42
839.027	61.95
839.203	49.66
839.38	80.38
839.556	49.66
839.732	145.92
839.909	125.44
840.085	104.96
840.261	20.99
840.437	27.14
840.614	72.19
840.79	104.96
840.966	82.43
841.142	86.53
841.318	133.63
841.494	78.33
841.671	35.33
841.847	41.47
842.023	88.57
842.199	86.53
842.375	66.05
842.551	-19.97
842.727	82.43
842.903	66.05
843.079	-28.16
843.255	47.62
843.431	88.57
843.607	168.45
843.783	66.05
843.959	61.95
844.134	45.57
844.31	49.66
844.486	53.76
844.662	88.57
844.838	100.86
845.013	72.19
845.189	55.81
845.365	59.9
845.541	143.87
845.716	-19.97
845.892	82.43
846.068	-50.69
846.244	53.76
846.419	-3.58
846.595	49.66
846.77	6.66
846.946	39.42
847.122	57.86
847.297	20.99
847.473	66.05
847.648	-71.17
847.824	43.52
847.999	14.85
848.175	23.04
848.35	74.24
848.526	53.76
848.701	41.47
848.876	37.38
849.052	86.53
849.227	-5.63
849.403	10.75
849.578	125.44
849.753	55.81
849.929	90.62
850.104	90.62
850.279	10.75
850.454	14.85
850.63	76.29
850.805	66.05
850.98	64
851.155	66.05
851.33	2.56
851.505	33.28
851.681	76.29
851.856	113.15
852.031	27.14
852.206	78.33
852.381	131.58
852.556	33.28
852.731	-1.54
852.906	39.42
853.081	43.52
853.256	49.66
853.431	64
853.606	37.38
853.781	94.72
853.956	6.66
854.131	55.81
854.305	39.42
854.48	61.95
854.655	68.09
854.83	111.1
855.005	61.95
855.18	-1.54
855.354	84.48
855.529	29.18
855.704	49.66
855.879	90.62
856.053	82.43
856.228	66.05
856.403	4.61
856.577	94.72
856.752	35.33
856.926	35.33
857.101	96.77
857.276	16.9
857.45	74.24
857.625	160.25
857.799	20.99
857.974	121.34
858.148	-15.87
858.323	51.71
858.497	16.9
858.672	70.14
858.846	55.81
859.02	82.43
859.195	-17.92
859.369	86.53
859.543	-30.21
859.718	51.71
859.892	121.34
860.066	29.18
860.241	-9.73
860.415	0.51
860.589	68.09
860.763	43.52
860.938	39.42
861.112	53.76
861.286	27.14
861.46	80.38
861.634	43.52
861.808	127.49
861.982	37.38
862.157	74.24
862.331	41.47
862.505	59.9
862.679	51.71
862.853	41.47
863.027	27.14
863.201	27.14
863.375	2.56
863.549	10.75
863.722	-13.82
863.896	76.29
864.07	66.05
864.244	2.56
864.418	47.62
864.592	43.52
864.766	27.14
864.939	25.09
865.113	-42.5
865.287	129.53
865.461	-5.63
865.634	23.04
865.808	111.1
865.982	43.52
866.156	35.33
866.329	-24.06
866.503	41.47
866.676	94.72
866.85	20.99
867.024	6.66
867.197	-5.63
867.371	-15.87
867.544	102.91
867.718	33.28
867.891	6.66
868.065	80.38
868.238	31.23
868.412	51.71
868.585	33.28
868.759	-17.92
868.932	-5.63
869.105	27.14
869.279	10.75
869.452	23.04
869.625	4.61
869.799	-7.68
869.972	12.8
870.145	35.33
870.319	41.47
870.492	6.66
870.665	-15.87
870.838	82.43
871.011	18.94
871.185	45.57
871.358	18.94
871.531	-36.35
871.704	6.66
871.877	6.66
872.05	6.66
872.223	35.33
872.396	0.51
872.569	35.33
872.742	25.09
872.915	107.01
873.088	29.18
873.261	41.47
873.434	14.85
873.607	-5.63
873.78	98.81
873.953	-26.11
874.126	61.95
874.299	4.61
874.471	39.42
874.644	70.14
874.817	35.33
874.99	2.56
875.163	20.99
875.335	49.66
875.508	72.19
875.681	23.04
875.853	16.9
876.026	68.09
876.199	16.9
876.371	64
876.544	10.75
876.717	-15.87
876.889	-1.54
877.062	78.33
877.234	-81.41
877.407	68.09
877.579	8.7
877.752	53.76
877.924	2.56
878.097	16.9
878.269	51.71
878.442	59.9
878.614	-17.92
878.786	78.33
878.959	-44.54
879.131	33.28
879.303	25.09
879.476	29.18
879.648	109.05
879.82	80.38
879.993	18.94
880.165	109.05
880.337	25.09
880.509	117.25
880.681	-11.78
880.854	0.51
881.026	-22.02
881.198	96.77
881.37	16.9
881.542	59.9
881.714	25.09
881.886	12.8
882.058	41.47
882.23	70.14
882.402	-28.16
882.574	39.42
882.746	16.9
882.918	64
883.09	92.67
883.262	-13.82
883.434	43.52
883.606	6.66
883.778	-24.06
883.95	43.52
884.122	2.56
884.293	-5.63
884.465	66.05
884.637	-42.5
884.809	18.94
884.98	-26.11
885.152	57.86
885.324	12.8
885.496	33.28
885.667	0.51
885.839	-5.63
886.011	86.53
886.182	29.18
886.354	-15.87
886.525	70.14
886.697	-5.63
886.869	14.85
887.04	-9.73
887.212	23.04
887.383	68.09
887.555	37.38
887.726	12.8
887.897	14.85
888.069	59.9
888.24	94.72
888.412	14.85
888.583	41.47
888.754	25.09
888.926	-19.97
889.097	-38.4
889.268	0.51
889.44	64
889.611	20.99
889.782	16.9
889.953	-9.73
890.125	25.09
890.296	-44.54
890.467	41.47
890.638	51.71
890.809	51.71
890.98	-48.64
891.151	51.71
891.323	37.38
891.494	72.19
891.665	-19.97
891.836	29.18
892.007	45.57
892.178	29.18
892.349	76.29
892.52	90.62
892.691	-30.21
892.862	16.9
893.032	-65.02
893.203	39.42
893.374	23.04
893.545	41.47
893.716	25.09
893.887	74.24
894.057	70.14
894.228	45.57
894.399	37.38
894.57	12.8
894.74	66.05
894.911	90.62
895.082	-36.35
895.253	74.24
895.423	16.9
895.594	61.95
895.764	72.19
895.935	55.81
896.106	14.85
896.276	43.52
896.447	-7.68
896.617	6.66
896.788	2.56
896.958	-3.58
897.129	27.14
897.299	-28.16
897.47	92.67
897.64	14.85
897.81	47.62
897.981	8.7
898.151	12.8
898.322	-17.92
898.492	27.14
898.662	4.61
898.832	-19.97
899.003	61.95
899.173	35.33
899.343	43.52
899.513	43.52
