Data from USB4F104151__12__12-35-08-944.txt Node

Date: Fri Mar 14 12:35:08 EDT 2025
User: louis
Spectrometer: USB4F10415
Trigger mode: 4
Integration Time (sec): 2.000000E-2
Scans to average: 1
Electric dark correction enabled: true
Nonlinearity correction enabled: false
Boxcar width: 0
XAxis mode: Wavelengths
Number of Pixels in Spectrum: 3648
>>>>>Begin Spectral Data<<<<<
178.204	-58.88
178.424	-58.88
178.644	-58.88
178.864	-83.45
179.084	-75.26
179.304	-46.59
179.524	61.95
179.744	-17.92
179.964	-1.54
180.184	8.7
180.404	31.23
180.624	31.23
180.844	27.14
181.064	-22.02
181.283	-30.21
181.503	-36.35
181.723	-5.63
181.943	-40.45
182.163	45.57
182.383	-28.16
182.602	16.9
182.822	41.47
183.042	37.38
183.262	-19.97
183.482	39.42
183.701	6.66
183.921	43.52
184.141	102.91
184.361	76.29
184.58	18.94
184.8	-42.5
185.02	78.33
185.239	76.29
185.459	-42.5
185.679	27.14
185.898	-50.69
186.118	-5.63
186.338	33.28
186.557	23.04
186.777	-62.98
186.997	-24.06
187.216	29.18
187.436	47.62
187.655	16.9
187.875	10.75
188.095	49.66
188.314	37.38
188.534	37.38
188.753	-11.78
188.973	-1.54
189.192	-26.11
189.412	-1.54
189.631	-11.78
189.851	57.86
190.07	84.48
190.29	39.42
190.509	104.96
190.729	-67.07
190.948	68.09
191.168	104.96
191.387	70.14
191.607	-3.58
191.826	4.61
192.045	57.86
192.265	57.86
192.484	-5.63
192.704	-36.35
192.923	-28.16
193.142	41.47
193.362	57.86
193.581	43.52
193.8	16.9
194.02	70.14
194.239	-32.26
194.458	29.18
194.678	-52.74
194.897	49.66
195.116	18.94
195.335	61.95
195.555	61.95
195.774	-26.11
195.993	43.52
196.212	-32.26
196.432	23.04
196.651	-3.58
196.87	53.76
197.089	23.04
197.308	-28.16
197.528	2.56
197.747	12.8
197.966	61.95
198.185	57.86
198.404	0.51
198.623	-54.78
198.842	39.42
199.062	-5.63
199.281	0.51
199.5	23.04
199.719	35.33
199.938	-3.58
200.157	82.43
200.376	53.76
200.595	33.28
200.814	0.51
201.033	14.85
201.252	45.57
201.471	152.06
201.69	70.14
201.909	-32.26
202.128	53.76
202.347	76.29
202.566	-69.12
202.785	53.76
203.004	-7.68
203.223	-34.3
203.442	66.05
203.661	45.57
203.879	-1.54
204.098	45.57
204.317	-34.3
204.536	23.04
204.755	76.29
204.974	33.28
205.193	0.51
205.411	119.29
205.63	18.94
205.849	-26.11
206.068	2.56
206.287	-58.88
206.505	78.33
206.724	25.09
206.943	14.85
207.162	18.94
207.381	-13.82
207.599	16.9
207.818	45.57
208.037	-50.69
208.255	0.51
208.474	-17.92
208.693	23.04
208.911	47.62
209.13	23.04
209.349	29.18
209.567	2.56
209.786	59.9
210.005	-19.97
210.223	33.28
210.442	-54.78
210.661	59.9
210.879	51.71
211.098	51.71
211.316	64
211.535	41.47
211.753	-85.5
211.972	16.9
212.191	8.7
212.409	16.9
212.628	-1.54
212.846	162.3
213.065	78.33
213.283	76.29
213.502	27.14
213.72	-42.5
213.938	-48.64
214.157	12.8
214.375	53.76
214.594	78.33
214.812	25.09
215.031	-1.54
215.249	14.85
215.467	-48.64
215.686	41.47
215.904	92.67
216.122	51.71
216.341	-36.35
216.559	55.81
216.778	37.38
216.996	25.09
217.214	6.66
217.432	14.85
217.651	-28.16
217.869	-36.35
218.087	86.53
218.306	0.51
218.524	45.57
218.742	20.99
218.96	43.52
219.179	0.51
219.397	4.61
219.615	14.85
219.833	29.18
220.051	-73.21
220.27	23.04
220.488	45.57
220.706	6.66
220.924	31.23
221.142	53.76
221.36	-3.58
221.578	51.71
221.796	-28.16
222.015	-9.73
222.233	51.71
222.451	76.29
222.669	49.66
222.887	74.24
223.105	66.05
223.323	49.66
223.541	18.94
223.759	-71.17
223.977	-58.88
224.195	88.57
224.413	18.94
224.631	4.61
224.849	-15.87
225.067	68.09
225.285	14.85
225.503	74.24
225.721	-54.78
225.939	-5.63
226.157	31.23
226.375	8.7
226.592	-44.54
226.81	12.8
227.028	12.8
227.246	47.62
227.464	35.33
227.682	31.23
227.9	29.18
228.117	88.57
228.335	20.99
228.553	96.77
228.771	4.61
228.989	31.23
229.206	-36.35
229.424	-26.11
229.642	-62.98
229.86	-17.92
230.077	-1.54
230.295	31.23
230.513	20.99
230.731	39.42
230.948	68.09
231.166	-13.82
231.384	57.86
231.601	100.86
231.819	45.57
232.037	27.14
232.254	25.09
232.472	23.04
232.689	12.8
232.907	12.8
233.125	94.72
233.342	2.56
233.56	25.09
233.777	2.56
233.995	-11.78
234.213	-7.68
234.43	72.19
234.648	76.29
234.865	43.52
235.083	74.24
235.3	6.66
235.518	96.77
235.735	31.23
235.953	76.29
236.17	-22.02
236.388	10.75
236.605	-58.88
236.822	-3.58
237.04	76.29
237.257	25.09
237.475	43.52
237.692	78.33
237.909	-65.02
238.127	-28.16
238.344	29.18
238.562	57.86
238.779	113.15
238.996	-17.92
239.214	31.23
239.431	82.43
239.648	23.04
239.865	10.75
240.083	-5.63
240.3	39.42
240.517	12.8
240.735	16.9
240.952	10.75
241.169	-1.54
241.386	-26.11
241.603	-5.63
241.821	18.94
242.038	70.14
242.255	49.66
242.472	33.28
242.689	8.7
242.907	-5.63
243.124	53.76
243.341	59.9
243.558	-7.68
243.775	-60.93
243.992	49.66
244.209	129.53
244.426	43.52
244.643	55.81
244.86	6.66
245.078	4.61
245.295	84.48
245.512	-9.73
245.729	37.38
245.946	80.38
246.163	23.04
246.38	-11.78
246.597	-5.63
246.814	31.23
247.031	68.09
247.248	14.85
247.464	-9.73
247.681	-13.82
247.898	92.67
248.115	27.14
248.332	29.18
248.549	25.09
248.766	47.62
248.983	88.57
249.2	78.33
249.417	37.38
249.633	-46.59
249.85	-9.73
250.067	12.8
250.284	29.18
250.501	53.76
250.717	61.95
250.934	14.85
251.151	-28.16
251.368	-5.63
251.585	82.43
251.801	23.04
252.018	-26.11
252.235	45.57
252.451	39.42
252.668	27.14
252.885	-26.11
253.102	53.76
253.318	51.71
253.535	-1.54
253.752	53.76
253.968	6.66
254.185	18.94
254.401	49.66
254.618	10.75
254.835	14.85
255.051	92.67
255.268	18.94
255.484	53.76
255.701	-28.16
255.917	-54.78
256.134	-7.68
256.351	64
256.567	4.61
256.784	35.33
257	-13.82
257.217	-9.73
257.433	100.86
257.65	20.99
257.866	-13.82
258.082	39.42
258.299	-13.82
258.515	41.47
258.732	-77.31
258.948	-42.5
259.165	14.85
259.381	-44.54
259.597	10.75
259.814	-15.87
260.03	-26.11
260.246	31.23
260.463	12.8
260.679	14.85
260.895	53.76
261.112	70.14
261.328	31.23
261.544	8.7
261.761	90.62
261.977	2.56
262.193	8.7
262.409	94.72
262.626	20.99
262.842	59.9
263.058	-7.68
263.274	41.47
263.49	37.38
263.707	23.04
263.923	88.57
264.139	23.04
264.355	117.25
264.571	33.28
264.787	51.71
265.004	92.67
265.22	68.09
265.436	-13.82
265.652	-46.59
265.868	0.51
266.084	6.66
266.3	25.09
266.516	-52.74
266.732	70.14
266.948	51.71
267.164	-5.63
267.38	55.81
267.596	45.57
267.812	57.86
268.028	41.47
268.244	33.28
268.46	92.67
268.676	10.75
268.892	10.75
269.108	-36.35
269.324	55.81
269.54	25.09
269.756	33.28
269.972	0.51
270.188	12.8
270.403	-3.58
270.619	14.85
270.835	72.19
271.051	2.56
271.267	-13.82
271.483	80.38
271.698	18.94
271.914	37.38
272.13	-62.98
272.346	53.76
272.562	4.61
272.777	12.8
272.993	104.96
273.209	72.19
273.425	-32.26
273.64	49.66
273.856	-36.35
274.072	12.8
274.287	66.05
274.503	27.14
274.719	18.94
274.934	20.99
275.15	39.42
275.366	25.09
275.581	0.51
275.797	12.8
276.012	64
276.228	8.7
276.444	51.71
276.659	25.09
276.875	-15.87
277.09	0.51
277.306	-28.16
277.521	125.44
277.737	4.61
277.952	80.38
278.168	53.76
278.383	115.2
278.599	4.61
278.814	-15.87
279.03	29.18
279.245	102.91
279.461	45.57
279.676	39.42
279.892	49.66
280.107	41.47
280.322	-77.31
280.538	23.04
280.753	45.57
280.969	33.28
281.184	51.71
281.399	-3.58
281.615	55.81
281.83	47.62
282.045	39.42
282.26	10.75
282.476	49.66
282.691	33.28
282.906	59.9
283.122	66.05
283.337	14.85
283.552	45.57
283.767	-32.26
283.983	35.33
284.198	10.75
284.413	53.76
284.628	-5.63
284.843	8.7
285.058	10.75
285.274	-19.97
285.489	4.61
285.704	41.47
285.919	-1.54
286.134	100.86
286.349	66.05
286.564	-32.26
286.779	45.57
286.995	-17.92
287.21	2.56
287.425	74.24
287.64	100.86
287.855	4.61
288.07	45.57
288.285	25.09
288.5	12.8
288.715	43.52
288.93	23.04
289.145	64
289.36	35.33
289.575	39.42
289.79	39.42
290.004	64
290.219	96.77
290.434	-15.87
290.649	61.95
290.864	98.81
291.079	37.38
291.294	37.38
291.509	51.71
291.724	104.96
291.938	-7.68
292.153	37.38
292.368	-9.73
292.583	47.62
292.798	-5.63
293.012	41.47
293.227	2.56
293.442	64
293.657	-26.11
293.871	66.05
294.086	-46.59
294.301	117.25
294.516	74.24
294.73	29.18
294.945	-58.88
295.16	20.99
295.374	61.95
295.589	12.8
295.804	25.09
296.018	29.18
296.233	51.71
296.447	0.51
296.662	-34.3
296.877	92.67
297.091	55.81
297.306	10.75
297.52	10.75
297.735	33.28
297.949	8.7
298.164	64
298.378	39.42
298.593	8.7
298.807	123.39
299.022	25.09
299.236	20.99
299.451	72.19
299.665	-1.54
299.88	53.76
300.094	107.01
300.309	25.09
300.523	37.38
300.737	27.14
300.952	43.52
301.166	4.61
301.381	6.66
301.595	-28.16
301.809	51.71
302.024	57.86
302.238	20.99
302.452	55.81
302.667	-44.54
302.881	66.05
303.095	23.04
303.309	51.71
303.524	49.66
303.738	53.76
303.952	-9.73
304.166	39.42
304.381	-3.58
304.595	45.57
304.809	82.43
305.023	33.28
305.237	4.61
305.452	-7.68
305.666	49.66
305.88	35.33
306.094	45.57
306.308	68.09
306.522	20.99
306.736	104.96
306.95	117.25
307.164	74.24
307.379	39.42
307.593	31.23
307.807	27.14
308.021	59.9
308.235	59.9
308.449	-40.45
308.663	107.01
308.877	119.29
309.091	104.96
309.305	29.18
309.519	-11.78
309.733	94.72
309.947	35.33
310.161	64
310.374	-15.87
310.588	6.66
310.802	49.66
311.016	35.33
311.23	74.24
311.444	86.53
311.658	20.99
311.872	14.85
312.085	90.62
312.299	55.81
312.513	37.38
312.727	2.56
312.941	72.19
313.154	37.38
313.368	41.47
313.582	102.91
313.796	115.2
314.009	59.9
314.223	64
314.437	64
314.651	10.75
314.864	68.09
315.078	35.33
315.292	53.76
315.505	-32.26
315.719	74.24
315.933	-17.92
316.146	39.42
316.36	35.33
316.573	25.09
316.787	51.71
317.001	76.29
317.214	33.28
317.428	57.86
317.641	18.94
317.855	23.04
318.068	23.04
318.282	96.77
318.495	109.05
318.709	43.52
318.922	-9.73
319.136	8.7
319.349	70.14
319.563	27.14
319.776	78.33
319.99	12.8
320.203	20.99
320.417	35.33
320.63	68.09
320.843	59.9
321.057	88.57
321.27	53.76
321.483	33.28
321.697	51.71
321.91	70.14
322.124	0.51
322.337	-44.54
322.55	25.09
322.763	74.24
322.977	43.52
323.19	41.47
323.403	18.94
323.617	41.47
323.83	80.38
324.043	61.95
324.256	72.19
324.469	6.66
324.683	47.62
324.896	47.62
325.109	78.33
325.322	41.47
325.535	66.05
325.748	16.9
325.962	-19.97
326.175	57.86
326.388	68.09
326.601	94.72
326.814	68.09
327.027	121.34
327.24	39.42
327.453	80.38
327.666	68.09
327.879	8.7
328.092	59.9
328.305	86.53
328.518	82.43
328.731	2.56
328.944	29.18
329.157	-15.87
329.37	49.66
329.583	35.33
329.796	92.67
330.009	-38.4
330.222	37.38
330.435	35.33
330.648	2.56
330.861	59.9
331.073	127.49
331.286	29.18
331.499	66.05
331.712	-7.68
331.925	59.9
332.138	27.14
332.35	162.3
332.563	16.9
332.776	39.42
332.989	-7.68
333.202	-7.68
333.414	64
333.627	113.15
333.84	35.33
334.053	72.19
334.265	64
334.478	12.8
334.691	107.01
334.903	92.67
335.116	10.75
335.329	84.48
335.541	-13.82
335.754	70.14
335.966	25.09
336.179	70.14
336.392	59.9
336.604	-26.11
336.817	2.56
337.029	-7.68
337.242	53.76
337.454	68.09
337.667	8.7
337.88	111.1
338.092	6.66
338.305	119.29
338.517	-11.78
338.729	107.01
338.942	59.9
339.154	-11.78
339.367	6.66
339.579	47.62
339.792	107.01
340.004	121.34
340.217	33.28
340.429	123.39
340.641	41.47
340.854	86.53
341.066	33.28
341.278	23.04
341.491	68.09
341.703	57.86
341.915	23.04
342.128	4.61
342.34	57.86
342.552	-24.06
342.764	8.7
342.977	49.66
343.189	49.66
343.401	45.57
343.613	37.38
343.826	14.85
344.038	18.94
344.25	92.67
344.462	37.38
344.674	25.09
344.886	49.66
345.099	61.95
345.311	59.9
345.523	39.42
345.735	55.81
345.947	66.05
346.159	102.91
346.371	66.05
346.583	8.7
346.795	78.33
347.007	-36.35
347.219	135.68
347.431	20.99
347.643	59.9
347.855	59.9
348.067	31.23
348.279	45.57
348.491	119.29
348.703	113.15
348.915	10.75
349.127	55.81
349.339	25.09
349.551	-22.02
349.763	64
349.975	-36.35
350.187	45.57
350.399	33.28
350.61	39.42
350.822	-30.21
351.034	14.85
351.246	0.51
351.458	20.99
351.669	145.92
351.881	49.66
352.093	18.94
352.305	53.76
352.517	61.95
352.728	51.71
352.94	80.38
353.152	16.9
353.363	-9.73
353.575	72.19
353.787	49.66
353.999	25.09
354.21	-5.63
354.422	43.52
354.633	-38.4
354.845	-3.58
355.057	18.94
355.268	25.09
355.48	31.23
355.692	0.51
355.903	33.28
356.115	37.38
356.326	-28.16
356.538	117.25
356.749	0.51
356.961	88.57
357.172	45.57
357.384	-15.87
357.595	98.81
357.807	59.9
358.018	37.38
358.23	64
358.441	16.9
358.653	72.19
358.864	72.19
359.075	37.38
359.287	80.38
359.498	47.62
359.709	94.72
359.921	51.71
360.132	143.87
360.344	80.38
360.555	84.48
360.766	23.04
360.977	6.66
361.189	55.81
361.4	33.28
361.611	61.95
361.823	27.14
362.034	82.43
362.245	10.75
362.456	64
362.667	20.99
362.879	12.8
363.09	180.73
363.301	23.04
363.512	127.49
363.723	-22.02
363.935	-1.54
364.146	107.01
364.357	78.33
364.568	72.19
364.779	0.51
364.99	86.53
365.201	14.85
365.412	107.01
365.623	57.86
365.834	-5.63
366.045	72.19
366.256	80.38
366.467	82.43
366.678	41.47
366.889	100.86
367.1	57.86
367.311	53.76
367.522	43.52
367.733	39.42
367.944	135.68
368.155	45.57
368.366	82.43
368.577	96.77
368.788	68.09
368.999	-5.63
369.209	47.62
369.42	96.77
369.631	127.49
369.842	68.09
370.053	43.52
370.264	45.57
370.474	84.48
370.685	39.42
370.896	66.05
371.107	68.09
371.317	61.95
371.528	20.99
371.739	-3.58
371.95	66.05
372.16	100.86
372.371	47.62
372.582	61.95
372.792	33.28
373.003	2.56
373.214	64
373.424	96.77
373.635	16.9
373.846	90.62
374.056	51.71
374.267	64
374.477	61.95
374.688	92.67
374.898	82.43
375.109	102.91
375.319	53.76
375.53	66.05
375.74	18.94
375.951	92.67
376.161	6.66
376.372	68.09
376.582	31.23
376.793	35.33
377.003	49.66
377.214	-36.35
377.424	92.67
377.635	74.24
377.845	-13.82
378.055	80.38
378.266	-28.16
378.476	80.38
378.686	90.62
378.897	111.1
379.107	-30.21
379.317	115.2
379.528	33.28
379.738	8.7
379.948	-9.73
380.158	90.62
380.369	94.72
380.579	35.33
380.789	31.23
380.999	111.1
381.21	53.76
381.42	86.53
381.63	68.09
381.84	107.01
382.05	35.33
382.261	57.86
382.471	125.44
382.681	104.96
382.891	109.05
383.101	82.43
383.311	-7.68
383.521	117.25
383.731	90.62
383.941	49.66
384.151	68.09
384.361	80.38
384.571	47.62
384.781	88.57
384.991	59.9
385.201	35.33
385.411	80.38
385.621	109.05
385.831	43.52
386.041	53.76
386.251	4.61
386.461	96.77
386.671	23.04
386.881	20.99
387.091	70.14
387.301	117.25
387.511	43.52
387.72	86.53
387.93	64
388.14	72.19
388.35	94.72
388.56	82.43
388.769	43.52
388.979	111.1
389.189	18.94
389.399	45.57
389.609	39.42
389.818	113.15
390.028	47.62
390.238	0.51
390.447	-22.02
390.657	57.86
390.867	43.52
391.076	41.47
391.286	119.29
391.496	86.53
391.705	35.33
391.915	107.01
392.125	125.44
392.334	12.8
392.544	131.58
392.753	61.95
392.963	41.47
393.172	100.86
393.382	98.81
393.591	129.53
393.801	96.77
394.01	117.25
394.22	45.57
394.429	92.67
394.639	45.57
394.848	133.63
395.058	135.68
395.267	113.15
395.477	137.73
395.686	96.77
395.895	141.82
396.105	152.06
396.314	88.57
396.524	68.09
396.733	143.87
396.942	127.49
397.152	64
397.361	111.1
397.57	66.05
397.78	174.59
397.989	82.43
398.198	160.25
398.407	88.57
398.617	145.92
398.826	215.55
399.035	233.98
399.244	92.67
399.453	127.49
399.663	129.53
399.872	170.49
400.081	129.53
400.29	119.29
400.499	147.97
400.708	137.73
400.917	184.83
401.127	150.01
401.336	104.96
401.545	223.74
401.754	154.11
401.963	195.07
402.172	152.06
402.381	139.77
402.59	123.39
402.799	162.3
403.008	164.35
403.217	154.11
403.426	170.49
403.635	225.79
403.844	213.5
404.053	121.34
404.262	80.38
404.471	195.07
404.68	219.64
404.888	150.01
405.097	147.97
405.306	209.4
405.515	264.7
405.724	197.12
405.933	231.93
406.142	225.79
406.35	139.77
406.559	236.03
406.768	221.69
406.977	360.95
407.185	285.18
407.394	303.61
407.603	258.56
407.812	252.41
408.02	291.32
408.229	291.32
408.438	256.51
408.646	246.27
408.855	266.75
409.064	358.91
409.272	348.67
409.481	358.91
409.69	440.83
409.898	430.59
410.107	393.72
410.315	416.25
410.524	373.24
410.733	426.49
410.941	502.26
411.15	438.78
411.358	469.5
411.567	535.03
411.775	483.83
411.984	551.42
412.192	594.42
412.401	551.42
412.609	659.96
412.818	582.14
413.026	627.19
413.234	649.72
413.443	750.07
413.651	655.86
413.86	766.45
414.068	844.28
414.276	862.71
414.485	739.83
414.693	799.22
414.901	840.18
415.11	862.71
415.318	932.34
415.526	954.87
415.734	956.91
415.943	997.87
416.151	1190.38
416.359	1040.88
416.567	1106.42
416.776	1102.32
416.984	1157.61
417.192	1262.06
417.4	1348.08
417.608	1237.49
417.817	1352.17
418.025	1368.56
418.233	1565.16
418.441	1464.81
418.649	1518.06
418.857	1712.61
419.065	1688.04
419.273	1690.09
419.481	1753.57
419.689	1874.4
419.897	1946.08
420.105	2044.38
420.313	2066.91
420.521	2087.39
420.729	2017.76
420.937	2286.05
421.145	2234.85
421.353	2415.07
421.561	2470.36
421.769	2513.37
421.977	2718.17
422.185	2693.59
422.393	2738.65
422.601	2994.64
422.809	2859.48
423.017	2990.55
423.224	3172.82
423.432	3291.6
423.64	3353.04
423.848	3426.76
424.056	3492.3
424.263	3654.09
424.471	3729.86
424.679	3711.43
424.887	3944.9
425.094	4168.13
425.302	4067.78
425.51	4327.87
425.718	4438.46
425.925	4424.12
426.133	4651.45
426.341	4929.97
426.548	4831.67
426.756	5063.09
426.964	5136.82
427.171	5360.05
427.379	5587.37
427.586	5630.38
427.794	5822.89
428.001	6173.09
428.209	6406.56
428.417	6255.01
428.624	6693.27
428.832	6779.29
429.039	6525.34
429.247	6592.92
429.454	7256.47
429.662	7750.03
429.869	7348.62
430.076	7938.44
430.284	7557.52
430.491	7901.58
430.699	8235.39
430.906	8417.66
431.114	8368.51
431.321	8749.43
431.528	8909.18
431.736	9652.59
431.943	10076.52
432.15	9677.16
432.358	9886.06
432.565	10455.39
432.772	10514.78
432.979	10932.57
433.187	11045.21
433.394	11026.78
433.601	11929.93
433.808	12044.62
434.016	11827.53
434.223	12253.51
434.43	13060.41
434.637	12677.44
434.844	13427
435.052	13891.88
435.259	13490.48
435.466	13685.04
435.673	13984.04
435.88	14680.35
436.087	15587.6
436.294	15358.23
436.501	15135
436.708	15468.82
436.915	16023.82
437.122	16476.42
437.329	16859.39
437.537	16998.65
437.743	17205.5
437.95	17068.28
438.157	18122.99
438.364	18667.75
438.571	18737.38
438.778	18735.33
438.985	20619.46
439.192	19673.3
439.399	20478.15
439.606	19808.47
439.813	21022.91
440.02	22380.71
440.227	21868.72
440.433	21702.84
440.64	21885.11
440.847	22284.46
441.054	22927.52
441.261	24285.33
441.467	24125.58
441.674	24500.36
441.881	25366.65
442.088	25231.49
442.294	25114.75
442.501	25798.77
442.708	26341.49
442.914	27144.29
443.121	28477.52
443.328	27662.43
443.534	29593.66
443.741	28962.89
443.948	28242
444.154	30462
444.361	30494.77
444.568	30722.09
444.774	31041.57
444.981	31029.29
445.187	31477.79
445.394	33177.61
445.6	32747.53
445.807	36079.58
446.013	34064.38
446.22	35203.05
446.426	36530.13
446.633	36835.28
446.839	37980.09
447.046	36302.81
447.252	38545.33
447.459	38442.93
447.665	38277.05
447.871	39772.07
448.078	41609.09
448.284	39358.38
448.491	40558.49
448.697	41916.29
448.903	42891.12
449.11	43048.82
449.316	42647.41
449.522	43278.19
449.728	44420.95
449.935	44881.75
450.141	44781.4
450.347	45793.09
450.553	44846.93
450.76	44644.18
450.966	45956.93
451.172	46042.95
451.378	46802.74
451.584	46491.45
451.791	47449.9
451.997	47138.61
452.203	47933.22
452.409	47779.62
452.615	47511.34
452.821	46079.81
453.027	45674.31
453.233	47724.33
453.44	45750.09
453.646	46462.78
453.852	46911.28
454.058	47615.79
454.264	45993.79
454.47	47390.51
454.676	45844.29
454.882	47712.04
455.088	43718.5
455.294	43812.71
455.5	44588.89
455.705	45147.98
455.911	43573.1
456.117	42538.87
456.323	42372.99
456.529	39909.28
456.735	41691.01
456.941	40746.9
457.147	39937.95
457.352	38563.76
457.558	38381.49
457.764	38422.45
457.97	37531.59
458.176	36751.31
458.381	37205.96
458.587	35225.57
458.793	35162.09
458.999	32899.08
459.204	35794.91
459.41	34613.23
459.616	32124.95
459.821	32610.32
460.027	32149.53
460.233	31979.54
460.438	30089.27
460.644	30328.88
460.85	29114.44
461.055	28475.47
461.261	28534.86
461.466	26351.73
461.672	25452.67
461.878	27572.32
462.083	25632.89
462.289	25294.97
462.494	24959.11
462.7	23867.54
462.905	23640.22
463.111	23980.18
463.316	24193.17
463.522	23650.46
463.727	23871.64
463.932	23476.38
464.138	23314.59
464.343	23271.58
464.549	22575.27
464.754	23482.52
464.959	23105.7
465.165	23128.22
465.37	22046.9
465.575	21571.77
465.781	22403.24
465.986	22474.92
466.191	22034.61
466.397	21305.53
466.602	20119.76
466.807	21158.08
467.012	21162.17
467.218	21061.82
467.423	20674.76
467.628	20924.61
467.833	21633.21
468.038	20510.92
468.244	20166.86
468.449	20795.59
468.654	20240.59
468.859	20494.54
469.064	20107.47
469.269	19417.3
469.474	19546.33
469.679	19921.1
469.885	19237.08
470.09	19609.81
470.295	19716.31
470.5	18798.82
470.705	19142.88
470.91	18778.34
471.115	18524.39
471.32	18786.53
471.525	18473.19
471.73	18180.33
471.935	17922.29
472.139	17494.26
472.344	17719.54
472.549	17694.96
472.754	17481.97
472.959	17082.62
473.164	16916.73
473.369	16398.6
473.574	17111.29
473.778	16742.66
473.983	16713.98
474.188	16677.12
474.393	15972.62
474.598	16032.01
474.802	15876.37
475.007	15759.63
475.212	15814.93
475.417	15137.05
475.621	15227.16
475.826	15190.3
476.031	14889.24
476.235	14637.34
476.44	14848.29
476.645	14627.1
476.849	14448.93
477.054	14303.53
477.259	14178.6
477.463	14039.34
477.668	13603.12
477.872	13812.01
478.077	13642.03
478.282	13371.7
478.486	13345.08
478.691	12865.85
478.895	13316.4
479.1	12894.52
479.304	13095.22
479.509	12771.65
479.713	13171
479.918	12611.9
480.122	12222.79
480.326	12548.42
480.531	12757.31
480.735	12431.68
480.94	12484.93
481.144	12691.77
481.348	12202.31
481.553	12230.98
481.757	12218.69
481.961	12390.72
482.166	12337.48
482.37	12349.76
482.574	11848.01
482.778	12024.14
482.983	12396.87
483.187	12104.01
483.391	12259.65
483.595	11993.42
483.8	11794.76
484.004	11989.32
484.208	12210.5
484.412	11911.5
484.616	11929.93
484.821	11993.42
485.025	11886.92
485.229	12192.07
485.433	12108.1
485.637	12056.9
485.841	12046.66
486.045	12020.04
486.249	12073.29
486.453	11813.2
486.657	12108.1
486.861	12165.45
487.065	11811.15
487.269	11778.38
487.473	11690.32
487.677	11870.54
487.881	12083.53
488.085	12255.56
488.289	12171.59
488.493	11864.39
488.697	12061
488.901	12325.19
489.105	11964.75
489.309	12214.6
489.512	12171.59
489.716	12288.32
489.92	11974.99
490.124	12040.52
490.328	12464.45
490.531	12271.94
490.735	12169.54
490.939	12415.3
491.143	12171.59
491.346	12464.45
491.55	12407.11
491.754	12587.33
491.958	12349.76
492.161	12570.94
492.365	12646.72
492.569	12659.01
492.772	12699.97
492.976	12788.03
493.18	12849.47
493.383	12888.38
493.587	13168.95
493.79	12972.35
493.994	13066.55
494.197	13211.96
494.401	13156.66
494.605	13216.05
494.808	13398.32
495.012	13609.26
495.215	13424.95
495.419	13596.98
495.622	13537.59
495.825	13646.13
496.029	13766.96
496.232	14444.84
496.436	14151.98
496.639	14418.21
496.843	14469.41
497.046	14684.45
497.249	14631.2
497.453	14758.17
497.656	15171.86
497.859	15046.94
498.063	15178.01
498.266	15313.17
498.469	15603.99
498.673	15341.85
498.876	15638.8
499.079	16093.45
499.282	16029.96
499.485	16431.37
499.689	16431.37
499.892	16808.19
500.095	16554.24
500.298	17043.71
500.501	16935.17
500.705	17287.42
500.908	17453.3
501.111	17914.09
501.314	17723.63
501.517	18157.8
501.72	18262.25
501.923	18262.25
502.126	18798.82
502.329	18923.74
502.532	18921.7
502.735	19204.31
502.938	19658.96
503.141	19679.44
503.344	19970.26
503.547	20011.21
503.75	20480.2
503.953	20580.55
504.156	20773.06
504.359	21049.53
504.562	21074.11
504.765	21553.34
504.968	21686.45
505.17	21760.18
505.373	22245.55
505.576	22450.35
505.779	22540.46
505.982	22505.64
506.185	23236.77
506.387	23410.84
506.59	23523.48
506.793	24232.08
506.996	23959.7
507.198	24264.85
507.401	24346.76
507.604	24606.86
507.807	25159.81
508.009	25796.73
508.212	25417.85
508.415	26046.58
508.617	26411.12
508.82	26200.18
509.022	26345.58
509.225	26818.66
509.428	26859.62
509.63	27494.49
509.833	27510.88
510.035	28110.93
510.238	27842.65
510.44	28291.15
510.643	28667.98
510.845	28760.14
511.048	28909.64
511.25	29182.02
511.453	29489.21
511.655	30529.58
511.858	30056.5
512.06	30572.59
512.262	30791.72
512.465	30926.89
512.667	31248.42
512.87	31846.43
513.072	31754.27
513.274	32268.31
513.477	32864.27
513.679	33312.77
513.881	33361.92
514.084	33439.75
514.286	33691.65
514.488	34189.3
514.69	34660.34
514.893	34811.88
515.095	35166.18
515.297	35125.22
515.499	35489.76
515.701	35936.22
515.904	36179.93
516.106	36974.54
516.308	37136.33
516.51	37488.58
516.712	37474.24
516.914	37793.73
517.116	38473.65
517.318	38721.46
517.52	38813.62
517.722	38965.17
517.925	39245.74
518.127	40169.37
518.329	40054.68
518.531	40013.73
518.733	40937.36
518.935	40974.22
519.136	41164.68
519.338	41596.81
519.54	41967.49
519.742	42551.16
519.944	42565.49
520.146	43026.29
520.348	42917.75
520.55	43325.29
520.752	43777.89
520.954	44328.8
521.155	43904.87
521.357	44830.55
521.559	44814.16
521.761	45406.03
521.963	45588.3
522.164	45758.28
522.366	46200.64
522.568	46690.1
522.77	46726.97
522.971	47245.1
523.173	47277.87
523.375	47298.35
523.576	47779.62
523.778	47812.39
523.98	48045.86
524.181	48453.4
524.383	48709.4
524.584	49227.54
524.786	49501.96
524.988	49131.28
525.189	50110.21
525.391	49991.43
525.592	50280.19
525.794	50390.78
525.995	50222.85
526.197	50542.33
526.398	50771.71
526.6	51269.36
526.801	51064.56
527.003	51281.65
527.204	51508.97
527.406	51867.37
527.607	51523.31
527.808	52338.4
528.01	51232.5
528.211	52313.83
528.412	52639.45
528.614	52352.74
528.815	52655.84
529.016	52834.01
529.218	53001.94
529.419	53139.16
529.62	52719.32
529.822	53096.15
530.023	52704.99
530.224	53305.04
530.425	53538.51
530.626	53296.85
530.828	52709.08
531.029	53849.8
531.23	53116.63
531.431	53309.14
531.632	53518.03
531.833	53796.56
532.035	53636.81
532.236	53796.56
532.437	53913.29
532.638	53898.95
532.839	53814.99
533.04	54445.76
533.241	53659.34
533.442	55174.84
533.643	53964.49
533.844	53808.84
534.045	53886.67
534.246	53579.47
534.447	54161.09
534.648	54140.61
534.849	54324.93
535.05	54034.12
535.251	54193.86
535.451	54030.02
535.652	54505.15
535.853	53999.3
536.054	54171.33
536.255	54365.89
536.456	53774.03
536.657	54591.17
536.857	53960.39
537.058	54009.54
537.259	54804.16
537.46	54527.68
537.66	54159.05
537.861	54505.15
538.062	54394.56
538.263	54423.23
538.463	53839.56
538.664	54312.64
538.865	54275.78
539.065	54093.51
539.266	53911.24
539.466	54423.23
539.667	53745.36
539.868	54759.1
540.068	54236.87
540.269	53915.34
540.469	54433.47
540.67	53561.04
540.87	53909.19
541.071	53976.78
541.271	53995.21
541.472	53845.71
541.672	53530.32
541.873	53855.95
542.073	53309.14
542.274	54623.93
542.474	53843.66
542.675	53401.3
542.875	54513.34
543.075	54007.5
543.276	53128.92
543.476	54093.51
543.676	53655.25
543.877	53944.01
544.077	53513.94
544.277	53800.65
544.478	53606.09
544.678	53706.44
544.878	53507.79
545.078	53513.94
545.279	53286.61
545.479	53546.7
545.679	53958.34
545.879	53452.5
546.079	53477.07
546.28	53663.44
546.48	53190.36
546.68	53696.2
546.88	53274.32
547.08	53675.72
547.28	53065.43
547.48	52625.12
547.68	53638.86
547.88	52838.11
548.081	54093.51
548.281	53671.63
548.481	53233.36
548.681	53614.29
548.881	53479.12
549.081	53010.14
549.28	53186.26
549.48	53382.87
549.68	53223.12
549.88	53638.86
550.08	53098.2
550.28	53466.83
550.48	53147.35
550.68	53210.84
550.88	52813.53
551.08	52913.88
551.279	53257.94
551.479	52786.91
551.679	53294.8
551.879	52936.41
552.079	53460.69
552.278	52791
552.478	52895.45
552.678	52823.77
552.878	53137.11
553.077	52797.15
553.277	52551.39
553.477	53350.1
553.676	52524.77
553.876	52690.65
554.076	52676.32
554.275	52551.39
554.475	52328.16
554.674	52465.38
554.874	52745.95
555.074	52160.23
555.273	52479.71
555.473	52737.76
555.672	52223.72
555.872	52270.82
556.071	52578.01
556.271	52416.22
556.47	52080.36
556.67	51388.14
556.869	52199.14
557.068	52098.79
557.268	51812.07
557.467	52033.25
557.667	51949.29
557.866	52149.99
558.065	51992.29
558.265	51670.76
558.464	51451.63
558.663	51982.05
558.863	51451.63
559.062	51834.6
559.261	50810.62
559.461	51846.89
559.66	51152.63
559.859	51203.83
560.058	51117.81
560.258	51289.84
560.457	50548.48
560.656	51537.65
560.855	50958.07
561.054	51212.02
561.253	50384.64
561.453	50614.01
561.652	51101.43
561.851	51187.44
562.05	50065.16
562.249	50321.15
562.448	51295.99
562.647	50870.01
562.846	50355.97
563.045	50810.62
563.244	50018.05
563.443	50677.5
563.642	50042.63
563.841	50263.81
564.04	49649.42
564.239	50622.2
564.438	49815.3
564.637	49690.38
564.836	50069.25
565.035	49202.96
565.234	49590.03
565.432	49319.7
565.631	49239.82
565.83	49774.34
566.029	49147.67
566.228	49211.15
566.427	49020.69
566.625	49043.22
566.824	47935.27
567.023	49168.15
567.222	47853.35
567.42	49082.13
567.619	48586.52
567.818	48115.49
568.016	47947.56
568.215	48717.59
568.414	47986.47
568.612	48230.18
568.811	47736.62
569.01	47828.77
569.208	47058.74
569.407	47505.2
569.605	47040.31
569.804	47906.6
570.002	47128.37
570.201	47224.62
570.4	47042.35
570.598	46829.37
570.797	46747.45
570.995	47091.51
571.193	46038.85
571.392	46554.94
571.59	46079.81
571.789	46028.61
571.987	46053.19
572.186	46192.45
572.384	45727.56
572.582	46044.99
572.781	46047.04
572.979	45381.45
573.177	45494.09
573.376	45688.65
573.574	45215.57
573.772	45754.18
573.971	44914.51
574.169	44652.37
574.367	44515.16
574.565	45014.87
574.763	44703.57
574.962	44834.64
575.16	44470.11
575.358	44574.55
575.556	43609.96
575.754	44568.41
575.952	43988.83
576.151	44062.56
576.349	43642.73
576.547	43507.56
576.745	43679.59
576.943	43491.18
577.141	43822.95
577.339	43646.82
577.537	43474.79
577.735	42870.64
577.933	42671.99
578.131	42882.93
578.329	42651.51
578.527	42657.65
578.725	42702.71
578.923	42526.58
579.121	42020.73
579.319	42176.38
579.516	42477.43
579.714	41879.42
579.912	41914.24
580.11	41848.71
580.308	41774.98
580.506	41344.91
580.704	40982.41
580.901	41488.26
581.099	41439.11
581.297	40906.64
581.495	41281.42
581.692	40896.4
581.89	40830.86
582.088	40785.81
582.285	40357.78
582.483	40882.06
582.681	40812.43
582.878	40202.14
583.076	39888.8
583.274	40490.9
583.471	39896.99
583.669	39817.12
583.866	39729.06
584.064	39970.72
584.262	39227.31
584.459	39827.36
584.657	39065.52
584.854	39626.66
585.052	38600.63
585.249	39112.62
585.447	39112.62
585.644	38719.41
585.841	38864.81
586.039	38918.06
586.236	38475.7
586.434	38295.48
586.631	38016.96
586.828	38426.55
587.026	38191.03
587.223	38227.9
587.42	38012.86
587.618	38051.77
587.815	37572.55
588.012	37416.9
588.21	37392.33
588.407	37722.05
588.604	37007.31
588.801	37318.6
588.999	37031.88
589.196	36863.95
589.393	36675.54
589.59	36624.34
589.787	36437.97
589.984	36362.2
590.182	35784.67
590.379	36491.22
590.576	36059.1
590.773	36650.96
590.97	36087.77
591.167	36179.93
591.364	35444.71
591.561	35844.06
591.758	35436.52
591.955	35469.28
592.152	35858.4
592.349	35287.01
592.546	35205.09
592.743	35383.27
592.94	35020.78
593.137	34902
593.334	34885.61
593.531	34033.66
593.727	34701.29
593.924	34445.3
594.121	34070.52
594.318	35035.11
594.515	33933.31
594.712	34185.21
594.908	33886.2
595.105	34373.62
595.302	33769.47
595.499	33597.44
595.696	33480.71
595.892	33245.19
596.089	33556.48
596.286	33378.31
596.482	33228.8
596.679	33132.55
596.876	33437.7
597.072	32659.47
597.269	32976.9
597.466	32487.44
597.662	32759.82
597.859	32536.59
598.055	32485.39
598.252	32444.43
598.448	32020.5
598.645	31864.86
598.841	31934.49
599.038	32057.37
599.234	31916.06
599.431	31406.11
599.627	31504.42
599.824	31633.44
600.02	31502.37
600.217	31447.07
600.413	31307.81
600.609	31344.67
600.806	31277.09
601.002	31131.68
601.198	30916.65
601.395	30892.07
601.591	30713.9
601.787	30625.84
601.984	30408.75
602.18	30767.15
602.376	30492.72
602.572	30361.65
602.769	29882.42
602.965	30019.64
603.161	29937.72
603.357	29837.37
603.553	29925.43
603.75	29495.36
603.946	29732.92
604.142	29581.37
604.338	29382.72
604.534	29763.64
604.73	29194.31
604.926	29059.14
605.122	29149.25
605.318	28956.74
605.514	28833.86
605.71	28655.69
605.906	28940.36
606.102	28753.99
606.298	28770.38
606.494	28315.73
606.69	28418.13
606.886	28594.25
607.082	28168.27
607.278	28624.97
607.474	27748.44
607.67	28004.44
607.866	27740.25
608.062	28192.85
608.257	28131.41
608.453	28035.16
608.649	27813.98
608.845	27504.73
609.041	27777.11
609.236	27474.01
609.432	27273.31
609.628	27334.75
609.824	27175.01
610.019	27191.39
610.215	27125.86
610.411	27643.99
610.606	27140.19
610.802	27250.78
610.998	27103.33
611.193	27050.08
611.389	26777.7
611.584	26859.62
611.78	26970.21
611.976	26794.09
612.171	26775.66
612.367	26626.15
612.562	26552.43
612.758	26105.97
612.953	26335.34
613.149	26599.53
613.344	26237.04
613.539	26740.84
613.735	26089.59
613.93	26247.28
614.126	25956.47
614.321	25991.28
614.517	26097.78
614.712	25899.12
614.907	25616.51
615.103	25757.81
615.298	25247.87
615.493	26028.15
615.688	25393.28
615.884	26198.13
616.079	25485.44
616.274	25471.1
616.47	25366.65
616.665	25268.35
616.86	25636.98
617.055	25303.17
617.25	25354.37
617.445	25434.24
617.641	25081.99
617.836	25174.14
618.031	25000.07
618.226	25260.16
618.421	24553.61
618.616	24946.82
618.811	24637.58
619.006	25006.21
619.201	24166.54
619.396	24553.61
619.591	24162.45
619.786	24553.61
619.981	24092.82
620.176	24344.72
620.371	24014.99
620.566	24076.43
620.761	23632.02
620.956	24107.15
621.151	23384.22
621.346	23580.82
621.541	22915.23
621.735	23308.44
621.93	22909.09
622.125	23081.12
622.32	22585.51
622.515	23165.09
622.709	22814.88
622.904	22841.51
623.099	22616.23
623.294	22528.17
623.488	22239.4
623.683	21979.31
623.878	21897.39
624.072	21956.78
624.267	22038.7
624.462	21946.55
624.656	21428.41
624.851	21387.45
625.046	21266.62
625.24	21039.29
625.435	21094.59
625.629	21215.42
625.824	20646.08
626.018	20455.62
626.213	20592.84
626.407	20449.48
626.602	20293.83
626.796	20304.07
626.991	20287.69
627.185	20472.01
627.38	19976.4
627.574	19765.46
627.768	19583.19
627.963	19445.98
628.157	19517.65
628.352	19554.52
628.546	19159.26
628.74	19280.09
628.935	19435.74
629.129	19192.03
629.323	18964.7
629.517	18837.73
629.712	18682.08
629.906	18630.88
630.1	18510.05
630.294	18850.02
630.489	18311.4
630.683	18555.11
630.877	17987.82
631.071	18135.28
631.265	18065.64
631.459	17752.31
631.653	17635.57
631.848	18006.25
632.042	17572.08
632.236	17619.19
632.43	17348.86
632.624	17328.38
632.818	17068.28
633.012	17060.09
633.206	17076.48
633.4	17213.69
633.594	17076.48
633.788	16900.35
633.982	16840.96
634.176	16736.51
634.369	16384.26
634.563	16515.33
634.757	16396.55
634.951	16294.15
635.145	16097.55
635.339	16257.29
635.533	16007.44
635.726	16054.54
635.92	15669.52
636.114	15659.28
636.308	15716.62
636.501	15788.3
636.695	15696.14
636.889	15534.35
637.083	15380.76
637.276	15343.89
637.47	15208.73
637.664	15214.87
637.857	14981.4
638.051	15018.27
638.244	14836
638.438	14674.21
638.632	14973.21
638.825	14575.91
639.019	14614.82
639.212	14225.7
639.406	14407.97
639.599	14371.11
639.793	14514.47
639.986	14207.27
640.18	14293.29
640.373	14139.69
640.567	13879.6
640.76	13924.65
640.954	13943.08
641.147	13726
641.34	13801.77
641.534	13713.71
641.727	13556.02
641.92	13431.09
642.114	13457.71
642.307	13179.19
642.5	13277.49
642.694	13095.22
642.887	12966.2
643.08	12998.97
643.273	12953.91
643.467	13011.26
643.66	12556.61
643.853	12513.6
644.046	12613.95
644.239	12435.78
644.432	12611.9
644.626	12345.67
644.819	12419.39
645.012	12253.51
645.205	12218.69
645.398	12216.65
645.591	12104.01
645.784	12091.72
645.977	11893.07
646.17	11741.52
646.363	11958.6
646.556	11473.23
646.749	11809.1
646.942	12022.09
647.135	11553.1
647.328	11600.21
647.521	11573.58
647.714	11327.83
647.907	11366.74
648.099	11317.59
648.292	11223.38
648.485	11219.28
648.678	11006.3
648.871	10912.09
649.064	11143.51
649.256	10856.79
649.449	10533.22
649.642	10817.88
649.835	10557.79
650.027	10598.75
650.22	10326.37
650.413	10494.3
650.605	10604.89
650.798	10461.54
650.991	10271.08
651.183	10252.64
651.376	10209.64
651.568	10133.86
651.761	10162.53
651.954	10271.08
652.146	10137.96
652.339	9843.05
652.531	10074.47
652.724	9820.52
652.916	9589.1
653.109	9609.58
653.301	9738.6
653.494	9855.34
653.686	9607.53
653.879	9754.99
654.071	9468.27
654.263	9355.63
654.456	9585.01
654.648	9310.58
654.84	9128.31
655.033	9482.61
655.225	9173.36
655.417	9111.92
655.61	9017.72
655.802	9120.12
655.994	9171.32
656.186	8884.6
656.379	8761.72
656.571	9021.81
656.763	8763.77
656.955	8833.4
657.148	8743.29
657.34	8710.52
657.532	8630.65
657.724	8518.01
657.916	8604.03
658.108	8503.68
658.3	8450.43
658.492	8446.34
658.684	8313.22
658.876	8268.16
659.068	8368.51
659.26	8071.56
659.452	8239.49
659.644	8276.35
659.836	7909.77
660.028	8192.39
660.22	8112.52
660.412	8049.03
660.604	7973.25
660.796	7846.28
660.988	7934.34
661.18	7750.03
661.372	7668.11
661.563	7727.5
661.755	7684.49
661.947	7565.71
662.139	7635.34
662.331	7586.19
662.522	7516.56
662.714	7598.48
662.906	7408.01
663.097	7399.82
663.289	7426.45
663.481	7238.03
663.673	7272.85
663.864	7272.85
664.056	7184.79
664.247	7266.71
664.439	6977.94
664.631	7240.08
664.822	6988.18
665.014	6930.84
665.205	7037.33
665.397	7115.16
665.588	7018.9
665.78	6740.38
665.971	6961.56
666.163	6666.65
666.354	6711.71
666.546	6773.14
666.737	6697.37
666.929	6490.52
667.12	6699.42
667.311	6683.03
667.503	6396.32
667.694	6623.64
667.885	6517.15
668.077	6519.2
668.268	6396.32
668.459	6523.29
668.651	6396.32
668.842	6420.89
669.033	6318.5
669.224	6293.92
669.416	6175.14
669.607	6111.65
669.798	6257.06
669.989	6424.99
670.18	6130.08
670.371	6207.91
670.563	6255.01
670.754	6197.67
670.945	6009.25
671.136	5951.91
671.327	6007.2
671.518	5976.48
671.709	6076.84
671.9	6058.4
672.091	6007.2
672.282	5833.13
672.473	5919.14
672.664	5724.58
672.855	5910.95
673.046	5710.25
673.237	5767.59
673.428	5757.35
673.619	5786.02
673.809	5667.24
674	5570.99
674.191	5593.51
674.382	5745.06
674.573	5407.15
674.764	5536.17
674.954	5620.14
675.145	5403.05
675.336	5497.26
675.527	5487.02
675.717	5437.87
675.908	5325.23
676.099	5325.23
676.289	5325.23
676.48	5355.95
676.671	5136.82
676.861	5202.35
677.052	5437.87
677.243	5405.1
677.433	5192.11
677.624	5333.42
677.814	5231.02
678.005	5212.59
678.195	5210.54
678.386	5257.65
678.576	5181.87
678.767	5116.34
678.957	5089.71
679.148	5314.99
679.338	5171.63
679.529	5040.56
679.719	5245.36
679.909	5052.85
680.1	5149.11
680.29	5126.58
680.481	5108.15
680.671	4911.54
680.861	4934.07
681.052	5028.28
681.242	4977.08
681.432	4874.68
681.622	4858.29
681.813	4897.21
682.003	5009.84
682.193	5011.89
682.383	4897.21
682.573	4737.46
682.764	5028.28
682.954	4823.48
683.144	4862.39
683.334	4872.63
683.524	4803
683.714	4872.63
683.904	4694.46
684.094	4829.62
684.284	4735.42
684.474	4874.68
684.664	4860.34
684.854	4639.16
685.044	4706.74
685.234	4587.96
685.424	4749.75
685.614	4516.28
685.804	4680.12
685.994	4518.33
686.184	4577.72
686.374	4577.72
686.564	4600.25
686.753	4653.5
686.943	4635.07
687.133	4573.63
687.323	4671.93
687.513	4635.07
687.702	4473.28
687.892	4524.47
688.082	4575.67
688.272	4327.87
688.461	4467.13
688.651	4395.45
688.841	4479.42
689.03	4370.88
689.22	4362.69
689.41	4432.32
689.599	4225.47
689.789	4348.35
689.979	4311.49
690.168	4229.57
690.358	4176.32
690.547	4262.33
690.737	4336.06
690.926	4112.83
691.116	4243.9
691.305	4196.8
691.495	4100.55
691.684	4114.88
691.874	4059.59
692.063	4069.83
692.252	4075.97
692.442	4108.74
692.631	4018.63
692.82	4141.5
693.01	4000.19
693.199	4080.07
693.388	3987.91
693.578	4172.22
693.767	3885.51
693.956	3889.6
694.146	4000.19
694.335	3989.96
694.524	4004.29
694.713	3916.23
694.902	3963.33
695.092	3912.13
695.281	3897.8
695.47	3959.24
695.659	3922.37
695.848	3959.24
696.037	3865.03
696.226	3854.79
696.415	3828.17
696.604	3871.17
696.793	3762.63
696.982	3801.54
697.171	3887.56
697.36	3865.03
697.549	3869.12
697.738	3905.99
697.927	3697.1
698.116	3715.53
698.305	3813.83
698.494	3805.64
698.683	3600.84
698.872	3721.67
699.061	3748.29
699.25	3760.58
699.438	3797.45
699.627	3824.07
699.816	3635.66
700.005	3748.29
700.193	3756.49
700.382	3709.38
700.571	3527.11
700.76	3561.93
700.948	3674.57
701.137	3830.21
701.326	3684.81
701.514	3527.11
701.703	3596.75
701.892	3514.83
702.08	3658.18
702.269	3582.41
702.457	3609.03
702.646	3609.03
702.834	3609.03
703.023	3482.06
703.212	3570.12
703.4	3652.04
703.589	3557.83
703.777	3549.64
703.965	3553.74
704.154	3649.99
704.342	3582.41
704.531	3492.3
704.719	3551.69
704.907	3475.91
705.096	3355.08
705.284	3475.91
705.472	3502.54
705.661	3350.99
705.849	3533.26
706.037	3486.15
706.226	3299.79
706.414	3420.62
706.602	3475.91
706.79	3467.72
706.979	3357.13
707.167	3463.63
707.355	3453.39
707.543	3285.45
707.731	3488.2
707.919	3383.76
708.107	3305.93
708.296	3234.25
708.484	3293.65
708.672	3383.76
708.86	3242.45
709.048	3441.1
709.236	3324.37
709.424	3285.45
709.612	3361.23
709.8	3334.61
709.988	3181.01
710.176	3289.55
710.364	3391.95
710.551	3236.3
710.739	3328.46
710.927	3213.77
711.115	3205.58
711.303	3045.84
711.491	3242.45
711.679	3154.38
711.866	3199.44
712.054	3092.94
712.242	3062.23
712.43	3254.73
712.617	3097.04
712.805	3195.34
712.993	3176.91
713.181	2986.45
713.368	3197.39
713.556	3232.21
713.744	2965.97
713.931	3166.67
714.119	3125.71
714.306	3121.62
714.494	3119.57
714.682	2980.31
714.869	3011.03
715.057	3094.99
715.244	2986.45
715.432	2986.45
715.619	3006.93
715.807	3070.42
715.994	2910.68
716.182	2976.21
716.369	2851.28
716.556	2894.29
716.744	2904.53
716.931	2974.16
717.119	2959.83
717.306	2929.11
717.493	2859.48
717.681	2957.78
717.868	2918.87
718.055	2943.44
718.242	2886.1
718.43	2841.04
718.617	2757.08
718.804	2914.77
718.991	2910.68
719.179	2871.76
719.366	2914.77
719.553	2793.94
719.74	2851.28
719.927	2804.18
720.114	2808.28
720.301	2763.22
720.488	2804.18
720.676	2808.28
720.863	2769.37
721.05	2755.03
721.237	2730.45
721.424	2769.37
721.611	2839
721.798	2771.41
721.985	2814.42
722.172	2769.37
722.358	2755.03
722.545	2722.26
722.732	2716.12
722.919	2734.55
723.106	2781.65
723.293	2771.41
723.48	2683.35
723.667	2648.54
723.853	2587.1
724.04	2777.56
724.227	2640.34
724.414	2517.47
724.6	2705.88
724.787	2613.72
724.974	2642.39
725.161	2580.95
725.347	2695.64
725.534	2613.72
725.72	2570.71
725.907	2583
726.094	2550.23
726.28	2650.58
726.467	2578.9
726.653	2662.87
726.84	2548.19
727.027	2554.33
727.213	2451.93
727.4	2458.07
727.586	2372.06
727.773	2609.62
727.959	2548.19
728.145	2564.57
728.332	2466.27
728.518	2464.22
728.705	2515.42
728.891	2402.78
729.077	2615.77
729.264	2556.38
729.45	2404.83
729.636	2472.41
729.823	2341.34
730.009	2433.5
730.195	2425.31
730.382	2554.33
730.568	2417.12
730.754	2458.07
730.94	2413.02
731.126	2382.3
731.313	2384.35
731.499	2398.68
731.685	2390.49
731.871	2298.33
732.057	2394.59
732.243	2316.76
732.429	2343.39
732.615	2249.18
732.801	2372.06
732.987	2355.68
733.173	2302.43
733.359	2300.38
733.545	2339.29
733.731	2351.58
733.917	2374.11
734.103	2351.58
734.289	2273.76
734.475	2361.82
734.661	2349.53
734.847	2386.4
735.033	2253.28
735.219	2200.03
735.404	2240.99
735.59	2296.28
735.776	2281.95
735.962	2214.37
736.148	2306.52
736.333	2243.04
736.519	2191.84
736.705	2204.13
736.89	2185.69
737.076	2167.26
737.262	2218.46
737.447	2228.7
737.633	2111.97
737.819	2111.97
738.004	2146.78
738.19	2101.73
738.375	2206.17
738.561	2126.3
738.747	2175.45
738.932	2079.2
739.118	2130.4
739.303	2128.35
739.489	2216.41
739.674	2060.77
739.859	2099.68
740.045	2034.14
740.23	2120.16
740.416	2034.14
740.601	2019.81
740.786	2089.44
740.972	2077.15
741.157	2064.86
741.342	2007.52
741.528	1933.79
741.713	2095.58
741.898	1987.04
742.084	1993.19
742.269	1909.22
742.454	2062.82
742.639	2077.15
742.824	2030.05
743.01	1954.27
743.195	1944.03
743.38	1913.31
743.565	1860.07
743.75	1806.82
743.935	1872.36
744.12	1976.8
744.305	1835.49
744.49	1962.47
744.675	1815.01
744.86	1831.4
745.045	1851.88
745.23	1817.06
745.415	1884.64
745.6	1790.44
745.785	1667.56
745.97	1790.44
746.155	1776.1
746.34	1710.57
746.525	1716.71
746.71	1794.53
746.895	1925.6
747.079	1692.13
747.264	1784.29
747.449	1690.09
747.634	1786.34
747.819	1602.02
748.003	1708.52
748.188	1612.26
748.373	1620.46
748.557	1661.41
748.742	1661.41
748.927	1612.26
749.111	1573.35
749.296	1610.22
749.481	1569.26
749.665	1485.29
749.85	1597.93
750.034	1493.48
750.219	1532.39
750.404	1556.97
750.588	1503.72
750.773	1454.57
750.957	1507.82
751.141	1350.12
751.326	1526.25
751.51	1483.24
751.695	1458.67
751.879	1487.34
752.064	1425.9
752.248	1434.09
752.432	1405.42
752.617	1313.26
752.801	1417.71
752.985	1255.92
753.17	1341.93
753.354	1413.61
753.538	1393.13
753.722	1311.21
753.907	1423.85
754.091	1401.32
754.275	1341.93
754.459	1352.17
754.643	1243.63
754.828	1296.88
755.012	1298.92
755.196	1307.12
755.38	1233.39
755.564	1206.77
755.748	1237.49
755.932	1262.06
756.116	1282.54
756.3	1372.65
756.484	1296.88
756.668	1155.57
756.852	1130.99
757.036	1174
757.22	1210.86
757.404	1198.57
757.588	1169.9
757.772	1210.86
757.956	1118.7
758.14	1067.5
758.323	1090.03
758.507	1141.23
758.691	1028.59
758.875	1151.47
759.059	1110.51
759.242	1126.89
759.426	1110.51
759.61	1083.89
759.794	1100.27
759.977	1128.94
760.161	1133.04
760.345	1087.98
760.528	1020.4
760.712	1063.41
760.895	1063.41
761.079	1020.4
761.263	995.82
761.446	981.49
761.63	1034.74
761.813	995.82
761.997	1061.36
762.18	971.25
762.364	987.63
762.547	1038.83
762.731	1012.21
762.914	1001.97
763.098	1042.93
763.281	1030.64
763.464	903.67
763.648	973.3
763.831	969.2
764.015	958.96
764.198	950.77
764.381	895.47
764.564	946.67
764.748	940.53
764.931	850.42
765.114	946.67
765.297	924.15
765.481	989.68
765.664	891.38
765.847	926.19
766.03	950.77
766.213	827.89
766.397	940.53
766.58	893.43
766.763	905.71
766.946	897.52
767.129	879.09
767.312	879.09
767.495	887.28
767.678	852.47
767.861	952.82
768.044	827.89
768.227	889.33
768.41	791.03
768.593	893.43
768.776	848.37
768.959	836.08
769.142	844.28
769.324	903.67
769.507	852.47
769.69	817.65
769.873	807.41
770.056	834.04
770.239	788.98
770.421	838.13
770.604	786.93
770.787	848.37
770.97	807.41
771.152	752.12
771.335	805.36
771.518	741.88
771.7	825.84
771.883	879.09
772.066	768.5
772.248	793.08
772.431	702.97
772.613	774.64
772.796	698.87
772.978	770.55
773.161	678.39
773.343	670.2
773.526	754.16
773.708	735.73
773.891	717.3
774.073	705.01
774.256	678.39
774.438	739.83
774.621	657.91
774.803	682.49
774.985	682.49
775.168	754.16
775.35	633.33
775.532	639.48
775.715	596.47
775.897	629.24
776.079	528.89
776.261	682.49
776.444	643.57
776.626	659.96
776.808	676.34
776.99	563.7
777.173	664.05
777.355	637.43
777.537	602.61
777.719	643.57
777.901	604.66
778.083	614.9
778.265	641.53
778.447	619
778.629	635.38
778.811	592.37
778.993	645.62
779.175	578.04
779.357	528.89
779.539	518.65
779.721	530.94
779.903	563.7
780.085	598.52
780.267	602.61
780.449	494.07
780.631	512.5
780.812	508.41
780.994	565.75
781.176	477.69
781.358	535.03
781.54	512.5
781.721	492.02
781.903	469.5
782.085	479.74
782.267	469.5
782.448	463.35
782.63	487.93
782.812	473.59
782.993	455.16
783.175	502.26
783.357	477.69
783.538	602.61
783.72	430.59
783.901	526.84
784.083	535.03
784.264	475.64
784.446	393.72
784.627	453.11
784.809	453.11
784.99	416.25
785.172	414.2
785.353	418.3
785.535	428.54
785.716	481.78
785.897	410.11
786.079	412.15
786.26	465.4
786.441	430.59
786.623	434.68
786.804	432.63
786.985	363
787.167	422.39
787.348	387.58
787.529	416.25
787.71	440.83
787.891	389.63
788.073	354.81
788.254	303.61
788.435	436.73
788.616	305.66
788.797	324.09
788.978	330.23
789.159	348.67
789.34	358.91
789.522	332.28
789.703	338.43
789.884	309.76
790.065	387.58
790.246	348.67
790.427	326.14
790.607	350.71
790.788	340.47
790.969	258.56
791.15	311.8
791.331	305.66
791.512	311.8
791.693	307.71
791.874	387.58
792.054	356.86
792.235	332.28
792.416	297.47
792.597	322.04
792.778	324.09
792.958	268.8
793.139	326.14
793.32	315.9
793.5	315.9
793.681	365.05
793.862	348.67
794.042	285.18
794.223	229.88
794.404	219.64
794.584	281.08
794.765	231.93
794.945	231.93
795.126	287.23
795.306	268.8
795.487	309.76
795.667	256.51
795.848	223.74
796.028	238.08
796.209	244.22
796.389	246.27
796.57	274.94
796.75	297.47
796.93	182.78
797.111	217.6
797.291	231.93
797.471	287.23
797.652	205.31
797.832	209.4
798.012	350.71
798.192	270.84
798.373	203.26
798.553	250.36
798.733	225.79
798.913	295.42
799.093	283.13
799.274	242.17
799.454	258.56
799.634	285.18
799.814	291.32
799.994	240.12
800.174	217.6
800.354	246.27
800.534	174.59
800.714	244.22
800.894	233.98
801.074	238.08
801.254	211.45
801.434	242.17
801.614	322.04
801.794	262.65
801.974	698.87
802.154	236.03
802.334	156.16
802.514	160.25
802.693	131.58
802.873	242.17
803.053	178.69
803.233	195.07
803.413	250.36
803.592	213.5
803.772	195.07
803.952	176.64
804.131	154.11
804.311	250.36
804.491	227.84
804.67	215.55
804.85	193.02
805.03	217.6
805.209	190.97
805.389	178.69
805.568	182.78
805.748	195.07
805.928	236.03
806.107	180.73
806.287	172.54
806.466	164.35
806.646	164.35
806.825	113.15
807.004	119.29
807.184	160.25
807.363	203.26
807.543	162.3
807.722	203.26
807.901	250.36
808.081	125.44
808.26	160.25
808.439	125.44
808.619	115.2
808.798	186.88
808.977	193.02
809.156	217.6
809.336	174.59
809.515	160.25
809.694	92.67
809.873	184.83
810.052	197.12
810.231	188.93
810.411	152.06
810.59	170.49
810.769	205.31
810.948	104.96
811.127	119.29
811.306	174.59
811.485	184.83
811.664	190.97
811.843	172.54
812.022	113.15
812.201	115.2
812.38	143.87
812.559	129.53
812.737	133.63
812.916	113.15
813.095	139.77
813.274	152.06
813.453	121.34
813.632	154.11
813.811	164.35
813.989	111.1
814.168	129.53
814.347	113.15
814.526	176.64
814.704	137.73
814.883	180.73
815.062	107.01
815.24	104.96
815.419	53.76
815.598	61.95
815.776	96.77
815.955	117.25
816.133	115.2
816.312	172.54
816.49	88.57
816.669	147.97
816.847	156.16
817.026	119.29
817.204	129.53
817.383	135.68
817.561	133.63
817.74	131.58
817.918	80.38
818.097	100.86
818.275	133.63
818.453	127.49
818.632	133.63
818.81	174.59
818.988	129.53
819.167	117.25
819.345	176.64
819.523	150.01
819.701	66.05
819.879	119.29
820.058	96.77
820.236	66.05
820.414	121.34
820.592	49.66
820.77	158.21
820.948	78.33
821.127	131.58
821.305	74.24
821.483	70.14
821.661	156.16
821.839	160.25
822.017	100.86
822.195	121.34
822.373	127.49
822.551	135.68
822.729	145.92
822.907	139.77
823.085	117.25
823.262	102.91
823.44	117.25
823.618	29.18
823.796	68.09
823.974	121.34
824.152	115.2
824.329	55.81
824.507	35.33
824.685	152.06
824.863	115.2
825.04	102.91
825.218	127.49
825.396	64
825.574	39.42
825.751	96.77
825.929	111.1
826.107	57.86
826.284	113.15
826.462	113.15
826.639	70.14
826.817	61.95
826.994	66.05
827.172	92.67
827.349	117.25
827.527	115.2
827.704	90.62
827.882	94.72
828.059	72.19
828.237	35.33
828.414	129.53
828.591	49.66
828.769	92.67
828.946	109.05
829.124	86.53
829.301	111.1
829.478	53.76
829.655	80.38
829.833	43.52
830.01	33.28
830.187	115.2
830.364	53.76
830.542	131.58
830.719	82.43
830.896	121.34
831.073	96.77
831.25	59.9
831.427	14.85
831.604	57.86
831.782	68.09
831.959	23.04
832.136	82.43
832.313	23.04
832.49	55.81
832.667	104.96
832.844	74.24
833.021	121.34
833.198	61.95
833.374	104.96
833.551	143.87
833.728	35.33
833.905	135.68
834.082	47.62
834.259	121.34
834.436	-19.97
834.612	47.62
834.789	33.28
834.966	45.57
835.143	72.19
835.319	68.09
835.496	98.81
835.673	111.1
835.85	76.29
836.026	76.29
836.203	41.47
836.38	-50.69
836.556	-1.54
836.733	-7.68
836.909	131.58
837.086	66.05
837.262	-26.11
837.439	59.9
837.616	100.86
837.792	31.23
837.968	86.53
838.145	-34.3
838.321	57.86
838.498	-5.63
838.674	57.86
838.851	100.86
839.027	-9.73
839.203	10.75
839.38	18.94
839.556	33.28
839.732	100.86
839.909	41.47
840.085	20.99
840.261	0.51
840.437	43.52
840.614	6.66
840.79	107.01
840.966	41.47
841.142	72.19
841.318	-26.11
841.494	31.23
841.671	86.53
841.847	78.33
842.023	35.33
842.199	10.75
842.375	35.33
842.551	-5.63
842.727	51.71
842.903	-40.45
843.079	92.67
843.255	35.33
843.431	-26.11
843.607	86.53
843.783	84.48
843.959	0.51
844.134	41.47
844.31	76.29
844.486	41.47
844.662	109.05
844.838	-15.87
845.013	47.62
845.189	70.14
845.365	27.14
845.541	53.76
845.716	-5.63
845.892	6.66
846.068	4.61
846.244	-81.41
846.419	113.15
846.595	33.28
846.77	-13.82
846.946	14.85
847.122	4.61
847.297	10.75
847.473	104.96
847.648	-26.11
847.824	29.18
847.999	-9.73
848.175	29.18
848.35	94.72
848.526	57.86
848.701	14.85
848.876	74.24
849.052	76.29
849.227	43.52
849.403	98.81
849.578	82.43
849.753	39.42
849.929	20.99
850.104	49.66
850.279	98.81
850.454	49.66
850.63	41.47
850.805	55.81
850.98	117.25
851.155	59.9
851.33	39.42
851.505	8.7
851.681	66.05
851.856	45.57
852.031	31.23
852.206	20.99
852.381	-11.78
852.556	18.94
852.731	78.33
852.906	4.61
853.081	37.38
853.256	16.9
853.431	-32.26
853.606	55.81
853.781	-36.35
853.956	-32.26
854.131	-9.73
854.305	-3.58
854.48	-3.58
854.655	-34.3
854.83	-65.02
855.005	51.71
855.18	49.66
855.354	-24.06
855.529	29.18
855.704	-34.3
855.879	43.52
856.053	29.18
856.228	49.66
856.403	-28.16
856.577	31.23
856.752	-7.68
856.926	-56.83
857.101	35.33
857.276	16.9
857.45	-30.21
857.625	78.33
857.799	12.8
857.974	-17.92
858.148	14.85
858.323	64
858.497	-40.45
858.672	8.7
858.846	-9.73
859.02	6.66
859.195	-40.45
859.369	20.99
859.543	49.66
859.718	6.66
859.892	82.43
860.066	-1.54
860.241	-60.93
860.415	47.62
860.589	80.38
860.763	14.85
860.938	-85.5
861.112	39.42
861.286	-3.58
861.46	53.76
861.634	-60.93
861.808	18.94
861.982	-28.16
862.157	25.09
862.331	-11.78
862.505	-67.07
862.679	33.28
862.853	2.56
863.027	43.52
863.201	66.05
863.375	43.52
863.549	27.14
863.722	27.14
863.896	10.75
864.07	-11.78
864.244	-17.92
864.418	-17.92
864.592	47.62
864.766	-13.82
864.939	37.38
865.113	39.42
865.287	2.56
865.461	-38.4
865.634	96.77
865.808	-7.68
865.982	64
866.156	35.33
866.329	-34.3
866.503	-5.63
866.676	49.66
866.85	12.8
867.024	45.57
867.197	-26.11
867.371	18.94
867.544	66.05
867.718	16.9
867.891	-9.73
868.065	-19.97
868.238	-7.68
868.412	49.66
868.585	8.7
868.759	14.85
868.932	16.9
869.105	33.28
869.279	-3.58
869.452	-1.54
869.625	-24.06
869.799	70.14
869.972	-26.11
870.145	43.52
870.319	-7.68
870.492	31.23
870.665	2.56
870.838	64
871.011	-42.5
871.185	74.24
871.358	2.56
871.531	33.28
871.704	-24.06
871.877	39.42
872.05	18.94
872.223	27.14
872.396	-13.82
872.569	-1.54
872.742	47.62
872.915	18.94
873.088	-65.02
873.261	18.94
873.434	70.14
873.607	31.23
873.78	2.56
873.953	-22.02
874.126	16.9
874.299	33.28
874.471	18.94
874.644	-36.35
874.817	-26.11
874.99	98.81
875.163	-24.06
875.335	29.18
875.508	-44.54
875.681	-38.4
875.853	-52.74
876.026	-52.74
876.199	-40.45
876.371	-52.74
876.544	-3.58
876.717	37.38
876.889	49.66
877.062	70.14
877.234	-5.63
877.407	2.56
877.579	-36.35
877.752	45.57
877.924	27.14
878.097	27.14
878.269	45.57
878.442	-11.78
878.614	8.7
878.786	39.42
878.959	-99.84
879.131	86.53
879.303	39.42
879.476	23.04
879.648	-11.78
879.82	12.8
879.993	55.81
880.165	-19.97
880.337	-26.11
880.509	35.33
880.681	-62.98
880.854	8.7
881.026	-17.92
881.198	123.39
881.37	0.51
881.542	-17.92
881.714	4.61
881.886	10.75
882.058	-42.5
882.23	41.47
882.402	23.04
882.574	0.51
882.746	18.94
882.918	33.28
883.09	72.19
883.262	-15.87
883.434	-11.78
883.606	45.57
883.778	10.75
883.95	8.7
884.122	12.8
884.293	-9.73
884.465	43.52
884.637	-44.54
884.809	6.66
884.98	68.09
885.152	29.18
885.324	0.51
885.496	-32.26
885.667	47.62
885.839	-26.11
886.011	35.33
886.182	-19.97
886.354	-17.92
886.525	-30.21
886.697	18.94
886.869	20.99
887.04	-28.16
887.212	31.23
887.383	43.52
887.555	-22.02
887.726	4.61
887.897	-28.16
888.069	35.33
888.24	29.18
888.412	-7.68
888.583	-3.58
888.754	-19.97
888.926	-19.97
889.097	-79.36
889.268	-69.12
889.44	10.75
889.611	64
889.782	-1.54
889.953	0.51
890.125	-7.68
890.296	-5.63
890.467	-28.16
890.638	57.86
890.809	18.94
890.98	0.51
891.151	39.42
891.323	-15.87
891.494	23.04
891.665	-58.88
891.836	43.52
892.007	8.7
892.178	-58.88
892.349	29.18
892.52	-13.82
892.691	10.75
892.862	-19.97
893.032	-75.26
893.203	-11.78
893.374	-3.58
893.545	55.81
893.716	-30.21
893.887	-32.26
894.057	107.01
894.228	43.52
894.399	16.9
894.57	-36.35
894.74	-3.58
894.911	74.24
895.082	-34.3
895.253	45.57
895.423	8.7
895.594	55.81
895.764	-40.45
895.935	-1.54
896.106	-17.92
896.276	-81.41
896.447	-77.31
896.617	33.28
896.788	29.18
896.958	23.04
897.129	-3.58
897.299	-11.78
897.47	25.09
897.64	-5.63
897.81	-50.69
897.981	33.28
898.151	-19.97
898.322	33.28
898.492	-22.02
898.662	-26.11
898.832	37.38
899.003	33.28
899.173	0.51
899.343	23.04
899.513	25.09
