Data from USB4F104151__2__12-34-46-906.txt Node

Date: Fri Mar 14 12:34:46 EDT 2025
User: louis
Spectrometer: USB4F10415
Trigger mode: 4
Integration Time (sec): 2.000000E-2
Scans to average: 1
Electric dark correction enabled: true
Nonlinearity correction enabled: false
Boxcar width: 0
XAxis mode: Wavelengths
Number of Pixels in Spectrum: 3648
>>>>>Begin Spectral Data<<<<<
178.204	-98.13
178.424	-98.13
178.644	-98.13
178.864	-132.95
179.084	-34.64
179.304	-8.02
179.524	-1.88
179.744	-14.17
179.964	24.75
180.184	-36.69
180.404	-14.17
180.624	43.18
180.844	28.84
181.064	-30.55
181.283	63.66
181.503	-42.84
181.723	-12.12
181.943	43.18
182.163	59.56
182.383	-42.84
182.602	26.79
182.822	88.23
183.042	49.32
183.262	24.75
183.482	16.55
183.701	6.31
183.921	39.08
184.141	16.55
184.361	43.18
184.58	-34.64
184.8	-38.74
185.02	63.66
185.239	55.47
185.459	20.65
185.679	-3.93
185.898	-36.69
186.118	16.55
186.338	24.75
186.557	43.18
186.777	-3.93
186.997	14.51
187.216	8.36
187.436	73.9
187.655	-42.84
187.875	59.56
188.095	88.23
188.314	55.47
188.534	-8.02
188.753	73.9
188.973	20.65
189.192	-14.17
189.412	-5.97
189.631	88.23
189.851	-34.64
190.07	22.7
190.29	-1.88
190.509	-38.74
190.729	-18.26
190.948	4.27
191.168	22.7
191.387	94.38
191.607	2.22
191.826	-30.55
192.045	-24.4
192.265	41.13
192.484	24.75
192.704	43.18
192.923	-42.84
193.142	10.41
193.362	32.94
193.581	61.61
193.8	-30.55
194.02	37.03
194.239	14.51
194.458	16.55
194.678	73.9
194.897	69.8
195.116	22.7
195.335	12.46
195.555	30.89
195.774	28.84
195.993	-22.36
196.212	6.31
196.432	6.31
196.651	53.42
196.87	57.51
197.089	73.9
197.308	0.17
197.528	90.28
197.747	41.13
197.966	67.75
198.185	55.47
198.404	-100.18
198.623	41.13
198.842	67.75
199.062	41.13
199.281	20.65
199.5	28.84
199.719	16.55
199.938	34.99
200.157	96.43
200.376	32.94
200.595	131.24
200.814	-8.02
201.033	32.94
201.252	53.42
201.471	88.23
201.69	45.23
201.909	-48.98
202.128	30.89
202.347	-28.5
202.566	-36.69
202.785	16.55
203.004	-14.17
203.223	121
203.442	8.36
203.661	28.84
203.879	59.56
204.098	73.9
204.317	30.89
204.536	2.22
204.755	32.94
204.974	49.32
205.193	14.51
205.411	118.95
205.63	-20.31
205.849	-14.17
206.068	-14.17
206.287	86.19
206.505	-10.07
206.724	10.41
206.943	-3.93
207.162	65.71
207.381	71.85
207.599	45.23
207.818	-18.26
208.037	0.17
208.255	39.08
208.474	43.18
208.693	-16.21
208.911	2.22
209.13	45.23
209.349	53.42
209.567	75.95
209.786	121
210.005	96.43
210.223	6.31
210.442	28.84
210.661	-18.26
210.879	57.51
211.098	14.51
211.316	57.51
211.535	34.99
211.753	80.04
211.972	28.84
212.191	-10.07
212.409	-61.27
212.628	8.36
212.846	22.7
213.065	4.27
213.283	73.9
213.502	12.46
213.72	39.08
213.938	6.31
214.157	77.99
214.375	34.99
214.594	100.52
214.812	-5.97
215.031	39.08
215.249	32.94
215.467	22.7
215.686	0.17
215.904	67.75
216.122	10.41
216.341	16.55
216.559	28.84
216.778	28.84
216.996	14.51
217.214	-22.36
217.432	-12.12
217.651	-55.12
217.869	8.36
218.087	24.75
218.306	61.61
218.524	2.22
218.742	-57.17
218.96	20.65
219.179	20.65
219.397	16.55
219.615	90.28
219.833	30.89
220.051	-40.79
220.27	24.75
220.488	10.41
220.706	41.13
220.924	-22.36
221.142	28.84
221.36	53.42
221.578	59.56
221.796	-36.69
222.015	-18.26
222.233	73.9
222.451	57.51
222.669	90.28
222.887	-3.93
223.105	-10.07
223.323	20.65
223.541	28.84
223.759	-24.4
223.977	-28.5
224.195	141.48
224.413	47.27
224.631	-12.12
224.849	-1.88
225.067	49.32
225.285	8.36
225.503	14.51
225.721	-10.07
225.939	26.79
226.157	4.27
226.375	98.47
226.592	108.71
226.81	-48.98
227.028	43.18
227.246	-3.93
227.464	32.94
227.682	2.22
227.9	73.9
228.117	67.75
228.335	63.66
228.553	-20.31
228.771	0.17
228.989	-3.93
229.206	45.23
229.424	39.08
229.642	20.65
229.86	-26.45
230.077	47.27
230.295	125.1
230.513	49.32
230.731	20.65
230.948	30.89
231.166	28.84
231.384	28.84
231.601	16.55
231.819	47.27
232.037	39.08
232.254	20.65
232.472	34.99
232.689	45.23
232.907	59.56
233.125	-14.17
233.342	49.32
233.56	-20.31
233.777	-48.98
233.995	88.23
234.213	73.9
234.43	-30.55
234.648	20.65
234.865	2.22
235.083	12.46
235.3	-10.07
235.518	55.47
235.735	18.6
235.953	55.47
236.17	16.55
236.388	-14.17
236.605	28.84
236.822	65.71
237.04	59.56
237.257	88.23
237.475	-30.55
237.692	24.75
237.909	-30.55
238.127	-40.79
238.344	73.9
238.562	61.61
238.779	88.23
238.996	41.13
239.214	-59.22
239.431	151.72
239.648	4.27
239.865	80.04
240.083	26.79
240.3	41.13
240.517	0.17
240.735	143.53
240.952	39.08
241.169	96.43
241.386	26.79
241.603	-34.64
241.821	2.22
242.038	-3.93
242.255	22.7
242.472	57.51
242.689	51.37
242.907	75.95
243.124	53.42
243.341	14.51
243.558	2.22
243.775	4.27
243.992	-16.21
244.209	59.56
244.426	77.99
244.643	2.22
244.86	24.75
245.078	28.84
245.295	-1.88
245.512	-12.12
245.729	2.22
245.946	-3.93
246.163	37.03
246.38	16.55
246.597	57.51
246.814	26.79
247.031	8.36
247.248	4.27
247.464	69.8
247.681	34.99
247.898	-40.79
248.115	4.27
248.332	22.7
248.549	47.27
248.766	32.94
248.983	34.99
249.2	49.32
249.417	57.51
249.633	43.18
249.85	26.79
250.067	84.14
250.284	37.03
250.501	59.56
250.717	90.28
250.934	28.84
251.151	59.56
251.368	-10.07
251.585	14.51
251.801	18.6
252.018	26.79
252.235	18.6
252.451	-5.97
252.668	-5.97
252.885	-5.97
253.102	49.32
253.318	59.56
253.535	53.42
253.752	22.7
253.968	47.27
254.185	8.36
254.401	-8.02
254.618	22.7
254.835	6.31
255.051	47.27
255.268	6.31
255.484	6.31
255.701	-8.02
255.917	39.08
256.134	-26.45
256.351	-20.31
256.567	-3.93
256.784	51.37
257	10.41
257.217	-28.5
257.433	-14.17
257.65	8.36
257.866	0.17
258.082	-36.69
258.299	-48.98
258.515	73.9
258.732	63.66
258.948	65.71
259.165	-16.21
259.381	-26.45
259.597	16.55
259.814	77.99
260.03	12.46
260.246	34.99
260.463	14.51
260.679	73.9
260.895	47.27
261.112	43.18
261.328	-26.45
261.544	65.71
261.761	106.67
261.977	41.13
262.193	-3.93
262.409	112.81
262.626	-14.17
262.842	39.08
263.058	20.65
263.274	32.94
263.49	18.6
263.707	51.37
263.923	20.65
264.139	-18.26
264.355	-8.02
264.571	57.51
264.787	39.08
265.004	-67.41
265.22	63.66
265.436	-14.17
265.652	49.32
265.868	10.41
266.084	0.17
266.3	63.66
266.516	12.46
266.732	55.47
266.948	55.47
267.164	90.28
267.38	26.79
267.596	67.75
267.812	51.37
268.028	24.75
268.244	45.23
268.46	49.32
268.676	-18.26
268.892	59.56
269.108	-28.5
269.324	102.57
269.54	88.23
269.756	43.18
269.972	30.89
270.188	-48.98
270.403	-42.84
270.619	34.99
270.835	65.71
271.051	28.84
271.267	32.94
271.483	-18.26
271.698	45.23
271.914	16.55
272.13	28.84
272.346	26.79
272.562	90.28
272.777	-18.26
272.993	53.42
273.209	2.22
273.425	69.8
273.64	32.94
273.856	-3.93
274.072	6.31
274.287	-44.88
274.503	75.95
274.719	55.47
274.934	6.31
275.15	-30.55
275.366	-34.64
275.581	41.13
275.797	-3.93
276.012	18.6
276.228	-5.97
276.444	71.85
276.659	41.13
276.875	49.32
277.09	30.89
277.306	12.46
277.521	-22.36
277.737	65.71
277.952	82.09
278.168	88.23
278.383	20.65
278.599	28.84
278.814	12.46
279.03	2.22
279.245	39.08
279.461	51.37
279.676	0.17
279.892	6.31
280.107	-3.93
280.322	16.55
280.538	37.03
280.753	24.75
280.969	-8.02
281.184	-1.88
281.399	34.99
281.615	-3.93
281.83	-8.02
282.045	-20.31
282.26	26.79
282.476	59.56
282.691	-1.88
282.906	18.6
283.122	77.99
283.337	14.51
283.552	20.65
283.767	8.36
283.983	63.66
284.198	24.75
284.413	22.7
284.628	30.89
284.843	32.94
285.058	114.86
285.274	80.04
285.489	69.8
285.704	88.23
285.919	0.17
286.134	59.56
286.349	6.31
286.564	77.99
286.779	8.36
286.995	-16.21
287.21	-26.45
287.425	-10.07
287.64	-18.26
287.855	59.56
288.07	-28.5
288.285	125.1
288.5	84.14
288.715	-16.21
288.93	2.22
289.145	8.36
289.36	12.46
289.575	39.08
289.79	41.13
290.004	71.85
290.219	26.79
290.434	-5.97
290.649	75.95
290.864	-48.98
291.079	26.79
291.294	57.51
291.509	10.41
291.724	73.9
291.938	51.37
292.153	20.65
292.368	94.38
292.583	77.99
292.798	110.76
293.012	34.99
293.227	-16.21
293.442	2.22
293.657	12.46
293.871	16.55
294.086	73.9
294.301	84.14
294.516	6.31
294.73	90.28
294.945	63.66
295.16	53.42
295.374	127.14
295.589	8.36
295.804	-38.74
296.018	92.33
296.233	51.37
296.447	51.37
296.662	49.32
296.877	0.17
297.091	47.27
297.306	22.7
297.52	69.8
297.735	-75.6
297.949	39.08
298.164	37.03
298.378	30.89
298.593	-34.64
298.807	49.32
299.022	59.56
299.236	65.71
299.451	-3.93
299.665	34.99
299.88	43.18
300.094	43.18
300.309	61.61
300.523	32.94
300.737	53.42
300.952	26.79
301.166	65.71
301.381	47.27
301.595	14.51
301.809	6.31
302.024	65.71
302.238	57.51
302.452	37.03
302.667	8.36
302.881	51.37
303.095	67.75
303.309	69.8
303.524	0.17
303.738	47.27
303.952	32.94
304.166	61.61
304.381	6.31
304.595	69.8
304.809	106.67
305.023	49.32
305.237	6.31
305.452	14.51
305.666	45.23
305.88	-12.12
306.094	41.13
306.308	-10.07
306.522	45.23
306.736	18.6
306.95	20.65
307.164	39.08
307.379	63.66
307.593	73.9
307.807	8.36
308.021	30.89
308.235	0.17
308.449	24.75
308.663	-40.79
308.877	116.9
309.091	30.89
309.305	51.37
309.519	-10.07
309.733	98.47
309.947	-28.5
310.161	49.32
310.374	37.03
310.588	82.09
310.802	6.31
311.016	-18.26
311.23	32.94
311.444	41.13
311.658	18.6
311.872	61.61
312.085	59.56
312.299	45.23
312.513	84.14
312.727	6.31
312.941	55.47
313.154	20.65
313.368	32.94
313.582	59.56
313.796	86.19
314.009	26.79
314.223	4.27
314.437	-12.12
314.651	-12.12
314.864	84.14
315.078	82.09
315.292	37.03
315.505	73.9
315.719	32.94
315.933	-20.31
316.146	30.89
316.36	-1.88
316.573	4.27
316.787	39.08
317.001	106.67
317.214	16.55
317.428	37.03
317.641	22.7
317.855	10.41
318.068	57.51
318.282	55.47
318.495	45.23
318.709	14.51
318.922	-20.31
319.136	61.61
319.349	51.37
319.563	-8.02
319.776	20.65
319.99	-57.17
320.203	59.56
320.417	-16.21
320.63	92.33
320.843	88.23
321.057	88.23
321.27	30.89
321.483	92.33
321.697	55.47
321.91	67.75
322.124	14.51
322.337	28.84
322.55	20.65
322.763	14.51
322.977	41.13
323.19	59.56
323.403	0.17
323.617	-44.88
323.83	65.71
324.043	71.85
324.256	88.23
324.469	73.9
324.683	77.99
324.896	96.43
325.109	30.89
325.322	45.23
325.535	39.08
325.748	73.9
325.962	-18.26
326.175	22.7
326.388	53.42
326.601	-18.26
326.814	0.17
327.027	47.27
327.24	61.61
327.453	-65.36
327.666	37.03
327.879	86.19
328.092	34.99
328.305	-36.69
328.518	98.47
328.731	14.51
328.944	30.89
329.157	28.84
329.37	-5.97
329.583	75.95
329.796	-30.55
330.009	4.27
330.222	69.8
330.435	80.04
330.648	96.43
330.861	14.51
331.073	-16.21
331.286	-3.93
331.499	45.23
331.712	-57.17
331.925	49.32
332.138	69.8
332.35	129.19
332.563	-24.4
332.776	2.22
332.989	20.65
333.202	28.84
333.414	125.1
333.627	55.47
333.84	53.42
334.053	65.71
334.265	96.43
334.478	-5.97
334.691	49.32
334.903	39.08
335.116	-53.08
335.329	51.37
335.541	37.03
335.754	32.94
335.966	2.22
336.179	22.7
336.392	-46.93
336.604	-10.07
336.817	41.13
337.029	73.9
337.242	22.7
337.454	10.41
337.667	10.41
337.88	37.03
338.092	37.03
338.305	112.81
338.517	-16.21
338.729	77.99
338.942	-8.02
339.154	0.17
339.367	-24.4
339.579	-14.17
339.792	41.13
340.004	49.32
340.217	20.65
340.429	77.99
340.641	51.37
340.854	174.25
341.066	26.79
341.278	57.51
341.491	75.95
341.703	20.65
341.915	16.55
342.128	39.08
342.34	30.89
342.552	-5.97
342.764	102.57
342.977	12.46
343.189	16.55
343.401	96.43
343.613	80.04
343.826	16.55
344.038	51.37
344.25	106.67
344.462	55.47
344.674	-26.45
344.886	-24.4
345.099	100.52
345.311	73.9
345.523	116.9
345.735	-38.74
345.947	84.14
346.159	-51.03
346.371	67.75
346.583	14.51
346.795	57.51
347.007	-10.07
347.219	116.9
347.431	12.46
347.643	20.65
347.855	28.84
348.067	24.75
348.279	-3.93
348.491	73.9
348.703	63.66
348.915	71.85
349.127	43.18
349.339	63.66
349.551	49.32
349.763	106.67
349.975	12.46
350.187	80.04
350.399	0.17
350.61	18.6
350.822	104.62
351.034	65.71
351.246	24.75
351.458	30.89
351.669	67.75
351.881	59.56
352.093	43.18
352.305	100.52
352.517	-8.02
352.728	28.84
352.94	37.03
353.152	34.99
353.363	-26.45
353.575	125.1
353.787	26.79
353.999	69.8
354.21	55.47
354.422	-5.97
354.633	47.27
354.845	77.99
355.057	28.84
355.268	0.17
355.48	67.75
355.692	37.03
355.903	-18.26
356.115	77.99
356.326	-24.4
356.538	-5.97
356.749	43.18
356.961	61.61
357.172	6.31
357.384	6.31
357.595	43.18
357.807	20.65
358.018	12.46
358.23	20.65
358.441	55.47
358.653	63.66
358.864	65.71
359.075	41.13
359.287	88.23
359.498	104.62
359.709	102.57
359.921	-40.79
360.132	0.17
360.344	0.17
360.555	61.61
360.766	121
360.977	12.46
361.189	80.04
361.4	-14.17
361.611	92.33
361.823	108.71
362.034	45.23
362.245	-12.12
362.456	28.84
362.667	82.09
362.879	16.55
363.09	69.8
363.301	0.17
363.512	28.84
363.723	49.32
363.935	16.55
364.146	55.47
364.357	2.22
364.568	18.6
364.779	8.36
364.99	137.38
365.201	28.84
365.412	2.22
365.623	98.47
365.834	2.22
366.045	28.84
366.256	118.95
366.467	12.46
366.678	77.99
366.889	-44.88
367.1	-8.02
367.311	14.51
367.522	45.23
367.733	8.36
367.944	24.75
368.155	6.31
368.366	90.28
368.577	45.23
368.788	-40.79
368.999	92.33
369.209	43.18
369.42	88.23
369.631	110.76
369.842	57.51
370.053	57.51
370.264	88.23
370.474	51.37
370.685	55.47
370.896	98.47
371.107	47.27
371.317	4.27
371.528	41.13
371.739	57.51
371.95	37.03
372.16	77.99
372.371	-24.4
372.582	43.18
372.792	125.1
373.003	61.61
373.214	123.05
373.424	65.71
373.635	41.13
373.846	104.62
374.056	82.09
374.267	65.71
374.477	12.46
374.688	47.27
374.898	-38.74
375.109	39.08
375.319	43.18
375.53	84.14
375.74	61.61
375.951	41.13
376.161	39.08
376.372	112.81
376.582	-20.31
376.793	102.57
377.003	59.56
377.214	28.84
377.424	14.51
377.635	73.9
377.845	88.23
378.055	104.62
378.266	-10.07
378.476	24.75
378.686	71.85
378.897	63.66
379.107	24.75
379.317	6.31
379.528	57.51
379.738	14.51
379.948	86.19
380.158	-3.93
380.369	108.71
380.579	-8.02
380.789	32.94
380.999	118.95
381.21	16.55
381.42	82.09
381.63	-5.97
381.84	43.18
382.05	59.56
382.261	80.04
382.471	65.71
382.681	37.03
382.891	104.62
383.101	18.6
383.311	77.99
383.521	4.27
383.731	14.51
383.941	-14.17
384.151	-18.26
384.361	43.18
384.571	-22.36
384.781	28.84
384.991	100.52
385.201	116.9
385.411	94.38
385.621	67.75
385.831	34.99
386.041	59.56
386.251	69.8
386.461	108.71
386.671	32.94
386.881	118.95
387.091	34.99
387.301	-5.97
387.511	24.75
387.72	77.99
387.93	82.09
388.14	80.04
388.35	65.71
388.56	141.48
388.769	39.08
388.979	47.27
389.189	39.08
389.399	86.19
389.609	55.47
389.818	69.8
390.028	57.51
390.238	43.18
390.447	18.6
390.657	32.94
390.867	-8.02
391.076	-51.03
391.286	100.52
391.496	96.43
391.705	30.89
391.915	45.23
392.125	98.47
392.334	45.23
392.544	57.51
392.753	102.57
392.963	67.75
393.172	84.14
393.382	-14.17
393.591	75.95
393.801	-18.26
394.01	102.57
394.22	155.82
394.429	59.56
394.639	41.13
394.848	92.33
395.058	53.42
395.267	51.37
395.477	16.55
395.686	112.81
395.895	86.19
396.105	90.28
396.314	63.66
396.524	86.19
396.733	30.89
396.942	67.75
397.152	69.8
397.361	63.66
397.57	30.89
397.78	84.14
397.989	65.71
398.198	53.42
398.407	131.24
398.617	102.57
398.826	82.09
399.035	94.38
399.244	55.47
399.453	118.95
399.663	75.95
399.872	118.95
400.081	67.75
400.29	108.71
400.499	49.32
400.708	178.34
400.917	82.09
401.127	149.67
401.336	112.81
401.545	88.23
401.754	121
401.963	104.62
402.172	149.67
402.381	80.04
402.59	82.09
402.799	129.19
403.008	149.67
403.217	135.34
403.426	125.1
403.635	63.66
403.844	106.67
404.053	110.76
404.262	102.57
404.471	63.66
404.68	137.38
404.888	39.08
405.097	170.15
405.306	102.57
405.515	139.43
405.724	75.95
405.933	170.15
406.142	166.06
406.35	157.86
406.559	209.06
406.768	112.81
406.977	170.15
407.185	268.45
407.394	225.45
407.603	135.34
407.812	157.86
408.02	237.74
408.229	196.78
408.438	250.02
408.646	188.58
408.855	204.97
409.064	297.13
409.272	315.56
409.481	284.84
409.69	270.5
409.898	258.21
410.107	366.76
410.315	338.09
410.524	282.79
410.733	370.85
410.941	336.04
411.15	338.09
411.358	456.87
411.567	450.72
411.775	346.28
411.984	381.09
412.192	377
412.401	362.66
412.609	407.72
412.818	366.76
413.026	499.88
413.234	456.87
413.443	438.44
413.651	483.49
413.86	426.15
414.068	563.36
414.276	520.35
414.485	540.83
414.693	645.28
414.901	755.87
415.11	678.05
415.318	569.51
415.526	573.6
415.734	624.8
415.943	788.64
416.151	751.78
416.359	825.5
416.567	800.93
416.776	784.54
416.984	886.94
417.192	852.13
417.4	997.53
417.608	835.74
417.817	981.15
418.025	999.58
418.233	1011.87
418.441	1040.54
418.649	1063.07
418.857	1169.56
419.065	1187.99
419.273	1163.42
419.481	1239.19
419.689	1415.32
419.897	1429.65
420.105	1480.85
420.313	1378.45
420.521	1487
420.729	1349.78
420.937	1497.24
421.145	1585.3
421.353	1589.39
421.561	1730.7
421.769	1732.75
421.977	1902.73
422.185	1882.25
422.393	1925.26
422.601	2085
422.809	2089.1
423.017	2042
423.224	2211.98
423.432	2254.98
423.64	2384.01
423.848	2525.32
424.056	2422.92
424.263	2594.95
424.471	2582.66
424.679	2627.71
424.887	2877.57
425.094	2830.46
425.302	2969.73
425.51	2943.1
425.718	3129.47
425.925	3182.71
426.133	3303.54
426.341	3407.99
426.548	3702.9
426.756	3657.84
426.964	3711.09
427.171	3895.41
427.379	3948.65
427.586	3850.35
427.794	4182.12
428.001	4397.16
428.209	4499.56
428.417	4388.97
428.624	4790.37
428.832	4706.4
429.039	4653.16
429.247	4808.8
429.454	5107.8
429.662	5455.96
429.869	5118.04
430.076	5673.04
430.284	5455.96
430.491	5666.9
430.699	6006.86
430.906	5949.52
431.114	6033.49
431.321	6287.43
431.528	6479.94
431.736	6744.13
431.943	6965.31
432.15	6824
432.358	6881.35
432.565	7376.95
432.772	7217.21
432.979	7790.64
433.187	7934
433.394	7757.88
433.601	8321.07
433.808	8233.01
434.016	8396.84
434.223	8747.05
434.43	9074.72
434.637	9123.87
434.844	9564.18
435.052	9668.63
435.259	9746.45
435.466	9717.78
435.673	9613.34
435.88	10373.13
436.087	10870.79
436.294	10811.4
436.501	10565.64
436.708	10741.77
436.915	11378.69
437.122	11722.74
437.329	11614.2
437.537	11974.64
437.743	12204.02
437.95	12185.58
438.157	12554.22
438.364	13359.07
438.571	12896.23
438.778	13328.35
438.985	14409.68
439.192	13924.31
439.399	14557.13
439.606	14129.11
439.813	14923.72
440.02	15906.74
440.227	15476.67
440.433	15429.57
440.64	15824.83
440.847	15787.96
441.054	16068.53
441.261	17242.02
441.467	17268.64
441.674	17383.33
441.881	18018.2
442.088	17928.09
442.294	17901.47
442.501	18216.85
442.708	18585.49
442.914	19353.48
443.121	20070.26
443.328	19679.1
443.534	21182.31
443.741	20615.02
443.948	20330.36
444.154	21737.31
444.361	21340.01
444.568	21909.34
444.774	21557.09
444.981	22001.5
445.187	22681.42
445.394	23478.08
445.6	23426.89
445.807	25556.77
446.013	24583.99
446.22	24936.24
446.426	26027.81
446.633	26289.95
446.839	27064.08
447.046	26085.15
447.252	27318.03
447.459	27059.98
447.665	27275.02
447.871	28305.15
448.078	29464.3
448.284	28270.33
448.491	28946.16
448.697	30336.73
448.903	30797.52
449.11	30807.76
449.316	30482.14
449.522	30965.46
449.728	31844.04
449.935	32065.22
450.141	31626.95
450.347	33081.01
450.553	31532.75
450.76	32319.17
450.966	32966.32
451.172	32816.82
451.378	33662.63
451.584	33050.29
451.791	33679.02
451.997	33789.61
452.203	33996.45
452.409	34641.56
452.615	34113.19
452.821	32927.41
453.027	32722.62
453.233	34221.73
453.44	33019.57
453.646	33189.55
453.852	33531.56
454.058	34256.54
454.264	33023.67
454.47	33746.6
454.676	33040.05
454.882	34254.5
455.088	31117.01
455.294	31430.35
455.5	31612.62
455.705	32614.07
455.911	31030.99
456.117	30566.1
456.323	30031.58
456.529	28655.35
456.735	29689.57
456.941	28935.92
457.147	28712.69
457.352	27727.62
457.558	27440.9
457.764	27524.87
457.97	26720.02
458.176	26310.43
458.381	26550.04
458.587	25046.83
458.793	24751.92
458.999	23600.96
459.204	25507.62
459.41	24844.08
459.616	23226.18
459.821	23248.71
460.027	22890.32
460.233	22587.22
460.438	21593.95
460.644	21743.45
460.85	20907.88
461.055	20350.84
461.261	20268.92
461.466	18837.39
461.672	18333.59
461.878	19511.17
462.083	18251.67
462.289	17917.85
462.494	17670.05
462.7	16961.45
462.905	16543.66
463.111	17258.4
463.316	17110.95
463.522	16568.24
463.727	16725.93
463.932	16738.22
464.138	16682.92
464.343	16474.03
464.549	16222.13
464.754	16609.2
464.959	16390.06
465.165	16637.87
465.37	15820.73
465.575	15157.19
465.781	15908.79
465.986	15878.07
466.191	15359.94
466.397	15208.39
466.602	14374.86
466.807	14942.15
467.012	14958.53
467.218	14692.3
467.423	14462.93
467.628	14776.27
467.833	15460.29
468.038	14776.27
468.244	14358.48
468.449	15024.07
468.654	14542.8
468.859	14514.13
469.064	14186.45
469.269	13811.67
469.474	13721.56
469.679	14194.64
469.885	13649.88
470.09	13791.19
470.295	13881.3
470.5	13467.61
470.705	13623.26
470.91	13111.27
471.115	13068.26
471.32	13166.56
471.525	13268.96
471.73	12789.74
471.935	12832.74
472.139	12460.01
472.344	12529.64
472.549	12670.95
472.754	12306.41
472.959	11982.84
473.164	11780.09
473.369	11673.59
473.574	12079.09
473.778	11964.4
473.983	11757.56
474.188	11780.09
474.393	11264
474.598	11333.63
474.802	11085.83
475.007	11034.63
475.212	11048.96
475.417	10670.09
475.621	10645.51
475.826	10870.79
476.031	10444.81
476.235	10326.03
476.44	10770.44
476.645	10328.08
476.849	10471.43
477.054	10059.79
477.259	10076.18
477.463	10205.2
477.668	9699.35
477.872	9795.61
478.077	9746.45
478.282	9300
478.486	9347.1
478.691	9525.27
478.895	9429.02
479.1	9259.04
479.304	9203.74
479.509	8814.63
479.713	9037.86
479.918	8835.11
480.122	8769.57
480.326	8884.26
480.531	9179.17
480.735	8972.32
480.94	8853.54
481.144	9074.72
481.348	8556.58
481.553	8714.28
481.757	8677.41
481.961	8728.61
482.166	8732.71
482.37	8613.93
482.574	8536.1
482.778	8581.16
482.983	8775.72
483.187	8638.5
483.391	8689.7
483.595	8411.18
483.8	8306.73
484.004	8650.79
484.208	8796.2
484.412	8620.07
484.616	8501.29
484.821	8570.92
485.025	8478.76
485.229	8667.17
485.433	8409.13
485.637	8532.01
485.841	8310.83
486.045	8366.12
486.249	8529.96
486.453	8493.1
486.657	8448.04
486.861	8534.06
487.065	8302.64
487.269	8478.76
487.473	8269.87
487.677	8568.87
487.881	8620.07
488.085	8370.22
488.289	8525.86
488.493	8572.97
488.697	8572.97
488.901	8437.8
489.105	8661.03
489.309	8708.13
489.512	8566.82
489.716	8513.58
489.92	8484.91
490.124	8329.26
490.328	8785.96
490.531	8620.07
490.735	8826.92
490.939	8652.84
491.143	8517.67
491.346	8728.61
491.55	8828.96
491.754	8822.82
491.958	8837.16
492.161	8820.77
492.365	8824.87
492.569	8980.51
492.772	8972.32
492.976	8933.41
493.18	8773.67
493.383	9064.48
493.587	9089.06
493.79	9314.33
493.994	8923.17
494.197	9418.78
494.401	9420.83
494.605	9310.24
494.808	9498.65
495.012	9592.86
495.215	9668.63
495.419	9564.18
495.622	9596.95
495.825	9664.54
496.029	9738.26
496.232	9914.39
496.436	9811.99
496.639	10098.7
496.843	10151.95
497.046	10215.44
497.249	10385.42
497.453	10512.39
497.656	10598.41
497.859	10606.6
498.063	10672.14
498.266	10895.36
498.469	10901.51
498.673	11196.42
498.876	11216.9
499.079	11231.23
499.282	11327.49
499.485	11821.05
499.689	11653.11
499.892	11687.93
500.095	11829.24
500.298	12007.41
500.501	11902.97
500.705	12185.58
500.908	12275.7
501.111	12632.04
501.314	12750.82
501.517	12816.36
501.72	13033.44
501.923	12775.4
502.126	13156.32
502.329	13383.65
502.532	13484
502.735	13766.62
502.938	13948.89
503.141	13924.31
503.344	13842.39
503.547	14213.07
503.75	14190.55
503.953	14620.62
504.156	14442.45
504.359	14942.15
504.562	14970.82
504.765	15241.15
504.968	15302.59
505.17	15665.08
505.373	15646.65
505.576	15781.82
505.779	16312.24
505.982	15855.54
506.185	16482.22
506.387	16420.78
506.59	16588.72
506.793	16744.36
506.996	16820.14
507.198	17272.74
507.401	17512.35
507.604	17473.44
507.807	17862.55
508.009	17874.84
508.212	18192.28
508.415	18333.59
508.617	18499.47
508.82	18458.51
509.022	18519.95
509.225	19097.48
509.428	19470.21
509.63	19330.95
509.833	19609.47
510.035	20096.89
510.238	19853.18
510.44	20350.84
510.643	20594.54
510.845	20586.35
511.048	20897.64
511.25	21096.3
511.453	21104.49
511.655	22112.09
511.858	21509.99
512.06	21741.41
512.262	22226.78
512.465	21813.09
512.667	22437.72
512.87	22878.03
513.072	22673.23
513.274	23287.62
513.477	23578.43
513.679	23738.18
513.881	23678.79
514.084	23789.38
514.286	23955.26
514.488	24237.88
514.69	25122.6
514.893	25048.88
515.095	24997.68
515.297	25601.83
515.499	25452.33
515.701	26001.18
515.904	26205.98
516.106	26109.72
516.308	26863.38
516.51	27006.73
516.712	27107.09
516.914	27354.89
517.116	27596.55
517.318	28131.07
517.52	27993.86
517.722	28079.87
517.925	28702.45
518.127	29052.66
518.329	28985.07
518.531	29138.67
518.733	29744.87
518.935	29718.25
519.136	29798.12
519.338	30508.76
519.54	30537.43
519.742	30992.08
519.944	30875.35
520.146	31348.43
520.348	31909.57
520.55	31739.59
520.752	31690.44
520.954	32364.22
521.155	32249.53
521.357	32661.18
521.559	33031.86
521.761	33703.59
521.963	33728.17
522.164	33371.82
522.366	33769.13
522.568	34291.36
522.77	34432.67
522.971	34657.95
523.173	34569.88
523.375	34971.29
523.576	34924.18
523.778	35184.27
523.98	35724.94
524.181	35802.76
524.383	36206.21
524.584	36179.59
524.786	36427.39
524.988	36425.34
525.189	36750.97
525.391	36877.94
525.592	36988.53
525.794	37234.29
525.995	37428.85
526.197	37617.26
526.398	37596.78
526.6	37789.29
526.801	38112.87
527.003	37951.08
527.204	37928.55
527.406	38891.1
527.607	38323.81
527.808	38651.48
528.01	38288.99
528.211	39016.02
528.412	39546.45
528.614	38884.95
528.815	39374.42
529.016	39724.62
529.218	39419.47
529.419	39317.07
529.62	39673.42
529.822	39734.86
530.023	39659.09
530.224	39904.84
530.425	39884.36
530.626	39654.99
530.828	40195.65
531.029	40609.34
531.23	40128.07
531.431	40230.47
531.632	40498.75
531.833	40449.6
532.035	40363.59
532.236	40619.58
532.437	40496.7
532.638	40425.03
532.839	40592.96
533.04	40599.1
533.241	40011.34
533.442	41227.83
533.643	40631.87
533.844	40683.07
534.045	40549.95
534.246	40142.41
534.447	40941.11
534.648	40384.07
534.849	40879.67
535.05	40746.56
535.251	40789.56
535.451	40562.24
535.652	40965.69
535.853	40885.82
536.054	40873.53
536.255	40842.81
536.456	40107.59
536.657	41453.11
536.857	40904.25
537.058	40633.92
537.259	41244.21
537.46	41107
537.66	40691.26
537.861	40697.41
538.062	40406.59
538.263	41117.24
538.463	41035.32
538.664	40885.82
538.865	41063.99
539.065	40879.67
539.266	40459.84
539.466	41121.34
539.667	40539.71
539.868	41088.57
540.068	40625.73
540.269	40924.73
540.469	41176.63
540.67	40650.3
540.87	40922.68
541.071	40816.19
541.271	40984.12
541.472	40719.93
541.672	40580.67
541.873	40324.68
542.073	40189.51
542.274	41260.6
542.474	40500.8
542.675	40402.5
542.875	40969.79
543.075	40781.37
543.276	40316.48
543.476	40539.71
543.676	40324.68
543.877	40492.61
544.077	40830.52
544.277	40554.05
544.478	40496.7
544.678	40629.82
544.878	40420.93
545.078	40433.22
545.279	40224.32
545.479	40511.04
545.679	40457.79
545.879	40324.68
546.079	40433.22
546.28	40361.54
546.48	40103.49
546.68	40703.55
546.88	40613.44
547.08	40379.97
547.28	40306.24
547.48	40091.21
547.68	40785.47
547.88	40023.62
548.081	40455.75
548.281	40318.53
548.481	40298.05
548.681	40218.18
548.881	40253
549.081	40599.1
549.28	40259.14
549.48	40762.94
549.68	40265.28
549.88	41035.32
550.08	40117.83
550.28	40537.66
550.48	40275.52
550.68	40339.01
550.88	40056.39
551.08	40177.22
551.279	40345.16
551.479	39902.79
551.679	40150.6
551.879	39874.12
552.079	40543.81
552.278	40179.27
552.478	39994.95
552.678	39861.83
552.878	40302.15
553.077	40300.1
553.277	40007.24
553.477	40371.78
553.676	40138.31
553.876	40351.3
554.076	40040.01
554.275	39935.56
554.475	39654.99
554.674	39802.44
554.874	40068.68
555.074	39894.6
555.273	39896.65
555.473	40332.87
555.672	40050.25
555.872	39994.95
556.071	39908.94
556.271	40130.12
556.47	39876.17
556.67	39646.8
556.869	39910.99
557.068	39691.85
557.268	39730.76
557.467	39552.59
557.667	39683.66
557.866	39343.7
558.065	38897.24
558.265	39274.07
558.464	39265.88
558.663	39464.53
558.863	39237.2
559.062	39708.24
559.261	39016.02
559.461	39603.79
559.66	39204.44
559.859	39140.95
560.058	39005.78
560.258	39317.07
560.457	38653.53
560.656	38858.33
560.855	38692.44
561.054	39200.34
561.253	38551.13
561.453	38999.64
561.652	38764.12
561.851	38651.48
562.05	38606.43
562.249	38190.69
562.448	38641.25
562.647	38389.34
562.846	38131.3
563.045	38366.82
563.244	37781.1
563.443	37955.18
563.642	37688.94
563.841	38436.45
564.04	37848.68
564.239	38372.96
564.438	37850.73
564.637	37768.81
564.836	37555.82
565.035	37144.18
565.234	37521.01
565.432	37475.95
565.631	37500.53
565.83	37551.73
566.029	37023.35
566.228	37078.64
566.427	37244.53
566.625	36812.41
566.824	36609.66
567.023	36951.67
567.222	36490.88
567.42	36826.74
567.619	36613.76
567.818	36413.06
568.016	36429.44
568.215	36808.31
568.414	36523.65
568.612	36521.6
568.811	36052.61
569.01	36384.38
569.208	35507.85
569.407	35788.42
569.605	35423.89
569.804	35974.79
570.002	35391.12
570.201	35608.2
570.4	35397.26
570.598	35468.94
570.797	35032.72
570.995	35225.23
571.193	35051.16
571.392	34971.29
571.59	34672.28
571.789	34907.8
571.987	34770.58
572.186	34346.65
572.384	34662.04
572.582	34858.65
572.781	34641.56
572.979	34074.27
573.177	33953.44
573.376	34098.85
573.574	33984.16
573.772	34148
573.971	33877.67
574.169	33597.1
574.367	33650.35
574.565	33617.58
574.763	33318.57
574.962	33158.83
575.16	32855.73
575.358	33332.91
575.556	32689.85
575.754	33463.98
575.952	32722.62
576.151	32859.83
576.349	32466.62
576.547	32636.6
576.745	32618.17
576.943	32540.35
577.141	32353.98
577.339	32575.16
577.537	31997.63
577.735	31946.44
577.933	31706.82
578.131	32036.55
578.329	32011.97
578.527	31776.45
578.725	31409.87
578.923	32186.05
579.121	31395.53
579.319	31074
579.516	31688.39
579.714	31127.25
579.912	31239.89
580.11	31225.55
580.308	31270.61
580.506	31190.73
580.704	30607.06
580.901	30912.21
581.099	30555.86
581.297	30729.94
581.495	30392.03
581.692	30377.69
581.89	30330.59
582.088	30551.77
582.285	30181.09
582.483	30400.22
582.681	30176.99
582.878	29968.1
583.076	29892.32
583.274	29785.83
583.471	29409
583.669	29654.76
583.866	29396.71
584.064	29617.89
584.262	29103.85
584.459	29587.18
584.657	29079.28
584.854	29368.04
585.052	28563.19
585.249	29458.15
585.447	29066.99
585.644	28499.7
585.841	28542.71
586.039	28698.36
586.236	28499.7
586.434	28569.33
586.631	28399.35
586.828	28516.09
587.026	28208.89
587.223	28036.86
587.42	27989.76
587.618	28145.41
587.815	27705.09
588.012	27830.02
588.21	27784.96
588.407	27961.09
588.604	27725.57
588.801	27301.64
588.999	27399.94
589.196	27117.32
589.393	27430.66
589.59	27272.97
589.787	27072.27
589.984	26916.62
590.182	26785.55
590.379	26746.64
590.576	27049.74
590.773	26879.76
590.97	26363.67
591.167	26341.14
591.364	25974.56
591.561	26324.76
591.758	26085.15
591.955	26263.32
592.152	26126.11
592.349	25927.46
592.546	26369.82
592.743	25802.53
592.94	25577.25
593.137	25698.08
593.334	25638.69
593.531	25517.86
593.727	25970.46
593.924	25669.41
594.121	25128.75
594.318	25427.75
594.515	24833.84
594.712	25575.2
594.908	24893.23
595.105	25335.59
595.302	24723.25
595.499	25052.97
595.696	24987.44
595.892	24471.35
596.089	24549.17
596.286	24799.02
596.482	24282.94
596.679	24604.47
596.876	24323.9
597.072	24454.97
597.269	24215.35
597.466	23945.02
597.662	24131.39
597.859	24043.32
598.055	24002.36
598.252	23826.24
598.448	23977.79
598.645	23512.9
598.841	23332.68
599.038	23461.7
599.234	23600.96
599.431	23465.8
599.627	23375.69
599.824	23369.54
600.02	22703.95
600.217	23072.59
600.413	23099.21
600.609	22959.95
600.806	22859.6
601.002	22804.3
601.198	22931.28
601.395	22658.9
601.591	22589.27
601.787	22597.46
601.984	22316.89
602.18	22556.5
602.376	22421.33
602.572	22234.97
602.769	22179.67
602.965	22038.36
603.161	21903.2
603.357	21714.78
603.553	22120.28
603.75	21794.65
603.946	21585.76
604.142	22138.71
604.338	21495.65
604.534	21389.16
604.73	21372.77
604.926	21407.59
605.122	21538.66
605.318	21182.31
605.514	21548.9
605.71	21161.83
605.906	21331.81
606.102	20868.97
606.298	21165.93
606.494	20936.56
606.69	20895.6
606.886	20883.31
607.082	20477.81
607.278	20903.79
607.474	20522.87
607.67	20735.85
607.866	20330.36
608.062	20735.85
608.257	20533.11
608.453	20397.94
608.649	20481.91
608.845	20332.4
609.041	19982.2
609.236	20211.57
609.432	20078.46
609.628	20195.19
609.824	20072.31
610.019	20010.87
610.215	19830.65
610.411	19750.78
610.606	19720.06
610.802	19527.55
610.998	20002.68
611.193	19687.29
611.389	19543.94
611.584	19425.15
611.78	19421.06
611.976	19156.87
612.171	19572.61
612.367	19314.56
612.562	19382.15
612.758	19107.72
612.953	19216.26
613.149	19392.39
613.344	19107.72
613.539	19296.13
613.735	19347.33
613.93	19277.7
614.126	18843.53
614.321	19158.92
614.517	19134.34
614.712	18798.48
614.907	18843.53
615.103	19003.27
615.298	18708.37
615.493	19003.27
615.688	18515.86
615.884	18925.45
616.079	18663.31
616.274	18657.17
616.47	18503.57
616.665	18403.22
616.86	18370.45
617.055	18372.5
617.25	18401.17
617.445	18603.92
617.641	18053.02
617.836	18315.16
618.031	17731.48
618.226	18143.13
618.421	17833.88
618.616	17948.57
618.811	17651.61
619.006	18112.41
619.201	17455.01
619.396	17731.48
619.591	17203.11
619.786	17553.31
619.981	17217.44
620.176	17407.91
620.371	17018.79
620.566	17213.35
620.761	17020.84
620.956	17162.15
621.151	16795.56
621.346	17113
621.541	16709.55
621.735	16813.99
621.93	16410.54
622.125	16457.65
622.32	16496.56
622.515	16439.22
622.709	16107.44
622.904	16013.24
623.099	16021.43
623.294	15959.99
623.488	16113.59
623.683	16005.05
623.878	15732.67
624.072	15820.73
624.267	15630.27
624.462	15554.49
624.656	15704
624.851	15509.44
625.046	15089.6
625.24	15169.48
625.435	15374.27
625.629	14886.86
625.824	14952.39
626.018	14813.13
626.213	14786.51
626.407	14729.16
626.602	14548.94
626.796	14467.02
626.991	14526.41
627.185	14538.7
627.38	14317.52
627.574	14041.04
627.768	14170.07
627.963	13963.22
628.157	14032.85
628.352	14043.09
628.546	13602.78
628.74	13991.89
628.935	13615.07
629.129	13694.94
629.323	13361.12
629.517	13340.64
629.712	13717.47
629.906	13389.79
630.1	13434.85
630.294	13209.57
630.489	13111.27
630.683	13066.21
630.877	12857.32
631.071	12920.81
631.265	12832.74
631.459	12730.34
631.653	12779.5
631.848	12613.61
632.042	12537.84
632.236	12599.27
632.43	12396.53
632.624	12611.56
632.818	12310.51
633.012	11995.12
633.206	12115.95
633.4	12206.06
633.594	11696.12
633.788	12058.61
633.982	12138.48
634.176	11878.39
634.369	11831.29
634.563	11687.93
634.757	11622.39
634.951	11569.15
635.145	11649.02
635.339	11603.96
635.533	11503.61
635.726	11540.47
635.92	11184.13
636.114	11261.95
636.308	11044.87
636.501	11139.07
636.695	11196.42
636.889	10993.67
637.083	11139.07
637.276	10938.37
637.47	10833.93
637.664	10702.86
637.857	10786.82
638.051	10563.59
638.244	10553.35
638.438	10559.5
638.632	10561.55
638.825	10469.39
639.019	10260.49
639.212	10158.1
639.406	10250.25
639.599	10129.42
639.793	10057.75
639.986	9885.72
640.18	10129.42
640.373	10057.75
640.567	9709.59
640.76	9887.76
640.954	9728.02
641.147	9730.07
641.34	9691.16
641.534	9875.48
641.727	9736.21
641.92	9328.67
642.114	9465.88
642.307	9435.16
642.5	9226.27
642.694	9326.62
642.887	9267.23
643.08	9146.4
643.273	9168.93
643.467	8996.9
643.66	8980.51
643.853	8962.08
644.046	8878.12
644.239	8798.24
644.432	8908.83
644.626	8620.07
644.819	8636.45
645.012	8712.23
645.205	8546.34
645.398	8421.42
645.591	8511.53
645.784	8323.12
645.977	8329.26
646.17	8155.18
646.363	8249.39
646.556	8155.18
646.749	8347.69
646.942	8271.92
647.135	8075.31
647.328	8132.65
647.521	7981.1
647.714	7843.89
647.907	7960.63
648.099	7923.76
648.292	7868.47
648.485	7823.41
648.678	7725.11
648.871	7780.4
649.064	7501.88
649.256	7776.31
649.449	7534.65
649.642	7389.24
649.835	7350.33
650.027	7553.08
650.22	7342.14
650.413	7333.95
650.605	7352.38
650.798	7381.05
650.991	7385.15
651.183	7036.99
651.376	7190.59
651.568	7063.61
651.761	7116.86
651.954	7069.76
652.146	6973.5
652.339	7045.18
652.531	6858.82
652.724	6916.16
652.916	6760.52
653.109	6824
653.301	6824
653.494	6723.65
653.686	6697.03
653.879	6662.21
654.071	6787.14
654.263	6416.46
654.456	6539.33
654.648	6625.35
654.84	6426.7
655.033	6543.43
655.225	6324.3
655.417	6342.73
655.61	6279.24
655.802	6471.75
655.994	6377.55
656.186	6266.96
656.379	6156.36
656.571	6228.04
656.763	6086.73
656.955	6078.54
657.148	6082.64
657.34	6068.3
657.532	5902.42
657.724	6066.25
657.916	5922.9
658.108	6047.82
658.3	6045.77
658.492	5941.33
658.684	5765.2
658.876	5775.44
659.068	5630.04
659.26	5650.52
659.452	5658.71
659.644	5714
659.836	5642.32
660.028	5711.96
660.22	5478.49
660.412	5509.21
660.604	5548.12
660.796	5509.21
660.988	5523.54
661.18	5369.94
661.372	5410.9
661.563	5242.97
661.755	5279.83
661.947	5331.03
662.139	5263.45
662.331	5259.35
662.522	5216.35
662.714	5109.85
662.906	5171.29
663.097	5165.15
663.289	4980.83
663.481	5222.49
663.673	5136.48
663.864	5099.61
664.056	5144.67
664.247	4972.64
664.439	4905.06
664.631	5015.65
664.822	4876.38
665.014	4921.44
665.205	4851.81
665.397	4853.86
665.588	4923.49
665.78	4647.01
665.971	4718.69
666.163	4776.03
666.354	4657.25
666.546	4755.55
666.737	4554.85
666.929	4663.4
667.12	4630.63
667.311	4575.33
667.503	4694.12
667.694	4653.16
667.885	4565.09
668.077	4536.42
668.268	4436.07
668.459	4532.33
668.651	4454.5
668.842	4429.93
669.033	4460.65
669.224	4409.45
669.416	4360.3
669.607	4288.62
669.798	4548.71
669.989	4466.79
670.18	4380.78
670.371	4284.52
670.563	4249.71
670.754	4280.43
670.945	4243.56
671.136	4251.75
671.327	4288.62
671.518	4255.85
671.709	4016.24
671.9	4157.55
672.091	4100.2
672.282	4145.26
672.473	4139.12
672.664	4192.36
672.855	4108.4
673.046	4081.77
673.237	4182.12
673.428	4139.12
673.619	3952.75
673.809	4089.96
674	3977.33
674.191	4081.77
674.382	3932.27
674.573	3971.18
674.764	4096.11
674.954	3948.65
675.145	3887.22
675.336	3889.26
675.527	3838.06
675.717	3950.7
675.908	3772.53
676.099	3891.31
676.289	3836.02
676.48	3811.44
676.671	3688.56
676.861	3887.22
677.052	3655.79
677.243	3801.2
677.433	3743.86
677.624	3733.62
677.814	3729.52
678.005	3641.46
678.195	3680.37
678.386	3741.81
678.576	3553.4
678.767	3743.86
678.957	3637.36
679.148	3706.99
679.338	3625.08
679.529	3549.3
679.719	3688.56
679.909	3713.14
680.1	3620.98
680.29	3508.34
680.481	3498.1
680.671	3663.99
680.861	3616.88
681.052	3510.39
681.242	3432.57
681.432	3672.18
681.622	3549.3
681.813	3508.34
682.003	3627.12
682.193	3586.16
682.383	3399.8
682.573	3479.67
682.764	3469.43
682.954	3522.68
683.144	3407.99
683.334	3473.53
683.524	3432.57
683.714	3561.59
683.904	3324.02
684.094	3512.44
684.284	3420.28
684.474	3561.59
684.664	3391.61
684.854	3238.01
685.044	3307.64
685.234	3332.22
685.424	3348.6
685.614	3258.49
685.804	3354.74
685.994	3391.61
686.184	3340.41
686.374	3250.3
686.564	3395.7
686.753	3321.98
686.943	3319.93
687.133	3299.45
687.323	3289.21
687.513	3278.97
687.702	3141.75
687.892	3221.63
688.082	3217.53
688.272	3166.33
688.461	3213.43
688.651	3231.87
688.841	3096.7
689.03	3151.99
689.22	3141.75
689.41	3113.08
689.599	3147.9
689.789	3162.23
689.979	3055.74
690.168	3121.28
690.358	3156.09
690.547	3027.07
690.737	3053.69
690.926	3033.21
691.116	3199.1
691.305	3111.04
691.495	3137.66
691.684	2926.72
691.874	3070.08
692.063	2979.97
692.252	3072.12
692.442	2971.77
692.631	2959.49
692.82	2859.14
693.01	2975.87
693.199	3006.59
693.388	3031.16
693.578	2881.66
693.767	2945.15
693.956	2850.94
694.146	2855.04
694.335	2918.53
694.524	2824.32
694.713	2928.77
694.902	2932.86
695.092	2873.47
695.281	2875.52
695.47	2961.53
695.659	2889.85
695.848	2928.77
696.037	2807.94
696.226	2842.75
696.415	2838.66
696.604	2873.47
696.793	2793.6
696.982	2857.09
697.171	2932.86
697.36	2783.36
697.549	2826.37
697.738	2879.61
697.927	2832.51
698.116	2936.96
698.305	2732.16
698.494	2912.38
698.683	2752.64
698.872	2865.28
699.061	2928.77
699.25	2943.1
699.438	2713.73
699.627	2805.89
699.816	2949.25
700.005	2721.92
700.193	2773.12
700.382	2865.28
700.571	2750.59
700.76	2836.61
700.948	2920.57
701.137	2773.12
701.326	2758.78
701.514	2756.74
701.703	2873.47
701.892	2707.59
702.08	2873.47
702.269	2771.07
702.457	2760.83
702.646	2867.33
702.834	2709.63
703.023	2715.78
703.212	2713.73
703.4	2789.5
703.589	2723.97
703.777	2832.51
703.965	2689.15
704.154	2705.54
704.342	2662.53
704.531	2769.02
704.719	2683.01
704.907	2687.11
705.096	2758.78
705.284	2771.07
705.472	2693.25
705.661	2666.63
705.849	2832.51
706.037	2750.59
706.226	2715.78
706.414	2795.65
706.602	2699.39
706.79	2887.81
706.979	2752.64
707.167	2674.82
707.355	2656.39
707.543	2766.98
707.731	2619.52
707.919	2615.43
708.107	2613.38
708.296	2693.25
708.484	2617.47
708.672	2660.48
708.86	2652.29
709.048	2732.16
709.236	2601.09
709.424	2584.71
709.612	2508.93
709.8	2562.18
709.988	2615.43
710.176	2603.14
710.364	2680.96
710.551	2640
710.739	2697.35
710.927	2523.27
711.115	2504.84
711.303	2687.11
711.491	2601.09
711.679	2488.45
711.866	2703.49
712.054	2527.36
712.242	2525.32
712.43	2541.7
712.617	2582.66
712.805	2517.12
712.993	2433.16
713.181	2400.39
713.368	2459.78
713.556	2599.04
713.744	2574.47
713.931	2574.47
714.119	2439.3
714.306	2451.59
714.494	2394.25
714.682	2441.35
714.869	2533.51
715.057	2453.64
715.244	2465.93
715.432	2467.97
715.619	2465.93
715.807	2418.82
715.994	2443.4
716.182	2439.3
716.369	2314.38
716.556	2412.68
716.744	2541.7
716.931	2371.72
717.119	2371.72
717.306	2418.82
717.493	2281.61
717.681	2424.97
717.868	2349.19
718.055	2386.05
718.242	2316.42
718.43	2341
718.617	2297.99
718.804	2384.01
718.991	2218.12
719.179	2377.86
719.366	2336.9
719.553	2394.25
719.74	2220.17
719.927	2406.53
720.114	2289.8
720.301	2257.03
720.488	2285.7
720.676	2250.89
720.863	2244.74
721.05	2343.05
721.237	2336.9
721.424	2320.52
721.611	2187.4
721.798	2148.49
721.985	2257.03
722.172	2289.8
722.358	2222.22
722.545	2291.85
722.732	2177.16
722.919	2109.58
723.106	2189.45
723.293	2158.73
723.48	2187.4
723.667	2091.15
723.853	2252.94
724.04	2078.86
724.227	2123.91
724.414	2148.49
724.6	2187.4
724.787	2232.46
724.974	2123.91
725.161	2111.63
725.347	2132.11
725.534	2144.39
725.72	2101.39
725.907	2103.43
726.094	2179.21
726.28	2054.28
726.467	2183.31
726.653	2068.62
726.84	2109.58
727.027	2009.23
727.213	2105.48
727.4	2211.98
727.586	2113.67
727.773	2019.47
727.959	2058.38
728.145	1974.41
728.332	2085
728.518	2103.43
728.705	2027.66
728.891	2027.66
729.077	2076.81
729.264	2072.72
729.45	2001.04
729.636	2033.8
729.823	2093.19
730.009	1910.93
730.195	1931.41
730.382	2005.13
730.568	1937.55
730.754	1964.17
730.94	2035.85
731.126	2023.56
731.313	2001.04
731.499	2011.28
731.685	1958.03
731.871	1915.02
732.057	1925.26
732.243	1923.21
732.429	1919.12
732.615	2054.28
732.801	1806.48
732.987	1945.74
733.173	1939.6
733.359	1845.39
733.545	1888.4
733.731	1865.87
733.917	1872.01
734.103	1869.97
734.289	1888.4
734.475	1933.45
734.661	1976.46
734.847	1843.34
735.033	1820.81
735.219	1845.39
735.404	1810.58
735.59	1851.53
735.776	1769.62
735.962	1796.24
736.148	1796.24
736.333	1896.59
736.519	1775.76
736.705	1816.72
736.89	1763.47
737.076	1808.53
737.262	1720.46
737.447	1818.77
737.633	1742.99
737.819	1826.96
738.004	1749.14
738.19	1851.53
738.375	1745.04
738.561	1861.77
738.747	1794.19
738.932	1839.25
739.118	1720.46
739.303	1691.79
739.489	1740.94
739.674	1781.9
739.859	1753.23
740.045	1755.28
740.23	1757.33
740.416	1628.31
740.601	1749.14
740.786	1712.27
740.972	1740.94
741.157	1671.31
741.342	1607.83
741.528	1605.78
741.713	1548.44
741.898	1656.98
742.084	1591.44
742.269	1579.15
742.454	1632.4
742.639	1663.12
742.824	1683.6
743.01	1570.96
743.195	1517.72
743.38	1587.35
743.565	1564.82
743.75	1573.01
743.935	1425.56
744.12	1562.77
744.305	1532.05
744.49	1509.52
744.675	1497.24
744.86	1431.7
745.045	1482.9
745.23	1441.94
745.415	1548.44
745.6	1552.53
745.785	1478.8
745.97	1409.17
746.155	1398.93
746.34	1441.94
746.525	1454.23
746.71	1431.7
746.895	1392.79
747.079	1370.26
747.264	1396.89
747.449	1357.97
747.634	1450.13
747.819	1323.16
748.003	1335.45
748.188	1366.17
748.373	1427.6
748.557	1319.06
748.742	1370.26
748.927	1314.97
749.111	1355.93
749.296	1370.26
749.481	1220.76
749.665	1339.54
749.85	1337.49
750.034	1228.95
750.219	1231
750.404	1286.3
750.588	1327.25
750.773	1218.71
750.957	1245.34
751.141	1245.34
751.326	1155.23
751.51	1286.3
751.695	1179.8
751.879	1198.23
752.064	1216.66
752.248	1212.57
752.432	1173.66
752.617	1118.36
752.801	1196.18
752.985	1196.18
753.17	1149.08
753.354	1112.22
753.538	1151.13
753.722	1161.37
753.907	1058.97
754.091	1110.17
754.275	1124.51
754.459	999.58
754.643	1038.49
754.828	1065.11
755.012	1069.21
755.196	1052.83
755.38	1040.54
755.564	1013.92
755.748	1061.02
755.932	1050.78
756.116	1020.06
756.3	1009.82
756.484	1089.69
756.668	1054.87
756.852	956.57
757.036	1052.83
757.22	952.48
757.404	977.05
757.588	893.09
757.772	960.67
757.956	944.28
758.14	964.76
758.323	913.56
758.507	886.94
758.691	880.8
758.875	999.58
759.059	981.15
759.242	915.61
759.426	872.61
759.61	864.41
759.794	895.13
759.977	786.59
760.161	954.52
760.345	911.52
760.528	923.8
760.712	880.8
760.895	866.46
761.079	876.7
761.263	850.08
761.446	919.71
761.63	864.41
761.813	805.02
761.997	866.46
762.18	843.93
762.364	784.54
762.547	819.36
762.731	805.02
762.914	790.69
763.098	747.68
763.281	768.16
763.464	782.49
763.648	729.25
763.831	757.92
764.015	764.06
764.198	796.83
764.381	710.82
764.564	725.15
764.748	757.92
764.931	821.41
765.114	704.67
765.297	772.25
765.481	802.97
765.664	714.91
765.847	694.43
766.03	747.68
766.213	735.39
766.397	723.1
766.58	747.68
766.763	772.25
766.946	772.25
767.129	692.38
767.312	684.19
767.495	733.34
767.678	727.2
767.861	694.43
768.044	694.43
768.227	772.25
768.41	696.48
768.593	735.39
768.776	710.82
768.959	645.28
769.142	710.82
769.324	673.95
769.507	655.52
769.69	706.72
769.873	704.67
770.056	606.37
770.239	624.8
770.421	719.01
770.604	651.42
770.787	678.05
770.97	702.62
771.152	608.42
771.335	663.71
771.518	671.9
771.7	690.34
771.883	692.38
772.066	561.31
772.248	618.66
772.431	641.18
772.613	643.23
772.796	712.86
772.978	618.66
773.161	729.25
773.343	719.01
773.526	682.14
773.708	561.31
773.891	553.12
774.073	540.83
774.256	497.83
774.438	549.03
774.621	565.41
774.803	669.86
774.985	538.79
775.168	569.51
775.35	553.12
775.532	616.61
775.715	612.51
775.897	608.42
776.079	581.79
776.261	589.99
776.444	522.4
776.626	567.46
776.808	555.17
776.99	475.3
777.173	440.48
777.355	532.64
777.537	526.5
777.719	471.2
777.901	483.49
778.083	420
778.265	460.96
778.447	475.3
778.629	549.03
778.811	491.68
778.993	514.21
779.175	471.2
779.357	520.35
779.539	436.39
779.721	448.68
779.903	510.11
780.085	508.07
780.267	485.54
780.449	454.82
780.631	510.11
780.812	477.35
780.994	473.25
781.176	477.35
781.358	540.83
781.54	432.29
781.721	413.86
781.903	471.2
782.085	430.24
782.267	358.57
782.448	401.57
782.63	430.24
782.812	391.33
782.993	389.28
783.175	381.09
783.357	385.19
783.538	383.14
783.72	340.13
783.901	428.2
784.083	333.99
784.264	493.73
784.446	377
784.627	372.9
784.809	329.89
784.99	381.09
785.172	448.68
785.353	344.23
785.535	403.62
785.716	317.61
785.897	346.28
786.079	340.13
786.26	336.04
786.441	315.56
786.623	278.69
786.804	311.46
786.985	331.94
787.167	370.85
787.348	364.71
787.529	329.89
787.71	340.13
787.891	290.98
788.073	252.07
788.254	356.52
788.435	315.56
788.616	295.08
788.797	309.41
788.978	262.31
789.159	297.13
789.34	301.22
789.522	374.95
789.703	266.41
789.884	383.14
790.065	348.33
790.246	317.61
790.427	270.5
790.607	295.08
790.788	348.33
790.969	219.3
791.15	241.83
791.331	266.41
791.512	290.98
791.693	153.77
791.874	272.55
792.054	352.42
792.235	338.09
792.416	293.03
792.597	317.61
792.778	346.28
792.958	260.26
793.139	274.6
793.32	221.35
793.5	274.6
793.681	286.89
793.862	225.45
794.042	192.68
794.223	217.26
794.404	170.15
794.584	194.73
794.765	184.49
794.945	264.36
795.126	295.08
795.306	319.65
795.487	178.34
795.667	159.91
795.848	262.31
796.028	233.64
796.209	200.87
796.389	213.16
796.57	297.13
796.75	215.21
796.93	215.21
797.111	196.78
797.291	221.35
797.471	256.17
797.652	217.26
797.832	264.36
798.012	235.69
798.192	176.3
798.373	207.02
798.553	178.34
798.733	299.17
798.913	211.11
799.093	172.2
799.274	225.45
799.454	221.35
799.634	217.26
799.814	239.78
799.994	299.17
800.174	164.01
800.354	219.3
800.534	204.97
800.714	231.59
800.894	178.34
801.074	153.77
801.254	211.11
801.434	178.34
801.614	141.48
801.794	176.3
801.974	598.18
802.154	174.25
802.334	241.83
802.514	147.62
802.693	223.4
802.873	139.43
803.053	98.47
803.233	176.3
803.413	133.29
803.592	123.05
803.772	164.01
803.952	108.71
804.131	131.24
804.311	200.87
804.491	151.72
804.67	184.49
804.85	174.25
805.03	225.45
805.209	168.1
805.389	221.35
805.568	159.91
805.748	170.15
805.928	141.48
806.107	166.06
806.287	188.58
806.466	94.38
806.646	198.82
806.825	202.92
807.004	131.24
807.184	137.38
807.363	118.95
807.543	121
807.722	127.14
807.901	129.19
808.081	123.05
808.26	141.48
808.439	133.29
808.619	131.24
808.798	121
808.977	55.47
809.156	166.06
809.336	133.29
809.515	151.72
809.694	174.25
809.873	190.63
810.052	190.63
810.231	143.53
810.411	161.96
810.59	114.86
810.769	121
810.948	143.53
811.127	110.76
811.306	127.14
811.485	98.47
811.664	106.67
811.843	127.14
812.022	100.52
812.201	94.38
812.38	86.19
812.559	65.71
812.737	110.76
812.916	139.43
813.095	137.38
813.274	88.23
813.453	145.58
813.632	129.19
813.811	71.85
813.989	55.47
814.168	121
814.347	-5.97
814.526	143.53
814.704	100.52
814.883	59.56
815.062	98.47
815.24	94.38
815.419	63.66
815.598	112.81
815.776	110.76
815.955	180.39
816.133	41.13
816.312	51.37
816.49	86.19
816.669	104.62
816.847	49.32
817.026	77.99
817.204	100.52
817.383	118.95
817.561	71.85
817.74	123.05
817.918	121
818.097	133.29
818.275	155.82
818.453	116.9
818.632	26.79
818.81	94.38
818.988	30.89
819.167	110.76
819.345	84.14
819.523	104.62
819.701	80.04
819.879	127.14
820.058	47.27
820.236	73.9
820.414	166.06
820.592	96.43
820.77	53.42
820.948	45.23
821.127	118.95
821.305	166.06
821.483	110.76
821.661	94.38
821.839	98.47
822.017	82.09
822.195	4.27
822.373	49.32
822.551	112.81
822.729	41.13
822.907	102.57
823.085	133.29
823.262	22.7
823.44	43.18
823.618	10.41
823.796	104.62
823.974	30.89
824.152	67.75
824.329	30.89
824.507	69.8
824.685	75.95
824.863	82.09
825.04	57.51
825.218	98.47
825.396	69.8
825.574	10.41
825.751	164.01
825.929	88.23
826.107	69.8
826.284	12.46
826.462	49.32
826.639	143.53
826.817	41.13
826.994	139.43
827.172	45.23
827.349	75.95
827.527	-10.07
827.704	61.61
827.882	86.19
828.059	84.14
828.237	37.03
828.414	43.18
828.591	86.19
828.769	135.34
828.946	104.62
829.124	102.57
829.301	127.14
829.478	6.31
829.655	73.9
829.833	100.52
830.01	32.94
830.187	80.04
830.364	104.62
830.542	86.19
830.719	65.71
830.896	69.8
831.073	102.57
831.25	16.55
831.427	47.27
831.604	114.86
831.782	-46.93
831.959	-5.97
832.136	135.34
832.313	32.94
832.49	61.61
832.667	37.03
832.844	88.23
833.021	143.53
833.198	90.28
833.374	34.99
833.551	41.13
833.728	149.67
833.905	77.99
834.082	39.08
834.259	96.43
834.436	108.71
834.612	86.19
834.789	84.14
834.966	102.57
835.143	92.33
835.319	49.32
835.496	71.85
835.673	90.28
835.85	0.17
836.026	43.18
836.203	61.61
836.38	51.37
836.556	102.57
836.733	30.89
836.909	112.81
837.086	59.56
837.262	12.46
837.439	43.18
837.616	59.56
837.792	37.03
837.968	80.04
838.145	-5.97
838.321	24.75
838.498	86.19
838.674	26.79
838.851	-24.4
839.027	4.27
839.203	34.99
839.38	51.37
839.556	0.17
839.732	22.7
839.909	65.71
840.085	20.65
840.261	16.55
840.437	-10.07
840.614	12.46
840.79	90.28
840.966	88.23
841.142	45.23
841.318	-14.17
841.494	63.66
841.671	55.47
841.847	-14.17
842.023	63.66
842.199	55.47
842.375	53.42
842.551	-79.7
842.727	59.56
842.903	39.08
843.079	6.31
843.255	73.9
843.431	106.67
843.607	14.51
843.783	34.99
843.959	69.8
844.134	4.27
844.31	-5.97
844.486	-5.97
844.662	-16.21
844.838	49.32
845.013	14.51
845.189	116.9
845.365	0.17
845.541	51.37
845.716	69.8
845.892	45.23
846.068	-1.88
846.244	-46.93
846.419	28.84
846.595	8.36
846.77	53.42
846.946	57.51
847.122	59.56
847.297	90.28
847.473	-10.07
847.648	-38.74
847.824	-18.26
847.999	-8.02
848.175	28.84
848.35	-24.4
848.526	108.71
848.701	14.51
848.876	149.67
849.052	59.56
849.227	63.66
849.403	28.84
849.578	32.94
849.753	12.46
849.929	22.7
850.104	49.32
850.279	28.84
850.454	77.99
850.63	73.9
850.805	16.55
850.98	61.61
851.155	22.7
851.33	39.08
851.505	4.27
851.681	57.51
851.856	12.46
852.031	-10.07
852.206	73.9
852.381	47.27
852.556	41.13
852.731	-24.4
852.906	41.13
853.081	34.99
853.256	-24.4
853.431	20.65
853.606	59.56
853.781	-12.12
853.956	28.84
854.131	-8.02
854.305	18.6
854.48	16.55
854.655	16.55
854.83	84.14
855.005	57.51
855.18	43.18
855.354	69.8
855.529	32.94
855.704	-28.5
855.879	-3.93
856.053	-26.45
856.228	41.13
856.403	-59.22
856.577	45.23
856.752	26.79
856.926	63.66
857.101	92.33
857.276	-28.5
857.45	45.23
857.625	-12.12
857.799	22.7
857.974	45.23
858.148	-3.93
858.323	16.55
858.497	-57.17
858.672	-10.07
858.846	77.99
859.02	43.18
859.195	-30.55
859.369	8.36
859.543	-12.12
859.718	-38.74
859.892	-16.21
860.066	20.65
860.241	22.7
860.415	26.79
860.589	-20.31
860.763	-5.97
860.938	71.85
861.112	-8.02
861.286	10.41
861.46	-20.31
861.634	-20.31
861.808	112.81
861.982	14.51
862.157	8.36
862.331	16.55
862.505	59.56
862.679	37.03
862.853	26.79
863.027	-3.93
863.201	28.84
863.375	-26.45
863.549	49.32
863.722	14.51
863.896	51.37
864.07	-10.07
864.244	49.32
864.418	-87.89
864.592	45.23
864.766	45.23
864.939	18.6
865.113	-57.17
865.287	28.84
865.461	32.94
865.634	-12.12
865.808	4.27
865.982	77.99
866.156	80.04
866.329	18.6
866.503	-10.07
866.676	16.55
866.85	-22.36
867.024	-18.26
867.197	49.32
867.371	24.75
867.544	20.65
867.718	71.85
867.891	16.55
868.065	-28.5
868.238	-16.21
868.412	-18.26
868.585	77.99
868.759	16.55
868.932	84.14
869.105	4.27
869.279	2.22
869.452	-24.4
869.625	-3.93
869.799	82.09
869.972	-3.93
870.145	41.13
870.319	-22.36
870.492	45.23
870.665	55.47
870.838	55.47
871.011	16.55
871.185	16.55
871.358	-20.31
871.531	10.41
871.704	-40.79
871.877	49.32
872.05	84.14
872.223	63.66
872.396	53.42
872.569	16.55
872.742	-69.46
872.915	82.09
873.088	18.6
873.261	32.94
873.434	0.17
873.607	45.23
873.78	-22.36
873.953	-48.98
874.126	-55.12
874.299	-36.69
874.471	-32.6
874.644	77.99
874.817	-3.93
874.99	47.27
875.163	-42.84
875.335	18.6
875.508	30.89
875.681	-24.4
875.853	-5.97
876.026	10.41
876.199	59.56
876.371	69.8
876.544	12.46
876.717	32.94
876.889	0.17
877.062	-81.75
877.234	12.46
877.407	32.94
877.579	51.37
877.752	-34.64
877.924	-14.17
878.097	49.32
878.269	47.27
878.442	57.51
878.614	0.17
878.786	63.66
878.959	-48.98
879.131	20.65
879.303	18.6
879.476	45.23
879.648	65.71
879.82	-1.88
879.993	-14.17
880.165	47.27
880.337	-14.17
880.509	-26.45
880.681	10.41
880.854	34.99
881.026	-42.84
881.198	39.08
881.37	61.61
881.542	65.71
881.714	12.46
881.886	-22.36
882.058	-12.12
882.23	45.23
882.402	-5.97
882.574	34.99
882.746	73.9
882.918	-14.17
883.09	-26.45
883.262	-42.84
883.434	-8.02
883.606	14.51
883.778	4.27
883.95	32.94
884.122	-55.12
884.293	-48.98
884.465	-14.17
884.637	86.19
884.809	77.99
884.98	63.66
885.152	51.37
885.324	12.46
885.496	-36.69
885.667	12.46
885.839	-3.93
886.011	110.76
886.182	-10.07
886.354	80.04
886.525	32.94
886.697	6.31
886.869	-102.23
887.04	12.46
887.212	65.71
887.383	14.51
887.555	-30.55
887.726	-5.97
887.897	-10.07
888.069	45.23
888.24	18.6
888.412	37.03
888.583	14.51
888.754	-10.07
888.926	-24.4
889.097	-8.02
889.268	-53.08
889.44	22.7
889.611	22.7
889.782	-5.97
889.953	-22.36
890.125	-14.17
890.296	-55.12
890.467	12.46
890.638	-1.88
890.809	-22.36
890.98	-94.04
891.151	24.75
891.323	49.32
891.494	16.55
891.665	49.32
891.836	-77.65
892.007	-44.88
892.178	18.6
892.349	0.17
892.52	6.31
892.691	28.84
892.862	2.22
893.032	-24.4
893.203	12.46
893.374	28.84
893.545	10.41
893.716	14.51
893.887	98.47
894.057	-5.97
894.228	-40.79
894.399	-32.6
894.57	-20.31
894.74	37.03
894.911	45.23
895.082	2.22
895.253	69.8
895.423	2.22
895.594	16.55
895.764	-38.74
895.935	32.94
896.106	75.95
896.276	32.94
896.447	10.41
896.617	-67.41
896.788	24.75
896.958	-14.17
897.129	39.08
897.299	-69.46
897.47	0.17
897.64	-26.45
897.81	-42.84
897.981	32.94
898.151	-65.36
898.322	-71.51
898.492	45.23
898.662	-20.31
898.832	-20.31
899.003	0.17
899.173	-34.64
899.343	-34.64
899.513	-44.88
