Data from USB4F104151__88__12-36-58-968.txt Node

Date: Fri Mar 14 12:36:58 EDT 2025
User: louis
Spectrometer: USB4F10415
Trigger mode: 4
Integration Time (sec): 2.000000E-2
Scans to average: 1
Electric dark correction enabled: true
Nonlinearity correction enabled: false
Boxcar width: 0
XAxis mode: Wavelengths
Number of Pixels in Spectrum: 3648
>>>>>Begin Spectral Data<<<<<
178.204	-120.49
178.424	-120.49
178.644	-120.49
178.864	-100.01
179.084	-134.82
179.304	-11.95
179.524	-13.99
179.744	6.49
179.964	78.16
180.184	4.44
180.404	-26.28
180.624	-54.95
180.844	-108.2
181.064	24.92
181.283	55.64
181.503	-44.71
181.723	90.45
181.943	-18.09
182.163	72.02
182.383	4.44
182.602	18.77
182.822	35.16
183.042	51.54
183.262	-18.09
183.482	94.55
183.701	-28.33
183.921	57.68
184.141	-40.62
184.361	39.25
184.58	0.34
184.8	20.82
185.02	47.44
185.239	31.06
185.459	98.64
185.679	51.54
185.898	63.83
186.118	39.25
186.338	-36.52
186.557	47.44
186.777	31.06
186.997	-3.75
187.216	-32.43
187.436	78.16
187.655	100.69
187.875	14.68
188.095	-13.99
188.314	-30.38
188.534	20.82
188.753	37.2
188.973	14.68
189.192	90.45
189.412	47.44
189.631	69.97
189.851	10.58
190.07	88.4
190.29	22.87
190.509	65.88
190.729	20.82
190.948	47.44
191.168	88.4
191.387	84.31
191.607	-48.81
191.826	39.25
192.045	24.92
192.265	6.49
192.484	43.35
192.704	26.96
192.923	12.63
193.142	22.87
193.362	24.92
193.581	65.88
193.8	92.5
194.02	26.96
194.239	-26.28
194.458	10.58
194.678	53.59
194.897	65.88
195.116	59.73
195.335	8.53
195.555	-28.33
195.774	74.07
195.993	47.44
196.212	49.49
196.432	84.31
196.651	-50.86
196.87	-16.04
197.089	110.93
197.308	59.73
197.528	39.25
197.747	33.11
197.966	88.4
198.185	123.22
198.404	67.92
198.623	12.63
198.842	108.88
199.062	29.01
199.281	137.56
199.5	-22.19
199.719	51.54
199.938	98.64
200.157	78.16
200.376	16.73
200.595	37.2
200.814	51.54
201.033	69.97
201.252	49.49
201.471	72.02
201.69	10.58
201.909	22.87
202.128	26.96
202.347	-3.75
202.566	-34.47
202.785	33.11
203.004	2.39
203.223	16.73
203.442	47.44
203.661	16.73
203.879	49.49
204.098	49.49
204.317	53.59
204.536	4.44
204.755	63.83
204.974	61.78
205.193	67.92
205.411	16.73
205.63	24.92
205.849	26.96
206.068	14.68
206.287	100.69
206.505	-30.38
206.724	49.49
206.943	-18.09
207.162	14.68
207.381	24.92
207.599	-28.33
207.818	14.68
208.037	43.35
208.255	24.92
208.474	-59.05
208.693	-44.71
208.911	18.77
209.13	43.35
209.349	39.25
209.567	115.03
209.786	24.92
210.005	33.11
210.223	49.49
210.442	49.49
210.661	12.63
210.879	-5.8
211.098	127.32
211.316	4.44
211.535	2.39
211.753	45.4
211.972	65.88
212.191	-57
212.409	16.73
212.628	-3.75
212.846	8.53
213.065	-20.14
213.283	65.88
213.502	35.16
213.72	51.54
213.938	12.63
214.157	10.58
214.375	84.31
214.594	-26.28
214.812	-9.9
215.031	-9.9
215.249	-32.43
215.467	-36.52
215.686	51.54
215.904	92.5
216.122	45.4
216.341	63.83
216.559	92.5
216.778	37.2
216.996	69.97
217.214	-54.95
217.432	67.92
217.651	2.39
217.869	14.68
218.087	-3.75
218.306	33.11
218.524	49.49
218.742	-57
218.96	82.26
219.179	74.07
219.397	10.58
219.615	51.54
219.833	10.58
220.051	18.77
220.27	59.73
220.488	65.88
220.706	61.78
220.924	29.01
221.142	80.21
221.36	22.87
221.578	39.25
221.796	-5.8
222.015	-61.1
222.233	49.49
222.451	78.16
222.669	33.11
222.887	69.97
223.105	51.54
223.323	45.4
223.541	-18.09
223.759	80.21
223.977	59.73
224.195	6.49
224.413	76.12
224.631	-7.85
224.849	33.11
225.067	65.88
225.285	4.44
225.503	-36.52
225.721	-30.38
225.939	10.58
226.157	-3.75
226.375	63.83
226.592	16.73
226.81	39.25
227.028	-7.85
227.246	41.3
227.464	-26.28
227.682	33.11
227.9	6.49
228.117	72.02
228.335	74.07
228.553	31.06
228.771	57.68
228.989	57.68
229.206	39.25
229.424	47.44
229.642	86.36
229.86	2.39
230.077	45.4
230.295	61.78
230.513	16.73
230.731	69.97
230.948	33.11
231.166	26.96
231.384	51.54
231.601	127.32
231.819	59.73
232.037	14.68
232.254	63.83
232.472	-24.23
232.689	12.63
232.907	78.16
233.125	63.83
233.342	33.11
233.56	4.44
233.777	18.77
233.995	2.39
234.213	35.16
234.43	26.96
234.648	47.44
234.865	29.01
235.083	-9.9
235.3	49.49
235.518	31.06
235.735	59.73
235.953	16.73
236.17	2.39
236.388	37.2
236.605	39.25
236.822	43.35
237.04	20.82
237.257	37.2
237.475	-18.09
237.692	37.2
237.909	86.36
238.127	4.44
238.344	16.73
238.562	29.01
238.779	18.77
238.996	78.16
239.214	29.01
239.431	33.11
239.648	41.3
239.865	31.06
240.083	10.58
240.3	43.35
240.517	51.54
240.735	14.68
240.952	18.77
241.169	26.96
241.386	20.82
241.603	49.49
241.821	57.68
242.038	106.84
242.255	78.16
242.472	0.34
242.689	47.44
242.907	-7.85
243.124	0.34
243.341	-9.9
243.558	72.02
243.775	-42.67
243.992	-30.38
244.209	14.68
244.426	-7.85
244.643	41.3
244.86	26.96
245.078	90.45
245.295	76.12
245.512	35.16
245.729	16.73
245.946	65.88
246.163	20.82
246.38	102.74
246.597	-59.05
246.814	2.39
247.031	-18.09
247.248	-13.99
247.464	31.06
247.681	2.39
247.898	80.21
248.115	26.96
248.332	45.4
248.549	-26.28
248.766	37.2
248.983	4.44
249.2	59.73
249.417	37.2
249.633	-42.67
249.85	26.96
250.067	65.88
250.284	39.25
250.501	53.59
250.717	26.96
250.934	-24.23
251.151	47.44
251.368	-13.99
251.585	12.63
251.801	53.59
252.018	37.2
252.235	26.96
252.451	45.4
252.668	10.58
252.885	61.78
253.102	14.68
253.318	63.83
253.535	-3.75
253.752	-24.23
253.968	20.82
254.185	84.31
254.401	45.4
254.618	51.54
254.835	61.78
255.051	65.88
255.268	12.63
255.484	2.39
255.701	37.2
255.917	39.25
256.134	125.27
256.351	31.06
256.567	-85.67
256.784	51.54
257	-3.75
257.217	43.35
257.433	18.77
257.65	80.21
257.866	18.77
258.082	-46.76
258.299	59.73
258.515	100.69
258.732	29.01
258.948	51.54
259.165	4.44
259.381	22.87
259.597	37.2
259.814	104.79
260.03	-20.14
260.246	55.64
260.463	49.49
260.679	72.02
260.895	-3.75
261.112	20.82
261.328	0.34
261.544	41.3
261.761	117.08
261.977	10.58
262.193	10.58
262.409	63.83
262.626	67.92
262.842	86.36
263.058	37.2
263.274	94.55
263.49	61.78
263.707	-11.95
263.923	41.3
264.139	16.73
264.355	69.97
264.571	72.02
264.787	35.16
265.004	39.25
265.22	31.06
265.436	106.84
265.652	-5.8
265.868	-22.19
266.084	-50.86
266.3	35.16
266.516	24.92
266.732	22.87
266.948	-18.09
267.164	31.06
267.38	65.88
267.596	39.25
267.812	31.06
268.028	61.78
268.244	53.59
268.46	112.98
268.676	29.01
268.892	33.11
269.108	39.25
269.324	2.39
269.54	31.06
269.756	37.2
269.972	8.53
270.188	12.63
270.403	31.06
270.619	12.63
270.835	4.44
271.051	12.63
271.267	-9.9
271.483	29.01
271.698	53.59
271.914	35.16
272.13	14.68
272.346	6.49
272.562	53.59
272.777	92.5
272.993	0.34
273.209	45.4
273.425	45.4
273.64	43.35
273.856	31.06
274.072	0.34
274.287	8.53
274.503	37.2
274.719	24.92
274.934	10.58
275.15	16.73
275.366	76.12
275.581	0.34
275.797	59.73
276.012	41.3
276.228	6.49
276.444	74.07
276.659	33.11
276.875	2.39
277.09	72.02
277.306	45.4
277.521	47.44
277.737	37.2
277.952	98.64
278.168	76.12
278.383	41.3
278.599	10.58
278.814	57.68
279.03	24.92
279.245	-7.85
279.461	12.63
279.676	72.02
279.892	45.4
280.107	-63.15
280.322	2.39
280.538	-1.71
280.753	-5.8
280.969	49.49
281.184	29.01
281.399	153.94
281.615	20.82
281.83	65.88
282.045	33.11
282.26	112.98
282.476	63.83
282.691	20.82
282.906	-3.75
283.122	33.11
283.337	14.68
283.552	76.12
283.767	4.44
283.983	43.35
284.198	45.4
284.413	63.83
284.628	-36.52
284.843	76.12
285.058	104.79
285.274	10.58
285.489	39.25
285.704	24.92
285.919	67.92
286.134	14.68
286.349	61.78
286.564	-38.57
286.779	55.64
286.995	43.35
287.21	-44.71
287.425	72.02
287.64	31.06
287.855	74.07
288.07	6.49
288.285	59.73
288.5	78.16
288.715	110.93
288.93	18.77
289.145	37.2
289.36	92.5
289.575	-22.19
289.79	125.27
290.004	65.88
290.219	39.25
290.434	-5.8
290.649	33.11
290.864	-30.38
291.079	-28.33
291.294	84.31
291.509	78.16
291.724	-9.9
291.938	35.16
292.153	86.36
292.368	57.68
292.583	51.54
292.798	37.2
293.012	57.68
293.227	143.7
293.442	22.87
293.657	90.45
293.871	76.12
294.086	14.68
294.301	86.36
294.516	65.88
294.73	6.49
294.945	29.01
295.16	-20.14
295.374	76.12
295.589	67.92
295.804	10.58
296.018	59.73
296.233	104.79
296.447	47.44
296.662	59.73
296.877	49.49
297.091	33.11
297.306	80.21
297.52	-73.39
297.735	26.96
297.949	51.54
298.164	65.88
298.378	-36.52
298.593	74.07
298.807	-5.8
299.022	26.96
299.236	59.73
299.451	61.78
299.665	16.73
299.88	53.59
300.094	55.64
300.309	112.98
300.523	92.5
300.737	31.06
300.952	10.58
301.166	65.88
301.381	4.44
301.595	74.07
301.809	10.58
302.024	82.26
302.238	33.11
302.452	69.97
302.667	90.45
302.881	88.4
303.095	18.77
303.309	61.78
303.524	22.87
303.738	43.35
303.952	-28.33
304.166	57.68
304.381	-1.71
304.595	14.68
304.809	31.06
305.023	31.06
305.237	20.82
305.452	37.2
305.666	65.88
305.88	49.49
306.094	31.06
306.308	51.54
306.522	-9.9
306.736	18.77
306.95	53.59
307.164	135.51
307.379	2.39
307.593	145.75
307.807	63.83
308.021	-3.75
308.235	63.83
308.449	10.58
308.663	-40.62
308.877	106.84
309.091	78.16
309.305	88.4
309.519	-32.43
309.733	100.69
309.947	49.49
310.161	76.12
310.374	22.87
310.588	92.5
310.802	39.25
311.016	-18.09
311.23	47.44
311.444	29.01
311.658	-22.19
311.872	-44.71
312.085	67.92
312.299	31.06
312.513	82.26
312.727	63.83
312.941	49.49
313.154	92.5
313.368	115.03
313.582	98.64
313.796	43.35
314.009	76.12
314.223	80.21
314.437	22.87
314.651	72.02
314.864	80.21
315.078	-44.71
315.292	43.35
315.505	47.44
315.719	47.44
315.933	24.92
316.146	33.11
316.36	63.83
316.573	29.01
316.787	55.64
317.001	88.4
317.214	10.58
317.428	67.92
317.641	92.5
317.855	6.49
318.068	49.49
318.282	41.3
318.495	112.98
318.709	96.6
318.922	-48.81
319.136	80.21
319.349	59.73
319.563	69.97
319.776	39.25
319.99	35.16
320.203	24.92
320.417	55.64
320.63	29.01
320.843	63.83
321.057	39.25
321.27	33.11
321.483	-1.71
321.697	82.26
321.91	110.93
322.124	78.16
322.337	-11.95
322.55	8.53
322.763	20.82
322.977	67.92
323.19	72.02
323.403	125.27
323.617	20.82
323.83	24.92
324.043	-9.9
324.256	10.58
324.469	76.12
324.683	65.88
324.896	12.63
325.109	84.31
325.322	-3.75
325.535	57.68
325.748	47.44
325.962	100.69
326.175	-7.85
326.388	69.97
326.601	112.98
326.814	35.16
327.027	55.64
327.24	106.84
327.453	8.53
327.666	-36.52
327.879	39.25
328.092	84.31
328.305	53.59
328.518	72.02
328.731	12.63
328.944	51.54
329.157	-13.99
329.37	-3.75
329.583	55.64
329.796	115.03
330.009	39.25
330.222	98.64
330.435	18.77
330.648	102.74
330.861	6.49
331.073	35.16
331.286	-32.43
331.499	37.2
331.712	24.92
331.925	80.21
332.138	26.96
332.35	41.3
332.563	-32.43
332.776	88.4
332.989	16.73
333.202	-7.85
333.414	82.26
333.627	39.25
333.84	59.73
334.053	74.07
334.265	-40.62
334.478	18.77
334.691	96.6
334.903	78.16
335.116	12.63
335.329	33.11
335.541	39.25
335.754	141.65
335.966	82.26
336.179	24.92
336.392	53.59
336.604	96.6
336.817	-9.9
337.029	53.59
337.242	31.06
337.454	135.51
337.667	-38.57
337.88	63.83
338.092	84.31
338.305	74.07
338.517	55.64
338.729	61.78
338.942	-5.8
339.154	72.02
339.367	33.11
339.579	63.83
339.792	63.83
340.004	57.68
340.217	37.2
340.429	69.97
340.641	26.96
340.854	-69.29
341.066	12.63
341.278	84.31
341.491	59.73
341.703	61.78
341.915	8.53
342.128	69.97
342.34	108.88
342.552	-1.71
342.764	57.68
342.977	20.82
343.189	29.01
343.401	18.77
343.613	8.53
343.826	39.25
344.038	53.59
344.25	59.73
344.462	55.64
344.674	20.82
344.886	82.26
345.099	51.54
345.311	86.36
345.523	53.59
345.735	-9.9
345.947	29.01
346.159	18.77
346.371	-5.8
346.583	61.78
346.795	61.78
347.007	51.54
347.219	45.4
347.431	-7.85
347.643	33.11
347.855	0.34
348.067	14.68
348.279	6.49
348.491	-13.99
348.703	55.64
348.915	0.34
349.127	69.97
349.339	22.87
349.551	-67.24
349.763	112.98
349.975	69.97
350.187	170.32
350.399	22.87
350.61	112.98
350.822	78.16
351.034	74.07
351.246	92.5
351.458	41.3
351.669	72.02
351.881	55.64
352.093	20.82
352.305	92.5
352.517	65.88
352.728	2.39
352.94	37.2
353.152	121.17
353.363	-40.62
353.575	29.01
353.787	47.44
353.999	82.26
354.21	8.53
354.422	100.69
354.633	43.35
354.845	45.4
355.057	53.59
355.268	51.54
355.48	-3.75
355.692	10.58
355.903	80.21
356.115	-18.09
356.326	-11.95
356.538	86.36
356.749	117.08
356.961	22.87
357.172	22.87
357.384	49.49
357.595	162.13
357.807	37.2
358.018	31.06
358.23	41.3
358.441	53.59
358.653	76.12
358.864	41.3
359.075	98.64
359.287	47.44
359.498	96.6
359.709	112.98
359.921	51.54
360.132	61.78
360.344	96.6
360.555	-3.75
360.766	53.59
360.977	6.49
361.189	14.68
361.4	76.12
361.611	80.21
361.823	69.97
362.034	26.96
362.245	61.78
362.456	86.36
362.667	69.97
362.879	53.59
363.09	55.64
363.301	51.54
363.512	29.01
363.723	47.44
363.935	65.88
364.146	90.45
364.357	2.39
364.568	100.69
364.779	24.92
364.99	57.68
365.201	6.49
365.412	96.6
365.623	4.44
365.834	94.55
366.045	26.96
366.256	29.01
366.467	61.78
366.678	35.16
366.889	65.88
367.1	92.5
367.311	127.32
367.522	53.59
367.733	67.92
367.944	80.21
368.155	20.82
368.366	74.07
368.577	112.98
368.788	78.16
368.999	-1.71
369.209	76.12
369.42	37.2
369.631	119.12
369.842	24.92
370.053	22.87
370.264	92.5
370.474	24.92
370.685	37.2
370.896	4.44
371.107	61.78
371.317	74.07
371.528	-3.75
371.739	57.68
371.95	35.16
372.16	20.82
372.371	-1.71
372.582	49.49
372.792	57.68
373.003	61.78
373.214	57.68
373.424	29.01
373.635	-20.14
373.846	129.36
374.056	141.65
374.267	55.64
374.477	45.4
374.688	-26.28
374.898	96.6
375.109	-16.04
375.319	57.68
375.53	108.88
375.74	65.88
375.951	84.31
376.161	24.92
376.372	92.5
376.582	26.96
376.793	82.26
377.003	67.92
377.214	63.83
377.424	18.77
377.635	147.8
377.845	53.59
378.055	49.49
378.266	22.87
378.476	26.96
378.686	69.97
378.897	43.35
379.107	72.02
379.317	65.88
379.528	168.27
379.738	104.79
379.948	-20.14
380.158	84.31
380.369	67.92
380.579	57.68
380.789	82.26
380.999	82.26
381.21	82.26
381.42	170.32
381.63	41.3
381.84	53.59
382.05	90.45
382.261	123.22
382.471	43.35
382.681	57.68
382.891	74.07
383.101	37.2
383.311	45.4
383.521	18.77
383.731	-9.9
383.941	82.26
384.151	123.22
384.361	108.88
384.571	14.68
384.781	102.74
384.991	151.89
385.201	133.46
385.411	125.27
385.621	119.12
385.831	72.02
386.041	82.26
386.251	39.25
386.461	74.07
386.671	135.51
386.881	72.02
387.091	65.88
387.301	59.73
387.511	-5.8
387.72	39.25
387.93	57.68
388.14	123.22
388.35	72.02
388.56	8.53
388.769	10.58
388.979	78.16
389.189	125.27
389.399	90.45
389.609	35.16
389.818	110.93
390.028	84.31
390.238	76.12
390.447	82.26
390.657	69.97
390.867	49.49
391.076	57.68
391.286	155.99
391.496	94.55
391.705	45.4
391.915	135.51
392.125	145.75
392.334	137.56
392.544	184.66
392.753	90.45
392.963	12.63
393.172	74.07
393.382	92.5
393.591	119.12
393.801	39.25
394.01	51.54
394.22	174.42
394.429	166.23
394.639	86.36
394.848	139.6
395.058	102.74
395.267	78.16
395.477	112.98
395.686	121.17
395.895	112.98
396.105	155.99
396.314	123.22
396.524	65.88
396.733	69.97
396.942	198.99
397.152	90.45
397.361	108.88
397.57	123.22
397.78	106.84
397.989	121.17
398.198	129.36
398.407	98.64
398.617	80.21
398.826	162.13
399.035	168.27
399.244	153.94
399.453	65.88
399.663	137.56
399.872	209.23
400.081	129.36
400.29	145.75
400.499	80.21
400.708	115.03
400.917	172.37
401.127	192.85
401.336	29.01
401.545	162.13
401.754	182.61
401.963	117.08
402.172	188.75
402.381	164.18
402.59	168.27
402.799	94.55
403.008	149.84
403.217	135.51
403.426	184.66
403.635	158.03
403.844	135.51
404.053	119.12
404.262	112.98
404.471	147.8
404.68	168.27
404.888	203.09
405.097	188.75
405.306	244.05
405.515	168.27
405.724	256.34
405.933	282.96
406.142	203.09
406.35	188.75
406.559	293.2
406.768	196.95
406.977	213.33
407.185	278.87
407.394	285.01
407.603	237.91
407.812	313.68
408.02	268.63
408.229	260.43
408.438	280.91
408.646	299.34
408.855	276.82
409.064	330.06
409.272	297.3
409.481	325.97
409.69	332.11
409.898	254.29
410.107	422.22
410.315	325.97
410.524	336.21
410.733	377.17
410.941	459.09
411.15	432.46
411.358	483.66
411.567	481.61
411.775	465.23
411.984	465.23
412.192	532.81
412.401	495.95
412.609	586.06
412.818	641.36
413.026	518.48
413.234	653.64
413.443	670.03
413.651	684.36
413.86	670.03
414.068	719.18
414.276	733.51
414.485	692.55
414.693	801.1
414.901	854.34
415.11	856.39
415.318	880.97
415.526	868.68
415.734	899.4
415.943	960.84
416.151	1046.85
416.359	1048.9
416.567	999.75
416.776	1036.61
416.984	1096
417.192	1106.24
417.4	1173.83
417.608	1204.55
417.817	1247.55
418.025	1229.12
418.233	1417.54
418.441	1280.32
418.649	1411.39
418.857	1524.03
419.065	1564.99
419.273	1464.64
419.481	1550.65
419.689	1597.76
419.897	1786.17
420.105	1831.23
420.313	1904.95
420.521	1909.05
420.729	1872.18
420.937	2038.07
421.145	2191.67
421.353	2242.87
421.561	2349.36
421.769	2267.44
421.977	2408.75
422.185	2355.51
422.393	2543.92
422.601	2713.9
422.809	2636.08
423.017	2730.28
423.224	2775.34
423.432	3012.9
423.64	3035.43
423.848	3148.07
424.056	3129.64
424.263	3313.95
424.471	3414.31
424.679	3465.5
424.887	3539.23
425.094	3731.74
425.302	3778.84
425.51	3957.02
425.718	4098.33
425.925	3993.88
426.133	4294.93
426.341	4366.61
426.548	4653.33
426.756	4700.43
426.964	4780.3
427.171	4987.15
427.379	5232.9
427.586	5169.41
427.794	5277.96
428.001	5527.81
428.209	5789.95
428.417	5798.14
428.624	6234.36
428.832	6197.49
429.039	6043.9
429.247	6138.1
429.454	6889.71
429.662	7141.61
429.869	6807.79
430.076	7231.72
430.284	7053.55
430.491	7145.7
430.699	7561.44
430.906	7665.89
431.114	7772.38
431.321	8149.21
431.528	8294.61
431.736	8911.05
431.943	9296.07
432.15	9117.9
432.358	9015.5
432.565	9646.27
432.772	9543.88
432.979	9994.43
433.187	10014.91
433.394	10268.86
433.601	11067.56
433.808	10965.17
434.016	10842.29
434.223	11391.14
434.43	12044.45
434.637	11940
434.844	12646.55
435.052	12621.97
435.259	12937.36
435.466	12935.31
435.673	12572.82
435.88	13512.84
436.087	14252.16
436.294	14385.27
436.501	13969.54
436.708	14295.16
436.915	14710.9
437.122	15384.68
437.329	15411.31
437.537	15833.19
437.743	16162.91
437.95	15951.97
438.157	16785.49
438.364	17428.56
438.571	17334.35
438.778	17449.04
438.985	19114.03
439.192	18499.64
439.399	18899
439.606	18653.24
439.813	19378.22
440.02	20746.26
440.227	20275.23
440.433	20043.81
440.64	20879.38
440.847	20951.06
441.054	21174.29
441.261	22738.94
441.467	22552.57
441.674	22603.77
441.881	23945.19
442.088	23629.8
442.294	23656.43
442.501	23973.86
442.708	24627.17
442.914	25470.93
443.121	26712
443.328	26081.22
443.534	27908.01
443.741	26730.43
443.948	26591.17
444.154	28518.31
444.361	28338.08
444.568	28465.06
444.774	28245.93
444.981	28780.45
445.187	29831.05
445.394	30947.2
445.6	30764.93
445.807	33707.86
446.013	32261.99
446.22	32669.54
446.426	33791.83
446.633	34207.56
446.839	35227.45
447.046	33992.53
447.252	35598.13
447.459	35903.28
447.665	35415.86
447.871	37601.05
448.078	39063.3
448.284	37216.03
448.491	37596.95
448.697	39341.82
448.903	39960.31
449.11	40500.97
449.316	39632.63
449.522	40349.42
449.728	41524.96
449.935	41694.94
450.141	41658.07
450.347	42692.3
450.553	41463.52
450.76	41930.45
450.966	43316.93
451.172	42651.34
451.378	44166.84
451.584	42870.47
451.791	44138.16
451.997	43890.36
452.203	44531.37
452.409	44756.65
452.615	44549.81
452.821	42770.12
453.027	42350.29
453.233	44408.5
453.44	43136.71
453.646	43044.55
453.852	43814.58
454.058	44207.79
454.264	42542.8
454.47	43579.07
454.676	42856.14
454.882	44441.26
455.088	40179.44
455.294	40980.2
455.5	41404.13
455.705	41756.38
455.911	40136.43
456.117	39640.82
456.323	38883.08
456.529	37310.24
456.735	38709
456.941	37353.24
457.147	36894.5
457.352	35827.51
457.558	35725.11
457.764	35493.69
457.97	35123.01
458.176	34105.16
458.381	34187.08
458.587	32544.61
458.793	32290.66
458.999	30936.96
459.204	32935.77
459.41	31981.42
459.616	30095.24
459.821	29872.01
460.027	30029.71
460.233	29446.04
460.438	27717.55
460.644	28448.68
460.85	26722.24
461.055	26216.39
461.261	26509.25
461.466	24743.9
461.672	23719.92
461.878	25354.19
462.083	23879.66
462.289	23416.82
462.494	22925.3
462.7	21848.07
462.905	21461.01
463.111	22163.46
463.316	22007.81
463.522	21741.58
463.727	21770.25
463.932	21919.75
464.138	21309.46
464.343	21401.61
464.549	21032.98
464.754	21897.22
464.959	21190.67
465.165	21321.74
465.37	20357.15
465.575	19722.28
465.781	20709.4
465.986	20641.82
466.191	20023.33
466.397	19611.69
466.602	18759.74
466.807	19286.06
467.012	19556.39
467.218	19576.87
467.423	19169.33
467.628	19089.46
467.833	20088.87
468.038	19130.42
468.244	18780.21
468.449	19540.01
468.654	18835.51
468.859	18669.62
469.064	18526.27
469.269	17680.46
469.474	17727.56
469.679	18298.94
469.885	18100.29
470.09	18106.43
470.295	17956.93
470.5	17406.03
470.705	17680.46
470.91	17066.06
471.115	17078.35
471.32	17184.85
471.525	17170.51
471.73	17016.91
471.935	16838.74
472.139	16078.94
472.344	16261.21
472.549	16347.23
472.754	16273.5
472.959	15710.31
473.164	15399.02
473.369	15026.29
473.574	15482.99
473.778	15732.84
473.983	15241.32
474.188	15583.34
474.393	14678.13
474.598	14829.68
474.802	14442.62
475.007	14409.85
475.212	14594.17
475.417	13738.12
475.621	13719.68
475.826	14131.33
476.031	13701.25
476.235	13564.04
476.44	13627.53
476.645	13541.51
476.849	13506.7
477.054	13285.51
477.259	12959.89
477.463	13324.43
477.668	12832.91
477.872	12912.78
478.077	12767.38
478.282	12355.74
478.486	12273.82
478.691	12144.8
478.895	12284.06
479.1	12214.43
479.304	12187.8
479.509	11806.88
479.713	12060.83
479.918	11673.76
480.122	11511.97
480.326	11735.2
480.531	11794.59
480.735	11626.66
480.94	11544.74
481.144	11843.74
481.348	11503.78
481.553	11434.15
481.757	11219.11
481.961	11387.05
482.166	11663.52
482.37	11624.61
482.574	11258.03
482.778	11153.58
482.983	11292.84
483.187	11395.24
483.391	11528.36
483.595	11147.44
483.8	11045.04
484.004	11219.11
484.208	11561.12
484.412	11331.75
484.616	11413.67
484.821	11563.17
485.025	11284.65
485.229	11266.22
485.433	11354.28
485.637	11243.69
485.841	11112.62
486.045	11241.64
486.249	11161.77
486.453	11081.9
486.657	11419.82
486.861	11268.27
487.065	11045.04
487.269	11272.36
487.473	11284.65
487.677	11405.48
487.881	11493.54
488.085	11247.79
488.289	11268.27
488.493	11456.68
488.697	11450.53
488.901	11370.66
489.105	11190.44
489.309	11581.6
489.512	11444.39
489.716	11169.96
489.92	11526.31
490.124	11309.22
490.328	11759.78
490.531	11466.92
490.735	11514.02
490.939	11638.95
491.143	11491.49
491.346	11628.71
491.55	11853.98
491.754	11714.72
491.958	11907.23
492.161	11751.59
492.365	11966.62
492.569	11901.09
492.772	11964.57
492.976	11872.42
493.18	12243.1
493.383	12408.98
493.587	12347.54
493.79	12345.5
493.994	12271.77
494.197	12384.41
494.401	12458.14
494.605	12671.12
494.808	12558.49
495.012	12677.27
495.215	12707.99
495.419	12800.15
495.622	12722.32
495.825	13152.4
496.029	13129.87
496.232	13289.61
496.436	13463.69
496.639	13791.36
496.843	13609.09
497.046	13897.86
497.249	14178.43
497.453	14241.92
497.656	14311.55
497.859	14289.02
498.063	14479.48
498.266	14461.05
498.469	14559.35
498.673	14768.24
498.876	15183.98
499.079	15222.89
499.282	15231.08
499.485	15626.34
499.689	15478.89
499.892	15898.72
500.095	16076.9
500.298	16175.2
500.501	16113.76
500.705	16799.83
500.908	16656.47
501.111	17002.58
501.314	17064.02
501.517	17393.74
501.72	17469.51
501.923	17559.63
502.126	18034.75
502.329	18059.33
502.532	18085.95
502.735	18450.49
502.938	18747.45
503.141	18583.61
503.344	18888.76
503.547	19034.16
503.75	19513.39
503.953	19650.6
504.156	19560.49
504.359	19818.53
504.562	20004.9
504.765	20477.98
504.968	20875.29
505.17	20699.16
505.373	21344.27
505.576	21366.8
505.779	21712.91
505.982	21714.95
506.185	22161.41
506.387	21819.4
506.59	22239.23
506.793	22792.19
506.996	22679.55
507.198	23523.31
507.401	23363.57
507.604	23611.37
507.807	24043.49
508.009	24141.8
508.212	24180.71
508.415	24549.34
508.617	24866.78
508.82	24903.64
509.022	25065.43
509.225	25665.49
509.428	25794.51
509.63	26019.78
509.833	25878.47
510.035	26562.5
510.238	26593.22
510.44	27144.12
510.643	27129.78
510.845	27453.36
511.048	27590.58
511.25	27975.59
511.453	27953.07
511.655	28962.72
511.858	28753.82
512.06	28925.85
512.262	29325.21
512.465	29288.34
512.667	30007.18
512.87	29724.56
513.072	30390.15
513.274	30822.27
513.477	30934.91
513.679	31336.31
513.881	31373.17
514.084	32235.37
514.286	31995.76
514.488	32257.9
514.69	32810.85
514.893	32950.11
515.095	33275.74
515.297	33318.74
515.499	33472.34
515.701	33883.98
515.904	34375.5
516.106	34881.35
516.308	34789.19
516.51	35426.1
516.712	35458.87
516.914	36042.54
517.116	36548.39
517.318	36437.8
517.52	36826.92
517.722	36851.49
517.925	37476.12
518.127	37785.36
518.329	38151.95
518.531	37912.34
518.733	38506.25
518.935	39360.25
519.136	39030.53
519.338	39487.23
519.54	39497.47
519.742	40128.24
519.944	40412.91
520.146	40976.1
520.348	41256.67
520.55	41154.27
520.752	41393.89
520.954	42141.39
521.155	41254.62
521.357	42270.42
521.559	42520.27
521.761	43368.13
521.963	42991.3
522.164	43196.1
522.366	43452.09
522.568	44101.3
522.77	44082.87
522.971	44965.54
523.173	44840.62
523.375	44887.72
523.576	45174.44
523.778	45147.81
523.98	45977.24
524.181	46089.88
524.383	45991.58
524.584	46663.31
524.786	46681.74
524.988	46104.21
525.189	46575.25
525.391	46915.21
525.592	47212.16
525.794	47513.22
525.995	47447.68
526.197	47705.73
526.398	47632
526.6	47961.72
526.801	48049.78
527.003	48492.15
527.204	48541.3
527.406	49028.71
527.607	48957.03
527.808	49442.4
528.01	48596.59
528.211	49024.62
528.412	50060.89
528.614	49786.46
528.815	49933.92
529.016	50429.52
529.218	49829.47
529.419	50132.57
529.62	50644.56
529.822	50116.18
530.023	50169.43
530.224	50830.93
530.425	50163.29
530.626	50048.6
530.828	50228.82
531.029	51256.9
531.23	50597.46
531.431	50773.58
531.632	50527.83
531.833	51025.48
532.035	50648.66
532.236	50755.15
532.437	51156.55
532.638	50933.32
532.839	51342.92
533.04	51441.22
533.241	50736.72
533.442	51697.22
533.643	51064.39
533.844	50865.74
534.045	51498.56
534.246	51246.66
534.447	51318.34
534.648	50759.25
534.849	51347.01
535.05	50798.16
535.251	51437.12
535.451	51205.7
535.652	51461.7
535.853	51129.93
536.054	51023.43
536.255	51439.17
536.456	50574.93
536.657	51594.82
536.857	51123.79
537.058	50925.13
537.259	51654.21
537.46	51377.73
537.66	51209.8
537.861	51265.1
538.062	51357.25
538.263	51371.59
538.463	51050.06
538.664	51230.28
538.865	51334.73
539.065	51627.59
539.266	50628.18
539.466	51787.33
539.667	50447.96
539.868	51498.56
540.068	51015.24
540.269	50951.76
540.469	51353.16
540.67	50863.69
540.87	50980.43
541.071	51043.91
541.271	51119.69
541.472	51027.53
541.672	50976.33
541.873	50945.61
542.073	50130.52
542.274	51369.54
542.474	50783.82
542.675	50796.11
542.875	51129.93
543.075	50697.81
543.276	50429.52
543.476	51615.3
543.676	50460.24
543.877	50951.76
544.077	50941.52
544.277	50359.89
544.478	50626.13
544.678	50605.65
544.878	50800.21
545.078	50726.48
545.279	50429.52
545.479	50220.63
545.679	50417.24
545.879	50337.37
546.079	50568.79
546.28	50196.06
546.48	50114.14
546.68	50429.52
546.88	50409.04
547.08	50363.99
547.28	50335.32
547.48	50011.74
547.68	50363.99
547.88	50239.06
548.081	50480.72
548.281	50785.87
548.481	50409.04
548.681	50820.69
548.881	50380.37
549.081	50265.69
549.28	49972.83
549.48	50822.73
549.68	50146.9
549.88	51187.27
550.08	49905.24
550.28	50802.25
550.48	49921.63
550.68	50310.74
550.88	50048.6
551.08	50118.23
551.279	50175.58
551.479	50194.01
551.679	50359.89
551.879	50151
552.079	50021.98
552.278	49952.35
552.478	50185.82
552.678	49985.11
552.878	50212.44
553.077	50191.96
553.277	49598.05
553.477	50316.89
553.676	50298.45
553.876	50028.12
554.076	49800.8
554.275	49737.31
554.475	48789.1
554.674	49634.91
554.874	49606.24
555.074	49622.62
555.273	49925.72
555.473	50140.76
555.672	49331.81
555.872	49094.25
556.071	49452.64
556.271	49729.12
556.47	49716.83
556.67	49006.19
556.869	49368.68
557.068	49464.93
557.268	49065.58
557.467	49335.91
557.667	49077.86
557.866	49251.94
558.065	49522.27
558.265	48522.86
558.464	48866.92
558.663	49256.04
558.863	48264.82
559.062	49315.43
559.261	48582.26
559.461	49380.96
559.66	48369.27
559.859	48477.81
560.058	48238.2
560.258	48430.71
560.457	48086.65
560.656	48389.75
560.855	48072.31
561.054	48297.59
561.253	47820.41
561.453	47877.75
561.652	48092.79
561.851	48060.02
562.05	48008.82
562.249	47691.39
562.448	48215.67
562.647	47992.44
562.846	47328.9
563.045	47775.36
563.244	46784.14
563.443	47912.57
563.642	47023.75
563.841	47611.52
564.04	47136.39
564.239	47562.37
564.438	46757.52
564.637	47109.77
564.836	46861.96
565.035	46720.65
565.234	47066.76
565.432	46894.73
565.631	46630.54
565.83	46640.78
566.029	46110.36
566.228	46595.73
566.427	46159.51
566.625	46196.37
566.824	45502.11
567.023	45958.81
567.222	45563.55
567.42	46122.65
567.619	46116.5
567.818	45960.86
568.016	45633.18
568.215	45930.14
568.414	45805.21
568.612	45741.72
568.811	45354.66
569.01	45584.03
569.208	44893.86
569.407	45127.33
569.605	44539.57
569.804	45481.63
570.002	44893.86
570.201	45405.86
570.4	44426.93
570.598	44625.58
570.797	44117.68
570.995	44467.89
571.193	43759.29
571.392	44631.72
571.59	43908.79
571.789	43886.26
571.987	43964.09
572.186	43570.88
572.384	43753.15
572.582	43792.06
572.781	43382.46
572.979	43122.37
573.177	43593.4
573.376	43593.4
573.574	43009.73
573.772	43192
573.971	43130.56
574.169	42819.27
574.367	42743.5
574.565	43015.88
574.763	42524.36
574.962	42348.24
575.16	41889.49
575.358	42469.07
575.556	41737.94
575.754	42598.09
575.952	42133.2
576.151	42192.59
576.349	41602.78
576.547	41647.83
576.745	41729.75
576.943	41840.34
577.141	41213.66
577.339	41596.63
577.537	41058.02
577.735	41234.14
577.933	40965.86
578.131	41387.74
578.329	40795.88
578.527	41031.4
578.725	40885.99
578.923	40865.51
579.121	40568.55
579.319	40324.85
579.516	40642.28
579.714	40265.45
579.912	40042.23
580.11	40056.56
580.308	40150.77
580.506	39808.76
580.704	39509.75
580.901	39730.94
581.099	39706.36
581.297	39233.28
581.495	39499.51
581.692	39335.68
581.89	39030.53
582.088	39427.84
582.285	39370.49
582.483	38858.5
582.681	39177.98
582.878	38706.95
583.076	38569.74
583.274	38881.03
583.471	38526.73
583.669	38416.14
583.866	38055.7
584.064	38291.21
584.262	37666.58
584.459	38428.43
584.657	38039.31
584.854	38481.67
585.052	37766.93
585.249	37674.77
585.447	37420.83
585.644	37359.39
585.841	37543.7
586.039	37474.07
586.236	37230.37
586.434	36894.5
586.631	36835.11
586.828	37078.82
587.026	37089.06
587.223	36734.76
587.42	36489
587.618	36794.15
587.815	36175.66
588.012	36132.65
588.21	35798.84
588.407	36425.51
588.604	35888.95
588.801	35516.22
588.999	36200.24
589.196	35481.4
589.393	36022.06
589.59	36017.97
589.787	35426.1
589.984	35174.2
590.182	35196.73
590.379	35225.4
590.576	35018.56
590.773	34713.41
590.97	34983.74
591.167	35254.08
591.364	34240.33
591.561	34783.04
591.758	34307.91
591.955	34420.55
592.152	34926.4
592.349	34438.98
592.546	34064.21
592.743	34246.47
592.94	33492.82
593.137	33777.49
593.334	33775.44
593.531	33474.39
593.727	33769.3
593.924	33521.49
594.121	33529.69
594.318	33427.29
594.515	32894.82
594.712	33460.05
594.908	33144.67
595.105	33085.28
595.302	32898.91
595.499	32806.75
595.696	32644.96
595.892	32380.78
596.089	32612.2
596.286	32683.87
596.482	32438.12
596.679	32411.49
596.876	32229.23
597.072	32218.99
597.269	31926.13
597.466	31668.08
597.662	31903.6
597.859	31682.42
598.055	31846.26
598.252	31715.19
598.448	31655.79
598.645	31278.97
598.841	31240.06
599.038	31106.94
599.234	31168.38
599.431	30803.84
599.627	30793.6
599.824	31002.49
600.02	30674.82
600.217	30750.59
600.413	30687.11
600.609	30465.92
600.806	30242.7
601.002	30189.45
601.198	30039.95
601.395	30365.57
601.591	29945.74
601.787	30103.43
601.984	29749.14
602.18	29998.99
602.376	29663.12
602.572	29421.46
602.769	29587.35
602.965	29284.25
603.161	29476.76
603.357	28905.37
603.553	29020.06
603.75	29026.2
603.946	28866.46
604.142	29028.25
604.338	28733.34
604.534	29235.1
604.73	28286.89
604.926	28530.59
605.122	28409.76
605.318	28088.23
605.514	28399.52
605.71	28250.02
605.906	27791.28
606.102	28155.82
606.298	27979.69
606.494	27893.68
606.69	28116.9
606.886	27924.4
607.082	27428.79
607.278	27916.2
607.474	27117.5
607.67	27803.57
607.866	27340.72
608.062	27635.63
608.257	27383.73
608.453	27305.91
608.649	27258.81
608.845	27062.2
609.041	27084.73
609.236	27004.86
609.432	26820.54
609.628	26972.09
609.824	26724.29
610.019	26660.8
610.215	26742.72
610.411	26900.41
610.606	26480.58
610.802	26574.78
610.998	26599.36
611.193	26429.38
611.389	26593.22
611.584	26265.54
611.78	26357.7
611.976	26591.17
612.171	26441.67
612.367	26398.66
612.562	26103.75
612.758	25567.18
612.953	25962.44
613.149	26103.75
613.344	25470.93
613.539	26261.44
613.735	25874.38
613.93	25958.35
614.126	25796.56
614.321	25694.16
614.517	25681.87
614.712	25745.36
614.907	25319.38
615.103	25774.03
615.298	25462.74
615.493	25700.3
615.688	25411.54
615.884	25307.09
616.079	25118.68
616.274	25587.66
616.47	25006.04
616.665	25128.92
616.86	24805.34
617.055	25008.09
617.25	24750.04
617.445	25006.04
617.641	24535.01
617.836	24907.74
618.031	24475.62
618.226	24594.4
618.421	24547.29
618.616	24899.55
618.811	23930.86
619.006	24770.52
619.201	23928.81
619.396	24149.99
619.591	23805.93
619.786	23889.9
619.981	23623.66
620.176	23830.51
620.371	23703.53
620.566	23371.76
620.761	23818.22
620.956	23545.84
621.151	23402.48
621.346	23388.14
621.541	22888.44
621.735	22935.54
621.93	22566.91
622.125	22659.07
622.32	22382.59
622.515	22491.13
622.709	22327.3
622.904	22435.84
623.099	22171.65
623.294	22034.44
623.488	22091.78
623.683	22065.16
623.878	21630.99
624.072	21649.42
624.267	21622.8
624.462	21356.56
624.656	21088.28
624.851	21225.49
625.046	20854.81
625.24	21030.93
625.435	20750.36
625.629	20715.55
625.824	20791.32
626.018	20731.93
626.213	20138.02
626.407	20498.46
626.602	19965.99
626.796	20205.6
626.991	20330.53
627.185	19882.02
627.38	19615.79
627.574	19406.89
627.768	19642.41
627.963	19626.03
628.157	18956.34
628.352	19427.37
628.546	18733.11
628.74	19144.75
628.935	19060.79
629.129	18970.68
629.323	18536.51
629.517	18741.3
629.712	18460.73
629.906	18323.52
630.1	18270.27
630.294	18198.59
630.489	18116.67
630.683	18389.05
630.877	17819.72
631.071	17881.16
631.265	17821.77
631.459	17475.66
631.653	17631.3
631.848	17526.86
632.042	17371.21
632.236	17414.22
632.43	17252.43
632.624	17240.14
632.818	17107.02
633.012	16947.28
633.206	16824.4
633.4	16771.16
633.594	16605.27
633.788	16629.85
633.982	16603.22
634.176	16713.81
634.369	16068.7
634.563	16341.08
634.757	16322.65
634.951	16210.01
635.145	16068.7
635.339	16017.5
635.533	15892.58
635.726	16015.46
635.92	15556.71
636.114	15546.47
636.308	15419.5
636.501	15448.17
636.695	15503.46
636.889	15294.57
637.083	15183.98
637.276	14960.75
637.47	15270
637.664	14807.16
637.857	14909.55
638.051	14825.59
638.244	14901.36
638.438	14753.91
638.632	14481.53
638.825	14446.71
639.019	14340.22
639.212	14303.36
639.406	14295.16
639.599	14155.9
639.793	14303.36
639.986	14020.74
640.18	14123.13
640.373	13914.24
640.567	13693.06
640.76	13785.22
640.954	13668.48
641.147	13500.55
641.34	13531.27
641.534	13346.95
641.727	13521.03
641.92	13363.34
642.114	13191.31
642.307	13076.62
642.5	13064.33
642.694	13224.08
642.887	13027.47
643.08	12935.31
643.273	12869.78
643.467	12845.2
643.66	12750.99
643.853	12535.96
644.046	12495
644.239	12433.56
644.432	12347.54
644.626	12181.66
644.819	12286.11
645.012	12216.47
645.205	12171.42
645.398	12175.52
645.591	12007.58
645.784	12081.31
645.977	11896.99
646.17	11884.7
646.363	11632.8
646.556	11731.11
646.749	11866.27
646.942	11542.69
647.135	11542.69
647.328	11561.12
647.521	11405.48
647.714	11241.64
647.907	11286.7
648.099	11026.61
648.292	11333.8
648.485	11083.95
648.678	11210.92
648.871	10913.97
649.064	11006.13
649.256	11094.19
649.449	10971.31
649.642	10731.7
649.835	10733.75
650.027	10897.58
650.22	10539.19
650.413	10457.27
650.605	10393.78
650.798	10344.63
650.991	10490.04
651.183	10346.68
651.376	10506.42
651.568	10119.35
651.761	10113.21
651.954	10197.18
652.146	9947.33
652.339	10098.88
652.531	9943.23
652.724	9947.33
652.916	9781.44
653.109	9920.7
653.301	9797.82
653.494	9789.63
653.686	9410.76
653.879	9769.15
654.071	9597.12
654.263	9482.44
654.456	9228.49
654.648	9404.61
654.84	9238.73
655.033	9439.43
655.225	9167.05
655.417	9210.06
655.61	9193.67
655.802	9126.09
655.994	9076.94
656.186	9062.6
656.379	8898.77
656.571	9038.03
656.763	8927.44
656.955	8747.22
657.148	8921.29
657.34	8902.86
657.532	8751.31
657.724	8730.83
657.916	8618.19
658.108	8607.95
658.3	8650.96
658.492	8521.94
658.684	8229.08
658.876	8284.37
659.068	8517.84
659.26	8333.53
659.452	8306.9
659.644	8431.83
659.836	8220.89
660.028	8141.02
660.22	8059.1
660.412	8071.39
660.604	7864.54
660.796	7866.59
660.988	7954.65
661.18	7854.3
661.372	7905.5
661.563	7801.05
661.755	7811.29
661.947	7850.21
662.139	7778.53
662.331	7708.9
662.522	7571.68
662.714	7645.41
662.906	7368.93
663.097	7500
663.289	7635.17
663.481	7174.38
663.673	7479.52
663.864	7344.36
664.056	7188.71
664.247	7153.9
664.439	7157.99
664.631	7086.31
664.822	6996.2
665.014	7100.65
665.205	7125.22
665.397	7160.04
665.588	7022.83
665.78	6930.67
665.971	7065.83
666.163	6877.42
666.354	6936.81
666.546	6815.98
666.737	6916.33
666.929	6707.44
667.12	6672.62
667.311	6762.73
667.503	6856.94
667.694	6877.42
667.885	6697.2
668.077	6572.27
668.268	6394.1
668.459	6590.7
668.651	6488.31
668.842	6523.12
669.033	6361.33
669.224	6523.12
669.416	6549.75
669.607	6332.66
669.798	6310.13
669.989	6385.91
670.18	6398.2
670.371	6287.61
670.563	6396.15
670.754	6037.75
670.945	6084.86
671.136	6234.36
671.327	6056.18
671.518	6076.66
671.709	6062.33
671.9	5959.93
672.091	6037.75
672.282	6177.02
672.473	5779.71
672.664	6023.42
672.855	5947.64
673.046	5812.48
673.237	5947.64
673.428	5863.68
673.619	5900.54
673.809	5970.17
674	5835
674.191	5712.13
674.382	5859.58
674.573	5744.89
674.764	5794.04
674.954	5591.3
675.145	5523.71
675.336	5740.8
675.527	5607.68
675.717	5662.97
675.908	5650.69
676.099	5679.36
676.289	5552.38
676.48	5720.32
676.671	5447.94
676.861	5423.36
677.052	5378.31
677.243	5456.13
677.433	5585.15
677.624	5415.17
677.814	5320.96
678.005	5425.41
678.195	5372.16
678.386	5417.22
678.576	5212.42
678.767	5458.18
678.957	5247.24
679.148	5349.64
679.338	5202.18
679.529	5204.23
679.719	5175.56
679.909	5300.48
680.1	5218.57
680.29	5210.37
680.481	5103.88
680.671	5226.76
680.861	5212.42
681.052	5124.36
681.242	5171.46
681.432	5036.3
681.622	5171.46
681.813	5079.3
682.003	4999.43
682.193	5097.74
682.383	5163.27
682.573	5114.12
682.764	5130.5
682.954	4976.91
683.144	4925.71
683.334	4843.79
683.524	4989.19
683.714	4995.34
683.904	4806.92
684.094	4890.89
684.284	4768.01
684.474	5005.58
684.664	4813.07
684.854	4692.24
685.044	4804.88
685.234	4725.01
685.424	4849.93
685.614	4624.65
685.804	4833.55
685.994	4620.56
686.184	4829.45
686.374	4770.06
686.564	4753.68
686.753	4620.56
686.943	4696.33
687.133	4608.27
687.323	4493.58
687.513	4509.97
687.702	4585.74
687.892	4579.6
688.082	4448.53
688.272	4487.44
688.461	4571.41
688.651	4505.87
688.841	4374.8
689.03	4514.06
689.22	4249.88
689.41	4430.1
689.599	4419.86
689.789	4399.38
689.979	4309.27
690.168	4321.56
690.358	4229.4
690.547	4221.2
690.737	4321.56
690.926	4376.85
691.116	4225.3
691.305	4270.36
691.495	4145.43
691.684	4139.29
691.874	4256.02
692.063	4147.48
692.252	4086.04
692.442	4159.77
692.631	4272.4
692.82	3948.83
693.01	3967.26
693.199	4018.46
693.388	3905.82
693.578	3932.44
693.767	4059.42
693.956	3916.06
694.146	3903.77
694.335	3940.63
694.524	4002.07
694.713	3918.11
694.902	3793.18
695.092	3850.52
695.281	3877.15
695.47	3862.81
695.659	3866.91
695.848	3760.41
696.037	3879.19
696.226	3930.39
696.415	3684.64
696.604	3871
696.793	3789.08
696.982	3825.95
697.171	3782.94
697.36	3701.02
697.549	3664.16
697.738	3709.21
697.927	3594.53
698.116	3731.74
698.305	3678.49
698.494	3629.34
698.683	3635.49
698.872	3764.51
699.061	3688.73
699.25	3674.4
699.438	3690.78
699.627	3572
699.816	3668.25
700.005	3547.42
700.193	3787.04
700.382	3647.77
700.571	3741.98
700.76	3574.05
700.948	3512.61
701.137	3545.38
701.326	3537.18
701.514	3537.18
701.703	3549.47
701.892	3627.29
702.08	3578.14
702.269	3463.46
702.457	3520.8
702.646	3369.25
702.834	3440.93
703.023	3481.89
703.212	3393.83
703.4	3393.83
703.589	3416.35
703.777	3455.26
703.965	3455.26
704.154	3453.22
704.342	3496.22
704.531	3393.83
704.719	3258.66
704.907	3524.9
705.096	3440.93
705.284	3348.77
705.472	3330.34
705.661	3391.78
705.849	3445.02
706.037	3453.22
706.226	3348.77
706.414	3254.56
706.602	3291.43
706.79	3297.57
706.979	3377.44
707.167	3330.34
707.355	3191.08
707.543	3191.08
707.731	3270.95
707.919	3293.48
708.107	3227.94
708.296	3182.88
708.484	3223.84
708.672	3367.2
708.86	3270.95
709.048	3281.19
709.236	3264.8
709.424	3242.28
709.612	3156.26
709.8	3103.01
709.988	3166.5
710.176	3121.45
710.364	3289.38
710.551	3086.63
710.739	3191.08
710.927	3199.27
711.115	3103.01
711.303	3135.78
711.491	3176.74
711.679	3090.73
711.866	2976.04
712.054	3133.73
712.242	3119.4
712.43	3127.59
712.617	3047.72
712.805	2930.98
712.993	3041.57
713.181	3084.58
713.368	3119.4
713.556	3064.1
713.744	2902.31
713.931	3133.73
714.119	2963.75
714.306	2930.98
714.494	2992.42
714.682	3049.77
714.869	2990.38
715.057	3037.48
715.244	3004.71
715.432	2898.22
715.619	2961.7
715.807	2959.66
715.994	2871.59
716.182	3019.05
716.369	2877.74
716.556	2928.94
716.744	2943.27
716.931	2947.37
717.119	2898.22
717.306	2941.22
717.493	2920.74
717.681	2941.22
717.868	2840.87
718.055	2933.03
718.242	2855.21
718.43	2930.98
718.617	2836.78
718.804	2789.67
718.991	2801.96
719.179	2953.51
719.366	2801.96
719.553	2892.07
719.74	2955.56
719.927	2883.88
720.114	2806.06
720.301	2732.33
720.488	2900.27
720.676	2810.15
720.863	2842.92
721.05	2818.35
721.237	2795.82
721.424	2801.96
721.611	2820.39
721.798	2662.7
721.985	2689.32
722.172	2695.47
722.358	2730.28
722.545	2750.76
722.732	2726.19
722.919	2718
723.106	2726.19
723.293	2754.86
723.48	2634.03
723.667	2623.79
723.853	2648.36
724.04	2754.86
724.227	2654.51
724.414	2677.04
724.6	2631.98
724.787	2568.49
724.974	2746.67
725.161	2631.98
725.347	2535.73
725.534	2644.27
725.72	2654.51
725.907	2720.04
726.094	2672.94
726.28	2732.33
726.467	2584.88
726.653	2613.55
726.84	2629.93
727.027	2677.04
727.213	2593.07
727.4	2593.07
727.586	2625.84
727.773	2564.4
727.959	2711.85
728.145	2511.15
728.332	2564.4
728.518	2498.86
728.705	2718
728.891	2580.78
729.077	2543.92
729.264	2410.8
729.45	2500.91
729.636	2593.07
729.823	2435.38
730.009	2406.7
730.195	2527.53
730.382	2578.73
730.568	2578.73
730.754	2427.18
730.94	2543.92
731.126	2361.65
731.313	2533.68
731.499	2394.42
731.685	2427.18
731.871	2515.25
732.057	2505.01
732.243	2531.63
732.429	2464.05
732.615	2478.38
732.801	2382.13
732.987	2464.05
733.173	2369.84
733.359	2388.27
733.545	2394.42
733.731	2388.27
733.917	2341.17
734.103	2365.75
734.289	2466.1
734.475	2343.22
734.661	2466.1
734.847	2380.08
735.033	2484.53
735.219	2316.59
735.404	2371.89
735.59	2513.2
735.776	2261.3
735.962	2314.55
736.148	2445.62
736.333	2414.9
736.519	2351.41
736.705	2238.77
736.89	2163
737.076	2347.31
737.262	2335.03
737.447	2345.27
737.633	2242.87
737.819	2386.22
738.004	2257.2
738.19	2320.69
738.375	2267.44
738.561	2240.82
738.747	2320.69
738.932	2261.3
739.118	2459.95
739.303	2285.87
739.489	2244.92
739.674	2197.81
739.859	2109.75
740.045	2269.49
740.23	2128.18
740.416	2169.14
740.601	2142.52
740.786	2257.2
740.972	2113.85
741.157	2191.67
741.342	2183.48
741.528	2079.03
741.713	2138.42
741.898	2107.7
742.084	2115.89
742.269	2111.8
742.454	2140.47
742.639	2136.37
742.824	2111.8
743.01	1995.06
743.195	2238.77
743.38	2136.37
743.565	2105.65
743.75	1999.16
743.935	2079.03
744.12	2009.4
744.305	1986.87
744.49	2033.97
744.675	1968.44
744.86	1874.23
745.045	1939.77
745.23	1954.1
745.415	1976.63
745.6	1976.63
745.785	1898.81
745.97	1933.62
746.155	1904.95
746.34	1966.39
746.525	1888.57
746.71	1837.37
746.895	1820.99
747.079	1814.84
747.264	1831.23
747.449	1937.72
747.634	1886.52
747.819	1753.4
748.003	1761.59
748.188	1734.97
748.373	1845.56
748.557	1818.94
748.742	1724.73
748.927	1722.68
749.111	1782.07
749.296	1849.66
749.481	1685.82
749.665	1759.55
749.85	1749.31
750.034	1593.66
750.219	1593.66
750.404	1675.58
750.588	1640.76
750.773	1571.13
750.957	1569.09
751.141	1708.35
751.326	1636.67
751.51	1564.99
751.695	1446.21
751.879	1517.89
752.064	1642.81
752.248	1435.97
752.432	1476.93
752.617	1503.55
752.801	1515.84
752.985	1497.41
753.17	1454.4
753.354	1448.26
753.538	1589.57
753.722	1413.44
753.907	1349.95
754.091	1378.62
754.275	1505.6
754.459	1335.62
754.643	1354.05
754.828	1376.58
755.012	1409.34
755.196	1384.77
755.38	1286.47
755.564	1390.91
755.748	1370.43
755.932	1405.25
756.116	1261.89
756.3	1272.13
756.484	1247.55
756.668	1263.94
756.852	1311.04
757.036	1253.7
757.22	1235.27
757.404	1270.08
757.588	1255.75
757.772	1298.75
757.956	1177.92
758.14	1222.98
758.323	1263.94
758.507	1177.92
758.691	1247.55
758.875	1167.68
759.059	1233.22
759.242	1208.64
759.426	1139.01
759.61	1130.82
759.794	1194.31
759.977	1184.07
760.161	1286.47
760.345	1075.52
760.528	1177.92
760.712	1079.62
760.895	1136.96
761.079	1147.2
761.263	1161.54
761.446	1114.44
761.63	1112.39
761.813	1163.59
761.997	1079.62
762.18	1120.58
762.364	1079.62
762.547	930.12
762.731	1077.57
762.914	1016.13
763.098	1071.43
763.281	1030.47
763.464	1014.09
763.648	1014.09
763.831	1089.86
764.015	926.02
764.198	1055.05
764.381	956.74
764.564	950.6
764.748	1001.8
764.931	979.27
765.114	1085.76
765.297	946.5
765.481	981.32
765.664	1007.94
765.847	962.89
766.03	872.78
766.213	1032.52
766.397	971.08
766.58	905.54
766.763	971.08
766.946	962.89
767.129	1005.89
767.312	926.02
767.495	936.26
767.678	897.35
767.861	928.07
768.044	944.45
768.227	880.97
768.41	887.11
768.593	909.64
768.776	917.83
768.959	893.26
769.142	944.45
769.324	913.74
769.507	893.26
769.69	874.82
769.873	862.54
770.056	825.67
770.239	862.54
770.421	954.69
770.604	813.38
770.787	895.3
770.97	790.86
771.152	760.14
771.335	858.44
771.518	817.48
771.7	866.63
771.883	870.73
772.066	745.8
772.248	768.33
772.431	788.81
772.613	758.09
772.796	797
772.978	776.52
773.161	846.15
773.343	817.48
773.526	747.85
773.708	753.99
773.891	680.27
774.073	729.42
774.256	813.38
774.438	770.38
774.621	721.23
774.803	692.55
774.985	758.09
775.168	725.32
775.35	708.94
775.532	686.41
775.715	741.71
775.897	790.86
776.079	745.8
776.261	661.84
776.444	598.35
776.626	756.04
776.808	719.18
776.99	655.69
777.173	604.49
777.355	678.22
777.537	604.49
777.719	627.02
777.901	688.46
778.083	667.98
778.265	649.55
778.447	657.74
778.629	633.16
778.811	551.24
778.993	655.69
779.175	604.49
779.357	553.29
779.539	549.2
779.721	620.88
779.903	598.35
780.085	688.46
780.267	592.2
780.449	610.64
780.631	463.18
780.812	573.77
780.994	616.78
781.176	590.16
781.358	526.67
781.54	581.96
781.721	590.16
781.903	506.19
782.085	545.1
782.267	588.11
782.448	543.05
782.63	489.81
782.812	545.1
782.993	485.71
783.175	522.57
783.357	401.74
783.538	506.19
783.72	506.19
783.901	483.66
784.083	463.18
784.264	553.29
784.446	473.42
784.627	491.85
784.809	442.7
784.99	473.42
785.172	385.36
785.353	336.21
785.535	438.61
785.716	434.51
785.897	409.94
786.079	454.99
786.26	422.22
786.441	434.51
786.623	352.59
786.804	446.8
786.985	424.27
787.167	452.94
787.348	416.08
787.529	444.75
787.71	448.85
787.891	395.6
788.073	446.8
788.254	409.94
788.435	463.18
788.616	422.22
788.797	299.34
788.978	358.74
789.159	399.7
789.34	391.5
789.522	356.69
789.703	362.83
789.884	426.32
790.065	385.36
790.246	407.89
790.427	334.16
790.607	379.22
790.788	346.45
790.969	391.5
791.15	362.83
791.331	317.78
791.512	371.02
791.693	356.69
791.874	332.11
792.054	356.69
792.235	375.12
792.416	328.02
792.597	332.11
792.778	393.55
792.958	393.55
793.139	397.65
793.32	348.5
793.5	262.48
793.681	383.31
793.862	373.07
794.042	325.97
794.223	250.19
794.404	258.39
794.584	276.82
794.765	356.69
794.945	313.68
795.126	362.83
795.306	266.58
795.487	274.77
795.667	301.39
795.848	297.3
796.028	311.63
796.209	274.77
796.389	340.3
796.57	299.34
796.75	317.78
796.93	237.91
797.111	309.58
797.291	285.01
797.471	319.82
797.652	248.15
797.832	266.58
798.012	342.35
798.192	258.39
798.373	239.95
798.553	215.38
798.733	278.87
798.913	268.63
799.093	350.54
799.274	305.49
799.454	186.71
799.634	248.15
799.814	323.92
799.994	297.3
800.174	227.67
800.354	250.19
800.534	293.2
800.714	293.2
800.894	180.56
801.074	213.33
801.254	352.59
801.434	209.23
801.614	219.47
801.794	213.33
801.974	631.12
802.154	207.19
802.334	190.8
802.514	252.24
802.693	186.71
802.873	250.19
803.053	231.76
803.233	237.91
803.413	276.82
803.592	258.39
803.772	239.95
803.952	237.91
804.131	211.28
804.311	272.72
804.491	295.25
804.67	215.38
804.85	211.28
805.03	256.34
805.209	254.29
805.389	184.66
805.568	239.95
805.748	164.18
805.928	201.04
806.107	196.95
806.287	198.99
806.466	129.36
806.646	160.08
806.825	151.89
807.004	201.04
807.184	186.71
807.363	237.91
807.543	178.51
807.722	198.99
807.901	229.71
808.081	315.73
808.26	250.19
808.439	205.14
808.619	176.47
808.798	203.09
808.977	213.33
809.156	170.32
809.336	229.71
809.515	172.37
809.694	242
809.873	155.99
810.052	131.41
810.231	135.51
810.411	225.62
810.59	231.76
810.769	190.8
810.948	172.37
811.127	82.26
811.306	160.08
811.485	176.47
811.664	260.43
811.843	184.66
812.022	215.38
812.201	26.96
812.38	106.84
812.559	129.36
812.737	110.93
812.916	178.51
813.095	153.94
813.274	205.14
813.453	149.84
813.632	139.6
813.811	155.99
813.989	168.27
814.168	188.75
814.347	94.55
814.526	86.36
814.704	196.95
814.883	145.75
815.062	186.71
815.24	131.41
815.419	219.47
815.598	98.64
815.776	80.21
815.955	127.32
816.133	47.44
816.312	123.22
816.49	84.31
816.669	168.27
816.847	188.75
817.026	192.85
817.204	145.75
817.383	119.12
817.561	190.8
817.74	186.71
817.918	112.98
818.097	106.84
818.275	133.46
818.453	147.8
818.632	217.43
818.81	125.27
818.988	123.22
819.167	108.88
819.345	108.88
819.523	78.16
819.701	98.64
819.879	227.67
820.058	186.71
820.236	137.56
820.414	160.08
820.592	172.37
820.77	119.12
820.948	174.42
821.127	63.83
821.305	102.74
821.483	115.03
821.661	90.45
821.839	78.16
822.017	137.56
822.195	6.49
822.373	123.22
822.551	123.22
822.729	117.08
822.907	121.17
823.085	125.27
823.262	176.47
823.44	127.32
823.618	123.22
823.796	172.37
823.974	131.41
824.152	45.4
824.329	51.54
824.507	98.64
824.685	98.64
824.863	82.26
825.04	160.08
825.218	104.79
825.396	94.55
825.574	149.84
825.751	78.16
825.929	96.6
826.107	61.78
826.284	37.2
826.462	123.22
826.639	131.41
826.817	108.88
826.994	90.45
827.172	90.45
827.349	115.03
827.527	96.6
827.704	174.42
827.882	125.27
828.059	133.46
828.237	84.31
828.414	174.42
828.591	26.96
828.769	94.55
828.946	84.31
829.124	80.21
829.301	127.32
829.478	153.94
829.655	153.94
829.833	106.84
830.01	63.83
830.187	74.07
830.364	90.45
830.542	112.98
830.719	123.22
830.896	86.36
831.073	31.06
831.25	158.03
831.427	94.55
831.604	92.5
831.782	115.03
831.959	106.84
832.136	35.16
832.313	98.64
832.49	-20.14
832.667	141.65
832.844	100.69
833.021	141.65
833.198	139.6
833.374	88.4
833.551	92.5
833.728	92.5
833.905	102.74
834.082	8.53
834.259	129.36
834.436	20.82
834.612	67.92
834.789	53.59
834.966	201.04
835.143	67.92
835.319	69.97
835.496	41.3
835.673	104.79
835.85	94.55
836.026	108.88
836.203	65.88
836.38	43.35
836.556	125.27
836.733	82.26
836.909	47.44
837.086	45.4
837.262	102.74
837.439	18.77
837.616	12.63
837.792	22.87
837.968	133.46
838.145	61.78
838.321	131.41
838.498	94.55
838.674	92.5
838.851	14.68
839.027	63.83
839.203	104.79
839.38	88.4
839.556	41.3
839.732	121.17
839.909	76.12
840.085	45.4
840.261	96.6
840.437	47.44
840.614	31.06
840.79	100.69
840.966	137.56
841.142	112.98
841.318	39.25
841.494	143.7
841.671	39.25
841.847	8.53
842.023	14.68
842.199	112.98
842.375	86.36
842.551	84.31
842.727	119.12
842.903	88.4
843.079	110.93
843.255	47.44
843.431	-18.09
843.607	88.4
843.783	-30.38
843.959	57.68
844.134	2.39
844.31	96.6
844.486	108.88
844.662	78.16
844.838	37.2
845.013	76.12
845.189	123.22
845.365	18.77
845.541	6.49
845.716	65.88
845.892	135.51
846.068	41.3
846.244	-18.09
846.419	104.79
846.595	-40.62
846.77	67.92
846.946	57.68
847.122	98.64
847.297	-7.85
847.473	78.16
847.648	4.44
847.824	49.49
847.999	-3.75
848.175	24.92
848.35	55.64
848.526	96.6
848.701	16.73
848.876	96.6
849.052	22.87
849.227	20.82
849.403	59.73
849.578	31.06
849.753	78.16
849.929	4.44
850.104	59.73
850.279	10.58
850.454	-3.75
850.63	57.68
850.805	57.68
850.98	65.88
851.155	39.25
851.33	94.55
851.505	-73.39
851.681	80.21
851.856	47.44
852.031	57.68
852.206	-22.19
852.381	24.92
852.556	35.16
852.731	45.4
852.906	33.11
853.081	94.55
853.256	59.73
853.431	39.25
853.606	-24.23
853.781	51.54
853.956	-11.95
854.131	49.49
854.305	10.58
854.48	-1.71
854.655	22.87
854.83	45.4
855.005	39.25
855.18	74.07
855.354	65.88
855.529	147.8
855.704	35.16
855.879	88.4
856.053	61.78
856.228	26.96
856.403	-36.52
856.577	59.73
856.752	20.82
856.926	-7.85
857.101	4.44
857.276	8.53
857.45	-5.8
857.625	108.88
857.799	8.53
857.974	16.73
858.148	43.35
858.323	61.78
858.497	22.87
858.672	55.64
858.846	20.82
859.02	61.78
859.195	55.64
859.369	14.68
859.543	31.06
859.718	-22.19
859.892	45.4
860.066	24.92
860.241	8.53
860.415	-9.9
860.589	-9.9
860.763	4.44
860.938	35.16
861.112	86.36
861.286	14.68
861.46	63.83
861.634	53.59
861.808	53.59
861.982	-9.9
862.157	-28.33
862.331	31.06
862.505	-71.34
862.679	-7.85
862.853	-3.75
863.027	20.82
863.201	57.68
863.375	49.49
863.549	86.36
863.722	-11.95
863.896	49.49
864.07	49.49
864.244	45.4
864.418	53.59
864.592	-24.23
864.766	16.73
864.939	80.21
865.113	-40.62
865.287	8.53
865.461	43.35
865.634	43.35
865.808	-11.95
865.982	8.53
866.156	-32.43
866.329	22.87
866.503	100.69
866.676	57.68
866.85	-30.38
867.024	6.49
867.197	41.3
867.371	43.35
867.544	20.82
867.718	14.68
867.891	14.68
868.065	37.2
868.238	-28.33
868.412	131.41
868.585	-34.47
868.759	24.92
868.932	14.68
869.105	0.34
869.279	43.35
869.452	6.49
869.625	63.83
869.799	29.01
869.972	4.44
870.145	-16.04
870.319	37.2
870.492	-11.95
870.665	72.02
870.838	57.68
871.011	-7.85
871.185	-26.28
871.358	-7.85
871.531	63.83
871.704	8.53
871.877	80.21
872.05	78.16
872.223	65.88
872.396	78.16
872.569	61.78
872.742	24.92
872.915	82.26
873.088	35.16
873.261	14.68
873.434	-59.05
873.607	37.2
873.78	-5.8
873.953	45.4
874.126	8.53
874.299	43.35
874.471	-57
874.644	-24.23
874.817	47.44
874.99	8.53
875.163	18.77
875.335	59.73
875.508	-9.9
875.681	20.82
875.853	10.58
876.026	20.82
876.199	47.44
876.371	0.34
876.544	96.6
876.717	35.16
876.889	37.2
877.062	65.88
877.234	-11.95
877.407	-9.9
877.579	18.77
877.752	-1.71
877.924	65.88
878.097	10.58
878.269	26.96
878.442	-9.9
878.614	35.16
878.786	45.4
878.959	53.59
879.131	51.54
879.303	-13.99
879.476	0.34
879.648	29.01
879.82	20.82
879.993	-11.95
880.165	-7.85
880.337	-13.99
880.509	20.82
880.681	-13.99
880.854	-13.99
881.026	37.2
881.198	-20.14
881.37	-7.85
881.542	39.25
881.714	-22.19
881.886	12.63
882.058	-34.47
882.23	63.83
882.402	43.35
882.574	12.63
882.746	31.06
882.918	31.06
883.09	104.79
883.262	39.25
883.434	-50.86
883.606	45.4
883.778	-79.53
883.95	65.88
884.122	26.96
884.293	29.01
884.465	37.2
884.637	14.68
884.809	18.77
884.98	20.82
885.152	8.53
885.324	102.74
885.496	0.34
885.667	57.68
885.839	-9.9
886.011	121.17
886.182	29.01
886.354	-26.28
886.525	57.68
886.697	-71.34
886.869	-26.28
887.04	2.39
887.212	78.16
887.383	35.16
887.555	31.06
887.726	8.53
887.897	35.16
888.069	-20.14
888.24	37.2
888.412	43.35
888.583	-5.8
888.754	72.02
888.926	16.73
889.097	8.53
889.268	16.73
889.44	-3.75
889.611	41.3
889.782	31.06
889.953	-13.99
890.125	92.5
890.296	-18.09
890.467	26.96
890.638	59.73
890.809	18.77
890.98	43.35
891.151	41.3
891.323	26.96
891.494	-24.23
891.665	33.11
891.836	22.87
892.007	88.4
892.178	10.58
892.349	-79.53
892.52	-36.52
892.691	26.96
892.862	8.53
893.032	65.88
893.203	39.25
893.374	10.58
893.545	39.25
893.716	-22.19
893.887	-1.71
894.057	-18.09
894.228	39.25
894.399	-44.71
894.57	53.59
894.74	39.25
894.911	12.63
895.082	61.78
895.253	-26.28
895.423	43.35
895.594	14.68
895.764	-16.04
895.935	-11.95
896.106	-38.57
896.276	37.2
896.447	-18.09
896.617	-40.62
896.788	8.53
896.958	-40.62
897.129	8.53
897.299	31.06
897.47	20.82
897.64	104.79
897.81	59.73
897.981	65.88
898.151	-20.14
898.322	37.2
898.492	37.2
898.662	14.68
898.832	43.35
899.003	6.49
899.173	-46.76
899.343	45.4
899.513	2.39
