Data from USB4F104151__4__11-44-19-330.txt Node

Date: Wed Feb 19 11:44:19 EST 2025
User: louis
Spectrometer: USB4F10415
Trigger mode: 4
Integration Time (sec): 2.250200E-1
Scans to average: 1
Electric dark correction enabled: true
Nonlinearity correction enabled: false
Boxcar width: 0
XAxis mode: Wavelengths
Number of Pixels in Spectrum: 3648
>>>>>Begin Spectral Data<<<<<
178.204	-803.15
178.424	-803.15
178.644	-803.15
178.864	-805.19
179.084	-823.62
179.304	153.26
179.524	22.19
179.744	-57.68
179.964	-139.6
180.184	151.21
180.404	192.17
180.624	-223.57
180.844	-127.32
181.064	20.14
181.283	233.13
181.503	-158.03
181.723	-65.88
181.943	3.75
182.163	390.82
182.383	-262.48
182.602	-147.8
182.822	427.68
183.042	241.32
183.262	-162.13
183.482	-166.23
183.701	259.75
183.921	177.83
184.141	-172.37
184.361	-131.41
184.58	243.37
184.8	177.83
185.02	-203.09
185.239	-16.73
185.459	284.33
185.679	382.63
185.898	-299.34
186.118	-264.53
186.338	237.22
186.557	358.05
186.777	-227.67
186.997	-201.04
187.216	130.73
187.436	433.83
187.655	-119.12
187.875	-18.77
188.095	114.34
188.314	368.29
188.534	-84.31
188.753	-221.52
188.973	294.57
189.192	433.83
189.412	-143.7
189.631	-178.51
189.851	349.86
190.07	509.6
190.29	-213.33
190.509	-174.42
190.729	181.93
190.948	396.96
191.168	-125.27
191.387	-141.65
191.607	106.15
191.826	286.37
192.045	-178.51
192.265	-155.99
192.484	392.87
192.704	188.07
192.923	-131.41
193.142	-76.12
193.362	339.62
193.581	296.61
193.8	-67.92
194.02	-69.97
194.239	206.5
194.458	356.01
194.678	-96.6
194.897	-149.84
195.116	358.05
195.335	296.61
195.555	-155.99
195.774	-203.09
195.993	390.82
196.212	153.26
196.432	-69.97
196.651	-242
196.87	229.03
197.089	665.25
197.308	-164.18
197.528	-110.93
197.747	71.34
197.966	233.13
198.185	-55.64
198.404	-272.72
198.623	265.89
198.842	349.86
199.062	-8.53
199.281	-125.27
199.5	294.57
199.719	327.33
199.938	-139.6
200.157	-141.65
200.376	366.25
200.595	384.68
200.814	-145.75
201.033	-164.18
201.252	429.73
201.471	253.61
201.69	-219.47
201.909	-137.56
202.128	218.79
202.347	284.33
202.566	-100.69
202.785	-311.63
203.004	124.58
203.223	534.18
203.442	-190.8
203.661	-242
203.879	308.9
204.098	423.59
204.317	-217.43
204.536	-2.39
204.755	315.05
204.974	308.9
205.193	-270.67
205.411	-53.59
205.63	388.77
205.849	292.52
206.068	-174.42
206.287	-192.85
206.505	384.68
206.724	196.26
206.943	-164.18
207.162	-213.33
207.381	194.22
207.599	204.46
207.818	-80.21
208.037	-307.54
208.255	220.84
208.474	274.09
208.693	-123.22
208.911	-172.37
209.13	300.71
209.349	259.75
209.567	46.76
209.786	-96.6
210.005	333.48
210.223	255.65
210.442	-297.3
210.661	-194.9
210.879	247.46
211.098	245.41
211.316	-112.98
211.535	-133.46
211.753	235.18
211.972	321.19
212.191	-141.65
212.409	-49.49
212.628	327.33
212.846	169.64
213.065	-225.62
213.283	-172.37
213.502	202.41
213.72	247.46
213.938	-205.14
214.157	-186.71
214.375	353.96
214.594	151.21
214.812	-76.12
215.031	-188.75
215.249	222.89
215.467	235.18
215.686	-16.73
215.904	-117.08
216.122	218.79
216.341	417.44
216.559	13.99
216.778	-31.06
216.996	450.21
217.214	192.17
217.432	-184.66
217.651	-264.53
217.869	237.22
218.087	249.51
218.306	-203.09
218.524	-190.8
218.742	177.83
218.96	378.53
219.179	-151.89
219.397	-158.03
219.615	566.95
219.833	366.25
220.051	-96.6
220.27	16.04
220.488	306.85
220.706	333.48
220.924	-207.19
221.142	-155.99
221.36	247.46
221.578	263.85
221.796	-190.8
222.015	-33.11
222.233	278.18
222.451	446.12
222.669	-78.16
222.887	-92.5
223.105	89.77
223.323	212.65
223.541	-137.56
223.759	-86.36
223.977	140.97
224.195	425.64
224.413	-131.41
224.631	-123.22
224.849	310.95
225.067	546.47
225.285	-57.68
225.503	-172.37
225.721	30.38
225.939	292.52
226.157	-84.31
226.375	40.62
226.592	102.06
226.81	112.3
227.028	-31.06
227.246	-129.36
227.464	282.28
227.682	366.25
227.9	-121.17
228.117	-78.16
228.335	329.38
228.553	153.26
228.771	-207.19
228.989	-106.84
229.206	292.52
229.424	177.83
229.642	-102.74
229.86	-119.12
230.077	399.01
230.295	212.65
230.513	-41.3
230.731	-98.64
230.948	446.12
231.166	429.73
231.384	-127.32
231.601	-115.03
231.819	409.25
232.037	69.29
232.254	-123.22
232.472	-74.07
232.689	120.49
232.907	313
233.125	-176.47
233.342	-194.9
233.56	110.25
233.777	194.22
233.995	-162.13
234.213	-14.68
234.43	251.56
234.648	188.07
234.865	-178.51
235.083	38.57
235.3	253.61
235.518	247.46
235.735	-39.25
235.953	-35.16
236.17	253.61
236.388	171.69
236.605	44.71
236.822	-18.77
237.04	366.25
237.257	147.11
237.475	-74.07
237.692	-137.56
237.909	362.15
238.127	102.06
238.344	-22.87
238.562	-74.07
238.779	128.68
238.996	5.8
239.214	-0.34
239.431	-96.6
239.648	188.07
239.865	300.71
240.083	-121.17
240.3	-178.51
240.517	106.15
240.735	183.98
240.952	54.95
241.169	-188.75
241.386	300.71
241.603	136.87
241.821	-133.46
242.038	-90.45
242.255	263.85
242.472	40.62
242.689	-41.3
242.907	-67.92
243.124	186.02
243.341	216.74
243.558	-90.45
243.775	-131.41
243.992	16.04
244.209	360.1
244.426	73.39
244.643	-123.22
244.86	179.88
245.078	296.61
245.295	-59.73
245.512	-166.23
245.729	106.15
245.946	290.47
246.163	-59.73
246.38	-158.03
246.597	280.23
246.814	200.36
247.031	-2.39
247.248	-188.75
247.464	335.53
247.681	198.31
247.898	-43.35
248.115	-12.63
248.332	177.83
248.549	337.57
248.766	16.04
248.983	-49.49
249.2	368.29
249.417	388.77
249.633	-84.31
249.85	-18.77
250.067	97.96
250.284	188.07
250.501	-188.75
250.717	-108.88
250.934	38.57
251.151	239.27
251.368	-47.44
251.585	-139.6
251.801	167.59
252.018	102.06
252.235	93.87
252.451	-129.36
252.668	108.2
252.885	335.53
253.102	1.71
253.318	-131.41
253.535	161.45
253.752	192.17
253.968	-145.75
254.185	-149.84
254.401	159.4
254.618	325.29
254.835	-76.12
255.051	-22.87
255.268	257.7
255.484	241.32
255.701	-8.53
255.917	-74.07
256.134	143.02
256.351	212.65
256.567	-190.8
256.784	11.95
257	-35.16
257.217	280.23
257.433	52.91
257.65	-51.54
257.866	353.96
258.082	-26.96
258.299	-112.98
258.515	-31.06
258.732	110.25
258.948	116.39
259.165	-55.64
259.381	-213.33
259.597	263.85
259.814	140.97
260.03	-147.8
260.246	-78.16
260.463	399.01
260.679	401.06
260.895	-20.82
261.112	-43.35
261.328	196.26
261.544	95.91
261.761	-16.73
261.977	-74.07
262.193	61.1
262.409	245.41
262.626	57
262.842	-67.92
263.058	108.2
263.274	310.95
263.49	-51.54
263.707	-123.22
263.923	388.77
264.139	81.58
264.355	-112.98
264.571	77.48
264.787	288.42
265.004	333.48
265.22	-22.87
265.436	-49.49
265.652	186.02
265.868	231.08
266.084	-198.99
266.3	-131.41
266.516	38.57
266.732	284.33
266.948	-33.11
267.164	-129.36
267.38	345.77
267.596	239.27
267.812	79.53
268.028	-29.01
268.244	114.34
268.46	171.69
268.676	-31.06
268.892	11.95
269.108	42.67
269.324	48.81
269.54	-76.12
269.756	-94.55
269.972	32.43
270.188	128.68
270.403	-88.4
270.619	-61.78
270.835	272.04
271.051	255.65
271.267	-153.94
271.483	-104.79
271.698	243.37
271.914	249.51
272.13	-47.44
272.346	-26.96
272.562	198.31
272.777	448.16
272.993	-57.68
273.209	-149.84
273.425	253.61
273.64	-14.68
273.856	-88.4
274.072	-231.76
274.287	163.5
274.503	231.08
274.719	69.29
274.934	-198.99
275.15	-6.49
275.366	200.36
275.581	-37.2
275.797	-43.35
276.012	194.22
276.228	147.11
276.444	-16.73
276.659	163.5
276.875	59.05
277.09	192.17
277.306	-22.87
277.521	73.39
277.737	167.59
277.952	218.79
278.168	-98.64
278.383	-69.97
278.599	200.36
278.814	280.23
279.03	-39.25
279.245	44.71
279.461	145.06
279.676	235.18
279.892	-100.69
280.107	-98.64
280.322	100.01
280.538	280.23
280.753	-37.2
280.969	-49.49
281.184	204.46
281.399	304.81
281.615	-55.64
281.83	61.1
282.045	32.43
282.26	73.39
282.476	-98.64
282.691	188.07
282.906	181.93
283.122	145.06
283.337	-14.68
283.552	38.57
283.767	75.43
283.983	265.89
284.198	-0.34
284.413	-35.16
284.628	54.95
284.843	114.34
285.058	24.23
285.274	-57.68
285.489	112.3
285.704	237.22
285.919	34.47
286.134	-2.39
286.349	161.45
286.564	149.16
286.779	5.8
286.995	57
287.21	3.75
287.425	286.37
287.64	-22.87
287.855	13.99
288.07	61.1
288.285	284.33
288.5	-2.39
288.715	-22.87
288.93	52.91
289.145	128.68
289.36	13.99
289.575	-10.58
289.79	235.18
290.004	167.59
290.219	83.63
290.434	26.28
290.649	46.76
290.864	179.88
291.079	-10.58
291.294	-10.58
291.509	171.69
291.724	161.45
291.938	-14.68
292.153	-90.45
292.368	161.45
292.583	222.89
292.798	-8.53
293.012	-12.63
293.227	259.75
293.442	175.78
293.657	11.95
293.871	-106.84
294.086	300.71
294.301	319.14
294.516	34.47
294.73	89.77
294.945	44.71
295.16	126.63
295.374	26.28
295.589	67.24
295.804	50.86
296.018	112.3
296.233	-72.02
296.447	40.62
296.662	222.89
296.877	388.77
297.091	128.68
297.306	28.33
297.52	124.58
297.735	163.5
297.949	24.23
298.164	-149.84
298.378	214.7
298.593	36.52
298.807	-2.39
299.022	32.43
299.236	265.89
299.451	126.63
299.665	-22.87
299.88	91.82
300.094	186.02
300.309	165.54
300.523	-12.63
300.737	-86.36
300.952	212.65
301.166	233.13
301.381	-0.34
301.595	-78.16
301.809	128.68
302.024	79.53
302.238	-78.16
302.452	108.2
302.667	122.54
302.881	212.65
303.095	38.57
303.309	52.91
303.524	110.25
303.738	183.98
303.952	48.81
304.166	13.99
304.381	-82.26
304.595	171.69
304.809	65.19
305.023	-35.16
305.237	71.34
305.452	73.39
305.666	-12.63
305.88	52.91
306.094	317.09
306.308	241.32
306.522	-55.64
306.736	81.58
306.95	280.23
307.164	7.85
307.379	61.1
307.593	73.39
307.807	265.89
308.021	210.6
308.235	175.78
308.449	-121.17
308.663	179.88
308.877	450.21
309.091	18.09
309.305	16.04
309.519	-39.25
309.733	329.38
309.947	-65.88
310.161	-2.39
310.374	214.7
310.588	255.65
310.802	-55.64
311.016	22.19
311.23	194.22
311.444	48.81
311.658	79.53
311.872	179.88
312.085	304.81
312.299	310.95
312.513	218.79
312.727	-86.36
312.941	93.87
313.154	206.5
313.368	22.19
313.582	-55.64
313.796	216.74
314.009	169.64
314.223	202.41
314.437	61.1
314.651	210.6
314.864	1.71
315.078	-26.96
315.292	-49.49
315.505	73.39
315.719	196.26
315.933	134.82
316.146	-63.83
316.36	120.49
316.573	224.94
316.787	145.06
317.001	50.86
317.214	9.9
317.428	136.87
317.641	-69.97
317.855	-26.96
318.068	212.65
318.282	153.26
318.495	161.45
318.709	122.54
318.922	255.65
319.136	255.65
319.349	157.35
319.563	-92.5
319.776	214.7
319.99	-41.3
320.203	151.21
320.417	-29.01
320.63	157.35
320.843	274.09
321.057	130.73
321.27	-69.97
321.483	319.14
321.697	259.75
321.91	-0.34
322.124	-6.49
322.337	149.16
322.55	59.05
322.763	73.39
322.977	16.04
323.19	210.6
323.403	87.72
323.617	67.24
323.83	239.27
324.043	181.93
324.256	179.88
324.469	-217.43
324.683	159.4
324.896	149.16
325.109	134.82
325.322	-110.93
325.535	145.06
325.748	257.7
325.962	136.87
326.175	79.53
326.388	-127.32
326.601	306.85
326.814	67.24
327.027	-18.77
327.24	128.68
327.453	-35.16
327.666	181.93
327.879	181.93
328.092	73.39
328.305	255.65
328.518	46.76
328.731	-31.06
328.944	-55.64
329.157	126.63
329.37	87.72
329.583	167.59
329.796	89.77
330.009	59.05
330.222	253.61
330.435	40.62
330.648	13.99
330.861	173.74
331.073	233.13
331.286	100.01
331.499	13.99
331.712	128.68
331.925	114.34
332.138	-12.63
332.35	7.85
332.563	145.06
332.776	255.65
332.989	-10.58
333.202	-90.45
333.414	186.02
333.627	122.54
333.84	-45.4
334.053	85.67
334.265	-8.53
334.478	46.76
334.691	-84.31
334.903	108.2
335.116	138.92
335.329	226.98
335.541	26.28
335.754	259.75
335.966	124.58
336.179	229.03
336.392	18.09
336.604	30.38
336.817	224.94
337.029	280.23
337.242	16.04
337.454	34.47
337.667	267.94
337.88	233.13
338.092	71.34
338.305	93.87
338.517	71.34
338.729	241.32
338.942	65.19
339.154	9.9
339.367	-12.63
339.579	327.33
339.792	-65.88
340.004	89.77
340.217	79.53
340.429	171.69
340.641	-65.88
340.854	-37.2
341.066	124.58
341.278	306.85
341.491	239.27
341.703	-8.53
341.915	63.15
342.128	263.85
342.34	-18.77
342.552	-84.31
342.764	147.11
342.977	149.16
343.189	83.63
343.401	79.53
343.613	52.91
343.826	173.74
344.038	-51.54
344.25	95.91
344.462	85.67
344.674	175.78
344.886	-6.49
345.099	-18.77
345.311	222.89
345.523	177.83
345.735	-158.03
345.947	59.05
346.159	208.55
346.371	194.22
346.583	54.95
346.795	134.82
347.007	132.78
347.219	292.52
347.431	7.85
347.643	145.06
347.855	46.76
348.067	247.46
348.279	-67.92
348.491	-43.35
348.703	249.51
348.915	97.96
349.127	-31.06
349.339	112.3
349.551	157.35
349.763	310.95
349.975	24.23
350.187	126.63
350.399	384.68
350.61	186.02
350.822	13.99
351.034	-14.68
351.246	308.9
351.458	206.5
351.669	93.87
351.881	50.86
352.093	366.25
352.305	265.89
352.517	26.28
352.728	151.21
352.94	153.26
353.152	296.61
353.363	-59.73
353.575	9.9
353.787	417.44
353.999	290.47
354.21	169.64
354.422	-127.32
354.633	192.17
354.845	118.44
355.057	114.34
355.268	-10.58
355.48	333.48
355.692	-8.53
355.903	-47.44
356.115	-110.93
356.326	-10.58
356.538	335.53
356.749	63.15
356.961	114.34
357.172	136.87
357.384	40.62
357.595	257.7
357.807	-35.16
358.018	106.15
358.23	177.83
358.441	57
358.653	-37.2
358.864	149.16
359.075	-2.39
359.287	36.52
359.498	16.04
359.709	169.64
359.921	175.78
360.132	157.35
360.344	7.85
360.555	89.77
360.766	169.64
360.977	-6.49
361.189	-22.87
361.4	75.43
361.611	278.18
361.823	71.34
362.034	-6.49
362.245	18.09
362.456	79.53
362.667	116.39
362.879	-90.45
363.09	161.45
363.301	218.79
363.512	16.04
363.723	-82.26
363.935	42.67
364.146	282.28
364.357	42.67
364.568	-0.34
364.779	-22.87
364.99	284.33
365.201	44.71
365.412	100.01
365.623	54.95
365.834	128.68
366.045	73.39
366.256	28.33
366.467	220.84
366.678	177.83
366.889	-18.77
367.1	-24.92
367.311	374.44
367.522	145.06
367.733	69.29
367.944	34.47
368.155	85.67
368.366	235.18
368.577	136.87
368.788	112.3
368.999	32.43
369.209	126.63
369.42	50.86
369.631	313
369.842	177.83
370.053	67.24
370.264	-41.3
370.474	-55.64
370.685	276.13
370.896	130.73
371.107	3.75
371.317	5.8
371.528	188.07
371.739	378.53
371.95	7.85
372.16	40.62
372.371	-0.34
372.582	112.3
372.792	-10.58
373.003	151.21
373.214	179.88
373.424	192.17
373.635	104.11
373.846	206.5
374.056	134.82
374.267	157.35
374.477	147.11
374.688	3.75
374.898	231.08
375.109	157.35
375.319	26.28
375.53	63.15
375.74	229.03
375.951	38.57
376.161	32.43
376.372	89.77
376.582	104.11
376.793	226.98
377.003	11.95
377.214	22.19
377.424	335.53
377.635	202.41
377.845	-45.4
378.055	44.71
378.266	5.8
378.476	124.58
378.686	71.34
378.897	85.67
379.107	360.1
379.317	231.08
379.528	-57.68
379.738	30.38
379.948	-31.06
380.158	210.6
380.369	44.71
380.579	-2.39
380.789	175.78
380.999	206.5
381.21	204.46
381.42	153.26
381.63	210.6
381.84	306.85
382.05	87.72
382.261	147.11
382.471	308.9
382.681	73.39
382.891	77.48
383.101	93.87
383.311	24.23
383.521	169.64
383.731	-51.54
383.941	163.5
384.151	183.98
384.361	93.87
384.571	16.04
384.781	16.04
384.991	313
385.201	374.44
385.411	163.5
385.621	57
385.831	224.94
386.041	138.92
386.251	40.62
386.461	50.86
386.671	130.73
386.881	159.4
387.091	65.19
387.301	118.44
387.511	196.26
387.72	165.54
387.93	38.57
388.14	-96.6
388.35	163.5
388.56	321.19
388.769	13.99
388.979	-0.34
389.189	57
389.399	87.72
389.609	79.53
389.818	67.24
390.028	261.8
390.238	169.64
390.447	-26.96
390.657	42.67
390.867	138.92
391.076	-2.39
391.286	20.14
391.496	-49.49
391.705	128.68
391.915	407.2
392.125	36.52
392.334	22.19
392.544	329.38
392.753	126.63
392.963	38.57
393.172	52.91
393.382	79.53
393.591	390.82
393.801	-45.4
394.01	67.24
394.22	181.93
394.429	136.87
394.639	112.3
394.848	48.81
395.058	218.79
395.267	179.88
395.477	179.88
395.686	73.39
395.895	439.97
396.105	292.52
396.314	100.01
396.524	40.62
396.733	77.48
396.942	337.57
397.152	-14.68
397.361	126.63
397.57	243.37
397.78	196.26
397.989	153.26
398.198	269.99
398.407	22.19
398.617	112.3
398.826	5.8
399.035	3.75
399.244	206.5
399.453	200.36
399.663	-63.83
399.872	-51.54
400.081	-0.34
400.29	272.04
400.499	1.71
400.708	132.78
400.917	147.11
401.127	59.05
401.336	46.76
401.545	259.75
401.754	327.33
401.963	284.33
402.172	-6.49
402.381	-24.92
402.59	188.07
402.799	198.31
403.008	134.82
403.217	32.43
403.426	186.02
403.635	57
403.844	18.09
404.053	-117.08
404.262	114.34
404.471	265.89
404.68	83.63
404.888	136.87
405.097	89.77
405.306	112.3
405.515	40.62
405.724	-43.35
405.933	317.09
406.142	169.64
406.35	40.62
406.559	26.28
406.768	177.83
406.977	409.25
407.185	46.76
407.394	143.02
407.603	7.85
407.812	112.3
408.02	321.19
408.229	153.26
408.438	239.27
408.646	-20.82
408.855	-8.53
409.064	-22.87
409.272	149.16
409.481	261.8
409.69	-4.44
409.898	-22.87
410.107	222.89
410.315	274.09
410.524	38.57
410.733	16.04
410.941	134.82
411.15	243.37
411.358	65.19
411.567	208.55
411.775	249.51
411.984	179.88
412.192	83.63
412.401	1.71
412.609	388.77
412.818	280.23
413.026	18.09
413.234	1.71
413.443	261.8
413.651	-18.77
413.86	-16.73
414.068	149.16
414.276	409.25
414.485	106.15
414.693	91.82
414.901	253.61
415.11	257.7
415.318	130.73
415.526	30.38
415.734	91.82
415.943	177.83
416.151	347.81
416.359	-20.82
416.567	75.43
416.776	255.65
416.984	222.89
417.192	171.69
417.4	89.77
417.608	153.26
417.817	42.67
418.025	114.34
418.233	145.06
418.441	91.82
418.649	7.85
418.857	-10.58
419.065	108.2
419.273	120.49
419.481	237.22
419.689	44.71
419.897	-8.53
420.105	48.81
420.313	181.93
420.521	118.44
420.729	97.96
420.937	118.44
421.145	75.43
421.353	128.68
421.561	161.45
421.769	245.41
421.977	54.95
422.185	67.24
422.393	97.96
422.601	198.31
422.809	245.41
423.017	81.58
423.224	36.52
423.432	376.48
423.64	116.39
423.848	18.09
424.056	-39.25
424.263	317.09
424.471	165.54
424.679	145.06
424.887	-2.39
425.094	360.1
425.302	202.41
425.51	-135.51
425.718	122.54
425.925	212.65
426.133	57
426.341	128.68
426.548	7.85
426.756	136.87
426.964	259.75
427.171	3.75
427.379	85.67
427.586	149.16
427.794	196.26
428.001	63.15
428.209	79.53
428.417	333.48
428.624	183.98
428.832	108.2
429.039	155.3
429.247	194.22
429.454	181.93
429.662	120.49
429.869	235.18
430.076	243.37
430.284	253.61
430.491	73.39
430.699	69.29
430.906	284.33
431.114	153.26
431.321	157.35
431.528	143.02
431.736	169.64
431.943	183.98
432.15	81.58
432.358	7.85
432.565	448.16
432.772	-153.94
432.979	161.45
433.187	34.47
433.394	394.92
433.601	122.54
433.808	95.91
434.016	222.89
434.223	206.5
434.43	190.12
434.637	24.23
434.844	235.18
435.052	294.57
435.259	202.41
435.466	136.87
435.673	116.39
435.88	288.42
436.087	376.48
436.294	300.71
436.501	259.75
436.708	366.25
436.915	284.33
437.122	290.47
437.329	-10.58
437.537	202.41
437.743	302.76
437.95	257.7
438.157	149.16
438.364	202.41
438.571	300.71
438.778	155.3
438.985	216.74
439.192	386.72
439.399	265.89
439.606	147.11
439.813	331.43
440.02	528.03
440.227	530.08
440.433	198.31
440.64	155.3
440.847	200.36
441.054	251.56
441.261	155.3
441.467	222.89
441.674	218.79
441.881	431.78
442.088	110.25
442.294	159.4
442.501	470.69
442.708	478.88
442.914	122.54
443.121	278.18
443.328	425.64
443.534	583.33
443.741	208.55
443.948	157.35
444.154	546.47
444.361	618.15
444.568	253.61
444.774	267.94
444.981	282.28
445.187	525.99
445.394	358.05
445.6	235.18
445.807	466.6
446.013	456.36
446.22	163.5
446.426	378.53
446.633	509.6
446.839	632.48
447.046	280.23
447.252	409.25
447.459	485.03
447.665	482.98
447.871	337.57
448.078	571.04
448.284	655.01
448.491	702.11
448.697	542.37
448.903	466.6
449.11	589.47
449.316	579.23
449.522	605.86
449.728	605.86
449.935	747.17
450.141	607.91
450.347	644.77
450.553	548.51
450.76	796.32
450.966	769.69
451.172	743.07
451.378	603.81
451.584	788.13
451.791	1013.4
451.997	841.37
452.203	636.58
452.409	947.87
452.615	1003.16
452.821	800.41
453.027	745.12
453.233	1203.86
453.44	1011.36
453.646	728.74
453.852	960.16
454.058	921.24
454.264	1203.86
454.47	1019.55
454.676	937.63
454.882	1263.26
455.088	1160.86
455.294	1027.74
455.5	1154.71
455.705	1355.41
455.911	1212.06
456.117	968.35
456.323	984.73
456.529	1156.76
456.735	1207.96
456.941	1048.22
457.147	1173.14
457.352	1336.98
457.558	1052.31
457.764	1164.95
457.97	1046.17
458.176	1336.98
458.381	1195.67
458.587	1275.54
458.793	1197.72
458.999	1146.52
459.204	1287.83
459.41	1052.31
459.616	1095.32
459.821	1406.61
460.027	1193.62
460.233	1226.39
460.438	1216.15
460.644	1267.35
460.85	1283.74
461.055	1167
461.261	1126.04
461.466	1126.04
461.672	1085.08
461.878	1093.27
462.083	1158.81
462.289	939.68
462.494	1009.31
462.7	1158.81
462.905	974.49
463.111	1322.65
463.316	1205.91
463.522	1013.4
463.727	927.39
463.932	1138.33
464.138	1054.36
464.343	1089.18
464.549	1072.79
464.754	1197.72
464.959	1339.03
465.165	861.85
465.37	894.62
465.575	1029.79
465.781	972.44
465.986	796.32
466.191	906.91
466.397	1076.89
466.602	1148.57
466.807	868
467.012	1031.83
467.218	1087.13
467.423	1085.08
467.628	818.85
467.833	847.52
468.038	1025.69
468.244	939.68
468.449	882.33
468.654	911
468.859	994.97
469.064	1050.27
469.269	898.72
469.474	800.41
469.679	1179.29
469.885	1089.18
470.09	890.53
470.295	886.43
470.5	999.07
470.705	1056.41
470.91	960.16
471.115	868
471.32	990.88
471.525	1236.63
471.73	833.18
471.935	859.81
472.139	853.66
472.344	988.83
472.549	956.06
472.754	902.81
472.959	1019.55
473.164	1035.93
473.369	927.39
473.574	919.2
473.778	1076.89
473.983	1080.99
474.188	1052.31
474.393	919.2
474.598	1103.51
474.802	1058.46
475.007	927.39
475.212	956.06
475.417	933.53
475.621	1152.67
475.826	775.84
476.031	964.25
476.235	1019.55
476.44	982.68
476.645	990.88
476.849	868
477.054	1009.31
477.259	1042.07
477.463	999.07
477.668	1111.71
477.872	1257.11
478.077	1095.32
478.282	814.75
478.486	900.76
478.691	1167
478.895	1021.6
479.1	1121.95
479.304	976.54
479.509	1052.31
479.713	1210.01
479.918	956.06
480.122	978.59
480.326	1130.14
480.531	1146.52
480.735	1009.31
480.94	812.7
481.144	1078.94
481.348	1078.94
481.553	974.49
481.757	1031.83
481.961	1056.41
482.166	1066.65
482.37	913.05
482.574	982.68
482.778	1083.03
482.983	1240.73
483.187	986.78
483.391	1025.69
483.595	1111.71
483.8	1136.28
484.004	1044.12
484.208	1080.99
484.412	1336.98
484.616	1277.59
484.821	1054.36
485.025	1025.69
485.229	1062.55
485.433	1316.5
485.637	1044.12
485.841	1103.51
486.045	1300.12
486.249	1328.79
486.453	1046.17
486.657	1023.64
486.861	992.92
487.065	1169.05
487.269	1040.03
487.473	997.02
487.677	1285.78
487.881	1588.88
488.085	1154.71
488.289	1199.77
488.493	1134.23
488.697	1566.35
488.901	1371.8
489.105	1248.92
489.309	1246.87
489.512	1529.49
489.716	1257.11
489.92	1289.88
490.124	1423
490.328	1449.62
490.531	1322.65
490.735	1367.7
490.939	1320.6
491.143	1498.77
491.346	1224.34
491.55	1535.64
491.754	1472.15
491.958	1625.75
492.161	1490.58
492.365	1431.19
492.569	1515.16
492.772	1654.42
492.976	1525.4
493.18	1562.26
493.383	1601.17
493.587	1711.76
493.79	1554.07
493.994	1613.46
494.197	1695.38
494.401	1879.69
494.605	1498.77
494.808	1713.81
495.012	1799.82
495.215	1984.14
495.419	1765.01
495.622	1771.15
495.825	1826.45
496.029	1971.85
496.232	1883.79
496.436	1816.21
496.639	2031.24
496.843	1994.38
497.046	1891.98
497.249	2021
497.453	2147.98
497.656	2129.55
497.859	2211.46
498.063	2190.99
498.266	2307.72
498.469	2115.21
498.673	2123.4
498.876	2205.32
499.079	2242.18
499.282	2365.06
499.485	2502.28
499.689	2426.5
499.892	2629.25
500.095	2590.34
500.298	2512.52
500.501	2440.84
500.705	2784.9
500.908	2684.55
501.111	2696.83
501.314	2872.96
501.517	2977.41
501.72	3020.41
501.923	2903.68
502.126	2848.38
502.329	3309.18
502.532	3167.87
502.735	3260.02
502.938	3341.94
503.141	3407.48
503.344	3268.22
503.547	3673.71
503.75	3368.57
503.953	3659.38
504.156	3911.28
504.359	3710.58
504.562	3481.21
504.765	3788.4
504.968	4101.74
505.17	3997.29
505.373	4066.92
505.576	4265.58
505.779	4415.08
505.982	4171.37
506.185	4382.31
506.387	4484.71
506.59	4732.51
506.793	4568.68
506.996	4669.03
507.198	5271.13
507.401	5133.92
507.604	5000.8
507.807	4978.27
508.009	5351
508.212	5580.37
508.415	5197.4
508.617	5258.84
508.82	5684.82
509.022	5506.65
509.225	5893.71
509.428	5826.13
509.63	6102.61
509.833	5914.19
510.035	6473.29
510.238	6288.97
510.44	6239.82
510.643	6508.1
510.845	6678.08
511.048	6825.54
511.25	6993.47
511.453	7028.29
511.655	7339.58
511.858	7261.76
512.06	7431.74
512.262	7550.52
512.465	7458.36
512.667	7753.27
512.87	7867.95
513.072	8291.88
513.274	8222.25
513.477	8126
513.679	8453.67
513.881	8627.75
514.084	8726.05
514.286	8951.33
514.488	9266.72
514.69	9313.82
514.893	9410.08
515.095	9537.05
515.297	9567.77
515.499	10036.75
515.701	9940.5
515.904	10061.33
516.106	10552.84
516.308	10640.9
516.51	10780.17
516.712	10704.39
516.914	11062.79
517.116	11228.67
517.318	11271.68
517.52	11482.62
517.722	11744.76
517.925	11781.62
518.127	12006.9
518.329	12379.63
518.531	12385.77
518.733	12828.13
518.935	12707.3
519.136	12836.33
519.338	13098.47
519.54	13422.05
519.742	13485.53
519.944	13895.13
520.146	14009.81
520.348	14069.2
520.55	14144.98
520.752	14630.35
520.954	14726.6
521.155	14552.52
521.357	15027.65
521.559	15482.3
521.761	15850.94
521.963	15670.72
522.164	15904.18
522.366	15998.39
522.568	16477.62
522.77	16399.79
522.971	16604.59
523.173	16307.63
523.375	17167.78
523.576	17077.67
523.778	17128.87
523.98	17692.06
524.181	17892.76
524.383	17675.68
524.584	17903
524.786	17937.82
524.988	18189.72
525.189	18507.15
525.391	18670.99
525.592	18824.59
525.794	19039.62
525.995	19068.3
526.197	19342.72
526.398	19543.42
526.6	19664.25
526.801	19729.79
527.003	19664.25
527.204	19965.31
527.406	20170.1
527.607	20178.29
527.808	20190.58
528.01	20413.81
528.211	20938.09
528.412	20878.7
528.614	21142.89
528.815	21087.59
529.016	21466.47
529.218	21484.9
529.419	21308.77
529.62	21312.87
529.822	21863.77
530.023	21345.64
530.224	21577.06
530.425	21697.89
530.626	21730.66
530.828	21640.54
531.029	22220.12
531.23	21972.32
531.431	22107.48
531.632	22764.88
531.833	22408.53
532.035	22472.02
532.236	22297.94
532.437	22560.08
532.638	22486.36
532.839	22486.36
533.04	23004.49
533.241	23090.51
533.442	22998.35
533.643	22869.33
533.844	23047.5
534.045	23317.83
534.246	23070.03
534.447	23285.06
534.648	23110.99
534.849	23426.37
535.05	23471.43
535.251	23133.51
535.451	23684.42
535.652	23436.61
535.853	23530.82
536.054	23715.14
536.255	23737.66
536.456	23496
536.657	23938.37
536.857	23715.14
537.058	23854.4
537.259	24067.39
537.46	24104.25
537.66	23878.97
537.861	24036.67
538.062	23711.04
538.263	23831.87
538.463	23995.71
538.664	23958.85
538.865	23924.03
539.065	24175.93
539.266	23754.05
539.466	24161.59
539.667	24014.14
539.868	24524.08
540.068	24253.75
540.269	24341.82
540.469	24569.14
540.67	23829.82
540.87	24333.62
541.071	24395.06
541.271	24468.79
541.472	24499.51
541.672	24208.7
541.873	24462.65
542.073	24124.73
542.274	24624.43
542.474	24132.92
542.675	24089.92
542.875	24821.04
543.075	24456.5
543.276	24210.75
543.476	24814.9
543.676	24810.8
543.877	24577.33
544.077	24628.53
544.277	24952.11
544.478	24864.05
544.678	24769.84
544.878	24563
545.078	24710.45
545.279	24735.03
545.479	24558.9
545.679	25003.31
545.879	25038.12
546.079	24954.16
546.28	24651.06
546.48	24868.14
546.68	25259.31
546.88	24880.43
547.08	25322.79
547.28	24827.18
547.48	24835.38
547.68	25400.62
547.88	24769.84
548.081	25228.59
548.281	25126.19
548.481	25113.9
548.681	25007.41
548.881	25013.55
549.081	25484.58
549.28	25148.71
549.48	25668.9
549.68	25230.63
549.88	25656.61
550.08	25503.01
550.28	25619.75
550.48	25484.58
550.68	25908.51
550.88	25314.6
551.08	25142.57
551.279	25808.16
551.479	25208.11
551.679	25503.01
551.879	25285.93
552.079	25472.29
552.278	25447.72
552.478	25728.29
552.678	25335.08
552.878	25707.81
553.077	25636.13
553.277	25601.32
553.477	25879.84
553.676	25679.14
553.876	25543.97
554.076	25210.15
554.275	25791.78
554.475	25226.54
554.674	25625.89
554.874	25494.82
555.074	25339.18
555.273	25922.85
555.473	25910.56
555.672	25736.48
555.872	25578.79
556.071	25398.57
556.271	26064.16
556.47	25339.18
556.67	25128.24
556.869	25521.45
557.068	25795.87
557.268	25599.27
557.467	25292.07
557.667	25439.53
557.866	25441.57
558.065	25306.41
558.265	25220.39
558.464	24933.68
558.663	25527.59
558.863	24837.42
559.062	25505.06
559.261	24505.65
559.461	25285.93
559.66	24661.3
559.859	25031.98
560.058	24884.53
560.258	24919.34
560.457	24806.7
560.656	25083.18
560.855	24522.04
561.054	24737.07
561.253	24603.96
561.453	24542.52
561.652	24700.21
561.851	24716.59
562.05	24290.62
562.249	24372.53
562.448	24194.36
562.647	24319.29
562.846	24358.2
563.045	24460.6
563.244	24169.79
563.443	24524.08
563.642	23975.23
563.841	24079.68
564.04	23917.89
564.239	24149.31
564.438	23784.77
564.637	23571.78
564.836	23649.6
565.035	23346.5
565.234	23524.68
565.432	23371.08
565.631	23293.26
565.83	23469.38
566.029	23108.94
566.228	22902.09
566.427	22877.52
566.625	22754.64
566.824	23006.54
567.023	23000.4
567.222	22273.37
567.42	22703.44
567.619	22213.98
567.818	22418.77
568.016	22443.35
568.215	22586.71
568.414	22261.08
568.612	22168.92
568.811	21960.03
569.01	22175.06
569.208	21609.82
569.407	22070.62
569.605	21556.58
569.804	21511.52
570.002	21593.44
570.201	21310.82
570.4	21284.2
570.598	20917.61
570.797	21286.25
570.995	20735.34
571.193	20571.5
571.392	20993.39
571.59	20362.61
571.789	20835.69
571.987	20370.8
572.186	20405.62
572.384	20391.28
572.582	20260.21
572.781	20364.66
572.979	19621.25
573.177	19998.07
573.376	19539.33
573.574	19701.12
573.772	19971.45
573.971	19436.93
574.169	19164.55
574.367	19121.54
574.565	19584.38
574.763	19379.59
574.962	19008.9
575.16	18949.51
575.358	18959.75
575.556	18910.6
575.754	19045.77
575.952	18531.73
576.151	19185.03
576.349	18763.15
576.547	18482.58
576.745	18582.93
576.943	18519.44
577.141	18240.92
577.339	18242.96
577.537	18027.93
577.735	18599.31
577.933	18298.26
578.131	17829.27
578.329	17853.85
578.527	17974.68
578.725	17984.92
578.923	17616.29
579.121	17610.14
579.319	17616.29
579.516	17532.32
579.714	17474.98
579.912	17221.03
580.11	17323.43
580.308	17350.05
580.506	17120.68
580.704	16807.34
580.901	17237.41
581.099	17538.46
581.297	17003.94
581.495	16782.76
581.692	17012.14
581.89	17089.96
582.088	17147.3
582.285	16516.53
582.483	16700.84
582.681	16758.19
582.878	16494
583.076	16371.12
583.274	16612.78
583.471	16698.8
583.669	16205.24
583.866	16127.41
584.064	16446.9
584.262	15941.05
584.459	16137.65
584.657	15979.96
584.854	16438.7
585.052	16160.18
585.249	16043.45
585.447	16002.49
585.644	16041.4
585.841	16141.75
586.039	16180.66
586.236	15601.08
586.434	15721.91
586.631	15736.25
586.828	15363.52
587.026	15644.09
587.223	15588.8
587.42	15224.26
587.618	15672.76
587.815	15660.48
588.012	15586.75
588.21	15502.78
588.407	15541.69
588.604	15408.58
588.801	15330.75
588.999	15416.77
589.196	15246.79
589.393	15177.16
589.59	15320.51
589.787	15328.7
589.984	15316.42
590.182	14931.4
590.379	15029.7
590.576	15058.37
590.773	14845.38
590.97	14634.44
591.167	15226.31
591.364	15054.28
591.561	14845.38
591.758	14783.95
591.955	15003.08
592.152	14829
592.349	14652.88
592.546	14314.96
592.743	14853.58
592.94	14298.58
593.137	14812.62
593.334	14542.28
593.531	14403.02
593.727	14894.54
593.924	14478.8
594.121	14417.36
594.318	14558.67
594.515	14601.68
594.712	14788.04
594.908	14439.89
595.105	14357.97
595.302	14480.85
595.499	14349.78
595.696	14306.77
595.892	14415.31
596.089	14570.96
596.286	14151.12
596.482	14161.36
596.679	14595.53
596.876	14349.78
597.072	14235.09
597.269	14015.96
597.466	14323.15
597.662	14110.16
597.859	13993.43
598.055	14079.44
598.252	14403.02
598.448	14210.51
598.645	13927.89
598.841	14042.58
599.038	14470.61
599.234	14255.57
599.431	14018
599.627	13852.12
599.824	13977.05
600.02	14054.87
600.217	14099.92
600.413	13958.61
600.609	14136.79
600.806	14206.42
601.002	13985.24
601.198	13684.19
601.395	14087.64
601.591	14175.7
601.787	13798.87
601.984	13727.19
602.18	13995.48
602.376	13931.99
602.572	13792.73
602.769	13772.25
602.965	13805.02
603.161	13813.21
603.357	13628.89
603.553	13944.28
603.75	13600.22
603.946	13682.14
604.142	13708.76
604.338	13694.43
604.534	13821.4
604.73	13714.91
604.926	13477.34
605.122	13575.64
605.318	13311.46
605.514	13827.54
605.71	13323.74
605.906	13342.18
606.102	13475.29
606.298	13905.37
606.494	13602.27
606.69	13577.69
606.886	13544.92
607.082	13385.18
607.278	13389.28
607.474	13278.69
607.67	13424.09
607.866	13139.43
608.062	13510.11
608.257	13145.57
608.453	13247.97
608.649	13391.33
608.845	13002.21
609.041	12961.25
609.236	13450.72
609.432	13194.72
609.628	13022.69
609.824	13098.47
610.019	13200.87
610.215	13180.39
610.411	13307.36
610.606	13022.69
610.802	13164
610.998	13071.84
611.193	13026.79
611.389	12764.65
611.584	13235.68
611.78	12766.7
611.976	12774.89
612.171	12953.06
612.367	13014.5
612.562	12955.11
612.758	12922.34
612.953	12649.96
613.149	12877.29
613.344	12797.42
613.539	12781.03
613.735	12852.71
613.93	12926.44
614.126	12631.53
614.321	12514.8
614.517	12664.3
614.712	12738.02
614.907	12821.99
615.103	12791.27
615.298	12361.2
615.493	12430.83
615.688	12291.57
615.884	12787.18
616.079	12178.93
616.274	12551.66
616.47	12340.72
616.665	12402.16
616.86	12387.82
617.055	12361.2
617.25	11953.65
617.445	12393.97
617.641	12236.27
617.836	12340.72
618.031	12111.35
618.226	12242.42
618.421	12238.32
618.616	12381.68
618.811	12088.82
619.006	12051.95
619.201	11785.72
619.396	12054
619.591	11867.64
619.786	11920.88
619.981	11574.78
620.176	11867.64
620.371	11697.66
620.566	11499
620.761	11738.62
620.956	11789.81
621.151	11716.09
621.346	11640.31
621.541	11200
621.735	11658.74
621.93	11105.79
622.125	11482.62
622.32	11044.35
622.515	11378.17
622.709	11279.87
622.904	11415.04
623.099	11234.82
623.294	11425.28
623.488	11122.18
623.683	10948.1
623.878	10958.34
624.072	11226.62
624.267	10927.62
624.462	11017.73
624.656	10647.05
624.851	10913.28
625.046	10876.42
625.24	10698.25
625.435	10892.8
625.629	10907.14
625.824	10952.2
626.018	10812.93
626.213	10282.51
626.407	10575.37
626.602	10749.45
626.796	10749.45
626.991	10722.82
627.185	10759.69
627.38	10690.06
627.574	10458.64
627.768	10294.8
627.963	10472.97
628.157	10571.27
628.352	10325.52
628.546	10202.64
628.74	10374.67
628.935	10173.97
629.129	10163.73
629.323	10192.4
629.517	9915.92
629.712	10079.76
629.906	10122.77
630.1	10216.97
630.294	10311.18
630.489	10079.76
630.683	10118.67
630.877	9911.83
631.071	10176.02
631.265	9934.36
631.459	10053.14
631.653	9788.95
631.848	9975.31
632.042	9899.54
632.236	9788.95
632.43	9659.93
632.624	9764.37
632.818	9958.93
633.012	9668.12
633.206	9535
633.4	9801.24
633.594	9471.51
633.788	9596.44
633.982	9389.6
634.176	9682.45
634.369	9297.44
634.563	9434.65
634.757	9133.6
634.951	9131.55
635.145	9369.12
635.339	9209.37
635.533	9135.65
635.726	9023.01
635.92	8822.31
636.114	8834.6
636.308	8803.88
636.501	8715.81
636.695	8695.33
636.889	8279.6
637.083	8369.71
637.276	8504.87
637.47	8318.51
637.664	8238.64
637.857	8140.33
638.051	8236.59
638.244	8136.24
638.438	8183.34
638.632	7904.82
638.825	7724.6
639.019	7925.3
639.212	7689.78
639.406	7687.73
639.599	7624.25
639.793	7601.72
639.986	7376.44
640.18	7317.05
640.373	7233.08
640.567	7155.26
640.76	7026.24
640.954	7005.76
641.147	6870.59
641.34	6846.02
641.534	6827.59
641.727	6760
641.92	6862.4
642.114	6657.61
642.307	6481.48
642.5	6403.66
642.694	6141.52
642.887	6303.31
643.08	6309.45
643.273	6069.84
643.467	5840.47
643.66	5838.42
643.853	5643.86
644.046	5559.89
644.239	5774.93
644.432	5531.22
644.626	5303.9
644.819	5264.99
645.012	5453.4
645.205	5500.5
645.398	5244.51
645.591	5275.23
645.784	5135.96
645.977	4896.35
646.17	4931.17
646.363	4824.67
646.556	4783.71
646.749	4744.8
646.942	4718.18
647.135	4589.16
647.328	4576.87
647.521	4611.68
647.714	4408.94
647.907	4419.18
648.099	4238.95
648.292	4427.37
648.485	4255.34
648.678	4179.56
648.871	4083.31
649.064	4169.32
649.256	3997.29
649.449	3790.45
649.642	3796.59
649.835	3825.26
650.027	3759.73
650.22	4032.11
650.413	3823.22
650.605	3913.33
650.798	3753.59
650.991	3540.6
651.183	3667.57
651.376	3659.38
651.568	3755.63
651.761	3479.16
651.954	3692.15
652.146	3565.17
652.339	3464.82
652.531	3501.69
652.724	3358.33
652.916	3315.32
653.109	3229.31
653.301	3329.66
653.494	3612.28
653.686	3241.59
653.879	3397.24
654.071	3317.37
654.263	3294.84
654.456	3311.22
654.648	3219.07
654.84	3174.01
655.033	3110.52
655.225	3440.25
655.417	2825.86
655.61	3038.84
655.802	3202.68
655.994	3202.68
656.186	2852.48
656.379	2948.73
656.571	2891.39
656.763	2924.16
656.955	2893.44
657.148	2842.24
657.34	3151.48
657.532	2791.04
657.724	2666.11
657.916	2608.77
658.108	2856.58
658.3	2793.09
658.492	2776.7
658.684	2571.91
658.876	2723.46
659.068	2600.58
659.26	2430.6
659.452	2522.76
659.644	2414.21
659.836	2774.66
660.028	2539.14
660.22	2297.48
660.412	2457.22
660.604	2229.9
660.796	2281.1
660.988	2209.42
661.18	2432.65
661.372	2389.64
661.563	2182.79
661.755	2029.2
661.947	1982.09
662.139	2033.29
662.331	2086.54
662.522	1939.09
662.714	1818.25
662.906	1922.7
663.097	1750.67
663.289	1758.86
663.481	1728.14
663.673	1934.99
663.864	1885.84
664.056	1791.63
664.247	1674.9
664.439	1877.65
664.631	1631.89
664.822	1617.55
665.014	1736.34
665.205	1564.31
665.397	1597.07
665.588	1429.14
665.78	1605.27
665.971	1707.66
666.163	1406.61
666.354	1406.61
666.546	1431.19
666.737	1423
666.929	1386.13
667.12	1220.25
667.311	1572.5
667.503	1316.5
667.694	1242.78
667.885	1146.52
668.077	1429.14
668.268	1074.84
668.459	1226.39
668.651	1199.77
668.842	1287.83
669.033	1066.65
669.224	1058.46
669.416	1255.06
669.607	1158.81
669.798	1052.31
669.989	986.78
670.18	1015.45
670.371	1169.05
670.563	982.68
670.754	1050.27
670.945	1042.07
671.136	1308.31
671.327	972.44
671.518	945.82
671.709	1052.31
671.9	1078.94
672.091	1228.44
672.282	827.04
672.473	947.87
672.664	855.71
672.855	1040.03
673.046	865.95
673.237	943.77
673.428	966.3
673.619	1068.7
673.809	763.55
674	906.91
674.191	1078.94
674.382	868
674.573	855.71
674.764	781.98
674.954	1093.27
675.145	751.26
675.336	763.55
675.527	745.12
675.717	800.41
675.908	835.23
676.099	753.31
676.289	755.36
676.48	693.92
676.671	798.37
676.861	728.74
677.052	710.3
677.243	829.09
677.433	816.8
677.624	833.18
677.814	673.44
678.005	794.27
678.195	1011.36
678.386	642.72
678.576	706.21
678.767	687.78
678.957	851.61
679.148	792.22
679.338	781.98
679.529	880.29
679.719	833.18
679.909	857.76
680.1	726.69
680.29	855.71
680.481	669.34
680.671	847.52
680.861	685.73
681.052	1021.6
681.242	763.55
681.432	870.05
681.622	749.22
681.813	743.07
682.003	849.57
682.193	648.86
682.383	743.07
682.573	902.81
682.764	824.99
682.954	816.8
683.144	870.05
683.334	935.58
683.524	902.81
683.714	861.85
683.904	835.23
684.094	890.53
684.284	857.76
684.474	929.44
684.664	1076.89
684.854	1033.88
685.044	1050.27
685.234	958.11
685.424	1033.88
685.614	968.35
685.804	1263.26
685.994	1097.37
686.184	1195.67
686.374	1283.74
686.564	1193.62
686.753	1148.57
686.943	1050.27
687.133	1316.5
687.323	1377.94
687.513	1316.5
687.702	1167
687.892	1379.99
688.082	1629.84
688.272	1468.05
688.461	1463.96
688.651	1844.88
688.841	1709.71
689.03	1511.06
689.22	1568.4
689.41	1912.46
689.599	1869.45
689.789	1642.13
689.979	2041.48
690.168	2086.54
690.358	2127.5
690.547	1941.13
690.737	2055.82
690.926	2143.88
691.116	2340.49
691.305	2260.62
691.495	2272.9
691.684	2326.15
691.874	2408.07
692.063	2463.37
692.252	2596.48
692.442	2766.46
692.631	2537.09
692.82	2678.4
693.01	2748.03
693.199	3047.04
693.388	3042.94
693.578	3085.95
693.767	3012.22
693.956	3210.87
694.146	3251.83
694.335	3358.33
694.524	3270.26
694.713	3606.13
694.902	3413.62
695.092	3538.55
695.281	3599.99
695.47	3948.14
695.659	3872.37
695.848	3817.07
696.037	3892.85
696.226	4245.1
696.415	4193.9
696.604	4359.78
696.793	4300.39
696.982	4329.06
697.171	4726.37
697.36	4300.39
697.549	4394.6
697.738	4308.58
697.927	4560.49
698.116	4425.32
698.305	4806.24
698.494	5035.61
698.683	4800.1
698.872	4869.73
699.061	4839.01
699.25	5066.33
699.438	5152.35
699.627	5068.38
699.816	5342.81
700.005	5185.12
700.193	5275.23
700.382	5520.98
700.571	5402.2
700.76	5744.21
700.948	5672.53
701.137	5506.65
701.326	5709.4
701.514	5719.64
701.703	5776.98
701.892	5727.83
702.08	5961.3
702.269	6094.41
702.457	5885.52
702.646	5940.82
702.834	5875.28
703.023	6073.93
703.212	6321.74
703.4	6096.46
703.589	6088.27
703.777	6268.49
703.965	6229.58
704.154	6137.42
704.342	6053.45
704.531	6252.11
704.719	6407.75
704.907	6327.88
705.096	6100.56
705.284	6377.03
705.472	6567.49
705.661	6565.45
705.849	6413.9
706.037	6829.63
706.226	6688.32
706.414	6358.6
706.602	6344.27
706.79	6731.33
706.979	6657.61
707.167	6553.16
707.355	6356.55
707.543	6651.46
707.731	6803.01
707.919	6610.5
708.107	6360.65
708.296	6760
708.484	6616.65
708.672	6594.12
708.86	6800.96
709.048	6833.73
709.236	6780.48
709.424	6733.38
709.612	6817.35
709.8	6504.01
709.988	6704.71
710.176	6800.96
710.364	6854.21
710.551	6760
710.739	6811.2
710.927	6598.21
711.115	6809.15
711.303	6966.85
711.491	7204.41
711.679	6483.53
711.866	6731.33
712.054	7093.82
712.242	6813.25
712.43	6917.7
712.617	6600.26
712.805	6985.28
712.993	6846.02
713.181	6581.83
713.368	6698.56
713.556	6798.91
713.744	6708.8
713.931	6622.79
714.119	6745.67
714.306	6835.78
714.494	6866.5
714.682	6661.7
714.869	6590.02
715.057	6813.25
715.244	6522.44
715.432	6749.76
715.619	6463.05
715.807	6899.27
715.994	6618.69
716.182	6809.15
716.369	6661.7
716.556	6921.79
716.744	6495.82
716.931	6501.96
717.119	6653.51
717.306	6796.87
717.493	6905.41
717.681	6415.94
717.868	6585.93
718.055	6768.2
718.242	6653.51
718.43	6614.6
718.617	6536.77
718.804	6628.93
718.991	6733.38
719.179	6385.23
719.366	6295.11
719.553	6673.99
719.74	6563.4
719.927	6209.1
720.114	6489.67
720.301	6366.79
720.488	6329.93
720.676	6262.35
720.863	6395.47
721.05	6854.21
721.237	6528.58
721.424	6342.22
721.611	6182.48
721.798	6278.73
721.985	6432.33
722.172	6116.94
722.358	6264.4
722.545	6483.53
722.732	6190.67
722.919	6331.98
723.106	6252.11
723.293	6223.44
723.48	6317.64
723.667	6235.72
723.853	6106.7
724.04	6258.25
724.227	6321.74
724.414	6223.44
724.6	6094.41
724.787	6299.21
724.974	6448.71
725.161	6084.17
725.347	5772.88
725.534	6172.24
725.72	6131.28
725.907	6043.21
726.094	6110.8
726.28	5901.9
726.467	5930.58
726.653	5879.38
726.84	5783.12
727.027	6278.73
727.213	5891.66
727.4	5989.97
727.586	5871.19
727.773	5803.6
727.959	5977.68
728.145	5846.61
728.332	5766.74
728.518	5768.79
728.705	5989.97
728.891	5781.07
729.077	5625.43
729.264	5652.05
729.45	5815.89
729.636	5719.64
729.823	5650
730.009	5959.25
730.195	5805.65
730.382	5754.45
730.568	5543.51
730.754	5830.23
730.94	5551.7
731.126	5588.57
731.313	5473.88
731.499	5662.29
731.685	5770.83
731.871	5568.09
732.057	5572.18
732.243	5756.5
732.429	5654.1
732.615	5512.79
732.801	5391.96
732.987	5637.72
733.173	5561.94
733.359	5355.1
733.545	5256.79
733.731	5385.82
733.917	5701.2
734.103	5330.52
734.289	5406.3
734.475	5316.19
734.661	5627.48
734.847	5351
735.033	5054.05
735.219	5434.97
735.404	5310.04
735.59	5183.07
735.776	5019.23
735.962	5324.38
736.148	5389.91
736.333	5299.8
736.519	5002.85
736.705	5095
736.89	5045.85
737.076	4963.93
737.262	4808.29
737.447	5131.87
737.633	4882.02
737.819	4990.56
738.004	4804.19
738.19	5103.2
738.375	5043.81
738.561	5076.57
738.747	4744.8
738.932	4789.86
739.118	5238.36
739.303	4972.13
739.489	4875.87
739.674	4877.92
739.859	4812.39
740.045	4755.04
740.23	4664.93
740.416	4433.51
740.601	4851.3
740.786	4744.8
740.972	4556.39
741.157	4849.25
741.342	4367.98
741.528	4439.65
741.713	4552.29
741.898	4589.16
742.084	4544.1
742.269	4228.71
742.454	4281.96
742.639	4732.51
742.824	4441.7
743.01	4533.86
743.195	4570.72
743.38	4437.61
743.565	4390.5
743.75	4257.39
743.935	4281.96
744.12	4472.42
744.305	4177.51
744.49	4185.71
744.675	4216.43
744.86	4054.64
745.045	4388.46
745.23	4191.85
745.415	4085.36
745.6	4259.43
745.785	4050.54
745.97	4060.78
746.155	3970.67
746.34	4230.76
746.525	4019.82
746.71	3982.96
746.895	3909.23
747.079	3784.3
747.264	3966.57
747.449	3851.89
747.634	3829.36
747.819	3978.86
748.003	3821.17
748.188	3610.23
748.373	3737.2
748.557	3884.66
748.742	3796.59
748.927	3733.11
749.111	3655.28
749.296	3782.26
749.481	3794.54
749.665	3616.37
749.85	3380.86
750.034	3751.54
750.219	3571.32
750.404	3356.28
750.588	3305.08
750.773	3518.07
750.957	3581.56
751.141	3362.42
751.326	3358.33
751.51	3358.33
751.695	3548.79
751.879	3489.4
752.064	3425.91
752.248	3407.48
752.432	3536.5
752.617	3096.19
752.801	3264.12
752.985	3272.31
753.17	3427.96
753.354	3118.72
753.538	3176.06
753.722	3088
753.907	3176.06
754.091	2850.43
754.275	3030.65
754.459	2950.78
754.643	2860.67
754.828	3077.76
755.012	2844.29
755.196	2875.01
755.38	3030.65
755.564	2864.77
755.748	2858.62
755.932	3067.52
756.116	2987.65
756.3	2791.04
756.484	2739.84
756.668	2952.83
756.852	2647.68
757.036	2719.36
757.22	2719.36
757.404	2672.26
757.588	2684.55
757.772	2801.28
757.956	2651.78
758.14	2875.01
758.323	2586.24
758.507	2621.06
758.691	2604.67
758.875	2745.98
759.059	2672.26
759.242	2418.31
759.426	2549.38
759.61	2489.99
759.794	2498.18
759.977	2633.35
760.161	2805.38
760.345	2692.74
760.528	2619.01
760.712	2424.45
760.895	2442.89
761.079	2420.36
761.263	2188.94
761.446	2188.94
761.63	2145.93
761.813	2330.25
761.997	2229.9
762.18	2256.52
762.364	2393.73
762.547	2033.29
762.731	2246.28
762.914	2356.87
763.098	2115.21
763.281	2240.14
763.464	2123.4
763.648	2127.5
763.831	2088.59
764.015	2178.7
764.198	2236.04
764.381	2061.96
764.564	2064.01
764.748	2135.69
764.931	2328.2
765.114	2100.87
765.297	2184.84
765.481	2162.31
765.664	2127.5
765.847	2100.87
766.03	2233.99
766.213	2096.78
766.397	2078.35
766.58	2018.96
766.763	2180.75
766.946	2233.99
767.129	2158.22
767.312	2027.15
767.495	2021
767.678	2059.92
767.861	2172.55
768.044	1943.18
768.227	2012.81
768.41	2074.25
768.593	2236.04
768.776	2096.78
768.959	1982.09
769.142	2252.42
769.324	1992.33
769.507	1957.52
769.69	1906.32
769.873	2070.16
770.056	2373.25
770.239	2090.63
770.421	2068.11
770.604	2061.96
770.787	1971.85
770.97	1879.69
771.152	1670.8
771.335	2010.76
771.518	1756.82
771.7	1844.88
771.883	1990.28
772.066	1912.46
772.248	2068.11
772.431	1932.94
772.613	2002.57
772.796	1967.76
772.978	2035.34
773.161	1941.13
773.343	1859.21
773.526	1859.21
773.708	1681.04
773.891	1652.37
774.073	1730.19
774.256	1734.29
774.438	2121.35
774.621	1691.28
774.803	1758.86
774.985	1740.43
775.168	1887.89
775.35	1734.29
775.532	1722
775.715	1724.05
775.897	1867.41
776.079	1543.83
776.261	1795.73
776.444	1812.11
776.626	1638.03
776.808	1640.08
776.99	1416.85
777.173	1750.67
777.355	1619.6
777.537	1543.83
777.719	1474.2
777.901	1713.81
778.083	1515.16
778.265	1373.85
778.447	1592.98
778.629	1443.48
778.811	1609.36
778.993	1681.04
779.175	1562.26
779.357	1576.59
779.539	1349.27
779.721	1545.88
779.903	1498.77
780.085	1504.92
780.267	1468.05
780.449	1304.21
780.631	1535.64
780.812	1605.27
780.994	1433.24
781.176	1345.17
781.358	1248.92
781.54	1431.19
781.721	1511.06
781.903	1238.68
782.085	1234.58
782.267	1418.9
782.448	1240.73
782.63	1308.31
782.812	1255.06
782.993	1429.14
783.175	1474.2
783.357	1199.77
783.538	1367.7
783.72	1185.43
783.901	1253.02
784.083	1220.25
784.264	1242.78
784.446	1152.67
784.627	1154.71
784.809	1193.62
784.99	988.83
785.172	1332.89
785.353	1201.82
785.535	1140.38
785.716	988.83
785.897	1087.13
786.079	1132.19
786.26	1095.32
786.441	1203.86
786.623	960.16
786.804	925.34
786.985	1068.7
787.167	958.11
787.348	1214.1
787.529	1099.42
787.71	1046.17
787.891	994.97
788.073	1054.36
788.254	882.33
788.435	1179.29
788.616	925.34
788.797	974.49
788.978	1011.36
789.159	919.2
789.34	1031.83
789.522	1060.51
789.703	990.88
789.884	917.15
790.065	1007.26
790.246	1328.79
790.427	849.57
790.607	911
790.788	923.29
790.969	794.27
791.15	1011.36
791.331	820.89
791.512	853.66
791.693	827.04
791.874	964.25
792.054	1021.6
792.235	898.72
792.416	773.79
792.597	845.47
792.778	814.75
792.958	808.61
793.139	941.72
793.32	829.09
793.5	730.78
793.681	845.47
793.862	925.34
794.042	796.32
794.223	620.19
794.404	743.07
794.584	624.29
794.765	796.32
794.945	730.78
795.126	745.12
795.306	870.05
795.487	769.69
795.667	638.62
795.848	722.59
796.028	835.23
796.209	872.09
796.389	771.74
796.57	673.44
796.75	669.34
796.93	771.74
797.111	648.86
797.291	749.22
797.471	808.61
797.652	685.73
797.832	605.86
798.012	695.97
798.192	734.88
798.373	564.9
798.553	603.81
798.733	724.64
798.913	603.81
799.093	669.34
799.274	601.76
799.454	622.24
799.634	814.75
799.814	810.65
799.994	646.82
800.174	839.33
800.354	741.02
800.534	458.4
800.714	667.3
800.894	542.37
801.074	550.56
801.254	575.14
801.434	730.78
801.614	575.14
801.794	585.38
801.974	4652.64
802.154	511.65
802.334	665.25
802.514	603.81
802.693	612
802.873	472.74
803.053	679.58
803.233	683.68
803.413	599.71
803.592	372.39
803.772	493.22
803.952	640.67
804.131	423.59
804.311	605.86
804.491	554.66
804.67	509.6
804.85	454.31
805.03	564.9
805.209	614.05
805.389	525.99
805.568	532.13
805.748	523.94
805.928	458.4
806.107	720.54
806.287	581.28
806.466	558.75
806.646	560.8
806.825	616.1
807.004	470.69
807.184	505.51
807.363	530.08
807.543	622.24
807.722	452.26
807.901	628.39
808.081	433.83
808.26	313
808.439	560.8
808.619	431.78
808.798	423.59
808.977	620.19
809.156	738.98
809.336	452.26
809.515	448.16
809.694	366.25
809.873	405.16
810.052	442.02
810.231	517.79
810.411	585.38
810.59	655.01
810.769	321.19
810.948	534.18
811.127	272.04
811.306	384.68
811.485	345.77
811.664	583.33
811.843	550.56
812.022	538.27
812.201	198.31
812.38	274.09
812.559	413.35
812.737	566.95
812.916	235.18
813.095	329.38
813.274	523.94
813.453	417.44
813.632	489.12
813.811	503.46
813.989	294.57
814.168	470.69
814.347	257.7
814.526	382.63
814.704	650.91
814.883	630.43
815.062	224.94
815.24	337.57
815.419	333.48
815.598	485.03
815.776	169.64
815.955	370.34
816.133	192.17
816.312	427.68
816.49	351.91
816.669	376.48
816.847	313
817.026	366.25
817.204	212.65
817.383	405.16
817.561	247.46
817.74	446.12
817.918	327.33
818.097	302.76
818.275	274.09
818.453	497.32
818.632	390.82
818.81	298.66
818.988	253.61
819.167	261.8
819.345	265.89
819.523	237.22
819.701	384.68
819.879	523.94
820.058	339.62
820.236	267.94
820.414	452.26
820.592	308.9
820.77	263.85
820.948	169.64
821.127	339.62
821.305	384.68
821.483	69.29
821.661	407.2
821.839	439.97
822.017	224.94
822.195	210.6
822.373	329.38
822.551	261.8
822.729	489.12
822.907	255.65
823.085	333.48
823.262	429.73
823.44	202.41
823.618	214.7
823.796	257.7
823.974	263.85
824.152	269.99
824.329	325.29
824.507	241.32
824.685	411.3
824.863	370.34
825.04	251.56
825.218	247.46
825.396	341.67
825.574	384.68
825.751	308.9
825.929	220.84
826.107	149.16
826.284	374.44
826.462	200.36
826.639	175.78
826.817	202.41
826.994	388.77
827.172	151.21
827.349	308.9
827.527	347.81
827.704	276.13
827.882	458.4
828.059	167.59
828.237	224.94
828.414	429.73
828.591	26.28
828.769	204.46
828.946	239.27
829.124	403.11
829.301	319.14
829.478	159.4
829.655	349.86
829.833	255.65
830.01	18.09
830.187	364.2
830.364	280.23
830.542	218.79
830.719	222.89
830.896	286.37
831.073	376.48
831.25	331.43
831.427	157.35
831.604	247.46
831.782	265.89
831.959	370.34
832.136	206.5
832.313	280.23
832.49	226.98
832.667	329.38
832.844	97.96
833.021	341.67
833.198	255.65
833.374	280.23
833.551	257.7
833.728	202.41
833.905	407.2
834.082	-0.34
834.259	284.33
834.436	349.86
834.612	153.26
834.789	419.49
834.966	274.09
835.143	263.85
835.319	126.63
835.496	245.41
835.673	188.07
835.85	325.29
836.026	394.92
836.203	331.43
836.38	89.77
836.556	192.17
836.733	163.5
836.909	499.36
837.086	93.87
837.262	13.99
837.439	212.65
837.616	173.74
837.792	159.4
837.968	128.68
838.145	48.81
838.321	267.94
838.498	192.17
838.674	282.28
838.851	247.46
839.027	177.83
839.203	229.03
839.38	286.37
839.556	192.17
839.732	382.63
839.909	157.35
840.085	122.54
840.261	198.31
840.437	296.61
840.614	110.25
840.79	212.65
840.966	376.48
841.142	224.94
841.318	186.02
841.494	153.26
841.671	386.72
841.847	181.93
842.023	24.23
842.199	181.93
842.375	491.17
842.551	65.19
842.727	71.34
842.903	308.9
843.079	155.3
843.255	399.01
843.431	188.07
843.607	243.37
843.783	-43.35
843.959	276.13
844.134	130.73
844.31	243.37
844.486	157.35
844.662	138.92
844.838	81.58
845.013	87.72
845.189	333.48
845.365	298.66
845.541	204.46
845.716	171.69
845.892	405.16
846.068	226.98
846.244	157.35
846.419	40.62
846.595	118.44
846.77	100.01
846.946	216.74
847.122	85.67
847.297	204.46
847.473	501.41
847.648	54.95
847.824	95.91
847.999	-45.4
848.175	257.7
848.35	269.99
848.526	269.99
848.701	378.53
848.876	276.13
849.052	261.8
849.227	128.68
849.403	241.32
849.578	200.36
849.753	247.46
849.929	126.63
850.104	28.33
850.279	132.78
850.454	177.83
850.63	97.96
850.805	210.6
850.98	265.89
851.155	229.03
851.33	231.08
851.505	59.05
851.681	347.81
851.856	50.86
852.031	235.18
852.206	278.18
852.381	151.21
852.556	132.78
852.731	71.34
852.906	343.72
853.081	231.08
853.256	214.7
853.431	71.34
853.606	157.35
853.781	26.28
853.956	-72.02
854.131	63.15
854.305	179.88
854.48	122.54
854.655	89.77
854.83	34.47
855.005	274.09
855.18	263.85
855.354	124.58
855.529	59.05
855.704	222.89
855.879	321.19
856.053	57
856.228	163.5
856.403	48.81
856.577	349.86
856.752	-14.68
856.926	77.48
857.101	210.6
857.276	11.95
857.45	190.12
857.625	214.7
857.799	216.74
857.974	120.49
858.148	-112.98
858.323	231.08
858.497	214.7
858.672	89.77
858.846	89.77
859.02	145.06
859.195	87.72
859.369	93.87
859.543	177.83
859.718	165.54
859.892	233.13
860.066	177.83
860.241	48.81
860.415	59.05
860.589	226.98
860.763	140.97
860.938	69.29
861.112	190.12
861.286	124.58
861.46	253.61
861.634	151.21
861.808	124.58
861.982	40.62
862.157	22.19
862.331	118.44
862.505	-33.11
862.679	-24.92
862.853	73.39
863.027	177.83
863.201	224.94
863.375	134.82
863.549	302.76
863.722	218.79
863.896	239.27
864.07	61.1
864.244	200.36
864.418	214.7
864.592	112.3
864.766	179.88
864.939	200.36
865.113	-0.34
865.287	286.37
865.461	52.91
865.634	169.64
865.808	124.58
865.982	34.47
866.156	130.73
866.329	-43.35
866.503	102.06
866.676	263.85
866.85	261.8
867.024	218.79
867.197	202.41
867.371	83.63
867.544	222.89
867.718	-31.06
867.891	274.09
868.065	-2.39
868.238	188.07
868.412	284.33
868.585	32.43
868.759	38.57
868.932	79.53
869.105	-4.44
869.279	149.16
869.452	-12.63
869.625	231.08
869.799	112.3
869.972	-49.49
870.145	100.01
870.319	364.2
870.492	153.26
870.665	124.58
870.838	-29.01
871.011	-2.39
871.185	163.5
871.358	46.76
871.531	224.94
871.704	151.21
871.877	169.64
872.05	3.75
872.223	-14.68
872.396	333.48
872.569	296.61
872.742	22.19
872.915	145.06
873.088	157.35
873.261	42.67
873.434	194.22
873.607	67.24
873.78	401.06
873.953	-51.54
874.126	73.39
874.299	188.07
874.471	140.97
874.644	116.39
874.817	298.66
874.99	327.33
875.163	177.83
875.335	220.84
875.508	26.28
875.681	149.16
875.853	237.22
876.026	220.84
876.199	194.22
876.371	67.24
876.544	143.02
876.717	159.4
876.889	22.19
877.062	106.15
877.234	-31.06
877.407	16.04
877.579	208.55
877.752	132.78
877.924	356.01
878.097	190.12
878.269	161.45
878.442	81.58
878.614	265.89
878.786	269.99
878.959	83.63
879.131	71.34
879.303	-29.01
879.476	147.11
879.648	214.7
879.82	67.24
879.993	157.35
880.165	32.43
880.337	16.04
880.509	79.53
880.681	-18.77
880.854	50.86
881.026	116.39
881.198	249.51
881.37	251.56
881.542	24.23
881.714	69.29
881.886	-6.49
882.058	245.41
882.23	218.79
882.402	120.49
882.574	145.06
882.746	288.42
882.918	298.66
883.09	175.78
883.262	140.97
883.434	269.99
883.606	-14.68
883.778	147.11
883.95	208.55
884.122	65.19
884.293	374.44
884.465	128.68
884.637	149.16
884.809	69.29
884.98	267.94
885.152	157.35
885.324	165.54
885.496	75.43
885.667	93.87
885.839	38.57
886.011	136.87
886.182	243.37
886.354	218.79
886.525	229.03
886.697	-14.68
886.869	7.85
887.04	81.58
887.212	214.7
887.383	259.75
887.555	186.02
887.726	52.91
887.897	48.81
888.069	24.23
888.24	329.38
888.412	126.63
888.583	63.15
888.754	-22.87
888.926	-90.45
889.097	54.95
889.268	-65.88
889.44	20.14
889.611	-106.84
889.782	36.52
889.953	-63.83
890.125	97.96
890.296	-10.58
890.467	140.97
890.638	136.87
890.809	75.43
890.98	108.2
891.151	206.5
891.323	173.74
891.494	22.19
891.665	175.78
891.836	181.93
892.007	112.3
892.178	153.26
892.349	169.64
892.52	108.2
892.691	79.53
892.862	46.76
893.032	-8.53
893.203	122.54
893.374	32.43
893.545	145.06
893.716	34.47
893.887	194.22
894.057	30.38
894.228	97.96
894.399	50.86
894.57	325.29
894.74	97.96
894.911	104.11
895.082	118.44
895.253	116.39
895.423	128.68
895.594	169.64
895.764	265.89
895.935	-8.53
896.106	108.2
896.276	5.8
896.447	204.46
896.617	34.47
896.788	-33.11
896.958	-29.01
897.129	87.72
897.299	71.34
897.47	261.8
897.64	95.91
897.81	69.29
897.981	226.98
898.151	89.77
898.322	110.25
898.492	241.32
898.662	-65.88
898.832	75.43
899.003	40.62
899.173	202.41
899.343	-22.87
899.513	-26.96
