Data from USB4F104151__5__11-44-29-905.txt Node

Date: Wed Feb 19 11:44:29 EST 2025
User: louis
Spectrometer: USB4F10415
Trigger mode: 4
Integration Time (sec): 2.250200E-1
Scans to average: 1
Electric dark correction enabled: true
Nonlinearity correction enabled: false
Boxcar width: 0
XAxis mode: Wavelengths
Number of Pixels in Spectrum: 3648
>>>>>Begin Spectral Data<<<<<
178.204	-800.59
178.424	-800.59
178.644	-800.59
178.864	-864.07
179.084	-780.11
179.304	202.92
179.524	69.8
179.744	37.03
179.964	-159.57
180.184	217.26
180.404	174.25
180.624	-243.54
180.844	-159.57
181.064	-20.31
181.283	166.06
181.503	-139.09
181.723	-145.24
181.943	-75.6
182.163	342.18
182.383	-264.02
182.602	-245.59
182.822	432.29
183.042	278.69
183.262	-214.87
183.482	-163.67
183.701	215.21
183.921	194.73
184.141	-116.56
184.361	-155.47
184.58	235.69
184.8	295.08
185.02	-237.39
185.239	-104.28
185.459	305.32
185.679	370.85
185.898	-274.26
186.118	-180.05
186.338	198.82
186.557	389.28
186.777	-247.63
186.997	-218.96
187.216	176.3
187.436	481.44
187.655	-79.7
187.875	-77.65
188.095	200.87
188.314	381.09
188.534	-59.22
188.753	-212.82
188.973	358.57
189.192	495.78
189.412	-255.83
189.631	-190.29
189.851	301.22
190.07	448.68
190.29	-243.54
190.509	-182.1
190.729	211.11
190.948	323.75
191.168	-40.79
191.387	-255.83
191.607	243.88
191.826	215.21
192.045	-89.94
192.265	-239.44
192.484	192.68
192.704	164.01
192.923	-118.61
193.142	-116.56
193.362	336.04
193.581	401.57
193.8	-61.27
194.02	-143.19
194.239	223.4
194.458	221.35
194.678	-59.22
194.897	-253.78
195.116	258.21
195.335	213.16
195.555	-216.91
195.774	-214.87
195.993	311.46
196.212	194.73
196.432	-169.81
196.651	-227.15
196.87	149.67
197.089	520.35
197.308	-143.19
197.528	-94.04
197.747	123.05
197.966	94.38
198.185	-44.88
198.404	-241.49
198.623	250.02
198.842	276.65
199.062	-40.79
199.281	-69.46
199.5	266.41
199.719	313.51
199.938	-227.15
200.157	-167.76
200.376	286.89
200.595	366.76
200.814	-143.19
201.033	-81.75
201.252	442.53
201.471	282.79
201.69	-264.02
201.909	-135
202.128	333.99
202.347	313.51
202.566	-132.95
202.785	-315.22
203.004	110.76
203.223	495.78
203.442	-171.86
203.661	-241.49
203.879	303.27
204.098	329.89
204.317	-259.92
204.536	-44.88
204.755	315.56
204.974	241.83
205.193	-268.11
205.411	-75.6
205.63	268.45
205.849	194.73
206.068	-251.73
206.287	-268.11
206.505	307.37
206.724	141.48
206.943	-282.45
207.162	-149.33
207.381	295.08
207.599	100.52
207.818	-57.17
208.037	-249.68
208.255	245.93
208.474	293.03
208.693	-173.91
208.911	-184.15
209.13	360.61
209.349	266.41
209.567	-14.17
209.786	-114.52
210.005	307.37
210.223	260.26
210.442	-339.79
210.661	-268.11
210.879	243.88
211.098	200.87
211.316	-143.19
211.535	-210.77
211.753	217.26
211.972	245.93
212.191	-163.67
212.409	-188.24
212.628	286.89
212.846	61.61
213.065	-296.78
213.283	-151.38
213.502	180.39
213.72	178.34
213.938	-143.19
214.157	-221.01
214.375	317.61
214.594	166.06
214.812	-143.19
215.031	-153.43
215.249	166.06
215.467	213.16
215.686	-143.19
215.904	-180.05
216.122	235.69
216.341	422.05
216.559	-18.26
216.778	-10.07
216.996	465.06
217.214	147.62
217.432	-210.77
217.651	-274.26
217.869	252.07
218.087	188.58
218.306	-188.24
218.524	-282.45
218.742	190.63
218.96	409.76
219.179	-182.1
219.397	-218.96
219.615	469.16
219.833	258.21
220.051	-237.39
220.27	-63.32
220.488	444.58
220.706	174.25
220.924	-255.83
221.142	-223.06
221.36	237.74
221.578	252.07
221.796	-272.21
222.015	-132.95
222.233	241.83
222.451	348.33
222.669	-157.52
222.887	-51.03
223.105	18.6
223.323	137.38
223.541	-196.43
223.759	-116.56
223.977	121
224.195	372.9
224.413	-96.08
224.631	-253.78
224.849	168.1
225.067	465.06
225.285	-141.14
225.503	-218.96
225.721	-71.51
225.939	125.1
226.157	-173.91
226.375	92.33
226.592	131.24
226.81	198.82
227.028	-91.99
227.246	-71.51
227.464	235.69
227.682	268.45
227.9	-151.38
228.117	-110.42
228.335	204.97
228.553	290.98
228.771	-231.25
228.989	-98.13
229.206	250.02
229.424	127.14
229.642	-110.42
229.86	-233.3
230.077	424.1
230.295	135.34
230.513	45.23
230.731	-81.75
230.948	436.39
231.166	401.57
231.384	-128.85
231.601	-198.48
231.819	442.53
232.037	71.85
232.254	-24.4
232.472	-122.71
232.689	127.14
232.907	272.55
233.125	-221.01
233.342	-264.02
233.56	114.86
233.777	164.01
233.995	-235.35
234.213	-77.65
234.43	309.41
234.648	188.58
234.865	-188.24
235.083	-141.14
235.3	233.64
235.518	372.9
235.735	-69.46
235.953	-126.8
236.17	278.69
236.388	133.29
236.605	-26.45
236.822	-102.23
237.04	338.09
237.257	256.17
237.475	-214.87
237.692	-108.37
237.909	311.46
238.127	131.24
238.344	-42.84
238.562	-116.56
238.779	4.27
238.996	96.43
239.214	-65.36
239.431	-151.38
239.648	86.19
239.865	274.6
240.083	-102.23
240.3	-225.11
240.517	108.71
240.735	145.58
240.952	-24.4
241.169	-243.54
241.386	274.6
241.603	207.02
241.821	-229.2
242.038	-130.9
242.255	352.42
242.472	22.7
242.689	-57.17
242.907	-198.48
243.124	145.58
243.341	137.38
243.558	-135
243.775	-188.24
243.992	71.85
244.209	290.98
244.426	-20.31
244.643	-94.04
244.86	118.95
245.078	358.57
245.295	-42.84
245.512	-235.35
245.729	153.77
245.946	227.5
246.163	-124.76
246.38	-225.11
246.597	166.06
246.814	252.07
247.031	-130.9
247.248	-171.86
247.464	268.45
247.681	141.48
247.898	-100.18
248.115	-98.13
248.332	127.14
248.549	290.98
248.766	-22.36
248.983	-153.43
249.2	252.07
249.417	309.41
249.633	-116.56
249.85	-85.84
250.067	143.53
250.284	161.96
250.501	-180.05
250.717	-143.19
250.934	53.42
251.151	131.24
251.368	-81.75
251.585	-155.47
251.801	266.41
252.018	37.03
252.235	4.27
252.451	-225.11
252.668	114.86
252.885	309.41
253.102	-108.37
253.318	-239.44
253.535	98.47
253.752	135.34
253.968	-106.32
254.185	-276.31
254.401	229.54
254.618	295.08
254.835	-85.84
255.051	-149.33
255.268	286.89
255.484	186.54
255.701	-96.08
255.917	-169.81
256.134	-20.31
256.351	118.95
256.567	-194.39
256.784	4.27
257	-20.31
257.217	317.61
257.433	34.99
257.65	-135
257.866	362.66
258.082	37.03
258.299	-186.19
258.515	-151.38
258.732	108.71
258.948	57.51
259.165	-59.22
259.381	-184.15
259.597	266.41
259.814	168.1
260.03	-139.09
260.246	-155.47
260.463	344.23
260.679	340.13
260.895	-46.93
261.112	-55.12
261.328	229.54
261.544	0.17
261.761	-118.61
261.977	-163.67
262.193	63.66
262.409	211.11
262.626	2.22
262.842	-149.33
263.058	63.66
263.274	327.85
263.49	-71.51
263.707	-182.1
263.923	274.6
264.139	-30.55
264.355	-79.7
264.571	10.41
264.787	233.64
265.004	299.17
265.22	-16.21
265.436	-147.28
265.652	67.75
265.868	190.63
266.084	-218.96
266.3	-128.85
266.516	4.27
266.732	151.72
266.948	-69.46
267.164	-210.77
267.38	286.89
267.596	170.15
267.812	4.27
268.028	-53.08
268.244	59.56
268.46	184.49
268.676	-71.51
268.892	24.75
269.108	39.08
269.324	88.23
269.54	-89.94
269.756	-36.69
269.972	8.36
270.188	114.86
270.403	-192.34
270.619	-147.28
270.835	311.46
271.051	166.06
271.267	-173.91
271.483	-87.89
271.698	290.98
271.914	217.26
272.13	-67.41
272.346	-120.66
272.562	211.11
272.777	342.18
272.993	-87.89
273.209	-110.42
273.425	207.02
273.64	-61.27
273.856	-165.71
274.072	-298.83
274.287	123.05
274.503	235.69
274.719	4.27
274.934	-190.29
275.15	-26.45
275.366	151.72
275.581	-184.15
275.797	-161.62
276.012	164.01
276.228	172.2
276.444	-1.88
276.659	88.23
276.875	67.75
277.09	96.43
277.306	-79.7
277.521	-32.6
277.737	77.99
277.952	133.29
278.168	-30.55
278.383	-67.41
278.599	108.71
278.814	247.97
279.03	-132.95
279.245	49.32
279.461	96.43
279.676	243.88
279.892	-98.13
280.107	-149.33
280.322	43.18
280.538	327.85
280.753	-102.23
280.969	-108.37
281.184	254.12
281.399	270.5
281.615	-89.94
281.83	63.66
282.045	-42.84
282.26	59.56
282.476	-91.99
282.691	14.51
282.906	170.15
283.122	118.95
283.337	-91.99
283.552	-48.98
283.767	45.23
283.983	159.91
284.198	-98.13
284.413	-53.08
284.628	-44.88
284.843	184.49
285.058	-77.65
285.274	-102.23
285.489	104.62
285.704	252.07
285.919	-65.36
286.134	-16.21
286.349	170.15
286.564	55.47
286.779	18.6
286.995	-1.88
287.21	-28.5
287.425	153.77
287.64	-87.89
287.855	112.81
288.07	-48.98
288.285	200.87
288.5	34.99
288.715	-55.12
288.93	84.14
289.145	34.99
289.36	-112.47
289.575	-69.46
289.79	321.7
290.004	55.47
290.219	80.04
290.434	-3.93
290.649	65.71
290.864	209.06
291.079	-48.98
291.294	-28.5
291.509	239.78
291.724	110.76
291.938	-51.03
292.153	-83.8
292.368	200.87
292.583	219.3
292.798	-16.21
293.012	-22.36
293.227	110.76
293.442	114.86
293.657	63.66
293.871	-26.45
294.086	174.25
294.301	288.93
294.516	20.65
294.73	61.61
294.945	18.6
295.16	164.01
295.374	-63.32
295.589	4.27
295.804	61.61
296.018	133.29
296.233	-61.27
296.447	14.51
296.662	-12.12
296.877	276.65
297.091	-30.55
297.306	-28.5
297.52	88.23
297.735	174.25
297.949	131.24
298.164	-202.58
298.378	219.3
298.593	41.13
298.807	-12.12
299.022	96.43
299.236	338.09
299.451	77.99
299.665	43.18
299.88	-24.4
300.094	260.26
300.309	137.38
300.523	-51.03
300.737	-46.93
300.952	186.54
301.166	186.54
301.381	-65.36
301.595	-110.42
301.809	139.43
302.024	51.37
302.238	-128.85
302.452	127.14
302.667	131.24
302.881	254.12
303.095	82.09
303.309	-26.45
303.524	-10.07
303.738	125.1
303.952	61.61
304.166	65.71
304.381	-114.52
304.595	331.94
304.809	2.22
305.023	-59.22
305.237	67.75
305.452	129.19
305.666	-48.98
305.88	102.57
306.094	297.13
306.308	211.11
306.522	-77.65
306.736	69.8
306.95	276.65
307.164	10.41
307.379	47.27
307.593	71.85
307.807	329.89
308.021	155.82
308.235	121
308.449	-157.52
308.663	215.21
308.877	487.59
309.091	-22.36
309.305	57.51
309.519	-120.66
309.733	215.21
309.947	-130.9
310.161	34.99
310.374	219.3
310.588	202.92
310.802	6.31
311.016	-77.65
311.23	266.41
311.444	69.8
311.658	-3.93
311.872	211.11
312.085	270.5
312.299	372.9
312.513	75.95
312.727	-128.85
312.941	65.71
313.154	116.9
313.368	45.23
313.582	-44.88
313.796	161.96
314.009	153.77
314.223	155.82
314.437	4.27
314.651	295.08
314.864	14.51
315.078	-42.84
315.292	-38.74
315.505	112.81
315.719	174.25
315.933	71.85
316.146	-159.57
316.36	-18.26
316.573	276.65
316.787	106.67
317.001	65.71
317.214	-5.97
317.428	159.91
317.641	-98.13
317.855	-100.18
318.068	190.63
318.282	166.06
318.495	55.47
318.709	-126.8
318.922	114.86
319.136	352.42
319.349	37.03
319.563	-61.27
319.776	227.5
319.99	-104.28
320.203	47.27
320.417	-34.64
320.63	80.04
320.843	311.46
321.057	88.23
321.27	12.46
321.483	231.59
321.697	227.5
321.91	-44.88
322.124	55.47
322.337	207.02
322.55	12.46
322.763	-65.36
322.977	-24.4
323.19	51.37
323.403	121
323.617	18.6
323.83	172.2
324.043	108.71
324.256	143.53
324.469	-241.49
324.683	110.76
324.896	129.19
325.109	110.76
325.322	-128.85
325.535	-20.31
325.748	358.57
325.962	86.19
326.175	-20.31
326.388	-46.93
326.601	155.82
326.814	43.18
327.027	-53.08
327.24	131.24
327.453	-83.8
327.666	233.64
327.879	174.25
328.092	-65.36
328.305	215.21
328.518	32.94
328.731	-16.21
328.944	-77.65
329.157	149.67
329.37	55.47
329.583	98.47
329.796	51.37
330.009	-38.74
330.222	219.3
330.435	65.71
330.648	-5.97
330.861	116.9
331.073	184.49
331.286	104.62
331.499	-18.26
331.712	92.33
331.925	20.65
332.138	-26.45
332.35	-18.26
332.563	112.81
332.776	422.05
332.989	-32.6
333.202	-91.99
333.414	139.43
333.627	149.67
333.84	-1.88
334.053	61.61
334.265	43.18
334.478	-22.36
334.691	-65.36
334.903	174.25
335.116	94.38
335.329	20.65
335.541	55.47
335.754	293.03
335.966	63.66
336.179	59.56
336.392	4.27
336.604	4.27
336.817	192.68
337.029	217.26
337.242	-112.47
337.454	57.51
337.667	139.43
337.88	323.75
338.092	-10.07
338.305	102.57
338.517	-18.26
338.729	168.1
338.942	22.7
339.154	-38.74
339.367	2.22
339.579	243.88
339.792	-75.6
340.004	37.03
340.217	127.14
340.429	231.59
340.641	-24.4
340.854	-126.8
341.066	202.92
341.278	288.93
341.491	143.53
341.703	-40.79
341.915	47.27
342.128	241.83
342.34	82.09
342.552	-102.23
342.764	200.87
342.977	112.81
343.189	49.32
343.401	49.32
343.613	-38.74
343.826	100.52
344.038	30.89
344.25	90.28
344.462	-12.12
344.674	176.3
344.886	-132.95
345.099	-10.07
345.311	288.93
345.523	63.66
345.735	-106.32
345.947	12.46
346.159	293.03
346.371	102.57
346.583	-42.84
346.795	84.14
347.007	178.34
347.219	215.21
347.431	-44.88
347.643	135.34
347.855	20.65
348.067	313.51
348.279	-94.04
348.491	43.18
348.703	293.03
348.915	55.47
349.127	-73.56
349.339	-10.07
349.551	147.62
349.763	258.21
349.975	47.27
350.187	63.66
350.399	274.6
350.61	145.58
350.822	-108.37
351.034	55.47
351.246	295.08
351.458	172.2
351.669	71.85
351.881	12.46
352.093	293.03
352.305	219.3
352.517	-28.5
352.728	147.62
352.94	164.01
353.152	233.64
353.363	-163.67
353.575	39.08
353.787	407.72
353.999	164.01
354.21	155.82
354.422	-116.56
354.633	108.71
354.845	149.67
355.057	84.14
355.268	47.27
355.48	239.78
355.692	37.03
355.903	20.65
356.115	-108.37
356.326	-108.37
356.538	350.37
356.749	28.84
356.961	151.72
357.172	186.54
357.384	28.84
357.595	131.24
357.807	10.41
358.018	73.9
358.23	123.05
358.441	-48.98
358.653	-28.5
358.864	194.73
359.075	28.84
359.287	-51.03
359.498	32.94
359.709	225.45
359.921	108.71
360.132	32.94
360.344	-44.88
360.555	149.67
360.766	137.38
360.977	-106.32
361.189	-36.69
361.4	194.73
361.611	284.84
361.823	80.04
362.034	24.75
362.245	-32.6
362.456	114.86
362.667	98.47
362.879	-200.53
363.09	282.79
363.301	116.9
363.512	-81.75
363.723	-69.46
363.935	112.81
364.146	250.02
364.357	-71.51
364.568	-36.69
364.779	6.31
364.99	221.35
365.201	-18.26
365.412	102.57
365.623	-34.64
365.834	215.21
366.045	65.71
366.256	37.03
366.467	194.73
366.678	104.62
366.889	-26.45
367.1	-124.76
367.311	235.69
367.522	94.38
367.733	110.76
367.944	-36.69
368.155	121
368.366	211.11
368.577	41.13
368.788	125.1
368.999	131.24
369.209	145.58
369.42	88.23
369.631	307.37
369.842	145.58
370.053	28.84
370.264	-3.93
370.474	-75.6
370.685	272.55
370.896	73.9
371.107	47.27
371.317	-8.02
371.528	161.96
371.739	237.74
371.95	-22.36
372.16	8.36
372.371	-18.26
372.582	82.09
372.792	-1.88
373.003	106.67
373.214	202.92
373.424	139.43
373.635	-26.45
373.846	94.38
374.056	180.39
374.267	168.1
374.477	57.51
374.688	-10.07
374.898	250.02
375.109	188.58
375.319	37.03
375.53	80.04
375.74	219.3
375.951	61.61
376.161	69.8
376.372	14.51
376.582	143.53
376.793	260.26
377.003	-102.23
377.214	-63.32
377.424	213.16
377.635	186.54
377.845	-106.32
378.055	106.67
378.266	-18.26
378.476	135.34
378.686	-61.27
378.897	53.42
379.107	266.41
379.317	172.2
379.528	-73.56
379.738	59.56
379.948	28.84
380.158	145.58
380.369	24.75
380.579	75.95
380.789	133.29
380.999	149.67
381.21	96.43
381.42	110.76
381.63	88.23
381.84	268.45
382.05	63.66
382.261	61.61
382.471	223.4
382.681	24.75
382.891	82.09
383.101	102.57
383.311	-71.51
383.521	22.7
383.731	-67.41
383.941	239.78
384.151	153.77
384.361	18.6
384.571	55.47
384.781	-40.79
384.991	286.89
385.201	372.9
385.411	129.19
385.621	57.51
385.831	235.69
386.041	123.05
386.251	80.04
386.461	80.04
386.671	112.81
386.881	139.43
387.091	16.55
387.301	114.86
387.511	102.57
387.72	118.95
387.93	24.75
388.14	-132.95
388.35	147.62
388.56	323.75
388.769	24.75
388.979	-46.93
389.189	69.8
389.399	198.82
389.609	-24.4
389.818	86.19
390.028	182.44
390.238	135.34
390.447	-14.17
390.657	18.6
390.867	237.74
391.076	-59.22
391.286	20.65
391.496	-77.65
391.705	127.14
391.915	315.56
392.125	-96.08
392.334	45.23
392.544	426.15
392.753	131.24
392.963	20.65
393.172	10.41
393.382	94.38
393.591	295.08
393.801	-8.02
394.01	104.62
394.22	176.3
394.429	88.23
394.639	-34.64
394.848	98.47
395.058	133.29
395.267	84.14
395.477	98.47
395.686	112.81
395.895	422.05
396.105	315.56
396.314	34.99
396.524	43.18
396.733	145.58
396.942	288.93
397.152	4.27
397.361	147.62
397.57	194.73
397.78	114.86
397.989	57.51
398.198	254.12
398.407	49.32
398.617	102.57
398.826	-69.46
399.035	-22.36
399.244	182.44
399.453	145.58
399.663	-73.56
399.872	-87.89
400.081	22.7
400.29	217.26
400.499	-79.7
400.708	131.24
400.917	153.77
401.127	96.43
401.336	-18.26
401.545	323.75
401.754	331.94
401.963	227.5
402.172	22.7
402.381	-59.22
402.59	172.2
402.799	141.48
403.008	100.52
403.217	-20.31
403.426	178.34
403.635	-57.17
403.844	-104.28
404.053	-89.94
404.262	45.23
404.471	305.32
404.68	0.17
404.888	-16.21
405.097	39.08
405.306	151.72
405.515	30.89
405.724	-8.02
405.933	209.06
406.142	250.02
406.35	-5.97
406.559	69.8
406.768	180.39
406.977	372.9
407.185	16.55
407.394	104.62
407.603	37.03
407.812	159.91
408.02	155.82
408.229	90.28
408.438	231.59
408.646	-36.69
408.855	-18.26
409.064	34.99
409.272	139.43
409.481	168.1
409.69	-28.5
409.898	-79.7
410.107	211.11
410.315	166.06
410.524	24.75
410.733	-59.22
410.941	211.11
411.15	280.74
411.358	69.8
411.567	213.16
411.775	39.08
411.984	186.54
412.192	49.32
412.401	-83.8
412.609	356.52
412.818	245.93
413.026	57.51
413.234	-10.07
413.443	106.67
413.651	-67.41
413.86	-116.56
414.068	282.79
414.276	387.24
414.485	104.62
414.693	121
414.901	200.87
415.11	268.45
415.318	32.94
415.526	-20.31
415.734	147.62
415.943	198.82
416.151	331.94
416.359	-36.69
416.567	30.89
416.776	231.59
416.984	174.25
417.192	135.34
417.4	20.65
417.608	98.47
417.817	-83.8
418.025	86.19
418.233	-5.97
418.441	0.17
418.649	14.51
418.857	59.56
419.065	127.14
419.273	57.51
419.481	213.16
419.689	77.99
419.897	-44.88
420.105	4.27
420.313	260.26
420.521	98.47
420.729	88.23
420.937	129.19
421.145	39.08
421.353	59.56
421.561	170.15
421.769	254.12
421.977	22.7
422.185	75.95
422.393	-8.02
422.601	229.54
422.809	196.78
423.017	75.95
423.224	30.89
423.432	153.77
423.64	137.38
423.848	-77.65
424.056	-42.84
424.263	307.37
424.471	131.24
424.679	131.24
424.887	-87.89
425.094	198.82
425.302	229.54
425.51	-96.08
425.718	45.23
425.925	129.19
426.133	0.17
426.341	86.19
426.548	8.36
426.756	121
426.964	211.11
427.171	55.47
427.379	45.23
427.586	131.24
427.794	241.83
428.001	135.34
428.209	-5.97
428.417	377
428.624	225.45
428.832	108.71
429.039	47.27
429.247	61.61
429.454	174.25
429.662	172.2
429.869	14.51
430.076	233.64
430.284	252.07
430.491	106.67
430.699	26.79
430.906	278.69
431.114	151.72
431.321	43.18
431.528	104.62
431.736	159.91
431.943	116.9
432.15	57.51
432.358	-18.26
432.565	336.04
432.772	-114.52
432.979	129.19
433.187	-1.88
433.394	305.32
433.601	69.8
433.808	98.47
434.016	139.43
434.223	137.38
434.43	221.35
434.637	82.09
434.844	235.69
435.052	184.49
435.259	223.4
435.466	45.23
435.673	55.47
435.88	278.69
436.087	258.21
436.294	202.92
436.501	125.1
436.708	209.06
436.915	239.78
437.122	164.01
437.329	-69.46
437.537	198.82
437.743	219.3
437.95	188.58
438.157	53.42
438.364	223.4
438.571	217.26
438.778	4.27
438.985	194.73
439.192	192.68
439.399	145.58
439.606	59.56
439.813	139.43
440.02	393.38
440.227	473.25
440.433	82.09
440.64	151.72
440.847	65.71
441.054	159.91
441.261	143.53
441.467	143.53
441.674	194.73
441.881	383.14
442.088	90.28
442.294	118.95
442.501	381.09
442.708	278.69
442.914	143.53
443.121	69.8
443.328	323.75
443.534	440.48
443.741	123.05
443.948	80.04
444.154	348.33
444.361	448.68
444.568	172.2
444.774	166.06
444.981	108.71
445.187	430.24
445.394	168.1
445.6	170.15
445.807	245.93
446.013	348.33
446.22	-14.17
446.426	194.73
446.633	327.85
446.839	557.22
447.046	94.38
447.252	209.06
447.459	233.64
447.665	266.41
447.871	159.91
448.078	450.72
448.284	454.82
448.491	465.06
448.697	381.09
448.903	260.26
449.11	471.2
449.316	329.89
449.522	440.48
449.728	350.37
449.935	536.74
450.141	385.19
450.347	487.59
450.553	192.68
450.76	516.26
450.966	471.2
451.172	407.72
451.378	297.13
451.584	512.16
451.791	667.81
451.997	460.96
452.203	372.9
452.409	661.66
452.615	737.44
452.821	473.25
453.027	370.85
453.233	792.73
453.44	546.98
453.646	456.87
453.852	563.36
454.058	446.63
454.264	671.9
454.47	661.66
454.676	561.31
454.882	745.63
455.088	684.19
455.294	639.14
455.5	727.2
455.705	841.89
455.911	745.63
456.117	532.64
456.323	669.86
456.529	784.54
456.735	694.43
456.941	577.7
457.147	798.88
457.352	866.46
457.558	643.23
457.764	592.03
457.97	487.59
458.176	825.5
458.381	839.84
458.587	766.11
458.793	731.3
458.999	731.3
459.204	735.39
459.41	678.05
459.616	702.62
459.821	811.17
460.027	663.71
460.233	714.91
460.438	708.77
460.644	757.92
460.85	776.35
461.055	725.15
461.261	714.91
461.466	614.56
461.672	649.38
461.878	567.46
462.083	688.29
462.289	600.23
462.494	622.75
462.7	704.67
462.905	473.25
463.111	878.75
463.316	768.16
463.522	573.6
463.727	598.18
463.932	704.67
464.138	788.64
464.343	536.74
464.549	647.33
464.754	839.84
464.959	835.74
465.165	561.31
465.37	546.98
465.575	708.77
465.781	524.45
465.986	456.87
466.191	458.92
466.397	682.14
466.602	817.31
466.807	559.27
467.012	542.88
467.218	790.69
467.423	612.51
467.628	497.83
467.833	544.93
468.038	684.19
468.244	487.59
468.449	532.64
468.654	544.93
468.859	616.61
469.064	579.75
469.269	393.38
469.474	551.07
469.679	723.1
469.885	719.01
470.09	499.88
470.295	485.54
470.5	567.46
470.705	706.72
470.91	551.07
471.115	479.4
471.32	733.34
471.525	774.3
471.73	520.35
471.935	624.8
472.139	559.27
472.344	487.59
472.549	522.4
472.754	624.8
472.959	669.86
473.164	723.1
473.369	581.79
473.574	725.15
473.778	684.19
473.983	719.01
474.188	620.71
474.393	573.6
474.598	694.43
474.802	678.05
475.007	495.78
475.212	647.33
475.417	569.51
475.621	780.45
475.826	477.35
476.031	684.19
476.235	616.61
476.44	596.13
476.645	501.92
476.849	458.92
477.054	614.56
477.259	596.13
477.463	651.42
477.668	714.91
477.872	872.61
478.077	594.08
478.282	516.26
478.486	579.75
478.691	637.09
478.895	673.95
479.1	704.67
479.304	616.61
479.509	532.64
479.713	850.08
479.918	618.66
480.122	628.9
480.326	739.49
480.531	727.2
480.735	602.27
480.94	463.01
481.144	825.5
481.348	766.11
481.553	630.95
481.757	532.64
481.961	649.38
482.166	751.78
482.37	512.16
482.574	628.9
482.778	606.37
482.983	835.74
483.187	514.21
483.391	721.06
483.595	678.05
483.8	786.59
484.004	676
484.208	616.61
484.412	905.37
484.616	868.51
484.821	551.07
485.025	589.99
485.229	641.18
485.433	786.59
485.637	587.94
485.841	620.71
486.045	872.61
486.249	938.14
486.453	731.3
486.657	680.1
486.861	569.51
487.065	813.21
487.269	692.38
487.473	559.27
487.677	870.56
487.881	1099.93
488.085	774.3
488.289	817.31
488.493	864.41
488.697	923.8
488.901	831.65
489.105	843.93
489.309	872.61
489.512	1058.97
489.716	837.79
489.92	866.46
490.124	942.24
490.328	1134.75
490.531	872.61
490.735	960.67
490.939	868.51
491.143	979.1
491.346	762.02
491.55	938.14
491.754	1003.68
491.958	1003.68
492.161	932
492.365	897.18
492.569	946.33
492.772	1116.31
492.976	958.62
493.18	985.24
493.383	1093.79
493.587	1040.54
493.79	1122.46
493.994	970.91
494.197	1087.64
494.401	1208.47
494.605	977.05
494.808	1011.87
495.012	1357.97
495.215	1366.17
495.419	1128.6
495.622	1026.2
495.825	1220.76
496.029	1286.3
496.232	1274.01
496.436	1251.48
496.639	1605.78
496.843	1409.17
497.046	1337.49
497.249	1452.18
497.453	1487
497.656	1317.01
497.859	1487
498.063	1376.41
498.266	1620.11
498.469	1370.26
498.673	1503.38
498.876	1497.24
499.079	1581.2
499.282	1568.91
499.485	1829.01
499.689	1679.51
499.892	1882.25
500.095	1720.46
500.298	1677.46
500.501	1765.52
500.705	1859.73
500.908	1915.02
501.111	1826.96
501.314	2048.14
501.517	2107.53
501.72	1998.99
501.923	1992.84
502.126	2060.43
502.329	2433.16
502.532	2199.69
502.735	2283.66
502.938	2420.87
503.141	2420.87
503.344	2408.58
503.547	2500.74
503.75	2353.29
503.953	2455.69
504.156	2695.3
504.359	2607.23
504.562	2652.29
504.765	2838.66
504.968	2975.87
505.17	2928.77
505.373	2820.22
505.576	3154.04
505.779	3315.83
505.982	3065.98
506.185	3125.37
506.387	3315.83
506.59	3373.18
506.793	3446.9
506.996	3469.43
507.198	3924.08
507.401	3924.08
507.604	3702.9
507.807	3860.59
508.009	4288.62
508.212	4087.92
508.415	4077.68
508.617	4034.67
508.82	4290.67
509.022	4300.91
509.225	4413.54
509.428	4409.45
509.63	4505.7
509.833	4698.21
510.035	5001.31
510.238	4978.78
510.44	4876.38
510.643	5242.97
510.845	5085.28
511.048	5245.02
511.25	5390.42
511.453	5421.14
511.655	5664.85
511.858	5750.87
512.06	5922.9
512.262	5904.46
512.465	5967.95
512.667	6226
512.87	6264.91
513.072	6582.34
513.274	6594.63
513.477	6557.77
513.679	6754.37
513.881	6934.59
514.084	6967.36
514.286	7159.87
514.488	7444.54
514.69	7571.51
514.893	7587.89
515.095	7804.98
515.297	7893.04
515.499	8085.55
515.701	8210.48
515.904	8443.95
516.106	8691.75
516.308	8519.72
516.51	8831.01
516.712	8974.37
516.914	9058.34
517.116	9168.93
517.318	9228.32
517.52	9502.75
517.722	9807.89
517.925	9936.92
518.127	10162.19
518.329	10180.62
518.531	10127.38
518.733	10752.01
518.935	10592.27
519.136	10977.28
519.338	10985.48
519.54	11360.25
519.742	11403.26
519.944	11958.26
520.146	12134.39
520.348	12068.85
520.55	12034.04
520.752	12255.22
520.954	12580.84
521.155	12660.71
521.357	12894.18
521.559	13285.34
521.761	13473.76
521.963	13443.04
522.164	13518.81
522.366	13764.57
522.568	13936.6
522.77	14241.75
522.971	14364.62
523.173	14520.27
523.375	14628.81
523.576	14487.5
523.778	14925.77
523.98	15077.32
524.181	15765.43
524.383	15859.64
524.584	15603.64
524.786	15863.74
524.988	16089.01
525.189	16443.31
525.391	16445.36
525.592	16349.11
525.794	16605.1
525.995	16789.42
526.197	17080.23
526.398	17495.97
526.6	17559.45
526.801	17379.23
527.003	17348.51
527.204	17704.86
527.406	18143.13
527.607	18237.33
527.808	17887.13
528.01	17889.18
528.211	18333.59
528.412	18640.78
528.614	18749.32
528.815	18741.13
529.016	19330.95
529.218	19193.73
529.419	19046.28
529.62	19060.62
529.822	19484.55
530.023	19576.7
530.224	19584.9
530.425	19429.25
530.626	19586.94
530.828	19636.1
531.029	20047.74
531.23	19976.06
531.431	20283.25
531.632	20508.53
531.833	20232.05
532.035	20254.58
532.236	20209.53
532.437	20698.99
532.638	20336.5
532.839	20598.64
533.04	20907.88
533.241	20963.18
533.442	20963.18
533.643	20762.48
533.844	20971.37
534.045	20930.41
534.246	20690.8
534.447	21018.47
534.648	20709.23
534.849	21393.25
535.05	21053.29
535.251	21184.36
535.451	21180.26
535.652	21233.51
535.853	21290.85
536.054	21530.47
536.255	21407.59
536.456	21274.47
536.657	21567.33
536.857	21489.51
537.058	21743.45
537.259	22079.32
537.46	21610.34
537.66	21503.84
537.861	21563.23
538.062	21673.82
538.263	21819.23
538.463	21804.89
538.664	21940.06
538.865	21997.4
539.065	22085.47
539.266	21751.65
539.466	22060.89
539.667	21915.48
539.868	22341.46
540.068	22140.76
540.269	22175.58
540.469	22298.45
540.67	21972.83
540.87	21974.88
541.071	22024.03
541.271	22345.56
541.472	22198.1
541.672	22333.27
541.873	22155.1
542.073	22009.69
542.274	22501.2
542.474	22107.99
542.675	22112.09
542.875	22810.45
543.075	22343.51
543.276	22271.83
543.476	22388.57
543.676	22427.48
543.877	22443.86
544.077	22490.96
544.277	22677.33
544.478	22427.48
544.678	22871.89
544.878	22630.23
545.078	22820.69
545.279	22523.73
545.479	22402.9
545.679	22466.39
545.879	22605.65
546.079	22902.61
546.28	22566.74
546.48	22740.82
546.68	23027.53
546.88	22757.2
547.08	22763.34
547.28	22869.84
547.48	22480.72
547.68	23033.68
547.88	22859.6
548.081	23007.05
548.281	22824.78
548.481	22656.85
548.681	22898.51
548.881	23070.54
549.081	23367.49
549.28	23123.79
549.48	23025.48
549.68	22957.9
549.88	23373.64
550.08	23267.14
550.28	23236.42
550.48	23332.68
550.68	23637.83
550.88	23357.25
551.08	23064.39
551.279	23451.46
551.479	23406.41
551.679	23621.44
551.879	22998.86
552.079	23316.29
552.278	23336.77
552.478	23654.21
552.678	23439.17
552.878	23236.42
553.077	23226.18
553.277	23254.86
553.477	23600.96
553.676	22904.65
553.876	23615.3
554.076	23433.03
554.275	23521.09
554.475	22968.14
554.674	23576.39
554.874	23293.77
555.074	23058.25
555.273	23277.38
555.473	23680.83
555.672	23199.56
555.872	23426.89
556.071	23109.45
556.271	23772.99
556.47	23035.72
556.67	23031.63
556.869	23039.82
557.068	23424.84
557.268	23344.97
557.467	22951.76
557.667	23213.9
557.866	23238.47
558.065	23181.13
558.265	22687.57
558.464	22763.34
558.663	23091.02
558.863	23035.72
559.062	22935.37
559.261	22529.87
559.461	23273.29
559.66	22660.94
559.859	22720.34
560.058	22390.61
560.258	22538.07
560.457	22789.97
560.656	22794.06
560.855	22148.95
561.054	22906.7
561.253	22806.35
561.453	22540.11
561.652	22441.81
561.851	22679.38
562.05	22255.45
562.249	22017.88
562.448	22140.76
562.647	22050.65
562.846	21808.99
563.045	22161.24
563.244	21708.64
563.443	22140.76
563.642	21499.75
563.841	21559.14
564.04	21641.06
564.239	21935.96
564.438	21845.85
564.637	21108.58
564.836	21258.09
565.035	20840.3
565.234	20969.32
565.432	20717.42
565.631	20911.98
565.83	21004.14
566.029	20959.08
566.228	20316.02
566.427	20696.94
566.625	20404.08
566.824	20324.21
567.023	20670.32
567.222	19924.86
567.42	20352.88
567.619	20041.59
567.818	19867.52
568.016	19996.54
568.215	20088.7
568.414	19869.56
568.612	19853.18
568.811	19928.95
569.01	19632
569.208	19281.8
569.407	19376
569.605	18964.36
569.804	19216.26
570.002	19019.66
570.201	18804.62
570.4	18513.81
570.598	18640.78
570.797	18669.45
570.995	18429.84
571.193	18311.06
571.392	18435.99
571.59	17911.71
571.789	18239.38
571.987	18053.02
572.186	18100.12
572.384	17895.32
572.582	17905.56
572.781	17799.07
572.979	17199.01
573.177	17721.24
573.376	17438.62
573.574	17354.66
573.772	17506.21
573.971	17168.29
574.169	16613.29
574.367	16807.85
574.565	17166.24
574.763	16975.78
574.962	16742.32
575.16	16584.62
575.358	16648.11
575.556	16297.91
575.754	16496.56
575.952	16078.77
576.151	16646.06
576.349	16353.2
576.547	16086.97
576.745	16039.86
576.943	16338.87
577.141	16220.08
577.339	15816.63
577.537	15566.78
577.735	15747
577.933	15663.04
578.131	15423.42
578.329	15390.66
578.527	15552.45
578.725	15785.91
578.923	15271.87
579.121	15142.85
579.319	15075.27
579.516	15218.63
579.714	15357.89
579.912	15210.43
580.11	14858.18
580.308	15081.41
580.506	14815.18
580.704	14524.37
580.901	14684.11
581.099	15091.65
581.297	14788.55
581.495	14536.65
581.692	14757.83
581.89	14559.18
582.088	14503.89
582.285	14256.08
582.483	14653.39
582.681	14147.54
582.878	14034.9
583.076	14059.48
583.274	14342.1
583.471	14274.51
583.669	13885.4
583.866	13803.48
584.064	14127.06
584.262	13905.88
584.459	13684.7
584.657	14030.8
584.854	14241.75
585.052	13785.05
585.249	13506.52
585.447	13701.08
585.644	13275.1
585.841	13692.89
586.039	13715.42
586.236	13336.54
586.434	13346.78
586.631	13496.28
586.828	13168.61
587.026	13211.62
587.223	13127.65
587.42	12961.76
587.618	12976.1
587.815	13023.2
588.012	13168.61
588.21	12781.54
588.407	13090.79
588.604	12955.62
588.801	12959.72
588.999	12736.49
589.196	12437.48
589.393	12529.64
589.59	12601.32
589.787	12679.15
589.984	12646.38
590.182	12470.25
590.379	12546.03
590.576	12406.77
590.773	12466.16
590.97	12316.65
591.167	12763.11
591.364	12472.3
591.561	12302.32
591.758	12318.7
591.955	12554.22
592.152	12576.75
592.349	12177.39
592.546	12128.24
592.743	12099.57
592.94	12271.6
593.137	12347.37
593.334	12296.18
593.531	12476.4
593.727	12419.05
593.924	12218.35
594.121	12042.23
594.318	12009.46
594.515	11866.1
594.712	12199.92
594.908	12062.71
595.105	11843.57
595.302	12064.75
595.499	11939.83
595.696	12001.27
595.892	11792.37
596.089	12161.01
596.286	11849.72
596.482	11907.06
596.679	11976.69
596.876	11800.57
597.072	11745.27
597.269	11798.52
597.466	12001.27
597.662	11927.54
597.859	11571.19
598.055	11612.15
598.252	11945.97
598.448	12005.36
598.645	11644.92
598.841	11380.73
599.038	11884.53
599.234	11890.68
599.431	11442.17
599.627	11380.73
599.824	11735.03
600.02	11726.84
600.217	11309.05
600.413	11399.16
600.609	11431.93
600.806	11925.49
601.002	11716.6
601.198	11337.73
601.395	11730.94
601.591	11595.77
601.787	11554.81
601.984	11653.11
602.18	11558.91
602.376	11386.88
602.572	11515.9
602.769	11450.36
602.965	11450.36
603.161	11800.57
603.357	11196.42
603.553	11368.45
603.75	11180.03
603.946	11259.9
604.142	11116.55
604.338	11393.02
604.534	11360.25
604.73	11259.9
604.926	11104.26
605.122	11474.94
605.318	11216.9
605.514	11259.9
605.71	10948.61
605.906	11200.51
606.102	11040.77
606.298	11315.2
606.494	11083.78
606.69	11186.18
606.886	11120.64
607.082	10987.52
607.278	10876.93
607.474	10655.75
607.67	11100.16
607.866	10844.17
608.062	10827.78
608.257	10762.25
608.453	10809.35
608.649	11010.05
608.845	10678.28
609.041	10768.39
609.236	10731.53
609.432	10958.85
609.628	10670.09
609.824	10647.56
610.019	10713.1
610.215	10670.09
610.411	10719.24
610.606	10647.56
610.802	10745.86
610.998	10612.74
611.193	10768.39
611.389	10330.13
611.584	10641.42
611.78	10735.62
611.976	10387.47
612.171	10717.19
612.367	10668.04
612.562	10457.1
612.758	10248.21
612.953	10182.67
613.149	10383.37
613.344	10362.89
613.539	10194.96
613.735	10194.96
613.93	10412.04
614.126	9963.54
614.321	10205.2
614.517	10047.51
614.712	10500.11
614.907	10301.45
615.103	10289.17
615.298	10100.75
615.493	9971.73
615.688	10115.09
615.884	10358.8
616.079	9762.84
616.274	10248.21
616.47	9760.79
616.665	10057.75
616.86	9787.41
617.055	9873.43
617.25	9601.05
617.445	9938.96
617.641	9562.14
617.836	9662.49
618.031	9588.76
618.226	9703.45
618.421	9558.04
618.616	9695.25
618.811	9482.27
619.006	9437.21
619.201	9416.73
619.396	9582.62
619.591	9238.56
619.786	9445.4
619.981	9433.11
620.176	9512.99
620.371	9179.17
620.566	9140.26
620.761	9289.76
620.956	9320.48
621.151	9187.36
621.346	9338.91
621.541	8837.16
621.735	9183.26
621.93	8886.31
622.125	8888.36
622.32	8665.13
622.515	8788
622.709	9037.86
622.904	8910.88
623.099	8880.16
623.294	8802.34
623.488	8833.06
623.683	8859.68
623.878	8550.44
624.072	9119.78
624.267	8529.96
624.462	8462.38
624.656	8323.12
624.851	8695.85
625.046	8556.58
625.24	8503.34
625.435	8343.6
625.629	8634.41
625.824	8597.54
626.018	8402.99
626.213	8319.02
626.407	8497.19
626.602	8507.43
626.796	8359.98
626.991	8224.81
627.185	8009.78
627.38	8280.11
627.574	8198.19
627.768	8163.37
627.963	8382.51
628.157	8233.01
628.352	8122.41
628.546	8009.78
628.74	8120.37
628.935	8120.37
629.129	7981.1
629.323	7991.34
629.517	7972.91
629.712	7940.15
629.906	7927.86
630.1	8013.87
630.294	8204.33
630.489	7934
630.683	7890.99
630.877	7585.85
631.071	8151.09
631.265	7723.06
631.459	7651.38
631.653	7632.95
631.848	7819.32
632.042	7657.53
632.236	7417.91
632.43	7516.22
632.624	7626.81
632.818	7542.84
633.012	7407.67
633.206	7573.56
633.4	7446.59
633.594	7352.38
633.788	7356.47
633.982	7231.55
634.176	7641.14
634.369	7344.19
634.563	7118.91
634.757	6852.67
634.951	7153.73
635.145	7372.86
635.339	6977.6
635.533	7123.01
635.726	7041.09
635.92	6869.06
636.114	6709.32
636.308	6799.43
636.501	6633.54
636.695	6832.19
636.889	6473.8
637.083	6477.9
637.276	6617.16
637.47	6160.46
637.664	6283.34
637.857	6250.57
638.051	6226
638.244	6275.15
638.438	6053.97
638.632	5947.47
638.825	5834.83
639.019	6146.12
639.212	5660.76
639.406	5953.62
639.599	5781.59
639.793	5777.49
639.986	5572.69
640.18	5589.08
640.373	5353.56
640.567	5394.52
640.76	5283.93
640.954	5285.98
641.147	5189.72
641.34	5019.74
641.534	5040.22
641.727	4986.97
641.92	5046.37
642.114	4921.44
642.307	4982.88
642.5	4741.22
642.694	4628.58
642.887	4561
643.08	4599.91
643.273	4669.54
643.467	4368.49
643.66	4266.09
643.853	4079.72
644.046	4096.11
644.239	4255.85
644.432	3788.91
644.626	3952.75
644.819	3811.44
645.012	4024.43
645.205	4085.87
645.398	3876.98
645.591	3553.4
645.784	3657.84
645.977	3571.83
646.17	3559.54
646.363	3340.41
646.556	3350.65
646.749	3227.77
646.942	3381.37
647.135	3252.35
647.328	3254.39
647.521	3328.12
647.714	2986.11
647.907	3149.95
648.099	3068.03
648.292	3305.59
648.485	3084.41
648.678	2898.05
648.871	3051.64
649.064	2990.21
649.256	2777.22
649.449	2642.05
649.642	2703.49
649.835	2719.87
650.027	2670.72
650.22	2814.08
650.413	2736.26
650.605	2635.91
650.798	2545.8
650.991	2541.7
651.183	2609.28
651.376	2652.29
651.568	2500.74
651.761	2470.02
651.954	2574.47
652.146	2482.31
652.339	2367.62
652.531	2498.69
652.724	2281.61
652.916	2332.81
653.109	2091.15
653.301	2283.66
653.494	2398.34
653.686	2322.57
653.879	2271.37
654.071	2160.78
654.263	2054.28
654.456	2263.18
654.648	1960.08
654.84	2099.34
655.033	2201.74
655.225	2470.02
655.417	1783.95
655.61	2154.63
655.802	2220.17
655.994	2265.22
656.186	1980.56
656.379	2080.91
656.571	1908.88
656.763	2064.52
656.955	1980.56
657.148	1855.63
657.34	2222.22
657.532	1847.44
657.724	1732.75
657.916	1867.92
658.108	2054.28
658.3	2029.71
658.492	1779.86
658.684	1632.4
658.876	1882.25
659.068	1689.74
659.26	1652.88
659.452	1396.89
659.644	1796.24
659.836	1986.7
660.028	1554.58
660.22	1497.24
660.412	1626.26
660.604	1450.13
660.796	1497.24
660.988	1452.18
661.18	1515.67
661.372	1517.72
661.563	1386.65
661.755	1300.63
661.947	1427.6
662.139	1382.55
662.331	1454.23
662.522	1212.57
662.714	1265.82
662.906	1274.01
663.097	1140.89
663.289	1089.69
663.481	1194.14
663.673	1337.49
663.864	1126.55
664.056	1153.18
664.247	1003.68
664.439	1384.6
664.631	991.39
664.822	989.34
665.014	1134.75
665.205	1013.92
665.397	848.03
665.588	1058.97
665.78	1056.92
665.971	1071.26
666.163	895.13
666.354	815.26
666.546	884.89
666.737	925.85
666.929	850.08
667.12	805.02
667.311	1028.25
667.503	788.64
667.694	809.12
667.885	825.5
668.077	1026.2
668.268	653.47
668.459	741.54
668.651	768.16
668.842	872.61
669.033	708.77
669.224	596.13
669.416	901.28
669.607	751.78
669.798	635.04
669.989	563.36
670.18	542.88
670.371	796.83
670.563	534.69
670.754	798.88
670.945	639.14
671.136	854.17
671.327	649.38
671.518	604.32
671.709	610.47
671.9	774.3
672.091	819.36
672.282	608.42
672.473	403.62
672.664	540.83
672.855	680.1
673.046	536.74
673.237	549.03
673.428	655.52
673.619	749.73
673.809	417.96
674	536.74
674.191	759.97
674.382	526.5
674.573	559.27
674.764	512.16
674.954	768.16
675.145	379.04
675.336	377
675.527	458.92
675.717	532.64
675.908	546.98
676.099	422.05
676.289	458.92
676.48	420
676.671	596.13
676.861	473.25
677.052	362.66
677.243	594.08
677.433	497.83
677.624	555.17
677.814	411.81
678.005	501.92
678.195	694.43
678.386	403.62
678.576	424.1
678.767	317.61
678.957	506.02
679.148	497.83
679.338	565.41
679.529	596.13
679.719	428.2
679.909	508.07
680.1	415.91
680.29	651.42
680.481	405.67
680.671	489.64
680.861	385.19
681.052	653.47
681.242	389.28
681.432	485.54
681.622	483.49
681.813	508.07
682.003	557.22
682.193	354.47
682.383	495.78
682.573	567.46
682.764	565.41
682.954	573.6
683.144	676
683.334	618.66
683.524	600.23
683.714	626.85
683.904	587.94
684.094	630.95
684.284	692.38
684.474	620.71
684.664	678.05
684.854	714.91
685.044	762.02
685.234	645.28
685.424	686.24
685.614	755.87
685.804	934.04
685.994	673.95
686.184	784.54
686.374	942.24
686.564	786.59
686.753	858.27
686.943	731.3
687.133	901.28
687.323	929.95
687.513	944.28
687.702	852.13
687.892	1040.54
688.082	1128.6
688.272	1036.44
688.461	1106.07
688.651	1319.06
688.841	1323.16
689.03	1224.86
689.22	1210.52
689.41	1413.27
689.599	1380.5
689.789	1241.24
689.979	1501.33
690.168	1609.87
690.358	1779.86
690.547	1515.67
690.737	1618.07
690.926	1757.33
691.116	1919.12
691.305	1814.67
691.495	1730.7
691.684	1906.83
691.874	2035.85
692.063	2060.43
692.252	2074.76
692.442	2494.6
692.631	2160.78
692.82	2158.73
693.01	2377.86
693.199	2568.32
693.388	2611.33
693.578	2515.08
693.767	2787.46
693.956	2865.28
694.146	2734.21
694.335	2828.42
694.524	2758.78
694.713	3225.72
694.902	2977.92
695.092	2920.57
695.281	3108.99
695.47	3344.5
695.659	3405.94
695.848	3350.65
696.037	3350.65
696.226	3680.37
696.415	3694.71
696.604	3969.13
696.793	3780.72
696.982	3987.57
697.171	4061.29
697.36	3780.72
697.549	3928.17
697.738	3913.84
697.927	4210.79
698.116	4079.72
698.305	4282.47
698.494	4513.89
698.683	4386.92
698.872	4415.59
699.061	4587.62
699.25	4669.54
699.438	4853.86
699.627	4739.17
699.816	4986.97
700.005	4581.48
700.193	4997.21
700.382	5177.44
700.571	5175.39
700.76	5185.63
700.948	5308.51
701.137	5222.49
701.326	5333.08
701.514	5398.62
701.703	5646.42
701.892	5515.35
702.08	5498.97
702.269	5720.15
702.457	5615.7
702.646	5673.04
702.834	5675.09
703.023	5859.41
703.212	6156.36
703.4	5912.66
703.589	5787.73
703.777	6180.94
703.965	5945.42
704.154	5851.22
704.342	5974.1
704.531	5957.71
704.719	6207.56
704.907	6297.67
705.096	6092.88
705.284	6260.81
705.472	6416.46
705.661	6142.03
705.849	6271.05
706.037	6611.01
706.226	6557.77
706.414	6418.5
706.602	6416.46
706.79	6740.04
706.979	6512.71
707.167	6565.96
707.355	6322.25
707.543	6737.99
707.731	6803.52
707.919	6551.62
708.107	6588.49
708.296	6680.64
708.484	6525
708.672	6737.99
708.86	6711.36
709.048	6785.09
709.236	6606.92
709.424	6778.95
709.612	6824
709.8	6565.96
709.988	6758.47
710.176	6830.15
710.364	6811.71
710.551	6770.76
710.739	6959.17
710.927	6781
711.115	6791.24
711.303	7131.2
711.491	7133.25
711.679	6686.79
711.866	6725.7
712.054	6940.74
712.242	7014.46
712.43	6963.26
712.617	6973.5
712.805	7045.18
712.993	7018.56
713.181	6613.06
713.368	6918.21
713.556	7036.99
713.744	6813.76
713.931	7032.9
714.119	7047.23
714.306	6991.94
714.494	7000.13
714.682	6985.79
714.869	6819.91
715.057	6934.59
715.244	6740.04
715.432	6938.69
715.619	6715.46
715.807	7059.52
715.994	6977.6
716.182	6881.35
716.369	7133.25
716.556	7028.8
716.744	6828.1
716.931	6793.28
717.119	6885.44
717.306	7020.61
717.493	7039.04
717.681	6867.01
717.868	6811.71
718.055	7131.2
718.242	7012.42
718.43	6840.39
718.617	6930.5
718.804	6846.53
718.991	6950.98
719.179	6559.81
719.366	6821.95
719.553	7075.9
719.74	6918.21
719.927	6856.77
720.114	6699.08
720.301	6770.76
720.488	6563.91
720.676	6754.37
720.863	6639.69
721.05	7243.84
721.237	6821.95
721.424	6981.7
721.611	6688.84
721.798	6545.48
721.985	6547.53
722.172	6662.21
722.358	6545.48
722.545	6842.43
722.732	6918.21
722.919	6793.28
723.106	6516.81
723.293	6686.79
723.48	6676.55
723.667	6541.38
723.853	6385.74
724.04	6926.4
724.227	7016.51
724.414	6488.14
724.6	6604.87
724.787	6830.15
724.974	6926.4
725.161	6492.23
725.347	6406.22
725.534	6645.83
725.72	6754.37
725.907	6570.05
726.094	6613.06
726.28	6514.76
726.467	6563.91
726.653	6266.96
726.84	6297.67
727.027	6643.78
727.213	6520.9
727.4	6635.59
727.586	6297.67
727.773	6434.89
727.959	6596.68
728.145	6469.7
728.332	6326.35
728.518	6322.25
728.705	6541.38
728.891	6312.01
729.077	6207.56
729.264	6273.1
729.45	6230.09
729.636	6287.43
729.823	6144.08
730.009	6379.59
730.195	6344.78
730.382	6182.99
730.568	6090.83
730.754	6283.34
730.94	6377.55
731.126	6152.27
731.313	6117.45
731.499	6228.04
731.685	6352.97
731.871	6123.6
732.057	5976.14
732.243	6254.67
732.429	6234.19
732.615	6115.41
732.801	5886.03
732.987	6076.49
733.173	5926.99
733.359	5859.41
733.545	5879.89
733.731	5949.52
733.917	6199.37
734.103	5949.52
734.289	6017.1
734.475	5857.36
734.661	6256.72
734.847	5951.57
735.033	5646.42
735.219	5929.04
735.404	5902.42
735.59	5838.93
735.776	5685.33
735.962	6053.97
736.148	6029.39
736.333	5757.01
736.519	5787.73
736.705	5789.78
736.89	5797.97
737.076	5654.61
737.262	5384.28
737.447	5501.01
737.633	5431.38
737.819	5728.34
738.004	5460.06
738.19	5605.46
738.375	5630.04
738.561	5537.88
738.747	5400.66
738.932	5361.75
739.118	5707.86
739.303	5357.66
739.489	5476.44
739.674	5345.37
739.859	5355.61
740.045	5357.66
740.23	5220.44
740.416	5128.28
740.601	5214.3
740.786	4982.88
740.972	5066.85
741.157	5328.99
741.342	4993.12
741.528	5113.95
741.713	5027.93
741.898	5189.72
742.084	5169.24
742.269	5070.94
742.454	5025.89
742.639	5279.83
742.824	5046.37
743.01	5124.19
743.195	5079.13
743.38	4968.54
743.565	4829.28
743.75	4903.01
743.935	4847.71
744.12	5032.03
744.305	4511.85
744.49	4894.82
744.675	4687.97
744.86	4841.57
745.045	4911.2
745.23	4608.1
745.415	4520.04
745.6	4903.01
745.785	4581.48
745.97	4671.59
746.155	4411.5
746.34	4761.7
746.525	4585.57
746.71	4620.39
746.895	4296.81
747.079	4300.91
747.264	4538.47
747.449	4442.21
747.634	4327.53
747.819	4454.5
748.003	4421.74
748.188	4155.5
748.373	4266.09
748.557	4448.36
748.742	4255.85
748.927	4135.02
749.111	4022.38
749.296	4049
749.481	4335.72
749.665	4126.83
749.85	3807.34
750.034	4249.71
750.219	4194.41
750.404	3862.64
750.588	3946.61
750.773	3838.06
750.957	3926.13
751.141	3762.29
751.326	3936.37
751.51	3795.06
751.695	3825.78
751.879	3778.67
752.064	3862.64
752.248	3764.34
752.432	3942.51
752.617	3674.23
752.801	3790.96
752.985	3694.71
753.17	3682.42
753.354	3623.03
753.538	3498.1
753.722	3520.63
753.907	3395.7
754.091	3483.77
754.275	3377.27
754.459	3379.32
754.643	3383.42
754.828	3324.02
755.012	3342.46
755.196	3262.58
755.38	3346.55
755.564	3217.53
755.748	3276.92
755.932	3434.61
756.116	3356.79
756.3	3242.11
756.484	3289.21
756.668	3248.25
756.852	3022.97
757.036	3131.51
757.22	3014.78
757.404	3039.36
757.588	3092.6
757.772	2977.92
757.956	2873.47
758.14	3287.16
758.323	2994.3
758.507	2789.5
758.691	2883.71
758.875	3078.27
759.059	3233.91
759.242	2789.5
759.426	2879.61
759.61	2879.61
759.794	2766.98
759.977	2883.71
760.161	3235.96
760.345	3092.6
760.528	2887.81
760.712	2689.15
760.895	2777.22
761.079	2721.92
761.263	2508.93
761.446	2560.13
761.63	2433.16
761.813	2693.25
761.997	2478.21
762.18	2418.82
762.364	2562.18
762.547	2324.62
762.731	2494.6
762.914	2502.79
763.098	2257.03
763.281	2625.67
763.464	2474.12
763.648	2424.97
763.831	2470.02
764.015	2306.18
764.198	2621.57
764.381	2396.29
764.564	2254.98
764.748	2459.78
764.931	2445.45
765.114	2341
765.297	2496.64
765.481	2386.05
765.664	2412.68
765.847	2150.54
766.03	2347.14
766.213	2422.92
766.397	2472.07
766.58	2175.11
766.763	2330.76
766.946	2269.32
767.129	2410.63
767.312	2351.24
767.495	2187.4
767.678	2375.81
767.861	2435.21
768.044	2175.11
768.227	2338.95
768.41	2275.46
768.593	2310.28
768.776	2384.01
768.959	2152.59
769.142	2525.32
769.324	2197.64
769.507	2211.98
769.69	2240.65
769.873	2285.7
770.056	2480.26
770.239	2056.33
770.421	2394.25
770.604	2277.51
770.787	2130.06
770.97	2166.92
771.152	1988.75
771.335	2254.98
771.518	2060.43
771.7	2042
771.883	2173.07
772.066	2103.43
772.248	2283.66
772.431	2130.06
772.613	2003.08
772.796	2027.66
772.978	2248.84
773.161	2177.16
773.343	1939.6
773.526	2064.52
773.708	1869.97
773.891	1904.78
774.073	2029.71
774.256	1945.74
774.438	2306.18
774.621	1937.55
774.803	1953.93
774.985	2017.42
775.168	2085
775.35	1859.73
775.532	1974.41
775.715	1790.1
775.897	2082.95
776.079	1915.02
776.261	1904.78
776.444	1855.63
776.626	1851.53
776.808	1796.24
776.99	1544.34
777.173	1937.55
777.355	1773.71
777.537	1699.98
777.719	1681.55
777.901	1761.42
778.083	1603.73
778.265	1568.91
778.447	1708.18
778.629	1699.98
778.811	1796.24
778.993	1681.55
779.175	1624.21
779.357	1781.9
779.539	1605.78
779.721	1603.73
779.903	1648.79
780.085	1536.15
780.267	1699.98
780.449	1505.43
780.631	1611.92
780.812	1740.94
780.994	1618.07
781.176	1456.28
781.358	1487
781.54	1487
781.721	1708.18
781.903	1439.89
782.085	1384.6
782.267	1601.68
782.448	1396.89
782.63	1407.13
782.812	1433.75
782.993	1505.43
783.175	1552.53
783.357	1259.67
783.538	1388.69
783.72	1333.4
783.901	1489.04
784.083	1360.02
784.264	1259.67
784.446	1089.69
784.627	1138.84
784.809	1421.46
784.99	995.48
785.172	1409.17
785.353	1300.63
785.535	1263.77
785.716	1165.46
785.897	1204.38
786.079	1249.43
786.26	1204.38
786.441	1249.43
786.623	997.53
786.804	1147.03
786.985	1226.9
787.167	1077.4
787.348	1198.23
787.529	1132.7
787.71	1138.84
787.891	1196.18
788.073	1149.08
788.254	938.14
788.435	1187.99
788.616	1120.41
788.797	1003.68
788.978	1085.59
789.159	972.96
789.34	1110.17
789.522	1087.64
789.703	940.19
789.884	1013.92
790.065	1118.36
790.246	1296.53
790.427	979.1
790.607	966.81
790.788	979.1
790.969	903.32
791.15	1108.12
791.331	944.28
791.512	792.73
791.693	862.37
791.874	878.75
792.054	1040.54
792.235	1036.44
792.416	772.25
792.597	876.7
792.778	905.37
792.958	858.27
793.139	1083.55
793.32	778.4
793.5	768.16
793.681	905.37
793.862	970.91
794.042	938.14
794.223	645.28
794.404	721.06
794.584	737.44
794.765	880.8
794.945	888.99
795.126	884.89
795.306	921.76
795.487	755.87
795.667	686.24
795.848	696.48
796.028	845.98
796.209	839.84
796.389	880.8
796.57	706.72
796.75	753.82
796.93	764.06
797.111	661.66
797.291	735.39
797.471	856.22
797.652	870.56
797.832	669.86
798.012	680.1
798.192	663.71
798.373	596.13
798.553	620.71
798.733	719.01
798.913	608.42
799.093	743.58
799.274	645.28
799.454	723.1
799.634	888.99
799.814	852.13
799.994	649.38
800.174	719.01
800.354	741.54
800.534	520.35
800.714	612.51
800.894	555.17
801.074	491.68
801.254	639.14
801.434	780.45
801.614	676
801.794	567.46
801.974	4730.98
802.154	585.89
802.334	649.38
802.514	446.63
802.693	669.86
802.873	440.48
803.053	755.87
803.233	676
803.413	628.9
803.592	516.26
803.772	579.75
803.952	579.75
804.131	491.68
804.311	626.85
804.491	551.07
804.67	506.02
804.85	426.15
805.03	598.18
805.209	811.17
805.389	598.18
805.568	563.36
805.748	463.01
805.928	506.02
806.107	698.53
806.287	669.86
806.466	489.64
806.646	514.21
806.825	612.51
807.004	530.59
807.184	456.87
807.363	557.22
807.543	579.75
807.722	506.02
807.901	659.62
808.081	477.35
808.26	340.13
808.439	538.79
808.619	481.44
808.798	436.39
808.977	544.93
809.156	739.49
809.336	450.72
809.515	501.92
809.694	489.64
809.873	360.61
810.052	417.96
810.231	581.79
810.411	604.32
810.59	653.47
810.769	354.47
810.948	528.55
811.127	161.96
811.306	438.44
811.485	340.13
811.664	487.59
811.843	446.63
812.022	415.91
812.201	381.09
812.38	321.7
812.559	409.76
812.737	424.1
812.916	250.02
813.095	323.75
813.274	483.49
813.453	438.44
813.632	413.86
813.811	422.05
813.989	311.46
814.168	454.82
814.347	231.59
814.526	362.66
814.704	565.41
814.883	575.65
815.062	153.77
815.24	350.37
815.419	278.69
815.598	510.11
815.776	172.2
815.955	290.98
816.133	256.17
816.312	385.19
816.49	327.85
816.669	409.76
816.847	323.75
817.026	401.57
817.204	227.5
817.383	274.6
817.561	288.93
817.74	471.2
817.918	321.7
818.097	266.41
818.275	266.41
818.453	456.87
818.632	401.57
818.81	284.84
818.988	290.98
819.167	333.99
819.345	284.84
819.523	149.67
819.701	477.35
819.879	393.38
820.058	405.67
820.236	182.44
820.414	530.59
820.592	288.93
820.77	239.78
820.948	211.11
821.127	290.98
821.305	401.57
821.483	151.72
821.661	295.08
821.839	362.66
822.017	270.5
822.195	166.06
822.373	139.43
822.551	348.33
822.729	350.37
822.907	225.45
823.085	303.27
823.262	297.13
823.44	192.68
823.618	340.13
823.796	241.83
823.974	336.04
824.152	290.98
824.329	262.31
824.507	317.61
824.685	364.71
824.863	323.75
825.04	254.12
825.218	264.36
825.396	288.93
825.574	405.67
825.751	286.89
825.929	176.3
826.107	176.3
826.284	338.09
826.462	209.06
826.639	209.06
826.817	186.54
826.994	290.98
827.172	80.04
827.349	315.56
827.527	293.03
827.704	370.85
827.882	282.79
828.059	229.54
828.237	297.13
828.414	399.52
828.591	-20.31
828.769	213.16
828.946	237.74
829.124	430.24
829.301	422.05
829.478	151.72
829.655	364.71
829.833	241.83
830.01	-26.45
830.187	342.18
830.364	278.69
830.542	250.02
830.719	211.11
830.896	245.93
831.073	358.57
831.25	342.18
831.427	75.95
831.604	178.34
831.782	225.45
831.959	247.97
832.136	217.26
832.313	231.59
832.49	250.02
832.667	286.89
832.844	77.99
833.021	364.71
833.198	360.61
833.374	315.56
833.551	219.3
833.728	141.48
833.905	366.76
834.082	-8.02
834.259	295.08
834.436	278.69
834.612	157.86
834.789	342.18
834.966	260.26
835.143	149.67
835.319	133.29
835.496	290.98
835.673	164.01
835.85	278.69
836.026	350.37
836.203	329.89
836.38	80.04
836.556	153.77
836.733	104.62
836.909	428.2
837.086	219.3
837.262	43.18
837.439	217.26
837.616	106.67
837.792	223.4
837.968	129.19
838.145	55.47
838.321	118.95
838.498	151.72
838.674	266.41
838.851	338.09
839.027	155.82
839.203	141.48
839.38	237.74
839.556	190.63
839.732	379.04
839.909	121
840.085	61.61
840.261	135.34
840.437	225.45
840.614	80.04
840.79	237.74
840.966	266.41
841.142	252.07
841.318	127.14
841.494	112.81
841.671	327.85
841.847	137.38
842.023	86.19
842.199	118.95
842.375	471.2
842.551	12.46
842.727	90.28
842.903	272.55
843.079	30.89
843.255	286.89
843.431	100.52
843.607	200.87
843.783	-22.36
843.959	270.5
844.134	63.66
844.31	293.03
844.486	37.03
844.662	73.9
844.838	170.15
845.013	200.87
845.189	413.86
845.365	202.92
845.541	88.23
845.716	262.31
845.892	374.95
846.068	110.76
846.244	114.86
846.419	127.14
846.595	39.08
846.77	-42.84
846.946	250.02
847.122	63.66
847.297	157.86
847.473	526.5
847.648	63.66
847.824	153.77
847.999	-12.12
848.175	170.15
848.35	209.06
848.526	344.23
848.701	350.37
848.876	366.76
849.052	327.85
849.227	94.38
849.403	213.16
849.578	159.91
849.753	247.97
849.929	90.28
850.104	22.7
850.279	239.78
850.454	96.43
850.63	137.38
850.805	159.91
850.98	250.02
851.155	235.69
851.33	176.3
851.505	4.27
851.681	303.27
851.856	112.81
852.031	176.3
852.206	204.97
852.381	6.31
852.556	10.41
852.731	24.75
852.906	237.74
853.081	260.26
853.256	254.12
853.431	0.17
853.606	217.26
853.781	51.37
853.956	-57.17
854.131	114.86
854.305	49.32
854.48	147.62
854.655	12.46
854.83	26.79
855.005	161.96
855.18	135.34
855.354	127.14
855.529	59.56
855.704	174.25
855.879	278.69
856.053	-48.98
856.228	135.34
856.403	84.14
856.577	241.83
856.752	-77.65
856.926	90.28
857.101	243.88
857.276	39.08
857.45	100.52
857.625	161.96
857.799	231.59
857.974	100.52
858.148	-73.56
858.323	207.02
858.497	174.25
858.672	127.14
858.846	112.81
859.02	161.96
859.195	2.22
859.369	135.34
859.543	202.92
859.718	184.49
859.892	274.6
860.066	182.44
860.241	34.99
860.415	37.03
860.589	110.76
860.763	170.15
860.938	65.71
861.112	102.57
861.286	12.46
861.46	254.12
861.634	147.62
861.808	53.42
861.982	127.14
862.157	24.75
862.331	22.7
862.505	-22.36
862.679	8.36
862.853	71.85
863.027	65.71
863.201	37.03
863.375	108.71
863.549	258.21
863.722	155.82
863.896	82.09
864.07	12.46
864.244	137.38
864.418	262.31
864.592	116.9
864.766	258.21
864.939	82.09
865.113	24.75
865.287	254.12
865.461	82.09
865.634	209.06
865.808	96.43
865.982	73.9
866.156	41.13
866.329	-51.03
866.503	151.72
866.676	161.96
866.85	164.01
867.024	96.43
867.197	202.92
867.371	71.85
867.544	204.97
867.718	-55.12
867.891	172.2
868.065	-61.27
868.238	151.72
868.412	260.26
868.585	118.95
868.759	47.27
868.932	69.8
869.105	4.27
869.279	157.86
869.452	-46.93
869.625	260.26
869.799	88.23
869.972	-77.65
870.145	67.75
870.319	323.75
870.492	77.99
870.665	65.71
870.838	-22.36
871.011	-118.61
871.185	125.1
871.358	92.33
871.531	194.73
871.704	75.95
871.877	276.65
872.05	-42.84
872.223	-42.84
872.396	333.99
872.569	157.86
872.742	16.55
872.915	135.34
873.088	92.33
873.261	4.27
873.434	194.73
873.607	37.03
873.78	331.94
873.953	-34.64
874.126	112.81
874.299	159.91
874.471	112.81
874.644	59.56
874.817	125.1
874.99	217.26
875.163	77.99
875.335	207.02
875.508	-28.5
875.681	106.67
875.853	88.23
876.026	196.78
876.199	157.86
876.371	-10.07
876.544	164.01
876.717	86.19
876.889	96.43
877.062	139.43
877.234	-18.26
877.407	-55.12
877.579	153.77
877.752	90.28
877.924	293.03
878.097	200.87
878.269	14.51
878.442	147.62
878.614	229.54
878.786	133.29
878.959	-12.12
879.131	166.06
879.303	-149.33
879.476	24.75
879.648	133.29
879.82	26.79
879.993	170.15
880.165	57.51
880.337	12.46
880.509	106.67
880.681	-10.07
880.854	53.42
881.026	174.25
881.198	166.06
881.37	143.53
881.542	106.67
881.714	71.85
881.886	49.32
882.058	176.3
882.23	204.97
882.402	100.52
882.574	77.99
882.746	295.08
882.918	366.76
883.09	141.48
883.262	6.31
883.434	127.14
883.606	-57.17
883.778	98.47
883.95	200.87
884.122	-26.45
884.293	299.17
884.465	104.62
884.637	114.86
884.809	57.51
884.98	192.68
885.152	223.4
885.324	114.86
885.496	22.7
885.667	92.33
885.839	80.04
886.011	104.62
886.182	170.15
886.354	202.92
886.525	121
886.697	32.94
886.869	59.56
887.04	14.51
887.212	247.97
887.383	194.73
887.555	178.34
887.726	-28.5
887.897	18.6
888.069	45.23
888.24	245.93
888.412	69.8
888.583	41.13
888.754	39.08
888.926	-63.32
889.097	-38.74
889.268	-30.55
889.44	18.6
889.611	-18.26
889.782	22.7
889.953	-44.88
890.125	209.06
890.296	-30.55
890.467	69.8
890.638	-32.6
890.809	55.47
890.98	67.75
891.151	252.07
891.323	256.17
891.494	-3.93
891.665	178.34
891.836	164.01
892.007	80.04
892.178	161.96
892.349	168.1
892.52	-10.07
892.691	73.9
892.862	-59.22
893.032	-122.71
893.203	121
893.374	184.49
893.545	170.15
893.716	59.56
893.887	247.97
894.057	14.51
894.228	98.47
894.399	-3.93
894.57	254.12
894.74	69.8
894.911	100.52
895.082	51.37
895.253	-18.26
895.423	149.67
895.594	153.77
895.764	217.26
895.935	-83.8
896.106	110.76
896.276	-22.36
896.447	184.49
896.617	-32.6
896.788	-110.42
896.958	-48.98
897.129	106.67
897.299	18.6
897.47	215.21
897.64	125.1
897.81	55.47
897.981	133.29
898.151	-32.6
898.322	59.56
898.492	215.21
898.662	-36.69
898.832	80.04
899.003	75.95
899.173	184.49
899.343	-40.79
899.513	-10.07
