Data from USB4F104151__44__12-59-07-865.txt Node

Date: Fri Mar 14 12:59:07 EDT 2025
User: louis
Spectrometer: USB4F10415
Trigger mode: 4
Integration Time (sec): 1.000000E-2
Scans to average: 1
Electric dark correction enabled: true
Nonlinearity correction enabled: false
Boxcar width: 0
XAxis mode: Wavelengths
Number of Pixels in Spectrum: 3648
>>>>>Begin Spectral Data<<<<<
178.204	-41.13
178.424	-41.13
178.644	-41.13
178.864	-57.51
179.084	-63.66
179.304	18.26
179.524	-80.04
179.744	-51.37
179.964	-47.27
180.184	-14.51
180.404	14.17
180.624	36.69
180.844	40.79
181.064	-2.22
181.283	-22.7
181.503	30.55
181.723	77.65
181.943	-41.13
182.163	42.84
182.383	26.45
182.602	26.45
182.822	-32.94
183.042	-26.79
183.262	20.31
183.482	-63.66
183.701	-26.79
183.921	-20.65
184.141	5.97
184.361	30.55
184.58	40.79
184.8	-67.75
185.02	-57.51
185.239	8.02
185.459	32.6
185.679	-8.36
185.898	-43.18
186.118	55.12
186.338	3.93
186.557	10.07
186.777	-39.08
186.997	-2.22
187.216	-63.66
187.436	-18.6
187.655	5.97
187.875	67.41
188.095	46.93
188.314	30.55
188.534	75.6
188.753	-2.22
188.973	20.31
189.192	40.79
189.412	36.69
189.631	1.88
189.851	48.98
190.07	-94.38
190.29	-20.65
190.509	22.36
190.729	-84.14
190.948	-28.84
191.168	14.17
191.387	79.7
191.607	-28.84
191.826	5.97
192.045	-8.36
192.265	-2.22
192.484	-30.89
192.704	1.88
192.923	-65.71
193.142	30.55
193.362	-14.51
193.581	14.17
193.8	26.45
194.02	-16.55
194.239	28.5
194.458	-12.46
194.678	20.31
194.897	-6.31
195.116	26.45
195.335	14.17
195.555	5.97
195.774	-6.31
195.993	-8.36
196.212	-10.41
196.432	46.93
196.651	3.93
196.87	-57.51
197.089	20.31
197.308	-53.42
197.528	16.21
197.747	-26.79
197.966	-16.55
198.185	75.6
198.404	18.26
198.623	1.88
198.842	-26.79
199.062	1.88
199.281	24.4
199.5	-41.13
199.719	61.27
199.938	1.88
200.157	5.97
200.376	36.69
200.595	57.17
200.814	-4.27
201.033	-22.7
201.252	-4.27
201.471	63.32
201.69	20.31
201.909	53.08
202.128	10.07
202.347	48.98
202.566	-63.66
202.785	-6.31
203.004	-24.75
203.223	-20.65
203.442	-2.22
203.661	28.5
203.879	5.97
204.098	61.27
204.317	20.31
204.536	89.94
204.755	22.36
204.974	-55.47
205.193	34.64
205.411	65.36
205.63	-22.7
205.849	5.97
206.068	-26.79
206.287	-14.51
206.505	-0.17
206.724	18.26
206.943	-20.65
207.162	-16.55
207.381	59.22
207.599	26.45
207.818	3.93
208.037	-34.99
208.255	-73.9
208.474	-20.65
208.693	46.93
208.911	10.07
209.13	-6.31
209.349	42.84
209.567	79.7
209.786	-10.41
210.005	-18.6
210.223	24.4
210.442	-10.41
210.661	18.26
210.879	3.93
211.098	-47.27
211.316	-59.56
211.535	79.7
211.753	-28.84
211.972	18.26
212.191	46.93
212.409	-4.27
212.628	-34.99
212.846	-20.65
213.065	-14.51
213.283	5.97
213.502	44.88
213.72	-59.56
213.938	-6.31
214.157	32.6
214.375	1.88
214.594	-59.56
214.812	-61.61
215.031	-16.55
215.249	10.07
215.467	16.21
215.686	48.98
215.904	3.93
216.122	-67.75
216.341	22.36
216.559	-2.22
216.778	36.69
216.996	-32.94
217.214	55.12
217.432	32.6
217.651	-71.85
217.869	44.88
218.087	-6.31
218.306	-61.61
218.524	59.22
218.742	-26.79
218.96	5.97
219.179	12.12
219.397	55.12
219.615	44.88
219.833	32.6
220.051	-12.46
220.27	55.12
220.488	30.55
220.706	18.26
220.924	8.02
221.142	-41.13
221.36	10.07
221.578	16.21
221.796	38.74
222.015	-18.6
222.233	40.79
222.451	87.89
222.669	-4.27
222.887	81.75
223.105	-57.51
223.323	-0.17
223.541	-28.84
223.759	-2.22
223.977	-26.79
224.195	91.99
224.413	81.75
224.631	65.36
224.849	73.56
225.067	34.64
225.285	-32.94
225.503	38.74
225.721	3.93
225.939	14.17
226.157	51.03
226.375	38.74
226.592	-8.36
226.81	5.97
227.028	28.5
227.246	34.64
227.464	-10.41
227.682	-2.22
227.9	-22.7
228.117	46.93
228.335	24.4
228.553	53.08
228.771	-10.41
228.989	63.32
229.206	5.97
229.424	1.88
229.642	32.6
229.86	10.07
230.077	-0.17
230.295	-10.41
230.513	-0.17
230.731	-10.41
230.948	22.36
231.166	-37.03
231.384	18.26
231.601	30.55
231.819	46.93
232.037	-28.84
232.254	-65.71
232.472	57.17
232.689	75.6
232.907	57.17
233.125	59.22
233.342	46.93
233.56	-32.94
233.777	-51.37
233.995	18.26
234.213	-22.7
234.43	-8.36
234.648	-18.6
234.865	20.31
235.083	-4.27
235.3	40.79
235.518	-24.75
235.735	55.12
235.953	69.46
236.17	26.45
236.388	-22.7
236.605	57.17
236.822	12.12
237.04	18.26
237.257	-37.03
237.475	-22.7
237.692	-47.27
237.909	-32.94
238.127	-16.55
238.344	28.5
238.562	44.88
238.779	-14.51
238.996	-51.37
239.214	-4.27
239.431	22.36
239.648	-6.31
239.865	-41.13
240.083	30.55
240.3	16.21
240.517	-8.36
240.735	-2.22
240.952	-10.41
241.169	63.32
241.386	65.36
241.603	79.7
241.821	24.4
242.038	1.88
242.255	-30.89
242.472	8.02
242.689	55.12
242.907	40.79
243.124	5.97
243.341	-59.56
243.558	-16.55
243.775	63.32
243.992	-43.18
244.209	-18.6
244.426	46.93
244.643	-2.22
244.86	-24.75
245.078	34.64
245.295	30.55
245.512	87.89
245.729	-6.31
245.946	20.31
246.163	8.02
246.38	-18.6
246.597	3.93
246.814	36.69
247.031	42.84
247.248	-4.27
247.464	1.88
247.681	-14.51
247.898	-45.23
248.115	8.02
248.332	-18.6
248.549	36.69
248.766	-80.04
248.983	12.12
249.2	-0.17
249.417	-34.99
249.633	-43.18
249.85	55.12
250.067	-4.27
250.284	14.17
250.501	65.36
250.717	59.22
250.934	-14.51
251.151	42.84
251.368	22.36
251.585	-30.89
251.801	-4.27
252.018	46.93
252.235	18.26
252.451	26.45
252.668	34.64
252.885	-30.89
253.102	-2.22
253.318	14.17
253.535	-43.18
253.752	24.4
253.968	24.4
254.185	-8.36
254.401	14.17
254.618	-37.03
254.835	-12.46
255.051	89.94
255.268	-16.55
255.484	-16.55
255.701	46.93
255.917	20.31
256.134	22.36
256.351	-20.65
256.567	-8.36
256.784	32.6
257	-18.6
257.217	-14.51
257.433	42.84
257.65	-28.84
257.866	65.36
258.082	28.5
258.299	-28.84
258.515	-14.51
258.732	63.32
258.948	40.79
259.165	-45.23
259.381	3.93
259.597	-4.27
259.814	16.21
260.03	-59.56
260.246	57.17
260.463	32.6
260.679	46.93
260.895	14.17
261.112	14.17
261.328	38.74
261.544	18.26
261.761	55.12
261.977	-4.27
262.193	-26.79
262.409	-0.17
262.626	12.12
262.842	10.07
263.058	14.17
263.274	65.36
263.49	3.93
263.707	5.97
263.923	-12.46
264.139	-34.99
264.355	-22.7
264.571	14.17
264.787	44.88
265.004	10.07
265.22	1.88
265.436	8.02
265.652	-4.27
265.868	51.03
266.084	79.7
266.3	10.07
266.516	-4.27
266.732	22.36
266.948	-37.03
267.164	34.64
267.38	77.65
267.596	5.97
267.812	61.27
268.028	-18.6
268.244	-51.37
268.46	-32.94
268.676	-12.46
268.892	30.55
269.108	-22.7
269.324	-12.46
269.54	24.4
269.756	5.97
269.972	-16.55
270.188	48.98
270.403	-4.27
270.619	24.4
270.835	3.93
271.051	38.74
271.267	24.4
271.483	28.5
271.698	-2.22
271.914	69.46
272.13	12.12
272.346	104.28
272.562	63.32
272.777	1.88
272.993	63.32
273.209	-6.31
273.425	38.74
273.64	-37.03
273.856	46.93
274.072	3.93
274.287	-0.17
274.503	10.07
274.719	-32.94
274.934	28.5
275.15	-24.75
275.366	-10.41
275.581	16.21
275.797	16.21
276.012	-16.55
276.228	20.31
276.444	-49.32
276.659	-12.46
276.875	59.22
277.09	63.32
277.306	-24.75
277.521	-26.79
277.737	59.22
277.952	28.5
278.168	67.41
278.383	63.32
278.599	63.32
278.814	3.93
279.03	1.88
279.245	-26.79
279.461	-12.46
279.676	-16.55
279.892	38.74
280.107	-12.46
280.322	-14.51
280.538	24.4
280.753	-22.7
280.969	-104.62
281.184	18.26
281.399	32.6
281.615	-20.65
281.83	-10.41
282.045	-59.56
282.26	10.07
282.476	-28.84
282.691	89.94
282.906	-32.94
283.122	24.4
283.337	3.93
283.552	44.88
283.767	-10.41
283.983	34.64
284.198	-34.99
284.413	42.84
284.628	89.94
284.843	36.69
285.058	-26.79
285.274	-18.6
285.489	-51.37
285.704	48.98
285.919	10.07
286.134	26.45
286.349	-73.9
286.564	22.36
286.779	10.07
286.995	65.36
287.21	69.46
287.425	-0.17
287.64	-69.8
287.855	110.42
288.07	-49.32
288.285	63.32
288.5	51.03
288.715	112.47
288.93	-24.75
289.145	-34.99
289.36	-8.36
289.575	-34.99
289.79	-12.46
290.004	65.36
290.219	85.84
290.434	24.4
290.649	55.12
290.864	-10.41
291.079	26.45
291.294	1.88
291.509	40.79
291.724	30.55
291.938	10.07
292.153	63.32
292.368	12.12
292.583	61.27
292.798	40.79
293.012	38.74
293.227	-6.31
293.442	118.61
293.657	-2.22
293.871	-14.51
294.086	26.45
294.301	-6.31
294.516	5.97
294.73	-59.56
294.945	16.21
295.16	36.69
295.374	38.74
295.589	51.03
295.804	-2.22
296.018	-8.36
296.233	-2.22
296.447	44.88
296.662	44.88
296.877	20.31
297.091	1.88
297.306	32.6
297.52	32.6
297.735	71.51
297.949	69.46
298.164	55.12
298.378	-24.75
298.593	22.36
298.807	-6.31
299.022	24.4
299.236	57.17
299.451	22.36
299.665	-4.27
299.88	57.17
300.094	-2.22
300.309	79.7
300.523	30.55
300.737	65.36
300.952	10.07
301.166	30.55
301.381	32.6
301.595	5.97
301.809	-59.56
302.024	1.88
302.238	-57.51
302.452	53.08
302.667	-37.03
302.881	-0.17
303.095	10.07
303.309	-8.36
303.524	-6.31
303.738	-55.47
303.952	-45.23
304.166	116.56
304.381	-0.17
304.595	102.23
304.809	-100.52
305.023	-22.7
305.237	32.6
305.452	-30.89
305.666	44.88
305.88	42.84
306.094	5.97
306.308	100.18
306.522	24.4
306.736	-22.7
306.95	-39.08
307.164	-43.18
307.379	18.26
307.593	22.36
307.807	1.88
308.021	79.7
308.235	55.12
308.449	8.02
308.663	-57.51
308.877	-4.27
309.091	69.46
309.305	-32.94
309.519	3.93
309.733	10.07
309.947	46.93
310.161	-47.27
310.374	-2.22
310.588	-6.31
310.802	-0.17
311.016	22.36
311.23	3.93
311.444	44.88
311.658	46.93
311.872	40.79
312.085	8.02
312.299	1.88
312.513	46.93
312.727	79.7
312.941	-24.75
313.154	8.02
313.368	-84.14
313.582	57.17
313.796	48.98
314.009	5.97
314.223	46.93
314.437	104.28
314.651	-37.03
314.864	-116.9
315.078	-30.89
315.292	-32.94
315.505	-18.6
315.719	8.02
315.933	-4.27
316.146	1.88
316.36	83.8
316.573	-71.85
316.787	38.74
317.001	30.55
317.214	12.12
317.428	67.41
317.641	18.26
317.855	94.04
318.068	-4.27
318.282	30.55
318.495	-18.6
318.709	36.69
318.922	18.26
319.136	-34.99
319.349	-2.22
319.563	42.84
319.776	-57.51
319.99	-34.99
320.203	-26.79
320.417	-32.94
320.63	-104.62
320.843	38.74
321.057	26.45
321.27	24.4
321.483	-6.31
321.697	63.32
321.91	-2.22
322.124	40.79
322.337	-10.41
322.55	-39.08
322.763	-2.22
322.977	16.21
323.19	46.93
323.403	8.02
323.617	22.36
323.83	28.5
324.043	-49.32
324.256	40.79
324.469	46.93
324.683	3.93
324.896	30.55
325.109	38.74
325.322	-32.94
325.535	55.12
325.748	46.93
325.962	1.88
326.175	5.97
326.388	-12.46
326.601	34.64
326.814	12.12
327.027	30.55
327.24	20.31
327.453	-45.23
327.666	-24.75
327.879	-20.65
328.092	89.94
328.305	-14.51
328.518	24.4
328.731	10.07
328.944	-2.22
329.157	-12.46
329.37	-0.17
329.583	38.74
329.796	-0.17
330.009	-20.65
330.222	24.4
330.435	34.64
330.648	63.32
330.861	53.08
331.073	-55.47
331.286	63.32
331.499	5.97
331.712	-14.51
331.925	1.88
332.138	8.02
332.35	42.84
332.563	-16.55
332.776	26.45
332.989	53.08
333.202	10.07
333.414	3.93
333.627	-8.36
333.84	77.65
334.053	-49.32
334.265	-22.7
334.478	16.21
334.691	-6.31
334.903	87.89
335.116	16.21
335.329	28.5
335.541	-2.22
335.754	89.94
335.966	14.17
336.179	44.88
336.392	-18.6
336.604	85.84
336.817	16.21
337.029	28.5
337.242	77.65
337.454	132.95
337.667	-20.65
337.88	-20.65
338.092	34.64
338.305	-8.36
338.517	3.93
338.729	-2.22
338.942	61.27
339.154	18.26
339.367	-10.41
339.579	-14.51
339.792	42.84
340.004	46.93
340.217	55.12
340.429	12.12
340.641	-30.89
340.854	32.6
341.066	-22.7
341.278	20.31
341.491	-6.31
341.703	5.97
341.915	26.45
342.128	18.26
342.34	-16.55
342.552	-4.27
342.764	57.17
342.977	1.88
343.189	14.17
343.401	-0.17
343.613	-4.27
343.826	16.21
344.038	-18.6
344.25	63.32
344.462	-8.36
344.674	22.36
344.886	40.79
345.099	63.32
345.311	10.07
345.523	63.32
345.735	-10.41
345.947	38.74
346.159	67.41
346.371	46.93
346.583	3.93
346.795	30.55
347.007	-14.51
347.219	26.45
347.431	-34.99
347.643	118.61
347.855	-0.17
348.067	-2.22
348.279	61.27
348.491	98.13
348.703	10.07
348.915	-4.27
349.127	14.17
349.339	40.79
349.551	-28.84
349.763	16.21
349.975	77.65
350.187	16.21
350.399	3.93
350.61	55.12
350.822	-6.31
351.034	-39.08
351.246	-6.31
351.458	46.93
351.669	48.98
351.881	55.12
352.093	16.21
352.305	-16.55
352.517	-51.37
352.728	85.84
352.94	1.88
353.152	5.97
353.363	-2.22
353.575	12.12
353.787	3.93
353.999	20.31
354.21	20.31
354.422	-32.94
354.633	30.55
354.845	-2.22
355.057	-12.46
355.268	30.55
355.48	-69.8
355.692	30.55
355.903	-10.41
356.115	36.69
356.326	16.21
356.538	63.32
356.749	87.89
356.961	16.21
357.172	57.17
357.384	-49.32
357.595	48.98
357.807	30.55
358.018	1.88
358.23	-26.79
358.441	69.46
358.653	-26.79
358.864	-41.13
359.075	32.6
359.287	28.5
359.498	75.6
359.709	5.97
359.921	-20.65
360.132	79.7
360.344	91.99
360.555	16.21
360.766	14.17
360.977	-45.23
361.189	22.36
361.4	-51.37
361.611	96.08
361.823	-6.31
362.034	46.93
362.245	8.02
362.456	44.88
362.667	14.17
362.879	53.08
363.09	18.26
363.301	-2.22
363.512	-18.6
363.723	75.6
363.935	5.97
364.146	-0.17
364.357	12.12
364.568	36.69
364.779	32.6
364.99	57.17
365.201	-80.04
365.412	51.03
365.623	14.17
365.834	38.74
366.045	-10.41
366.256	48.98
366.467	-12.46
366.678	-20.65
366.889	-8.36
367.1	36.69
367.311	26.45
367.522	36.69
367.733	-14.51
367.944	5.97
368.155	5.97
368.366	26.45
368.577	14.17
368.788	110.42
368.999	-2.22
369.209	-6.31
369.42	69.46
369.631	38.74
369.842	5.97
370.053	40.79
370.264	51.03
370.474	-2.22
370.685	-45.23
370.896	-0.17
371.107	-0.17
371.317	20.31
371.528	30.55
371.739	40.79
371.95	51.03
372.16	30.55
372.371	16.21
372.582	40.79
372.792	-8.36
373.003	-26.79
373.214	83.8
373.424	48.98
373.635	-2.22
373.846	61.27
374.056	69.46
374.267	61.27
374.477	-18.6
374.688	42.84
374.898	-53.42
375.109	5.97
375.319	12.12
375.53	38.74
375.74	-26.79
375.951	-20.65
376.161	12.12
376.372	51.03
376.582	30.55
376.793	28.5
377.003	83.8
377.214	63.32
377.424	16.21
377.635	36.69
377.845	-0.17
378.055	30.55
378.266	40.79
378.476	-45.23
378.686	14.17
378.897	51.03
379.107	8.02
379.317	32.6
379.528	34.64
379.738	106.32
379.948	63.32
380.158	30.55
380.369	79.7
380.579	18.26
380.789	55.12
380.999	57.17
381.21	-26.79
381.42	8.02
381.63	22.36
381.84	57.17
382.05	32.6
382.261	-22.7
382.471	32.6
382.681	-26.79
382.891	34.64
383.101	34.64
383.311	-16.55
383.521	55.12
383.731	-32.94
383.941	48.98
384.151	-4.27
384.361	38.74
384.571	30.55
384.781	-37.03
384.991	61.27
385.201	77.65
385.411	73.56
385.621	8.02
385.831	55.12
386.041	10.07
386.251	38.74
386.461	34.64
386.671	-6.31
386.881	-30.89
387.091	32.6
387.301	36.69
387.511	-16.55
387.72	55.12
387.93	18.26
388.14	-6.31
388.35	30.55
388.56	98.13
388.769	8.02
388.979	57.17
389.189	51.03
389.399	63.32
389.609	89.94
389.818	91.99
390.028	30.55
390.238	36.69
390.447	14.17
390.657	26.45
390.867	14.17
391.076	5.97
391.286	-22.7
391.496	12.12
391.705	55.12
391.915	34.64
392.125	36.69
392.334	42.84
392.544	-24.75
392.753	65.36
392.963	51.03
393.172	42.84
393.382	-57.51
393.591	46.93
393.801	20.31
394.01	71.51
394.22	10.07
394.429	46.93
394.639	18.26
394.848	63.32
395.058	69.46
395.267	16.21
395.477	-80.04
395.686	100.18
395.895	71.51
396.105	46.93
396.314	48.98
396.524	28.5
396.733	96.08
396.942	75.6
397.152	30.55
397.361	79.7
397.57	53.08
397.78	73.56
397.989	61.27
398.198	75.6
398.407	22.36
398.617	32.6
398.826	59.22
399.035	34.64
399.244	81.75
399.453	96.08
399.663	22.36
399.872	89.94
400.081	51.03
400.29	96.08
400.499	85.84
400.708	110.42
400.917	3.93
401.127	157.52
401.336	12.12
401.545	67.41
401.754	118.61
401.963	40.79
402.172	-4.27
402.381	16.21
402.59	30.55
402.799	126.8
403.008	85.84
403.217	85.84
403.426	65.36
403.635	83.8
403.844	71.51
404.053	46.93
404.262	63.32
404.471	163.67
404.68	67.41
404.888	65.36
405.097	202.58
405.306	139.09
405.515	143.19
405.724	94.04
405.933	91.99
406.142	112.47
406.35	128.85
406.559	110.42
406.768	61.27
406.977	118.61
407.185	104.28
407.394	155.47
407.603	135
407.812	169.81
408.02	169.81
408.229	190.29
408.438	114.52
408.646	128.85
408.855	57.17
409.064	94.04
409.272	122.71
409.481	188.24
409.69	165.71
409.898	171.86
410.107	120.66
410.315	135
410.524	96.08
410.733	126.8
410.941	173.91
411.15	251.73
411.358	225.11
411.567	188.24
411.775	184.15
411.984	202.58
412.192	210.77
412.401	341.84
412.609	347.98
412.818	296.78
413.026	264.02
413.234	261.97
413.443	245.59
413.651	319.31
413.86	319.31
414.068	329.55
414.276	411.47
414.485	380.75
414.693	401.23
414.901	431.95
415.11	405.33
415.318	415.57
415.526	483.15
415.734	452.43
415.943	517.97
416.151	466.77
416.359	522.06
416.567	450.38
416.776	513.87
416.984	622.41
417.192	548.68
417.4	599.88
417.608	655.18
417.817	663.37
418.025	636.75
418.233	718.67
418.441	642.89
418.649	712.52
418.857	761.67
419.065	765.77
419.273	786.25
419.481	767.82
419.689	835.4
419.897	851.78
420.105	902.98
420.313	839.5
420.521	976.71
420.729	907.08
420.937	966.47
421.145	1017.67
421.353	1079.11
421.561	1140.55
421.769	1122.12
421.977	1300.29
422.185	1277.76
422.393	1210.18
422.601	1398.59
422.809	1300.29
423.017	1298.24
423.224	1431.36
423.432	1517.37
423.64	1464.13
423.848	1605.44
424.056	1603.39
424.263	1650.49
424.471	1799.99
424.679	1705.79
424.887	1777.47
425.094	1951.54
425.302	1939.26
425.51	1877.82
425.718	2002.74
425.925	2002.74
426.133	2172.72
426.341	2182.96
426.548	2234.16
426.756	2285.36
426.964	2285.36
427.171	2457.39
427.379	2508.59
427.586	2635.57
427.794	2596.65
428.001	2735.92
428.209	2795.31
428.417	2780.97
428.624	3112.74
428.832	3053.35
429.039	3051.3
429.247	3059.49
429.454	3419.94
429.662	3690.27
429.869	3170.08
430.076	3675.93
430.284	3329.83
430.491	3784.48
430.699	3768.09
430.906	3755.8
431.114	3966.74
431.321	4001.56
431.528	4151.06
431.736	4400.91
431.943	4697.87
432.15	4558.61
432.358	4548.37
432.565	4882.19
432.772	4691.73
432.979	4773.64
433.187	5097.22
433.394	5097.22
433.601	5394.18
433.808	5480.19
434.016	5302.02
434.223	5564.16
434.43	5988.09
434.637	5801.72
434.844	6172.41
435.052	6299.38
435.259	6469.36
435.466	6309.62
435.673	6297.33
435.88	6786.8
436.087	7241.45
436.294	7104.23
436.501	6979.31
436.708	7016.17
436.915	7370.47
437.122	7552.74
437.329	7507.68
437.537	7714.53
437.743	7984.86
437.95	7913.18
438.157	8208.09
438.364	8687.31
438.571	8541.91
438.778	8548.05
438.985	9379.53
439.192	9008.84
439.399	9240.26
439.606	9187.02
439.813	9643.71
440.02	10333.88
440.227	10032.83
440.433	9932.48
440.64	10327.74
440.847	10331.83
441.054	10411.7
441.261	11441.83
441.467	11095.72
441.674	11447.97
441.881	11572.9
442.088	11710.11
442.294	11486.89
442.501	11949.73
442.708	12068.51
442.914	12699.28
443.121	13164.17
443.328	12760.72
443.534	13530.76
443.741	13409.93
443.948	13262.47
444.154	13911.68
444.361	14204.54
444.568	14161.53
444.774	14087.81
444.981	14386.81
445.187	14745.2
445.394	15441.51
445.6	15199.85
445.807	16772.69
446.013	16037.47
446.22	16338.52
446.426	16873.04
446.633	17061.46
446.839	17653.32
447.046	16887.38
447.252	17839.69
447.459	17831.49
447.665	17835.59
447.871	18775.61
448.078	19424.81
448.284	18763.32
448.491	19303.98
448.697	20006.44
448.903	20061.73
449.11	20532.76
449.316	19834.41
449.522	20553.24
449.728	21038.61
449.935	21231.12
450.141	21370.38
450.347	21478.93
450.553	21034.52
450.76	21282.32
450.966	22091.27
451.172	21687.82
451.378	22580.73
451.584	21921.29
451.791	22590.97
451.997	22416.9
452.203	22930.94
452.409	22846.97
452.615	22724.09
452.821	21728.78
453.027	21816.84
453.233	23039.48
453.44	21933.57
453.646	22146.56
453.852	22445.57
454.058	22631.93
454.264	22093.32
454.47	22246.91
454.676	21558.8
454.882	22715.9
455.088	20784.66
455.294	21296.66
455.5	21536.27
455.705	21552.65
455.911	20590.11
456.117	20155.94
456.323	20108.83
456.529	19177.01
456.735	20125.22
456.941	19439.15
457.147	19164.72
457.352	18480.7
457.558	18288.19
457.764	18466.36
457.97	18093.63
458.176	17524.3
458.381	17679.94
458.587	16674.39
458.793	16895.57
458.999	15853.16
459.204	16969.3
459.41	16465.5
459.616	15335.02
459.821	15474.28
460.027	15472.23
460.233	15050.35
460.438	14216.83
460.644	14347.9
460.85	13919.87
461.055	13559.43
461.261	13688.45
461.466	12607.12
461.672	12314.27
461.878	13239.95
462.083	12328.6
462.289	11857.57
462.494	11845.28
462.7	11185.83
462.905	11038.38
463.111	11472.55
463.316	11359.91
463.522	11204.27
463.727	11187.88
463.932	11099.82
464.138	11333.29
464.343	11030.19
464.549	10872.5
464.754	11179.69
464.959	11024.05
465.165	11065
465.37	10559.16
465.575	10282.68
465.781	10675.89
465.986	11015.85
466.191	10321.59
466.397	10192.57
466.602	9658.05
466.807	10112.7
467.012	10065.6
467.218	10032.83
467.423	9965.25
467.628	9877.18
467.833	10182.33
468.038	10000.06
468.244	9623.23
468.449	10172.09
468.654	9875.13
468.859	9746.11
469.064	9594.56
469.269	8974.03
469.474	9352.9
469.679	9524.93
469.885	9287.37
470.09	9324.23
470.295	9270.98
470.5	8982.22
470.705	9021.13
470.91	8832.72
471.115	8847.05
471.32	8978.12
471.525	9176.78
471.73	8845.01
471.935	8619.73
472.139	8259.29
472.344	8726.22
472.549	8361.69
472.754	8228.57
472.959	8015.58
473.164	8019.67
473.369	7984.86
473.574	8199.9
473.778	8027.87
473.983	8083.16
474.188	8142.55
474.393	7589.6
474.598	7741.15
474.802	7603.94
475.007	7429.86
475.212	7730.91
475.417	7331.56
475.621	7374.56
475.826	7347.94
476.031	7073.51
476.235	7081.71
476.44	7071.47
476.645	6897.39
476.849	7083.75
477.054	6991.59
477.259	6874.86
477.463	6942.44
477.668	6690.54
477.872	6717.17
478.077	6645.49
478.282	6424.31
478.486	6477.55
478.691	6409.97
478.895	6510.32
479.1	6321.91
479.304	6319.86
479.509	6094.58
479.713	6285.05
479.918	6037.24
480.122	6125.3
480.326	6196.98
480.531	6027
480.735	6076.15
480.94	6080.25
481.144	6342.39
481.348	5867.26
481.553	5930.75
481.757	5768.96
481.961	5930.75
482.166	6051.58
482.37	5908.22
482.574	5928.7
482.778	5826.3
482.983	6029.05
483.187	5926.65
483.391	5918.46
483.595	5906.17
483.8	5865.21
484.004	5959.42
484.208	5973.75
484.412	5975.8
484.616	5951.23
484.821	5920.51
485.025	5658.37
485.229	5934.84
485.433	5820.16
485.637	5957.37
485.841	5912.32
486.045	5951.23
486.249	5820.16
486.453	6053.62
486.657	5998.33
486.861	5877.5
487.065	5865.21
487.269	5850.88
487.473	5834.49
487.677	6067.96
487.881	6031.1
488.085	6070.01
488.289	5955.32
488.493	5900.03
488.697	6125.3
488.901	5969.66
489.105	5996.28
489.309	5981.95
489.512	5967.61
489.716	5891.84
489.92	6108.92
490.124	5873.4
490.328	6074.1
490.531	6059.77
490.735	6092.54
490.939	6059.77
491.143	6084.34
491.346	6125.3
491.55	6166.26
491.754	6092.54
491.958	6141.69
492.161	6086.39
492.365	6332.15
492.569	6076.15
492.772	6348.53
492.976	6317.81
493.18	6369.01
493.383	6305.53
493.587	6457.07
493.79	6579.95
493.994	6510.32
494.197	6504.18
494.401	6754.03
494.605	6620.91
494.808	6764.27
495.012	6797.04
495.215	6840.04
495.419	6919.92
495.622	6817.52
495.825	6987.5
496.029	6958.83
496.232	7173.86
496.436	6913.77
496.639	7341.8
496.843	7370.47
497.046	7429.86
497.249	7468.77
497.453	7554.79
497.656	7603.94
497.859	7671.52
498.063	7782.11
498.266	7919.32
498.469	7855.84
498.673	8034.01
498.876	8199.9
499.079	8275.67
499.282	8224.47
499.485	8265.43
499.689	8187.61
499.892	8511.19
500.095	8658.64
500.298	8851.15
500.501	8593.11
500.705	8767.18
500.908	9004.75
501.111	9297.61
501.314	9168.59
501.517	9209.54
501.72	9500.36
501.923	9281.22
502.126	9809.6
502.329	9860.8
502.532	9846.46
502.735	9944.77
502.938	10190.52
503.141	10176.19
503.344	10524.34
503.547	10307.26
503.75	10546.87
503.953	10790.58
504.156	10772.14
504.359	10987.18
504.562	11120.3
504.765	11110.06
504.968	11292.33
505.17	11443.88
505.373	11636.39
505.576	11851.42
505.779	11847.33
505.982	11808.42
506.185	12172.96
506.387	12179.1
506.59	12277.4
506.793	12709.52
506.996	12746.39
507.198	13190.8
507.401	12861.07
507.604	13229.71
507.807	13379.21
508.009	13510.28
508.212	13469.32
508.415	13858.43
508.617	13940.35
508.82	14012.03
509.022	14171.77
509.225	14372.47
509.428	14607.99
509.63	14466.68
509.833	14720.63
510.035	15189.61
510.238	15021.68
510.44	15156.85
510.643	15658.6
510.845	15885.92
511.048	15545.96
511.25	16195.17
511.453	16076.38
511.655	16627.29
511.858	16524.89
512.06	16553.56
512.262	16918.1
512.465	16975.44
512.667	17274.45
512.87	17356.36
513.072	17423.95
513.274	17634.89
513.477	18122.3
513.679	18161.22
513.881	18415.16
514.084	18550.33
514.286	18794.04
514.488	18638.39
514.69	19211.82
514.893	19514.92
515.095	19576.36
515.297	19750.44
515.499	19729.96
515.701	20061.73
515.904	20418.08
516.106	20438.56
516.308	20672.03
516.51	21100.05
516.712	20960.79
516.914	21579.28
517.116	21904.9
517.318	21706.25
517.52	21691.91
517.722	21964.29
517.925	22124.04
518.127	22633.98
518.329	22971.89
518.531	22636.03
518.733	23293.43
518.935	23156.21
519.136	23530.99
519.338	23526.89
519.54	23971.3
519.742	24215.01
519.944	24364.51
520.146	24569.31
520.348	24608.22
520.55	25097.69
520.752	25028.06
520.954	25494.99
521.155	25210.32
521.357	25871.82
521.559	25669.07
521.761	26197.45
521.963	26168.77
522.164	26469.83
522.366	26783.16
522.568	26809.79
522.77	27106.74
522.971	27207.09
523.173	27028.92
523.375	27430.32
523.576	27637.17
523.778	27467.19
523.98	27807.15
524.181	28059.05
524.383	28102.06
524.584	28683.68
524.786	28751.26
524.988	28800.41
525.189	28925.34
525.391	28816.8
525.592	29298.07
525.794	29351.32
525.995	29738.38
526.197	29545.87
526.398	29298.07
526.6	29744.53
526.801	30131.59
527.003	30250.38
527.204	29828.49
527.406	30647.68
527.607	30449.03
527.808	30481.8
528.01	30268.81
528.211	30580.1
528.412	31217.02
528.614	30971.26
528.815	31145.34
529.016	31636.85
529.218	31010.17
529.419	31233.4
529.62	31069.56
529.822	31546.74
530.023	31606.13
530.224	31466.87
530.425	31421.81
530.626	31065.47
530.828	31251.83
531.029	31735.15
531.23	31602.04
531.431	31458.68
531.632	31528.31
531.833	31815.02
532.035	31389.05
532.236	32068.97
532.437	31913.33
532.638	31919.47
532.839	31964.53
533.04	32343.4
533.241	31735.15
533.442	32490.85
533.643	32085.36
533.844	32220.52
534.045	32077.16
534.246	31884.65
534.447	32265.58
534.648	32028.01
534.849	32298.34
535.05	32339.3
535.251	32159.08
535.451	32228.71
535.652	32279.91
535.853	32132.46
536.054	32497
536.255	32425.32
536.456	32146.79
536.657	32613.73
536.857	32210.28
537.058	32036.2
537.259	32621.92
537.46	32232.81
537.66	32449.89
537.861	32617.83
538.062	32386.41
538.263	32593.25
538.463	32163.18
538.664	32011.63
538.865	32005.48
539.065	32470.37
539.266	32259.43
539.466	32476.52
539.667	32048.49
539.868	32425.32
540.068	32431.46
540.269	32034.16
540.469	32654.69
540.67	32028.01
540.87	31937.9
541.071	32521.57
541.271	32175.47
541.472	32077.16
541.672	32257.39
541.873	32277.86
542.073	31948.14
542.274	32515.43
542.474	32173.42
542.675	32095.6
542.875	32388.46
543.075	32308.58
543.276	31878.51
543.476	32845.15
543.676	32077.16
543.877	32327.02
544.077	32193.9
544.277	32111.98
544.478	32312.68
544.678	32417.13
544.878	32669.03
545.078	32038.25
545.279	31944.05
545.479	32114.03
545.679	32267.62
545.879	32238.95
546.079	32318.82
546.28	32093.55
546.48	32048.49
546.68	32263.53
546.88	31997.29
547.08	32363.88
547.28	31978.86
547.48	31671.67
547.68	32226.67
547.88	31964.53
548.081	32220.52
548.281	31993.2
548.481	31880.56
548.681	32142.7
548.881	32376.17
549.081	32161.13
549.28	31708.53
549.48	32374.12
549.68	31999.34
549.88	32361.83
550.08	31944.05
550.28	31997.29
550.48	31919.47
550.68	31923.57
550.88	31991.15
551.08	31864.18
551.279	31794.54
551.479	31942
551.679	31669.62
551.879	32081.26
552.079	31806.83
552.278	31812.98
552.478	31933.81
552.678	31759.73
552.878	31872.37
553.077	31855.98
553.277	31409.53
553.477	31819.12
553.676	31929.71
553.876	31823.22
554.076	31653.23
554.275	31688.05
554.475	31477.11
554.674	32173.42
554.874	31743.34
555.074	31618.42
555.273	31354.23
555.473	31405.43
555.672	31466.87
555.872	31602.04
556.071	31843.7
556.271	31784.3
556.47	31337.85
556.67	31104.38
556.869	31274.36
557.068	31507.83
557.268	31192.44
557.467	31489.4
557.667	30987.64
557.866	31305.08
558.065	31374.71
558.265	30788.99
558.464	31044.99
558.663	31634.8
558.863	30836.09
559.062	31249.78
559.261	30901.63
559.461	31155.58
559.66	30815.62
559.859	30881.15
560.058	30655.87
560.258	30870.91
560.457	30397.83
560.656	30909.82
560.855	30727.55
561.054	30567.81
561.253	30502.28
561.453	30926.21
561.652	30631.3
561.851	30840.19
562.05	30569.86
562.249	30320.01
562.448	30815.62
562.647	30696.83
562.846	30274.95
563.045	30416.26
563.244	30150.03
563.443	30242.18
563.642	29877.65
563.841	30037.39
564.04	30023.05
564.239	30264.71
564.438	30039.43
564.637	29998.48
564.836	29781.39
565.035	29599.12
565.234	29504.92
565.432	29572.5
565.631	29535.63
565.83	29541.78
566.029	29164.95
566.228	29234.58
566.427	29486.48
566.625	29083.03
566.824	29193.62
567.023	29420.95
567.222	28648.86
567.42	29357.46
567.619	29056.41
567.818	29099.42
568.016	28849.57
568.215	29181.34
568.414	28698.02
568.612	28999.07
568.811	28478.88
569.01	28784.03
569.208	28476.83
569.407	28143.02
569.605	28210.6
569.804	28689.82
570.002	27835.82
570.201	28171.69
570.4	28079.53
570.598	27792.81
570.797	27792.81
570.995	27850.16
571.193	27604.4
571.392	28257.7
571.59	27401.65
571.789	27770.29
571.987	27526.58
572.186	27409.84
572.384	27549.1
572.582	27784.62
572.781	27452.85
572.979	26959.29
573.177	27678.13
573.376	27043.26
573.574	26676.67
573.772	27110.84
573.971	26801.6
574.169	26682.81
574.367	26572.22
574.565	26725.82
574.763	26680.77
574.962	26437.06
575.16	26330.56
575.358	26181.06
575.556	26441.15
575.754	26291.65
575.952	26049.99
576.151	26228.17
576.349	25857.48
576.547	25902.54
576.745	26172.87
576.943	26193.35
577.141	26052.04
577.339	25957.83
577.537	25650.64
577.735	25726.41
577.933	25468.37
578.131	25482.7
578.329	25544.14
578.527	25351.63
578.725	25525.71
578.923	25374.16
579.121	25165.27
579.319	25253.33
579.516	25540.05
579.714	24950.23
579.912	25136.6
580.11	25083.35
580.308	24798.68
580.506	24772.06
580.704	24704.48
580.901	24677.85
581.099	24671.71
581.297	24505.82
581.495	24684
581.692	24589.79
581.89	24249.83
582.088	24255.97
582.285	24294.88
582.483	24278.5
582.681	24530.4
582.878	24192.48
583.076	24141.28
583.274	24176.1
583.471	23576.05
583.669	23916.01
583.866	23530.99
584.064	24065.51
584.262	23432.69
584.459	23426.54
584.657	23582.19
584.854	23619.05
585.052	23086.58
585.249	23295.47
585.447	23516.65
585.644	22900.22
585.841	23119.35
586.039	23049.72
586.236	22990.33
586.434	22812.15
586.631	22947.32
586.828	22588.92
587.026	22541.82
587.223	22568.44
587.42	22595.07
587.618	22533.63
587.815	22185.47
588.012	22314.5
588.21	22431.23
588.407	22279.68
588.604	22009.35
588.801	22074.88
588.999	22187.52
589.196	21786.12
589.393	21976.58
589.59	21870.09
589.787	21573.13
589.984	21640.72
590.182	21712.39
590.379	21599.76
590.576	21423.63
590.773	21726.73
590.97	21407.25
591.167	21640.72
591.364	21044.76
591.561	21409.29
591.758	21175.83
591.955	21095.96
592.152	21313.04
592.349	20649.5
592.546	21116.44
592.743	20819.48
592.94	20561.44
593.137	20706.84
593.334	20858.39
593.531	20538.91
593.727	20815.38
593.924	20692.51
594.121	20434.46
594.318	20465.18
594.515	20170.27
594.712	20715.03
594.908	20303.39
595.105	20297.25
595.302	19990.05
595.499	20241.95
595.696	19969.57
595.892	19856.93
596.089	20121.12
596.286	20137.51
596.482	19850.79
596.679	19834.41
596.876	19727.91
597.072	19645.99
597.269	19621.42
597.466	19459.63
597.662	19342.89
597.859	19439.15
598.055	19191.34
598.252	19340.85
598.448	19101.23
598.645	19412.53
598.841	19031.6
599.038	18894.39
599.234	19105.33
599.431	18757.18
599.627	18878.01
599.824	19039.79
600.02	18728.5
600.217	18959.92
600.413	18773.56
600.609	18314.81
600.806	18634.3
601.002	18658.87
601.198	18484.8
601.395	18302.53
601.591	18343.49
601.787	18202.18
601.984	18024
602.18	18269.76
602.376	18021.95
602.572	17819.21
602.769	17962.56
602.965	17946.18
603.161	17870.4
603.357	17659.46
603.553	17913.41
603.75	17679.94
603.946	17593.93
604.142	17745.48
604.338	17382.99
604.534	17573.45
604.73	17446.48
604.926	17387.08
605.122	17180.24
605.318	17378.89
605.514	17133.14
605.71	17245.77
605.906	17327.69
606.102	17296.97
606.298	16983.63
606.494	17020.5
606.69	17016.4
606.886	17159.76
607.082	17004.11
607.278	16858.71
607.474	16502.36
607.67	16684.63
607.866	16516.7
608.062	16684.63
608.257	16692.82
608.453	16801.36
608.649	16434.78
608.845	16291.42
609.041	16434.78
609.236	16402.01
609.432	16217.69
609.628	16467.55
609.824	16168.54
610.019	16236.13
610.215	16242.27
610.411	16168.54
610.606	16168.54
610.802	16277.08
610.998	16229.98
611.193	15908.45
611.389	16189.02
611.584	15947.36
611.78	16066.14
611.976	15836.77
612.171	16010.85
612.367	15906.4
612.562	15482.47
612.758	15750.76
612.953	15535.72
613.149	15683.17
613.344	15752.8
613.539	15701.61
613.735	15580.78
613.93	15738.47
614.126	15539.82
614.321	15689.32
614.517	15550.06
614.712	15427.18
614.907	15384.17
615.103	15357.55
615.298	15218.29
615.493	15375.98
615.688	15105.65
615.884	15310.44
616.079	15103.6
616.274	15160.94
616.47	15109.74
616.665	15150.7
616.86	15013.49
617.055	14923.38
617.25	14966.38
617.445	15007.34
617.641	14694.01
617.836	14855.79
618.031	14612.09
618.226	14906.99
618.421	14579.32
618.616	14825.08
618.811	14399.1
619.006	14753.4
619.201	14272.12
619.396	14562.94
619.591	14247.55
619.786	14556.79
619.981	14083.71
620.176	13991.55
620.371	14294.65
620.566	14018.18
620.761	13985.41
620.956	13921.92
621.151	13975.17
621.346	13844.1
621.541	13858.43
621.735	13612.68
621.93	13676.16
622.125	13612.68
622.32	13368.97
622.515	13508.23
622.709	13543.05
622.904	13223.56
623.099	13317.77
623.294	13260.43
623.488	12977.81
623.683	13172.36
623.878	12725.91
624.072	12822.16
624.267	12854.93
624.462	12881.55
624.656	12705.43
624.851	12664.47
625.046	12502.68
625.24	12555.93
625.435	12392.09
625.629	12557.97
625.824	12175
626.018	12244.63
626.213	11902.62
626.407	12119.71
626.602	11988.64
626.796	12207.77
626.991	12000.93
627.185	11703.97
627.38	11761.31
627.574	11916.96
627.768	11562.66
627.963	11648.68
628.157	11447.97
628.352	11562.66
628.546	11357.86
628.74	11478.69
628.935	11482.79
629.129	11351.72
629.323	10962.61
629.517	11140.78
629.712	11179.69
629.906	11065
630.1	10821.3
630.294	10878.64
630.489	10610.36
630.683	10688.18
630.877	10682.03
631.071	10722.99
631.265	10606.26
631.459	10679.99
631.653	10487.48
631.848	10403.51
632.042	10456.76
632.236	10534.58
632.43	10030.78
632.624	10247.86
632.818	10159.8
633.012	10278.58
633.206	10106.56
633.4	9961.15
633.594	10182.33
633.788	10010.3
633.982	10110.65
634.176	9922.24
634.369	9766.59
634.563	9576.13
634.757	9789.12
634.951	9739.97
635.145	9615.04
635.339	9506.5
635.533	9443.01
635.726	9537.22
635.92	9344.71
636.114	9254.6
636.308	9457.35
636.501	9293.51
636.695	9160.39
636.889	9246.41
637.083	9076.43
637.276	9058
637.47	8976.08
637.664	9012.94
637.857	8943.31
638.051	8873.68
638.244	8720.08
638.438	8693.46
638.632	8904.4
638.825	8541.91
639.019	8722.13
639.212	8642.26
639.406	8578.77
639.599	8349.4
639.793	8552.15
639.986	8294.1
640.18	8298.2
640.373	8333.01
640.567	8099.55
640.76	8214.23
640.954	7982.81
641.147	8160.98
641.34	7909.08
641.534	7794.4
641.727	7941.85
641.92	7962.33
642.114	7788.25
642.307	7612.13
642.5	7917.28
642.694	7739.1
642.887	7585.51
643.08	7601.89
643.273	7648.99
643.467	7673.57
643.66	7517.92
643.853	7395.04
644.046	7390.95
644.239	7419.62
644.432	7239.4
644.626	7380.71
644.819	7106.28
645.012	7128.81
645.205	7227.11
645.398	7259.88
645.591	7055.08
645.784	7112.42
645.977	6835.95
646.17	6944.49
646.363	6928.11
646.556	6723.31
646.749	6756.08
646.942	6823.66
647.135	6620.91
647.328	6606.58
647.521	6522.61
647.714	6473.46
647.907	6608.62
648.099	6534.9
648.292	6448.88
648.485	6481.65
648.678	6268.66
648.871	6541.04
649.064	6409.97
649.256	6598.38
649.449	6291.19
649.642	6336.24
649.835	6475.51
650.027	6223.61
650.22	6102.78
650.413	6262.52
650.605	6061.82
650.798	5994.23
650.991	5963.51
651.183	6039.29
651.376	5900.03
651.568	6037.24
651.761	5879.55
651.954	5824.25
652.146	5838.59
652.339	5795.58
652.531	5885.69
652.724	5805.82
652.916	5791.48
653.109	5644.03
653.301	5535.49
653.494	5648.13
653.686	5478.15
653.879	5711.61
654.071	5510.91
654.263	5330.69
654.456	5441.28
654.648	5490.43
654.84	5281.54
655.033	5283.59
655.225	5398.27
655.417	5302.02
655.61	5228.29
655.802	5158.66
655.994	5060.36
656.186	5181.19
656.379	5320.45
656.571	5267.2
656.763	5213.96
656.955	5021.45
657.148	5093.13
657.34	5062.41
657.532	4871.95
657.724	4882.19
657.916	4851.47
658.108	4812.56
658.3	4906.76
658.492	4873.99
658.684	4865.8
658.876	4871.95
659.068	4751.12
659.26	4716.3
659.452	4683.53
659.644	4794.12
659.836	4597.52
660.028	4681.49
660.22	4476.69
660.412	4574.99
660.604	4658.96
660.796	4513.55
660.988	4593.42
661.18	4505.36
661.372	4484.88
661.563	4454.16
661.755	4194.07
661.947	4357.91
662.139	4284.18
662.331	4251.41
662.522	4275.99
662.714	4341.52
662.906	4298.52
663.097	4269.84
663.289	4118.29
663.481	4134.68
663.673	4189.97
663.864	4075.29
664.056	4038.42
664.247	4173.59
664.439	4034.33
664.631	4136.73
664.822	3948.31
665.014	3890.97
665.205	3888.92
665.397	3936.03
665.588	3952.41
665.78	3827.48
665.971	3798.81
666.163	3933.98
666.354	3893.02
666.546	3858.2
666.737	3794.72
666.929	3743.52
667.12	3671.84
667.311	3534.62
667.503	3587.87
667.694	3743.52
667.885	3813.15
668.077	3675.93
668.268	3809.05
668.459	3540.77
668.651	3581.73
668.842	3581.73
669.033	3520.29
669.224	3610.4
669.416	3565.34
669.607	3489.57
669.798	3487.52
669.989	3575.58
670.18	3489.57
670.371	3391.27
670.563	3438.37
670.754	3483.42
670.945	3426.08
671.136	3319.59
671.327	3473.18
671.518	3295.01
671.709	3401.51
671.9	3397.41
672.091	3276.58
672.282	3268.39
672.473	3292.96
672.664	3256.1
672.855	3276.58
673.046	3297.06
673.237	3213.09
673.428	3100.45
673.619	3354.4
673.809	3147.56
674	3186.47
674.191	3125.03
674.382	3217.19
674.573	3188.52
674.764	3008.3
674.954	3145.51
675.145	3020.58
675.336	3098.41
675.527	3039.01
675.717	3075.88
675.908	3088.17
676.099	3094.31
676.289	3125.03
676.48	2955.05
676.671	3036.97
676.861	3127.08
677.052	2932.52
677.243	2932.52
677.433	2895.66
677.624	2950.95
677.814	3008.3
678.005	2897.71
678.195	2989.86
678.386	2912.04
678.576	3028.78
678.767	2842.41
678.957	2840.36
679.148	2881.32
679.338	2907.94
679.529	2809.64
679.719	2969.38
679.909	2828.07
680.1	2817.83
680.29	2907.94
680.481	2754.35
680.671	2893.61
680.861	2883.37
681.052	2907.94
681.242	2881.32
681.432	2883.37
681.622	2856.75
681.813	2785.07
682.003	2772.78
682.193	2721.58
682.383	2875.18
682.573	2821.93
682.764	2649.9
682.954	2776.87
683.144	2834.22
683.334	2686.76
683.524	2764.59
683.714	2758.44
683.904	2754.35
684.094	2723.63
684.284	2731.82
684.474	2725.68
684.664	2604.85
684.854	2805.55
685.044	2694.96
685.234	2772.78
685.424	2670.38
685.614	2647.85
685.804	2688.81
685.994	2582.32
686.184	2670.38
686.374	2668.33
686.564	2531.12
686.753	2582.32
686.943	2598.7
687.133	2625.33
687.323	2711.34
687.513	2785.07
687.702	2731.82
687.892	2527.02
688.082	2516.78
688.272	2623.28
688.461	2580.27
688.651	2660.14
688.841	2610.99
689.03	2574.13
689.22	2602.8
689.41	2588.46
689.599	2570.03
689.789	2570.03
689.979	2481.97
690.168	2592.56
690.358	2496.3
690.547	2551.6
690.737	2449.2
690.926	2486.06
691.116	2533.17
691.305	2529.07
691.495	2490.16
691.684	2459.44
691.874	2514.73
692.063	2469.68
692.252	2350.9
692.442	2623.28
692.631	2383.66
692.82	2535.21
693.01	2236.21
693.199	2383.66
693.388	2434.86
693.578	2398
693.767	2455.34
693.956	2287.41
694.146	2535.21
694.335	2406.19
694.524	2416.43
694.713	2541.36
694.902	2451.25
695.092	2453.3
695.281	2434.86
695.47	2395.95
695.659	2336.56
695.848	2318.13
696.037	2441.01
696.226	2344.75
696.415	2432.82
696.604	2289.46
696.793	2438.96
696.982	2332.47
697.171	2367.28
697.36	2234.16
697.549	2197.3
697.738	2326.32
697.927	2287.41
698.116	2262.83
698.305	2262.83
698.494	2232.12
698.683	2340.66
698.872	2271.03
699.061	2258.74
699.25	2303.79
699.438	2293.55
699.627	2357.04
699.816	2367.28
700.005	2228.02
700.193	2217.78
700.382	2197.3
700.571	2166.58
700.76	2320.18
700.948	2219.83
701.137	2246.45
701.326	2201.4
701.514	2158.39
701.703	2275.12
701.892	2275.12
702.08	2230.07
702.269	2203.44
702.457	2082.61
702.646	2248.5
702.834	2070.33
703.023	2209.59
703.212	2205.49
703.4	2144.05
703.589	2082.61
703.777	2070.33
703.965	2129.72
704.154	2078.52
704.342	2117.43
704.531	2060.09
704.719	2092.85
704.907	2209.59
705.096	2031.41
705.284	2074.42
705.472	2203.44
705.661	2008.89
705.849	2115.38
706.037	2187.06
706.226	2144.05
706.414	2123.57
706.602	2193.2
706.79	1967.93
706.979	2006.84
707.167	2019.13
707.355	2029.37
707.543	2058.04
707.731	2156.34
707.919	2043.7
708.107	2039.61
708.296	2121.52
708.484	2027.32
708.672	2070.33
708.86	1920.82
709.048	1974.07
709.236	2023.22
709.424	1980.22
709.612	2058.04
709.8	1900.34
709.988	2023.22
710.176	2002.74
710.364	2066.23
710.551	1867.58
710.739	1963.83
710.927	2029.37
711.115	2029.37
711.303	2027.32
711.491	1961.78
711.679	1967.93
711.866	1959.74
712.054	2029.37
712.242	1974.07
712.43	1935.16
712.617	2045.75
712.805	1867.58
712.993	1965.88
713.181	1898.3
713.368	1867.58
713.556	1984.31
713.744	1818.43
713.931	1879.86
714.119	1834.81
714.306	1847.1
714.494	1877.82
714.682	1865.53
714.869	1914.68
715.057	1785.66
715.244	1826.62
715.432	1705.79
715.619	1802.04
715.807	1746.75
715.994	1695.55
716.182	1853.24
716.369	1873.72
716.556	1744.7
716.744	1812.28
716.931	1843
717.119	1822.52
717.306	1724.22
717.493	1781.56
717.681	1849.15
717.868	1670.97
718.055	1787.71
718.242	1718.08
718.43	1838.91
718.617	1658.68
718.804	1828.67
718.991	1609.53
719.179	1787.71
719.366	1720.12
719.553	1752.89
719.74	1744.7
719.927	1771.32
720.114	1627.96
720.301	1752.89
720.488	1738.55
720.676	1701.69
720.863	1711.93
721.05	1767.23
721.237	1673.02
721.424	1713.98
721.611	1711.93
721.798	1736.51
721.985	1687.36
722.172	1625.92
722.358	1644.35
722.545	1623.87
722.732	1695.55
722.919	1605.44
723.106	1595.2
723.293	1632.06
723.48	1668.92
723.667	1568.57
723.853	1576.77
724.04	1644.35
724.227	1677.12
724.414	1515.33
724.6	1558.33
724.787	1615.68
724.974	1556.29
725.161	1492.8
725.347	1574.72
725.534	1726.27
725.72	1550.14
725.907	1548.09
726.094	1595.2
726.28	1625.92
726.467	1558.33
726.653	1488.7
726.84	1527.61
727.027	1587.01
727.213	1384.26
727.4	1525.57
727.586	1535.81
727.773	1535.81
727.959	1597.24
728.145	1570.62
728.332	1638.2
728.518	1488.7
728.705	1464.13
728.891	1552.19
729.077	1503.04
729.264	1408.83
729.45	1472.32
729.636	1505.09
729.823	1535.81
730.009	1492.8
730.195	1425.22
730.382	1496.89
730.568	1388.35
730.754	1400.64
730.94	1513.28
731.126	1382.21
731.313	1556.29
731.499	1519.42
731.685	1443.65
731.871	1437.5
732.057	1464.13
732.243	1355.58
732.429	1455.94
732.615	1339.2
732.801	1447.74
732.987	1398.59
733.173	1455.94
733.359	1453.89
733.545	1425.22
733.731	1388.35
733.917	1441.6
734.103	1400.64
734.289	1361.73
734.475	1417.02
734.661	1437.5
734.847	1384.26
735.033	1406.78
735.219	1490.75
735.404	1367.87
735.59	1412.93
735.776	1408.83
735.962	1441.6
736.148	1361.73
736.333	1400.64
736.519	1384.26
736.705	1285.95
736.89	1361.73
737.076	1369.92
737.262	1406.78
737.447	1419.07
737.633	1316.67
737.819	1367.87
738.004	1339.2
738.19	1324.87
738.375	1339.2
738.561	1400.64
738.747	1236.8
738.932	1331.01
739.118	1359.68
739.303	1306.43
739.489	1388.35
739.674	1406.78
739.859	1302.34
740.045	1261.38
740.23	1288
740.416	1169.22
740.601	1224.51
740.786	1380.16
740.972	1367.87
741.157	1269.57
741.342	1228.61
741.528	1271.62
741.713	1318.72
741.898	1318.72
742.084	1300.29
742.269	1298.24
742.454	1218.37
742.639	1244.99
742.824	1197.89
743.01	1244.99
743.195	1161.03
743.38	1189.7
743.565	1189.7
743.75	1244.99
743.935	1195.84
744.12	1111.88
744.305	1263.43
744.49	1079.11
744.675	1183.56
744.86	1220.42
745.045	1201.99
745.23	1165.12
745.415	1105.73
745.6	1126.21
745.785	1228.61
745.97	1130.31
746.155	1089.35
746.34	1144.64
746.525	1120.07
746.71	1105.73
746.895	1105.73
747.079	1068.87
747.264	1072.96
747.449	1132.36
747.634	1095.49
747.819	962.37
748.003	1017.67
748.188	1077.06
748.373	1023.81
748.557	1120.07
748.742	1144.64
748.927	1013.57
749.111	984.9
749.296	976.71
749.481	1038.15
749.665	991.05
749.85	1054.53
750.034	1025.86
750.219	995.14
750.404	1023.81
750.588	933.7
750.773	997.19
750.957	972.61
751.141	993.09
751.326	954.18
751.51	1005.38
751.695	966.47
751.879	876.36
752.064	929.61
752.248	894.79
752.432	911.18
752.617	917.32
752.801	892.74
752.985	862.02
753.17	952.13
753.354	905.03
753.538	862.02
753.722	909.13
753.907	900.94
754.091	849.74
754.275	892.74
754.459	808.78
754.643	827.21
754.828	782.15
755.012	816.97
755.196	780.11
755.38	888.65
755.564	776.01
755.748	835.4
755.932	771.91
756.116	804.68
756.3	751.43
756.484	870.22
756.668	763.72
756.852	792.39
757.036	763.72
757.22	730.95
757.404	737.1
757.588	687.95
757.772	745.29
757.956	710.47
758.14	792.39
758.323	726.86
758.507	773.96
758.691	800.59
758.875	735.05
759.059	716.62
759.242	694.09
759.426	825.16
759.61	720.71
759.794	669.52
759.977	673.61
760.161	737.1
760.345	692.04
760.528	733
760.712	728.91
760.895	685.9
761.079	640.84
761.263	706.38
761.446	616.27
761.63	692.04
761.813	603.98
761.997	669.52
762.18	712.52
762.364	622.41
762.547	712.52
762.731	610.12
762.914	620.36
763.098	718.67
763.281	614.22
763.464	649.04
763.648	653.13
763.831	640.84
764.015	589.64
764.198	575.31
764.381	573.26
764.564	704.33
764.748	624.46
764.931	685.9
765.114	636.75
765.297	585.55
765.481	632.65
765.664	567.12
765.847	624.46
766.03	567.12
766.213	606.03
766.397	730.95
766.58	585.55
766.763	610.12
766.946	563.02
767.129	577.36
767.312	608.08
767.495	583.5
767.678	579.4
767.861	501.58
768.044	522.06
768.227	579.4
768.41	505.68
768.593	573.26
768.776	538.45
768.959	614.22
769.142	565.07
769.324	606.03
769.507	507.73
769.69	583.5
769.873	493.39
770.056	493.39
770.239	542.54
770.421	556.88
770.604	567.12
770.787	474.96
770.97	583.5
771.152	495.44
771.335	591.69
771.518	601.93
771.7	577.36
771.883	497.49
772.066	544.59
772.248	464.72
772.431	542.54
772.613	532.3
772.796	470.86
772.978	575.31
773.161	509.77
773.343	448.33
773.526	511.82
773.708	540.49
773.891	491.34
774.073	466.77
774.256	460.62
774.438	454.48
774.621	489.29
774.803	407.38
774.985	425.81
775.168	489.29
775.35	462.67
775.532	462.67
775.715	464.72
775.897	466.77
776.079	409.42
776.261	403.28
776.444	431.95
776.626	413.52
776.808	438.09
776.99	409.42
777.173	446.29
777.355	407.38
777.537	446.29
777.719	483.15
777.901	446.29
778.083	358.22
778.265	382.8
778.447	411.47
778.629	403.28
778.811	456.53
778.993	431.95
779.175	401.23
779.357	438.09
779.539	393.04
779.721	341.84
779.903	358.22
780.085	397.14
780.267	350.03
780.449	356.18
780.631	411.47
780.812	321.36
780.994	337.74
781.176	409.42
781.358	405.33
781.54	372.56
781.721	390.99
781.903	270.16
782.085	341.84
782.267	362.32
782.448	311.12
782.63	288.59
782.812	323.41
782.993	362.32
783.175	325.46
783.357	286.54
783.538	339.79
783.72	280.4
783.901	284.5
784.083	311.12
784.264	372.56
784.446	249.68
784.627	237.39
784.809	237.39
784.99	270.16
785.172	284.5
785.353	341.84
785.535	347.98
785.716	284.5
785.897	323.41
786.079	264.02
786.26	278.35
786.441	345.94
786.623	253.78
786.804	206.67
786.985	335.7
787.167	223.06
787.348	206.67
787.529	286.54
787.71	186.19
787.891	245.59
788.073	237.39
788.254	282.45
788.435	229.2
788.616	292.69
788.797	227.15
788.978	253.78
789.159	247.63
789.34	284.5
789.522	255.83
789.703	298.83
789.884	206.67
790.065	198.48
790.246	202.58
790.427	311.12
790.607	272.21
790.788	251.73
790.969	214.87
791.15	206.67
791.331	204.63
791.512	214.87
791.693	198.48
791.874	227.15
792.054	171.86
792.235	255.83
792.416	165.71
792.597	167.76
792.778	225.11
792.958	153.43
793.139	198.48
793.32	186.19
793.5	243.54
793.681	239.44
793.862	167.76
794.042	137.04
794.223	186.19
794.404	169.81
794.584	194.39
794.765	188.24
794.945	151.38
795.126	198.48
795.306	120.66
795.487	233.3
795.667	210.77
795.848	169.81
796.028	192.34
796.209	85.84
796.389	175.95
796.57	120.66
796.75	81.75
796.93	159.57
797.111	155.47
797.291	141.14
797.471	206.67
797.652	122.71
797.832	229.2
798.012	235.35
798.192	153.43
798.373	206.67
798.553	210.77
798.733	249.68
798.913	124.76
799.093	155.47
799.274	118.61
799.454	130.9
799.634	167.76
799.814	180.05
799.994	120.66
800.174	128.85
800.354	180.05
800.534	188.24
800.714	225.11
800.894	143.19
801.074	65.36
801.254	71.51
801.434	178
801.614	83.8
801.794	120.66
801.974	345.94
802.154	71.51
802.334	71.51
802.514	38.74
802.693	81.75
802.873	180.05
803.053	89.94
803.233	155.47
803.413	165.71
803.592	120.66
803.772	149.33
803.952	221.01
804.131	143.19
804.311	96.08
804.491	139.09
804.67	98.13
804.85	83.8
805.03	120.66
805.209	202.58
805.389	120.66
805.568	231.25
805.748	124.76
805.928	75.6
806.107	73.56
806.287	186.19
806.466	120.66
806.646	114.52
806.825	75.6
807.004	169.81
807.184	110.42
807.363	114.52
807.543	81.75
807.722	128.85
807.901	137.04
808.081	204.63
808.26	46.93
808.439	32.6
808.619	42.84
808.798	159.57
808.977	120.66
809.156	94.04
809.336	89.94
809.515	116.56
809.694	71.51
809.873	122.71
810.052	79.7
810.231	153.43
810.411	51.03
810.59	130.9
810.769	61.27
810.948	26.45
811.127	118.61
811.306	81.75
811.485	106.32
811.664	124.76
811.843	114.52
812.022	116.56
812.201	57.17
812.38	120.66
812.559	114.52
812.737	79.7
812.916	83.8
813.095	173.91
813.274	94.04
813.453	120.66
813.632	100.18
813.811	42.84
813.989	79.7
814.168	108.37
814.347	116.56
814.526	112.47
814.704	40.79
814.883	94.04
815.062	32.6
815.24	83.8
815.419	55.12
815.598	71.51
815.776	77.65
815.955	89.94
816.133	141.14
816.312	83.8
816.49	104.28
816.669	98.13
816.847	55.12
817.026	139.09
817.204	24.4
817.383	89.94
817.561	124.76
817.74	36.69
817.918	81.75
818.097	120.66
818.275	87.89
818.453	81.75
818.632	87.89
818.81	89.94
818.988	81.75
819.167	112.47
819.345	-0.17
819.523	98.13
819.701	14.17
819.879	65.36
820.058	112.47
820.236	145.24
820.414	89.94
820.592	120.66
820.77	67.41
820.948	44.88
821.127	22.36
821.305	81.75
821.483	112.47
821.661	65.36
821.839	69.46
822.017	87.89
822.195	51.03
822.373	128.85
822.551	36.69
822.729	79.7
822.907	22.36
823.085	48.98
823.262	40.79
823.44	73.56
823.618	-8.36
823.796	53.08
823.974	-20.65
824.152	118.61
824.329	42.84
824.507	26.45
824.685	69.46
824.863	69.46
825.04	79.7
825.218	30.55
825.396	26.45
825.574	73.56
825.751	38.74
825.929	28.5
826.107	-8.36
826.284	48.98
826.462	55.12
826.639	-14.51
826.817	28.5
826.994	112.47
827.172	40.79
827.349	48.98
827.527	71.51
827.704	48.98
827.882	12.12
828.059	16.21
828.237	46.93
828.414	48.98
828.591	96.08
828.769	63.32
828.946	-2.22
829.124	40.79
829.301	53.08
829.478	71.51
829.655	40.79
829.833	-2.22
830.01	20.31
830.187	98.13
830.364	1.88
830.542	24.4
830.719	-6.31
830.896	83.8
831.073	30.55
831.25	-41.13
831.427	40.79
831.604	61.27
831.782	61.27
831.959	104.28
832.136	51.03
832.313	5.97
832.49	46.93
832.667	-26.79
832.844	130.9
833.021	104.28
833.198	24.4
833.374	57.17
833.551	67.41
833.728	57.17
833.905	42.84
834.082	22.36
834.259	46.93
834.436	28.5
834.612	12.12
834.789	40.79
834.966	-16.55
835.143	-12.46
835.319	38.74
835.496	53.08
835.673	-6.31
835.85	108.37
836.026	14.17
836.203	65.36
836.38	55.12
836.556	48.98
836.733	-8.36
836.909	38.74
837.086	63.32
837.262	-16.55
837.439	48.98
837.616	67.41
837.792	28.5
837.968	-63.66
838.145	24.4
838.321	81.75
838.498	42.84
838.674	55.12
838.851	-96.43
839.027	5.97
839.203	61.27
839.38	8.02
839.556	14.17
839.732	51.03
839.909	5.97
840.085	89.94
840.261	8.02
840.437	-0.17
840.614	18.26
840.79	34.64
840.966	-2.22
841.142	106.32
841.318	24.4
841.494	14.17
841.671	-34.99
841.847	75.6
842.023	26.45
842.199	46.93
842.375	65.36
842.551	75.6
842.727	-96.43
842.903	5.97
843.079	73.56
843.255	18.26
843.431	38.74
843.607	-16.55
843.783	40.79
843.959	-24.75
844.134	-14.51
844.31	30.55
844.486	-18.6
844.662	-43.18
844.838	53.08
845.013	83.8
845.189	16.21
845.365	30.55
845.541	-30.89
845.716	-8.36
845.892	8.02
846.068	12.12
846.244	30.55
846.419	32.6
846.595	-28.84
846.77	24.4
846.946	5.97
847.122	18.26
847.297	63.32
847.473	28.5
847.648	55.12
847.824	63.32
847.999	-30.89
848.175	30.55
848.35	14.17
848.526	20.31
848.701	12.12
848.876	53.08
849.052	30.55
849.227	71.51
849.403	10.07
849.578	5.97
849.753	20.31
849.929	34.64
850.104	18.26
850.279	42.84
850.454	22.36
850.63	-8.36
850.805	26.45
850.98	40.79
851.155	81.75
851.33	81.75
851.505	-12.46
851.681	98.13
851.856	22.36
852.031	16.21
852.206	40.79
852.381	-30.89
852.556	5.97
852.731	48.98
852.906	-57.51
853.081	-10.41
853.256	24.4
853.431	-18.6
853.606	1.88
853.781	-26.79
853.956	38.74
854.131	-26.79
854.305	20.31
854.48	63.32
854.655	24.4
854.83	12.12
855.005	-26.79
855.18	51.03
855.354	16.21
855.529	87.89
855.704	-26.79
855.879	22.36
856.053	55.12
856.228	30.55
856.403	12.12
856.577	87.89
856.752	32.6
856.926	12.12
857.101	-24.75
857.276	22.36
857.45	-2.22
857.625	-16.55
857.799	63.32
857.974	22.36
858.148	-32.94
858.323	22.36
858.497	-14.51
858.672	8.02
858.846	5.97
859.02	53.08
859.195	5.97
859.369	-0.17
859.543	24.4
859.718	-24.75
859.892	55.12
860.066	-2.22
860.241	77.65
860.415	18.26
860.589	-34.99
860.763	14.17
860.938	5.97
861.112	-2.22
861.286	-47.27
861.46	-2.22
861.634	-30.89
861.808	14.17
861.982	63.32
862.157	-24.75
862.331	-28.84
862.505	-75.95
862.679	30.55
862.853	-55.47
863.027	42.84
863.201	71.51
863.375	-26.79
863.549	53.08
863.722	-20.65
863.896	46.93
864.07	55.12
864.244	1.88
864.418	-43.18
864.592	71.51
864.766	3.93
864.939	20.31
865.113	36.69
865.287	-34.99
865.461	-28.84
865.634	38.74
865.808	-28.84
865.982	-12.46
866.156	-4.27
866.329	-28.84
866.503	44.88
866.676	73.56
866.85	-45.23
867.024	-37.03
867.197	-32.94
867.371	1.88
867.544	12.12
867.718	-14.51
867.891	-30.89
868.065	22.36
868.238	5.97
868.412	-10.41
868.585	-26.79
868.759	-34.99
868.932	14.17
869.105	71.51
869.279	28.5
869.452	22.36
869.625	-28.84
869.799	-18.6
869.972	-110.76
870.145	-2.22
870.319	12.12
870.492	16.21
870.665	3.93
870.838	24.4
871.011	-10.41
871.185	69.46
871.358	32.6
871.531	-43.18
871.704	26.45
871.877	-18.6
872.05	3.93
872.223	5.97
872.396	-4.27
872.569	-32.94
872.742	-63.66
872.915	-4.27
873.088	-32.94
873.261	18.26
873.434	10.07
873.607	-49.32
873.78	-55.47
873.953	-51.37
874.126	57.17
874.299	-16.55
874.471	61.27
874.644	8.02
874.817	-20.65
874.99	16.21
875.163	18.26
875.335	-4.27
875.508	-4.27
875.681	-8.36
875.853	-49.32
876.026	-39.08
876.199	26.45
876.371	-16.55
876.544	-12.46
876.717	24.4
876.889	8.02
877.062	-8.36
877.234	-22.7
877.407	42.84
877.579	18.26
877.752	40.79
877.924	22.36
878.097	20.31
878.269	44.88
878.442	71.51
878.614	42.84
878.786	-10.41
878.959	44.88
879.131	-2.22
879.303	12.12
879.476	-16.55
879.648	-22.7
879.82	55.12
879.993	-8.36
880.165	22.36
880.337	-30.89
880.509	-51.37
880.681	-55.47
880.854	-69.8
881.026	-10.41
881.198	100.18
881.37	22.36
881.542	-0.17
881.714	16.21
881.886	30.55
882.058	-45.23
882.23	-10.41
882.402	-6.31
882.574	22.36
882.746	-24.75
882.918	26.45
883.09	16.21
883.262	-24.75
883.434	-45.23
883.606	-28.84
883.778	32.6
883.95	16.21
884.122	-2.22
884.293	71.51
884.465	-14.51
884.637	-10.41
884.809	-20.65
884.98	38.74
885.152	-73.9
885.324	16.21
885.496	-24.75
885.667	-14.51
885.839	8.02
886.011	46.93
886.182	-6.31
886.354	30.55
886.525	-2.22
886.697	-43.18
886.869	3.93
887.04	-8.36
887.212	53.08
887.383	-8.36
887.555	-55.47
887.726	30.55
887.897	-24.75
888.069	-30.89
888.24	83.8
888.412	-67.75
888.583	34.64
888.754	-10.41
888.926	-28.84
889.097	-24.75
889.268	26.45
889.44	-34.99
889.611	26.45
889.782	5.97
889.953	-18.6
890.125	-10.41
890.296	8.02
890.467	73.56
890.638	36.69
890.809	16.21
890.98	-16.55
891.151	-10.41
891.323	-18.6
891.494	-18.6
891.665	-6.31
891.836	-59.56
892.007	-8.36
892.178	12.12
892.349	61.27
892.52	10.07
892.691	-18.6
892.862	30.55
893.032	20.31
893.203	-8.36
893.374	-14.51
893.545	-59.56
893.716	-16.55
893.887	-18.6
894.057	-6.31
894.228	-34.99
894.399	-102.57
894.57	8.02
894.74	48.98
894.911	53.08
895.082	-16.55
895.253	24.4
895.423	48.98
895.594	10.07
895.764	-12.46
895.935	-55.47
896.106	-0.17
896.276	10.07
896.447	-4.27
896.617	-4.27
896.788	-0.17
896.958	46.93
897.129	5.97
897.299	-28.84
897.47	-16.55
897.64	1.88
897.81	-0.17
897.981	-39.08
898.151	-16.55
898.322	-51.37
898.492	40.79
898.662	34.64
898.832	-4.27
899.003	10.07
899.173	5.97
899.343	10.07
899.513	-0.17
