Data from USB4F104151__16__12-58-30-400.txt Node

Date: Fri Mar 14 12:58:30 EDT 2025
User: louis
Spectrometer: USB4F10415
Trigger mode: 4
Integration Time (sec): 1.000000E-2
Scans to average: 1
Electric dark correction enabled: true
Nonlinearity correction enabled: false
Boxcar width: 0
XAxis mode: Wavelengths
Number of Pixels in Spectrum: 3648
>>>>>Begin Spectral Data<<<<<
178.204	-10.07
178.424	-10.07
178.644	-10.07
178.864	-57.17
179.084	-91.99
179.304	14.51
179.524	4.27
179.744	-22.36
179.964	34.99
180.184	-14.17
180.404	-1.88
180.624	2.22
180.844	-10.07
181.064	39.08
181.283	-32.6
181.503	14.51
181.723	-28.5
181.943	-34.64
182.163	47.27
182.383	-57.17
182.602	-3.93
182.822	49.32
183.042	-73.56
183.262	-24.4
183.482	-20.31
183.701	71.85
183.921	92.33
184.141	84.14
184.361	12.46
184.58	8.36
184.8	24.75
185.02	-42.84
185.239	34.99
185.459	41.13
185.679	4.27
185.898	2.22
186.118	-26.45
186.338	8.36
186.557	39.08
186.777	0.17
186.997	-48.98
187.216	-36.69
187.436	12.46
187.655	-10.07
187.875	-10.07
188.095	-44.88
188.314	10.41
188.534	-34.64
188.753	-40.79
188.973	-26.45
189.192	8.36
189.412	-18.26
189.631	18.6
189.851	-8.02
190.07	39.08
190.29	-5.97
190.509	18.6
190.729	-28.5
190.948	92.33
191.168	-71.51
191.387	-24.4
191.607	-69.46
191.826	22.7
192.045	4.27
192.265	-1.88
192.484	12.46
192.704	32.94
192.923	2.22
193.142	30.89
193.362	-26.45
193.581	37.03
193.8	16.55
194.02	45.23
194.239	8.36
194.458	0.17
194.678	-32.6
194.897	-10.07
195.116	-8.02
195.335	-18.26
195.555	-5.97
195.774	57.51
195.993	37.03
196.212	30.89
196.432	-24.4
196.651	-28.5
196.87	-18.26
197.089	-53.08
197.308	16.55
197.528	-10.07
197.747	-1.88
197.966	-16.21
198.185	24.75
198.404	75.95
198.623	-20.31
198.842	6.31
199.062	-24.4
199.281	59.56
199.5	-30.55
199.719	16.55
199.938	24.75
200.157	12.46
200.376	-36.69
200.595	43.18
200.814	6.31
201.033	-59.22
201.252	-22.36
201.471	-16.21
201.69	51.37
201.909	71.85
202.128	32.94
202.347	-20.31
202.566	-38.74
202.785	10.41
203.004	-51.03
203.223	-73.56
203.442	39.08
203.661	-10.07
203.879	34.99
204.098	-8.02
204.317	18.6
204.536	6.31
204.755	59.56
204.974	90.28
205.193	14.51
205.411	92.33
205.63	6.31
205.849	8.36
206.068	-59.22
206.287	-8.02
206.505	-26.45
206.724	22.7
206.943	-75.6
207.162	-18.26
207.381	-104.28
207.599	-32.6
207.818	26.79
208.037	-44.88
208.255	-55.12
208.474	22.7
208.693	55.47
208.911	-53.08
209.13	39.08
209.349	84.14
209.567	34.99
209.786	22.7
210.005	-40.79
210.223	4.27
210.442	-34.64
210.661	-28.5
210.879	-30.55
211.098	12.46
211.316	-16.21
211.535	34.99
211.753	-20.31
211.972	22.7
212.191	-5.97
212.409	26.79
212.628	-38.74
212.846	-40.79
213.065	6.31
213.283	6.31
213.502	-32.6
213.72	34.99
213.938	-14.17
214.157	-20.31
214.375	-18.26
214.594	-46.93
214.812	26.79
215.031	-42.84
215.249	55.47
215.467	24.75
215.686	-53.08
215.904	-1.88
216.122	43.18
216.341	-12.12
216.559	20.65
216.778	-30.55
216.996	-44.88
217.214	2.22
217.432	22.7
217.651	6.31
217.869	6.31
218.087	-91.99
218.306	-20.31
218.524	90.28
218.742	8.36
218.96	-44.88
219.179	65.71
219.397	63.66
219.615	-32.6
219.833	94.38
220.051	-8.02
220.27	22.7
220.488	-8.02
220.706	-10.07
220.924	41.13
221.142	22.7
221.36	0.17
221.578	-34.64
221.796	-18.26
222.015	41.13
222.233	24.75
222.451	39.08
222.669	41.13
222.887	-46.93
223.105	-57.17
223.323	-40.79
223.541	34.99
223.759	0.17
223.977	41.13
224.195	26.79
224.413	-14.17
224.631	84.14
224.849	-14.17
225.067	8.36
225.285	106.67
225.503	34.99
225.721	30.89
225.939	-46.93
226.157	-22.36
226.375	30.89
226.592	22.7
226.81	-42.84
227.028	49.32
227.246	63.66
227.464	-46.93
227.682	28.84
227.9	22.7
228.117	24.75
228.335	75.95
228.553	-1.88
228.771	-3.93
228.989	49.32
229.206	30.89
229.424	37.03
229.642	10.41
229.86	71.85
230.077	32.94
230.295	-28.5
230.513	75.95
230.731	-8.02
230.948	-1.88
231.166	24.75
231.384	-14.17
231.601	-14.17
231.819	-30.55
232.037	67.75
232.254	39.08
232.472	47.27
232.689	-40.79
232.907	-34.64
233.125	80.04
233.342	69.8
233.56	53.42
233.777	28.84
233.995	-55.12
234.213	63.66
234.43	90.28
234.648	-12.12
234.865	-5.97
235.083	-22.36
235.3	-3.93
235.518	14.51
235.735	53.42
235.953	106.67
236.17	26.79
236.388	12.46
236.605	-51.03
236.822	-44.88
237.04	16.55
237.257	22.7
237.475	-8.02
237.692	28.84
237.909	-5.97
238.127	6.31
238.344	-10.07
238.562	47.27
238.779	0.17
238.996	88.23
239.214	-81.75
239.431	37.03
239.648	30.89
239.865	-3.93
240.083	14.51
240.3	-40.79
240.517	47.27
240.735	8.36
240.952	28.84
241.169	32.94
241.386	-16.21
241.603	-5.97
241.821	-26.45
242.038	0.17
242.255	-12.12
242.472	-42.84
242.689	8.36
242.907	47.27
243.124	-73.56
243.341	-24.4
243.558	10.41
243.775	-20.31
243.992	10.41
244.209	-42.84
244.426	-14.17
244.643	55.47
244.86	-57.17
245.078	47.27
245.295	-20.31
245.512	-1.88
245.729	-10.07
245.946	45.23
246.163	6.31
246.38	-36.69
246.597	16.55
246.814	8.36
247.031	57.51
247.248	73.9
247.464	12.46
247.681	-20.31
247.898	30.89
248.115	49.32
248.332	32.94
248.549	6.31
248.766	24.75
248.983	16.55
249.2	28.84
249.417	-14.17
249.633	24.75
249.85	41.13
250.067	47.27
250.284	39.08
250.501	-38.74
250.717	-3.93
250.934	59.56
251.151	10.41
251.368	-32.6
251.585	-18.26
251.801	14.51
252.018	49.32
252.235	57.51
252.451	-1.88
252.668	51.37
252.885	-1.88
253.102	-42.84
253.318	-38.74
253.535	2.22
253.752	80.04
253.968	47.27
254.185	6.31
254.401	-46.93
254.618	41.13
254.835	20.65
255.051	22.7
255.268	0.17
255.484	18.6
255.701	16.55
255.917	4.27
256.134	-1.88
256.351	10.41
256.567	-44.88
256.784	63.66
257	34.99
257.217	34.99
257.433	-53.08
257.65	49.32
257.866	8.36
258.082	39.08
258.299	67.75
258.515	-10.07
258.732	-10.07
258.948	24.75
259.165	-24.4
259.381	-55.12
259.597	39.08
259.814	100.52
260.03	-67.41
260.246	-42.84
260.463	82.09
260.679	-46.93
260.895	-24.4
261.112	-14.17
261.328	22.7
261.544	10.41
261.761	-18.26
261.977	16.55
262.193	-1.88
262.409	-16.21
262.626	-24.4
262.842	49.32
263.058	6.31
263.274	-10.07
263.49	12.46
263.707	8.36
263.923	-48.98
264.139	-57.17
264.355	37.03
264.571	86.19
264.787	41.13
265.004	6.31
265.22	-71.51
265.436	88.23
265.652	32.94
265.868	-28.5
266.084	-38.74
266.3	6.31
266.516	-51.03
266.732	22.7
266.948	24.75
267.164	-12.12
267.38	-3.93
267.596	65.71
267.812	14.51
268.028	30.89
268.244	41.13
268.46	39.08
268.676	-55.12
268.892	-12.12
269.108	-12.12
269.324	-73.56
269.54	26.79
269.756	51.37
269.972	-65.36
270.188	-1.88
270.403	-44.88
270.619	14.51
270.835	32.94
271.051	8.36
271.267	-1.88
271.483	-57.17
271.698	-89.94
271.914	47.27
272.13	-34.64
272.346	-3.93
272.562	-1.88
272.777	88.23
272.993	-32.6
273.209	-5.97
273.425	18.6
273.64	65.71
273.856	59.56
274.072	-24.4
274.287	20.65
274.503	45.23
274.719	-51.03
274.934	16.55
275.15	20.65
275.366	43.18
275.581	22.7
275.797	63.66
276.012	-65.36
276.228	37.03
276.444	2.22
276.659	84.14
276.875	18.6
277.09	-22.36
277.306	8.36
277.521	4.27
277.737	-12.12
277.952	-16.21
278.168	-34.64
278.383	-24.4
278.599	55.47
278.814	16.55
279.03	14.51
279.245	24.75
279.461	14.51
279.676	-48.98
279.892	4.27
280.107	-30.55
280.322	-81.75
280.538	43.18
280.753	0.17
280.969	-16.21
281.184	57.51
281.399	49.32
281.615	32.94
281.83	14.51
282.045	-40.79
282.26	61.61
282.476	-10.07
282.691	12.46
282.906	47.27
283.122	0.17
283.337	-18.26
283.552	-44.88
283.767	2.22
283.983	-48.98
284.198	-44.88
284.413	84.14
284.628	6.31
284.843	43.18
285.058	0.17
285.274	22.7
285.489	-1.88
285.704	57.51
285.919	24.75
286.134	-5.97
286.349	6.31
286.564	-3.93
286.779	41.13
286.995	55.47
287.21	22.7
287.425	-53.08
287.64	-22.36
287.855	18.6
288.07	-42.84
288.285	39.08
288.5	16.55
288.715	0.17
288.93	-5.97
289.145	14.51
289.36	34.99
289.575	51.37
289.79	-22.36
290.004	-16.21
290.219	20.65
290.434	-46.93
290.649	34.99
290.864	-38.74
291.079	28.84
291.294	90.28
291.509	69.8
291.724	-32.6
291.938	32.94
292.153	67.75
292.368	-32.6
292.583	14.51
292.798	14.51
293.012	24.75
293.227	-30.55
293.442	30.89
293.657	24.75
293.871	20.65
294.086	63.66
294.301	-10.07
294.516	39.08
294.73	47.27
294.945	-85.84
295.16	-18.26
295.374	34.99
295.589	-28.5
295.804	-30.55
296.018	-12.12
296.233	-44.88
296.447	2.22
296.662	41.13
296.877	-18.26
297.091	51.37
297.306	-34.64
297.52	-22.36
297.735	14.51
297.949	14.51
298.164	39.08
298.378	30.89
298.593	-12.12
298.807	-75.6
299.022	41.13
299.236	12.46
299.451	41.13
299.665	10.41
299.88	-34.64
300.094	47.27
300.309	20.65
300.523	47.27
300.737	12.46
300.952	32.94
301.166	28.84
301.381	-3.93
301.595	71.85
301.809	-22.36
302.024	-8.02
302.238	-22.36
302.452	14.51
302.667	39.08
302.881	24.75
303.095	-26.45
303.309	4.27
303.524	4.27
303.738	51.37
303.952	-57.17
304.166	-26.45
304.381	-1.88
304.595	-10.07
304.809	28.84
305.023	10.41
305.237	55.47
305.452	104.62
305.666	51.37
305.88	14.51
306.094	-42.84
306.308	34.99
306.522	32.94
306.736	39.08
306.95	-55.12
307.164	-5.97
307.379	-16.21
307.593	24.75
307.807	10.41
308.021	49.32
308.235	43.18
308.449	14.51
308.663	-14.17
308.877	26.79
309.091	67.75
309.305	14.51
309.519	108.71
309.733	41.13
309.947	18.6
310.161	-24.4
310.374	65.71
310.588	-40.79
310.802	-14.17
311.016	30.89
311.23	84.14
311.444	22.7
311.658	-3.93
311.872	8.36
312.085	10.41
312.299	49.32
312.513	32.94
312.727	108.71
312.941	131.24
313.154	-14.17
313.368	12.46
313.582	39.08
313.796	98.47
314.009	-40.79
314.223	59.56
314.437	-14.17
314.651	-28.5
314.864	-34.64
315.078	30.89
315.292	8.36
315.505	-5.97
315.719	59.56
315.933	4.27
316.146	34.99
316.36	0.17
316.573	82.09
316.787	37.03
317.001	2.22
317.214	6.31
317.428	55.47
317.641	-1.88
317.855	-42.84
318.068	10.41
318.282	43.18
318.495	-14.17
318.709	88.23
318.922	24.75
319.136	14.51
319.349	16.55
319.563	14.51
319.776	-8.02
319.99	20.65
320.203	-34.64
320.417	-5.97
320.63	-8.02
320.843	55.47
321.057	-20.31
321.27	39.08
321.483	-3.93
321.697	-14.17
321.91	-8.02
322.124	69.8
322.337	18.6
322.55	82.09
322.763	92.33
322.977	39.08
323.19	-51.03
323.403	-1.88
323.617	53.42
323.83	18.6
324.043	16.55
324.256	4.27
324.469	-30.55
324.683	6.31
324.896	6.31
325.109	69.8
325.322	18.6
325.535	-14.17
325.748	28.84
325.962	55.47
326.175	4.27
326.388	26.79
326.601	39.08
326.814	-1.88
327.027	-55.12
327.24	55.47
327.453	-8.02
327.666	41.13
327.879	34.99
328.092	67.75
328.305	-32.6
328.518	-38.74
328.731	30.89
328.944	41.13
329.157	20.65
329.37	41.13
329.583	8.36
329.796	88.23
330.009	18.6
330.222	49.32
330.435	20.65
330.648	-26.45
330.861	8.36
331.073	-16.21
331.286	137.38
331.499	102.57
331.712	12.46
331.925	57.51
332.138	8.36
332.35	24.75
332.563	6.31
332.776	30.89
332.989	6.31
333.202	45.23
333.414	10.41
333.627	8.36
333.84	-5.97
334.053	59.56
334.265	-30.55
334.478	20.65
334.691	16.55
334.903	6.31
335.116	-18.26
335.329	-12.12
335.541	-26.45
335.754	53.42
335.966	45.23
336.179	-20.31
336.392	47.27
336.604	12.46
336.817	22.7
337.029	-5.97
337.242	-5.97
337.454	104.62
337.667	-8.02
337.88	55.47
338.092	10.41
338.305	14.51
338.517	2.22
338.729	14.51
338.942	63.66
339.154	-22.36
339.367	2.22
339.579	20.65
339.792	8.36
340.004	14.51
340.217	30.89
340.429	-14.17
340.641	-32.6
340.854	-24.4
341.066	-26.45
341.278	53.42
341.491	55.47
341.703	-42.84
341.915	-8.02
342.128	61.61
342.34	26.79
342.552	32.94
342.764	43.18
342.977	63.66
343.189	49.32
343.401	-30.55
343.613	-3.93
343.826	-3.93
344.038	-14.17
344.25	51.37
344.462	28.84
344.674	59.56
344.886	67.75
345.099	61.61
345.311	63.66
345.523	39.08
345.735	-24.4
345.947	73.9
346.159	-42.84
346.371	-16.21
346.583	-69.46
346.795	-16.21
347.007	-18.26
347.219	20.65
347.431	-8.02
347.643	-5.97
347.855	22.7
348.067	16.55
348.279	-1.88
348.491	32.94
348.703	49.32
348.915	6.31
349.127	55.47
349.339	2.22
349.551	-1.88
349.763	53.42
349.975	-48.98
350.187	26.79
350.399	-46.93
350.61	-28.5
350.822	6.31
351.034	53.42
351.246	24.75
351.458	32.94
351.669	57.51
351.881	63.66
352.093	-36.69
352.305	114.86
352.517	-22.36
352.728	82.09
352.94	14.51
353.152	-48.98
353.363	12.46
353.575	2.22
353.787	77.99
353.999	135.34
354.21	-18.26
354.422	2.22
354.633	-8.02
354.845	-1.88
355.057	20.65
355.268	22.7
355.48	26.79
355.692	37.03
355.903	22.7
356.115	49.32
356.326	14.51
356.538	-22.36
356.749	24.75
356.961	112.81
357.172	6.31
357.384	-8.02
357.595	-22.36
357.807	43.18
358.018	98.47
358.23	6.31
358.441	12.46
358.653	16.55
358.864	20.65
359.075	47.27
359.287	-22.36
359.498	18.6
359.709	53.42
359.921	-3.93
360.132	20.65
360.344	82.09
360.555	57.51
360.766	8.36
360.977	28.84
361.189	80.04
361.4	90.28
361.611	10.41
361.823	-18.26
362.034	61.61
362.245	8.36
362.456	63.66
362.667	-42.84
362.879	0.17
363.09	51.37
363.301	2.22
363.512	32.94
363.723	22.7
363.935	-3.93
364.146	0.17
364.357	14.51
364.568	28.84
364.779	80.04
364.99	26.79
365.201	-5.97
365.412	80.04
365.623	-36.69
365.834	4.27
366.045	0.17
366.256	-71.51
366.467	98.47
366.678	34.99
366.889	-10.07
367.1	145.58
367.311	86.19
367.522	24.75
367.733	39.08
367.944	-55.12
368.155	-30.55
368.366	104.62
368.577	65.71
368.788	8.36
368.999	55.47
369.209	-26.45
369.42	47.27
369.631	94.38
369.842	14.51
370.053	61.61
370.264	75.95
370.474	-65.36
370.685	116.9
370.896	30.89
371.107	12.46
371.317	20.65
371.528	24.75
371.739	28.84
371.95	-57.17
372.16	0.17
372.371	-18.26
372.582	-14.17
372.792	45.23
373.003	18.6
373.214	18.6
373.424	-5.97
373.635	32.94
373.846	53.42
374.056	67.75
374.267	26.79
374.477	41.13
374.688	-12.12
374.898	-14.17
375.109	0.17
375.319	51.37
375.53	16.55
375.74	-28.5
375.951	4.27
376.161	34.99
376.372	22.7
376.582	14.51
376.793	20.65
377.003	37.03
377.214	55.47
377.424	-8.02
377.635	106.67
377.845	-18.26
378.055	63.66
378.266	37.03
378.476	49.32
378.686	-34.64
378.897	45.23
379.107	28.84
379.317	24.75
379.528	-3.93
379.738	4.27
379.948	39.08
380.158	-3.93
380.369	-3.93
380.579	73.9
380.789	8.36
380.999	26.79
381.21	24.75
381.42	22.7
381.63	-34.64
381.84	-5.97
382.05	71.85
382.261	32.94
382.471	6.31
382.681	10.41
382.891	82.09
383.101	39.08
383.311	63.66
383.521	55.47
383.731	18.6
383.941	47.27
384.151	-44.88
384.361	18.6
384.571	49.32
384.781	47.27
384.991	65.71
385.201	30.89
385.411	-16.21
385.621	4.27
385.831	63.66
386.041	24.75
386.251	-8.02
386.461	22.7
386.671	49.32
386.881	45.23
387.091	53.42
387.301	22.7
387.511	41.13
387.72	30.89
387.93	14.51
388.14	-51.03
388.35	61.61
388.56	-28.5
388.769	-28.5
388.979	10.41
389.189	84.14
389.399	32.94
389.609	32.94
389.818	22.7
390.028	-30.55
390.238	22.7
390.447	30.89
390.657	-5.97
390.867	-8.02
391.076	20.65
391.286	49.32
391.496	6.31
391.705	37.03
391.915	63.66
392.125	55.47
392.334	39.08
392.544	116.9
392.753	14.51
392.963	-14.17
393.172	-34.64
393.382	37.03
393.591	69.8
393.801	-3.93
394.01	94.38
394.22	24.75
394.429	-42.84
394.639	-3.93
394.848	63.66
395.058	106.67
395.267	41.13
395.477	82.09
395.686	41.13
395.895	24.75
396.105	112.81
396.314	41.13
396.524	51.37
396.733	6.31
396.942	37.03
397.152	55.47
397.361	73.9
397.57	45.23
397.78	47.27
397.989	37.03
398.198	86.19
398.407	26.79
398.617	65.71
398.826	51.37
399.035	39.08
399.244	84.14
399.453	6.31
399.663	90.28
399.872	45.23
400.081	37.03
400.29	82.09
400.499	6.31
400.708	26.79
400.917	34.99
401.127	28.84
401.336	73.9
401.545	59.56
401.754	30.89
401.963	131.24
402.172	123.05
402.381	-14.17
402.59	-14.17
402.799	26.79
403.008	59.56
403.217	104.62
403.426	-3.93
403.635	82.09
403.844	14.51
404.053	32.94
404.262	71.85
404.471	69.8
404.68	10.41
404.888	104.62
405.097	41.13
405.306	90.28
405.515	4.27
405.724	145.58
405.933	108.71
406.142	96.43
406.35	96.43
406.559	110.76
406.768	65.71
406.977	155.82
407.185	123.05
407.394	125.1
407.603	104.62
407.812	116.9
408.02	151.72
408.229	166.06
408.438	82.09
408.646	123.05
408.855	151.72
409.064	209.06
409.272	137.38
409.481	106.67
409.69	147.62
409.898	182.44
410.107	116.9
410.315	151.72
410.524	114.86
410.733	188.58
410.941	116.9
411.15	254.12
411.358	198.82
411.567	221.35
411.775	254.12
411.984	172.2
412.192	219.3
412.401	180.39
412.609	225.45
412.818	264.36
413.026	241.83
413.234	293.03
413.443	237.74
413.651	352.42
413.86	325.8
414.068	366.76
414.276	368.81
414.485	288.93
414.693	354.47
414.901	350.37
415.11	391.33
415.318	311.46
415.526	401.57
415.734	362.66
415.943	360.61
416.151	442.53
416.359	372.9
416.567	432.29
416.776	477.35
416.984	520.35
417.192	436.39
417.4	483.49
417.608	573.6
417.817	512.16
418.025	522.4
418.233	686.24
418.441	678.05
418.649	651.42
418.857	696.48
419.065	682.14
419.273	645.28
419.481	762.02
419.689	794.78
419.897	835.74
420.105	827.55
420.313	755.87
420.521	929.95
420.729	786.59
420.937	880.8
421.145	841.89
421.353	927.9
421.561	1040.54
421.769	1083.55
421.977	1022.11
422.185	1099.93
422.393	1077.4
422.601	1210.52
422.809	1220.76
423.017	1255.58
423.224	1231
423.432	1386.65
423.64	1362.07
423.848	1448.08
424.056	1456.28
424.263	1613.97
424.471	1513.62
424.679	1591.44
424.887	1587.35
425.094	1681.55
425.302	1833.1
425.51	1722.51
425.718	1880.21
425.925	1718.42
426.133	1888.4
426.341	1998.99
426.548	2044.04
426.756	2031.76
426.964	2017.42
427.171	2216.07
427.379	2283.66
427.586	2390.15
427.794	2341
428.001	2570.37
428.209	2721.92
428.417	2672.77
428.624	2662.53
428.832	2742.4
429.039	2670.72
429.247	2715.78
429.454	3092.6
429.662	3104.89
429.869	2898.05
430.076	3293.3
430.284	3127.42
430.491	3287.16
430.699	3504.25
430.906	3479.67
431.114	3442.81
431.321	3543.16
431.528	3752.05
431.736	4067.44
431.943	3967.09
432.15	4032.62
432.358	4034.67
432.565	4300.91
432.772	4196.46
432.979	4438.12
433.187	4534.37
433.394	4565.09
433.601	4935.78
433.808	4888.67
434.016	4810.85
434.223	5130.33
434.43	5353.56
434.637	5306.46
434.844	5478.49
435.052	5683.28
435.259	5613.65
435.466	5728.34
435.673	5531.73
435.88	5980.24
436.087	6426.7
436.294	6529.1
436.501	6205.52
436.708	6340.68
436.915	6510.66
437.122	6998.08
437.329	6957.12
437.537	7071.81
437.743	7319.61
437.95	7034.94
438.157	7508.02
438.364	7784.5
438.571	7575.61
438.778	7798.84
438.985	8493.1
439.192	7921.71
439.399	8116.27
439.606	8138.8
439.813	8788
440.02	9181.21
440.227	8962.08
440.433	8955.94
440.64	9297.95
440.847	9048.1
441.054	9355.29
441.261	9893.91
441.467	9920.53
441.674	10293.26
441.881	10606.6
442.088	10549.26
442.294	10356.75
442.501	10805.25
442.708	10864.64
442.914	11378.69
443.121	11868.15
443.328	11491.32
443.534	12228.59
443.741	12062.71
443.948	11880.44
444.154	12799.98
444.361	12564.46
444.568	12828.65
444.774	12746.73
444.981	12945.38
445.187	13250.53
445.394	13959.13
445.6	13711.32
445.807	15112.13
446.013	14311.38
446.22	14751.69
446.426	15114.18
446.633	15386.56
446.839	15763.39
447.046	15171.52
447.252	16056.25
447.459	16144.31
447.665	16211.89
447.871	16809.9
448.078	17690.52
448.284	16641.96
448.491	17026.98
448.697	17751.96
448.903	18085.78
449.11	18249.62
449.316	17713.05
449.522	18522
449.728	18743.18
449.935	18876.3
450.141	18861.96
450.347	19300.23
450.553	18876.3
450.76	19005.32
450.966	19812.22
451.172	19443.59
451.378	20109.18
451.584	19711.87
451.791	19900.28
451.997	19881.85
452.203	20559.73
452.409	20488.05
452.615	20195.19
452.821	19664.77
453.027	19382.15
453.233	20469.62
453.44	19910.52
453.646	19855.23
453.852	19996.54
454.058	20082.55
454.264	19437.44
454.47	19853.18
454.676	19896.19
454.882	20256.63
455.088	18503.57
455.294	18796.43
455.5	19081.1
455.705	19365.76
455.911	18481.04
456.117	17899.42
456.323	18046.87
456.529	17092.52
456.735	17758.11
456.941	17160.1
457.147	17106.85
457.352	16398.26
457.558	16406.45
457.764	16248.75
457.97	16076.73
458.176	15658.94
458.381	15634.36
458.587	15110.08
458.793	14893
458.999	14082
459.204	15036.36
459.41	14772.17
459.616	13795.29
459.821	13639.64
460.027	13729.75
460.233	13410.27
460.438	12992.48
460.644	12799.98
460.85	12310.51
461.055	12077.04
461.261	12029.94
461.466	11118.59
461.672	10752.01
461.878	11614.2
462.083	10756.1
462.289	10786.82
462.494	10506.25
462.7	10115.09
462.905	9789.46
463.111	10121.23
463.316	10326.03
463.522	9859.09
463.727	10047.51
463.932	9973.78
464.138	9850.9
464.343	9642.01
464.549	9594.9
464.754	9840.66
464.959	9943.06
465.165	9754.65
465.37	9388.06
465.575	9105.44
465.781	9508.89
465.986	9535.51
466.191	9084.96
466.397	9046.05
466.602	8491.05
466.807	9029.66
467.012	9019.43
467.218	8857.64
467.423	8812.58
467.628	9027.62
467.833	9291.8
468.038	8788
468.244	8767.52
468.449	8957.99
468.654	8652.84
468.859	8525.86
469.064	8409.13
469.269	8099.89
469.474	8290.35
469.679	8464.43
469.885	8073.26
470.09	8263.72
470.295	8290.35
470.5	8075.31
470.705	8054.83
470.91	7981.1
471.115	7819.32
471.32	7829.56
471.525	7786.55
471.73	7643.19
471.935	7761.97
472.139	7524.41
472.344	7716.92
472.549	7415.87
472.754	7473.21
472.959	7206.97
473.164	7172.16
473.369	7071.81
473.574	7264.32
473.778	7258.17
473.983	7241.79
474.188	7149.63
474.393	6776.9
474.598	6824
474.802	6832.19
475.007	6754.37
475.212	6613.06
475.417	6422.6
475.621	6340.68
475.826	6559.81
476.031	6330.44
476.235	6211.66
476.44	6328.39
476.645	6189.13
476.849	6301.77
477.054	6004.82
477.259	5949.52
477.463	5957.71
477.668	5933.14
477.872	6078.54
478.077	5699.67
478.282	5644.37
478.486	5664.85
478.691	5697.62
478.895	5773.39
479.1	5673.04
479.304	5675.09
479.509	5535.83
479.713	5597.27
479.918	5415
480.122	5425.24
480.326	5347.42
480.531	5369.94
480.735	5394.52
480.94	5263.45
481.144	5335.13
481.348	5177.44
481.553	5349.47
481.757	5212.25
481.961	5226.59
482.166	5226.59
482.37	5275.74
482.574	5167.2
482.778	5222.49
482.983	5152.86
483.187	5095.52
483.391	5322.84
483.595	5177.44
483.8	5324.89
484.004	5240.92
484.208	5339.23
484.412	5097.56
484.616	5320.79
484.821	5124.19
485.025	5146.72
485.229	5187.68
485.433	5060.7
485.637	5128.28
485.841	5093.47
486.045	5285.98
486.249	5130.33
486.453	5165.15
486.657	5136.48
486.861	5210.2
487.065	5253.21
487.269	5027.93
487.473	5011.55
487.677	5210.2
487.881	5128.28
488.085	5134.43
488.289	5245.02
488.493	5140.57
488.697	5087.33
488.901	5202.01
489.105	5204.06
489.309	5099.61
489.512	5255.26
489.716	5292.12
489.92	5249.11
490.124	5154.91
490.328	5380.18
490.531	5269.59
490.735	5222.49
490.939	5359.7
491.143	5343.32
491.346	5349.47
491.55	5484.63
491.754	5306.46
491.958	5470.3
492.161	5435.48
492.365	5412.95
492.569	5560.41
492.772	5371.99
492.976	5564.5
493.18	5474.39
493.383	5668.95
493.587	5587.03
493.79	5752.91
493.994	5490.77
494.197	5707.86
494.401	5777.49
494.605	5703.76
494.808	5843.03
495.012	5648.47
495.215	5888.08
495.419	5920.85
495.622	5998.67
495.825	6064.21
496.029	6053.97
496.232	6250.57
496.436	6096.97
496.639	6336.59
496.843	6330.44
497.046	6543.43
497.249	6352.97
497.453	6570.05
497.656	6617.16
497.859	6563.91
498.063	6598.73
498.266	6889.54
498.469	6932.54
498.673	6846.53
498.876	6961.22
499.079	7233.6
499.282	7090.24
499.485	7512.12
499.689	7206.97
499.892	7252.03
500.095	7567.42
500.298	7551.03
500.501	7436.35
500.705	7882.8
500.908	7903.28
501.111	7956.53
501.314	7995.44
501.517	8161.33
501.72	8245.29
501.923	8171.57
502.126	8214.57
502.329	8566.82
502.532	8345.64
502.735	8630.31
502.938	8859.68
503.141	8812.58
503.344	8984.61
503.547	8863.78
503.75	9152.54
503.953	9265.18
504.156	9383.96
504.359	9369.63
504.562	9459.74
504.765	9799.7
504.968	9820.18
505.17	10008.59
505.373	9904.15
505.576	10233.87
505.779	10358.8
505.982	10444.81
506.185	10532.87
506.387	10532.87
506.59	10637.32
506.793	10749.96
506.996	10835.97
507.198	11116.55
507.401	11053.06
507.604	11180.03
507.807	11728.89
508.009	11560.95
508.212	11862.01
508.415	11749.37
508.617	12085.23
508.82	12122.1
509.022	11870.2
509.225	12386.29
509.428	12535.79
509.63	12558.32
509.833	12840.93
510.035	12924.9
510.238	13121.51
510.44	13447.13
510.643	13234.14
510.845	13363.17
511.048	13385.69
511.25	13807.58
511.453	13615.07
511.655	14122.96
511.858	13965.27
512.06	14153.68
512.262	14215.12
512.465	14325.71
512.667	14692.3
512.87	14798.79
513.072	14893
513.274	15196.1
513.477	15466.43
513.679	15253.44
513.881	15552.45
514.084	15749.05
514.286	15841.21
514.488	15830.97
514.69	16349.11
514.893	16199.6
515.095	16443.31
515.297	16670.64
515.499	16621.49
515.701	16875.43
515.904	17104.81
516.106	17209.25
516.308	17280.93
516.51	17504.16
516.712	17741.72
516.914	17848.22
517.116	18194.33
517.318	18341.78
517.52	18306.96
517.722	18556.82
517.925	18659.21
518.127	19044.23
518.329	19003.27
518.531	19220.36
518.733	19478.4
518.935	19515.26
519.136	19687.29
519.338	19871.61
519.54	20189.05
519.742	20473.71
519.944	20295.54
520.146	20602.74
520.348	20615.02
520.55	21110.63
520.752	21008.23
520.954	21423.97
521.155	21204.84
521.357	21755.74
521.559	21813.09
521.761	22126.43
521.963	22159.19
522.164	22288.21
522.366	22087.51
522.568	22472.53
522.77	22357.85
522.971	23109.45
523.173	23115.59
523.375	23060.3
523.576	23293.77
523.778	23131.98
523.98	23285.58
524.181	23568.2
524.383	23752.51
524.584	23879.49
524.786	24100.67
524.988	23822.14
525.189	24237.88
525.391	24323.9
525.592	24516.4
525.794	24536.88
525.995	24497.97
526.197	24715.06
526.398	24784.69
526.6	25020.2
526.801	25360.17
527.003	25280.3
527.204	25155.37
527.406	25460.52
527.607	25444.13
527.808	25657.12
528.01	25075.5
528.211	25657.12
528.412	26101.53
528.614	25818.91
528.815	26056.48
529.016	26197.79
529.218	25880.35
529.419	26089.24
529.62	26105.63
529.822	26109.72
530.023	26326.81
530.224	26375.96
530.425	26398.49
530.626	25878.3
530.828	26003.23
531.029	26742.55
531.23	26634
531.431	26369.82
531.632	26728.21
531.833	26550.04
532.035	26634
532.236	26699.54
532.437	26883.86
532.638	26834.71
532.839	26941.2
533.04	26885.9
533.241	26539.8
533.442	27227.92
533.643	27031.31
533.844	26707.73
534.045	27008.78
534.246	26529.56
534.447	27076.37
534.648	26781.46
534.849	27119.37
535.05	26928.91
535.251	27150.09
535.451	27008.78
535.652	26941.2
535.853	26763.03
536.054	27289.35
536.255	27031.31
536.456	26746.64
536.657	27328.27
536.857	26812.18
537.058	26832.66
537.259	26947.34
537.46	26943.25
537.66	27004.69
537.861	26763.03
538.062	26961.68
538.263	27266.83
538.463	27201.29
538.664	27115.28
538.865	26943.25
539.065	26959.63
539.266	26951.44
539.466	27291.4
539.667	26887.95
539.868	27156.24
540.068	27227.92
540.269	27021.07
540.469	27111.18
540.67	26851.09
540.87	27019.02
541.071	27014.93
541.271	27006.73
541.472	27123.47
541.672	27135.76
541.873	26726.16
542.073	26736.4
542.274	27047.69
542.474	27358.99
542.675	26689.3
542.875	27053.84
543.075	26885.9
543.276	26799.89
543.476	27019.02
543.676	26677.01
543.877	27080.46
544.077	26820.37
544.277	27016.97
544.478	26816.27
544.678	27084.56
544.878	26709.78
545.078	26752.79
545.279	26644.24
545.479	26607.38
545.679	26693.4
545.879	27002.64
546.079	26595.09
546.28	26695.44
546.48	26933.01
546.68	26883.86
546.88	26822.42
547.08	26736.4
547.28	26812.18
547.48	26658.58
547.68	26937.1
547.88	26437.4
548.081	26717.97
548.281	26736.4
548.481	26504.98
548.681	26963.73
548.881	26634
549.081	26767.12
549.28	26607.38
549.48	26570.52
549.68	26652.44
549.88	26939.15
550.08	26638.1
550.28	26658.58
550.48	26570.52
550.68	27039.5
550.88	26595.09
551.08	26523.41
551.279	26646.29
551.479	26740.5
551.679	26529.56
551.879	26375.96
552.079	26699.54
552.278	26355.48
552.478	26625.81
552.678	26527.51
552.878	26605.33
553.077	26629.91
553.277	26697.49
553.477	26640.15
553.676	26187.55
553.876	26488.6
554.076	26431.26
554.275	26347.29
554.475	26339.1
554.674	26410.78
554.874	26218.27
555.074	26076.96
555.273	26228.51
555.473	26341.14
555.672	26117.92
555.872	26238.75
556.071	26277.66
556.271	26335
556.47	25974.56
556.67	26060.57
556.869	26048.29
557.068	25816.86
557.268	25868.06
557.467	25952.03
557.667	25814.82
557.866	25915.17
558.065	26117.92
558.265	25775.91
558.464	25601.83
558.663	26040.09
558.863	25646.88
559.062	25937.69
559.261	25468.71
559.461	25917.22
559.66	25423.65
559.859	25691.94
560.058	25339.69
560.258	25714.47
560.457	25458.47
560.656	25704.23
560.855	25261.87
561.054	25585.44
561.253	25235.24
561.453	25208.62
561.652	25057.07
561.851	25503.53
562.05	25175.85
562.249	25190.19
562.448	25251.63
562.647	25333.54
562.846	25057.07
563.045	24880.94
563.244	24844.08
563.443	25063.21
563.642	24809.26
563.841	25102.12
564.04	24592.18
564.239	24815.41
564.438	24780.59
564.637	24731.44
564.836	24629.04
565.035	24418.1
565.234	24567.6
565.432	24411.96
565.631	24266.55
565.83	24487.73
566.029	24463.16
566.228	24356.66
566.427	24291.13
566.625	24248.12
566.824	23877.44
567.023	24209.21
567.222	23824.19
567.42	24035.13
567.619	23672.64
567.818	24002.36
568.016	23797.57
568.215	23922.49
568.414	23813.95
568.612	24016.7
568.811	23768.9
569.01	24018.75
569.208	23207.75
569.407	23383.88
569.605	23183.18
569.804	23340.87
570.002	23131.98
570.201	23181.13
570.4	22910.8
570.598	22921.04
570.797	22941.52
570.995	23064.39
571.193	22966.09
571.392	23056.2
571.59	22882.13
571.789	22548.31
571.987	22603.6
572.186	22783.82
572.384	22617.94
572.582	22601.55
572.781	22558.55
572.979	22230.87
573.177	22316.89
573.376	22452.05
573.574	22151
573.772	22095.71
573.971	22116.19
574.169	22118.23
574.367	21919.58
574.565	21995.36
574.763	22009.69
574.962	21993.31
575.16	21395.3
575.358	21663.58
575.556	21516.13
575.754	21798.75
575.952	21317.48
576.151	21671.78
576.349	21501.79
576.547	21534.56
576.745	21239.65
576.943	21116.78
577.141	21047.15
577.339	21159.78
577.537	21100.39
577.735	21075.82
577.933	20674.42
578.131	21024.62
578.329	20873.07
578.527	20715.37
578.725	20959.08
578.923	20756.33
579.121	20541.3
579.319	20721.52
579.516	20733.81
579.714	20662.13
579.912	20424.56
580.11	20404.08
580.308	20338.55
580.506	20453.23
580.704	19992.44
580.901	20330.36
581.099	20420.47
581.297	19937.15
581.495	20135.8
581.692	20045.69
581.89	19806.08
582.088	20066.17
582.285	19761.02
582.483	19881.85
582.681	19777.4
582.878	19816.32
583.076	19384.19
583.274	19804.03
583.471	19578.75
583.669	19693.44
583.866	19371.91
584.064	19505.03
584.262	19431.3
584.459	19527.55
584.657	18980.75
584.854	19220.36
585.052	19261.32
585.249	19077
585.447	19165.06
585.644	18890.63
585.841	18884.49
586.039	19163.01
586.236	18788.24
586.434	18761.61
586.631	18630.54
586.828	18597.77
587.026	18816.91
587.223	18679.69
587.42	18423.7
587.618	18657.17
587.815	18315.16
588.012	18167.7
588.21	18163.61
588.407	18423.7
588.604	18243.48
588.801	18165.65
588.999	18093.97
589.196	17987.48
589.393	18005.91
589.59	17780.64
589.787	17635.23
589.984	17772.44
590.182	17706.91
590.379	17842.07
590.576	17969.05
590.773	17747.87
590.97	17545.12
591.167	17555.36
591.364	17422.24
591.561	17371.04
591.758	17006.5
591.955	16977.83
592.152	17485.73
592.349	17094.57
592.546	17149.86
592.743	17188.77
592.94	17016.74
593.137	17014.7
593.334	17168.29
593.531	16762.79
593.727	17020.84
593.924	16783.27
594.121	16607.15
594.318	16881.58
594.515	16598.96
594.712	16492.46
594.908	16406.45
595.105	16644.01
595.302	16365.49
595.499	16373.68
595.696	16324.53
595.892	16250.8
596.089	16428.98
596.286	16279.47
596.482	16267.19
596.679	15896.5
596.876	16347.06
597.072	16058.29
597.269	15998.9
597.466	16027.57
597.662	15865.78
597.859	15896.5
598.055	16048.05
598.252	15775.67
598.448	15615.93
598.645	15722.43
598.841	15421.38
599.038	15566.78
599.234	15599.55
599.431	15589.31
599.627	15325.12
599.824	15411.14
600.02	15333.31
600.217	15187.91
600.413	15165.38
600.609	15058.88
600.806	14913.48
601.002	15079.36
601.198	15011.78
601.395	15011.78
601.591	14995.4
601.787	14976.97
601.984	14870.47
602.18	15044.55
602.376	14688.2
602.572	14702.54
602.769	14720.97
602.965	14610.38
603.161	14622.67
603.357	14434.25
603.553	14526.41
603.75	14559.18
603.946	14442.45
604.142	14579.66
604.338	14032.85
604.534	14393.3
604.73	14188.5
604.926	14317.52
605.122	14239.7
605.318	14149.59
605.514	13942.74
605.71	13952.98
605.906	13965.27
606.102	13893.59
606.298	13862.87
606.494	13916.12
606.69	13866.97
606.886	13723.61
607.082	13465.57
607.278	13879.25
607.474	13408.22
607.67	13613.02
607.866	13465.57
608.062	13809.62
608.257	13428.7
608.453	13477.85
608.649	13500.38
608.845	13195.23
609.041	13389.79
609.236	13457.37
609.432	13416.41
609.628	13373.41
609.824	13295.58
610.019	13402.08
610.215	13082.6
610.411	13191.14
610.606	13092.83
610.802	13184.99
610.998	13201.38
611.193	12918.76
611.389	13139.94
611.584	13121.51
611.78	13084.64
611.976	12935.14
612.171	12824.55
612.367	12926.95
612.562	12707.82
612.758	12636.14
612.953	12728.3
613.149	12722.15
613.344	12789.74
613.539	12802.02
613.735	12666.86
613.93	12879.85
614.126	12480.49
614.321	12818.41
614.517	12650.47
614.712	12615.66
614.907	12646.38
615.103	12830.69
615.298	12447.72
615.493	12425.2
615.688	12410.86
615.884	12476.4
616.079	12179.44
616.274	12369.9
616.47	12343.28
616.665	12275.7
616.86	12324.85
617.055	12052.47
617.25	12179.44
617.445	12318.7
617.641	12027.89
617.836	12124.15
618.031	12193.78
618.226	12152.82
618.421	11853.81
618.616	12009.46
618.811	11808.76
619.006	11974.64
619.201	11800.57
619.396	11859.96
619.591	11587.58
619.786	11810.81
619.981	11546.62
620.176	11552.76
620.371	11489.28
620.566	11458.56
620.761	11298.81
620.956	11505.66
621.151	11247.62
621.346	11161.6
621.541	10962.95
621.735	11280.38
621.93	11128.83
622.125	11018.24
622.32	10831.88
622.515	10973.19
622.709	10762.25
622.904	10878.98
623.099	10733.57
623.294	10815.49
623.488	10582.03
623.683	10622.98
623.878	10565.64
624.072	10651.66
624.267	10453
624.462	10338.32
624.656	10311.69
624.851	10301.45
625.046	10110.99
625.24	10215.44
625.435	10053.65
625.629	10067.99
625.824	10033.17
626.018	10106.9
626.213	9664.54
626.407	9951.25
626.602	9650.2
626.796	9760.79
626.991	9852.95
627.185	9930.77
627.38	9461.79
627.574	9508.89
627.768	9146.4
627.963	9396.25
628.157	9433.11
628.352	9340.96
628.546	9160.73
628.74	9459.74
628.935	9265.18
629.129	9328.67
629.323	9121.82
629.517	9025.57
629.712	9013.28
629.906	9052.19
630.1	8681.51
630.294	8992.8
630.489	8785.96
630.683	8788
630.877	8675.37
631.071	8732.71
631.265	8656.93
631.459	8607.78
631.653	8452.14
631.848	8552.49
632.042	8419.37
632.236	8546.34
632.43	8425.51
632.624	8386.6
632.818	8364.08
633.012	8192.05
633.206	8241.2
633.4	8237.1
633.594	8120.37
633.788	8216.62
633.982	8046.64
634.176	8142.89
634.369	7981.1
634.563	7936.05
634.757	7843.89
634.951	7870.51
635.145	7665.72
635.339	7606.33
635.533	7757.88
635.726	7831.6
635.92	7567.42
636.114	7462.97
636.308	7755.83
636.501	7417.91
636.695	7399.48
636.889	7366.71
637.083	7419.96
637.276	7335.99
637.47	7249.98
637.664	7266.36
637.857	7229.5
638.051	7290.94
638.244	7135.29
638.438	7123.01
638.632	7057.47
638.825	6961.22
639.019	7053.38
639.212	6928.45
639.406	6879.3
639.599	6762.56
639.793	7055.42
639.986	6809.67
640.18	6912.07
640.373	6725.7
640.567	6553.67
640.76	6834.24
640.954	6594.63
641.147	6568.01
641.34	6531.14
641.534	6578.25
641.727	6664.26
641.92	6467.66
642.114	6461.51
642.307	6367.31
642.5	6285.39
642.694	6139.98
642.887	6248.52
643.08	6281.29
643.273	6172.75
643.467	6160.46
643.66	6070.35
643.853	5988.43
644.046	5996.62
644.239	5947.47
644.432	5924.94
644.626	5929.04
644.819	5982.29
645.012	5886.03
645.205	5881.94
645.398	5863.51
645.591	5830.74
645.784	5804.11
645.977	5648.47
646.17	5562.45
646.363	5466.2
646.556	5599.32
646.749	5531.73
646.942	5496.92
647.135	5482.58
647.328	5562.45
647.521	5550.17
647.714	5310.55
647.907	5460.06
648.099	5191.77
648.292	5273.69
648.485	5236.83
648.678	5275.74
648.871	5310.55
649.064	5029.98
649.256	5091.42
649.449	5152.86
649.642	5079.13
649.835	5199.96
650.027	5027.93
650.22	4939.87
650.413	4847.71
650.605	5036.13
650.798	4989.02
650.991	4862.05
651.183	4864.1
651.376	4880.48
651.568	4894.82
651.761	4741.22
651.954	4638.82
652.146	4677.73
652.339	4681.83
652.531	4593.76
652.724	4784.23
652.916	4634.72
653.109	4565.09
653.301	4665.44
653.494	4507.75
653.686	4503.65
653.879	4485.22
654.071	4552.81
654.263	4436.07
654.456	4517.99
654.648	4569.19
654.84	4470.89
655.033	4415.59
655.225	4384.87
655.417	4178.03
655.61	4276.33
655.802	4374.63
655.994	4296.81
656.186	4329.58
656.379	4282.47
656.571	4067.44
656.763	4106.35
656.955	4149.36
657.148	4137.07
657.34	4055.15
657.532	3946.61
657.724	3973.23
657.916	3940.46
658.108	3874.93
658.3	3924.08
658.492	3995.76
658.684	3993.71
658.876	3922.03
659.068	3973.23
659.26	3758.19
659.452	3813.49
659.644	3821.68
659.836	3668.08
660.028	3819.63
660.22	3760.24
660.412	3676.27
660.604	3756.15
660.796	3641.46
660.988	3672.18
661.18	3661.94
661.372	3545.2
661.563	3668.08
661.755	3561.59
661.947	3616.88
662.139	3414.13
662.331	3487.86
662.522	3524.72
662.714	3420.28
662.906	3569.78
663.097	3334.26
663.289	3430.52
663.481	3471.48
663.673	3483.77
663.864	3342.46
664.056	3367.03
664.247	3385.46
664.439	3231.87
664.631	3250.3
664.822	3295.35
665.014	3227.77
665.205	3276.92
665.397	3188.86
665.588	3258.49
665.78	3319.93
665.971	3213.43
666.163	3143.8
666.354	3070.08
666.546	3192.95
666.737	3149.95
666.929	3149.95
667.12	3074.17
667.311	3078.27
667.503	3086.46
667.694	3151.99
667.885	3039.36
668.077	2908.29
668.268	2896
668.459	3004.54
668.651	3084.41
668.842	2924.67
669.033	2844.8
669.224	2898.05
669.416	2945.15
669.607	2910.33
669.798	2941.05
669.989	2902.14
670.18	2840.7
670.371	2809.98
670.563	2809.98
670.754	2844.8
670.945	2848.9
671.136	2799.74
671.327	2662.53
671.518	2662.53
671.709	2644.1
671.9	2666.63
672.091	2726.02
672.282	2693.25
672.473	2709.63
672.664	2707.59
672.855	2648.19
673.046	2719.87
673.237	2711.68
673.428	2609.28
673.619	2650.24
673.809	2590.85
674	2693.25
674.191	2584.71
674.382	2601.09
674.573	2625.67
674.764	2564.23
674.954	2590.85
675.145	2427.01
675.336	2480.26
675.527	2568.32
675.717	2580.61
675.908	2562.18
676.099	2412.68
676.289	2459.78
676.48	2533.51
676.671	2476.16
676.861	2523.27
677.052	2343.05
677.243	2656.39
677.433	2400.39
677.624	2457.73
677.814	2429.06
678.005	2406.53
678.195	2480.26
678.386	2424.97
678.576	2429.06
678.767	2332.81
678.957	2373.77
679.148	2519.17
679.338	2381.96
679.529	2386.05
679.719	2427.01
679.909	2508.93
680.1	2275.46
680.29	2250.89
680.481	2392.2
680.671	2271.37
680.861	2304.14
681.052	2343.05
681.242	2353.29
681.432	2355.33
681.622	2300.04
681.813	2295.94
682.003	2320.52
682.193	2261.13
682.383	2412.68
682.573	2357.38
682.764	2308.23
682.954	2265.22
683.144	2283.66
683.334	2289.8
683.524	2205.83
683.714	2367.62
683.904	2375.81
684.094	2341
684.284	2351.24
684.474	2261.13
684.664	2326.66
684.854	2355.33
685.044	2173.07
685.234	2226.31
685.424	2341
685.614	2261.13
685.804	2238.6
685.994	2109.58
686.184	2168.97
686.374	2252.94
686.564	2222.22
686.753	2302.09
686.943	2216.07
687.133	2189.45
687.323	2144.39
687.513	2224.26
687.702	2201.74
687.892	2197.64
688.082	2189.45
688.272	2166.92
688.461	2144.39
688.651	2254.98
688.841	2205.83
689.03	2101.39
689.22	2275.46
689.41	2070.67
689.599	2144.39
689.789	2113.67
689.979	2185.35
690.168	2230.41
690.358	2179.21
690.547	2085
690.737	2064.52
690.926	2082.95
691.116	2111.63
691.305	2148.49
691.495	2138.25
691.684	2048.14
691.874	2128.01
692.063	2087.05
692.252	2044.04
692.442	2085
692.631	1974.41
692.82	2001.04
693.01	2150.54
693.199	2009.23
693.388	2138.25
693.578	2058.38
693.767	2031.76
693.956	2003.08
694.146	1998.99
694.335	1990.8
694.524	1884.3
694.713	2066.57
694.902	1996.94
695.092	2123.91
695.281	1931.41
695.47	1945.74
695.659	1947.79
695.848	1861.77
696.037	1939.6
696.226	1919.12
696.415	2017.42
696.604	1900.69
696.793	1859.73
696.982	1958.03
697.171	1951.88
697.36	2025.61
697.549	1962.12
697.738	1955.98
697.927	1878.16
698.116	1994.89
698.305	1775.76
698.494	1843.34
698.683	1960.08
698.872	1869.97
699.061	1927.31
699.25	1951.88
699.438	1861.77
699.627	1958.03
699.816	1898.64
700.005	1876.11
700.193	1888.4
700.382	1943.69
700.571	1810.58
700.76	1865.87
700.948	1824.91
701.137	1882.25
701.326	1849.49
701.514	1816.72
701.703	1843.34
701.892	1783.95
702.08	1894.54
702.269	1777.81
702.457	1824.91
702.646	1900.69
702.834	1824.91
703.023	1824.91
703.212	1777.81
703.4	1759.38
703.589	1863.82
703.777	1790.1
703.965	1724.56
704.154	1829.01
704.342	1880.21
704.531	1767.57
704.719	1763.47
704.907	1863.82
705.096	1788.05
705.284	1720.46
705.472	1751.18
705.661	1693.84
705.849	1659.03
706.037	1738.9
706.226	1753.23
706.414	1763.47
706.602	1745.04
706.79	1833.1
706.979	1747.09
707.167	1685.65
707.355	1720.46
707.543	1831.05
707.731	1706.13
707.919	1761.42
708.107	1597.59
708.296	1755.28
708.484	1689.74
708.672	1712.27
708.86	1706.13
709.048	1685.65
709.236	1728.66
709.424	1659.03
709.612	1699.98
709.8	1611.92
709.988	1646.74
710.176	1691.79
710.364	1722.51
710.551	1683.6
710.739	1663.12
710.927	1679.51
711.115	1609.87
711.303	1728.66
711.491	1691.79
711.679	1726.61
711.866	1699.98
712.054	1742.99
712.242	1646.74
712.43	1599.63
712.617	1646.74
712.805	1636.5
712.993	1607.83
713.181	1589.39
713.368	1669.27
713.556	1626.26
713.744	1505.43
713.931	1628.31
714.119	1677.46
714.306	1646.74
714.494	1573.01
714.682	1687.7
714.869	1556.63
715.057	1640.59
715.244	1587.35
715.432	1634.45
715.619	1646.74
715.807	1697.94
715.994	1628.31
716.182	1589.39
716.369	1628.31
716.556	1599.63
716.744	1511.57
716.931	1573.01
717.119	1579.15
717.306	1568.91
717.493	1521.81
717.681	1566.87
717.868	1530
718.055	1532.05
718.242	1556.63
718.43	1573.01
718.617	1554.58
718.804	1505.43
718.991	1624.21
719.179	1544.34
719.366	1542.29
719.553	1613.97
719.74	1587.35
719.927	1466.52
720.114	1474.71
720.301	1499.28
720.488	1527.96
720.676	1450.13
720.863	1511.57
721.05	1530
721.237	1511.57
721.424	1525.91
721.611	1472.66
721.798	1456.28
721.985	1566.87
722.172	1415.32
722.358	1585.3
722.545	1398.93
722.732	1400.98
722.919	1478.8
723.106	1497.24
723.293	1484.95
723.48	1495.19
723.667	1550.48
723.853	1474.71
724.04	1542.29
724.227	1360.02
724.414	1368.21
724.6	1454.23
724.787	1462.42
724.974	1394.84
725.161	1409.17
725.347	1364.12
725.534	1394.84
725.72	1431.7
725.907	1507.48
726.094	1474.71
726.28	1450.13
726.467	1439.89
726.653	1499.28
726.84	1396.89
727.027	1460.37
727.213	1351.83
727.4	1538.2
727.586	1423.51
727.773	1357.97
727.959	1472.66
728.145	1407.13
728.332	1357.97
728.518	1335.45
728.705	1431.7
728.891	1491.09
729.077	1333.4
729.264	1431.7
729.45	1409.17
729.636	1331.35
729.823	1341.59
730.009	1411.22
730.195	1382.55
730.382	1476.76
730.568	1357.97
730.754	1392.79
730.94	1452.18
731.126	1435.8
731.313	1370.26
731.499	1431.7
731.685	1394.84
731.871	1392.79
732.057	1458.32
732.243	1458.32
732.429	1384.6
732.615	1427.6
732.801	1400.98
732.987	1337.49
733.173	1419.41
733.359	1427.6
733.545	1487
733.731	1368.21
733.917	1333.4
734.103	1415.32
734.289	1466.52
734.475	1409.17
734.661	1296.53
734.847	1300.63
735.033	1341.59
735.219	1413.27
735.404	1360.02
735.59	1439.89
735.776	1400.98
735.962	1304.73
736.148	1366.17
736.333	1396.89
736.519	1304.73
736.705	1323.16
736.89	1296.53
737.076	1360.02
737.262	1419.41
737.447	1382.55
737.633	1368.21
737.819	1355.93
738.004	1370.26
738.19	1364.12
738.375	1353.88
738.561	1323.16
738.747	1439.89
738.932	1323.16
739.118	1378.45
739.303	1235.1
739.489	1274.01
739.674	1317.01
739.859	1337.49
740.045	1265.82
740.23	1349.78
740.416	1335.45
740.601	1308.82
740.786	1259.67
740.972	1255.58
741.157	1243.29
741.342	1278.1
741.528	1327.25
741.713	1341.59
741.898	1226.9
742.084	1175.7
742.269	1284.25
742.454	1163.42
742.639	1243.29
742.824	1341.59
743.01	1251.48
743.195	1251.48
743.38	1265.82
743.565	1267.86
743.75	1257.62
743.935	1300.63
744.12	1284.25
744.305	1134.75
744.49	1237.14
744.675	1259.67
744.86	1185.94
745.045	1243.29
745.23	1120.41
745.415	1206.42
745.6	1110.17
745.785	1144.99
745.97	1235.1
746.155	1173.66
746.34	1194.14
746.525	1187.99
746.71	1231
746.895	1126.55
747.079	1118.36
747.264	1155.23
747.449	1144.99
747.634	1104.03
747.819	1069.21
748.003	1050.78
748.188	1075.35
748.373	1138.84
748.557	1052.83
748.742	1136.79
748.927	1077.4
749.111	981.15
749.296	1065.11
749.481	1130.65
749.665	1163.42
749.85	975
750.034	1042.59
750.219	1097.88
750.404	1036.44
750.588	1067.16
750.773	983.2
750.957	972.96
751.141	985.24
751.326	968.86
751.51	989.34
751.695	1011.87
751.879	962.72
752.064	966.81
752.248	958.62
752.432	936.09
752.617	903.32
752.801	956.57
752.985	977.05
753.17	852.13
753.354	913.56
753.538	977.05
753.722	1044.63
753.907	934.04
754.091	901.28
754.275	870.56
754.459	848.03
754.643	870.56
754.828	874.65
755.012	891.04
755.196	788.64
755.38	802.97
755.564	845.98
755.748	811.17
755.932	942.24
756.116	817.31
756.3	860.32
756.484	811.17
756.668	833.69
756.852	792.73
757.036	815.26
757.22	878.75
757.404	839.84
757.588	745.63
757.772	794.78
757.956	739.49
758.14	792.73
758.323	741.54
758.507	671.9
758.691	819.36
758.875	786.59
759.059	762.02
759.242	731.3
759.426	766.11
759.61	766.11
759.794	671.9
759.977	723.1
760.161	729.25
760.345	688.29
760.528	690.34
760.712	802.97
760.895	682.14
761.079	743.58
761.263	678.05
761.446	657.57
761.63	682.14
761.813	710.82
761.997	741.54
762.18	665.76
762.364	710.82
762.547	565.41
762.731	653.47
762.914	719.01
763.098	659.62
763.281	700.58
763.464	628.9
763.648	702.62
763.831	686.24
764.015	655.52
764.198	669.86
764.381	602.27
764.564	686.24
764.748	628.9
764.931	622.75
765.114	616.61
765.297	643.23
765.481	587.94
765.664	661.66
765.847	669.86
766.03	653.47
766.213	565.41
766.397	630.95
766.58	626.85
766.763	528.55
766.946	571.55
767.129	637.09
767.312	583.84
767.495	592.03
767.678	575.65
767.861	526.5
768.044	622.75
768.227	571.55
768.41	559.27
768.593	630.95
768.776	518.31
768.959	655.52
769.142	538.79
769.324	555.17
769.507	608.42
769.69	546.98
769.873	526.5
770.056	544.93
770.239	602.27
770.421	559.27
770.604	506.02
770.787	485.54
770.97	600.23
771.152	559.27
771.335	510.11
771.518	460.96
771.7	546.98
771.883	573.6
772.066	551.07
772.248	520.35
772.431	561.31
772.613	542.88
772.796	551.07
772.978	610.47
773.161	506.02
773.343	493.73
773.526	444.58
773.708	524.45
773.891	471.2
774.073	557.22
774.256	585.89
774.438	448.68
774.621	442.53
774.803	403.62
774.985	473.25
775.168	481.44
775.35	503.97
775.532	460.96
775.715	491.68
775.897	506.02
776.079	495.78
776.261	432.29
776.444	442.53
776.626	440.48
776.808	508.07
776.99	389.28
777.173	415.91
777.355	463.01
777.537	379.04
777.719	389.28
777.901	458.92
778.083	383.14
778.265	438.44
778.447	348.33
778.629	424.1
778.811	446.63
778.993	401.57
779.175	395.43
779.357	395.43
779.539	354.47
779.721	321.7
779.903	415.91
780.085	383.14
780.267	430.24
780.449	364.71
780.631	377
780.812	299.17
780.994	317.61
781.176	366.76
781.358	311.46
781.54	409.76
781.721	379.04
781.903	409.76
782.085	348.33
782.267	362.66
782.448	381.09
782.63	282.79
782.812	317.61
782.993	325.8
783.175	360.61
783.357	295.08
783.538	284.84
783.72	331.94
783.901	245.93
784.083	262.31
784.264	313.51
784.446	313.51
784.627	254.12
784.809	276.65
784.99	301.22
785.172	235.69
785.353	282.79
785.535	411.81
785.716	325.8
785.897	209.06
786.079	282.79
786.26	295.08
786.441	274.6
786.623	323.75
786.804	288.93
786.985	252.07
787.167	333.99
787.348	188.58
787.529	325.8
787.71	213.16
787.891	309.41
788.073	219.3
788.254	233.64
788.435	293.03
788.616	245.93
788.797	250.02
788.978	264.36
789.159	264.36
789.34	268.45
789.522	207.02
789.703	288.93
789.884	247.97
790.065	268.45
790.246	270.5
790.427	182.44
790.607	202.92
790.788	231.59
790.969	258.21
791.15	186.54
791.331	223.4
791.512	262.31
791.693	176.3
791.874	217.26
792.054	235.69
792.235	276.65
792.416	157.86
792.597	172.2
792.778	209.06
792.958	153.77
793.139	100.52
793.32	174.25
793.5	198.82
793.681	239.78
793.862	204.97
794.042	207.02
794.223	217.26
794.404	196.78
794.584	190.63
794.765	178.34
794.945	194.73
795.126	219.3
795.306	190.63
795.487	188.58
795.667	168.1
795.848	159.91
796.028	186.54
796.209	188.58
796.389	190.63
796.57	118.95
796.75	116.9
796.93	161.96
797.111	200.87
797.291	123.05
797.471	211.11
797.652	137.38
797.832	239.78
798.012	233.64
798.192	118.95
798.373	116.9
798.553	172.2
798.733	166.06
798.913	151.72
799.093	180.39
799.274	223.4
799.454	139.43
799.634	151.72
799.814	194.73
799.994	198.82
800.174	186.54
800.354	129.19
800.534	63.66
800.714	159.91
800.894	104.62
801.074	65.71
801.254	149.67
801.434	170.15
801.614	147.62
801.794	194.73
801.974	317.61
802.154	182.44
802.334	143.53
802.514	121
802.693	172.2
802.873	131.24
803.053	110.76
803.233	80.04
803.413	168.1
803.592	141.48
803.772	90.28
803.952	80.04
804.131	121
804.311	131.24
804.491	59.56
804.67	112.81
804.85	116.9
805.03	164.01
805.209	145.58
805.389	157.86
805.568	188.58
805.748	118.95
805.928	100.52
806.107	112.81
806.287	112.81
806.466	125.1
806.646	96.43
806.825	88.23
807.004	131.24
807.184	116.9
807.363	118.95
807.543	88.23
807.722	65.71
807.901	94.38
808.081	135.34
808.26	125.1
808.439	151.72
808.619	121
808.798	172.2
808.977	133.29
809.156	77.99
809.336	174.25
809.515	166.06
809.694	114.86
809.873	129.19
810.052	94.38
810.231	114.86
810.411	133.29
810.59	151.72
810.769	110.76
810.948	129.19
811.127	80.04
811.306	145.58
811.485	104.62
811.664	121
811.843	92.33
812.022	43.18
812.201	30.89
812.38	92.33
812.559	90.28
812.737	92.33
812.916	82.09
813.095	67.75
813.274	118.95
813.453	51.37
813.632	110.76
813.811	61.61
813.989	80.04
814.168	47.27
814.347	59.56
814.526	30.89
814.704	41.13
814.883	39.08
815.062	131.24
815.24	174.25
815.419	80.04
815.598	88.23
815.776	77.99
815.955	125.1
816.133	57.51
816.312	47.27
816.49	61.61
816.669	73.9
816.847	92.33
817.026	22.7
817.204	57.51
817.383	49.32
817.561	84.14
817.74	88.23
817.918	75.95
818.097	82.09
818.275	73.9
818.453	82.09
818.632	71.85
818.81	63.66
818.988	20.65
819.167	20.65
819.345	18.6
819.523	67.75
819.701	24.75
819.879	153.77
820.058	30.89
820.236	49.32
820.414	108.71
820.592	30.89
820.77	34.99
820.948	37.03
821.127	59.56
821.305	84.14
821.483	71.85
821.661	71.85
821.839	39.08
822.017	57.51
822.195	106.67
822.373	59.56
822.551	39.08
822.729	84.14
822.907	86.19
823.085	102.57
823.262	30.89
823.44	88.23
823.618	94.38
823.796	22.7
823.974	77.99
824.152	6.31
824.329	10.41
824.507	121
824.685	80.04
824.863	129.19
825.04	71.85
825.218	12.46
825.396	65.71
825.574	-30.55
825.751	10.41
825.929	104.62
826.107	12.46
826.284	104.62
826.462	-24.4
826.639	67.75
826.817	80.04
826.994	47.27
827.172	67.75
827.349	96.43
827.527	145.58
827.704	71.85
827.882	32.94
828.059	24.75
828.237	-10.07
828.414	69.8
828.591	-18.26
828.769	63.66
828.946	51.37
829.124	24.75
829.301	73.9
829.478	39.08
829.655	30.89
829.833	47.27
830.01	28.84
830.187	104.62
830.364	43.18
830.542	4.27
830.719	51.37
830.896	24.75
831.073	16.55
831.25	43.18
831.427	77.99
831.604	80.04
831.782	123.05
831.959	51.37
832.136	80.04
832.313	14.51
832.49	-34.64
832.667	49.32
832.844	80.04
833.021	61.61
833.198	6.31
833.374	86.19
833.551	6.31
833.728	57.51
833.905	-3.93
834.082	47.27
834.259	57.51
834.436	51.37
834.612	14.51
834.789	0.17
834.966	-16.21
835.143	71.85
835.319	80.04
835.496	71.85
835.673	90.28
835.85	51.37
836.026	86.19
836.203	80.04
836.38	-10.07
836.556	84.14
836.733	86.19
836.909	73.9
837.086	-1.88
837.262	57.51
837.439	32.94
837.616	-18.26
837.792	14.51
837.968	151.72
838.145	24.75
838.321	-24.4
838.498	-30.55
838.674	30.89
838.851	30.89
839.027	2.22
839.203	-12.12
839.38	-14.17
839.556	16.55
839.732	59.56
839.909	18.6
840.085	16.55
840.261	12.46
840.437	65.71
840.614	24.75
840.79	-57.17
840.966	22.7
841.142	24.75
841.318	-14.17
841.494	39.08
841.671	43.18
841.847	-20.31
842.023	32.94
842.199	65.71
842.375	-12.12
842.551	34.99
842.727	-3.93
842.903	84.14
843.079	55.47
843.255	12.46
843.431	-3.93
843.607	55.47
843.783	43.18
843.959	39.08
844.134	121
844.31	16.55
844.486	51.37
844.662	-28.5
844.838	55.47
845.013	30.89
845.189	59.56
845.365	-8.02
845.541	47.27
845.716	67.75
845.892	39.08
846.068	24.75
846.244	63.66
846.419	90.28
846.595	-3.93
846.77	47.27
846.946	18.6
847.122	-5.97
847.297	45.23
847.473	2.22
847.648	-73.56
847.824	4.27
847.999	0.17
848.175	8.36
848.35	-16.21
848.526	61.61
848.701	55.47
848.876	12.46
849.052	6.31
849.227	18.6
849.403	16.55
849.578	-1.88
849.753	-14.17
849.929	18.6
850.104	-14.17
850.279	53.42
850.454	-59.22
850.63	90.28
850.805	-24.4
850.98	73.9
851.155	65.71
851.33	63.66
851.505	-44.88
851.681	39.08
851.856	-20.31
852.031	0.17
852.206	-16.21
852.381	-3.93
852.556	10.41
852.731	-18.26
852.906	77.99
853.081	28.84
853.256	-3.93
853.431	86.19
853.606	14.51
853.781	34.99
853.956	67.75
854.131	71.85
854.305	-61.27
854.48	59.56
854.655	51.37
854.83	8.36
855.005	90.28
855.18	39.08
855.354	-14.17
855.529	10.41
855.704	-3.93
855.879	-20.31
856.053	16.55
856.228	18.6
856.403	30.89
856.577	28.84
856.752	-46.93
856.926	26.79
857.101	-14.17
857.276	-16.21
857.45	-28.5
857.625	22.7
857.799	14.51
857.974	47.27
858.148	24.75
858.323	6.31
858.497	-3.93
858.672	41.13
858.846	22.7
859.02	77.99
859.195	32.94
859.369	34.99
859.543	2.22
859.718	14.51
859.892	-38.74
860.066	30.89
860.241	-153.43
860.415	63.66
860.589	-5.97
860.763	8.36
860.938	8.36
861.112	49.32
861.286	-30.55
861.46	77.99
861.634	-34.64
861.808	18.6
861.982	-22.36
862.157	-42.84
862.331	-46.93
862.505	30.89
862.679	-34.64
862.853	-38.74
863.027	-8.02
863.201	8.36
863.375	-10.07
863.549	-1.88
863.722	32.94
863.896	-8.02
864.07	14.51
864.244	41.13
864.418	57.51
864.592	47.27
864.766	-30.55
864.939	-10.07
865.113	47.27
865.287	24.75
865.461	-36.69
865.634	0.17
865.808	-75.6
865.982	18.6
866.156	-10.07
866.329	14.51
866.503	-24.4
866.676	0.17
866.85	43.18
867.024	-8.02
867.197	-18.26
867.371	8.36
867.544	-46.93
867.718	-1.88
867.891	26.79
868.065	-3.93
868.238	-10.07
868.412	22.7
868.585	8.36
868.759	0.17
868.932	2.22
869.105	14.51
869.279	18.6
869.452	-36.69
869.625	-40.79
869.799	8.36
869.972	-36.69
870.145	4.27
870.319	8.36
870.492	-22.36
870.665	28.84
870.838	16.55
871.011	43.18
871.185	47.27
871.358	-10.07
871.531	6.31
871.704	2.22
871.877	0.17
872.05	-69.46
872.223	-87.89
872.396	-8.02
872.569	-34.64
872.742	-38.74
872.915	-3.93
873.088	18.6
873.261	-32.6
873.434	55.47
873.607	4.27
873.78	6.31
873.953	-14.17
874.126	-3.93
874.299	10.41
874.471	-71.51
874.644	-48.98
874.817	22.7
874.99	24.75
875.163	-61.27
875.335	-10.07
875.508	-18.26
875.681	-5.97
875.853	34.99
876.026	-32.6
876.199	49.32
876.371	55.47
876.544	37.03
876.717	43.18
876.889	-42.84
877.062	22.7
877.234	-34.64
877.407	-28.5
877.579	41.13
877.752	61.61
877.924	51.37
878.097	30.89
878.269	-1.88
878.442	-10.07
878.614	-83.8
878.786	12.46
878.959	-75.6
879.131	0.17
879.303	16.55
879.476	-5.97
879.648	-69.46
879.82	12.46
879.993	16.55
880.165	-51.03
880.337	-75.6
880.509	-5.97
880.681	-24.4
880.854	18.6
881.026	2.22
881.198	24.75
881.37	-8.02
881.542	18.6
881.714	20.65
881.886	28.84
882.058	-18.26
882.23	16.55
882.402	6.31
882.574	-30.55
882.746	-57.17
882.918	-89.94
883.09	-8.02
883.262	-36.69
883.434	34.99
883.606	-5.97
883.778	-8.02
883.95	43.18
884.122	-3.93
884.293	-32.6
884.465	-30.55
884.637	-14.17
884.809	24.75
884.98	2.22
885.152	-14.17
885.324	80.04
885.496	20.65
885.667	-61.27
885.839	2.22
886.011	20.65
886.182	-12.12
886.354	-20.31
886.525	-18.26
886.697	-26.45
886.869	-67.41
887.04	-46.93
887.212	37.03
887.383	-8.02
887.555	-51.03
887.726	-42.84
887.897	-30.55
888.069	12.46
888.24	30.89
888.412	10.41
888.583	-10.07
888.754	28.84
888.926	-42.84
889.097	0.17
889.268	-81.75
889.44	34.99
889.611	28.84
889.782	-28.5
889.953	-5.97
890.125	37.03
890.296	22.7
890.467	-8.02
890.638	14.51
890.809	77.99
890.98	41.13
891.151	32.94
891.323	-46.93
891.494	-26.45
891.665	-16.21
891.836	6.31
892.007	12.46
892.178	4.27
892.349	37.03
892.52	-5.97
892.691	-1.88
892.862	10.41
893.032	6.31
893.203	10.41
893.374	-3.93
893.545	71.85
893.716	2.22
893.887	-69.46
894.057	-38.74
894.228	-42.84
894.399	20.65
894.57	49.32
894.74	-61.27
894.911	22.7
895.082	-42.84
895.253	4.27
895.423	34.99
895.594	8.36
895.764	8.36
895.935	6.31
896.106	10.41
896.276	10.41
896.447	24.75
896.617	55.47
896.788	-16.21
896.958	-42.84
897.129	-61.27
897.299	39.08
897.47	-12.12
897.64	51.37
897.81	-85.84
897.981	37.03
898.151	-55.12
898.322	96.43
898.492	45.23
898.662	69.8
898.832	49.32
899.003	10.41
899.173	-22.36
899.343	-34.64
899.513	18.6
