Data from USB4F104151__13__12-58-29-800.txt Node

Date: Fri Mar 14 12:58:29 EDT 2025
User: louis
Spectrometer: USB4F10415
Trigger mode: 4
Integration Time (sec): 1.000000E-2
Scans to average: 1
Electric dark correction enabled: true
Nonlinearity correction enabled: false
Boxcar width: 0
XAxis mode: Wavelengths
Number of Pixels in Spectrum: 3648
>>>>>Begin Spectral Data<<<<<
178.204	-10.41
178.424	-10.41
178.644	-10.41
178.864	-57.51
179.084	10.07
179.304	-34.99
179.524	-28.84
179.744	-77.99
179.964	-18.6
180.184	3.93
180.404	36.69
180.624	-14.51
180.844	-8.36
181.064	3.93
181.283	53.08
181.503	24.4
181.723	61.27
181.943	57.17
182.163	44.88
182.383	3.93
182.602	108.37
182.822	32.6
183.042	3.93
183.262	-14.51
183.482	32.6
183.701	22.36
183.921	18.26
184.141	16.21
184.361	67.41
184.58	83.8
184.8	67.41
185.02	34.64
185.239	16.21
185.459	-14.51
185.679	55.12
185.898	-34.99
186.118	-39.08
186.338	34.64
186.557	57.17
186.777	57.17
186.997	-55.47
187.216	-10.41
187.436	65.36
187.655	40.79
187.875	38.74
188.095	-12.46
188.314	65.36
188.534	67.41
188.753	36.69
188.973	-26.79
189.192	-6.31
189.412	48.98
189.631	61.27
189.851	71.51
190.07	20.31
190.29	-14.51
190.509	28.5
190.729	69.46
190.948	-6.31
191.168	51.03
191.387	81.75
191.607	-0.17
191.826	-41.13
192.045	38.74
192.265	16.21
192.484	36.69
192.704	83.8
192.923	55.12
193.142	51.03
193.362	28.5
193.581	28.5
193.8	32.6
194.02	46.93
194.239	-47.27
194.458	28.5
194.678	48.98
194.897	81.75
195.116	32.6
195.335	3.93
195.555	3.93
195.774	-6.31
195.993	63.32
196.212	26.45
196.432	-37.03
196.651	87.89
196.87	-37.03
197.089	63.32
197.308	32.6
197.528	91.99
197.747	-28.84
197.966	20.31
198.185	59.22
198.404	28.5
198.623	22.36
198.842	34.64
199.062	65.36
199.281	61.27
199.5	8.02
199.719	40.79
199.938	53.08
200.157	-0.17
200.376	59.22
200.595	124.76
200.814	26.45
201.033	-12.46
201.252	42.84
201.471	18.26
201.69	-47.27
201.909	10.07
202.128	-28.84
202.347	32.6
202.566	-2.22
202.785	-4.27
203.004	20.31
203.223	34.64
203.442	14.17
203.661	12.12
203.879	79.7
204.098	10.07
204.317	85.84
204.536	-2.22
204.755	59.22
204.974	22.36
205.193	-4.27
205.411	77.65
205.63	81.75
205.849	10.07
206.068	69.46
206.287	40.79
206.505	-4.27
206.724	34.64
206.943	42.84
207.162	-0.17
207.381	20.31
207.599	85.84
207.818	44.88
208.037	-59.56
208.255	65.36
208.474	51.03
208.693	22.36
208.911	75.6
209.13	3.93
209.349	14.17
209.567	24.4
209.786	112.47
210.005	26.45
210.223	-4.27
210.442	8.02
210.661	1.88
210.879	-41.13
211.098	48.98
211.316	22.36
211.535	42.84
211.753	28.5
211.972	8.02
212.191	3.93
212.409	28.5
212.628	48.98
212.846	57.17
213.065	57.17
213.283	-2.22
213.502	12.12
213.72	22.36
213.938	-4.27
214.157	-75.95
214.375	42.84
214.594	-10.41
214.812	34.64
215.031	40.79
215.249	55.12
215.467	-24.75
215.686	-14.51
215.904	91.99
216.122	87.89
216.341	59.22
216.559	-14.51
216.778	10.07
216.996	20.31
217.214	-28.84
217.432	22.36
217.651	20.31
217.869	36.69
218.087	46.93
218.306	-57.51
218.524	26.45
218.742	-53.42
218.96	-8.36
219.179	55.12
219.397	61.27
219.615	32.6
219.833	-8.36
220.051	-30.89
220.27	30.55
220.488	48.98
220.706	-0.17
220.924	44.88
221.142	1.88
221.36	26.45
221.578	-47.27
221.796	38.74
222.015	12.12
222.233	-16.55
222.451	128.85
222.669	-4.27
222.887	85.84
223.105	1.88
223.323	-12.46
223.541	34.64
223.759	53.08
223.977	53.08
224.195	57.17
224.413	-0.17
224.631	1.88
224.849	53.08
225.067	24.4
225.285	16.21
225.503	30.55
225.721	16.21
225.939	-59.56
226.157	-30.89
226.375	-12.46
226.592	5.97
226.81	24.4
227.028	53.08
227.246	104.28
227.464	51.03
227.682	30.55
227.9	-73.9
228.117	20.31
228.335	22.36
228.553	20.31
228.771	12.12
228.989	28.5
229.206	-10.41
229.424	-57.51
229.642	14.17
229.86	10.07
230.077	-26.79
230.295	-34.99
230.513	-30.89
230.731	-22.7
230.948	61.27
231.166	26.45
231.384	-45.23
231.601	16.21
231.819	26.45
232.037	42.84
232.254	38.74
232.472	53.08
232.689	-14.51
232.907	18.26
233.125	44.88
233.342	-18.6
233.56	-10.41
233.777	20.31
233.995	-37.03
234.213	40.79
234.43	8.02
234.648	42.84
234.865	20.31
235.083	26.45
235.3	14.17
235.518	46.93
235.735	-88.23
235.953	71.51
236.17	-10.41
236.388	61.27
236.605	-8.36
236.822	-12.46
237.04	40.79
237.257	22.36
237.475	53.08
237.692	-8.36
237.909	34.64
238.127	1.88
238.344	-8.36
238.562	16.21
238.779	1.88
238.996	-45.23
239.214	-24.75
239.431	59.22
239.648	-6.31
239.865	36.69
240.083	-14.51
240.3	-6.31
240.517	63.32
240.735	44.88
240.952	-4.27
241.169	-22.7
241.386	-28.84
241.603	-37.03
241.821	-20.65
242.038	14.17
242.255	44.88
242.472	42.84
242.689	55.12
242.907	34.64
243.124	24.4
243.341	51.03
243.558	-2.22
243.775	12.12
243.992	-43.18
244.209	-10.41
244.426	59.22
244.643	83.8
244.86	57.17
245.078	85.84
245.295	-16.55
245.512	-12.46
245.729	16.21
245.946	-18.6
246.163	8.02
246.38	38.74
246.597	1.88
246.814	-28.84
247.031	-39.08
247.248	28.5
247.464	-28.84
247.681	3.93
247.898	-12.46
248.115	36.69
248.332	-14.51
248.549	-30.89
248.766	53.08
248.983	-6.31
249.2	59.22
249.417	77.65
249.633	46.93
249.85	59.22
250.067	12.12
250.284	65.36
250.501	-53.42
250.717	5.97
250.934	18.26
251.151	24.4
251.368	-37.03
251.585	65.36
251.801	87.89
252.018	5.97
252.235	28.5
252.451	22.36
252.668	-12.46
252.885	89.94
253.102	55.12
253.318	-8.36
253.535	-24.75
253.752	30.55
253.968	12.12
254.185	1.88
254.401	30.55
254.618	24.4
254.835	-51.37
255.051	40.79
255.268	-20.65
255.484	44.88
255.701	-22.7
255.917	36.69
256.134	38.74
256.351	10.07
256.567	-26.79
256.784	46.93
257	38.74
257.217	24.4
257.433	44.88
257.65	-47.27
257.866	26.45
258.082	8.02
258.299	22.36
258.515	18.26
258.732	-28.84
258.948	26.45
259.165	-26.79
259.381	42.84
259.597	36.69
259.814	12.12
260.03	18.26
260.246	28.5
260.463	-6.31
260.679	38.74
260.895	-4.27
261.112	48.98
261.328	12.12
261.544	46.93
261.761	124.76
261.977	28.5
262.193	3.93
262.409	51.03
262.626	34.64
262.842	106.32
263.058	44.88
263.274	-12.46
263.49	-51.37
263.707	63.32
263.923	1.88
264.139	32.6
264.355	32.6
264.571	-2.22
264.787	85.84
265.004	55.12
265.22	-16.55
265.436	-43.18
265.652	26.45
265.868	-8.36
266.084	26.45
266.3	5.97
266.516	63.32
266.732	110.42
266.948	53.08
267.164	24.4
267.38	46.93
267.596	55.12
267.812	63.32
268.028	59.22
268.244	46.93
268.46	28.5
268.676	-26.79
268.892	85.84
269.108	77.65
269.324	28.5
269.54	-43.18
269.756	-20.65
269.972	63.32
270.188	32.6
270.403	16.21
270.619	-39.08
270.835	-22.7
271.051	-2.22
271.267	24.4
271.483	53.08
271.698	-59.56
271.914	8.02
272.13	46.93
272.346	36.69
272.562	-61.61
272.777	-30.89
272.993	16.21
273.209	69.46
273.425	-4.27
273.64	-6.31
273.856	34.64
274.072	-6.31
274.287	18.26
274.503	67.41
274.719	12.12
274.934	1.88
275.15	-47.27
275.366	10.07
275.581	-6.31
275.797	10.07
276.012	18.26
276.228	87.89
276.444	-32.94
276.659	-8.36
276.875	16.21
277.09	-2.22
277.306	-69.8
277.521	59.22
277.737	10.07
277.952	48.98
278.168	-10.41
278.383	28.5
278.599	-45.23
278.814	26.45
279.03	-28.84
279.245	40.79
279.461	67.41
279.676	22.36
279.892	-39.08
280.107	20.31
280.322	-51.37
280.538	36.69
280.753	-2.22
280.969	53.08
281.184	71.51
281.399	147.28
281.615	24.4
281.83	44.88
282.045	-80.04
282.26	79.7
282.476	-14.51
282.691	-0.17
282.906	20.31
283.122	40.79
283.337	32.6
283.552	-28.84
283.767	-16.55
283.983	-2.22
284.198	12.12
284.413	40.79
284.628	24.4
284.843	42.84
285.058	63.32
285.274	55.12
285.489	1.88
285.704	57.17
285.919	-82.09
286.134	-47.27
286.349	20.31
286.564	24.4
286.779	87.89
286.995	69.46
287.21	-53.42
287.425	14.17
287.64	-39.08
287.855	63.32
288.07	-2.22
288.285	20.31
288.5	-20.65
288.715	20.31
288.93	22.36
289.145	-0.17
289.36	67.41
289.575	-4.27
289.79	1.88
290.004	69.46
290.219	42.84
290.434	-51.37
290.649	-69.8
290.864	10.07
291.079	53.08
291.294	-20.65
291.509	32.6
291.724	-10.41
291.938	16.21
292.153	96.08
292.368	-6.31
292.583	22.36
292.798	-26.79
293.012	10.07
293.227	-98.47
293.442	-4.27
293.657	-0.17
293.871	63.32
294.086	48.98
294.301	75.6
294.516	24.4
294.73	61.27
294.945	28.5
295.16	46.93
295.374	51.03
295.589	32.6
295.804	32.6
296.018	79.7
296.233	53.08
296.447	22.36
296.662	149.33
296.877	59.22
297.091	42.84
297.306	77.65
297.52	8.02
297.735	28.5
297.949	18.26
298.164	16.21
298.378	71.51
298.593	61.27
298.807	8.02
299.022	18.26
299.236	-8.36
299.451	24.4
299.665	-73.9
299.88	79.7
300.094	8.02
300.309	-24.75
300.523	5.97
300.737	36.69
300.952	63.32
301.166	91.99
301.381	-28.84
301.595	48.98
301.809	85.84
302.024	34.64
302.238	-12.46
302.452	44.88
302.667	34.64
302.881	104.28
303.095	-22.7
303.309	36.69
303.524	3.93
303.738	36.69
303.952	26.45
304.166	16.21
304.381	36.69
304.595	110.42
304.809	-67.75
305.023	59.22
305.237	14.17
305.452	22.36
305.666	5.97
305.88	59.22
306.094	18.26
306.308	75.6
306.522	5.97
306.736	61.27
306.95	53.08
307.164	14.17
307.379	-51.37
307.593	46.93
307.807	22.36
308.021	53.08
308.235	28.5
308.449	51.03
308.663	-39.08
308.877	22.36
309.091	8.02
309.305	46.93
309.519	55.12
309.733	10.07
309.947	-67.75
310.161	14.17
310.374	59.22
310.588	10.07
310.802	-49.32
311.016	12.12
311.23	16.21
311.444	63.32
311.658	20.31
311.872	12.12
312.085	26.45
312.299	65.36
312.513	79.7
312.727	67.41
312.941	-8.36
313.154	91.99
313.368	10.07
313.582	87.89
313.796	-26.79
314.009	1.88
314.223	14.17
314.437	28.5
314.651	59.22
314.864	-80.04
315.078	77.65
315.292	32.6
315.505	67.41
315.719	79.7
315.933	34.64
316.146	96.08
316.36	16.21
316.573	14.17
316.787	40.79
317.001	-0.17
317.214	53.08
317.428	53.08
317.641	-4.27
317.855	69.46
318.068	10.07
318.282	16.21
318.495	57.17
318.709	42.84
318.922	-6.31
319.136	20.31
319.349	34.64
319.563	79.7
319.776	38.74
319.99	3.93
320.203	98.13
320.417	26.45
320.63	67.41
320.843	14.17
321.057	48.98
321.27	85.84
321.483	-12.46
321.697	69.46
321.91	-20.65
322.124	-30.89
322.337	63.32
322.55	79.7
322.763	-16.55
322.977	-28.84
323.19	-49.32
323.403	12.12
323.617	63.32
323.83	79.7
324.043	5.97
324.256	36.69
324.469	12.12
324.683	-2.22
324.896	28.5
325.109	46.93
325.322	30.55
325.535	36.69
325.748	32.6
325.962	38.74
326.175	-6.31
326.388	110.42
326.601	14.17
326.814	-30.89
327.027	67.41
327.24	94.04
327.453	16.21
327.666	12.12
327.879	-34.99
328.092	28.5
328.305	14.17
328.518	-18.6
328.731	69.46
328.944	10.07
329.157	-2.22
329.37	40.79
329.583	69.46
329.796	79.7
330.009	-55.47
330.222	61.27
330.435	-2.22
330.648	75.6
330.861	48.98
331.073	-61.61
331.286	38.74
331.499	87.89
331.712	44.88
331.925	12.12
332.138	8.02
332.35	42.84
332.563	18.26
332.776	83.8
332.989	18.26
333.202	-55.47
333.414	83.8
333.627	32.6
333.84	26.45
334.053	10.07
334.265	1.88
334.478	51.03
334.691	61.27
334.903	20.31
335.116	-22.7
335.329	-6.31
335.541	-41.13
335.754	51.03
335.966	77.65
336.179	18.26
336.392	44.88
336.604	-39.08
336.817	26.45
337.029	-34.99
337.242	67.41
337.454	-18.6
337.667	30.55
337.88	22.36
338.092	57.17
338.305	32.6
338.517	1.88
338.729	-12.46
338.942	30.55
339.154	108.37
339.367	36.69
339.579	63.32
339.792	1.88
340.004	14.17
340.217	1.88
340.429	102.23
340.641	63.32
340.854	30.55
341.066	8.02
341.278	42.84
341.491	36.69
341.703	38.74
341.915	-20.65
342.128	18.26
342.34	18.26
342.552	20.31
342.764	57.17
342.977	18.26
343.189	67.41
343.401	63.32
343.613	-10.41
343.826	59.22
344.038	20.31
344.25	-12.46
344.462	1.88
344.674	26.45
344.886	-57.51
345.099	-4.27
345.311	61.27
345.523	36.69
345.735	-14.51
345.947	116.56
346.159	36.69
346.371	10.07
346.583	57.17
346.795	28.5
347.007	26.45
347.219	-2.22
347.431	18.26
347.643	55.12
347.855	46.93
348.067	26.45
348.279	-12.46
348.491	59.22
348.703	55.12
348.915	-30.89
349.127	1.88
349.339	3.93
349.551	-49.32
349.763	18.26
349.975	-39.08
350.187	71.51
350.399	-2.22
350.61	65.36
350.822	65.36
351.034	-18.6
351.246	-18.6
351.458	110.42
351.669	22.36
351.881	34.64
352.093	46.93
352.305	28.5
352.517	3.93
352.728	81.75
352.94	40.79
353.152	26.45
353.363	-41.13
353.575	-12.46
353.787	-14.51
353.999	98.13
354.21	-14.51
354.422	61.27
354.633	57.17
354.845	34.64
355.057	-69.8
355.268	10.07
355.48	-32.94
355.692	102.23
355.903	28.5
356.115	30.55
356.326	3.93
356.538	-55.47
356.749	77.65
356.961	67.41
357.172	8.02
357.384	28.5
357.595	44.88
357.807	40.79
358.018	98.13
358.23	14.17
358.441	-61.61
358.653	32.6
358.864	34.64
359.075	57.17
359.287	-14.51
359.498	-12.46
359.709	51.03
359.921	42.84
360.132	48.98
360.344	5.97
360.555	-0.17
360.766	20.31
360.977	-12.46
361.189	20.31
361.4	-14.51
361.611	48.98
361.823	63.32
362.034	32.6
362.245	22.36
362.456	28.5
362.667	24.4
362.879	30.55
363.09	5.97
363.301	59.22
363.512	75.6
363.723	14.17
363.935	48.98
364.146	61.27
364.357	32.6
364.568	22.36
364.779	53.08
364.99	20.31
365.201	-6.31
365.412	85.84
365.623	-16.55
365.834	53.08
366.045	-12.46
366.256	61.27
366.467	85.84
366.678	46.93
366.889	26.45
367.1	-30.89
367.311	14.17
367.522	42.84
367.733	32.6
367.944	26.45
368.155	14.17
368.366	-0.17
368.577	20.31
368.788	30.55
368.999	32.6
369.209	1.88
369.42	8.02
369.631	46.93
369.842	44.88
370.053	-28.84
370.264	51.03
370.474	44.88
370.685	14.17
370.896	-0.17
371.107	67.41
371.317	77.65
371.528	3.93
371.739	30.55
371.95	10.07
372.16	24.4
372.371	67.41
372.582	3.93
372.792	34.64
373.003	77.65
373.214	16.21
373.424	34.64
373.635	59.22
373.846	-37.03
374.056	-6.31
374.267	67.41
374.477	51.03
374.688	38.74
374.898	30.55
375.109	20.31
375.319	-0.17
375.53	51.03
375.74	-4.27
375.951	63.32
376.161	63.32
376.372	91.99
376.582	1.88
376.793	48.98
377.003	75.6
377.214	83.8
377.424	81.75
377.635	53.08
377.845	16.21
378.055	44.88
378.266	-14.51
378.476	51.03
378.686	-4.27
378.897	63.32
379.107	3.93
379.317	34.64
379.528	5.97
379.738	42.84
379.948	94.04
380.158	42.84
380.369	-12.46
380.579	28.5
380.789	8.02
380.999	91.99
381.21	12.12
381.42	75.6
381.63	63.32
381.84	124.76
382.05	18.26
382.261	28.5
382.471	16.21
382.681	55.12
382.891	34.64
383.101	-0.17
383.311	69.46
383.521	-6.31
383.731	94.04
383.941	79.7
384.151	10.07
384.361	44.88
384.571	55.12
384.781	-8.36
384.991	-28.84
385.201	53.08
385.411	-10.41
385.621	34.64
385.831	-10.41
386.041	26.45
386.251	48.98
386.461	5.97
386.671	3.93
386.881	28.5
387.091	91.99
387.301	57.17
387.511	18.26
387.72	-24.75
387.93	-4.27
388.14	61.27
388.35	-4.27
388.56	63.32
388.769	10.07
388.979	77.65
389.189	24.4
389.399	67.41
389.609	61.27
389.818	59.22
390.028	-22.7
390.238	151.38
390.447	8.02
390.657	57.17
390.867	1.88
391.076	38.74
391.286	1.88
391.496	61.27
391.705	34.64
391.915	69.46
392.125	53.08
392.334	59.22
392.544	51.03
392.753	87.89
392.963	55.12
393.172	28.5
393.382	51.03
393.591	55.12
393.801	61.27
394.01	100.18
394.22	-2.22
394.429	59.22
394.639	34.64
394.848	63.32
395.058	18.26
395.267	51.03
395.477	22.36
395.686	51.03
395.895	77.65
396.105	106.32
396.314	124.76
396.524	38.74
396.733	3.93
396.942	30.55
397.152	61.27
397.361	91.99
397.57	69.46
397.78	102.23
397.989	116.56
398.198	89.94
398.407	69.46
398.617	14.17
398.826	98.13
399.035	48.98
399.244	53.08
399.453	40.79
399.663	20.31
399.872	44.88
400.081	55.12
400.29	75.6
400.499	1.88
400.708	173.91
400.917	48.98
401.127	98.13
401.336	87.89
401.545	59.22
401.754	94.04
401.963	94.04
402.172	96.08
402.381	57.17
402.59	108.37
402.799	128.85
403.008	30.55
403.217	126.8
403.426	73.56
403.635	73.56
403.844	124.76
404.053	44.88
404.262	85.84
404.471	79.7
404.68	100.18
404.888	85.84
405.097	100.18
405.306	51.03
405.515	106.32
405.724	63.32
405.933	65.36
406.142	151.38
406.35	102.23
406.559	46.93
406.768	139.09
406.977	89.94
407.185	106.32
407.394	163.67
407.603	149.33
407.812	149.33
408.02	122.71
408.229	192.34
408.438	48.98
408.646	192.34
408.855	100.18
409.064	157.52
409.272	126.8
409.481	186.19
409.69	153.43
409.898	151.38
410.107	200.53
410.315	175.95
410.524	245.59
410.733	282.45
410.941	245.59
411.15	198.48
411.358	190.29
411.567	225.11
411.775	171.86
411.984	280.4
412.192	282.45
412.401	206.67
412.609	225.11
412.818	323.41
413.026	253.78
413.234	229.2
413.443	235.35
413.651	309.07
413.86	304.98
414.068	350.03
414.276	352.08
414.485	253.78
414.693	343.89
414.901	399.18
415.11	247.63
415.318	397.14
415.526	446.29
415.734	491.34
415.943	370.51
416.151	477.01
416.359	421.71
416.567	446.29
416.776	532.3
416.984	460.62
417.192	577.36
417.4	477.01
417.608	487.25
417.817	513.87
418.025	599.88
418.233	610.12
418.441	593.74
418.649	556.88
418.857	661.32
419.065	665.42
419.273	657.23
419.481	796.49
419.689	771.91
419.897	804.68
420.105	816.97
420.313	808.78
420.521	829.26
420.729	833.35
420.937	866.12
421.145	919.37
421.353	1003.33
421.561	1025.86
421.769	993.09
421.977	1113.92
422.185	1099.59
422.393	1193.8
422.601	1339.2
422.809	1240.9
423.017	1244.99
423.224	1296.19
423.432	1345.34
423.64	1316.67
423.848	1480.51
424.056	1474.37
424.263	1431.36
424.471	1449.79
424.679	1627.96
424.887	1670.97
425.094	1728.31
425.302	1720.12
425.51	1701.69
425.718	1861.43
425.925	1969.98
426.133	1888.06
426.341	1974.07
426.548	2037.56
426.756	2010.93
426.964	2168.63
427.171	2291.51
427.379	2332.47
427.586	2369.33
427.794	2459.44
428.001	2643.76
428.209	2678.57
428.417	2559.79
428.624	2737.96
428.832	2768.68
429.039	2770.73
429.247	2764.59
429.454	3043.11
429.662	3172.13
429.869	3073.83
430.076	3264.29
430.284	3254.05
430.491	3258.15
430.699	3473.18
430.906	3452.7
431.114	3565.34
431.321	3585.82
431.528	3620.64
431.736	4056.86
431.943	4126.49
432.15	4040.47
432.358	4110.1
432.565	4271.89
432.772	4376.34
432.979	4413.2
433.187	4572.94
433.394	4521.74
433.601	4982.54
433.808	4839.18
434.016	4826.89
434.223	5095.18
434.43	5400.32
434.637	5107.46
434.844	5580.54
435.052	5664.51
435.259	5508.87
435.466	5701.37
435.673	5725.95
435.88	5998.33
436.087	6401.78
436.294	6252.28
436.501	6260.47
436.708	6336.24
436.915	6485.75
437.122	6936.3
437.329	6807.28
437.537	6975.21
437.743	7319.27
437.95	7216.87
438.157	7476.96
438.364	7648.99
438.571	7800.54
438.778	7710.43
438.985	8615.63
439.192	8158.94
439.399	8505.04
439.606	8142.55
439.813	8677.07
440.02	8986.32
440.227	9078.47
440.433	9045.71
440.64	9387.72
440.847	9428.68
441.054	9469.64
441.261	10096.32
441.467	10047.16
441.674	10194.62
441.881	10460.85
442.088	10612.4
442.294	10360.5
442.501	10622.64
442.708	11032.24
442.914	11392.68
443.121	11876
443.328	11577
443.534	12273.31
443.741	11757.22
443.948	11751.07
444.154	12570.26
444.361	12709.52
444.568	12893.84
444.774	12762.77
444.981	12961.42
445.187	13411.98
445.394	13923.97
445.6	13651.59
445.807	14876.27
446.013	14515.83
446.22	14737.01
446.426	15158.89
446.633	15396.46
446.839	15703.65
447.046	15349.36
447.252	16193.12
447.459	16156.25
447.665	16064.1
447.871	16617.05
448.078	17679.94
448.284	16666.2
448.491	17131.09
448.697	17661.51
448.903	18269.76
449.11	18253.37
449.316	17999.43
449.522	18331.2
449.728	18906.68
449.935	18978.36
450.141	19111.47
450.347	19439.15
450.553	18730.55
450.76	18961.97
450.966	19621.42
451.172	19467.82
451.378	19967.52
451.584	19594.79
451.791	19949.09
451.997	19813.93
452.203	20260.38
452.409	20409.89
452.615	20465.18
452.821	19639.85
453.027	19482.16
453.233	20594.2
453.44	19648.04
453.646	20006.44
453.852	19979.81
454.058	20471.32
454.264	19635.75
454.47	19985.96
454.676	19615.27
454.882	20377.12
455.088	18392.64
455.294	18763.32
455.5	19129.91
455.705	19451.44
455.911	18249.28
456.117	18167.36
456.323	17833.54
456.529	17157.71
456.735	17765.96
456.941	17090.13
457.147	17088.08
457.352	16571.99
457.558	16100.96
457.764	16528.99
457.97	15924.83
458.176	15693.41
458.381	15920.74
458.587	14900.85
458.793	15183.47
458.999	14198.4
459.204	15345.26
459.41	14724.72
459.616	13805.19
459.821	13796.99
460.027	13557.38
460.233	13657.73
460.438	12658.32
460.644	12930.7
460.85	12371.61
461.055	12142.24
461.261	12095.13
461.466	11321
461.672	10876.59
461.878	11601.57
462.083	10864.3
462.289	10811.06
462.494	10442.42
462.7	10284.73
462.905	9758.4
463.111	10106.56
463.316	10159.8
463.522	9889.47
463.727	10165.95
463.932	9961.15
464.138	9813.7
464.343	9926.33
464.549	9479.88
464.754	9998.01
464.959	9756.35
465.165	9895.61
465.37	9426.63
465.575	9144.01
465.781	9629.38
465.986	9662.15
466.191	9131.72
466.397	9072.33
466.602	8554.19
466.807	9025.23
467.012	9033.42
467.218	8677.07
467.423	8853.2
467.628	8789.71
467.833	9402.05
468.038	8851.15
468.244	8650.45
468.449	9000.65
468.654	8646.35
468.859	8689.36
469.064	8648.4
469.269	8228.57
469.474	8257.24
469.679	8509.14
469.885	8304.34
470.09	8195.8
470.295	8308.44
470.5	7894.75
470.705	8206.04
470.91	7960.28
471.115	7988.96
471.32	8029.91
471.525	7952.09
471.73	7827.17
471.935	7503.59
472.139	7503.59
472.344	7476.96
472.549	7360.23
472.754	7501.54
472.959	7298.79
473.164	7112.42
473.369	7014.12
473.574	7282.41
473.778	7124.71
473.983	6983.4
474.188	6983.4
474.393	6901.48
474.598	6874.86
474.802	6715.12
475.007	6700.78
475.212	6524.66
475.417	6600.43
475.621	6508.27
475.826	6338.29
476.031	6182.65
476.235	6346.48
476.44	6190.84
476.645	6268.66
476.849	6115.06
477.054	5967.61
477.259	6072.06
477.463	6027
477.668	5811.96
477.872	6010.62
478.077	5854.97
478.282	5633.79
478.486	5820.16
478.691	5797.63
478.895	5664.51
479.1	5601.02
479.304	5472
479.509	5510.91
479.713	5603.07
479.918	5361.41
480.122	5367.56
480.326	5377.8
480.531	5451.52
480.735	5314.31
480.94	5273.35
481.144	5406.47
481.348	5173
481.553	5265.16
481.757	5279.49
481.961	5449.47
482.166	5232.39
482.37	5211.91
482.574	5175.05
482.778	5289.73
482.983	5476.1
483.187	5287.68
483.391	5267.2
483.595	5097.22
483.8	5181.19
484.004	5240.58
484.208	5302.02
484.412	5000.97
484.616	5271.3
484.821	5101.32
485.025	5113.61
485.229	5189.38
485.433	5181.19
485.637	5103.37
485.841	5173
486.045	5181.19
486.249	5170.95
486.453	5070.6
486.657	5213.96
486.861	5084.94
487.065	4896.52
487.269	5283.59
487.473	5142.28
487.677	5185.29
487.881	5189.38
488.085	5441.28
488.289	5097.22
488.493	5078.79
488.697	5236.49
488.901	5168.9
489.105	5156.61
489.309	5123.85
489.512	5043.98
489.716	5119.75
489.92	5160.71
490.124	5261.06
490.328	5201.67
490.531	5381.89
490.735	5308.16
490.939	5367.56
491.143	5265.16
491.346	5267.2
491.55	5422.85
491.754	5568.26
491.958	5426.95
492.161	5472
492.365	5549.82
492.569	5474.05
492.772	5461.76
492.976	5562.11
493.18	5658.37
493.383	5762.81
493.587	5832.44
493.79	5648.13
493.994	5637.89
494.197	5687.04
494.401	5848.83
494.605	5777.15
494.808	6000.38
495.012	5906.17
495.215	5723.9
495.419	6074.1
495.622	5867.26
495.825	6190.84
496.029	6059.77
496.232	6254.33
496.436	6205.17
496.639	6399.73
496.843	6330.1
497.046	6518.51
497.249	6409.97
497.453	6491.89
497.656	6571.76
497.859	6668.02
498.063	6672.11
498.266	6987.5
498.469	6987.5
498.673	6842.09
498.876	7116.52
499.079	7007.98
499.282	7012.07
499.485	7354.09
499.689	7376.61
499.892	7438.05
500.095	7386.85
500.298	7694.05
500.501	7642.85
500.705	7759.58
500.908	7712.48
501.111	7841.5
501.314	7972.57
501.517	8107.74
501.72	8359.64
501.923	8072.92
502.126	8351.45
502.329	8193.75
502.532	8646.35
502.735	8658.64
502.938	8707.79
503.141	8812.24
503.344	9070.28
503.547	8916.69
503.75	9215.69
503.953	9150.15
504.156	9168.59
504.359	9449.16
504.562	9469.64
504.765	9686.72
504.968	9897.66
505.17	9991.87
505.373	9946.81
505.576	10251.96
505.779	10534.58
505.982	10397.37
506.185	10573.49
506.387	10559.16
506.59	10657.46
506.793	10886.83
506.996	10913.45
507.198	11202.22
507.401	11003.57
507.604	11157.16
507.807	11493.03
508.009	11605.67
508.212	11816.61
508.415	11898.53
508.617	12007.07
508.82	11904.67
509.022	11962.01
509.225	12291.74
509.428	12449.43
509.63	12453.53
509.833	12734.1
510.035	12871.31
510.238	12734.1
510.44	13051.53
510.643	13256.33
510.845	13518.47
511.048	13225.61
511.25	13735.56
511.453	13715.08
511.655	13938.3
511.858	13860.48
512.06	14198.4
512.262	14403.19
512.465	14589.56
512.667	14892.66
512.87	14880.37
513.072	14911.09
513.274	15320.68
513.477	15476.33
513.679	15457.9
513.881	15593.06
514.084	15662.69
514.286	16008.8
514.488	15869.54
514.69	16518.75
514.893	16438.87
515.095	16520.79
515.297	16739.93
515.499	16942.67
515.701	17002.07
515.904	17239.63
516.106	17241.68
516.308	17681.99
516.51	17843.78
516.712	17860.16
516.914	17585.74
517.116	18343.49
517.318	18202.18
517.52	18388.54
517.722	18460.22
517.925	18804.28
518.127	18777.65
518.329	19113.52
518.531	18914.87
518.733	19607.08
518.935	19490.35
519.136	19969.57
519.338	19945
519.54	20205.09
519.742	20020.77
519.944	20459.04
520.146	20626.97
520.348	20940.31
520.55	20964.89
520.752	20932.12
520.954	21550.6
521.155	20993.56
521.357	21595.66
521.559	21837.32
521.761	22255.11
521.963	22052.36
522.164	22111.75
522.366	22328.83
522.568	22547.97
522.77	22646.27
522.971	23150.07
523.173	22787.58
523.375	22982.13
523.576	23139.83
523.778	23125.49
523.98	23487.98
524.181	23563.76
524.383	23727.6
524.584	24006.12
524.786	24061.41
524.988	24026.6
525.189	24245.73
525.391	24354.27
525.592	24344.03
525.794	24497.63
525.995	24739.29
526.197	24903.13
526.398	24784.35
526.6	24905.18
526.801	25243.09
527.003	25150.93
527.204	25079.25
527.406	25458.13
527.607	25363.92
527.808	25677.26
528.01	25091.54
528.211	25722.32
528.412	26013.13
528.614	25880.01
528.815	25865.67
529.016	26183.11
529.218	26056.14
529.419	26154.44
529.62	26205.64
529.822	26232.26
530.023	26217.93
530.224	26365.38
530.425	26342.85
530.626	26258.88
530.828	26185.16
531.029	26828.22
531.23	26115.53
531.431	26717.63
531.632	26389.95
531.833	26965.43
532.035	26787.26
532.236	26590.66
532.437	26852.8
532.638	26715.58
532.839	26844.6
533.04	26985.91
533.241	26637.76
533.442	26899.9
533.643	26809.79
533.844	27051.45
534.045	26846.65
534.246	26867.13
534.447	27151.8
534.648	26609.09
534.849	27063.74
535.05	26932.67
535.251	26965.43
535.451	26840.51
535.652	26799.55
535.853	27035.06
536.054	26953.15
536.255	27411.89
536.456	26844.6
536.657	27356.6
536.857	27100.6
537.058	27135.42
537.259	27147.7
537.46	27088.31
537.66	26992.06
537.861	27332.02
538.062	27170.23
538.263	27221.43
538.463	27008.44
538.664	26701.25
538.865	27198.9
539.065	27227.57
539.266	26953.15
539.466	27274.68
539.667	26979.77
539.868	27246.01
540.068	27004.35
540.269	26998.2
540.469	27559.34
540.67	26797.5
540.87	27082.17
541.071	27123.13
541.271	26916.28
541.472	27090.36
541.672	26770.88
541.873	26903.99
542.073	26416.58
542.274	27407.8
542.474	26881.47
542.675	26686.91
542.875	27252.15
543.075	26860.99
543.276	26555.84
543.476	26940.86
543.676	26777.02
543.877	26867.13
544.077	26717.63
544.277	26924.47
544.478	26928.57
544.678	26983.87
544.878	26721.73
545.078	26901.95
545.279	26561.98
545.479	26617.28
545.679	26936.76
545.879	26947
546.079	26559.94
546.28	26731.97
546.48	26838.46
546.68	26785.21
546.88	26912.19
547.08	26971.58
547.28	27078.07
547.48	26623.42
547.68	26838.46
547.88	26494.4
548.081	26609.09
548.281	26748.35
548.481	26518.98
548.681	27047.35
548.881	26836.41
549.081	26912.19
549.28	26617.28
549.48	26768.83
549.68	26133.96
549.88	27151.8
550.08	26357.19
550.28	26955.19
550.48	26336.71
550.68	26543.55
550.88	26641.85
551.08	26467.78
551.279	26648
551.479	26275.27
551.679	26439.11
551.879	26621.38
552.079	26578.37
552.278	26437.06
552.478	26265.03
552.678	26586.56
552.878	26699.2
553.077	26461.63
553.277	26162.63
553.477	26746.3
553.676	26463.68
553.876	26203.59
554.076	26402.24
554.275	26525.12
554.475	26142.15
554.674	26437.06
554.874	26281.41
555.074	26416.58
555.273	26383.81
555.473	26293.7
555.672	26256.84
555.872	26285.51
556.071	26516.93
556.271	26568.13
556.47	26064.33
556.67	25861.58
556.869	26033.61
557.068	25839.05
557.268	26127.81
557.467	25988.55
557.667	25808.33
557.866	25712.08
558.065	25730.51
558.265	25523.66
558.464	25699.79
558.663	25853.39
558.863	25759.18
559.062	26041.8
559.261	25703.89
559.461	25886.15
559.66	25507.28
559.859	25400.79
560.058	25310.68
560.258	25730.51
560.457	25529.81
560.656	25798.09
560.855	25560.53
561.054	25605.58
561.253	25316.82
561.453	25247.19
561.652	25390.55
561.851	25421.27
562.05	24999.38
562.249	25167.32
562.448	25494.99
562.647	25255.38
562.846	25152.98
563.045	25099.73
563.244	24714.72
563.443	25064.92
563.642	24651.23
563.841	24987.1
564.04	24499.68
564.239	24970.71
564.438	24702.43
564.637	24759.77
564.836	24751.58
565.035	24565.21
565.234	24505.82
565.432	24452.58
565.631	24397.28
565.83	24565.21
566.029	24542.69
566.228	24251.88
566.427	24045.03
566.625	24108.52
566.824	23905.77
567.023	24247.78
567.222	23885.29
567.42	24065.51
567.619	23883.24
567.818	24016.36
568.016	23868.91
568.215	24112.61
568.414	23584.24
568.612	23803.37
568.811	23768.55
569.01	23379.44
569.208	23156.21
569.407	23539.18
569.605	23455.22
569.804	23428.59
570.002	23148.02
570.201	23182.84
570.4	23055.86
570.598	23021.05
570.797	22916.6
570.995	23344.63
571.193	22818.3
571.392	23168.5
571.59	22900.22
571.789	22867.45
571.987	22793.72
572.186	22451.71
572.384	22726.14
572.582	22674.94
572.781	22750.71
572.979	22498.81
573.177	22341.12
573.376	22361.6
573.574	22334.98
573.772	22152.71
573.971	22078.98
574.169	22220.29
574.367	22253.06
574.565	22148.61
574.763	21943.81
574.962	21962.25
575.16	21653
575.358	21761.55
575.556	21409.29
575.754	21935.62
575.952	21448.21
576.151	21736.97
576.349	21030.42
576.547	21497.36
576.745	21526.03
576.943	21255.7
577.141	21401.1
577.339	21300.75
577.537	21143.06
577.735	21235.22
577.933	20874.77
578.131	21128.72
578.329	21042.71
578.527	20778.52
578.725	20981.27
578.923	20952.6
579.121	20782.62
579.319	20860.44
579.516	20897.3
579.714	20495.9
579.912	20649.5
580.11	20276.77
580.308	20602.39
580.506	20299.3
580.704	20100.64
580.901	20346.4
581.099	20336.16
581.297	20043.3
581.495	20252.19
581.692	20227.62
581.89	19867.17
582.088	20041.25
582.285	19924.52
582.483	19940.9
582.681	19977.76
582.878	19885.61
583.076	19715.62
583.274	19660.33
583.471	19514.92
583.669	19420.72
583.866	19435.05
584.064	19514.92
584.262	18964.02
584.459	19639.85
584.657	19058.23
584.854	19320.37
585.052	18771.51
585.249	19297.84
585.447	19195.44
585.644	18882.1
585.841	19060.27
586.039	18789.94
586.236	18622.01
586.434	18529.85
586.631	18839.09
586.828	18832.95
587.026	18429.5
587.223	18619.96
587.42	18550.33
587.618	18558.52
587.815	18509.37
588.012	18259.52
588.21	18155.07
588.407	18271.81
588.604	18314.81
588.801	18091.59
588.999	18136.64
589.196	18062.91
589.393	18183.74
589.59	17915.46
589.787	18009.67
589.984	17978.95
590.182	17579.59
590.379	17868.36
590.576	17552.97
590.773	17581.64
590.97	17385.04
591.167	17624.65
591.364	17438.28
591.561	17632.84
591.758	17286.73
591.955	17079.89
592.152	17272.4
592.349	17313.36
592.546	17118.8
592.743	17024.59
592.94	16959.06
593.137	17237.58
593.334	16995.92
593.531	16555.61
593.727	16969.3
593.924	16805.46
594.121	16600.66
594.318	16754.26
594.515	16455.26
594.712	16715.35
594.908	16594.52
595.105	16500.31
595.302	16229.98
595.499	16500.31
595.696	16217.69
595.892	16195.17
596.089	16146.01
596.286	16238.17
596.482	16346.72
596.679	16088.67
596.876	16330.33
597.072	16146.01
597.269	15818.34
597.466	15943.27
597.662	15627.88
597.859	15861.35
598.055	16049.76
598.252	15947.36
598.448	15771.24
598.645	15623.78
598.841	15625.83
599.038	15744.61
599.234	15455.85
599.431	15271.53
599.627	15113.84
599.824	15322.73
600.02	15283.82
600.217	15472.23
600.413	15144.56
600.609	15128.17
600.806	15322.73
601.002	14990.96
601.198	15117.93
601.395	14956.15
601.591	15146.61
601.787	14941.81
601.984	14683.77
602.18	14935.67
602.376	14818.93
602.572	14683.77
602.769	14708.34
602.965	14648.95
603.161	14591.61
603.357	14487.16
603.553	14362.23
603.75	14564.98
603.946	14368.38
604.142	14458.49
604.338	14296.7
604.534	14370.43
604.73	14141.05
604.926	14362.23
605.122	14061.18
605.318	14190.2
605.514	13923.97
605.71	13860.48
605.906	13837.95
606.102	13815.43
606.298	13833.86
606.494	13837.95
606.69	14044.8
606.886	13655.68
607.082	13633.16
607.278	13796.99
607.474	13772.42
607.67	13794.95
607.866	13463.18
608.062	13606.53
608.257	13479.56
608.453	13534.85
608.649	13622.92
608.845	13440.65
609.041	13465.22
609.236	13473.42
609.432	13397.64
609.628	13438.6
609.824	13205.13
610.019	13205.13
610.215	13102.73
610.411	13223.56
610.606	13158.03
610.802	13252.24
610.998	13082.25
611.193	12990.1
611.389	13182.6
611.584	13018.77
611.78	12953.23
611.976	12842.64
612.171	13053.58
612.367	12730
612.562	12893.84
612.758	12770.96
612.953	12684.95
613.149	12781.2
613.344	12605.08
613.539	12766.87
613.735	12533.4
613.93	12736.15
614.126	12478.1
614.321	12764.82
614.517	12547.73
614.712	12564.12
614.907	12408.47
615.103	12664.47
615.298	12324.51
615.493	12717.72
615.688	12387.99
615.884	12703.38
616.079	12357.27
616.274	12514.97
616.47	12215.96
616.665	12203.68
616.86	12283.55
617.055	12387.99
617.25	12207.77
617.445	12334.75
617.641	11808.42
617.836	11955.87
618.031	11869.86
618.226	12201.63
618.421	11988.64
618.616	11982.49
618.811	11761.31
619.006	11898.53
619.201	11585.19
619.396	11853.47
619.591	11701.92
619.786	11789.99
619.981	11392.68
620.176	11552.42
620.371	11312.81
620.566	11484.84
620.761	11409.06
620.956	11521.7
621.151	11404.97
621.346	11202.22
621.541	11081.39
621.735	11407.02
621.93	11040.43
622.125	11142.83
622.32	10903.21
622.515	10940.08
622.709	10933.93
622.904	10901.17
623.099	10737.33
623.294	10880.69
623.488	10557.11
623.683	10532.53
623.878	10456.76
624.072	10636.98
624.267	10616.5
624.462	10221.24
624.656	10288.82
624.851	10268.34
625.046	10290.87
625.24	10260.15
625.435	10004.16
625.629	10014.4
625.824	9854.65
626.018	9918.14
626.213	9930.43
626.407	9866.94
626.602	9754.3
626.796	9615.04
626.991	9754.3
627.185	9825.98
627.38	9709.25
627.574	9524.93
627.768	9666.24
627.963	9457.35
628.157	9541.32
628.352	9580.23
628.546	9125.58
628.74	9158.35
628.935	9195.21
629.129	9301.7
629.323	8963.79
629.517	8992.46
629.712	8914.64
629.906	9021.13
630.1	8744.66
630.294	8720.08
630.489	8808.14
630.683	8900.3
630.877	8505.04
631.071	8597.2
631.265	8462.04
631.459	8625.87
631.653	8488.66
631.848	8521.43
632.042	8328.92
632.236	8373.97
632.43	8312.53
632.624	8519.38
632.818	8285.91
633.012	8083.16
633.206	8406.74
633.4	8095.45
633.594	8099.55
633.788	8160.98
633.982	8074.97
634.176	8150.74
634.369	7948
634.563	8025.82
634.757	7911.13
634.951	8007.39
635.145	7825.12
635.339	7874.27
635.533	7661.28
635.726	7806.69
635.92	7601.89
636.114	7554.79
636.308	7630.56
636.501	7628.51
636.695	7413.48
636.889	7427.81
637.083	7456.48
637.276	7311.08
637.47	7442.15
637.664	7227.11
637.857	7192.3
638.051	7048.94
638.244	7096.04
638.438	7089.9
638.632	7071.47
638.825	6967.02
639.019	6975.21
639.212	6924.01
639.406	6858.48
639.599	6778.61
639.793	6917.87
639.986	6776.56
640.18	6729.45
640.373	6657.78
640.567	6821.61
640.76	6729.45
640.954	6575.86
641.147	6577.9
641.34	6643.44
641.534	6401.78
641.727	6569.71
641.92	6401.78
642.114	6471.41
642.307	6633.2
642.5	6280.95
642.694	6242.04
642.887	6180.6
643.08	6201.08
643.273	6078.2
643.467	5996.28
643.66	5996.28
643.853	6184.69
644.046	5918.46
644.239	6104.82
644.432	6070.01
644.626	5963.51
644.819	5949.18
645.012	5922.55
645.205	5850.88
645.398	5803.77
645.591	5719.81
645.784	5848.83
645.977	5605.12
646.17	5678.85
646.363	5644.03
646.556	5439.23
646.749	5484.29
646.942	5453.57
647.135	5527.3
647.328	5416.71
647.521	5259.01
647.714	5295.88
647.907	5392.13
648.099	5256.97
648.292	5351.17
648.485	5170.95
648.678	5269.25
648.871	5105.42
649.064	5168.9
649.256	5193.48
649.449	5048.07
649.642	5097.22
649.835	4966.15
650.027	5072.65
650.22	5041.93
650.413	5050.12
650.605	5066.5
650.798	5078.79
650.991	4884.23
651.183	4847.37
651.376	4816.65
651.568	4855.56
651.761	4775.69
651.954	4837.13
652.146	4837.13
652.339	4777.74
652.531	4618
652.724	4632.33
652.916	4585.23
653.109	4550.42
653.301	4622.09
653.494	4437.78
653.686	4583.18
653.879	4650.77
654.071	4464.4
654.263	4521.74
654.456	4415.25
654.648	4534.03
654.84	4286.23
655.033	4400.91
655.225	4271.89
655.417	4239.12
655.61	4237.08
655.802	4323.09
655.994	4224.79
656.186	4196.12
656.379	4155.16
656.571	4284.18
656.763	4228.88
656.955	4118.29
657.148	4093.72
657.34	4065.05
657.532	4022.04
657.724	4022.04
657.916	4093.72
658.108	3866.39
658.3	3983.13
658.492	3979.03
658.684	3993.37
658.876	3847.96
659.068	3929.88
659.26	3764
659.452	3929.88
659.644	3821.34
659.836	3829.53
660.028	3694.36
660.22	3811.1
660.412	3708.7
660.604	3688.22
660.796	3764
660.988	3723.04
661.18	3632.93
661.372	3501.86
661.563	3649.31
661.755	3618.59
661.947	3630.88
662.139	3591.97
662.331	3524.38
662.522	3596.06
662.714	3426.08
662.906	3403.55
663.097	3467.04
663.289	3313.44
663.481	3389.22
663.673	3428.13
663.864	3262.24
664.056	3303.2
664.247	3317.54
664.439	3290.92
664.631	3309.35
664.822	3092.26
665.014	3213.09
665.205	3161.89
665.397	3276.58
665.588	3186.47
665.78	3200.8
665.971	3211.04
666.163	3155.75
666.354	3188.52
666.546	3184.42
666.737	2948.9
666.929	3090.21
667.12	3102.5
667.311	3082.02
667.503	2996.01
667.694	3047.21
667.885	3028.78
668.077	3114.79
668.268	2955.05
668.459	3137.32
668.651	2871.08
668.842	2979.62
669.033	2787.11
669.224	2807.59
669.416	2860.84
669.607	2834.22
669.798	2942.76
669.989	2912.04
670.18	2789.16
670.371	2823.98
670.563	2733.87
670.754	2811.69
670.945	2848.55
671.136	2807.59
671.327	2840.36
671.518	2805.55
671.709	2791.21
671.9	2770.73
672.091	2813.74
672.282	2772.78
672.473	2672.43
672.664	2737.96
672.855	2670.38
673.046	2731.82
673.237	2692.91
673.428	2643.76
673.619	2602.8
673.809	2699.05
674	2596.65
674.191	2615.09
674.382	2529.07
674.573	2463.54
674.764	2707.24
674.954	2479.92
675.145	2664.24
675.336	2565.93
675.527	2551.6
675.717	2547.5
675.908	2578.22
676.099	2479.92
676.289	2608.94
676.48	2494.26
676.671	2524.97
676.861	2385.71
677.052	2516.78
677.243	2457.39
677.433	2492.21
677.624	2529.07
677.814	2459.44
678.005	2441.01
678.195	2438.96
678.386	2416.43
678.576	2469.68
678.767	2494.26
678.957	2430.77
679.148	2414.38
679.338	2318.13
679.529	2379.57
679.719	2336.56
679.909	2432.82
680.1	2348.85
680.29	2428.72
680.481	2340.66
680.671	2369.33
680.861	2402.1
681.052	2420.53
681.242	2361.14
681.432	2385.71
681.622	2379.57
681.813	2248.5
682.003	2340.66
682.193	2418.48
682.383	2387.76
682.573	2281.27
682.764	2244.4
682.954	2264.88
683.144	2410.29
683.334	2395.95
683.524	2230.07
683.714	2324.27
683.904	2381.62
684.094	2295.6
684.284	2242.36
684.474	2375.47
684.664	2311.99
684.854	2260.79
685.044	2330.42
685.234	2221.88
685.424	2293.55
685.614	2199.35
685.804	2297.65
685.994	2309.94
686.184	2279.22
686.374	2144.05
686.564	2234.16
686.753	2381.62
686.943	2172.72
687.133	2189.11
687.323	2193.2
687.513	2248.5
687.702	2264.88
687.892	2160.44
688.082	2277.17
688.272	2273.07
688.461	2082.61
688.651	2086.71
688.841	2107.19
689.03	2164.53
689.22	2158.39
689.41	2164.53
689.599	2137.91
689.789	2271.03
689.979	2123.57
690.168	2201.4
690.358	2029.37
690.547	2058.04
690.737	2146.1
690.926	2150.2
691.116	1996.6
691.305	2082.61
691.495	2148.15
691.684	2055.99
691.874	2090.81
692.063	2039.61
692.252	2101.05
692.442	2096.95
692.631	2103.09
692.82	1980.22
693.01	2086.71
693.199	2072.37
693.388	1984.31
693.578	2008.89
693.767	2000.69
693.956	2082.61
694.146	2082.61
694.335	2023.22
694.524	2068.28
694.713	2055.99
694.902	1908.54
695.092	2035.51
695.281	2008.89
695.47	2035.51
695.659	1980.22
695.848	2086.71
696.037	2000.69
696.226	1967.93
696.415	1926.97
696.604	1965.88
696.793	2062.13
696.982	1996.6
697.171	1902.39
697.36	1963.83
697.549	1808.19
697.738	1875.77
697.927	1951.54
698.116	1955.64
698.305	1920.82
698.494	1877.82
698.683	1965.88
698.872	1900.34
699.061	1957.69
699.25	1886.01
699.438	1822.52
699.627	1845.05
699.816	1918.78
700.005	1754.94
700.193	1822.52
700.382	1898.3
700.571	1853.24
700.76	1871.67
700.948	1849.15
701.137	1822.52
701.326	1881.91
701.514	1843
701.703	1830.71
701.892	1769.27
702.08	1947.45
702.269	1830.71
702.457	1886.01
702.646	1888.06
702.834	1816.38
703.023	1967.93
703.212	1947.45
703.4	1828.67
703.589	1765.18
703.777	1793.85
703.965	1797.95
704.154	1795.9
704.342	1845.05
704.531	1851.19
704.719	1787.71
704.907	1838.91
705.096	1724.22
705.284	1779.51
705.472	1877.82
705.661	1742.65
705.849	1814.33
706.037	1828.67
706.226	1804.09
706.414	1775.42
706.602	1826.62
706.79	1830.71
706.979	1771.32
707.167	1765.18
707.355	1713.98
707.543	1713.98
707.731	1728.31
707.919	1744.7
708.107	1756.99
708.296	1748.79
708.484	1793.85
708.672	1730.36
708.86	1709.88
709.048	1738.55
709.236	1652.54
709.424	1742.65
709.612	1730.36
709.8	1685.31
709.988	1785.66
710.176	1689.4
710.364	1736.51
710.551	1652.54
710.739	1756.99
710.927	1662.78
711.115	1734.46
711.303	1654.59
711.491	1691.45
711.679	1670.97
711.866	1779.51
712.054	1640.25
712.242	1652.54
712.43	1695.55
712.617	1652.54
712.805	1711.93
712.993	1693.5
713.181	1670.97
713.368	1679.16
713.556	1689.4
713.744	1646.4
713.931	1656.64
714.119	1597.24
714.306	1517.37
714.494	1685.31
714.682	1767.23
714.869	1636.16
715.057	1660.73
715.244	1591.1
715.432	1707.84
715.619	1638.2
715.807	1650.49
715.994	1535.81
716.182	1615.68
716.369	1615.68
716.556	1746.75
716.744	1607.48
716.931	1650.49
717.119	1621.82
717.306	1480.51
717.493	1632.06
717.681	1572.67
717.868	1548.09
718.055	1615.68
718.242	1582.91
718.43	1560.38
718.617	1611.58
718.804	1609.53
718.991	1521.47
719.179	1505.09
719.366	1511.23
719.553	1593.15
719.74	1529.66
719.927	1478.46
720.114	1537.85
720.301	1494.85
720.488	1529.66
720.676	1525.57
720.863	1478.46
721.05	1498.94
721.237	1398.59
721.424	1572.67
721.611	1595.2
721.798	1519.42
721.985	1423.17
722.172	1462.08
722.358	1472.32
722.545	1554.24
722.732	1462.08
722.919	1572.67
723.106	1509.18
723.293	1505.09
723.48	1453.89
723.667	1369.92
723.853	1427.26
724.04	1443.65
724.227	1474.37
724.414	1437.5
724.6	1406.78
724.787	1525.57
724.974	1408.83
725.161	1443.65
725.347	1439.55
725.534	1351.49
725.72	1484.61
725.907	1443.65
726.094	1460.03
726.28	1402.69
726.467	1349.44
726.653	1441.6
726.84	1509.18
727.027	1525.57
727.213	1453.89
727.4	1474.37
727.586	1468.22
727.773	1464.13
727.959	1453.89
728.145	1464.13
728.332	1509.18
728.518	1486.65
728.705	1449.79
728.891	1462.08
729.077	1431.36
729.264	1431.36
729.45	1445.7
729.636	1445.7
729.823	1400.64
730.009	1392.45
730.195	1361.73
730.382	1306.43
730.568	1443.65
730.754	1474.37
730.94	1443.65
731.126	1394.5
731.313	1331.01
731.499	1433.41
731.685	1451.84
731.871	1427.26
732.057	1490.75
732.243	1392.45
732.429	1400.64
732.615	1347.39
732.801	1455.94
732.987	1406.78
733.173	1429.31
733.359	1421.12
733.545	1408.83
733.731	1412.93
733.917	1431.36
734.103	1361.73
734.289	1378.11
734.475	1478.46
734.661	1443.65
734.847	1333.06
735.033	1341.25
735.219	1298.24
735.404	1417.02
735.59	1421.12
735.776	1462.08
735.962	1367.87
736.148	1347.39
736.333	1355.58
736.519	1269.57
736.705	1361.73
736.89	1376.06
737.076	1333.06
737.262	1410.88
737.447	1421.12
737.633	1388.35
737.819	1288
738.004	1353.54
738.19	1349.44
738.375	1335.1
738.561	1273.67
738.747	1396.54
738.932	1283.91
739.118	1441.6
739.303	1386.3
739.489	1374.02
739.674	1279.81
739.859	1363.78
740.045	1224.51
740.23	1312.58
740.416	1306.43
740.601	1255.23
740.786	1351.49
740.972	1324.87
741.157	1343.3
741.342	1216.32
741.528	1292.1
741.713	1290.05
741.898	1326.91
742.084	1353.54
742.269	1310.53
742.454	1302.34
742.639	1343.3
742.824	1271.62
743.01	1310.53
743.195	1238.85
743.38	1218.37
743.565	1136.45
743.75	1148.74
743.935	1236.8
744.12	1181.51
744.305	1224.51
744.49	1228.61
744.675	1150.79
744.86	1183.56
745.045	1130.31
745.23	1158.98
745.415	1077.06
745.6	1150.79
745.785	1185.6
745.97	1115.97
746.155	1156.93
746.34	1204.03
746.525	1206.08
746.71	1216.32
746.895	1070.92
747.079	1189.7
747.264	1177.41
747.449	1124.16
747.634	1136.45
747.819	1128.26
748.003	1150.79
748.188	1101.64
748.373	1099.59
748.557	1105.73
748.742	1109.83
748.927	1021.77
749.111	1083.2
749.296	997.19
749.481	1109.83
749.665	1054.53
749.85	1013.57
750.034	1075.01
750.219	1212.23
750.404	939.85
750.588	1093.44
750.773	999.24
750.957	1058.63
751.141	993.09
751.326	1038.15
751.51	925.51
751.695	919.37
751.879	952.13
752.064	1036.1
752.248	939.85
752.432	1062.73
752.617	941.89
752.801	929.61
752.985	851.78
753.17	972.61
753.354	923.46
753.538	894.79
753.722	919.37
753.907	911.18
754.091	857.93
754.275	878.41
754.459	937.8
754.643	814.92
754.828	878.41
755.012	907.08
755.196	853.83
755.38	927.56
755.564	837.45
755.748	956.23
755.932	898.89
756.116	792.39
756.3	886.6
756.484	780.11
756.668	796.49
756.852	730.95
757.036	790.35
757.22	741.19
757.404	806.73
757.588	782.15
757.772	759.63
757.956	773.96
758.14	812.87
758.323	782.15
758.507	810.82
758.691	782.15
758.875	819.02
759.059	773.96
759.242	739.15
759.426	743.24
759.61	737.1
759.794	722.76
759.977	759.63
760.161	704.33
760.345	679.75
760.528	683.85
760.712	728.91
760.895	722.76
761.079	720.71
761.263	671.56
761.446	743.24
761.63	718.67
761.813	659.28
761.997	722.76
762.18	755.53
762.364	642.89
762.547	704.33
762.731	700.23
762.914	644.94
763.098	687.95
763.281	579.4
763.464	618.32
763.648	661.32
763.831	659.28
764.015	659.28
764.198	657.23
764.381	692.04
764.564	646.99
764.748	696.14
764.931	667.47
765.114	620.36
765.297	575.31
765.481	667.47
765.664	638.8
765.847	646.99
766.03	620.36
766.213	632.65
766.397	638.8
766.58	583.5
766.763	612.17
766.946	597.84
767.129	634.7
767.312	595.79
767.495	589.64
767.678	626.51
767.861	577.36
768.044	616.27
768.227	528.21
768.41	608.08
768.593	542.54
768.776	603.98
768.959	606.03
769.142	577.36
769.324	513.87
769.507	593.74
769.69	587.6
769.873	542.54
770.056	581.45
770.239	608.08
770.421	546.64
770.604	575.31
770.787	534.35
770.97	530.25
771.152	608.08
771.335	587.6
771.518	610.12
771.7	548.68
771.883	575.31
772.066	530.25
772.248	487.25
772.431	540.49
772.613	563.02
772.796	526.16
772.978	599.88
773.161	491.34
773.343	487.25
773.526	413.52
773.708	450.38
773.891	495.44
774.073	520.01
774.256	538.45
774.438	479.05
774.621	452.43
774.803	618.32
774.985	429.9
775.168	470.86
775.35	515.92
775.532	460.62
775.715	503.63
775.897	462.67
776.079	472.91
776.261	526.16
776.444	517.97
776.626	454.48
776.808	362.32
776.99	413.52
777.173	364.37
777.355	419.66
777.537	407.38
777.719	380.75
777.901	454.48
778.083	440.14
778.265	431.95
778.447	454.48
778.629	372.56
778.811	411.47
778.993	454.48
779.175	370.51
779.357	413.52
779.539	403.28
779.721	429.9
779.903	470.86
780.085	448.33
780.267	378.7
780.449	417.61
780.631	345.94
780.812	405.33
780.994	362.32
781.176	356.18
781.358	395.09
781.54	290.64
781.721	325.46
781.903	335.7
782.085	360.27
782.267	378.7
782.448	341.84
782.63	382.8
782.812	302.93
782.993	397.14
783.175	341.84
783.357	304.98
783.538	311.12
783.72	386.9
783.901	450.38
784.083	364.37
784.264	251.73
784.446	274.26
784.627	296.78
784.809	370.51
784.99	280.4
785.172	362.32
785.353	274.26
785.535	337.74
785.716	313.17
785.897	321.36
786.079	300.88
786.26	264.02
786.441	378.7
786.623	372.56
786.804	276.31
786.985	290.64
787.167	253.78
787.348	218.96
787.529	309.07
787.71	345.94
787.891	294.74
788.073	241.49
788.254	304.98
788.435	270.16
788.616	304.98
788.797	161.62
788.978	186.19
789.159	354.13
789.34	282.45
789.522	231.25
789.703	259.92
789.884	233.3
790.065	247.63
790.246	243.54
790.427	264.02
790.607	243.54
790.788	216.91
790.969	225.11
791.15	272.21
791.331	278.35
791.512	231.25
791.693	276.31
791.874	255.83
792.054	235.35
792.235	223.06
792.416	155.47
792.597	300.88
792.778	178
792.958	198.48
793.139	214.87
793.32	270.16
793.5	214.87
793.681	171.86
793.862	180.05
794.042	233.3
794.223	229.2
794.404	182.1
794.584	200.53
794.765	184.15
794.945	208.72
795.126	198.48
795.306	223.06
795.487	235.35
795.667	221.01
795.848	151.38
796.028	139.09
796.209	280.4
796.389	153.43
796.57	182.1
796.75	235.35
796.93	190.29
797.111	178
797.291	165.71
797.471	182.1
797.652	216.91
797.832	104.28
798.012	190.29
798.192	251.73
798.373	208.72
798.553	98.13
798.733	221.01
798.913	124.76
799.093	163.67
799.274	112.47
799.454	231.25
799.634	223.06
799.814	157.52
799.994	132.95
800.174	216.91
800.354	182.1
800.534	157.52
800.714	169.81
800.894	137.04
801.074	100.18
801.254	114.52
801.434	202.58
801.614	112.47
801.794	145.24
801.974	261.97
802.154	130.9
802.334	132.95
802.514	135
802.693	116.56
802.873	165.71
803.053	137.04
803.233	155.47
803.413	239.44
803.592	120.66
803.772	159.57
803.952	108.37
804.131	210.77
804.311	147.28
804.491	87.89
804.67	132.95
804.85	67.41
805.03	141.14
805.209	128.85
805.389	165.71
805.568	214.87
805.748	106.32
805.928	167.76
806.107	108.37
806.287	124.76
806.466	159.57
806.646	180.05
806.825	173.91
807.004	89.94
807.184	120.66
807.363	126.8
807.543	118.61
807.722	83.8
807.901	149.33
808.081	149.33
808.26	77.65
808.439	137.04
808.619	91.99
808.798	169.81
808.977	135
809.156	36.69
809.336	161.62
809.515	139.09
809.694	112.47
809.873	34.64
810.052	153.43
810.231	85.84
810.411	124.76
810.59	122.71
810.769	184.15
810.948	122.71
811.127	163.67
811.306	135
811.485	149.33
811.664	108.37
811.843	94.04
812.022	63.32
812.201	122.71
812.38	120.66
812.559	83.8
812.737	89.94
812.916	87.89
813.095	53.08
813.274	48.98
813.453	91.99
813.632	118.61
813.811	-8.36
813.989	85.84
814.168	106.32
814.347	75.6
814.526	173.91
814.704	73.56
814.883	135
815.062	63.32
815.24	98.13
815.419	104.28
815.598	89.94
815.776	98.13
815.955	96.08
816.133	83.8
816.312	26.45
816.49	100.18
816.669	34.64
816.847	59.22
817.026	20.31
817.204	98.13
817.383	141.14
817.561	24.4
817.74	132.95
817.918	100.18
818.097	59.22
818.275	96.08
818.453	67.41
818.632	30.55
818.81	85.84
818.988	75.6
819.167	147.28
819.345	147.28
819.523	124.76
819.701	51.03
819.879	157.52
820.058	8.02
820.236	175.95
820.414	104.28
820.592	53.08
820.77	118.61
820.948	98.13
821.127	75.6
821.305	141.14
821.483	91.99
821.661	83.8
821.839	87.89
822.017	106.32
822.195	-14.51
822.373	32.6
822.551	122.71
822.729	83.8
822.907	69.46
823.085	65.36
823.262	36.69
823.44	94.04
823.618	98.13
823.796	69.46
823.974	-18.6
824.152	71.51
824.329	55.12
824.507	73.56
824.685	32.6
824.863	91.99
825.04	63.32
825.218	108.37
825.396	36.69
825.574	59.22
825.751	40.79
825.929	-20.65
826.107	63.32
826.284	67.41
826.462	91.99
826.639	65.36
826.817	53.08
826.994	59.22
827.172	87.89
827.349	110.42
827.527	59.22
827.704	94.04
827.882	34.64
828.059	67.41
828.237	79.7
828.414	16.21
828.591	38.74
828.769	26.45
828.946	10.07
829.124	3.93
829.301	135
829.478	-10.41
829.655	46.93
829.833	32.6
830.01	65.36
830.187	69.46
830.364	36.69
830.542	116.56
830.719	104.28
830.896	57.17
831.073	79.7
831.25	59.22
831.427	87.89
831.604	3.93
831.782	67.41
831.959	32.6
832.136	75.6
832.313	48.98
832.49	75.6
832.667	28.5
832.844	38.74
833.021	128.85
833.198	51.03
833.374	46.93
833.551	26.45
833.728	184.15
833.905	44.88
834.082	53.08
834.259	139.09
834.436	20.31
834.612	46.93
834.789	-14.51
834.966	59.22
835.143	61.27
835.319	10.07
835.496	81.75
835.673	61.27
835.85	5.97
836.026	36.69
836.203	83.8
836.38	81.75
836.556	104.28
836.733	30.55
836.909	28.5
837.086	14.17
837.262	22.36
837.439	38.74
837.616	75.6
837.792	48.98
837.968	46.93
838.145	38.74
838.321	36.69
838.498	-4.27
838.674	63.32
838.851	46.93
839.027	34.64
839.203	102.23
839.38	-10.41
839.556	36.69
839.732	59.22
839.909	14.17
840.085	57.17
840.261	-47.27
840.437	83.8
840.614	16.21
840.79	108.37
840.966	63.32
841.142	75.6
841.318	61.27
841.494	-8.36
841.671	75.6
841.847	-37.03
842.023	-2.22
842.199	34.64
842.375	81.75
842.551	-104.62
842.727	67.41
842.903	40.79
843.079	59.22
843.255	14.17
843.431	26.45
843.607	87.89
843.783	16.21
843.959	1.88
844.134	26.45
844.31	83.8
844.486	48.98
844.662	83.8
844.838	-2.22
845.013	61.27
845.189	42.84
845.365	18.26
845.541	42.84
845.716	18.26
845.892	53.08
846.068	53.08
846.244	-20.65
846.419	67.41
846.595	30.55
846.77	-8.36
846.946	65.36
847.122	106.32
847.297	5.97
847.473	-2.22
847.648	20.31
847.824	75.6
847.999	63.32
848.175	20.31
848.35	28.5
848.526	126.8
848.701	57.17
848.876	-14.51
849.052	53.08
849.227	34.64
849.403	69.46
849.578	-18.6
849.753	67.41
849.929	-37.03
850.104	-10.41
850.279	83.8
850.454	77.65
850.63	-22.7
850.805	18.26
850.98	38.74
851.155	87.89
851.33	141.14
851.505	28.5
851.681	63.32
851.856	51.03
852.031	-16.55
852.206	59.22
852.381	102.23
852.556	48.98
852.731	46.93
852.906	-8.36
853.081	-0.17
853.256	36.69
853.431	59.22
853.606	22.36
853.781	38.74
853.956	-34.99
854.131	59.22
854.305	-12.46
854.48	1.88
854.655	26.45
854.83	-34.99
855.005	22.36
855.18	55.12
855.354	-61.61
855.529	-0.17
855.704	34.64
855.879	-4.27
856.053	61.27
856.228	51.03
856.403	-12.46
856.577	102.23
856.752	1.88
856.926	-20.65
857.101	3.93
857.276	42.84
857.45	-47.27
857.625	79.7
857.799	48.98
857.974	48.98
858.148	3.93
858.323	100.18
858.497	26.45
858.672	46.93
858.846	3.93
859.02	1.88
859.195	98.13
859.369	-4.27
859.543	38.74
859.718	28.5
859.892	46.93
860.066	-53.42
860.241	53.08
860.415	-4.27
860.589	-32.94
860.763	34.64
860.938	20.31
861.112	26.45
861.286	-59.56
861.46	12.12
861.634	30.55
861.808	20.31
861.982	-59.56
862.157	-39.08
862.331	20.31
862.505	3.93
862.679	30.55
862.853	48.98
863.027	32.6
863.201	67.41
863.375	65.36
863.549	77.65
863.722	16.21
863.896	3.93
864.07	30.55
864.244	22.36
864.418	42.84
864.592	53.08
864.766	34.64
864.939	-12.46
865.113	-0.17
865.287	55.12
865.461	-4.27
865.634	-14.51
865.808	10.07
865.982	3.93
866.156	67.41
866.329	24.4
866.503	-37.03
866.676	34.64
866.85	5.97
867.024	-45.23
867.197	3.93
867.371	-30.89
867.544	-6.31
867.718	36.69
867.891	96.08
868.065	28.5
868.238	28.5
868.412	36.69
868.585	53.08
868.759	3.93
868.932	-22.7
869.105	32.6
869.279	-14.51
869.452	-6.31
869.625	26.45
869.799	110.42
869.972	-37.03
870.145	40.79
870.319	-6.31
870.492	69.46
870.665	-14.51
870.838	-12.46
871.011	20.31
871.185	53.08
871.358	-10.41
871.531	30.55
871.704	-8.36
871.877	26.45
872.05	-37.03
872.223	14.17
872.396	24.4
872.569	20.31
872.742	-41.13
872.915	10.07
873.088	34.64
873.261	-4.27
873.434	10.07
873.607	-12.46
873.78	14.17
873.953	20.31
874.126	-4.27
874.299	53.08
874.471	128.85
874.644	-2.22
874.817	-18.6
874.99	57.17
875.163	-28.84
875.335	5.97
875.508	57.17
875.681	63.32
875.853	96.08
876.026	18.26
876.199	53.08
876.371	32.6
876.544	1.88
876.717	-24.75
876.889	94.04
877.062	87.89
877.234	28.5
877.407	-16.55
877.579	-49.32
877.752	20.31
877.924	-4.27
878.097	-6.31
878.269	18.26
878.442	8.02
878.614	61.27
878.786	-86.19
878.959	10.07
879.131	-0.17
879.303	59.22
879.476	26.45
879.648	18.26
879.82	24.4
879.993	34.64
880.165	-45.23
880.337	30.55
880.509	36.69
880.681	-37.03
880.854	28.5
881.026	53.08
881.198	-45.23
881.37	-22.7
881.542	5.97
881.714	-4.27
881.886	-26.79
882.058	5.97
882.23	-2.22
882.402	-2.22
882.574	8.02
882.746	26.45
882.918	30.55
883.09	3.93
883.262	32.6
883.434	-39.08
883.606	20.31
883.778	38.74
883.95	59.22
884.122	-0.17
884.293	89.94
884.465	8.02
884.637	14.17
884.809	91.99
884.98	3.93
885.152	-16.55
885.324	-10.41
885.496	69.46
885.667	12.12
885.839	-2.22
886.011	14.17
886.182	-34.99
886.354	-32.94
886.525	16.21
886.697	53.08
886.869	-43.18
887.04	38.74
887.212	-32.94
887.383	48.98
887.555	-20.65
887.726	40.79
887.897	12.12
888.069	30.55
888.24	51.03
888.412	46.93
888.583	-22.7
888.754	-14.51
888.926	71.51
889.097	34.64
889.268	18.26
889.44	40.79
889.611	28.5
889.782	59.22
889.953	5.97
890.125	102.23
890.296	-14.51
890.467	20.31
890.638	3.93
890.809	-14.51
890.98	-45.23
891.151	-20.65
891.323	110.42
891.494	-2.22
891.665	28.5
891.836	-24.75
892.007	-4.27
892.178	61.27
892.349	10.07
892.52	1.88
892.691	8.02
892.862	36.69
893.032	-14.51
893.203	-20.65
893.374	12.12
893.545	32.6
893.716	32.6
893.887	3.93
894.057	51.03
894.228	18.26
894.399	14.17
894.57	22.36
894.74	5.97
894.911	-18.6
895.082	30.55
895.253	36.69
895.423	10.07
895.594	-45.23
895.764	-14.51
895.935	18.26
896.106	8.02
896.276	-6.31
896.447	-51.37
896.617	32.6
896.788	10.07
896.958	22.36
897.129	-47.27
897.299	-14.51
897.47	36.69
897.64	22.36
897.81	32.6
897.981	77.65
898.151	-6.31
898.322	65.36
898.492	59.22
898.662	-8.36
898.832	63.32
899.003	-12.46
899.173	30.55
899.343	20.31
899.513	55.12
