Data from USB4F104151__15__12-58-30-179.txt Node

Date: Fri Mar 14 12:58:30 EDT 2025
User: louis
Spectrometer: USB4F10415
Trigger mode: 4
Integration Time (sec): 1.000000E-2
Scans to average: 1
Electric dark correction enabled: true
Nonlinearity correction enabled: false
Boxcar width: 0
XAxis mode: Wavelengths
Number of Pixels in Spectrum: 3648
>>>>>Begin Spectral Data<<<<<
178.204	-25.26
178.424	-25.26
178.644	-25.26
178.864	-105.13
179.084	-19.11
179.304	7.51
179.524	-39.59
179.744	-27.31
179.964	13.65
180.184	17.75
180.404	5.46
180.624	13.65
180.844	-62.12
181.064	5.46
181.283	32.08
181.503	17.75
181.723	15.7
181.943	-58.03
182.163	38.23
182.383	-12.97
182.602	50.52
182.822	-27.31
183.042	-31.4
183.262	-62.12
183.482	68.95
183.701	-4.78
183.921	23.89
184.141	44.37
184.361	54.61
184.58	-12.97
184.8	11.61
185.02	19.8
185.239	-12.97
185.459	15.7
185.679	-68.27
185.898	-53.93
186.118	27.99
186.338	-4.78
186.557	3.41
186.777	-29.35
186.997	15.7
187.216	-19.11
187.436	-19.11
187.655	71
187.875	54.61
188.095	-29.35
188.314	60.76
188.534	38.23
188.753	64.85
188.973	-8.87
189.192	-58.03
189.412	-4.78
189.631	3.41
189.851	-8.87
190.07	34.13
190.29	5.46
190.509	-72.36
190.729	27.99
190.948	-51.88
191.168	-10.92
191.387	15.7
191.607	-4.78
191.826	-49.83
192.045	-68.27
192.265	-43.69
192.484	32.08
192.704	-21.16
192.923	44.37
193.142	5.46
193.362	7.51
193.581	-51.88
193.8	9.56
194.02	-21.16
194.239	11.61
194.458	5.46
194.678	-29.35
194.897	-15.02
195.116	27.99
195.335	-2.73
195.555	-12.97
195.774	71
195.993	27.99
196.212	-58.03
196.432	-21.16
196.651	-4.78
196.87	17.75
197.089	15.7
197.308	13.65
197.528	5.46
197.747	-29.35
197.966	13.65
198.185	48.47
198.404	30.04
198.623	50.52
198.842	13.65
199.062	-10.92
199.281	-8.87
199.5	-35.5
199.719	46.42
199.938	-10.92
200.157	46.42
200.376	-4.78
200.595	-6.83
200.814	11.61
201.033	-35.5
201.252	-8.87
201.471	-27.31
201.69	48.47
201.909	15.7
202.128	27.99
202.347	-19.11
202.566	-10.92
202.785	1.37
203.004	36.18
203.223	56.66
203.442	-60.07
203.661	25.94
203.879	-6.83
204.098	71
204.317	23.89
204.536	-25.26
204.755	-41.64
204.974	5.46
205.193	13.65
205.411	40.28
205.63	-60.07
205.849	-74.41
206.068	-31.4
206.287	13.65
206.505	5.46
206.724	44.37
206.943	52.56
207.162	13.65
207.381	21.85
207.599	3.41
207.818	46.42
208.037	-53.93
208.255	34.13
208.474	71
208.693	44.37
208.911	-27.31
209.13	-47.79
209.349	30.04
209.567	-2.73
209.786	-53.93
210.005	7.51
210.223	-37.55
210.442	36.18
210.661	-6.83
210.879	-33.45
211.098	-31.4
211.316	11.61
211.535	-19.11
211.753	3.41
211.972	27.99
212.191	-88.75
212.409	52.56
212.628	-45.74
212.846	-29.35
213.065	52.56
213.283	-17.07
213.502	-10.92
213.72	7.51
213.938	-10.92
214.157	-29.35
214.375	-70.31
214.594	-15.02
214.812	13.65
215.031	-29.35
215.249	5.46
215.467	-0.68
215.686	-8.87
215.904	85.33
216.122	27.99
216.341	-6.83
216.559	19.8
216.778	58.71
216.996	9.56
217.214	30.04
217.432	25.94
217.651	-53.93
217.869	-17.07
218.087	52.56
218.306	-37.55
218.524	-21.16
218.742	13.65
218.96	-21.16
219.179	-37.55
219.397	60.76
219.615	77.14
219.833	52.56
220.051	-0.68
220.27	19.8
220.488	-0.68
220.706	5.46
220.924	25.94
221.142	-2.73
221.36	-8.87
221.578	60.76
221.796	23.89
222.015	1.37
222.233	21.85
222.451	-12.97
222.669	3.41
222.887	27.99
223.105	5.46
223.323	46.42
223.541	-35.5
223.759	-37.55
223.977	11.61
224.195	7.51
224.413	-15.02
224.631	15.7
224.849	-8.87
225.067	-37.55
225.285	-17.07
225.503	38.23
225.721	-23.21
225.939	-53.93
226.157	-12.97
226.375	23.89
226.592	17.75
226.81	-0.68
227.028	50.52
227.246	3.41
227.464	19.8
227.682	52.56
227.9	-29.35
228.117	-19.11
228.335	15.7
228.553	-27.31
228.771	-72.36
228.989	9.56
229.206	85.33
229.424	50.52
229.642	-39.59
229.86	48.47
230.077	13.65
230.295	-37.55
230.513	-2.73
230.731	103.76
230.948	17.75
231.166	1.37
231.384	-4.78
231.601	-10.92
231.819	-6.83
232.037	27.99
232.254	81.24
232.472	11.61
232.689	-25.26
232.907	-4.78
233.125	-4.78
233.342	30.04
233.56	-21.16
233.777	7.51
233.995	52.56
234.213	13.65
234.43	111.96
234.648	-70.31
234.865	15.7
235.083	34.13
235.3	-12.97
235.518	56.66
235.735	-66.22
235.953	79.19
236.17	-70.31
236.388	38.23
236.605	-23.21
236.822	-37.55
237.04	54.61
237.257	64.85
237.475	9.56
237.692	30.04
237.909	23.89
238.127	19.8
238.344	48.47
238.562	-12.97
238.779	-23.21
238.996	-15.02
239.214	-45.74
239.431	-23.21
239.648	27.99
239.865	5.46
240.083	21.85
240.3	11.61
240.517	-94.89
240.735	32.08
240.952	1.37
241.169	54.61
241.386	-19.11
241.603	-23.21
241.821	-35.5
242.038	15.7
242.255	11.61
242.472	50.52
242.689	1.37
242.907	-10.92
243.124	15.7
243.341	17.75
243.558	21.85
243.775	-6.83
243.992	15.7
244.209	44.37
244.426	-80.55
244.643	17.75
244.86	-4.78
245.078	101.72
245.295	13.65
245.512	-2.73
245.729	-8.87
245.946	11.61
246.163	60.76
246.38	-45.74
246.597	-25.26
246.814	-23.21
247.031	13.65
247.248	5.46
247.464	-49.83
247.681	23.89
247.898	25.94
248.115	17.75
248.332	-27.31
248.549	-51.88
248.766	52.56
248.983	42.32
249.2	15.7
249.417	9.56
249.633	-6.83
249.85	11.61
250.067	30.04
250.284	-23.21
250.501	-21.16
250.717	48.47
250.934	-8.87
251.151	42.32
251.368	-21.16
251.585	21.85
251.801	9.56
252.018	32.08
252.235	21.85
252.451	5.46
252.668	15.7
252.885	38.23
253.102	48.47
253.318	11.61
253.535	-35.5
253.752	62.8
253.968	17.75
254.185	46.42
254.401	-35.5
254.618	52.56
254.835	19.8
255.051	-19.11
255.268	-0.68
255.484	27.99
255.701	1.37
255.917	-29.35
256.134	-15.02
256.351	122.2
256.567	-119.46
256.784	56.66
257	-6.83
257.217	5.46
257.433	32.08
257.65	30.04
257.866	-47.79
258.082	-12.97
258.299	11.61
258.515	-4.78
258.732	-51.88
258.948	48.47
259.165	27.99
259.381	-27.31
259.597	-8.87
259.814	38.23
260.03	-47.79
260.246	46.42
260.463	-19.11
260.679	-19.11
260.895	30.04
261.112	1.37
261.328	66.9
261.544	60.76
261.761	48.47
261.977	32.08
262.193	-58.03
262.409	-23.21
262.626	-78.51
262.842	64.85
263.058	-10.92
263.274	85.33
263.49	-21.16
263.707	58.71
263.923	19.8
264.139	-19.11
264.355	15.7
264.571	34.13
264.787	-17.07
265.004	68.95
265.22	52.56
265.436	40.28
265.652	-27.31
265.868	5.46
266.084	3.41
266.3	48.47
266.516	48.47
266.732	1.37
266.948	46.42
267.164	1.37
267.38	52.56
267.596	-27.31
267.812	5.46
268.028	15.7
268.244	-37.55
268.46	-35.5
268.676	15.7
268.892	60.76
269.108	5.46
269.324	-0.68
269.54	3.41
269.756	5.46
269.972	40.28
270.188	13.65
270.403	-49.83
270.619	-78.51
270.835	-49.83
271.051	-35.5
271.267	34.13
271.483	-49.83
271.698	48.47
271.914	34.13
272.13	17.75
272.346	-8.87
272.562	1.37
272.777	5.46
272.993	-45.74
273.209	-12.97
273.425	19.8
273.64	50.52
273.856	-27.31
274.072	-10.92
274.287	-27.31
274.503	19.8
274.719	36.18
274.934	64.85
275.15	13.65
275.366	21.85
275.581	-10.92
275.797	3.41
276.012	-0.68
276.228	-27.31
276.444	-12.97
276.659	15.7
276.875	-37.55
277.09	-47.79
277.306	34.13
277.521	-15.02
277.737	23.89
277.952	66.9
278.168	-4.78
278.383	40.28
278.599	-37.55
278.814	56.66
279.03	-35.5
279.245	19.8
279.461	-0.68
279.676	-19.11
279.892	-12.97
280.107	-53.93
280.322	32.08
280.538	93.52
280.753	-35.5
280.969	-12.97
281.184	-31.4
281.399	3.41
281.615	-0.68
281.83	87.38
282.045	-43.69
282.26	7.51
282.476	-47.79
282.691	-6.83
282.906	54.61
283.122	-10.92
283.337	-21.16
283.552	-45.74
283.767	48.47
283.983	13.65
284.198	-29.35
284.413	11.61
284.628	-21.16
284.843	101.72
285.058	-92.84
285.274	-27.31
285.489	58.71
285.704	-17.07
285.919	3.41
286.134	19.8
286.349	64.85
286.564	-2.73
286.779	-41.64
286.995	19.8
287.21	23.89
287.425	-72.36
287.64	-33.45
287.855	-39.59
288.07	-21.16
288.285	17.75
288.5	23.89
288.715	-21.16
288.93	109.91
289.145	-80.55
289.36	-45.74
289.575	11.61
289.79	-29.35
290.004	19.8
290.219	30.04
290.434	-51.88
290.649	17.75
290.864	73.04
291.079	-19.11
291.294	25.94
291.509	19.8
291.724	19.8
291.938	38.23
292.153	46.42
292.368	71
292.583	-27.31
292.798	-43.69
293.012	44.37
293.227	27.99
293.442	25.94
293.657	-29.35
293.871	1.37
294.086	36.18
294.301	-62.12
294.516	5.46
294.73	73.04
294.945	-12.97
295.16	5.46
295.374	21.85
295.589	44.37
295.804	-15.02
296.018	5.46
296.233	42.32
296.447	-0.68
296.662	27.99
296.877	-17.07
297.091	64.85
297.306	-0.68
297.52	1.37
297.735	15.7
297.949	-27.31
298.164	23.89
298.378	15.7
298.593	9.56
298.807	30.04
299.022	79.19
299.236	-0.68
299.451	-12.97
299.665	36.18
299.88	11.61
300.094	23.89
300.309	64.85
300.523	-37.55
300.737	-10.92
300.952	-4.78
301.166	15.7
301.381	-17.07
301.595	-12.97
301.809	25.94
302.024	-31.4
302.238	-51.88
302.452	5.46
302.667	36.18
302.881	36.18
303.095	64.85
303.309	21.85
303.524	7.51
303.738	-49.83
303.952	-2.73
304.166	89.43
304.381	21.85
304.595	50.52
304.809	-58.03
305.023	3.41
305.237	27.99
305.452	-8.87
305.666	36.18
305.88	48.47
306.094	7.51
306.308	44.37
306.522	50.52
306.736	7.51
306.95	-4.78
307.164	44.37
307.379	34.13
307.593	46.42
307.807	3.41
308.021	46.42
308.235	50.52
308.449	-29.35
308.663	56.66
308.877	-4.78
309.091	9.56
309.305	54.61
309.519	71
309.733	32.08
309.947	-27.31
310.161	19.8
310.374	-37.55
310.588	1.37
310.802	-17.07
311.016	-25.26
311.23	79.19
311.444	21.85
311.658	1.37
311.872	17.75
312.085	23.89
312.299	-31.4
312.513	64.85
312.727	25.94
312.941	-6.83
313.154	77.14
313.368	21.85
313.582	64.85
313.796	-37.55
314.009	79.19
314.223	36.18
314.437	73.04
314.651	15.7
314.864	-21.16
315.078	9.56
315.292	30.04
315.505	13.65
315.719	17.75
315.933	48.47
316.146	44.37
316.36	-12.97
316.573	9.56
316.787	11.61
317.001	97.62
317.214	-4.78
317.428	-12.97
317.641	-0.68
317.855	-45.74
318.068	36.18
318.282	-4.78
318.495	17.75
318.709	15.7
318.922	-58.03
319.136	34.13
319.349	-25.26
319.563	-6.83
319.776	-39.59
319.99	-35.5
320.203	64.85
320.417	52.56
320.63	-10.92
320.843	71
321.057	5.46
321.27	-80.55
321.483	-4.78
321.697	23.89
321.91	-62.12
322.124	5.46
322.337	-19.11
322.55	-68.27
322.763	-4.78
322.977	3.41
323.19	-29.35
323.403	50.52
323.617	62.8
323.83	124.24
324.043	-51.88
324.256	-0.68
324.469	-41.64
324.683	44.37
324.896	38.23
325.109	-0.68
325.322	-72.36
325.535	27.99
325.748	-10.92
325.962	-12.97
326.175	-62.12
326.388	-27.31
326.601	-8.87
326.814	-6.83
327.027	-12.97
327.24	56.66
327.453	-2.73
327.666	15.7
327.879	-45.74
328.092	36.18
328.305	-12.97
328.518	-25.26
328.731	21.85
328.944	-39.59
329.157	30.04
329.37	5.46
329.583	21.85
329.796	126.29
330.009	15.7
330.222	17.75
330.435	-4.78
330.648	17.75
330.861	-27.31
331.073	60.76
331.286	-51.88
331.499	7.51
331.712	-74.41
331.925	36.18
332.138	13.65
332.35	34.13
332.563	23.89
332.776	68.95
332.989	42.32
333.202	48.47
333.414	42.32
333.627	-70.31
333.84	68.95
334.053	-17.07
334.265	9.56
334.478	42.32
334.691	23.89
334.903	25.94
335.116	-64.17
335.329	66.9
335.541	19.8
335.754	15.7
335.966	-8.87
336.179	1.37
336.392	5.46
336.604	-64.17
336.817	-35.5
337.029	17.75
337.242	-15.02
337.454	5.46
337.667	36.18
337.88	73.04
338.092	-27.31
338.305	-17.07
338.517	-43.69
338.729	81.24
338.942	93.52
339.154	-55.98
339.367	19.8
339.579	19.8
339.792	-25.26
340.004	23.89
340.217	71
340.429	19.8
340.641	77.14
340.854	-41.64
341.066	46.42
341.278	-8.87
341.491	34.13
341.703	75.09
341.915	-8.87
342.128	48.47
342.34	21.85
342.552	5.46
342.764	-15.02
342.977	40.28
343.189	15.7
343.401	27.99
343.613	-0.68
343.826	-12.97
344.038	-25.26
344.25	-25.26
344.462	34.13
344.674	40.28
344.886	77.14
345.099	48.47
345.311	46.42
345.523	-4.78
345.735	11.61
345.947	13.65
346.159	-25.26
346.371	-4.78
346.583	-12.97
346.795	54.61
347.007	64.85
347.219	13.65
347.431	-47.79
347.643	97.62
347.855	13.65
348.067	23.89
348.279	-6.83
348.491	46.42
348.703	-55.98
348.915	48.47
349.127	52.56
349.339	87.38
349.551	19.8
349.763	-8.87
349.975	25.94
350.187	-41.64
350.399	36.18
350.61	54.61
350.822	54.61
351.034	-23.21
351.246	-0.68
351.458	42.32
351.669	13.65
351.881	66.9
352.093	1.37
352.305	-29.35
352.517	23.89
352.728	-0.68
352.94	30.04
353.152	89.43
353.363	66.9
353.575	44.37
353.787	44.37
353.999	23.89
354.21	-0.68
354.422	-10.92
354.633	48.47
354.845	19.8
355.057	-19.11
355.268	-27.31
355.48	54.61
355.692	-2.73
355.903	36.18
356.115	-17.07
356.326	38.23
356.538	50.52
356.749	60.76
356.961	11.61
357.172	38.23
357.384	38.23
357.595	-0.68
357.807	-0.68
358.018	11.61
358.23	71
358.441	3.41
358.653	-45.74
358.864	15.7
359.075	46.42
359.287	-2.73
359.498	46.42
359.709	17.75
359.921	75.09
360.132	13.65
360.344	50.52
360.555	-58.03
360.766	-19.11
360.977	11.61
361.189	5.46
361.4	9.56
361.611	52.56
361.823	17.75
362.034	77.14
362.245	-4.78
362.456	77.14
362.667	-17.07
362.879	-31.4
363.09	34.13
363.301	42.32
363.512	38.23
363.723	27.99
363.935	9.56
364.146	-39.59
364.357	-2.73
364.568	77.14
364.779	-4.78
364.99	71
365.201	-45.74
365.412	-12.97
365.623	23.89
365.834	-21.16
366.045	58.71
366.256	42.32
366.467	25.94
366.678	77.14
366.889	-12.97
367.1	32.08
367.311	9.56
367.522	7.51
367.733	52.56
367.944	83.28
368.155	42.32
368.366	-37.55
368.577	13.65
368.788	56.66
368.999	27.99
369.209	-35.5
369.42	32.08
369.631	5.46
369.842	-4.78
370.053	-31.4
370.264	60.76
370.474	27.99
370.685	19.8
370.896	60.76
371.107	36.18
371.317	56.66
371.528	64.85
371.739	17.75
371.95	13.65
372.16	21.85
372.371	7.51
372.582	75.09
372.792	50.52
373.003	30.04
373.214	-0.68
373.424	-37.55
373.635	38.23
373.846	44.37
374.056	-12.97
374.267	21.85
374.477	27.99
374.688	-90.79
374.898	3.41
375.109	15.7
375.319	46.42
375.53	13.65
375.74	7.51
375.951	44.37
376.161	46.42
376.372	54.61
376.582	9.56
376.793	7.51
377.003	-27.31
377.214	48.47
377.424	9.56
377.635	-37.55
377.845	9.56
378.055	32.08
378.266	7.51
378.476	32.08
378.686	-0.68
378.897	3.41
379.107	11.61
379.317	30.04
379.528	15.7
379.738	52.56
379.948	3.41
380.158	64.85
380.369	19.8
380.579	-31.4
380.789	-4.78
380.999	-4.78
381.21	17.75
381.42	32.08
381.63	34.13
381.84	36.18
382.05	3.41
382.261	-25.26
382.471	3.41
382.681	19.8
382.891	-6.83
383.101	17.75
383.311	36.18
383.521	36.18
383.731	-49.83
383.941	23.89
384.151	27.99
384.361	30.04
384.571	21.85
384.781	34.13
384.991	21.85
385.201	101.72
385.411	36.18
385.621	11.61
385.831	25.94
386.041	30.04
386.251	-12.97
386.461	44.37
386.671	-35.5
386.881	42.32
387.091	-4.78
387.301	91.48
387.511	-12.97
387.72	73.04
387.93	17.75
388.14	-2.73
388.35	-4.78
388.56	-0.68
388.769	7.51
388.979	62.8
389.189	-4.78
389.399	34.13
389.609	21.85
389.818	134.48
390.028	5.46
390.238	-35.5
390.447	48.47
390.657	-17.07
390.867	21.85
391.076	1.37
391.286	-15.02
391.496	15.7
391.705	40.28
391.915	3.41
392.125	71
392.334	25.94
392.544	60.76
392.753	11.61
392.963	42.32
393.172	44.37
393.382	21.85
393.591	68.95
393.801	11.61
394.01	56.66
394.22	40.28
394.429	3.41
394.639	44.37
394.848	85.33
395.058	62.8
395.267	42.32
395.477	52.56
395.686	1.37
395.895	77.14
396.105	30.04
396.314	91.48
396.524	46.42
396.733	-2.73
396.942	11.61
397.152	116.05
397.361	93.52
397.57	60.76
397.78	64.85
397.989	48.47
398.198	40.28
398.407	77.14
398.617	101.72
398.826	62.8
399.035	107.86
399.244	-21.16
399.453	27.99
399.663	19.8
399.872	19.8
400.081	54.61
400.29	95.57
400.499	85.33
400.708	56.66
400.917	27.99
401.127	52.56
401.336	27.99
401.545	62.8
401.754	34.13
401.963	40.28
402.172	79.19
402.381	73.04
402.59	73.04
402.799	54.61
403.008	124.24
403.217	46.42
403.426	83.28
403.635	21.85
403.844	52.56
404.053	36.18
404.262	68.95
404.471	52.56
404.68	50.52
404.888	77.14
405.097	103.76
405.306	77.14
405.515	105.81
405.724	71
405.933	21.85
406.142	83.28
406.35	85.33
406.559	93.52
406.768	132.44
406.977	124.24
407.185	132.44
407.394	91.48
407.603	99.67
407.812	87.38
408.02	105.81
408.229	107.86
408.438	126.29
408.646	175.44
408.855	114
409.064	216.4
409.272	167.25
409.481	142.68
409.69	122.2
409.898	97.62
410.107	138.58
410.315	142.68
410.524	114
410.733	189.78
410.941	159.06
411.15	281.94
411.358	197.97
411.567	249.17
411.775	152.91
411.984	157.01
412.192	236.88
412.401	202.07
412.609	267.6
412.818	273.75
413.026	161.11
413.234	204.11
413.443	267.6
413.651	316.75
413.86	281.94
414.068	275.79
414.276	384.34
414.485	333.14
414.693	345.42
414.901	347.47
415.11	367.95
415.318	318.8
415.526	367.95
415.734	464.21
415.943	453.97
416.151	453.97
416.359	464.21
416.567	445.77
416.776	568.65
416.984	523.6
417.192	521.55
417.4	529.74
417.608	505.17
417.817	531.79
418.025	597.32
418.233	591.18
418.441	669
418.649	699.72
418.857	642.38
419.065	650.57
419.273	658.76
419.481	714.06
419.689	785.74
419.897	818.5
420.105	802.12
420.313	822.6
420.521	836.94
420.729	863.56
420.937	818.5
421.145	896.33
421.353	1019.21
421.561	1035.59
421.769	1045.83
421.977	1045.83
422.185	1002.82
422.393	1168.71
422.601	1189.19
422.809	1166.66
423.017	1178.95
423.224	1310.02
423.432	1303.87
423.64	1363.26
423.848	1455.42
424.056	1445.18
424.263	1461.57
424.471	1619.26
424.679	1512.77
424.887	1574.21
425.094	1701.18
425.302	1666.36
425.51	1754.43
425.718	1871.16
425.925	1729.85
426.133	1879.35
426.341	2041.14
426.548	2188.6
426.756	2114.87
426.964	2092.34
427.171	2215.22
427.379	2198.84
427.586	2331.95
427.794	2432.3
428.001	2536.75
428.209	2581.81
428.417	2592.05
428.624	2729.26
428.832	2786.6
429.039	2739.5
429.247	2669.87
429.454	2958.63
429.662	3089.7
429.869	2880.81
430.076	3153.19
430.284	3118.37
430.491	3190.05
430.699	3575.07
430.906	3476.77
431.114	3527.97
431.321	3460.38
431.528	3704.09
431.736	3906.84
431.943	4222.23
432.15	4050.2
432.358	3996.95
432.565	4250.9
432.772	4289.81
432.979	4467.99
433.187	4574.48
433.394	4500.75
433.601	4760.84
433.808	4861.2
434.016	4732.17
434.223	5147.91
434.43	5518.59
434.637	5385.48
434.844	5602.56
435.052	5725.44
435.259	5500.16
435.466	5780.73
435.673	5573.89
435.88	5987.58
436.087	6522.1
436.294	6292.73
436.501	6159.61
436.708	6409.46
436.915	6714.61
437.122	6849.77
437.329	6730.99
437.537	7015.66
437.743	7218.41
437.95	7187.69
438.157	7408.87
438.364	7767.26
438.571	7777.5
438.778	7681.25
438.985	8500.44
439.192	8008.92
439.399	8393.94
439.606	8377.56
439.813	8719.57
440.02	9231.56
440.227	9254.09
440.433	8928.46
440.64	9260.23
440.847	9080.01
441.054	9389.25
441.261	9972.93
441.467	10130.62
441.674	10179.77
441.881	10605.75
442.088	10452.15
442.294	10310.84
442.501	10767.54
442.708	10734.77
442.914	11338.92
443.121	11910.3
443.328	11664.55
443.534	12369.05
443.741	12010.65
443.948	12113.05
444.154	12784.79
444.361	12633.24
444.568	12670.1
444.774	12856.47
444.981	12897.42
445.187	13229.2
445.394	13778.05
445.6	13642.89
445.807	15062.13
446.013	14267.52
446.22	14793.84
446.426	14937.2
446.633	15363.18
446.839	15858.79
447.046	15287.4
447.252	16366.68
447.459	15885.41
447.665	15819.88
447.871	16864.34
448.078	17597.51
448.284	16784.47
448.491	17165.39
448.697	17841.22
448.903	18123.84
449.11	18265.15
449.316	17828.93
449.522	18326.59
449.728	18633.78
449.935	19014.71
450.141	19160.11
450.347	19508.27
450.553	18848.82
450.76	18961.46
450.966	19825.7
451.172	19309.61
451.378	19872.81
451.584	19432.49
451.791	19811.37
451.997	20007.97
452.203	20452.38
452.409	20188.19
452.615	20274.21
452.821	19506.22
453.027	19436.59
453.233	20257.82
453.44	19545.13
453.646	19964.96
453.852	19956.77
454.058	20440.09
454.264	19831.85
454.47	20010.02
454.676	19528.75
454.882	20399.13
455.088	18400.32
455.294	18957.36
455.5	18988.08
455.705	19256.37
455.911	18443.32
456.117	18150.46
456.323	17839.17
456.529	17034.32
456.735	17802.31
456.941	17488.97
457.147	17116.24
457.352	16378.97
457.558	16438.36
457.764	16450.65
457.97	15787.11
458.176	15619.17
458.381	15727.72
458.587	14947.44
458.793	15090.8
458.999	14103.68
459.204	15041.65
459.41	14652.53
459.616	13681.8
459.821	13945.98
460.027	13653.12
460.233	13505.67
460.438	12803.22
460.644	12856.47
460.85	12336.28
461.055	12057.76
461.261	12289.18
461.466	11218.09
461.672	10749.11
461.878	11498.66
462.083	11007.15
462.289	10702
462.494	10611.89
462.7	10126.52
462.905	9993.4
463.111	10165.43
463.316	10181.82
463.522	9909.44
463.727	10005.69
463.932	10063.04
464.138	9852.1
464.343	9815.23
464.549	9604.29
464.754	9958.59
464.959	9893.05
465.165	9903.29
465.37	9374.92
465.575	9168.07
465.781	9702.59
465.986	9331.91
466.191	9176.27
466.397	8932.56
466.602	8527.06
466.807	8860.88
467.012	9026.76
467.218	8647.89
467.423	8729.81
467.628	8778.96
467.833	9174.22
468.038	8590.55
468.244	8654.03
468.449	8926.41
468.654	8756.43
468.859	8436.95
469.064	8527.06
469.269	8154.33
469.474	8281.3
469.679	8369.37
469.885	8099.03
470.09	8352.98
470.295	8361.17
470.5	7908.57
470.705	8154.33
470.91	7970.01
471.115	7836.89
471.32	7890.14
471.525	7931.1
471.73	7840.99
471.935	7607.52
472.139	7486.69
472.344	7339.24
472.549	7458.02
472.754	7488.74
472.959	7230.69
473.164	7091.43
473.369	6954.22
473.574	7242.98
473.778	7187.69
473.983	7075.05
474.188	6960.36
474.393	6589.68
474.598	6757.61
474.802	6704.37
475.007	6630.64
475.212	6671.6
475.417	6522.1
475.621	6585.58
475.826	6571.25
476.031	6388.98
476.235	6178.04
476.44	6460.66
476.645	6182.13
476.849	6135.03
477.054	6022.39
477.259	6092.02
477.463	5967.1
477.668	5887.23
477.872	5971.19
478.077	5811.45
478.282	5729.53
478.486	5768.45
478.691	5647.62
478.895	5604.61
479.1	5502.21
479.304	5655.81
479.509	5297.41
479.713	5637.38
479.918	5479.68
480.122	5338.37
480.326	5500.16
480.531	5342.47
480.735	5209.35
480.94	5305.6
481.144	5309.7
481.348	5258.5
481.553	5348.61
481.757	5096.71
481.961	5317.89
482.166	5330.18
482.37	5188.87
482.574	5041.42
482.778	5164.29
482.983	5256.45
483.187	5043.46
483.391	5160.2
483.595	5178.63
483.8	5229.83
484.004	5182.73
484.208	5252.36
484.412	5088.52
484.616	5268.74
484.821	5223.69
485.025	5168.39
485.229	5209.35
485.433	5045.51
485.637	5115.14
485.841	5109
486.045	5168.39
486.249	5109
486.453	5242.12
486.657	5109
486.861	5180.68
487.065	5172.49
487.269	5141.77
487.473	5111.05
487.677	5203.21
487.881	5201.16
488.085	5242.12
488.289	5203.21
488.493	5223.69
488.697	5190.92
488.901	5170.44
489.105	5143.81
489.309	5225.73
489.512	5391.62
489.716	5076.23
489.92	5184.77
490.124	5278.98
490.328	5326.08
490.531	5293.32
490.735	5223.69
490.939	5324.04
491.143	5385.48
491.346	5268.74
491.55	5471.49
491.754	5436.67
491.958	5557.5
492.161	5438.72
492.365	5606.66
492.569	5405.95
492.772	5405.95
492.976	5412.1
493.18	5653.76
493.383	5590.27
493.587	5729.53
493.79	5561.6
493.994	5655.81
494.197	5831.93
494.401	5887.23
494.605	5639.42
494.808	6096.12
495.012	5776.64
495.215	5872.89
495.419	6143.22
495.622	5774.59
495.825	6112.5
496.029	6120.7
496.232	6239.48
496.436	6200.57
496.639	6335.73
496.843	6235.38
497.046	6538.48
497.249	6610.16
497.453	6468.85
497.656	6708.46
497.859	6575.34
498.063	6708.46
498.266	6802.67
498.469	6931.69
498.673	6864.11
498.876	6837.48
499.079	7085.29
499.282	7066.86
499.485	7232.74
499.689	7165.16
499.892	7230.69
500.095	7427.3
500.298	7632.1
500.501	7537.89
500.705	7775.45
500.908	7892.19
501.111	7949.53
501.314	7922.91
501.517	8035.55
501.72	8172.76
501.923	8160.47
502.126	8375.51
502.329	8512.72
502.532	8547.54
502.735	8674.51
502.938	8748.24
503.141	8709.33
503.344	9010.38
503.547	8889.55
503.75	9249.99
503.953	9348.29
504.156	9403.59
504.359	9348.29
504.562	9624.77
504.765	9800.9
504.968	9848
505.17	9839.81
505.373	9882.81
505.576	9991.36
505.779	10013.88
505.982	10290.36
506.185	10359.99
506.387	10597.56
506.59	10652.85
506.793	10759.35
506.996	10745.01
507.198	11164.84
507.401	11054.25
507.604	11234.47
507.807	11549.86
508.009	11596.96
508.212	11734.18
508.415	11742.37
508.617	12129.44
508.82	12057.76
509.022	12037.28
509.225	12455.06
509.428	12268.7
509.63	12522.65
509.833	12725.4
510.035	12924.05
510.238	12936.34
510.44	12965.01
510.643	13237.39
510.845	13444.23
511.048	13194.38
511.25	13855.87
511.453	13689.99
511.655	14197.88
511.858	14165.12
512.06	14324.86
512.262	14197.88
512.465	14101.63
512.667	14660.73
512.87	14615.67
513.072	14863.47
513.274	15334.51
513.477	15371.37
513.679	15363.18
513.881	15551.59
514.084	15907.94
514.286	15830.12
514.488	16065.63
514.69	16446.55
514.893	16340.06
515.095	16262.24
515.297	16833.62
515.499	16796.76
515.701	16981.07
515.904	17046.61
516.106	17427.53
516.308	17589.32
516.51	17677.38
516.712	17521.74
516.914	17869.89
517.116	18107.46
517.318	18318.4
517.52	18531.39
517.722	18560.06
517.925	18768.95
518.127	19053.62
518.329	19158.06
518.531	19037.23
518.733	19438.64
518.935	19594.28
519.136	19704.87
519.338	19909.67
519.54	20050.98
519.742	20223.01
519.944	20509.72
520.146	20560.92
520.348	20827.16
520.55	21062.68
520.752	21124.12
520.954	21285.9
521.155	21171.22
521.357	21558.28
521.559	21994.5
521.761	22248.45
521.963	22057.99
522.164	22180.87
522.366	22234.11
522.568	22361.09
522.77	22574.08
522.971	23145.46
523.173	23065.59
523.375	23303.15
523.576	22981.62
523.778	23272.43
523.98	23735.28
524.181	23682.03
524.383	23702.51
524.584	23991.27
524.786	23976.94
524.988	24048.61
525.189	24153.06
525.391	24667.1
525.592	24529.89
525.794	24529.89
525.995	24546.27
526.197	24808.41
526.398	24984.54
526.6	24916.95
526.801	25476.05
527.003	25168.85
527.204	25088.98
527.406	25580.49
527.607	25191.38
527.808	25623.5
528.01	25183.19
528.211	25861.07
528.412	26192.84
528.614	25981.9
528.815	25996.23
529.016	26104.77
529.218	25893.83
529.419	26246.08
529.62	26383.3
529.822	25830.35
530.023	26579.9
530.224	26366.92
530.425	26342.34
530.626	26106.82
530.828	26133.45
531.029	26885.05
531.23	26473.41
531.431	26708.93
531.632	26489.79
531.833	26710.97
532.035	26624.96
532.236	26579.9
532.437	26958.78
532.638	26426.31
532.839	26694.59
533.04	27032.5
533.241	26725.31
533.442	27155.38
533.643	27012.03
533.844	27052.98
534.045	27272.12
534.246	26756.03
534.447	27169.72
534.648	27028.41
534.849	26934.2
535.05	26911.67
535.251	26977.21
535.451	27114.42
535.652	27050.94
535.853	26985.4
536.054	26833.85
536.255	26930.11
536.456	26889.15
536.657	27319.22
536.857	26698.69
537.058	26555.33
537.259	27102.14
537.46	26995.64
537.66	26993.59
537.861	27122.62
538.062	26907.58
538.263	26891.19
538.463	26930.11
538.664	27095.99
538.865	26932.15
539.065	27233.21
539.266	27024.31
539.466	27122.62
539.667	26573.76
539.868	27075.51
540.068	26868.67
540.269	27071.42
540.469	27198.39
540.67	27411.38
540.87	26997.69
541.071	27077.56
541.271	27257.78
541.472	26790.84
541.672	26575.81
541.873	26584
542.073	26831.8
542.274	27337.65
542.474	27001.79
542.675	26563.52
542.875	27263.93
543.075	26860.48
543.276	26514.37
543.476	27364.28
543.676	26817.47
543.877	27018.17
544.077	26786.75
544.277	26815.42
544.478	27007.93
544.678	26960.83
544.878	26741.69
545.078	27022.26
545.279	26852.28
545.479	26569.66
545.679	26995.64
545.879	26657.73
546.079	26321.86
546.28	26364.87
546.48	26518.46
546.68	26629.06
546.88	26708.93
547.08	26483.65
547.28	26708.93
547.48	26751.93
547.68	26569.66
547.88	26610.62
548.081	26780.6
548.281	26809.28
548.481	26733.5
548.681	26682.3
548.881	26608.58
549.081	26655.68
549.28	26602.43
549.48	26674.11
549.68	26776.51
549.88	27059.13
550.08	26575.81
550.28	26495.94
550.48	26743.74
550.68	27061.18
550.88	26371.01
551.08	26481.6
551.279	26684.35
551.479	26100.68
551.679	26680.25
551.879	26594.24
552.079	26586.05
552.278	26364.87
552.478	26463.17
552.678	26262.47
552.878	26399.68
553.077	26432.45
553.277	26534.85
553.477	26719.17
553.676	26379.2
553.876	26618.82
554.076	26127.3
554.275	26612.67
554.475	26364.87
554.674	26328
554.874	26459.07
555.074	26096.58
555.273	26727.36
555.473	26416.07
555.672	26086.34
555.872	26131.4
556.071	26268.61
556.271	26264.52
556.47	26061.77
556.67	25842.63
556.869	25932.75
557.068	26182.6
557.268	25721.8
557.467	25975.75
557.667	25945.03
557.866	26041.29
558.065	25883.59
558.265	25902.03
558.464	25775.05
558.663	26123.21
558.863	25349.07
559.062	25951.18
559.261	25500.62
559.461	25983.94
559.66	25400.27
559.859	25836.49
560.058	25422.8
560.258	25936.84
560.457	25304.02
560.656	25748.43
560.855	25238.48
561.054	25570.26
561.253	25215.96
561.453	25535.44
561.652	25158.61
561.851	25269.2
562.05	25027.54
562.249	24878.04
562.448	25148.37
562.647	25220.05
562.846	25269.2
563.045	25119.7
563.244	24800.22
563.443	25160.66
563.642	24665.05
563.841	24720.35
564.04	25064.41
564.239	25250.77
564.438	24720.35
564.637	24959.96
564.836	24396.77
565.035	24392.67
565.234	24687.58
565.432	24632.29
565.631	24325.09
565.83	24466.4
566.029	24161.25
566.228	24230.88
566.427	24122.34
566.625	24114.15
566.824	23677.93
567.023	24298.47
567.222	23514.09
567.42	24167.4
567.619	23897.06
567.818	24112.1
568.016	23622.64
568.215	24058.85
568.414	23716.84
568.612	23765.99
568.811	23512.05
569.01	23632.88
569.208	23331.83
569.407	23997.42
569.605	23301.11
569.804	23667.69
570.002	22959.1
570.201	23419.89
570.4	22907.9
570.598	22873.08
570.797	22823.93
570.995	23063.54
571.193	23002.1
571.392	23092.21
571.59	22516.73
571.789	22955
571.987	22705.15
572.186	22832.12
572.384	22318.08
572.582	22713.34
572.781	22379.52
572.979	22184.96
573.177	22420.48
573.376	22283.27
573.574	22209.54
573.772	22342.66
573.971	22090.76
574.169	21879.82
574.367	22139.91
574.565	22103.04
574.763	22146.05
574.962	21789.7
575.16	21574.67
575.358	21812.23
575.556	21599.24
575.754	22037.51
575.952	21318.67
576.151	21720.07
576.349	21378.06
576.547	21402.64
576.745	21378.06
576.943	21466.13
577.141	21097.49
577.339	20995.09
577.537	21330.96
577.735	21191.7
577.933	21111.83
578.131	21031.96
578.329	20913.17
578.527	20872.21
578.725	20892.69
578.923	20954.13
579.121	20665.37
579.319	20747.29
579.516	21087.25
579.714	20595.74
579.912	20581.4
580.11	20395.04
580.308	20487.2
580.506	20253.73
580.704	20136.99
580.901	20075.56
581.099	20454.43
581.297	19850.28
581.495	20343.84
581.692	20315.17
581.89	19817.51
582.088	19913.77
582.285	19934.25
582.483	20024.36
582.681	19979.3
582.878	19807.27
583.076	19323.95
583.274	19618.86
583.471	19452.97
583.669	19491.88
583.866	19674.15
584.064	19635.24
584.262	19328.05
584.459	19473.45
584.657	19182.64
584.854	19287.09
585.052	19000.37
585.249	19086.39
585.447	18816.05
585.644	18893.88
585.841	18846.77
586.039	19024.95
586.236	18693.18
586.434	18768.95
586.631	18687.03
586.828	18727.99
587.026	18498.62
587.223	18783.29
587.42	18615.35
587.618	18443.32
587.815	18226.24
588.012	18097.22
588.21	18232.38
588.407	18564.15
588.604	18209.86
588.801	17984.58
588.999	18078.79
589.196	17843.27
589.393	17835.08
589.59	17935.43
589.787	17865.8
589.984	18025.54
590.182	17482.83
590.379	17540.17
590.576	17706.06
590.773	17728.58
590.97	17501.26
591.167	17439.82
591.364	17284.17
591.561	17634.38
591.758	17396.81
591.955	17185.87
592.152	17265.74
592.349	16993.36
592.546	17296.46
592.743	16854.1
592.94	16985.17
593.137	16858.2
593.334	17056.85
593.531	16936.02
593.727	16784.47
593.924	16895.06
594.121	16589.91
594.318	16778.33
594.515	16649.3
594.712	16761.94
594.908	16454.75
595.105	16393.31
595.302	16329.82
595.499	16551
595.696	16514.14
595.892	16325.72
596.089	16551
596.286	16366.68
596.482	15957.09
596.679	16094.3
596.876	15996
597.072	16221.28
597.269	16059.49
597.466	15895.65
597.662	15934.56
597.859	15572.07
598.055	15602.79
598.252	16045.15
598.448	15764.58
598.645	15756.39
598.841	15582.31
599.038	15516.78
599.234	15678.57
599.431	15447.15
599.627	15434.86
599.824	15316.08
600.02	15320.17
600.217	15176.81
600.413	15193.2
600.609	15430.76
600.806	15215.73
601.002	15148.14
601.198	15150.19
601.395	14769.27
601.591	14771.32
601.787	14939.25
601.984	14898.29
602.18	14963.83
602.376	14699.64
602.572	14808.18
602.769	14810.23
602.965	14576.76
603.161	14691.45
603.357	14656.63
603.553	14539.9
603.75	14374.01
603.946	14199.93
604.142	14326.91
604.338	14146.69
604.534	14412.92
604.73	14120.06
604.926	14216.32
605.122	14230.65
605.318	14208.12
605.514	14005.38
605.71	14027.9
605.906	13939.84
606.102	13798.53
606.298	13915.26
606.494	13857.92
606.69	13855.87
606.886	13974.66
607.082	13702.28
607.278	13689.99
607.474	13771.91
607.67	13714.56
607.866	13399.18
608.062	13671.56
608.257	13560.97
608.453	13622.41
608.649	13411.46
608.845	13337.74
609.041	13321.35
609.236	13243.53
609.432	13372.55
609.628	13401.22
609.824	13208.72
610.019	13175.95
610.215	13204.62
610.411	13253.77
610.606	13243.53
610.802	13141.13
610.998	13087.89
611.193	13081.74
611.389	12893.33
611.584	13048.97
611.78	12942.48
611.976	12940.43
612.171	12926.1
612.367	13100.17
612.562	12950.67
612.758	12463.26
612.953	12924.05
613.149	12663.96
613.344	12594.33
613.539	13010.06
613.735	12706.96
613.93	12784.79
614.126	12608.66
614.321	12700.82
614.517	12631.19
614.712	12467.35
614.907	12348.57
615.103	12698.77
615.298	12631.19
615.493	12453.02
615.688	12418.2
615.884	12639.38
616.079	12301.47
616.274	12420.25
616.47	12059.81
616.665	12410.01
616.86	12125.34
617.055	12178.59
617.25	12121.24
617.445	12295.32
617.641	12115.1
617.836	12078.24
618.031	12053.66
618.226	12059.81
618.421	11941.02
618.616	12029.09
618.811	11871.39
619.006	12004.51
619.201	11764.9
619.396	12018.85
619.591	11490.47
619.786	11691.17
619.981	11474.09
620.176	11564.2
620.371	11490.47
620.566	11779.23
620.761	11250.86
620.956	11631.78
621.151	11390.12
621.346	11205.8
621.541	11166.89
621.735	11113.64
621.93	11023.53
622.125	11044.01
622.32	10960.05
622.515	10994.86
622.709	11039.92
622.904	10992.81
623.099	10839.22
623.294	10886.32
623.488	10667.19
623.683	10628.28
623.878	10542.26
624.072	10603.7
624.267	10493.11
624.462	10411.19
624.656	10300.6
624.851	10130.62
625.046	10212.54
625.24	10400.95
625.435	10179.77
625.629	10136.76
625.824	10063.04
626.018	9974.97
626.213	9825.47
626.407	9751.74
626.602	9704.64
626.796	9839.81
626.991	9882.81
627.185	9821.38
627.38	9559.24
627.574	9329.86
627.768	9419.97
627.963	9532.61
628.157	9407.69
628.352	9252.04
628.546	9327.81
628.74	9231.56
628.935	9249.99
629.129	9299.14
629.323	9032.91
629.517	9039.05
629.712	9041.1
629.906	9014.48
630.1	8934.6
630.294	8774.86
630.489	8983.76
630.683	8815.82
630.877	8703.18
631.071	8725.71
631.265	8596.69
631.459	8768.72
631.653	8514.77
631.848	8436.95
632.042	8441.04
632.236	8211.67
632.43	8352.98
632.624	8361.17
632.818	8410.33
633.012	8189.14
633.206	8074.46
633.4	8211.67
633.594	8131.8
633.788	7892.19
633.982	7986.4
634.176	8150.23
634.369	8037.59
634.563	7898.33
634.757	7910.62
634.951	7826.65
635.145	7924.96
635.339	7775.45
635.533	7714.02
635.726	7662.82
635.92	7671.01
636.114	7550.18
636.308	7720.16
636.501	7591.14
636.695	7517.41
636.889	7427.3
637.083	7382.24
637.276	7419.11
637.47	7294.18
637.664	7193.83
637.857	7263.46
638.051	7275.75
638.244	7077.1
638.438	7216.36
638.632	6991.08
638.825	7019.75
639.019	6831.34
639.212	6845.68
639.406	6794.48
639.599	6845.68
639.793	6696.18
639.986	6606.06
640.18	6767.85
640.373	6677.74
640.567	6757.61
640.76	6632.69
640.954	6556.91
641.147	6595.82
641.34	6462.71
641.534	6532.34
641.727	6419.7
641.92	6348.02
642.114	6438.13
642.307	6329.59
642.5	6454.51
642.694	6264.05
642.887	6239.48
643.08	6130.94
643.273	6221.05
643.467	6126.84
643.66	6034.68
643.853	6049.02
644.046	6061.3
644.239	6026.49
644.432	5989.63
644.626	5895.42
644.819	5922.04
645.012	5754.11
645.205	5946.62
645.398	5750.01
645.591	5666.05
645.784	5639.42
645.977	5639.42
646.17	5739.77
646.363	5496.07
646.556	5340.42
646.749	5477.63
646.942	5565.7
647.135	5418.24
647.328	5414.15
647.521	5324.04
647.714	5281.03
647.907	5348.61
648.099	5442.82
648.292	5412.1
648.485	5379.33
648.678	5088.52
648.871	5197.06
649.064	5045.51
649.256	5195.01
649.449	5147.91
649.642	4977.93
649.835	5074.18
650.027	5088.52
650.22	5051.66
650.413	4988.17
650.605	4885.77
650.798	4953.35
650.991	4936.97
651.183	4824.33
651.376	4842.76
651.568	4863.24
651.761	4838.67
651.954	4908.3
652.146	4635.92
652.339	4773.13
652.531	4615.44
652.724	4693.26
652.916	4631.82
653.109	4697.36
653.301	4666.64
653.494	4631.82
653.686	4422.93
653.879	4529.42
654.071	4488.46
654.263	4377.87
654.456	4459.79
654.648	4441.36
654.84	4347.15
655.033	4392.21
655.225	4271.38
655.417	4211.99
655.61	4234.52
655.802	4291.86
655.994	4355.35
656.186	4304.15
656.379	4158.74
656.571	4234.52
656.763	4132.12
656.955	4109.59
657.148	4138.26
657.34	4009.24
657.532	3996.95
657.724	4142.36
657.916	4080.92
658.108	3953.94
658.3	4074.78
658.492	3933.47
658.684	3794.2
658.876	3878.17
659.068	3890.46
659.26	3820.83
659.452	3892.51
659.644	3939.61
659.836	3726.62
660.028	3775.77
660.22	3700
660.412	3646.75
660.604	3736.86
660.796	3835.16
660.988	3665.18
661.18	3702.04
661.372	3523.87
661.563	3636.51
661.755	3513.63
661.947	3478.82
662.139	3595.55
662.331	3495.2
662.522	3444
662.714	3474.72
662.906	3542.3
663.097	3446.05
663.289	3347.75
663.481	3325.22
663.673	3288.36
663.864	3286.31
664.056	3466.53
664.247	3261.73
664.439	3267.88
664.631	3339.55
664.822	3284.26
665.014	3353.89
665.205	3321.12
665.397	3095.85
665.588	3145
665.78	3040.55
665.971	3161.38
666.163	3179.81
666.354	3198.24
666.546	3142.95
666.737	3050.79
666.929	2977.06
667.12	3071.27
667.311	3099.94
667.503	3030.31
667.694	2952.49
667.885	3058.98
668.077	3046.69
668.268	3112.23
668.459	3054.89
668.651	2946.34
668.842	2932.01
669.033	2944.3
669.224	2884.91
669.416	2868.52
669.607	2862.38
669.798	2782.51
669.989	2962.73
670.18	2948.39
670.371	2766.12
670.563	2901.29
670.754	2821.42
670.945	2719.02
671.136	2759.98
671.327	2823.47
671.518	2784.55
671.709	2716.97
671.9	2735.4
672.091	2635.05
672.282	2698.54
672.473	2637.1
672.664	2706.73
672.855	2641.2
673.046	2669.87
673.237	2651.44
673.428	2737.45
673.619	2592.05
673.809	2594.09
674	2733.36
674.191	2608.43
674.382	2503.98
674.573	2542.89
674.764	2573.61
674.954	2555.18
675.145	2575.66
675.336	2487.6
675.527	2526.51
675.717	2563.37
675.908	2626.86
676.099	2579.76
676.289	2686.25
676.48	2440.5
676.671	2563.37
676.861	2514.22
677.052	2510.13
677.243	2383.15
677.433	2501.94
677.624	2481.46
677.814	2465.07
678.005	2391.34
678.195	2430.26
678.386	2463.02
678.576	2499.89
678.767	2454.83
678.957	2413.87
679.148	2432.3
679.338	2460.98
679.529	2489.65
679.719	2348.34
679.909	2362.67
680.1	2477.36
680.29	2327.86
680.481	2383.15
680.671	2340.15
680.861	2327.86
681.052	2411.82
681.242	2313.52
681.432	2534.7
681.622	2317.62
681.813	2348.34
682.003	2297.14
682.193	2385.2
682.383	2360.63
682.573	2452.78
682.764	2229.56
682.954	2329.91
683.144	2325.81
683.334	2284.85
683.524	2239.8
683.714	2334
683.904	2268.47
684.094	2313.52
684.284	2274.61
684.474	2301.23
684.664	2278.71
684.854	2356.53
685.044	2354.48
685.234	2184.5
685.424	2250.03
685.614	2284.85
685.804	2290.99
685.994	2225.46
686.184	2385.2
686.374	2334
686.564	2254.13
686.753	2229.56
686.943	2258.23
687.133	2231.6
687.323	2231.6
687.513	2286.9
687.702	2243.89
687.892	2237.75
688.082	2151.73
688.272	2084.15
688.461	2229.56
688.651	2178.36
688.841	2235.7
689.03	2231.6
689.22	2032.95
689.41	2133.3
689.599	2069.81
689.789	2153.78
689.979	2159.92
690.168	2075.96
690.358	2147.64
690.547	2026.81
690.737	2133.3
690.926	2069.81
691.116	2159.92
691.305	2133.3
691.495	2045.24
691.684	2108.73
691.874	2116.92
692.063	2039.09
692.252	2123.06
692.442	2061.62
692.631	2020.66
692.82	2012.47
693.01	2067.77
693.199	1996.09
693.388	2075.96
693.578	2080.05
693.767	1967.42
693.956	2008.37
694.146	1942.84
694.335	2086.2
694.524	2057.53
694.713	2020.66
694.902	2051.38
695.092	2067.77
695.281	1924.41
695.47	1873.21
695.659	1946.94
695.848	1991.99
696.037	1967.42
696.226	1973.56
696.415	2024.76
696.604	1971.51
696.793	1785.15
696.982	2000.18
697.171	1969.46
697.36	1869.11
697.549	1936.7
697.738	1871.16
697.927	1905.98
698.116	1854.78
698.305	1889.59
698.494	2037.05
698.683	1903.93
698.872	2051.38
699.061	1862.97
699.25	1916.22
699.438	1846.59
699.627	1867.06
699.816	1910.07
700.005	1815.87
700.193	1875.26
700.382	1883.45
700.571	1910.07
700.76	1883.45
700.948	1852.73
701.137	1848.63
701.326	1899.83
701.514	1789.24
701.703	1883.45
701.892	1889.59
702.08	1885.5
702.269	1819.96
702.457	1899.83
702.646	1813.82
702.834	1832.25
703.023	1873.21
703.212	1846.59
703.4	1881.4
703.589	1752.38
703.777	1840.44
703.965	1752.38
704.154	1817.91
704.342	1889.59
704.531	1772.86
704.719	1819.96
704.907	1795.39
705.096	1772.86
705.284	1746.23
705.472	1828.15
705.661	1740.09
705.849	1822.01
706.037	1727.8
706.226	1717.56
706.414	1830.2
706.602	1686.84
706.79	1830.2
706.979	1754.43
707.167	1721.66
707.355	1660.22
707.543	1656.12
707.731	1781.05
707.919	1789.24
708.107	1656.12
708.296	1740.09
708.484	1654.08
708.672	1672.51
708.86	1654.08
709.048	1647.93
709.236	1652.03
709.424	1649.98
709.612	1670.46
709.8	1705.28
709.988	1623.36
710.176	1703.23
710.364	1692.99
710.551	1658.17
710.739	1713.47
710.927	1582.4
711.115	1674.56
711.303	1649.98
711.491	1654.08
711.679	1684.8
711.866	1666.36
712.054	1725.76
712.242	1688.89
712.43	1725.76
712.617	1613.12
712.805	1641.79
712.993	1641.79
713.181	1643.84
713.368	1512.77
713.556	1643.84
713.744	1654.08
713.931	1615.16
714.119	1588.54
714.306	1643.84
714.494	1520.96
714.682	1533.25
714.869	1525.05
715.057	1752.38
715.244	1592.64
715.432	1557.82
715.619	1551.68
715.807	1588.54
715.994	1578.3
716.182	1617.21
716.369	1606.97
716.556	1588.54
716.744	1539.39
716.931	1604.92
717.119	1541.44
717.306	1533.25
717.493	1518.91
717.681	1535.29
717.868	1635.64
718.055	1537.34
718.242	1443.14
718.43	1580.35
718.617	1551.68
718.804	1621.31
718.991	1566.01
719.179	1545.53
719.366	1570.11
719.553	1539.39
719.74	1488.19
719.927	1535.29
720.114	1520.96
720.301	1584.45
720.488	1508.67
720.676	1570.11
720.863	1510.72
721.05	1545.53
721.237	1520.96
721.424	1547.58
721.611	1533.25
721.798	1408.32
721.985	1496.38
722.172	1531.2
722.358	1430.85
722.545	1453.38
722.732	1508.67
722.919	1490.24
723.106	1414.46
723.293	1510.72
723.48	1461.57
723.667	1516.86
723.853	1445.18
724.04	1398.08
724.227	1393.98
724.414	1475.9
724.6	1453.38
724.787	1459.52
724.974	1389.89
725.161	1422.66
725.347	1402.18
725.534	1484.09
725.72	1443.14
725.907	1471.81
726.094	1484.09
726.28	1486.14
726.467	1422.66
726.653	1434.94
726.84	1496.38
727.027	1518.91
727.213	1404.22
727.4	1373.5
727.586	1396.03
727.773	1461.57
727.959	1490.24
728.145	1473.85
728.332	1506.62
728.518	1480
728.705	1432.9
728.891	1426.75
729.077	1498.43
729.264	1457.47
729.45	1412.42
729.636	1389.89
729.823	1459.52
730.009	1445.18
730.195	1400.13
730.382	1434.94
730.568	1387.84
730.754	1410.37
730.94	1330.5
731.126	1383.74
731.313	1504.57
731.499	1447.23
731.685	1383.74
731.871	1400.13
732.057	1453.38
732.243	1400.13
732.429	1471.81
732.615	1393.98
732.801	1305.92
732.987	1398.08
733.173	1307.97
733.359	1387.84
733.545	1375.55
733.731	1398.08
733.917	1412.42
734.103	1260.87
734.289	1393.98
734.475	1371.46
734.661	1357.12
734.847	1387.84
735.033	1338.69
735.219	1436.99
735.404	1291.59
735.59	1299.78
735.776	1371.46
735.962	1381.7
736.148	1363.26
736.333	1420.61
736.519	1412.42
736.705	1326.4
736.89	1326.4
737.076	1373.5
737.262	1269.06
737.447	1318.21
737.633	1387.84
737.819	1363.26
738.004	1293.63
738.19	1393.98
738.375	1256.77
738.561	1320.26
738.747	1363.26
738.932	1344.83
739.118	1400.13
739.303	1209.67
739.489	1299.78
739.674	1264.96
739.859	1271.11
740.045	1283.39
740.23	1353.02
740.416	1275.2
740.601	1346.88
740.786	1269.06
740.972	1383.74
741.157	1291.59
741.342	1224
741.528	1260.87
741.713	1219.91
741.898	1264.96
742.084	1201.47
742.269	1283.39
742.454	1254.72
742.639	1291.59
742.824	1144.13
743.01	1197.38
743.195	1293.63
743.38	1219.91
743.565	1215.81
743.75	1144.13
743.935	1160.52
744.12	1201.47
744.305	1152.32
744.49	1234.24
744.675	1301.83
744.86	1217.86
745.045	1307.97
745.23	1181
745.415	1240.39
745.6	1183.04
745.785	1058.12
745.97	1248.58
746.155	1176.9
746.34	1187.14
746.525	1148.23
746.71	1211.71
746.895	1211.71
747.079	1137.99
747.264	1131.84
747.449	1142.08
747.634	1148.23
747.819	1123.65
748.003	1074.5
748.188	978.25
748.373	1162.56
748.557	1092.93
748.742	1090.88
748.927	1043.78
749.111	1078.6
749.296	1047.88
749.481	968.01
749.665	1076.55
749.85	1072.45
750.034	1109.32
750.219	982.34
750.404	970.05
750.588	1056.07
750.773	968.01
750.957	1011.01
751.141	1025.35
751.326	941.38
751.51	951.62
751.695	955.72
751.879	1060.17
752.064	1076.55
752.248	1043.78
752.432	965.96
752.617	945.48
752.801	920.9
752.985	912.71
753.17	980.29
753.354	849.22
753.538	828.74
753.722	873.8
753.907	955.72
754.091	916.81
754.275	978.25
754.459	851.27
754.643	929.1
754.828	879.94
755.012	816.46
755.196	830.79
755.38	851.27
755.564	775.5
755.748	908.62
755.932	898.38
756.116	853.32
756.3	843.08
756.484	857.42
756.668	771.4
756.852	849.22
757.036	859.46
757.22	845.13
757.404	781.64
757.588	769.35
757.772	843.08
757.956	800.07
758.14	767.31
758.323	791.88
758.507	802.12
758.691	757.07
758.875	757.07
759.059	824.65
759.242	744.78
759.426	748.87
759.61	705.87
759.794	798.03
759.977	738.63
760.161	812.36
760.345	707.91
760.528	662.86
760.712	787.79
760.895	769.35
761.079	724.3
761.263	660.81
761.446	671.05
761.63	685.39
761.813	703.82
761.997	673.1
762.18	675.15
762.364	699.72
762.547	597.32
762.731	726.35
762.914	607.56
763.098	742.73
763.281	595.28
763.464	609.61
763.648	648.52
763.831	652.62
764.015	662.86
764.198	724.3
764.381	658.76
764.564	638.28
764.748	566.6
764.931	580.94
765.114	560.46
765.297	666.96
765.481	619.85
765.664	658.76
765.847	671.05
766.03	652.62
766.213	595.28
766.397	619.85
766.58	613.71
766.763	595.28
766.946	558.41
767.129	593.23
767.312	578.89
767.495	539.98
767.678	546.12
767.861	587.08
768.044	582.99
768.227	548.17
768.41	558.41
768.593	593.23
768.776	572.75
768.959	468.3
769.142	578.89
769.324	519.5
769.507	632.14
769.69	585.04
769.873	580.94
770.056	642.38
770.239	537.93
770.421	574.8
770.604	562.51
770.787	535.89
770.97	494.93
771.152	523.6
771.335	550.22
771.518	466.25
771.7	537.93
771.883	548.17
772.066	525.65
772.248	585.04
772.431	513.36
772.613	568.65
772.796	462.16
772.978	499.02
773.161	560.46
773.343	449.87
773.526	515.41
773.708	445.77
773.891	513.36
774.073	488.78
774.256	560.46
774.438	523.6
774.621	494.93
774.803	496.97
774.985	445.77
775.168	535.89
775.35	396.62
775.532	413.01
775.715	464.21
775.897	472.4
776.079	529.74
776.261	496.97
776.444	421.2
776.626	511.31
776.808	394.58
776.99	453.97
777.173	390.48
777.355	329.04
777.537	494.93
777.719	464.21
777.901	324.94
778.083	437.58
778.265	376.14
778.447	439.63
778.629	480.59
778.811	345.42
778.993	374.1
779.175	322.9
779.357	341.33
779.539	304.46
779.721	480.59
779.903	415.06
780.085	456.01
780.267	484.69
780.449	335.18
780.631	396.62
780.812	380.24
780.994	374.1
781.176	421.2
781.358	353.62
781.54	300.37
781.721	318.8
781.903	310.61
782.085	298.32
782.267	331.09
782.448	374.1
782.63	318.8
782.812	304.46
782.993	365.9
783.175	331.09
783.357	296.27
783.538	316.75
783.72	261.46
783.901	240.98
784.083	288.08
784.264	314.7
784.446	306.51
784.627	273.75
784.809	279.89
784.99	290.13
785.172	320.85
785.353	249.17
785.535	300.37
785.716	294.22
785.897	337.23
786.079	335.18
786.26	349.52
786.441	296.27
786.623	292.18
786.804	271.7
786.985	208.21
787.167	273.75
787.348	298.32
787.529	312.66
787.71	316.75
787.891	249.17
788.073	218.45
788.254	308.56
788.435	316.75
788.616	308.56
788.797	290.13
788.978	175.44
789.159	273.75
789.34	200.02
789.522	226.64
789.703	222.55
789.884	288.08
790.065	294.22
790.246	257.36
790.427	263.51
790.607	181.59
790.788	277.84
790.969	179.54
791.15	220.5
791.331	220.5
791.512	288.08
791.693	290.13
791.874	226.64
792.054	253.27
792.235	134.48
792.416	197.97
792.597	183.63
792.778	218.45
792.958	234.83
793.139	152.91
793.32	204.11
793.5	154.96
793.681	200.02
793.862	230.74
794.042	179.54
794.223	195.92
794.404	243.03
794.584	185.68
794.765	232.79
794.945	148.82
795.126	228.69
795.306	232.79
795.487	230.74
795.667	173.39
795.848	185.68
796.028	255.31
796.209	161.11
796.389	120.15
796.57	183.63
796.75	144.72
796.93	34.13
797.111	183.63
797.291	222.55
797.471	175.44
797.652	154.96
797.832	148.82
798.012	206.16
798.192	206.16
798.373	148.82
798.553	163.15
798.733	183.63
798.913	202.07
799.093	87.38
799.274	187.73
799.454	177.49
799.634	163.15
799.814	197.97
799.994	212.31
800.174	138.58
800.354	114
800.534	154.96
800.714	204.11
800.894	150.87
801.074	111.96
801.254	142.68
801.434	114
801.614	142.68
801.794	132.44
801.974	302.42
802.154	122.2
802.334	152.91
802.514	116.05
802.693	114
802.873	136.53
803.053	179.54
803.233	66.9
803.413	185.68
803.592	111.96
803.772	89.43
803.952	130.39
804.131	150.87
804.311	114
804.491	161.11
804.67	118.1
804.85	99.67
805.03	116.05
805.209	148.82
805.389	116.05
805.568	161.11
805.748	144.72
805.928	87.38
806.107	50.52
806.287	126.29
806.466	111.96
806.646	97.62
806.825	83.28
807.004	101.72
807.184	173.39
807.363	138.58
807.543	114
807.722	91.48
807.901	68.95
808.081	87.38
808.26	34.13
808.439	122.2
808.619	89.43
808.798	97.62
808.977	17.75
809.156	40.28
809.336	130.39
809.515	54.61
809.694	91.48
809.873	161.11
810.052	118.1
810.231	85.33
810.411	126.29
810.59	126.29
810.769	120.15
810.948	103.76
811.127	36.18
811.306	27.99
811.485	60.76
811.664	165.2
811.843	44.37
812.022	71
812.201	85.33
812.38	101.72
812.559	126.29
812.737	103.76
812.916	95.57
813.095	71
813.274	87.38
813.453	21.85
813.632	27.99
813.811	154.96
813.989	93.52
814.168	103.76
814.347	73.04
814.526	71
814.704	52.56
814.883	130.39
815.062	114
815.24	101.72
815.419	-6.83
815.598	148.82
815.776	87.38
815.955	68.95
816.133	95.57
816.312	54.61
816.49	101.72
816.669	85.33
816.847	79.19
817.026	120.15
817.204	95.57
817.383	-6.83
817.561	3.41
817.74	97.62
817.918	15.7
818.097	93.52
818.275	-25.26
818.453	93.52
818.632	126.29
818.81	97.62
818.988	89.43
819.167	71
819.345	62.8
819.523	48.47
819.701	68.95
819.879	122.2
820.058	89.43
820.236	73.04
820.414	64.85
820.592	64.85
820.77	21.85
820.948	36.18
821.127	34.13
821.305	62.8
821.483	44.37
821.661	40.28
821.839	32.08
822.017	101.72
822.195	17.75
822.373	27.99
822.551	30.04
822.729	73.04
822.907	44.37
823.085	38.23
823.262	89.43
823.44	44.37
823.618	-4.78
823.796	27.99
823.974	40.28
824.152	40.28
824.329	83.28
824.507	48.47
824.685	19.8
824.863	101.72
825.04	73.04
825.218	-12.97
825.396	36.18
825.574	54.61
825.751	9.56
825.929	54.61
826.107	38.23
826.284	30.04
826.462	34.13
826.639	44.37
826.817	52.56
826.994	40.28
827.172	32.08
827.349	54.61
827.527	17.75
827.704	-8.87
827.882	54.61
828.059	23.89
828.237	5.46
828.414	93.52
828.591	27.99
828.769	36.18
828.946	44.37
829.124	48.47
829.301	81.24
829.478	30.04
829.655	-10.92
829.833	130.39
830.01	-0.68
830.187	79.19
830.364	27.99
830.542	-4.78
830.719	71
830.896	7.51
831.073	52.56
831.25	87.38
831.427	75.09
831.604	-12.97
831.782	109.91
831.959	21.85
832.136	48.47
832.313	-10.92
832.49	-41.64
832.667	15.7
832.844	-6.83
833.021	-0.68
833.198	32.08
833.374	-92.84
833.551	17.75
833.728	15.7
833.905	75.09
834.082	58.71
834.259	83.28
834.436	105.81
834.612	-12.97
834.789	95.57
834.966	21.85
835.143	42.32
835.319	40.28
835.496	75.09
835.673	64.85
835.85	50.52
836.026	5.46
836.203	-19.11
836.38	19.8
836.556	44.37
836.733	23.89
836.909	77.14
837.086	75.09
837.262	-17.07
837.439	3.41
837.616	25.94
837.792	32.08
837.968	21.85
838.145	64.85
838.321	85.33
838.498	77.14
838.674	107.86
838.851	11.61
839.027	19.8
839.203	38.23
839.38	-31.4
839.556	48.47
839.732	75.09
839.909	7.51
840.085	40.28
840.261	-2.73
840.437	21.85
840.614	7.51
840.79	58.71
840.966	111.96
841.142	17.75
841.318	15.7
841.494	9.56
841.671	-0.68
841.847	32.08
842.023	19.8
842.199	77.14
842.375	48.47
842.551	-55.98
842.727	3.41
842.903	89.43
843.079	32.08
843.255	48.47
843.431	1.37
843.607	13.65
843.783	-35.5
843.959	34.13
844.134	15.7
844.31	71
844.486	-43.69
844.662	-64.17
844.838	44.37
845.013	-35.5
845.189	64.85
845.365	23.89
845.541	15.7
845.716	42.32
845.892	60.76
846.068	11.61
846.244	27.99
846.419	32.08
846.595	11.61
846.77	-21.16
846.946	52.56
847.122	54.61
847.297	-27.31
847.473	23.89
847.648	54.61
847.824	83.28
847.999	-66.22
848.175	-15.02
848.35	3.41
848.526	-2.73
848.701	71
848.876	48.47
849.052	34.13
849.227	-0.68
849.403	-47.79
849.578	-8.87
849.753	7.51
849.929	44.37
850.104	62.8
850.279	19.8
850.454	-33.45
850.63	103.76
850.805	-37.55
850.98	-49.83
851.155	-19.11
851.33	36.18
851.505	3.41
851.681	-19.11
851.856	19.8
852.031	19.8
852.206	-21.16
852.381	-66.22
852.556	-53.93
852.731	-21.16
852.906	1.37
853.081	79.19
853.256	-15.02
853.431	3.41
853.606	-29.35
853.781	-33.45
853.956	3.41
854.131	7.51
854.305	-43.69
854.48	-33.45
854.655	-2.73
854.83	19.8
855.005	52.56
855.18	38.23
855.354	7.51
855.529	-98.99
855.704	11.61
855.879	-27.31
856.053	-10.92
856.228	114
856.403	-47.79
856.577	-12.97
856.752	46.42
856.926	-25.26
857.101	-8.87
857.276	7.51
857.45	7.51
857.625	60.76
857.799	46.42
857.974	64.85
858.148	-33.45
858.323	62.8
858.497	7.51
858.672	-51.88
858.846	15.7
859.02	-15.02
859.195	-15.02
859.369	85.33
859.543	-2.73
859.718	-19.11
859.892	-62.12
860.066	38.23
860.241	7.51
860.415	-35.5
860.589	-0.68
860.763	3.41
860.938	-0.68
861.112	-8.87
861.286	-23.21
861.46	-19.11
861.634	-15.02
861.808	11.61
861.982	-49.83
862.157	73.04
862.331	11.61
862.505	21.85
862.679	5.46
862.853	17.75
863.027	38.23
863.201	50.52
863.375	-55.98
863.549	15.7
863.722	50.52
863.896	5.46
864.07	-66.22
864.244	1.37
864.418	1.37
864.592	-17.07
864.766	21.85
864.939	-10.92
865.113	9.56
865.287	13.65
865.461	-15.02
865.634	-23.21
865.808	75.09
865.982	1.37
866.156	21.85
866.329	19.8
866.503	-25.26
866.676	23.89
866.85	42.32
867.024	-60.07
867.197	27.99
867.371	52.56
867.544	-49.83
867.718	-70.31
867.891	-27.31
868.065	60.76
868.238	73.04
868.412	-37.55
868.585	-98.99
868.759	-33.45
868.932	56.66
869.105	27.99
869.279	-53.93
869.452	-0.68
869.625	-25.26
869.799	85.33
869.972	44.37
870.145	-29.35
870.319	75.09
870.492	-23.21
870.665	-4.78
870.838	38.23
871.011	-19.11
871.185	81.24
871.358	-2.73
871.531	-35.5
871.704	40.28
871.877	-0.68
872.05	-12.97
872.223	19.8
872.396	-43.69
872.569	-29.35
872.742	-49.83
872.915	60.76
873.088	7.51
873.261	-27.31
873.434	50.52
873.607	-12.97
873.78	23.89
873.953	66.9
874.126	11.61
874.299	77.14
874.471	3.41
874.644	-45.74
874.817	3.41
874.99	44.37
875.163	-27.31
875.335	-37.55
875.508	-2.73
875.681	-27.31
875.853	-12.97
876.026	-33.45
876.199	-12.97
876.371	-80.55
876.544	23.89
876.717	56.66
876.889	-45.74
877.062	-62.12
877.234	25.94
877.407	-2.73
877.579	-43.69
877.752	73.04
877.924	-17.07
878.097	-33.45
878.269	-0.68
878.442	48.47
878.614	21.85
878.786	46.42
878.959	27.99
879.131	15.7
879.303	17.75
879.476	19.8
879.648	-45.74
879.82	-31.4
879.993	-17.07
880.165	-0.68
880.337	-17.07
880.509	38.23
880.681	11.61
880.854	32.08
881.026	19.8
881.198	-33.45
881.37	9.56
881.542	38.23
881.714	-86.7
881.886	-25.26
882.058	3.41
882.23	23.89
882.402	-21.16
882.574	19.8
882.746	5.46
882.918	46.42
883.09	71
883.262	-12.97
883.434	25.94
883.606	-8.87
883.778	-0.68
883.95	-12.97
884.122	-45.74
884.293	-33.45
884.465	-4.78
884.637	-15.02
884.809	-45.74
884.98	-4.78
885.152	-17.07
885.324	56.66
885.496	-29.35
885.667	25.94
885.839	23.89
886.011	-17.07
886.182	15.7
886.354	-0.68
886.525	-17.07
886.697	46.42
886.869	-47.79
887.04	-21.16
887.212	-37.55
887.383	15.7
887.555	7.51
887.726	27.99
887.897	-21.16
888.069	-2.73
888.24	-43.69
888.412	9.56
888.583	13.65
888.754	11.61
888.926	-21.16
889.097	-19.11
889.268	-53.93
889.44	58.71
889.611	1.37
889.782	-43.69
889.953	27.99
890.125	34.13
890.296	-0.68
890.467	-0.68
890.638	-6.83
890.809	1.37
890.98	-43.69
891.151	13.65
891.323	-21.16
891.494	-49.83
891.665	83.28
891.836	19.8
892.007	-4.78
892.178	21.85
892.349	11.61
892.52	-47.79
892.691	30.04
892.862	30.04
893.032	-90.79
893.203	60.76
893.374	36.18
893.545	68.95
893.716	54.61
893.887	1.37
894.057	3.41
894.228	3.41
894.399	13.65
894.57	-62.12
894.74	7.51
894.911	27.99
895.082	-66.22
895.253	11.61
895.423	-80.55
895.594	-64.17
895.764	-21.16
895.935	-12.97
896.106	-12.97
896.276	-12.97
896.447	-39.59
896.617	-0.68
896.788	15.7
896.958	19.8
897.129	-12.97
897.299	-76.46
897.47	13.65
897.64	7.51
897.81	-15.02
897.981	-2.73
898.151	-6.83
898.322	-0.68
898.492	-78.51
898.662	-21.16
898.832	-66.22
899.003	5.46
899.173	30.04
899.343	11.61
899.513	11.61
