Data from USB4F104151__71__12-59-36-882.txt Node

Date: Fri Mar 14 12:59:36 EDT 2025
User: louis
Spectrometer: USB4F10415
Trigger mode: 4
Integration Time (sec): 1.000000E-2
Scans to average: 1
Electric dark correction enabled: true
Nonlinearity correction enabled: false
Boxcar width: 0
XAxis mode: Wavelengths
Number of Pixels in Spectrum: 3648
>>>>>Begin Spectral Data<<<<<
178.204	-79.36
178.424	-79.36
178.644	-79.36
178.864	-48.64
179.084	-44.54
179.304	25.09
179.524	6.66
179.744	39.42
179.964	-9.73
180.184	-71.17
180.404	49.66
180.624	4.61
180.844	-19.97
181.064	-38.4
181.283	74.24
181.503	-22.02
181.723	-38.4
181.943	-15.87
182.163	-5.63
182.383	43.52
182.602	45.57
182.822	-5.63
183.042	-19.97
183.262	-40.45
183.482	18.94
183.701	-28.16
183.921	-9.73
184.141	39.42
184.361	49.66
184.58	-26.11
184.8	78.33
185.02	14.85
185.239	27.14
185.459	-15.87
185.679	-30.21
185.898	-81.41
186.118	-24.06
186.338	10.75
186.557	14.85
186.777	-32.26
186.997	-54.78
187.216	16.9
187.436	6.66
187.655	18.94
187.875	-1.54
188.095	39.42
188.314	16.9
188.534	74.24
188.753	8.7
188.973	-5.63
189.192	10.75
189.412	-5.63
189.631	-15.87
189.851	23.04
190.07	98.81
190.29	-19.97
190.509	-48.64
190.729	33.28
190.948	115.2
191.168	4.61
191.387	100.86
191.607	-44.54
191.826	33.28
192.045	-5.63
192.265	27.14
192.484	20.99
192.704	-3.58
192.923	59.9
193.142	27.14
193.362	10.75
193.581	31.23
193.8	4.61
194.02	33.28
194.239	-46.59
194.458	51.71
194.678	-28.16
194.897	31.23
195.116	-67.07
195.335	-48.64
195.555	-17.92
195.774	4.61
195.993	33.28
196.212	10.75
196.432	-24.06
196.651	-22.02
196.87	-48.64
197.089	8.7
197.308	27.14
197.528	20.99
197.747	-77.31
197.966	-7.68
198.185	37.38
198.404	0.51
198.623	41.47
198.842	66.05
199.062	53.76
199.281	-11.78
199.5	-7.68
199.719	-9.73
199.938	53.76
200.157	16.9
200.376	82.43
200.595	43.52
200.814	-1.54
201.033	16.9
201.252	18.94
201.471	55.81
201.69	23.04
201.909	4.61
202.128	-3.58
202.347	84.48
202.566	-36.35
202.785	6.66
203.004	-19.97
203.223	20.99
203.442	53.76
203.661	-30.21
203.879	39.42
204.098	-24.06
204.317	8.7
204.536	61.95
204.755	-44.54
204.974	37.38
205.193	4.61
205.411	4.61
205.63	10.75
205.849	27.14
206.068	68.09
206.287	-48.64
206.505	-34.3
206.724	0.51
206.943	18.94
207.162	61.95
207.381	14.85
207.599	27.14
207.818	-5.63
208.037	-3.58
208.255	-1.54
208.474	23.04
208.693	-1.54
208.911	14.85
209.13	45.57
209.349	16.9
209.567	-40.45
209.786	-1.54
210.005	39.42
210.223	-34.3
210.442	10.75
210.661	76.29
210.879	-40.45
211.098	33.28
211.316	29.18
211.535	35.33
211.753	-67.07
211.972	8.7
212.191	55.81
212.409	10.75
212.628	-13.82
212.846	78.33
213.065	20.99
213.283	23.04
213.502	4.61
213.72	33.28
213.938	59.9
214.157	53.76
214.375	0.51
214.594	12.8
214.812	53.76
215.031	0.51
215.249	-17.92
215.467	-1.54
215.686	18.94
215.904	-1.54
216.122	-17.92
216.341	64
216.559	41.47
216.778	51.71
216.996	10.75
217.214	16.9
217.432	-44.54
217.651	6.66
217.869	41.47
218.087	47.62
218.306	-3.58
218.524	76.29
218.742	23.04
218.96	0.51
219.179	-22.02
219.397	8.7
219.615	55.81
219.833	25.09
220.051	16.9
220.27	49.66
220.488	-5.63
220.706	-65.02
220.924	33.28
221.142	113.15
221.36	-48.64
221.578	29.18
221.796	59.9
222.015	12.8
222.233	16.9
222.451	-7.68
222.669	-56.83
222.887	8.7
223.105	0.51
223.323	47.62
223.541	55.81
223.759	16.9
223.977	90.62
224.195	-67.07
224.413	51.71
224.631	41.47
224.849	-56.83
225.067	31.23
225.285	-60.93
225.503	-62.98
225.721	33.28
225.939	23.04
226.157	35.33
226.375	33.28
226.592	-67.07
226.81	-5.63
227.028	-3.58
227.246	76.29
227.464	-26.11
227.682	37.38
227.9	25.09
228.117	31.23
228.335	-5.63
228.553	41.47
228.771	-36.35
228.989	-42.5
229.206	-5.63
229.424	14.85
229.642	-13.82
229.86	47.62
230.077	8.7
230.295	61.95
230.513	39.42
230.731	-91.65
230.948	37.38
231.166	-5.63
231.384	-5.63
231.601	41.47
231.819	14.85
232.037	-9.73
232.254	12.8
232.472	-42.5
232.689	59.9
232.907	-11.78
233.125	72.19
233.342	-54.78
233.56	33.28
233.777	-28.16
233.995	-44.54
234.213	41.47
234.43	43.52
234.648	35.33
234.865	31.23
235.083	57.86
235.3	-17.92
235.518	70.14
235.735	-5.63
235.953	37.38
236.17	68.09
236.388	-46.59
236.605	2.56
236.822	92.67
237.04	-32.26
237.257	57.86
237.475	43.52
237.692	-22.02
237.909	43.52
238.127	-13.82
238.344	25.09
238.562	37.38
238.779	-9.73
238.996	-9.73
239.214	20.99
239.431	-15.87
239.648	10.75
239.865	-26.11
240.083	53.76
240.3	-5.63
240.517	-9.73
240.735	-7.68
240.952	-22.02
241.169	-3.58
241.386	-32.26
241.603	39.42
241.821	55.81
242.038	0.51
242.255	0.51
242.472	-17.92
242.689	55.81
242.907	59.9
243.124	35.33
243.341	25.09
243.558	55.81
243.775	35.33
243.992	-26.11
244.209	35.33
244.426	37.38
244.643	10.75
244.86	-7.68
245.078	55.81
245.295	31.23
245.512	4.61
245.729	-13.82
245.946	18.94
246.163	23.04
246.38	16.9
246.597	115.2
246.814	47.62
247.031	66.05
247.248	33.28
247.464	51.71
247.681	64
247.898	47.62
248.115	-5.63
248.332	33.28
248.549	55.81
248.766	33.28
248.983	-24.06
249.2	12.8
249.417	76.29
249.633	-5.63
249.85	-30.21
250.067	72.19
250.284	55.81
250.501	-34.3
250.717	25.09
250.934	2.56
251.151	-17.92
251.368	55.81
251.585	92.67
251.801	47.62
252.018	4.61
252.235	49.66
252.451	-48.64
252.668	23.04
252.885	59.9
253.102	51.71
253.318	-3.58
253.535	-50.69
253.752	23.04
253.968	-24.06
254.185	-13.82
254.401	-38.4
254.618	-1.54
254.835	53.76
255.051	49.66
255.268	47.62
255.484	29.18
255.701	27.14
255.917	78.33
256.134	12.8
256.351	47.62
256.567	16.9
256.784	14.85
257	49.66
257.217	33.28
257.433	80.38
257.65	72.19
257.866	18.94
258.082	57.86
258.299	-26.11
258.515	57.86
258.732	-5.63
258.948	41.47
259.165	-3.58
259.381	113.15
259.597	-52.74
259.814	31.23
260.03	86.53
260.246	-34.3
260.463	-34.3
260.679	78.33
260.895	8.7
261.112	-42.5
261.328	31.23
261.544	-34.3
261.761	39.42
261.977	64
262.193	6.66
262.409	-15.87
262.626	33.28
262.842	-58.88
263.058	-26.11
263.274	61.95
263.49	6.66
263.707	-30.21
263.923	4.61
264.139	-105.98
264.355	23.04
264.571	-34.3
264.787	18.94
265.004	18.94
265.22	47.62
265.436	6.66
265.652	70.14
265.868	-1.54
266.084	-24.06
266.3	16.9
266.516	-9.73
266.732	-36.35
266.948	23.04
267.164	12.8
267.38	74.24
267.596	23.04
267.812	-17.92
268.028	53.76
268.244	-15.87
268.46	6.66
268.676	33.28
268.892	6.66
269.108	27.14
269.324	-15.87
269.54	-30.21
269.756	-7.68
269.972	-50.69
270.188	41.47
270.403	6.66
270.619	31.23
270.835	0.51
271.051	39.42
271.267	-13.82
271.483	-30.21
271.698	-22.02
271.914	35.33
272.13	18.94
272.346	39.42
272.562	23.04
272.777	2.56
272.993	-81.41
273.209	47.62
273.425	39.42
273.64	-24.06
273.856	-17.92
274.072	20.99
274.287	-5.63
274.503	66.05
274.719	16.9
274.934	78.33
275.15	2.56
275.366	0.51
275.581	-46.59
275.797	70.14
276.012	0.51
276.228	-30.21
276.444	-36.35
276.659	23.04
276.875	-9.73
277.09	27.14
277.306	-62.98
277.521	43.52
277.737	-28.16
277.952	66.05
278.168	59.9
278.383	-67.07
278.599	-38.4
278.814	16.9
279.03	0.51
279.245	51.71
279.461	-44.54
279.676	47.62
279.892	18.94
280.107	-15.87
280.322	61.95
280.538	55.81
280.753	-38.4
280.969	33.28
281.184	-15.87
281.399	53.76
281.615	8.7
281.83	16.9
282.045	-26.11
282.26	-1.54
282.476	0.51
282.691	33.28
282.906	25.09
283.122	33.28
283.337	37.38
283.552	16.9
283.767	-52.74
283.983	-1.54
284.198	-19.97
284.413	57.86
284.628	-65.02
284.843	8.7
285.058	14.85
285.274	-34.3
285.489	-15.87
285.704	4.61
285.919	-5.63
286.134	31.23
286.349	20.99
286.564	33.28
286.779	-3.58
286.995	-95.74
287.21	-56.83
287.425	94.72
287.64	14.85
287.855	-26.11
288.07	39.42
288.285	-58.88
288.5	25.09
288.715	23.04
288.93	74.24
289.145	29.18
289.36	39.42
289.575	-7.68
289.79	8.7
290.004	45.57
290.219	-19.97
290.434	-19.97
290.649	-32.26
290.864	33.28
291.079	-48.64
291.294	66.05
291.509	66.05
291.724	47.62
291.938	12.8
292.153	35.33
292.368	57.86
292.583	12.8
292.798	37.38
293.012	-24.06
293.227	23.04
293.442	47.62
293.657	18.94
293.871	-1.54
294.086	-40.45
294.301	35.33
294.516	84.48
294.73	8.7
294.945	-67.07
295.16	-24.06
295.374	-5.63
295.589	61.95
295.804	47.62
296.018	-40.45
296.233	43.52
296.447	33.28
296.662	-32.26
296.877	57.86
297.091	6.66
297.306	20.99
297.52	47.62
297.735	6.66
297.949	-5.63
298.164	18.94
298.378	-17.92
298.593	-17.92
298.807	10.75
299.022	0.51
299.236	-26.11
299.451	31.23
299.665	-24.06
299.88	-26.11
300.094	23.04
300.309	39.42
300.523	-17.92
300.737	6.66
300.952	66.05
301.166	55.81
301.381	-15.87
301.595	33.28
301.809	-19.97
302.024	-15.87
302.238	23.04
302.452	-1.54
302.667	-34.3
302.881	41.47
303.095	39.42
303.309	0.51
303.524	-36.35
303.738	90.62
303.952	39.42
304.166	8.7
304.381	-32.26
304.595	41.47
304.809	-9.73
305.023	0.51
305.237	31.23
305.452	-7.68
305.666	49.66
305.88	23.04
306.094	31.23
306.308	49.66
306.522	47.62
306.736	49.66
306.95	0.51
307.164	10.75
307.379	-22.02
307.593	66.05
307.807	31.23
308.021	8.7
308.235	41.47
308.449	-42.5
308.663	35.33
308.877	-22.02
309.091	10.75
309.305	14.85
309.519	-40.45
309.733	-5.63
309.947	-1.54
310.161	45.57
310.374	-7.68
310.588	-28.16
310.802	6.66
311.016	57.86
311.23	6.66
311.444	68.09
311.658	-7.68
311.872	0.51
312.085	-28.16
312.299	-11.78
312.513	2.56
312.727	49.66
312.941	0.51
313.154	33.28
313.368	51.71
313.582	76.29
313.796	-9.73
314.009	20.99
314.223	18.94
314.437	-56.83
314.651	35.33
314.864	51.71
315.078	25.09
315.292	6.66
315.505	-1.54
315.719	-11.78
315.933	-9.73
316.146	39.42
316.36	47.62
316.573	41.47
316.787	12.8
317.001	33.28
317.214	14.85
317.428	80.38
317.641	6.66
317.855	-26.11
318.068	-83.45
318.282	49.66
318.495	-1.54
318.709	31.23
318.922	4.61
319.136	43.52
319.349	-5.63
319.563	-19.97
319.776	39.42
319.99	41.47
320.203	2.56
320.417	74.24
320.63	25.09
320.843	12.8
321.057	51.71
321.27	2.56
321.483	64
321.697	-50.69
321.91	33.28
322.124	51.71
322.337	33.28
322.55	43.52
322.763	41.47
322.977	-42.5
323.19	25.09
323.403	-24.06
323.617	20.99
323.83	41.47
324.043	80.38
324.256	18.94
324.469	29.18
324.683	133.63
324.896	70.14
325.109	88.57
325.322	-30.21
325.535	10.75
325.748	90.62
325.962	33.28
326.175	6.66
326.388	37.38
326.601	31.23
326.814	33.28
327.027	76.29
327.24	35.33
327.453	-38.4
327.666	-5.63
327.879	64
328.092	-1.54
328.305	-11.78
328.518	72.19
328.731	51.71
328.944	-34.3
329.157	23.04
329.37	0.51
329.583	16.9
329.796	-1.54
330.009	-9.73
330.222	57.86
330.435	6.66
330.648	49.66
330.861	-3.58
331.073	78.33
331.286	14.85
331.499	6.66
331.712	-81.41
331.925	-30.21
332.138	-17.92
332.35	-5.63
332.563	-65.02
332.776	64
332.989	-19.97
333.202	4.61
333.414	-19.97
333.627	43.52
333.84	64
334.053	55.81
334.265	45.57
334.478	-13.82
334.691	88.57
334.903	0.51
335.116	47.62
335.329	0.51
335.541	51.71
335.754	-1.54
335.966	-60.93
336.179	20.99
336.392	0.51
336.604	-24.06
336.817	10.75
337.029	10.75
337.242	47.62
337.454	2.56
337.667	-1.54
337.88	47.62
338.092	68.09
338.305	10.75
338.517	12.8
338.729	6.66
338.942	29.18
339.154	2.56
339.367	-11.78
339.579	39.42
339.792	-40.45
340.004	53.76
340.217	-9.73
340.429	-15.87
340.641	0.51
340.854	-15.87
341.066	35.33
341.278	14.85
341.491	45.57
341.703	-13.82
341.915	-9.73
342.128	18.94
342.34	20.99
342.552	39.42
342.764	-36.35
342.977	29.18
343.189	88.57
343.401	43.52
343.613	-30.21
343.826	6.66
344.038	-30.21
344.25	-5.63
344.462	-32.26
344.674	74.24
344.886	-91.65
345.099	-15.87
345.311	39.42
345.523	25.09
345.735	-17.92
345.947	66.05
346.159	-28.16
346.371	88.57
346.583	29.18
346.795	39.42
347.007	-34.3
347.219	78.33
347.431	72.19
347.643	0.51
347.855	6.66
348.067	59.9
348.279	70.14
348.491	16.9
348.703	-1.54
348.915	16.9
349.127	14.85
349.339	66.05
349.551	12.8
349.763	-50.69
349.975	66.05
350.187	-48.64
350.399	4.61
350.61	41.47
350.822	10.75
351.034	-32.26
351.246	43.52
351.458	14.85
351.669	-46.59
351.881	33.28
352.093	31.23
352.305	-24.06
352.517	33.28
352.728	6.66
352.94	20.99
353.152	23.04
353.363	-26.11
353.575	41.47
353.787	-7.68
353.999	61.95
354.21	8.7
354.422	35.33
354.633	45.57
354.845	27.14
355.057	20.99
355.268	2.56
355.48	16.9
355.692	-32.26
355.903	-24.06
356.115	59.9
356.326	-81.41
356.538	100.86
356.749	12.8
356.961	14.85
357.172	2.56
357.384	80.38
357.595	31.23
357.807	29.18
358.018	47.62
358.23	-22.02
358.441	49.66
358.653	33.28
358.864	68.09
359.075	31.23
359.287	-48.64
359.498	55.81
359.709	37.38
359.921	2.56
360.132	4.61
360.344	70.14
360.555	16.9
360.766	31.23
360.977	27.14
361.189	57.86
361.4	35.33
361.611	14.85
361.823	27.14
362.034	-42.5
362.245	59.9
362.456	84.48
362.667	18.94
362.879	53.76
363.09	-19.97
363.301	-71.17
363.512	-22.02
363.723	25.09
363.935	8.7
364.146	45.57
364.357	39.42
364.568	-19.97
364.779	31.23
364.99	72.19
365.201	-5.63
365.412	43.52
365.623	-5.63
365.834	43.52
366.045	-5.63
366.256	23.04
366.467	90.62
366.678	35.33
366.889	82.43
367.1	-30.21
367.311	16.9
367.522	16.9
367.733	14.85
367.944	4.61
368.155	-7.68
368.366	35.33
368.577	31.23
368.788	6.66
368.999	-17.92
369.209	53.76
369.42	10.75
369.631	74.24
369.842	-7.68
370.053	150.01
370.264	49.66
370.474	23.04
370.685	-30.21
370.896	-7.68
371.107	39.42
371.317	8.7
371.528	-26.11
371.739	33.28
371.95	8.7
372.16	-30.21
372.371	25.09
372.582	-17.92
372.792	64
373.003	-7.68
373.214	14.85
373.424	-19.97
373.635	4.61
373.846	104.96
374.056	-56.83
374.267	29.18
374.477	12.8
374.688	-22.02
374.898	-9.73
375.109	10.75
375.319	20.99
375.53	74.24
375.74	27.14
375.951	25.09
376.161	-26.11
376.372	27.14
376.582	33.28
376.793	-7.68
377.003	-26.11
377.214	47.62
377.424	35.33
377.635	18.94
377.845	8.7
378.055	113.15
378.266	31.23
378.476	10.75
378.686	35.33
378.897	41.47
379.107	82.43
379.317	14.85
379.528	-13.82
379.738	39.42
379.948	-67.07
380.158	59.9
380.369	-34.3
380.579	25.09
380.789	-34.3
380.999	2.56
381.21	43.52
381.42	55.81
381.63	-46.59
381.84	66.05
382.05	-50.69
382.261	14.85
382.471	-3.58
382.681	59.9
382.891	27.14
383.101	100.86
383.311	66.05
383.521	12.8
383.731	86.53
383.941	70.14
384.151	10.75
384.361	25.09
384.571	-1.54
384.781	-22.02
384.991	55.81
385.201	20.99
385.411	16.9
385.621	59.9
385.831	-36.35
386.041	66.05
386.251	92.67
386.461	57.86
386.671	-5.63
386.881	4.61
387.091	115.2
387.301	88.57
387.511	10.75
387.72	53.76
387.93	109.05
388.14	-3.58
388.35	4.61
388.56	82.43
388.769	23.04
388.979	55.81
389.189	12.8
389.399	16.9
389.609	-32.26
389.818	45.57
390.028	-46.59
390.238	47.62
390.447	23.04
390.657	12.8
390.867	2.56
391.076	-42.5
391.286	20.99
391.496	25.09
391.705	92.67
391.915	-19.97
392.125	29.18
392.334	43.52
392.544	39.42
392.753	-50.69
392.963	47.62
393.172	14.85
393.382	-3.58
393.591	6.66
393.801	51.71
394.01	49.66
394.22	23.04
394.429	25.09
394.639	-15.87
394.848	47.62
395.058	39.42
395.267	70.14
395.477	41.47
395.686	-52.74
395.895	47.62
396.105	14.85
396.314	-1.54
396.524	74.24
396.733	-7.68
396.942	33.28
397.152	12.8
397.361	35.33
397.57	37.38
397.78	16.9
397.989	6.66
398.198	47.62
398.407	14.85
398.617	92.67
398.826	37.38
399.035	64
399.244	53.76
399.453	49.66
399.663	49.66
399.872	57.86
400.081	6.66
400.29	102.91
400.499	90.62
400.708	92.67
400.917	10.75
401.127	72.19
401.336	64
401.545	78.33
401.754	33.28
401.963	-5.63
402.172	16.9
402.381	-40.45
402.59	12.8
402.799	57.86
403.008	64
403.217	23.04
403.426	59.9
403.635	-22.02
403.844	131.58
404.053	43.52
404.262	-9.73
404.471	72.19
404.68	41.47
404.888	49.66
405.097	31.23
405.306	98.81
405.515	47.62
405.724	51.71
405.933	33.28
406.142	123.39
406.35	94.72
406.559	84.48
406.768	80.38
406.977	47.62
407.185	31.23
407.394	43.52
407.603	35.33
407.812	111.1
408.02	61.95
408.229	72.19
408.438	41.47
408.646	49.66
408.855	119.29
409.064	49.66
409.272	64
409.481	98.81
409.69	45.57
409.898	64
410.107	92.67
410.315	86.53
410.524	55.81
410.733	96.77
410.941	76.29
411.15	98.81
411.358	150.01
411.567	66.05
411.775	125.44
411.984	78.33
412.192	45.57
412.401	172.54
412.609	125.44
412.818	152.06
413.026	150.01
413.234	100.86
413.443	154.11
413.651	156.16
413.86	154.11
414.068	238.08
414.276	201.21
414.485	162.3
414.693	117.25
414.901	70.14
415.11	139.77
415.318	119.29
415.526	127.49
415.734	227.84
415.943	233.98
416.151	252.41
416.359	240.12
416.567	168.45
416.776	240.12
416.984	276.99
417.192	289.28
417.4	188.93
417.608	268.8
417.817	338.43
418.025	332.28
418.233	272.89
418.441	270.84
418.649	274.94
418.857	393.72
419.065	324.09
419.273	363
419.481	311.8
419.689	338.43
419.897	403.96
420.105	377.34
420.313	418.3
420.521	401.91
420.729	371.19
420.937	449.02
421.145	446.97
421.353	399.87
421.561	559.61
421.769	481.78
421.977	477.69
422.185	438.78
422.393	518.65
422.601	547.32
422.809	614.9
423.017	567.8
423.224	555.51
423.432	610.81
423.64	643.57
423.848	647.67
424.056	676.34
424.263	702.97
424.471	688.63
424.679	791.03
424.887	694.77
425.094	803.32
425.302	788.98
425.51	791.03
425.718	748.02
425.925	840.18
426.133	938.48
426.341	963.06
426.548	948.72
426.756	983.54
426.964	991.73
427.171	1063.41
427.379	1106.42
427.586	1030.64
427.794	1022.45
428.001	1067.5
428.209	1159.66
428.417	1171.95
428.624	1276.4
428.832	1266.16
429.039	1190.38
429.247	1227.25
429.454	1448.43
429.662	1448.43
429.869	1411.56
430.076	1436.14
430.284	1440.23
430.491	1423.85
430.699	1706.47
430.906	1538.54
431.114	1685.99
431.321	1681.89
431.528	1690.09
431.736	1792.48
431.943	1790.44
432.15	1741.29
432.358	1769.96
432.565	1952.23
432.772	1870.31
432.979	2032.1
433.187	2011.62
433.394	2028
433.601	2157.02
433.808	2234.85
434.016	2148.83
434.223	2249.18
434.43	2376.16
434.637	2423.26
434.844	2515.42
435.052	2564.57
435.259	2554.33
435.466	2554.33
435.673	2609.62
435.88	2632.15
436.087	2775.51
436.294	2857.43
436.501	2769.37
436.708	2822.61
436.915	2785.75
437.122	3015.12
437.329	2996.69
437.537	3152.34
437.743	3271.12
437.95	3205.58
438.157	3326.41
438.364	3416.52
438.571	3430.86
438.778	3574.22
438.985	3688.9
439.192	3725.77
439.399	3754.44
439.606	3717.58
439.813	3748.29
440.02	4078.02
440.227	4071.87
440.433	4114.88
440.64	4116.93
440.847	4190.66
441.054	4190.66
441.261	4520.38
441.467	4467.13
441.674	4684.22
441.881	4823.48
442.088	4686.26
442.294	4608.44
442.501	4719.03
442.708	4700.6
442.914	5050.8
443.121	5091.76
443.328	5079.47
443.534	5521.84
443.741	5364.14
443.948	5290.42
444.154	5620.14
444.361	5634.47
444.568	5673.39
444.774	5679.53
444.981	5845.41
445.187	5902.76
445.394	6011.3
445.6	6019.49
445.807	6666.65
446.013	6404.51
446.22	6566.3
446.426	6726.04
446.633	6853.02
446.839	7004.57
447.046	6592.92
447.252	7403.92
447.459	7137.68
447.665	7004.57
447.871	7356.82
448.078	7940.49
448.284	7457.17
448.491	7647.63
448.697	7920.01
448.903	8092.04
449.11	8053.13
449.316	8161.67
449.522	8008.07
449.728	8411.52
449.935	8593.79
450.141	8497.53
450.347	8599.93
450.553	8438.14
450.76	8444.29
450.966	8923.51
451.172	8534.4
451.378	9046.39
451.584	8718.71
451.791	9062.77
451.997	8903.03
452.203	9208.18
452.409	9105.78
452.615	8952.18
452.821	8722.81
453.027	8692.09
453.233	9042.29
453.44	8806.78
453.646	8769.91
453.852	8982.9
454.058	8976.76
454.264	8937.85
454.47	8980.85
454.676	8788.35
454.882	9036.15
455.088	8296.83
455.294	8561.02
455.5	8452.48
455.705	8487.29
455.911	8419.71
456.117	8165.76
456.323	8010.12
456.529	7782.79
456.735	7958.92
456.941	7836.04
457.147	7651.72
457.352	7547.28
457.558	7221.65
457.764	7328.14
457.97	7203.22
458.176	6951.32
458.381	6838.68
458.587	6625.69
458.793	6678.94
458.999	6416.8
459.204	6910.36
459.41	6627.74
459.616	6322.59
459.821	6218.15
460.027	6267.3
460.233	6076.84
460.438	5687.72
460.644	5826.98
460.85	5489.07
461.055	5439.92
461.261	5441.96
461.466	5091.76
461.672	4915.64
461.878	5089.71
462.083	4987.32
462.289	4694.46
462.494	4899.25
462.7	4512.19
462.905	4469.18
463.111	4544.95
463.316	4528.57
463.522	4463.04
463.727	4563.39
463.932	4524.47
464.138	4381.12
464.343	4479.42
464.549	4397.5
464.754	4475.32
464.959	4481.47
465.165	4307.39
465.37	4217.28
465.575	4090.31
465.781	4383.17
465.986	4358.59
466.191	4143.55
466.397	4084.16
466.602	3813.83
466.807	4061.63
467.012	4067.78
467.218	4082.11
467.423	4053.44
467.628	3965.38
467.833	4166.08
468.038	4000.19
468.244	3901.89
468.449	3903.94
468.654	3922.37
468.859	3881.41
469.064	3916.23
469.269	3756.49
469.474	3709.38
469.679	3742.15
469.885	3742.15
470.09	3783.11
470.295	3754.44
470.5	3654.09
470.705	3832.26
470.91	3480.01
471.115	3627.46
471.32	3549.64
471.525	3668.42
471.73	3580.36
471.935	3643.85
472.139	3402.19
472.344	3439.05
472.549	3422.67
472.754	3441.1
472.959	3406.28
473.164	3232.21
473.369	3242.45
473.574	3381.71
473.778	3420.62
473.983	3303.89
474.188	3322.32
474.393	3174.86
474.598	3170.77
474.802	3228.11
475.007	3094.99
475.212	2984.4
475.417	2968.02
475.621	2920.92
475.826	3047.89
476.031	2834.9
476.235	2836.95
476.44	2853.33
476.645	2884.05
476.849	2968.02
477.054	2755.03
477.259	2867.67
477.463	2847.19
477.668	2636.25
477.872	2591.19
478.077	2773.46
478.282	2650.58
478.486	2556.38
478.691	2570.71
478.895	2595.29
479.1	2722.26
479.304	2562.52
479.509	2476.51
479.713	2515.42
479.918	2462.17
480.122	2589.14
480.326	2482.65
480.531	2576.86
480.735	2513.37
480.94	2505.18
481.144	2562.52
481.348	2347.48
481.553	2474.46
481.757	2390.49
481.961	2509.27
482.166	2417.12
482.37	2537.95
482.574	2433.5
482.778	2460.12
482.983	2466.27
483.187	2449.88
483.391	2503.13
483.595	2509.27
483.8	2359.77
484.004	2406.88
484.208	2349.53
484.412	2413.02
484.616	2593.24
484.821	2482.65
485.025	2320.86
485.229	2449.88
485.433	2482.65
485.637	2284
485.841	2449.88
486.045	2425.31
486.249	2447.83
486.453	2421.21
486.657	2445.79
486.861	2376.16
487.065	2425.31
487.269	2410.97
487.473	2427.35
487.677	2470.36
487.881	2472.41
488.085	2423.26
488.289	2435.55
488.493	2562.52
488.697	2384.35
488.901	2542.04
489.105	2441.69
489.309	2453.98
489.512	2546.14
489.716	2474.46
489.92	2531.8
490.124	2499.03
490.328	2515.42
490.531	2509.27
490.735	2556.38
490.939	2769.37
491.143	2595.29
491.346	2671.06
491.55	2521.56
491.754	2617.82
491.958	2574.81
492.161	2554.33
492.365	2687.45
492.569	2597.34
492.772	2660.82
492.976	2765.27
493.18	2679.26
493.383	2693.59
493.587	2800.09
493.79	2779.61
493.994	2832.85
494.197	2933.2
494.401	2808.28
494.605	2896.34
494.808	2996.69
495.012	2935.25
495.215	2918.87
495.419	2847.19
495.622	2863.57
495.825	2906.58
496.029	3043.79
496.232	3078.61
496.436	2976.21
496.639	3144.14
496.843	3023.31
497.046	3103.18
497.249	3185.1
497.453	3129.81
497.656	3381.71
497.859	3234.25
498.063	3281.36
498.266	3320.27
498.469	3332.56
498.673	3449.29
498.876	3512.78
499.079	3537.35
499.282	3467.72
499.485	3539.4
499.689	3545.55
499.892	3715.53
500.095	3637.7
500.298	3756.49
500.501	3785.16
500.705	3754.44
500.908	3998.15
501.111	3826.12
501.314	3989.96
501.517	3955.14
501.72	4014.53
501.923	4118.98
502.126	4178.37
502.329	4225.47
502.532	4370.88
502.735	4291.01
502.938	4385.21
503.141	4391.36
503.344	4606.39
503.547	4399.55
503.75	4536.76
503.953	4719.03
504.156	4647.35
504.359	4882.87
504.562	4864.44
504.765	4764.09
504.968	4927.92
505.17	5091.76
505.373	5061.04
505.576	5136.82
505.779	5036.47
505.982	5282.22
506.185	5507.5
506.387	5470.64
506.59	5403.05
506.793	5609.9
506.996	5591.47
507.198	5564.84
507.401	5538.22
507.604	5818.79
507.807	5919.14
508.009	5935.53
508.212	5937.57
508.415	5976.48
508.617	6193.57
508.82	6263.2
509.022	6224.29
509.225	6295.97
509.428	6496.67
509.63	6584.73
509.833	6586.78
510.035	6764.95
510.238	6707.61
510.44	6848.92
510.643	6826.39
510.845	6941.08
511.048	6992.28
511.25	7231.89
511.453	7295.38
511.655	7272.85
511.858	7557.52
512.06	7471.5
512.262	7696.78
512.465	7598.48
512.667	7971.21
512.87	7817.61
513.072	7922.06
513.274	8186.24
513.477	8221.06
513.679	8143.24
513.881	8276.35
514.084	8593.79
514.286	8395.14
514.488	8442.24
514.69	8565.12
514.893	8659.32
515.095	8962.42
515.297	9001.33
515.499	9062.77
515.701	9034.1
515.904	9431.41
516.106	9378.16
516.308	9460.08
516.51	9578.86
516.712	9359.73
516.914	9640.3
517.116	10029.41
517.318	9824.62
517.52	10228.07
517.722	10103.14
517.925	10369.38
518.127	10297.7
518.329	10385.76
518.531	10424.67
518.733	10594.65
518.935	10778.97
519.136	10840.41
519.338	11053.4
519.54	10942.81
519.742	11043.16
519.944	11161.94
520.146	11346.26
520.348	11491.66
520.55	11555.15
520.752	11686.22
520.954	11745.61
521.155	11684.17
521.357	11755.85
521.559	12054.86
521.761	12446.02
521.963	12204.36
522.164	12411.2
522.366	12429.63
522.568	12654.91
522.77	12458.31
522.971	12802.36
523.173	12665.15
523.375	13095.22
523.576	12941.63
523.778	12966.2
523.98	13293.88
524.181	13355.32
524.383	13175.09
524.584	13388.08
524.786	13410.61
524.988	13396.28
525.189	13470
525.391	13805.87
525.592	13777.2
525.794	13752.62
525.995	13941.04
526.197	14088.49
526.398	14002.47
526.6	14203.18
526.801	14172.46
527.003	14254.37
527.204	14334.25
527.406	14209.32
527.607	14598.43
527.808	14463.27
528.01	14459.17
528.211	14645.54
528.412	14778.65
528.614	14620.96
528.815	14836
529.016	14950.68
529.218	14762.27
529.419	15118.62
529.62	14817.57
529.822	15024.41
530.023	14811.42
530.224	15169.82
530.425	14952.73
530.626	15005.98
530.828	14721.31
531.029	15100.19
531.23	14981.4
531.431	15089.95
531.632	15186.2
531.833	15368.47
532.035	15319.32
532.236	15319.32
532.437	15354.13
532.638	15366.42
532.839	15421.72
533.04	15298.84
533.241	15251.74
533.442	15442.2
533.643	15218.97
533.844	15579.41
534.045	15517.97
534.246	15520.02
534.447	15626.51
534.648	15319.32
534.849	15591.7
535.05	15407.38
535.251	15694.1
535.451	15624.47
535.652	15685.9
535.853	15399.19
536.054	15601.94
536.255	15456.53
536.456	15614.23
536.657	15847.69
536.857	15321.37
537.058	15376.66
537.259	15810.83
537.46	15687.95
537.66	15595.79
537.861	15634.71
538.062	15677.71
538.263	15501.59
538.463	15487.25
538.664	15710.48
538.865	15730.96
539.065	15657.23
539.266	15548.69
539.466	15735.06
539.667	15323.41
539.868	15722.77
540.068	15712.53
540.269	15593.75
540.469	15554.83
540.67	15323.41
540.87	15577.36
541.071	15595.79
541.271	15608.08
541.472	15669.52
541.672	15544.59
541.873	15601.94
542.073	15200.54
542.274	15563.03
542.474	15624.47
542.675	15477.01
542.875	15921.42
543.075	15507.73
543.276	15360.28
543.476	15593.75
543.676	15501.59
543.877	15556.88
544.077	15556.88
544.277	15440.15
544.478	15735.06
544.678	15810.83
544.878	15520.02
545.078	15499.54
545.279	15436.05
545.479	15515.92
545.679	15696.14
545.879	15434
546.079	15853.84
546.28	15431.96
546.48	15368.47
546.68	15595.79
546.88	15450.39
547.08	15401.24
547.28	15446.29
547.48	15573.27
547.68	15534.35
547.88	15608.08
548.081	15450.39
548.281	15444.24
548.481	15558.93
548.681	15720.72
548.881	15452.44
549.081	15423.76
549.28	15479.06
549.48	15620.37
549.68	15388.95
549.88	15509.78
550.08	15442.2
550.28	15397.14
550.48	15155.48
550.68	15681.81
550.88	15171.86
551.08	15444.24
551.279	15313.17
551.479	15278.36
551.679	15347.99
551.879	15405.33
552.079	15364.37
552.278	15483.16
552.478	15722.77
552.678	15386.9
552.878	15812.88
553.077	15261.98
553.277	15358.23
553.477	15331.61
553.676	15102.23
553.876	15339.8
554.076	15382.81
554.275	15407.38
554.475	15268.12
554.674	15366.42
554.874	15563.03
555.074	15376.66
555.273	15141.14
555.473	15401.24
555.672	15221.02
555.872	15108.38
556.071	15300.89
556.271	15304.98
556.47	15319.32
556.67	15333.65
556.869	15243.54
557.068	15104.28
557.268	15200.54
557.467	15116.57
557.667	14932.25
557.866	15147.29
558.065	14885.15
558.265	14903.58
558.464	14883.1
558.663	15200.54
558.863	14838.05
559.062	14958.88
559.261	14672.16
559.461	14950.68
559.66	14717.22
559.859	14881.05
560.058	14696.74
560.258	15005.98
560.457	14743.84
560.656	15055.13
560.855	14731.55
561.054	14942.49
561.253	14498.08
561.453	14760.22
561.652	14772.51
561.851	14676.26
562.05	14590.24
562.249	14485.79
562.448	14663.97
562.647	14393.64
562.846	14727.46
563.045	14543.14
563.244	14469.41
563.443	14643.49
563.642	14205.22
563.841	14303.53
564.04	14336.29
564.239	14393.64
564.438	13996.33
564.637	14428.45
564.836	14287.14
565.035	14057.77
565.234	14182.7
565.432	14203.18
565.631	14121.26
565.83	14444.84
566.029	14041.39
566.228	14166.31
566.427	14246.18
566.625	13678.9
566.824	13787.44
567.023	13826.35
567.222	13807.92
567.42	13850.92
567.619	13820.21
567.818	13678.9
568.016	13781.29
568.215	13984.04
568.414	13672.75
568.612	13674.8
568.811	13613.36
569.01	13498.67
569.208	13519.15
569.407	13717.81
569.605	13490.48
569.804	13404.47
570.002	13265.21
570.201	13785.39
570.4	13306.16
570.598	13187.38
570.797	13199.67
570.995	13125.94
571.193	13011.26
571.392	13353.27
571.59	13039.93
571.789	13130.04
571.987	12892.48
572.186	13109.56
572.384	12894.52
572.582	12949.82
572.781	12912.95
572.979	12773.69
573.177	12894.52
573.376	12767.55
573.574	12646.72
573.772	12685.63
573.971	12712.25
574.169	12558.66
574.367	12699.97
574.565	12669.25
574.763	12446.02
574.962	12427.59
575.16	12523.84
575.358	12474.69
575.556	12380.48
575.754	12783.93
575.952	12241.22
576.151	12421.44
576.349	12126.53
576.547	12212.55
576.745	12112.2
576.943	12407.11
577.141	11934.03
577.339	12163.4
577.537	12048.71
577.735	11974.99
577.933	11872.59
578.131	11870.54
578.329	11635.02
578.527	11825.48
578.725	11876.68
578.923	11934.03
579.121	11841.87
579.319	11888.97
579.516	11759.95
579.714	11850.06
579.912	11573.58
580.11	11643.21
580.308	11534.67
580.506	11456.85
580.704	11491.66
580.901	11479.38
581.099	11608.4
581.297	11266.39
581.495	11473.23
581.692	11264.34
581.89	11305.3
582.088	11403.6
582.285	11037.02
582.483	11182.42
582.681	11256.15
582.878	10971.48
583.076	11120.98
583.274	11123.03
583.471	10979.67
583.669	10905.95
583.866	10944.86
584.064	11135.32
584.262	10856.79
584.459	10795.36
584.657	10991.96
584.854	10940.76
585.052	10670.43
585.249	10864.99
585.447	10783.07
585.644	10561.89
585.841	10549.6
586.039	10766.68
586.236	10596.7
586.434	10608.99
586.631	10475.87
586.828	10355.04
587.026	10426.72
587.223	10375.52
587.42	10514.78
587.618	10549.6
587.815	10352.99
588.012	10170.72
588.21	10146.15
588.407	10199.4
588.604	10101.09
588.801	10150.25
588.999	10029.41
589.196	10127.72
589.393	10140.01
589.59	10064.23
589.787	10115.43
589.984	10142.05
590.182	9738.6
590.379	10058.09
590.576	9822.57
590.773	9793.9
590.97	9795.95
591.167	9929.06
591.364	9808.23
591.561	9861.48
591.758	9681.26
591.955	9542
592.152	9673.07
592.349	9615.73
592.546	9591.15
592.743	9660.78
592.94	9574.77
593.137	9630.06
593.334	9529.71
593.531	9435.5
593.727	9470.32
593.924	9357.68
594.121	9359.73
594.318	9359.73
594.515	9240.95
594.712	9394.54
594.908	9283.95
595.105	9369.97
595.302	9253.23
595.499	9134.45
595.696	9073.01
595.892	9060.73
596.089	9195.89
596.286	9191.8
596.482	9161.08
596.679	9195.89
596.876	9238.9
597.072	8911.22
597.269	8968.57
597.466	8860.02
597.662	9068.92
597.859	8921.46
598.055	8894.84
598.252	8749.43
598.448	8868.22
598.645	8745.34
598.841	8733.05
599.038	8733.05
599.234	8946.04
599.431	8632.7
599.627	8673.66
599.824	8569.21
600.02	8581.5
600.217	8585.6
600.413	8608.12
600.609	8475.01
600.806	8399.23
601.002	8368.51
601.198	8364.42
601.395	8272.26
601.591	8460.67
601.787	8388.99
601.984	8184.2
602.18	8214.91
602.376	8253.83
602.572	8038.79
602.769	8126.85
602.965	8182.15
603.161	8069.51
603.357	8071.56
603.553	8032.65
603.75	8059.27
603.946	8075.65
604.142	7987.59
604.338	7989.64
604.534	7891.34
604.73	7854.47
604.926	7811.46
605.122	7821.7
605.318	7920.01
605.514	7920.01
605.71	7899.53
605.906	7719.31
606.102	7965.06
606.298	7723.4
606.494	7659.92
606.69	7729.55
606.886	7637.39
607.082	7670.15
607.278	7604.62
607.474	7477.65
607.67	7571.85
607.866	7571.85
608.062	7676.3
608.257	7436.69
608.453	7530.89
608.649	7391.63
608.845	7367.06
609.041	7428.49
609.236	7551.37
609.432	7537.04
609.628	7281.04
609.824	7367.06
610.019	7518.61
610.215	7242.13
610.411	7375.25
610.606	7362.96
610.802	7418.25
610.998	7324.05
611.193	7272.85
611.389	7178.64
611.584	7252.37
611.78	7102.87
611.976	7313.81
612.171	7164.31
612.367	7164.31
612.562	7055.76
612.758	7143.83
612.953	6855.06
613.149	7100.82
613.344	6961.56
613.539	7131.54
613.735	7139.73
613.93	6908.31
614.126	6885.78
614.321	6984.09
614.517	7039.38
614.712	6873.5
614.907	6891.93
615.103	6748.57
615.298	6875.54
615.493	7066
615.688	6830.49
615.884	6982.04
616.079	6726.04
616.274	6773.14
616.47	6832.54
616.665	6713.75
616.86	6754.71
617.055	6535.58
617.25	6723.99
617.445	6795.67
617.641	6633.88
617.836	6658.46
618.031	6547.87
618.226	6666.65
618.421	6377.89
618.616	6562.2
618.811	6404.51
619.006	6633.88
619.201	6422.94
619.396	6357.41
619.591	6281.63
619.786	6482.33
619.981	6341.02
620.176	6396.32
620.371	6298.02
620.566	6304.16
620.761	6308.26
620.956	6330.78
621.151	6222.24
621.346	6160.8
621.541	5953.96
621.735	6259.1
621.93	6003.11
622.125	6156.71
622.32	5872.04
622.515	5800.36
622.709	5923.24
622.904	6027.68
623.099	5900.71
623.294	5726.63
623.488	5900.71
623.683	5759.4
623.878	5683.63
624.072	5812.65
624.267	5829.03
624.462	5657
624.656	5507.5
624.851	5781.93
625.046	5507.5
625.24	5398.96
625.435	5552.56
625.629	5523.88
625.824	5437.87
626.018	5487.02
626.213	5302.7
626.407	5386.67
626.602	5394.86
626.796	5464.49
626.991	5335.47
627.185	5374.38
627.38	5247.41
627.574	5274.03
627.768	5095.86
627.963	5075.38
628.157	5140.91
628.352	5196.21
628.546	4977.08
628.74	5188.02
628.935	5038.52
629.129	4772.28
629.323	5013.94
629.517	4983.22
629.712	4843.96
629.906	4934.07
630.1	4702.65
630.294	4895.16
630.489	4895.16
630.683	4909.49
630.877	4676.02
631.071	4747.7
631.265	4678.07
631.459	4764.09
631.653	4628.92
631.848	4602.3
632.042	4794.81
632.236	4712.89
632.43	4446.65
632.624	4532.67
632.818	4637.11
633.012	4444.6
633.206	4489.66
633.4	4553.15
633.594	4372.93
633.788	4444.6
633.982	4293.05
634.176	4428.22
634.369	4291.01
634.563	4264.38
634.757	4315.58
634.951	4305.34
635.145	4329.92
635.339	4227.52
635.533	4176.32
635.726	4137.41
635.92	4159.94
636.114	4149.7
636.308	4102.59
636.501	4198.85
636.695	4078.02
636.889	4153.79
637.083	3883.46
637.276	4028.87
637.47	3946.95
637.664	3967.43
637.857	3957.19
638.051	4006.34
638.244	3848.65
638.438	3813.83
638.632	3865.03
638.825	3799.49
639.019	3854.79
639.212	3752.39
639.406	3875.27
639.599	3809.73
639.793	3752.39
639.986	3578.31
640.18	3662.28
640.373	3531.21
640.567	3539.4
640.76	3615.18
640.954	3598.79
641.147	3408.33
641.34	3662.28
641.534	3404.24
641.727	3475.91
641.92	3520.97
642.114	3488.2
642.307	3340.75
642.5	3477.96
642.694	3377.61
642.887	3340.75
643.08	3394
643.273	3178.96
643.467	3207.63
643.66	3316.17
643.853	3375.56
644.046	3250.64
644.239	3359.18
644.432	3254.73
644.626	3115.47
644.819	3181.01
645.012	3207.63
645.205	3201.49
645.398	3246.54
645.591	2996.69
645.784	3084.75
645.977	3031.51
646.17	2957.78
646.363	3035.6
646.556	3082.7
646.749	2972.11
646.942	2949.59
647.135	3004.88
647.328	2945.49
647.521	2955.73
647.714	2839
647.907	2851.28
648.099	2843.09
648.292	2830.8
648.485	2863.57
648.678	2769.37
648.871	2699.73
649.064	2765.27
649.256	2742.74
649.449	2828.76
649.642	2728.41
649.835	2611.67
650.027	2709.97
650.22	2597.34
650.413	2527.71
650.605	2626.01
650.798	2519.51
650.991	2566.62
651.183	2585.05
651.376	2533.85
651.568	2490.84
651.761	2560.47
651.954	2550.23
652.146	2519.51
652.339	2578.9
652.531	2441.69
652.724	2533.85
652.916	2501.08
653.109	2363.87
653.301	2361.82
653.494	2421.21
653.686	2376.16
653.879	2419.16
654.071	2370.01
654.263	2337.24
654.456	2392.54
654.648	2398.68
654.84	2359.77
655.033	2343.39
655.225	2279.9
655.417	2249.18
655.61	2161.12
655.802	2294.24
655.994	2253.28
656.186	2296.28
656.379	2195.93
656.571	2177.5
656.763	2075.1
656.955	2114.02
657.148	2142.69
657.34	2122.21
657.532	2064.86
657.724	2144.74
657.916	2187.74
658.108	2136.54
658.3	2148.83
658.492	2032.1
658.684	2015.71
658.876	2124.26
659.068	2054.62
659.26	2073.06
659.452	2011.62
659.644	1952.23
659.836	2034.14
660.028	2003.43
660.22	1964.51
660.412	1915.36
660.604	1927.65
660.796	1802.72
660.988	1874.4
661.18	1901.03
661.372	1841.64
661.563	1806.82
661.755	1866.21
661.947	1913.31
662.139	1866.21
662.331	1821.16
662.522	1874.4
662.714	1704.42
662.906	1784.29
663.097	1792.48
663.289	1722.85
663.481	1757.67
663.673	1726.95
663.864	1796.58
664.056	1700.33
664.247	1806.82
664.439	1647.08
664.631	1683.94
664.822	1759.72
665.014	1735.14
665.205	1634.79
665.397	1714.66
665.588	1724.9
665.78	1638.89
665.971	1716.71
666.163	1589.74
666.354	1604.07
666.546	1548.78
666.737	1589.74
666.929	1642.98
667.12	1491.43
667.311	1464.81
667.503	1470.95
667.694	1540.58
667.885	1518.06
668.077	1599.98
668.268	1614.31
668.459	1448.43
668.651	1534.44
668.842	1456.62
669.033	1571.3
669.224	1540.58
669.416	1577.45
669.607	1481.19
669.798	1460.71
669.989	1511.91
670.18	1464.81
670.371	1528.3
670.563	1425.9
670.754	1524.2
670.945	1470.95
671.136	1497.58
671.327	1366.51
671.518	1423.85
671.709	1462.76
671.9	1358.32
672.091	1403.37
672.282	1401.32
672.473	1442.28
672.664	1399.27
672.855	1366.51
673.046	1362.41
673.237	1389.03
673.428	1415.66
673.619	1384.94
673.809	1327.6
674	1395.18
674.191	1419.75
674.382	1372.65
674.573	1262.06
674.764	1288.68
674.954	1356.27
675.145	1452.52
675.336	1358.32
675.527	1337.84
675.717	1315.31
675.908	1343.98
676.099	1341.93
676.289	1343.98
676.48	1307.12
676.671	1235.44
676.861	1245.68
677.052	1335.79
677.243	1221.1
677.433	1311.21
677.624	1286.64
677.814	1413.61
678.005	1294.83
678.195	1255.92
678.386	1280.49
678.576	1257.96
678.767	1286.64
678.957	1294.83
679.148	1270.25
679.338	1337.84
679.529	1268.2
679.719	1233.39
679.909	1272.3
680.1	1270.25
680.29	1198.57
680.481	1245.68
680.671	1325.55
680.861	1288.68
681.052	1255.92
681.242	1309.16
681.432	1294.83
681.622	1262.06
681.813	1251.82
682.003	1227.25
682.193	1286.64
682.383	1235.44
682.573	1309.16
682.764	1282.54
682.954	1233.39
683.144	1255.92
683.334	1323.5
683.524	1249.77
683.714	1262.06
683.904	1313.26
684.094	1358.32
684.284	1223.15
684.474	1219.05
684.664	1315.31
684.854	1206.77
685.044	1219.05
685.234	1333.74
685.424	1276.4
685.614	1214.96
685.804	1233.39
685.994	1163.76
686.184	1378.79
686.374	1294.83
686.564	1239.53
686.753	1319.4
686.943	1225.2
687.133	1321.45
687.323	1225.2
687.513	1192.43
687.702	1243.63
687.892	1300.97
688.082	1241.58
688.272	1190.38
688.461	1212.91
688.651	1350.12
688.841	1233.39
689.03	1300.97
689.22	1157.61
689.41	1284.59
689.599	1169.9
689.789	1235.44
689.979	1208.81
690.168	1264.11
690.358	1210.86
690.547	1165.81
690.737	1206.77
690.926	1221.1
691.116	1163.76
691.305	1313.26
691.495	1186.29
691.684	1188.33
691.874	1251.82
692.063	1253.87
692.252	1239.53
692.442	1210.86
692.631	1231.34
692.82	1272.3
693.01	1130.99
693.199	1257.96
693.388	1133.04
693.578	1196.53
693.767	1270.25
693.956	1171.95
694.146	1196.53
694.335	1116.65
694.524	1241.58
694.713	1243.63
694.902	1210.86
695.092	1245.68
695.281	1212.91
695.47	1118.7
695.659	1128.94
695.848	1190.38
696.037	1196.53
696.226	1178.09
696.415	1165.81
696.604	1171.95
696.793	1106.42
696.982	1110.51
697.171	1221.1
697.36	1219.05
697.549	1159.66
697.738	1188.33
697.927	1151.47
698.116	1204.72
698.305	1116.65
698.494	1149.42
698.683	1157.61
698.872	1163.76
699.061	1182.19
699.25	1247.72
699.438	1153.52
699.627	1079.79
699.816	1208.81
700.005	1096.18
700.193	1200.62
700.382	1145.33
700.571	1145.33
700.76	1182.19
700.948	1198.57
701.137	1116.65
701.326	1034.74
701.514	1096.18
701.703	1196.53
701.892	1145.33
702.08	1102.32
702.269	1130.99
702.457	1053.17
702.646	1184.24
702.834	1163.76
703.023	1069.55
703.212	1118.7
703.4	1165.81
703.589	1026.54
703.777	1128.94
703.965	1178.09
704.154	1182.19
704.342	1112.56
704.531	1176.05
704.719	1087.98
704.907	1171.95
705.096	1155.57
705.284	1075.7
705.472	1157.61
705.661	1055.22
705.849	1135.09
706.037	1171.95
706.226	1135.09
706.414	1106.42
706.602	1124.85
706.79	1137.13
706.979	1083.89
707.167	1157.61
707.355	1069.55
707.543	1159.66
707.731	1120.75
707.919	1092.08
708.107	1102.32
708.296	1130.99
708.484	1016.3
708.672	1096.18
708.86	1083.89
709.048	1049.07
709.236	1114.61
709.424	1014.26
709.612	1085.94
709.8	1083.89
709.988	1008.11
710.176	1067.5
710.364	1198.57
710.551	948.72
710.739	1059.31
710.927	1026.54
711.115	1018.35
711.303	1024.5
711.491	983.54
711.679	989.68
711.866	1092.08
712.054	1145.33
712.242	1016.3
712.43	961.01
712.617	1038.83
712.805	911.86
712.993	1067.5
713.181	1044.98
713.368	1071.6
713.556	969.2
713.744	1079.79
713.931	1147.37
714.119	1083.89
714.306	1028.59
714.494	1032.69
714.682	1094.13
714.869	989.68
715.057	1008.11
715.244	1022.45
715.432	985.58
715.619	936.43
715.807	1063.41
715.994	1059.31
716.182	954.87
716.369	1010.16
716.556	981.49
716.744	1020.4
716.931	868.85
717.119	979.44
717.306	928.24
717.493	965.11
717.681	930.29
717.868	999.92
718.055	1030.64
718.242	993.78
718.43	897.52
718.617	940.53
718.804	985.58
718.991	995.82
719.179	1038.83
719.366	899.57
719.553	874.99
719.74	983.54
719.927	938.48
720.114	932.34
720.301	936.43
720.488	907.76
720.676	940.53
720.863	981.49
721.05	967.15
721.237	995.82
721.424	965.11
721.611	907.76
721.798	848.37
721.985	899.57
722.172	909.81
722.358	891.38
722.545	930.29
722.732	827.89
722.919	850.42
723.106	926.19
723.293	977.39
723.48	928.24
723.667	854.51
723.853	852.47
724.04	956.91
724.227	922.1
724.414	926.19
724.6	788.98
724.787	770.55
724.974	909.81
725.161	961.01
725.347	850.42
725.534	877.04
725.72	924.15
725.907	885.23
726.094	842.23
726.28	956.91
726.467	856.56
726.653	907.76
726.84	850.42
727.027	924.15
727.213	924.15
727.4	782.84
727.586	926.19
727.773	948.72
727.959	834.04
728.145	850.42
728.332	866.8
728.518	913.91
728.705	922.1
728.891	840.18
729.077	834.04
729.264	881.14
729.45	920.05
729.636	942.58
729.823	911.86
730.009	844.28
730.195	834.04
730.382	924.15
730.568	762.36
730.754	891.38
730.94	813.56
731.126	862.71
731.313	827.89
731.499	915.95
731.685	877.04
731.871	784.88
732.057	846.32
732.243	911.86
732.429	831.99
732.615	862.71
732.801	821.75
732.987	813.56
733.173	889.33
733.359	809.46
733.545	827.89
733.731	799.22
733.917	840.18
734.103	885.23
734.289	844.28
734.475	752.12
734.661	852.47
734.847	821.75
735.033	848.37
735.219	858.61
735.404	831.99
735.59	776.69
735.776	784.88
735.962	840.18
736.148	774.64
736.333	829.94
736.519	817.65
736.705	805.36
736.89	858.61
737.076	717.3
737.262	821.75
737.447	799.22
737.633	735.73
737.819	731.64
738.004	784.88
738.19	809.46
738.375	928.24
738.561	815.6
738.747	817.65
738.932	793.08
739.118	811.51
739.303	825.84
739.489	850.42
739.674	801.27
739.859	807.41
740.045	815.6
740.23	778.74
740.416	745.97
740.601	825.84
740.786	784.88
740.972	719.35
741.157	836.08
741.342	766.45
741.528	752.12
741.713	735.73
741.898	705.01
742.084	760.31
742.269	739.83
742.454	782.84
742.639	776.69
742.824	770.55
743.01	672.25
743.195	788.98
743.38	752.12
743.565	711.16
743.75	735.73
743.935	659.96
744.12	705.01
744.305	698.87
744.49	762.36
744.675	762.36
744.86	702.97
745.045	698.87
745.23	731.64
745.415	637.43
745.6	676.34
745.785	698.87
745.97	643.57
746.155	745.97
746.34	670.2
746.525	709.11
746.71	692.73
746.895	702.97
747.079	653.81
747.264	700.92
747.449	731.64
747.634	690.68
747.819	621.05
748.003	590.33
748.188	567.8
748.373	678.39
748.557	623.09
748.742	653.81
748.927	653.81
749.111	600.57
749.296	684.53
749.481	575.99
749.665	608.76
749.85	662.01
750.034	612.85
750.219	621.05
750.404	580.09
750.588	559.61
750.773	643.57
750.957	680.44
751.141	549.37
751.326	690.68
751.51	565.75
751.695	657.91
751.879	522.74
752.064	530.94
752.248	580.09
752.432	565.75
752.617	520.7
752.801	479.74
752.985	543.22
753.17	483.83
753.354	526.84
753.538	664.05
753.722	547.32
753.907	518.65
754.091	522.74
754.275	569.85
754.459	492.02
754.643	512.5
754.828	571.9
755.012	512.5
755.196	481.78
755.38	451.07
755.564	522.74
755.748	532.98
755.932	520.7
756.116	477.69
756.3	403.96
756.484	500.22
756.668	522.74
756.852	463.35
757.036	459.26
757.22	475.64
757.404	459.26
757.588	416.25
757.772	516.6
757.956	473.59
758.14	416.25
758.323	473.59
758.507	508.41
758.691	526.84
758.875	432.63
759.059	489.98
759.242	403.96
759.426	397.82
759.61	412.15
759.794	510.46
759.977	422.39
760.161	432.63
760.345	481.78
760.528	465.4
760.712	475.64
760.895	500.22
761.079	461.3
761.263	432.63
761.446	420.35
761.63	383.48
761.813	412.15
761.997	395.77
762.18	420.35
762.364	393.72
762.547	401.91
762.731	467.45
762.914	367.1
763.098	373.24
763.281	395.77
763.464	383.48
763.648	444.92
763.831	430.59
764.015	338.43
764.198	324.09
764.381	401.91
764.564	356.86
764.748	383.48
764.931	449.02
765.114	387.58
765.297	350.71
765.481	297.47
765.664	424.44
765.847	311.8
766.03	365.05
766.213	397.82
766.397	328.19
766.58	352.76
766.763	354.81
766.946	320
767.129	317.95
767.312	299.52
767.495	367.1
767.678	393.72
767.861	399.87
768.044	285.18
768.227	334.33
768.41	283.13
768.593	338.43
768.776	293.37
768.959	268.8
769.142	352.76
769.324	426.49
769.507	375.29
769.69	338.43
769.873	328.19
770.056	371.19
770.239	399.87
770.421	350.71
770.604	293.37
770.787	295.42
770.97	348.67
771.152	311.8
771.335	276.99
771.518	326.14
771.7	387.58
771.883	299.52
772.066	320
772.248	281.08
772.431	295.42
772.613	334.33
772.796	258.56
772.978	342.52
773.161	332.28
773.343	330.23
773.526	317.95
773.708	270.84
773.891	281.08
774.073	367.1
774.256	272.89
774.438	320
774.621	238.08
774.803	344.57
774.985	276.99
775.168	276.99
775.35	256.51
775.532	297.47
775.715	211.45
775.897	254.46
776.079	256.51
776.261	283.13
776.444	254.46
776.626	272.89
776.808	225.79
776.99	309.76
777.173	272.89
777.355	303.61
777.537	223.74
777.719	281.08
777.901	244.22
778.083	150.01
778.265	274.94
778.447	244.22
778.629	197.12
778.811	252.41
778.993	203.26
779.175	299.52
779.357	274.94
779.539	182.78
779.721	227.84
779.903	170.49
780.085	166.4
780.267	209.4
780.449	246.27
780.631	274.94
780.812	182.78
780.994	213.5
781.176	227.84
781.358	143.87
781.54	186.88
781.721	285.18
781.903	160.25
782.085	152.06
782.267	244.22
782.448	203.26
782.63	166.4
782.812	227.84
782.993	217.6
783.175	223.74
783.357	256.51
783.538	285.18
783.72	180.73
783.901	154.11
784.083	188.93
784.264	174.59
784.446	121.34
784.627	107.01
784.809	195.07
784.99	238.08
785.172	227.84
785.353	160.25
785.535	162.3
785.716	225.79
785.897	174.59
786.079	201.21
786.26	229.88
786.441	111.1
786.623	141.82
786.804	141.82
786.985	125.44
787.167	84.48
787.348	162.3
787.529	170.49
787.71	137.73
787.891	156.16
788.073	139.77
788.254	178.69
788.435	172.54
788.616	180.73
788.797	199.16
788.978	121.34
789.159	160.25
789.34	178.69
789.522	84.48
789.703	162.3
789.884	221.69
790.065	219.64
790.246	100.86
790.427	102.91
790.607	182.78
790.788	158.21
790.969	207.36
791.15	145.92
791.331	168.45
791.512	133.63
791.693	166.4
791.874	86.53
792.054	154.11
792.235	143.87
792.416	61.95
792.597	29.18
792.778	152.06
792.958	182.78
793.139	139.77
793.32	80.38
793.5	133.63
793.681	109.05
793.862	98.81
794.042	215.55
794.223	100.86
794.404	145.92
794.584	135.68
794.765	193.02
794.945	113.15
795.126	168.45
795.306	80.38
795.487	80.38
795.667	154.11
795.848	174.59
796.028	113.15
796.209	172.54
796.389	111.1
796.57	109.05
796.75	74.24
796.93	111.1
797.111	64
797.291	125.44
797.471	86.53
797.652	152.06
797.832	109.05
798.012	133.63
798.192	111.1
798.373	82.43
798.553	43.52
798.733	154.11
798.913	121.34
799.093	88.57
799.274	53.76
799.454	184.83
799.634	70.14
799.814	129.53
799.994	88.57
800.174	131.58
800.354	76.29
800.534	139.77
800.714	82.43
800.894	139.77
801.074	47.62
801.254	37.38
801.434	162.3
801.614	57.86
801.794	137.73
801.974	291.32
802.154	49.66
802.334	80.38
802.514	70.14
802.693	14.85
802.873	127.49
803.053	111.1
803.233	59.9
803.413	188.93
803.592	41.47
803.772	68.09
803.952	61.95
804.131	113.15
804.311	115.2
804.491	152.06
804.67	98.81
804.85	127.49
805.03	82.43
805.209	96.77
805.389	76.29
805.568	154.11
805.748	82.43
805.928	82.43
806.107	94.72
806.287	121.34
806.466	25.09
806.646	88.57
806.825	66.05
807.004	100.86
807.184	104.96
807.363	20.99
807.543	111.1
807.722	78.33
807.901	119.29
808.081	147.97
808.26	-13.82
808.439	113.15
808.619	41.47
808.798	109.05
808.977	45.57
809.156	82.43
809.336	59.9
809.515	111.1
809.694	61.95
809.873	20.99
810.052	55.81
810.231	59.9
810.411	92.67
810.59	74.24
810.769	45.57
810.948	82.43
811.127	92.67
811.306	16.9
811.485	47.62
811.664	35.33
811.843	51.71
812.022	94.72
812.201	53.76
812.38	80.38
812.559	31.23
812.737	31.23
812.916	74.24
813.095	55.81
813.274	47.62
813.453	51.71
813.632	68.09
813.811	131.58
813.989	80.38
814.168	51.71
814.347	23.04
814.526	0.51
814.704	86.53
814.883	55.81
815.062	31.23
815.24	90.62
815.419	16.9
815.598	39.42
815.776	29.18
815.955	84.48
816.133	55.81
816.312	92.67
816.49	57.86
816.669	82.43
816.847	12.8
817.026	-1.54
817.204	-7.68
817.383	-15.87
817.561	64
817.74	66.05
817.918	109.05
818.097	59.9
818.275	25.09
818.453	-7.68
818.632	23.04
818.81	72.19
818.988	66.05
819.167	61.95
819.345	41.47
819.523	55.81
819.701	47.62
819.879	84.48
820.058	55.81
820.236	47.62
820.414	39.42
820.592	55.81
820.77	23.04
820.948	70.14
821.127	4.61
821.305	64
821.483	6.66
821.661	115.2
821.839	-34.3
822.017	25.09
822.195	43.52
822.373	66.05
822.551	-1.54
822.729	88.57
822.907	31.23
823.085	74.24
823.262	29.18
823.44	55.81
823.618	-28.16
823.796	49.66
823.974	80.38
824.152	55.81
824.329	57.86
824.507	-69.12
824.685	72.19
824.863	18.94
825.04	104.96
825.218	4.61
825.396	55.81
825.574	61.95
825.751	70.14
825.929	14.85
826.107	-40.45
826.284	20.99
826.462	-71.17
826.639	35.33
826.817	61.95
826.994	16.9
827.172	27.14
827.349	41.47
827.527	-3.58
827.704	117.25
827.882	39.42
828.059	16.9
828.237	27.14
828.414	43.52
828.591	4.61
828.769	43.52
828.946	-9.73
829.124	41.47
829.301	64
829.478	27.14
829.655	72.19
829.833	102.91
830.01	33.28
830.187	-26.11
830.364	-32.26
830.542	12.8
830.719	-1.54
830.896	104.96
831.073	55.81
831.25	-11.78
831.427	39.42
831.604	37.38
831.782	37.38
831.959	16.9
832.136	-24.06
832.313	16.9
832.49	29.18
832.667	76.29
832.844	37.38
833.021	80.38
833.198	29.18
833.374	49.66
833.551	64
833.728	39.42
833.905	43.52
834.082	-17.92
834.259	25.09
834.436	23.04
834.612	-13.82
834.789	8.7
834.966	68.09
835.143	92.67
835.319	59.9
835.496	64
835.673	16.9
835.85	33.28
836.026	39.42
836.203	55.81
836.38	-1.54
836.556	12.8
836.733	18.94
836.909	35.33
837.086	35.33
837.262	-5.63
837.439	57.86
837.616	-11.78
837.792	29.18
837.968	55.81
838.145	80.38
838.321	-30.21
838.498	-22.02
838.674	80.38
838.851	29.18
839.027	23.04
839.203	41.47
839.38	41.47
839.556	57.86
839.732	139.77
839.909	23.04
840.085	8.7
840.261	43.52
840.437	66.05
840.614	20.99
840.79	96.77
840.966	29.18
841.142	14.85
841.318	20.99
841.494	94.72
841.671	43.52
841.847	-22.02
842.023	66.05
842.199	53.76
842.375	23.04
842.551	23.04
842.727	41.47
842.903	4.61
843.079	-17.92
843.255	-1.54
843.431	23.04
843.607	33.28
843.783	55.81
843.959	14.85
844.134	49.66
844.31	23.04
844.486	64
844.662	-5.63
844.838	29.18
845.013	27.14
845.189	64
845.365	4.61
845.541	27.14
845.716	53.76
845.892	80.38
846.068	31.23
846.244	20.99
846.419	90.62
846.595	14.85
846.77	8.7
846.946	33.28
847.122	35.33
847.297	31.23
847.473	10.75
847.648	-5.63
847.824	-17.92
847.999	23.04
848.175	39.42
848.35	74.24
848.526	29.18
848.701	55.81
848.876	104.96
849.052	68.09
849.227	53.76
849.403	16.9
849.578	6.66
849.753	-1.54
849.929	35.33
850.104	-56.83
850.279	0.51
850.454	33.28
850.63	47.62
850.805	-17.92
850.98	-26.11
851.155	-11.78
851.33	64
851.505	-28.16
851.681	55.81
851.856	35.33
852.031	18.94
852.206	0.51
852.381	23.04
852.556	6.66
852.731	27.14
852.906	18.94
853.081	49.66
853.256	78.33
853.431	-11.78
853.606	-5.63
853.781	4.61
853.956	-56.83
854.131	18.94
854.305	43.52
854.48	20.99
854.655	27.14
854.83	49.66
855.005	-3.58
855.18	35.33
855.354	4.61
855.529	-19.97
855.704	6.66
855.879	53.76
856.053	8.7
856.228	121.34
856.403	-13.82
856.577	45.57
856.752	-34.3
856.926	-36.35
857.101	47.62
857.276	43.52
857.45	6.66
857.625	-22.02
857.799	-17.92
857.974	-38.4
858.148	29.18
858.323	2.56
858.497	23.04
858.672	33.28
858.846	-13.82
859.02	57.86
859.195	0.51
859.369	4.61
859.543	-22.02
859.718	23.04
859.892	-30.21
860.066	27.14
860.241	27.14
860.415	8.7
860.589	33.28
860.763	25.09
860.938	-75.26
861.112	18.94
861.286	12.8
861.46	84.48
861.634	10.75
861.808	-60.93
861.982	33.28
862.157	20.99
862.331	-11.78
862.505	-9.73
862.679	0.51
862.853	84.48
863.027	-19.97
863.201	-22.02
863.375	10.75
863.549	47.62
863.722	45.57
863.896	88.57
864.07	33.28
864.244	61.95
864.418	-17.92
864.592	18.94
864.766	-9.73
864.939	-13.82
865.113	61.95
865.287	35.33
865.461	-34.3
865.634	41.47
865.808	-17.92
865.982	-7.68
866.156	10.75
866.329	-24.06
866.503	-26.11
866.676	37.38
866.85	70.14
867.024	31.23
867.197	4.61
867.371	-34.3
867.544	-52.74
867.718	74.24
867.891	-1.54
868.065	33.28
868.238	-38.4
868.412	-54.78
868.585	-26.11
868.759	16.9
868.932	33.28
869.105	-30.21
869.279	18.94
869.452	64
869.625	31.23
869.799	-9.73
869.972	-52.74
870.145	35.33
870.319	0.51
870.492	-11.78
870.665	0.51
870.838	-1.54
871.011	-22.02
871.185	16.9
871.358	18.94
871.531	-15.87
871.704	23.04
871.877	43.52
872.05	64
872.223	8.7
872.396	-11.78
872.569	-1.54
872.742	2.56
872.915	61.95
873.088	37.38
873.261	-7.68
873.434	86.53
873.607	70.14
873.78	27.14
873.953	-54.78
874.126	-56.83
874.299	92.67
874.471	29.18
874.644	-75.26
874.817	33.28
874.99	18.94
875.163	-9.73
875.335	-50.69
875.508	61.95
875.681	64
875.853	-38.4
876.026	25.09
876.199	-75.26
876.371	61.95
876.544	-40.45
876.717	33.28
876.889	-26.11
877.062	41.47
877.234	31.23
877.407	55.81
877.579	-7.68
877.752	-9.73
877.924	-1.54
878.097	2.56
878.269	4.61
878.442	-15.87
878.614	27.14
878.786	64
878.959	-3.58
879.131	20.99
879.303	-48.64
879.476	-26.11
879.648	37.38
879.82	53.76
879.993	16.9
880.165	76.29
880.337	-13.82
880.509	-5.63
880.681	-13.82
880.854	10.75
881.026	18.94
881.198	-19.97
881.37	39.42
881.542	61.95
881.714	-75.26
881.886	10.75
882.058	72.19
882.23	-13.82
882.402	-32.26
882.574	-17.92
882.746	-32.26
882.918	35.33
883.09	-38.4
883.262	55.81
883.434	-9.73
883.606	-13.82
883.778	-19.97
883.95	-17.92
884.122	0.51
884.293	-5.63
884.465	16.9
884.637	45.57
884.809	-22.02
884.98	6.66
885.152	-3.58
885.324	76.29
885.496	-7.68
885.667	76.29
885.839	64
886.011	25.09
886.182	39.42
886.354	-17.92
886.525	27.14
886.697	55.81
886.869	51.71
887.04	31.23
887.212	47.62
887.383	64
887.555	47.62
887.726	-36.35
887.897	23.04
888.069	-73.21
888.24	0.51
888.412	78.33
888.583	33.28
888.754	27.14
888.926	18.94
889.097	45.57
889.268	18.94
889.44	57.86
889.611	-26.11
889.782	10.75
889.953	70.14
890.125	29.18
890.296	43.52
890.467	8.7
890.638	10.75
890.809	-1.54
890.98	6.66
891.151	57.86
891.323	39.42
891.494	-44.54
891.665	-1.54
891.836	16.9
892.007	-54.78
892.178	43.52
892.349	27.14
892.52	-3.58
892.691	-7.68
892.862	-1.54
893.032	-40.45
893.203	-22.02
893.374	57.86
893.545	-24.06
893.716	-28.16
893.887	-5.63
894.057	-9.73
894.228	-46.59
894.399	10.75
894.57	-11.78
894.74	47.62
894.911	12.8
895.082	-1.54
895.253	8.7
895.423	70.14
895.594	-52.74
895.764	12.8
895.935	18.94
896.106	-65.02
896.276	-44.54
896.447	16.9
896.617	-1.54
896.788	20.99
896.958	23.04
897.129	20.99
897.299	35.33
897.47	8.7
897.64	33.28
897.81	35.33
897.981	59.9
898.151	-9.73
898.322	-15.87
898.492	-60.93
898.662	20.99
898.832	49.66
899.003	18.94
899.173	47.62
899.343	-9.73
899.513	-56.83
