Data from USB4F104151__96__13-00-12-298.txt Node

Date: Fri Mar 14 13:00:12 EDT 2025
User: louis
Spectrometer: USB4F10415
Trigger mode: 4
Integration Time (sec): 1.000000E-2
Scans to average: 1
Electric dark correction enabled: true
Nonlinearity correction enabled: false
Boxcar width: 0
XAxis mode: Wavelengths
Number of Pixels in Spectrum: 3648
>>>>>Begin Spectral Data<<<<<
178.204	-33.62
178.424	-33.62
178.644	-33.62
178.864	-76.63
179.084	-76.63
179.304	13.48
179.524	25.77
179.744	-21.33
179.964	-27.48
180.184	56.49
180.404	5.29
180.624	-45.91
180.844	-47.96
181.064	-19.29
181.283	21.67
181.503	15.53
181.723	23.72
181.943	21.67
182.163	-11.09
182.383	46.25
182.602	-7
182.822	42.15
183.042	-64.34
183.262	-23.38
183.482	-7
183.701	27.82
183.921	13.48
184.141	-21.33
184.361	85.16
184.58	64.68
184.8	3.24
185.02	36.01
185.239	46.25
185.459	11.43
185.679	54.44
185.898	-41.81
186.118	-4.95
186.338	-13.14
186.557	5.29
186.777	-37.72
186.997	1.19
187.216	13.48
187.436	7.34
187.655	44.2
187.875	-11.09
188.095	38.06
188.314	5.29
188.534	38.06
188.753	15.53
188.973	17.58
189.192	33.96
189.412	11.43
189.631	50.35
189.851	5.29
190.07	62.63
190.29	15.53
190.509	5.29
190.729	44.2
190.948	-39.76
191.168	76.97
191.387	31.91
191.607	-21.33
191.826	27.82
192.045	21.67
192.265	48.3
192.484	-19.29
192.704	33.96
192.923	7.34
193.142	46.25
193.362	-7
193.581	83.11
193.8	68.78
194.02	13.48
194.239	56.49
194.458	85.16
194.678	3.24
194.897	27.82
195.116	29.87
195.335	-13.14
195.555	17.58
195.774	13.48
195.993	29.87
196.212	36.01
196.432	-2.9
196.651	70.83
196.87	-37.72
197.089	-19.29
197.308	9.39
197.528	7.34
197.747	-43.86
197.966	-43.86
198.185	-25.43
198.404	-27.48
198.623	17.58
198.842	-41.81
199.062	-17.24
199.281	74.92
199.5	-15.19
199.719	27.82
199.938	-7
200.157	81.07
200.376	5.29
200.595	23.72
200.814	31.91
201.033	44.2
201.252	-62.29
201.471	5.29
201.69	-31.57
201.909	105.64
202.128	38.06
202.347	9.39
202.566	36.01
202.785	-0.85
203.004	56.49
203.223	62.63
203.442	-4.95
203.661	-33.62
203.879	-68.44
204.098	25.77
204.317	-50
204.536	76.97
204.755	68.78
204.974	60.59
205.193	7.34
205.411	93.35
205.63	5.29
205.849	-9.05
206.068	-68.44
206.287	-0.85
206.505	-13.14
206.724	70.83
206.943	-15.19
207.162	33.96
207.381	-9.05
207.599	23.72
207.818	11.43
208.037	44.2
208.255	44.2
208.474	44.2
208.693	3.24
208.911	66.73
209.13	21.67
209.349	58.54
209.567	33.96
209.786	-13.14
210.005	-11.09
210.223	3.24
210.442	62.63
210.661	11.43
210.879	1.19
211.098	115.88
211.316	72.87
211.535	31.91
211.753	29.87
211.972	9.39
212.191	3.24
212.409	33.96
212.628	27.82
212.846	29.87
213.065	5.29
213.283	48.3
213.502	9.39
213.72	-54.1
213.938	38.06
214.157	5.29
214.375	-19.29
214.594	5.29
214.812	38.06
215.031	-31.57
215.249	36.01
215.467	3.24
215.686	13.48
215.904	93.35
216.122	36.01
216.341	21.67
216.559	1.19
216.778	52.39
216.996	111.78
217.214	87.21
217.432	87.21
217.651	38.06
217.869	-66.39
218.087	-15.19
218.306	36.01
218.524	11.43
218.742	-39.76
218.96	89.26
219.179	29.87
219.397	19.63
219.615	62.63
219.833	25.77
220.051	13.48
220.27	-45.91
220.488	21.67
220.706	-21.33
220.924	7.34
221.142	-7
221.36	-17.24
221.578	15.53
221.796	40.11
222.015	-13.14
222.233	17.58
222.451	46.25
222.669	-15.19
222.887	31.91
223.105	42.15
223.323	-19.29
223.541	-62.29
223.759	-39.76
223.977	1.19
224.195	19.63
224.413	-13.14
224.631	42.15
224.849	1.19
225.067	60.59
225.285	-37.72
225.503	66.73
225.721	-37.72
225.939	13.48
226.157	3.24
226.375	44.2
226.592	-0.85
226.81	31.91
227.028	17.58
227.246	-11.09
227.464	54.44
227.682	3.24
227.9	19.63
228.117	56.49
228.335	-25.43
228.553	60.59
228.771	13.48
228.989	5.29
229.206	-31.57
229.424	5.29
229.642	1.19
229.86	-27.48
230.077	48.3
230.295	42.15
230.513	27.82
230.731	-13.14
230.948	36.01
231.166	33.96
231.384	33.96
231.601	48.3
231.819	66.73
232.037	-31.57
232.254	-50
232.472	27.82
232.689	19.63
232.907	17.58
233.125	27.82
233.342	33.96
233.56	-29.52
233.777	-35.67
233.995	52.39
234.213	-17.24
234.43	31.91
234.648	132.26
234.865	-41.81
235.083	-39.76
235.3	62.63
235.518	3.24
235.735	70.83
235.953	7.34
236.17	23.72
236.388	9.39
236.605	-15.19
236.822	-11.09
237.04	38.06
237.257	36.01
237.475	-27.48
237.692	27.82
237.909	-23.38
238.127	-41.81
238.344	7.34
238.562	-21.33
238.779	-13.14
238.996	15.53
239.214	15.53
239.431	9.39
239.648	-13.14
239.865	52.39
240.083	-11.09
240.3	15.53
240.517	44.2
240.735	-19.29
240.952	19.63
241.169	13.48
241.386	3.24
241.603	-39.76
241.821	9.39
242.038	-13.14
242.255	-17.24
242.472	36.01
242.689	54.44
242.907	27.82
243.124	38.06
243.341	-41.81
243.558	-68.44
243.775	99.5
243.992	-45.91
244.209	21.67
244.426	101.55
244.643	-21.33
244.86	-4.95
245.078	25.77
245.295	-2.9
245.512	17.58
245.729	-31.57
245.946	21.67
246.163	-13.14
246.38	9.39
246.597	-17.24
246.814	72.87
247.031	31.91
247.248	25.77
247.464	103.59
247.681	60.59
247.898	42.15
248.115	42.15
248.332	23.72
248.549	36.01
248.766	15.53
248.983	27.82
249.2	81.07
249.417	33.96
249.633	-39.76
249.85	27.82
250.067	27.82
250.284	13.48
250.501	-4.95
250.717	56.49
250.934	-2.9
251.151	15.53
251.368	-11.09
251.585	-4.95
251.801	46.25
252.018	36.01
252.235	19.63
252.451	13.48
252.668	-37.72
252.885	-19.29
253.102	54.44
253.318	3.24
253.535	7.34
253.752	48.3
253.968	11.43
254.185	-27.48
254.401	-37.72
254.618	-0.85
254.835	31.91
255.051	9.39
255.268	11.43
255.484	-45.91
255.701	29.87
255.917	-0.85
256.134	66.73
256.351	-29.52
256.567	7.34
256.784	21.67
257	-25.43
257.217	-9.05
257.433	-0.85
257.65	44.2
257.866	-11.09
258.082	-15.19
258.299	9.39
258.515	29.87
258.732	5.29
258.948	-35.67
259.165	-35.67
259.381	-0.85
259.597	15.53
259.814	-50
260.03	36.01
260.246	11.43
260.463	31.91
260.679	-2.9
260.895	3.24
261.112	103.59
261.328	-37.72
261.544	36.01
261.761	7.34
261.977	21.67
262.193	83.11
262.409	-7
262.626	56.49
262.842	-21.33
263.058	-54.1
263.274	15.53
263.49	5.29
263.707	40.11
263.923	-29.52
264.139	54.44
264.355	-2.9
264.571	44.2
264.787	93.35
265.004	25.77
265.22	15.53
265.436	15.53
265.652	7.34
265.868	40.11
266.084	44.2
266.3	66.73
266.516	-0.85
266.732	70.83
266.948	33.96
267.164	29.87
267.38	38.06
267.596	-19.29
267.812	36.01
268.028	126.12
268.244	-7
268.46	7.34
268.676	3.24
268.892	-2.9
269.108	27.82
269.324	44.2
269.54	-9.05
269.756	54.44
269.972	-37.72
270.188	11.43
270.403	13.48
270.619	-2.9
270.835	5.29
271.051	42.15
271.267	-35.67
271.483	-21.33
271.698	1.19
271.914	-9.05
272.13	42.15
272.346	-2.9
272.562	-56.15
272.777	99.5
272.993	60.59
273.209	27.82
273.425	29.87
273.64	3.24
273.856	27.82
274.072	62.63
274.287	117.93
274.503	79.02
274.719	56.49
274.934	79.02
275.15	36.01
275.366	-9.05
275.581	15.53
275.797	-4.95
276.012	31.91
276.228	15.53
276.444	27.82
276.659	91.31
276.875	19.63
277.09	-21.33
277.306	50.35
277.521	62.63
277.737	-13.14
277.952	5.29
278.168	42.15
278.383	27.82
278.599	48.3
278.814	76.97
279.03	13.48
279.245	97.45
279.461	60.59
279.676	58.54
279.892	1.19
280.107	-7
280.322	38.06
280.538	101.55
280.753	-25.43
280.969	58.54
281.184	23.72
281.399	23.72
281.615	48.3
281.83	36.01
282.045	-4.95
282.26	-17.24
282.476	-25.43
282.691	-13.14
282.906	83.11
283.122	15.53
283.337	11.43
283.552	23.72
283.767	50.35
283.983	52.39
284.198	-45.91
284.413	48.3
284.628	52.39
284.843	85.16
285.058	-72.53
285.274	60.59
285.489	60.59
285.704	25.77
285.919	36.01
286.134	85.16
286.349	62.63
286.564	36.01
286.779	62.63
286.995	89.26
287.21	15.53
287.425	56.49
287.64	36.01
287.855	54.44
288.07	-60.24
288.285	-62.29
288.5	-33.62
288.715	60.59
288.93	38.06
289.145	21.67
289.36	103.59
289.575	-62.29
289.79	15.53
290.004	105.64
290.219	46.25
290.434	60.59
290.649	-13.14
290.864	19.63
291.079	52.39
291.294	29.87
291.509	29.87
291.724	-29.52
291.938	-41.81
292.153	68.78
292.368	19.63
292.583	11.43
292.798	126.12
293.012	87.21
293.227	17.58
293.442	13.48
293.657	29.87
293.871	81.07
294.086	19.63
294.301	62.63
294.516	-29.52
294.73	56.49
294.945	-7
295.16	-41.81
295.374	40.11
295.589	46.25
295.804	-13.14
296.018	54.44
296.233	115.88
296.447	-19.29
296.662	25.77
296.877	107.69
297.091	25.77
297.306	3.24
297.52	-7
297.735	19.63
297.949	42.15
298.164	33.96
298.378	64.68
298.593	-9.05
298.807	-4.95
299.022	17.58
299.236	74.92
299.451	-39.76
299.665	-33.62
299.88	38.06
300.094	56.49
300.309	72.87
300.523	-70.48
300.737	85.16
300.952	-52.05
301.166	-0.85
301.381	23.72
301.595	23.72
301.809	-27.48
302.024	-11.09
302.238	21.67
302.452	27.82
302.667	42.15
302.881	-37.72
303.095	21.67
303.309	64.68
303.524	-2.9
303.738	13.48
303.952	23.72
304.166	46.25
304.381	-60.24
304.595	29.87
304.809	5.29
305.023	5.29
305.237	1.19
305.452	29.87
305.666	-31.57
305.88	9.39
306.094	31.91
306.308	54.44
306.522	42.15
306.736	-2.9
306.95	60.59
307.164	56.49
307.379	9.39
307.593	83.11
307.807	23.72
308.021	11.43
308.235	74.92
308.449	68.78
308.663	29.87
308.877	-29.52
309.091	15.53
309.305	-29.52
309.519	-13.14
309.733	27.82
309.947	-31.57
310.161	29.87
310.374	3.24
310.588	40.11
310.802	68.78
311.016	31.91
311.23	31.91
311.444	64.68
311.658	7.34
311.872	52.39
312.085	126.12
312.299	31.91
312.513	27.82
312.727	38.06
312.941	-33.62
313.154	111.78
313.368	15.53
313.582	3.24
313.796	-11.09
314.009	21.67
314.223	29.87
314.437	113.83
314.651	11.43
314.864	27.82
315.078	31.91
315.292	17.58
315.505	-50
315.719	7.34
315.933	29.87
316.146	19.63
316.36	17.58
316.573	46.25
316.787	91.31
317.001	31.91
317.214	111.78
317.428	21.67
317.641	31.91
317.855	64.68
318.068	21.67
318.282	36.01
318.495	46.25
318.709	7.34
318.922	3.24
319.136	85.16
319.349	3.24
319.563	17.58
319.776	-7
319.99	-2.9
320.203	64.68
320.417	97.45
320.63	-29.52
320.843	-13.14
321.057	23.72
321.27	70.83
321.483	21.67
321.697	-0.85
321.91	-9.05
322.124	21.67
322.337	-29.52
322.55	-2.9
322.763	36.01
322.977	68.78
323.19	29.87
323.403	-19.29
323.617	124.07
323.83	87.21
324.043	42.15
324.256	-0.85
324.469	7.34
324.683	42.15
324.896	-9.05
325.109	13.48
325.322	-35.67
325.535	-0.85
325.748	66.73
325.962	5.29
326.175	58.54
326.388	79.02
326.601	13.48
326.814	62.63
327.027	-13.14
327.24	87.21
327.453	-2.9
327.666	62.63
327.879	62.63
328.092	38.06
328.305	50.35
328.518	-17.24
328.731	11.43
328.944	-19.29
329.157	-4.95
329.37	52.39
329.583	85.16
329.796	31.91
330.009	11.43
330.222	17.58
330.435	3.24
330.648	19.63
330.861	13.48
331.073	-17.24
331.286	7.34
331.499	81.07
331.712	-23.38
331.925	38.06
332.138	138.41
332.35	-29.52
332.563	-27.48
332.776	-7
332.989	-9.05
333.202	13.48
333.414	23.72
333.627	38.06
333.84	7.34
334.053	-0.85
334.265	-2.9
334.478	11.43
334.691	-2.9
334.903	13.48
335.116	-4.95
335.329	38.06
335.541	11.43
335.754	66.73
335.966	17.58
336.179	68.78
336.392	-37.72
336.604	23.72
336.817	7.34
337.029	29.87
337.242	-17.24
337.454	9.39
337.667	-9.05
337.88	27.82
338.092	25.77
338.305	48.3
338.517	76.97
338.729	13.48
338.942	23.72
339.154	-17.24
339.367	33.96
339.579	40.11
339.792	-90.96
340.004	70.83
340.217	11.43
340.429	58.54
340.641	56.49
340.854	-43.86
341.066	-50
341.278	58.54
341.491	46.25
341.703	40.11
341.915	27.82
342.128	85.16
342.34	11.43
342.552	-9.05
342.764	44.2
342.977	91.31
343.189	48.3
343.401	46.25
343.613	-4.95
343.826	-15.19
344.038	-43.86
344.25	66.73
344.462	23.72
344.674	-13.14
344.886	-21.33
345.099	23.72
345.311	-13.14
345.523	66.73
345.735	58.54
345.947	60.59
346.159	68.78
346.371	-7
346.583	-37.72
346.795	33.96
347.007	5.29
347.219	79.02
347.431	13.48
347.643	136.36
347.855	-39.76
348.067	76.97
348.279	31.91
348.491	64.68
348.703	7.34
348.915	46.25
349.127	7.34
349.339	87.21
349.551	44.2
349.763	3.24
349.975	-13.14
350.187	60.59
350.399	36.01
350.61	50.35
350.822	33.96
351.034	38.06
351.246	56.49
351.458	44.2
351.669	60.59
351.881	44.2
352.093	27.82
352.305	54.44
352.517	-15.19
352.728	58.54
352.94	72.87
353.152	89.26
353.363	1.19
353.575	54.44
353.787	48.3
353.999	48.3
354.21	76.97
354.422	5.29
354.633	13.48
354.845	11.43
355.057	-13.14
355.268	27.82
355.48	1.19
355.692	29.87
355.903	29.87
356.115	29.87
356.326	-2.9
356.538	38.06
356.749	-0.85
356.961	70.83
357.172	140.46
357.384	-37.72
357.595	46.25
357.807	87.21
358.018	19.63
358.23	-19.29
358.441	42.15
358.653	-19.29
358.864	-21.33
359.075	-7
359.287	13.48
359.498	81.07
359.709	27.82
359.921	46.25
360.132	-15.19
360.344	46.25
360.555	29.87
360.766	19.63
360.977	46.25
361.189	87.21
361.4	36.01
361.611	56.49
361.823	-17.24
362.034	54.44
362.245	42.15
362.456	72.87
362.667	62.63
362.879	25.77
363.09	-4.95
363.301	-7
363.512	-11.09
363.723	52.39
363.935	-0.85
364.146	44.2
364.357	-58.2
364.568	-2.9
364.779	44.2
364.99	68.78
365.201	19.63
365.412	50.35
365.623	31.91
365.834	-17.24
366.045	31.91
366.256	52.39
366.467	21.67
366.678	46.25
366.889	-33.62
367.1	54.44
367.311	-56.15
367.522	46.25
367.733	46.25
367.944	27.82
368.155	46.25
368.366	11.43
368.577	66.73
368.788	58.54
368.999	19.63
369.209	44.2
369.42	23.72
369.631	48.3
369.842	9.39
370.053	56.49
370.264	-4.95
370.474	62.63
370.685	-39.76
370.896	46.25
371.107	56.49
371.317	29.87
371.528	38.06
371.739	66.73
371.95	9.39
372.16	76.97
372.371	7.34
372.582	-39.76
372.792	36.01
373.003	1.19
373.214	36.01
373.424	9.39
373.635	9.39
373.846	17.58
374.056	5.29
374.267	27.82
374.477	29.87
374.688	5.29
374.898	29.87
375.109	17.58
375.319	85.16
375.53	93.35
375.74	-25.43
375.951	54.44
376.161	93.35
376.372	103.59
376.582	31.91
376.793	40.11
377.003	50.35
377.214	3.24
377.424	-13.14
377.635	48.3
377.845	46.25
378.055	13.48
378.266	25.77
378.476	52.39
378.686	3.24
378.897	60.59
379.107	60.59
379.317	36.01
379.528	-15.19
379.738	54.44
379.948	111.78
380.158	-21.33
380.369	40.11
380.579	11.43
380.789	68.78
380.999	21.67
381.21	54.44
381.42	48.3
381.63	-45.91
381.84	87.21
382.05	38.06
382.261	79.02
382.471	72.87
382.681	-37.72
382.891	19.63
383.101	62.63
383.311	-2.9
383.521	60.59
383.731	-43.86
383.941	17.58
384.151	31.91
384.361	-23.38
384.571	-0.85
384.781	64.68
384.991	-9.05
385.201	-0.85
385.411	7.34
385.621	-9.05
385.831	5.29
386.041	-9.05
386.251	62.63
386.461	11.43
386.671	1.19
386.881	66.73
387.091	-78.68
387.301	76.97
387.511	83.11
387.72	46.25
387.93	46.25
388.14	11.43
388.35	62.63
388.56	27.82
388.769	128.17
388.979	72.87
389.189	23.72
389.399	68.78
389.609	13.48
389.818	27.82
390.028	48.3
390.238	7.34
390.447	27.82
390.657	117.93
390.867	60.59
391.076	-37.72
391.286	21.67
391.496	89.26
391.705	54.44
391.915	52.39
392.125	27.82
392.334	36.01
392.544	48.3
392.753	19.63
392.963	46.25
393.172	25.77
393.382	-11.09
393.591	179.37
393.801	-7
394.01	21.67
394.22	19.63
394.429	72.87
394.639	85.16
394.848	33.96
395.058	50.35
395.267	21.67
395.477	-9.05
395.686	72.87
395.895	60.59
396.105	11.43
396.314	62.63
396.524	38.06
396.733	21.67
396.942	-4.95
397.152	40.11
397.361	46.25
397.57	-13.14
397.78	29.87
397.989	3.24
398.198	60.59
398.407	126.12
398.617	85.16
398.826	17.58
399.035	95.4
399.244	85.16
399.453	81.07
399.663	62.63
399.872	107.69
400.081	52.39
400.29	85.16
400.499	72.87
400.708	81.07
400.917	38.06
401.127	29.87
401.336	83.11
401.545	74.92
401.754	130.22
401.963	-9.05
402.172	46.25
402.381	56.49
402.59	115.88
402.799	79.02
403.008	-25.43
403.217	68.78
403.426	91.31
403.635	44.2
403.844	70.83
404.053	115.88
404.262	56.49
404.471	95.4
404.68	44.2
404.888	79.02
405.097	93.35
405.306	56.49
405.515	83.11
405.724	101.55
405.933	136.36
406.142	56.49
406.35	66.73
406.559	152.74
406.768	97.45
406.977	142.5
407.185	56.49
407.394	167.08
407.603	66.73
407.812	101.55
408.02	109.74
408.229	169.13
408.438	177.32
408.646	144.55
408.855	119.98
409.064	152.74
409.272	154.79
409.481	136.36
409.69	76.97
409.898	136.36
410.107	162.98
410.315	117.93
410.524	148.65
410.733	154.79
410.941	193.7
411.15	201.9
411.358	181.42
411.567	208.04
411.775	294.05
411.984	232.62
412.192	263.33
412.401	292.01
412.609	240.81
412.818	216.23
413.026	281.77
413.234	156.84
413.443	289.96
413.651	220.33
413.86	324.77
414.068	275.62
414.276	300.2
414.485	371.88
414.693	455.84
414.901	388.26
415.11	353.45
415.318	412.84
415.526	410.79
415.734	363.69
415.943	533.67
416.151	461.99
416.359	404.64
416.567	445.6
416.776	466.08
416.984	425.12
417.192	496.8
417.4	494.76
417.608	490.66
417.817	550.05
418.025	572.58
418.233	558.24
418.441	613.54
418.649	636.06
418.857	652.45
419.065	631.97
419.273	584.87
419.481	660.64
419.689	740.51
419.897	711.84
420.105	720.03
420.313	740.51
420.521	765.09
420.729	810.14
420.937	820.38
421.145	918.68
421.353	928.92
421.561	984.22
421.769	887.97
421.977	1023.13
422.185	1062.04
422.393	1086.62
422.601	1180.82
422.809	1098.91
423.017	1107.1
423.224	1178.78
423.432	1244.31
423.64	1215.64
423.848	1281.18
424.056	1367.19
424.263	1461.4
424.471	1383.57
424.679	1395.86
424.887	1473.68
425.094	1602.71
425.302	1574.03
425.51	1645.71
425.718	1692.82
425.925	1649.81
426.133	1760.4
426.341	1911.95
426.548	1985.68
426.756	1959.05
426.964	1901.71
427.171	2094.22
427.379	2215.05
427.586	2167.95
427.794	2249.86
428.001	2350.21
428.209	2356.36
428.417	2362.5
428.624	2679.94
428.832	2598.02
429.039	2477.19
429.247	2702.47
429.454	2722.95
429.662	3067
429.869	2677.89
430.076	2937.98
430.284	2921.6
430.491	3081.34
430.699	3333.24
430.906	3193.98
431.114	3357.82
431.321	3361.91
431.528	3527.8
431.736	3701.87
431.943	3878
432.15	3855.47
432.358	3882.1
432.565	4058.22
432.772	3896.43
432.979	4060.27
433.187	4340.84
433.394	4406.38
433.601	4502.63
433.808	4586.6
434.016	4437.09
434.223	4852.83
434.43	5039.2
434.637	4758.63
434.844	5221.47
435.052	5391.45
435.259	5397.59
435.466	5520.47
435.673	5327.96
435.88	5725.27
436.087	5987.41
436.294	5782.61
436.501	6032.46
436.708	6030.41
436.915	6224.97
437.122	6327.37
437.329	6458.44
437.537	6560.84
437.743	6847.55
437.95	6661.19
438.157	7109.69
438.364	7220.28
438.571	7218.24
438.778	7574.58
438.985	7930.93
439.192	7588.92
439.399	8014.9
439.606	7642.17
439.813	8281.13
440.02	8717.35
440.227	8600.62
440.433	8559.66
440.64	8823.84
440.847	8578.09
441.054	8811.56
441.261	9665.56
441.467	9503.77
441.674	9669.66
441.881	9966.61
442.088	10015.76
442.294	9755.67
442.501	10048.53
442.708	10322.96
442.914	10787.85
443.121	11062.27
443.328	10963.97
443.534	11725.82
443.741	11236.35
443.948	11049.99
444.154	12190.7
444.361	11957.24
444.568	12078.07
444.774	12024.82
444.981	12344.3
445.187	12653.55
445.394	12958.69
445.6	13143.01
445.807	14472.14
446.013	13634.52
446.22	13939.67
446.426	14496.72
446.633	14599.12
446.839	14980.04
447.046	14609.36
447.252	15397.82
447.459	15340.48
447.665	15338.43
447.871	16262.07
448.078	16835.5
448.284	15997.88
448.491	16354.23
448.697	17030.05
448.903	17468.32
449.11	17431.46
449.316	17093.54
449.522	17830.81
449.728	17937.3
449.935	18187.16
450.141	17791.9
450.347	18660.24
450.553	17634.21
450.76	18559.89
450.966	18703.25
451.172	18318.23
451.378	19182.47
451.584	19022.73
451.791	19381.12
451.997	19071.88
452.203	19434.37
452.409	19653.5
452.615	19379.07
452.821	18848.65
453.027	18484.11
453.233	19829.63
453.44	18815.88
453.646	18987.91
453.852	19233.67
454.058	19385.22
454.264	18922.38
454.47	19456.9
454.676	18664.33
454.882	19270.53
455.088	17699.74
455.294	18008.98
455.5	18305.94
455.705	18740.11
455.911	17425.31
456.117	17359.78
456.323	17195.94
456.529	16182.2
456.735	16927.66
456.941	16669.61
457.147	16364.46
457.352	15782.84
457.558	15809.47
457.764	15772.6
457.97	15334.34
458.176	15164.36
458.381	14941.13
458.587	14470.09
458.793	14199.76
458.999	13595.61
459.204	14711.75
459.41	14314.45
459.616	13159.39
459.821	13282.27
460.027	13100
460.233	13046.76
460.438	12485.61
460.644	12442.6
460.85	11848.69
461.055	11637.75
461.261	11553.79
461.466	10923.01
461.672	10564.62
461.878	11291.65
462.083	10443.79
462.289	10337.29
462.494	10417.16
462.7	9694.23
462.905	9616.41
463.111	9853.97
463.316	10009.62
463.522	9755.67
463.727	9786.39
463.932	9643.03
464.138	9612.31
464.343	9651.22
464.549	9274.4
464.754	9737.24
464.959	9661.46
465.165	9569.3
465.37	9278.49
465.575	8836.13
465.781	9333.79
465.986	9143.33
466.191	9053.22
466.397	8746.02
466.602	8438.83
466.807	8858.66
467.012	8637.48
467.218	8746.02
467.423	8539.18
467.628	8653.86
467.833	8823.84
468.038	8690.73
468.244	8231.98
468.449	8660.01
468.654	8496.17
468.859	8410.15
469.064	8573.99
469.269	7951.41
469.474	8145.97
469.679	8139.82
469.885	7965.75
470.09	8080.43
470.295	8221.74
470.5	7932.98
470.705	7973.94
470.91	7814.2
471.115	7836.72
471.32	7771.19
471.525	7642.17
471.73	7595.06
471.935	7564.34
472.139	7474.23
472.344	7500.86
472.549	7283.77
472.754	7283.77
472.959	7011.39
473.164	7070.78
473.369	6880.32
473.574	7105.6
473.778	7011.39
473.983	6896.71
474.188	6886.47
474.393	6536.26
474.598	6564.93
474.802	6632.52
475.007	6591.56
475.212	6536.26
475.417	6286.41
475.621	6315.08
475.826	6276.17
476.031	6331.47
476.235	6089.81
476.44	6214.73
476.645	6098
476.849	6313.03
477.054	5954.64
477.259	5917.78
477.463	5850.19
477.668	5723.22
477.872	5778.51
478.077	5774.42
478.282	5690.45
478.486	5749.84
478.691	5680.21
478.895	5577.81
479.1	5631.06
479.304	5721.17
479.509	5393.5
479.713	5428.31
479.918	5100.64
480.122	5221.47
480.326	5397.59
480.531	5403.74
480.735	5352.54
480.94	5215.32
481.144	5356.63
481.348	5225.56
481.553	5248.09
481.757	4988
481.961	5207.13
482.166	5317.72
482.37	5209.18
482.574	5043.29
482.778	5219.42
482.983	5354.58
483.187	5385.3
483.391	5237.85
483.595	5282.91
483.8	5039.2
484.004	5293.15
484.208	5252.19
484.412	5061.73
484.616	5274.71
484.821	5131.36
485.025	5141.6
485.229	5227.61
485.433	5061.73
485.637	5325.91
485.841	5203.04
486.045	5221.47
486.249	5180.51
486.453	5160.03
486.657	5235.8
486.861	5121.12
487.065	5119.07
487.269	5135.45
487.473	5248.09
487.677	5219.42
487.881	5180.51
488.085	5270.62
488.289	5280.86
488.493	5139.55
488.697	5203.04
488.901	5305.43
489.105	5174.36
489.309	5315.67
489.512	5395.54
489.716	5211.23
489.92	5334.11
490.124	5258.33
490.328	5424.22
490.531	5403.74
490.735	5401.69
490.939	5409.88
491.143	5381.21
491.346	5452.89
491.55	5487.7
491.754	5735.51
491.958	5543
492.161	5489.75
492.365	5524.57
492.569	5479.51
492.772	5694.55
492.976	5702.74
493.18	5489.75
493.383	5809.23
493.587	5876.82
493.79	5698.64
493.994	5758.03
494.197	5674.07
494.401	5899.34
494.605	5842
494.808	6042.7
495.012	5911.63
495.215	5901.39
495.419	6181.96
495.622	6132.81
495.825	6124.62
496.029	6130.77
496.232	6368.33
496.436	6372.43
496.639	6433.86
496.843	6546.5
497.046	6779.97
497.249	6548.55
497.453	6718.53
497.656	6687.81
497.859	6888.51
498.063	6904.9
498.266	6900.8
498.469	6888.51
498.673	7187.52
498.876	6999.1
499.079	7230.52
499.282	7072.83
499.485	7472.18
499.689	7586.87
499.892	7513.14
500.095	7607.35
500.298	7939.12
500.501	7752.76
500.705	8098.86
500.908	7871.54
501.111	8090.67
501.314	8121.39
501.517	8338.48
501.72	8332.33
501.923	8414.25
502.126	8625.19
502.329	8754.21
502.532	8913.95
502.735	8856.61
502.938	9196.57
503.141	9067.55
503.344	9165.85
503.547	9092.13
503.75	9419.8
503.953	9679.89
504.156	9694.23
504.359	9702.42
504.562	9905.17
504.765	9989.14
504.968	10071.06
505.17	10312.72
505.373	10030.1
505.576	10488.84
505.779	10490.89
505.982	10785.8
506.185	10970.12
506.387	10933.25
506.59	11191.3
506.793	11148.29
506.996	11168.77
507.198	11750.39
507.401	11574.27
507.604	11703.29
507.807	11965.43
508.009	12100.59
508.212	12248.05
508.415	12336.11
508.617	12485.61
508.82	12581.87
509.022	12606.44
509.225	12921.83
509.428	13087.71
509.63	13116.39
509.833	13417.44
510.035	13544.41
510.238	13489.12
510.44	13835.22
510.643	13941.72
510.845	14035.92
511.048	14175.19
511.25	14150.61
511.453	14261.2
511.655	14965.7
511.858	14795.72
512.06	15014.85
512.262	15096.77
512.465	15162.31
512.667	15340.48
512.87	15678.4
513.072	15643.58
513.274	16067.51
513.477	16169.91
513.679	16282.55
513.881	16348.08
514.084	16659.37
514.286	16743.34
514.488	16784.3
514.69	17333.15
514.893	17343.39
515.095	17281.95
515.297	17765.28
515.499	17599.39
515.701	17867.67
515.904	18250.64
516.106	17916.83
516.308	18377.62
516.51	18652.05
516.712	18742.16
516.914	19069.83
517.116	19278.72
517.318	19374.98
517.52	19323.78
517.722	19671.93
517.925	19843.96
518.127	20026.23
518.329	20222.84
518.531	20026.23
518.733	20796.27
518.935	20763.5
519.136	20763.5
519.338	21160.81
519.54	21396.32
519.742	21390.18
519.944	21644.13
520.146	21965.66
520.348	22152.02
520.55	21969.76
520.752	22248.28
520.954	23102.28
521.155	22526.8
521.357	22977.36
521.559	23028.56
521.761	23399.24
521.963	23255.88
522.164	23837.5
522.366	23894.85
522.568	24171.32
522.77	24003.39
522.971	24824.62
523.173	24142.65
523.375	24449.85
523.576	24748.85
523.778	24601.4
523.98	25045.8
524.181	25205.55
524.383	25330.47
524.584	25662.24
524.786	25555.75
524.988	25627.43
525.189	25672.48
525.391	26194.71
525.592	26458.9
525.794	26186.52
525.995	26413.85
526.197	26434.33
526.398	26641.17
526.6	26759.95
526.801	26479.38
527.003	27007.76
527.204	27376.39
527.406	27239.18
527.607	27241.23
527.808	27429.64
528.01	26909.46
528.211	27333.39
528.412	27745.03
528.614	27816.71
528.815	27734.79
529.016	27986.69
529.218	27685.64
529.419	27915.01
529.62	28078.85
529.822	28146.43
530.023	28277.5
530.224	28101.37
530.425	28046.08
530.626	27927.3
530.828	28074.75
531.029	28539.64
531.23	28195.58
531.431	28353.27
531.632	28433.14
531.833	28900.08
532.035	28668.66
532.236	28744.44
532.437	28824.31
532.638	28955.38
532.839	28781.3
533.04	28594.93
533.241	28422.9
533.442	29127.41
533.643	28930.8
533.844	28920.56
534.045	28914.42
534.246	28789.49
534.447	28895.99
534.648	29262.57
534.849	28848.88
535.05	28842.74
535.251	29276.91
535.451	28617.46
535.652	29299.44
535.853	28766.96
536.054	28934.9
536.255	28926.71
536.456	28828.4
536.657	29102.83
536.857	28961.52
537.058	28773.11
537.259	28949.23
537.46	29006.58
537.66	29180.65
537.861	28996.34
538.062	28580.6
538.263	29002.48
538.463	29125.36
538.664	28838.64
538.865	29123.31
539.065	29477.61
539.266	28766.96
539.466	29164.27
539.667	28988.14
539.868	29326.06
540.068	29383.4
540.269	28764.92
540.469	29190.89
540.67	28680.95
540.87	28955.38
541.071	28852.98
541.271	29493.99
541.472	28900.08
541.672	28971.76
541.873	29190.89
542.073	28459.77
542.274	29264.62
542.474	28838.64
542.675	28750.58
542.875	29295.34
543.075	28998.38
543.276	28771.06
543.476	29213.42
543.676	28584.69
543.877	29100.78
544.077	29061.87
544.277	28893.94
544.478	28367.61
544.678	29022.96
544.878	28709.62
545.078	28799.73
545.279	28715.76
545.479	28963.57
545.679	28996.34
545.879	28928.75
546.079	28930.8
546.28	28855.03
546.48	28680.95
546.68	28926.71
546.88	28705.52
547.08	29102.83
547.28	28785.4
547.48	28564.21
547.68	28953.33
547.88	28639.99
548.081	28795.64
548.281	28910.32
548.481	28945.14
548.681	29238
548.881	28779.25
549.081	28908.27
549.28	28670.71
549.48	28879.6
549.68	28887.79
549.88	29115.12
550.08	28783.35
550.28	29170.41
550.48	28691.19
550.68	28953.33
550.88	28726
551.08	28861.17
551.279	28844.79
551.479	28537.59
551.679	28932.85
551.879	28654.33
552.079	28936.95
552.278	28627.7
552.478	28637.94
552.678	28549.88
552.878	29029.1
553.077	28558.07
553.277	28363.51
553.477	28680.95
553.676	28793.59
553.876	28732.15
554.076	28586.74
554.275	28480.25
554.475	28375.8
554.674	28637.94
554.874	28461.82
555.074	28502.78
555.273	28629.75
555.473	28629.75
555.672	28656.37
555.872	28408.57
556.071	28476.15
556.271	28498.68
556.47	28570.36
556.67	28232.44
556.869	28244.73
557.068	28257.02
557.268	28152.57
557.467	28312.31
557.667	28576.5
557.866	28093.18
558.065	28416.76
558.265	27734.79
558.464	28007.17
558.663	28506.87
558.863	27769.6
559.062	28187.39
559.261	28052.22
559.461	28183.29
559.66	27687.68
559.859	27593.48
560.058	27724.55
560.258	27896.58
560.457	27474.7
560.656	28037.89
560.855	27597.57
561.054	27710.21
561.253	27419.4
561.453	27501.32
561.652	27691.78
561.851	27691.78
562.05	27495.18
562.249	27536.13
562.448	27747.08
562.647	27929.34
562.846	27290.38
563.045	27384.58
563.244	27380.49
563.443	27808.51
563.642	27265.8
563.841	27192.08
564.04	26821.39
564.239	27441.93
564.438	26868.5
564.637	27218.7
564.836	27095.82
565.035	26678.04
565.234	26823.44
565.432	26884.88
565.631	26977.04
565.83	27079.44
566.029	26807.06
566.228	26440.47
566.427	26463
566.625	26405.66
566.824	26252.06
567.023	26626.84
567.222	26008.35
567.42	26520.34
567.619	26274.59
567.818	26194.71
568.016	26096.41
568.215	26448.66
568.414	25996.06
568.612	26508.05
568.811	26104.6
569.01	26080.03
569.208	25709.35
569.407	25895.71
569.605	25533.22
569.804	26073.88
570.002	25678.63
570.201	25553.7
570.4	25617.19
570.598	25543.46
570.797	25330.47
570.995	25772.83
571.193	25115.44
571.392	25355.05
571.59	25211.69
571.789	25195.31
571.987	25054
572.186	24929.07
572.384	24967.98
572.582	25107.24
572.781	24767.28
572.979	24728.37
573.177	24722.23
573.376	24918.83
573.574	24750.9
573.772	24673.07
573.971	24658.74
574.169	24507.19
574.367	24179.51
574.565	24580.92
574.763	24529.72
574.962	24161.08
575.16	23917.37
575.358	24216.38
575.556	23997.24
575.754	24279.86
575.952	23780.16
576.151	24204.09
576.349	23735.1
576.547	23518.02
576.745	23403.33
576.943	23722.82
577.141	23507.78
577.339	23792.45
577.537	23671.62
577.735	23415.62
577.933	23397.19
578.131	23235.4
578.329	23284.55
578.527	23335.75
578.725	22817.61
578.923	23309.13
579.121	23251.78
579.319	23149.39
579.516	23292.74
579.714	23049.03
579.912	22971.21
580.11	22557.52
580.308	22883.15
580.506	22895.44
580.704	22711.12
580.901	22477.65
581.099	22735.7
581.297	22414.16
581.495	22539.09
581.692	22567.76
581.89	22459.22
582.088	22354.77
582.285	22369.11
582.483	22154.07
582.681	22244.18
582.878	22113.11
583.076	21728.1
583.274	22031.19
583.471	21687.14
583.669	21869.4
583.866	21623.65
584.064	21678.94
584.262	21474.15
584.459	21832.54
584.657	21236.58
584.854	21353.32
585.052	21261.16
585.249	21236.58
585.447	21701.47
585.644	21058.41
585.841	21134.18
586.039	21439.33
586.236	20982.63
586.434	20925.29
586.631	21001.07
586.828	20798.32
587.026	20847.47
587.223	20929.39
587.42	20738.93
587.618	20597.62
587.815	20484.98
588.012	20609.9
588.21	20452.21
588.407	20558.7
588.604	20419.44
588.801	20097.91
588.999	20355.96
589.196	20151.16
589.393	20153.21
589.59	20106.1
589.787	20122.49
589.984	19987.32
590.182	19815.29
590.379	20132.73
590.576	19635.07
590.773	19745.66
590.97	19637.12
591.167	19727.23
591.364	19530.62
591.561	19520.38
591.758	19291.01
591.955	19393.41
592.152	19614.59
592.349	19671.93
592.546	19458.95
592.743	19385.22
592.94	19073.93
593.137	19164.04
593.334	19213.19
593.531	18908.04
593.727	19012.49
593.924	19098.5
594.121	18949
594.318	18944.91
594.515	18693.01
594.712	18860.94
594.908	18590.61
595.105	18752.4
595.302	18637.71
595.499	18430.87
595.696	18547.6
595.892	18299.8
596.089	18379.67
596.286	18193.3
596.482	18508.69
596.679	18183.06
596.876	18170.77
597.072	18084.76
597.269	18219.92
597.466	17927.07
597.662	18029.46
597.859	18250.64
598.055	17953.69
598.252	17976.22
598.448	17675.16
598.645	17531.81
598.841	17306.53
599.038	17576.86
599.234	17552.29
599.431	17191.84
599.627	17413.02
599.824	17408.93
600.02	17265.57
600.217	17269.67
600.413	17222.56
600.609	17228.71
600.806	17075.11
601.002	17171.36
601.198	17013.67
601.395	16819.11
601.591	17036.2
601.787	16837.55
601.984	17015.72
602.18	17058.73
602.376	16810.92
602.572	16513.97
602.769	16806.83
602.965	16550.83
603.161	16731.05
603.357	16348.08
603.553	16294.83
603.75	16444.34
603.946	16114.61
604.142	16389.04
604.338	16016.31
604.534	16300.98
604.73	16341.94
604.926	16169.91
605.122	16001.97
605.318	16042.93
605.514	16296.88
605.71	15780.79
605.906	15897.53
606.102	15834.04
606.298	15938.49
606.494	15778.75
606.69	15608.76
606.886	15741.88
607.082	15408.06
607.278	15729.59
607.474	15387.58
607.67	15532.99
607.866	15340.48
608.062	15645.63
608.257	15393.73
608.453	15133.64
608.649	15360.96
608.845	15328.19
609.041	15125.44
609.236	15180.74
609.432	15064
609.628	14932.93
609.824	15078.34
610.019	15182.79
610.215	15279.04
610.411	15012.81
610.606	15041.48
610.802	14900.17
610.998	15141.83
611.193	15010.76
611.389	14885.83
611.584	14990.28
611.78	14580.68
611.976	14648.27
612.171	14834.63
612.367	14801.86
612.562	14515.15
612.758	14519.25
612.953	14552.01
613.149	14482.38
613.344	14339.02
613.539	14664.65
613.735	14425.04
613.93	14721.99
614.126	14115.8
614.321	14670.79
614.517	14472.14
614.712	14392.27
614.907	14617.55
615.103	14408.65
615.298	14386.13
615.493	14273.49
615.688	13908.95
615.884	14592.97
616.079	14011.35
616.274	14203.86
616.47	14019.54
616.665	13947.86
616.86	13892.57
617.055	14009.3
617.25	14031.83
617.445	14066.64
617.641	13646.81
617.836	13892.57
618.031	13589.47
618.226	13796.31
618.421	13771.74
618.616	13741.02
618.811	13659.1
619.006	13757.4
619.201	13374.43
619.396	13616.09
619.591	13220.83
619.786	13321.18
619.981	13222.88
620.176	13253.6
620.371	13202.4
620.566	13380.57
620.761	13179.87
620.956	13147.11
621.151	12960.74
621.346	12973.03
621.541	12704.74
621.735	12809.19
621.93	12792.81
622.125	12618.73
622.32	12596.2
622.515	12774.38
622.709	12313.58
622.904	12329.97
623.099	12520.43
623.294	12440.56
623.488	12088.31
623.683	12358.64
623.878	11963.38
624.072	12276.72
624.267	11985.91
624.462	12137.46
624.656	11815.93
624.851	11940.85
625.046	11738.1
625.24	11766.78
625.435	11676.66
625.629	11564.03
625.824	11435
626.018	11439.1
626.213	11287.55
626.407	11414.52
626.602	11056.13
626.796	11324.41
626.991	11185.15
627.185	11127.81
627.38	11031.55
627.574	10884.1
627.768	10859.52
627.963	10882.05
628.157	10871.81
628.352	10728.45
628.546	10533.9
628.74	10767.37
628.935	10521.61
629.129	10529.8
629.323	10390.54
629.517	10392.59
629.712	10431.5
629.906	10419.21
630.1	9915.41
630.294	9989.14
630.489	10271.76
630.683	10320.91
630.877	10050.58
631.071	10036.24
631.265	9964.56
631.459	9911.32
631.653	9915.41
631.848	9718.81
632.042	9847.83
632.236	9819.16
632.43	9542.68
632.624	9563.16
632.818	9554.97
633.012	9440.28
633.206	9403.42
633.4	9456.67
633.594	9352.22
633.788	9292.83
633.982	9227.29
634.176	9249.82
634.369	9090.08
634.563	9098.27
634.757	9030.69
634.951	9032.74
635.145	9014.31
635.339	9055.26
635.533	8942.63
635.726	8944.67
635.92	8680.49
636.114	8668.2
636.308	8780.84
636.501	8719.4
636.695	8555.56
636.889	8483.88
637.083	8506.41
637.276	8393.77
637.47	8326.19
637.664	8436.78
637.857	8268.84
638.051	8424.49
638.244	8184.88
638.438	8283.18
638.632	8098.86
638.825	8270.89
639.019	8090.67
639.212	7918.64
639.406	8088.62
639.599	8131.63
639.793	7937.07
639.986	7885.87
640.18	7861.3
640.373	7769.14
640.567	7625.78
640.76	7746.61
640.954	7543.86
641.147	7529.53
641.34	7502.9
641.534	7513.14
641.727	7468.09
641.92	7371.83
642.114	7394.36
642.307	7236.67
642.5	7308.35
642.694	7212.09
642.887	7220.28
643.08	7179.33
643.273	7294.01
643.467	7078.97
643.66	6995.01
643.853	6927.42
644.046	6876.23
644.239	6904.9
644.432	6999.1
644.626	6712.39
644.819	6970.43
645.012	6689.86
645.205	6759.49
645.398	6757.44
645.591	6554.69
645.784	6515.78
645.977	6632.52
646.17	6519.88
646.363	6480.97
646.556	6429.77
646.749	6417.48
646.942	6317.13
647.135	6278.22
647.328	6249.55
647.521	6397
647.714	6220.88
647.907	6184.01
648.099	6093.9
648.292	6239.31
648.485	6110.29
648.678	6057.04
648.871	6151.24
649.064	6038.61
649.256	6022.22
649.449	6018.13
649.642	5874.77
649.835	5977.17
650.027	5809.23
650.22	5882.96
650.413	5805.14
650.605	5778.51
650.798	5590.1
650.991	5620.82
651.183	5678.16
651.376	5798.99
651.568	5616.72
651.761	5563.48
651.954	5563.48
652.146	5301.34
652.339	5645.4
652.531	5465.18
652.724	5401.69
652.916	5456.98
653.109	5248.09
653.301	5266.52
653.494	5366.87
653.686	5184.6
653.879	5311.58
654.071	5311.58
654.263	5217.37
654.456	5256.28
654.648	5225.56
654.84	4883.55
655.033	5010.53
655.225	5022.81
655.417	4854.88
655.61	5104.73
655.802	4971.61
655.994	4969.57
656.186	4959.33
656.379	4918.37
656.571	4805.73
656.763	4863.07
656.955	4830.3
657.148	4828.26
657.34	4910.18
657.532	4707.43
657.724	4830.3
657.916	4744.29
658.108	4803.68
658.3	4746.34
658.492	4559.97
658.684	4535.4
658.876	4611.17
659.068	4609.12
659.26	4398.18
659.452	4519.01
659.644	4541.54
659.836	4410.47
660.028	4379.75
660.22	4314.22
660.412	4422.76
660.604	4437.09
660.796	4222.06
660.988	4226.15
661.18	4123.76
661.372	4164.72
661.563	4330.6
661.755	4275.31
661.947	4123.76
662.139	4072.56
662.331	4086.89
662.522	4181.1
662.714	4093.04
662.906	4050.03
663.097	4101.23
663.289	3982.45
663.481	3961.97
663.673	3996.78
663.864	4023.41
664.056	3968.11
664.247	3933.29
664.439	3851.38
664.631	3804.27
664.822	3959.92
665.014	3828.85
665.205	3744.88
665.397	3630.2
665.588	3753.07
665.78	3640.44
665.971	3671.15
666.163	3607.67
666.354	3755.12
666.546	3615.86
666.737	3519.6
666.929	3497.08
667.12	3574.9
667.311	3619.96
667.503	3574.9
667.694	3402.87
667.885	3402.87
668.077	3409.01
668.268	3626.1
668.459	3331.19
668.651	3411.06
668.842	3345.53
669.033	3445.88
669.224	3343.48
669.416	3417.21
669.607	3425.4
669.798	3288.18
669.989	3273.85
670.18	3286.14
670.371	3355.77
670.563	3308.66
670.754	3062.91
670.945	3257.46
671.136	3181.69
671.327	3216.51
671.518	3249.27
671.709	3232.89
671.9	3167.35
672.091	3224.7
672.282	3095.68
672.473	3079.29
672.664	3089.53
672.855	3062.91
673.046	2995.32
673.237	3099.77
673.428	3150.97
673.619	3103.87
673.809	3191.93
674	3021.95
674.191	3105.92
674.382	2964.61
674.573	2991.23
674.764	3048.57
674.954	3087.48
675.145	2913.41
675.336	2870.4
675.527	2862.21
675.717	2860.16
675.908	2808.96
676.099	2870.4
676.289	2864.25
676.48	2780.29
676.671	2788.48
676.861	2870.4
677.052	2880.64
677.243	2815.1
677.433	2927.74
677.624	2888.83
677.814	2813.06
678.005	2774.14
678.195	2792.58
678.386	2698.37
678.576	2741.38
678.767	2768
678.957	2681.99
679.148	2788.48
679.338	2763.9
679.529	2798.72
679.719	2659.46
679.909	2708.61
680.1	2763.9
680.29	2733.18
680.481	2649.22
680.671	2673.79
680.861	2788.48
681.052	2591.88
681.242	2626.69
681.432	2665.6
681.622	2761.86
681.813	2698.37
682.003	2688.13
682.193	2679.94
682.383	2647.17
682.573	2589.83
682.764	2464.9
682.954	2733.18
683.144	2708.61
683.334	2624.64
683.524	2548.87
683.714	2528.39
683.904	2600.07
684.094	2579.59
684.284	2581.64
684.474	2526.34
684.664	2538.63
684.854	2505.86
685.044	2518.15
685.234	2579.59
685.424	2518.15
685.614	2620.55
685.804	2567.3
685.994	2671.75
686.184	2423.94
686.374	2512
686.564	2522.24
686.753	2436.23
686.943	2479.24
687.133	2501.76
687.323	2581.64
687.513	2538.63
687.702	2462.85
687.892	2364.55
688.082	2335.88
688.272	2436.23
688.461	2479.24
688.651	2419.85
688.841	2423.94
689.03	2485.38
689.22	2395.27
689.41	2489.48
689.599	2409.61
689.789	2423.94
689.979	2430.09
690.168	2458.76
690.358	2378.89
690.547	2419.85
690.737	2366.6
690.926	2403.46
691.116	2317.45
691.305	2469
691.495	2395.27
691.684	2317.45
691.874	2223.24
692.063	2270.34
692.252	2313.35
692.442	2256.01
692.631	2370.69
692.82	2278.54
693.01	2270.34
693.199	2243.72
693.388	2321.54
693.578	2356.36
693.767	2337.93
693.956	2280.58
694.146	2288.78
694.335	2317.45
694.524	2233.48
694.713	2286.73
694.902	2249.86
695.092	2167.95
695.281	2241.67
695.47	2094.22
695.659	2167.95
695.848	2210.95
696.037	2167.95
696.226	2198.67
696.415	2372.74
696.604	2247.82
696.793	2206.86
696.982	2172.04
697.171	2208.9
697.36	2155.66
697.549	2172.04
697.738	2225.29
697.927	2258.06
698.116	2200.71
698.305	2092.17
698.494	2147.47
698.683	2167.95
698.872	2155.66
699.061	2120.84
699.25	2208.9
699.438	2108.55
699.627	2077.83
699.816	2190.47
700.005	2131.08
700.193	2057.36
700.382	2133.13
700.571	2108.55
700.76	2067.6
700.948	2110.6
701.137	2045.07
701.326	2161.8
701.514	2098.31
701.703	2118.79
701.892	2126.99
702.08	2069.64
702.269	2071.69
702.457	2008.2
702.646	2096.27
702.834	2051.21
703.023	2067.6
703.212	2059.4
703.4	2051.21
703.589	2002.06
703.777	1995.92
703.965	1973.39
704.154	2079.88
704.342	2059.4
704.531	1961.1
704.719	2028.68
704.907	1997.96
705.096	1932.43
705.284	1995.92
705.472	1914
705.661	1846.41
705.849	2004.11
706.037	1911.95
706.226	2036.88
706.414	1889.42
706.602	1928.33
706.79	1936.53
706.979	1875.09
707.167	2002.06
707.355	1918.09
707.543	1983.63
707.731	1944.72
707.919	1967.24
708.107	1862.8
708.296	1930.38
708.484	1897.61
708.672	1936.53
708.86	1856.65
709.048	1817.74
709.236	1813.65
709.424	1862.8
709.612	1860.75
709.8	1858.7
709.988	1846.41
710.176	1873.04
710.364	1924.24
710.551	1866.89
710.739	1795.22
710.927	1782.93
711.115	1825.93
711.303	1780.88
711.491	1682.58
711.679	1815.69
711.866	1735.82
712.054	1725.58
712.242	1758.35
712.43	1692.82
712.617	1756.3
712.805	1717.39
712.993	1848.46
713.181	1778.83
713.368	1766.54
713.556	1772.69
713.744	1764.5
713.931	1803.41
714.119	1684.62
714.306	1733.78
714.494	1678.48
714.682	1746.06
714.869	1696.91
715.057	1741.97
715.244	1780.88
715.432	1758.35
715.619	1645.71
715.807	1594.51
715.994	1678.48
716.182	1754.26
716.369	1692.82
716.556	1664.15
716.744	1750.16
716.931	1698.96
717.119	1705.1
717.306	1694.86
717.493	1684.62
717.681	1604.75
717.868	1717.39
718.055	1617.04
718.242	1723.54
718.43	1610.9
718.617	1627.28
718.804	1553.55
718.991	1678.48
719.179	1604.75
719.366	1553.55
719.553	1623.19
719.74	1617.04
719.927	1510.55
720.114	1643.67
720.301	1518.74
720.488	1651.86
720.676	1602.71
720.863	1524.88
721.05	1617.04
721.237	1584.27
721.424	1537.17
721.611	1559.7
721.798	1475.73
721.985	1565.84
722.172	1465.49
722.358	1461.4
722.545	1465.49
722.732	1514.64
722.919	1633.43
723.106	1606.8
723.293	1559.7
723.48	1506.45
723.667	1545.36
723.853	1469.59
724.04	1510.55
724.227	1510.55
724.414	1385.62
724.6	1510.55
724.787	1483.92
724.974	1496.21
725.161	1473.68
725.347	1543.32
725.534	1539.22
725.72	1451.16
725.907	1334.42
726.094	1490.07
726.28	1461.4
726.467	1281.18
726.653	1457.3
726.84	1447.06
727.027	1453.2
727.213	1461.4
727.4	1481.88
727.586	1352.85
727.773	1340.57
727.959	1463.44
728.145	1408.15
728.332	1383.57
728.518	1479.83
728.705	1488.02
728.891	1399.96
729.077	1379.48
729.264	1324.18
729.45	1371.29
729.636	1363.09
729.823	1412.25
730.009	1402.01
730.195	1381.53
730.382	1373.33
730.568	1453.2
730.754	1330.33
730.94	1369.24
731.126	1383.57
731.313	1330.33
731.499	1363.09
731.685	1391.77
731.871	1406.1
732.057	1414.29
732.243	1361.05
732.429	1328.28
732.615	1451.16
732.801	1379.48
732.987	1367.19
733.173	1250.46
733.359	1248.41
733.545	1322.13
733.731	1404.05
733.917	1363.09
734.103	1270.94
734.289	1332.37
734.475	1404.05
734.661	1297.56
734.847	1412.25
735.033	1379.48
735.219	1240.22
735.404	1238.17
735.59	1262.74
735.776	1281.18
735.962	1402.01
736.148	1313.94
736.333	1383.57
736.519	1299.61
736.705	1383.57
736.89	1346.71
737.076	1256.6
737.262	1334.42
737.447	1336.47
737.633	1221.78
737.819	1189.02
738.004	1320.09
738.19	1299.61
738.375	1182.87
738.561	1217.69
738.747	1346.71
738.932	1260.7
739.118	1244.31
739.303	1178.78
739.489	1197.21
739.674	1213.59
739.859	1299.61
740.045	1254.55
740.23	1277.08
740.416	1129.63
740.601	1295.51
740.786	1168.54
740.972	1146.01
741.157	1137.82
741.342	1168.54
741.528	1223.83
741.713	1242.26
741.898	1229.98
742.084	1250.46
742.269	1213.59
742.454	1150.11
742.639	1232.02
742.824	1066.14
743.01	1219.74
743.195	1184.92
743.38	1166.49
743.565	1109.15
743.75	1137.82
743.935	1127.58
744.12	1174.68
744.305	1117.34
744.49	1146.01
744.675	1133.72
744.86	1084.57
745.045	1174.68
745.23	1088.67
745.415	1121.43
745.6	1029.27
745.785	1074.33
745.97	1094.81
746.155	1062.04
746.34	1125.53
746.525	1086.62
746.71	1137.82
746.895	1047.71
747.079	1035.42
747.264	1051.8
747.449	990.36
747.634	957.6
747.819	1049.75
748.003	1064.09
748.188	982.17
748.373	986.27
748.557	1016.99
748.742	982.17
748.927	1004.7
749.111	937.12
749.296	957.6
749.481	1057.95
749.665	1019.04
749.85	896.16
750.034	943.26
750.219	1023.13
750.404	988.32
750.588	887.97
750.773	918.68
750.957	898.2
751.141	879.77
751.326	961.69
751.51	943.26
751.695	877.73
751.879	996.51
752.064	879.77
752.248	922.78
752.432	863.39
752.617	867.49
752.801	965.79
752.985	865.44
753.17	890.01
753.354	851.1
753.538	791.71
753.722	836.77
753.907	812.19
754.091	756.9
754.275	902.3
754.459	840.86
754.643	857.25
754.828	752.8
755.012	875.68
755.196	855.2
755.38	779.42
755.564	695.46
755.748	810.14
755.932	818.33
756.116	744.61
756.3	760.99
756.484	742.56
756.668	685.22
756.852	830.62
757.036	777.37
757.22	707.74
757.404	783.52
757.588	726.18
757.772	654.5
757.956	681.12
758.14	744.61
758.323	715.94
758.507	763.04
758.691	703.65
758.875	625.83
759.059	701.6
759.242	697.5
759.426	732.32
759.61	681.12
759.794	732.32
759.977	621.73
760.161	660.64
760.345	634.02
760.528	597.15
760.712	695.46
760.895	650.4
761.079	699.55
761.263	660.64
761.446	609.44
761.63	646.3
761.813	691.36
761.997	668.83
762.18	701.6
762.364	674.98
762.547	574.63
762.731	588.96
762.914	578.72
763.098	597.15
763.281	683.17
763.464	556.19
763.648	652.45
763.831	625.83
764.015	541.86
764.198	525.47
764.381	638.11
764.564	556.19
764.748	593.06
764.931	609.44
765.114	644.26
765.297	562.34
765.481	601.25
765.664	582.82
765.847	570.53
766.03	599.2
766.213	609.44
766.397	564.39
766.58	513.19
766.763	586.91
766.946	496.8
767.129	570.53
767.312	578.72
767.495	558.24
767.678	607.39
767.861	625.83
768.044	601.25
768.227	558.24
768.41	529.57
768.593	591.01
768.776	531.62
768.959	582.82
769.142	588.96
769.324	484.52
769.507	535.71
769.69	519.33
769.873	496.8
770.056	509.09
770.239	482.47
770.421	472.23
770.604	621.73
770.787	488.61
770.97	517.28
771.152	482.47
771.335	562.34
771.518	527.52
771.7	513.19
771.883	504.99
772.066	480.42
772.248	507.04
772.431	502.95
772.613	480.42
772.796	488.61
772.978	507.04
773.161	511.14
773.343	431.27
773.526	488.61
773.708	406.69
773.891	470.18
774.073	437.41
774.256	406.69
774.438	404.64
774.621	474.28
774.803	507.04
774.985	451.75
775.168	470.18
775.35	472.23
775.532	427.17
775.715	408.74
775.897	402.6
776.079	498.85
776.261	449.7
776.444	441.51
776.626	437.41
776.808	375.97
776.99	453.8
777.173	380.07
777.355	433.32
777.537	400.55
777.719	412.84
777.901	294.05
778.083	412.84
778.265	314.53
778.447	347.3
778.629	308.39
778.811	466.08
778.993	418.98
779.175	431.27
779.357	386.21
779.539	359.59
779.721	326.82
779.903	322.73
780.085	312.49
780.267	380.07
780.449	349.35
780.631	390.31
780.812	308.39
780.994	322.73
781.176	318.63
781.358	283.81
781.54	316.58
781.721	289.96
781.903	306.34
782.085	414.88
782.267	341.16
782.448	261.29
782.63	308.39
782.812	265.38
782.993	273.57
783.175	287.91
783.357	302.25
783.538	298.15
783.72	298.15
783.901	339.11
784.083	355.49
784.264	277.67
784.446	263.33
784.627	322.73
784.809	259.24
784.99	238.76
785.172	294.05
785.353	294.05
785.535	263.33
785.716	302.25
785.897	271.53
786.079	326.82
786.26	314.53
786.441	292.01
786.623	216.23
786.804	224.42
786.985	226.47
787.167	281.77
787.348	257.19
787.529	199.85
787.71	242.85
787.891	320.68
788.073	261.29
788.254	236.71
788.435	304.29
788.616	259.24
788.797	158.89
788.978	234.66
789.159	242.85
789.34	261.29
789.522	193.7
789.703	203.94
789.884	265.38
790.065	292.01
790.246	212.14
790.427	218.28
790.607	216.23
790.788	220.33
790.969	187.56
791.15	169.13
791.331	267.43
791.512	265.38
791.693	214.18
791.874	249
792.054	222.38
792.235	199.85
792.416	187.56
792.597	224.42
792.778	199.85
792.958	210.09
793.139	267.43
793.32	179.37
793.5	218.28
793.681	210.09
793.862	177.32
794.042	226.47
794.223	195.75
794.404	142.5
794.584	220.33
794.765	183.46
794.945	218.28
795.126	185.51
795.306	173.22
795.487	218.28
795.667	251.05
795.848	189.61
796.028	138.41
796.209	201.9
796.389	265.38
796.57	228.52
796.75	218.28
796.93	226.47
797.111	169.13
797.291	136.36
797.471	183.46
797.652	177.32
797.832	187.56
798.012	236.71
798.192	142.5
798.373	99.5
798.553	165.03
798.733	171.18
798.913	177.32
799.093	119.98
799.274	152.74
799.454	199.85
799.634	136.36
799.814	142.5
799.994	109.74
800.174	253.09
800.354	191.66
800.534	105.64
800.714	119.98
800.894	140.46
801.074	130.22
801.254	203.94
801.434	128.17
801.614	76.97
801.794	154.79
801.974	365.73
802.154	79.02
802.334	117.93
802.514	138.41
802.693	142.5
802.873	169.13
803.053	146.6
803.233	152.74
803.413	70.83
803.592	134.31
803.772	162.98
803.952	195.75
804.131	160.94
804.311	152.74
804.491	128.17
804.67	140.46
804.85	167.08
805.03	177.32
805.209	162.98
805.389	144.55
805.568	66.73
805.748	175.27
805.928	142.5
806.107	91.31
806.287	101.55
806.466	220.33
806.646	160.94
806.825	95.4
807.004	158.89
807.184	111.78
807.363	68.78
807.543	99.5
807.722	97.45
807.901	138.41
808.081	109.74
808.26	113.83
808.439	111.78
808.619	97.45
808.798	134.31
808.977	138.41
809.156	142.5
809.336	5.29
809.515	109.74
809.694	99.5
809.873	44.2
810.052	56.49
810.231	128.17
810.411	40.11
810.59	152.74
810.769	50.35
810.948	132.26
811.127	58.54
811.306	179.37
811.485	111.78
811.664	126.12
811.843	91.31
812.022	72.87
812.201	189.61
812.38	66.73
812.559	-27.48
812.737	162.98
812.916	66.73
813.095	91.31
813.274	64.68
813.453	101.55
813.632	64.68
813.811	46.25
813.989	103.59
814.168	48.3
814.347	103.59
814.526	62.63
814.704	160.94
814.883	119.98
815.062	56.49
815.24	68.78
815.419	93.35
815.598	130.22
815.776	27.82
815.955	76.97
816.133	89.26
816.312	70.83
816.49	113.83
816.669	50.35
816.847	60.59
817.026	62.63
817.204	40.11
817.383	95.4
817.561	-15.19
817.74	66.73
817.918	105.64
818.097	109.74
818.275	87.21
818.453	122.02
818.632	81.07
818.81	68.78
818.988	52.39
819.167	85.16
819.345	79.02
819.523	-4.95
819.701	68.78
819.879	58.54
820.058	132.26
820.236	132.26
820.414	46.25
820.592	97.45
820.77	52.39
820.948	142.5
821.127	122.02
821.305	36.01
821.483	52.39
821.661	27.82
821.839	83.11
822.017	54.44
822.195	76.97
822.373	95.4
822.551	113.83
822.729	76.97
822.907	13.48
823.085	81.07
823.262	85.16
823.44	79.02
823.618	93.35
823.796	122.02
823.974	64.68
824.152	109.74
824.329	54.44
824.507	169.13
824.685	83.11
824.863	107.69
825.04	87.21
825.218	7.34
825.396	64.68
825.574	13.48
825.751	64.68
825.929	40.11
826.107	54.44
826.284	60.59
826.462	52.39
826.639	115.88
826.817	-21.33
826.994	62.63
827.172	33.96
827.349	72.87
827.527	31.91
827.704	83.11
827.882	48.3
828.059	33.96
828.237	60.59
828.414	81.07
828.591	87.21
828.769	81.07
828.946	19.63
829.124	58.54
829.301	76.97
829.478	13.48
829.655	79.02
829.833	111.78
830.01	72.87
830.187	81.07
830.364	38.06
830.542	128.17
830.719	72.87
830.896	13.48
831.073	85.16
831.25	36.01
831.427	83.11
831.604	-31.57
831.782	66.73
831.959	27.82
832.136	66.73
832.313	95.4
832.49	126.12
832.667	56.49
832.844	21.67
833.021	29.87
833.198	52.39
833.374	72.87
833.551	29.87
833.728	119.98
833.905	87.21
834.082	50.35
834.259	46.25
834.436	23.72
834.612	52.39
834.789	138.41
834.966	70.83
835.143	95.4
835.319	27.82
835.496	142.5
835.673	62.63
835.85	62.63
836.026	87.21
836.203	103.59
836.38	-50
836.556	81.07
836.733	52.39
836.909	36.01
837.086	-11.09
837.262	-4.95
837.439	7.34
837.616	31.91
837.792	103.59
837.968	48.3
838.145	1.19
838.321	54.44
838.498	27.82
838.674	13.48
838.851	27.82
839.027	48.3
839.203	3.24
839.38	23.72
839.556	15.53
839.732	111.78
839.909	72.87
840.085	66.73
840.261	42.15
840.437	27.82
840.614	-13.14
840.79	15.53
840.966	36.01
841.142	-25.43
841.318	-64.34
841.494	56.49
841.671	109.74
841.847	87.21
842.023	3.24
842.199	23.72
842.375	103.59
842.551	-21.33
842.727	-13.14
842.903	56.49
843.079	91.31
843.255	13.48
843.431	44.2
843.607	31.91
843.783	36.01
843.959	95.4
844.134	19.63
844.31	46.25
844.486	-25.43
844.662	-0.85
844.838	31.91
845.013	23.72
845.189	21.67
845.365	38.06
845.541	33.96
845.716	50.35
845.892	19.63
846.068	11.43
846.244	15.53
846.419	-15.19
846.595	11.43
846.77	85.16
846.946	-0.85
847.122	48.3
847.297	42.15
847.473	46.25
847.648	-56.15
847.824	27.82
847.999	83.11
848.175	-0.85
848.35	-11.09
848.526	33.96
848.701	40.11
848.876	54.44
849.052	11.43
849.227	19.63
849.403	-31.57
849.578	50.35
849.753	46.25
849.929	25.77
850.104	-52.05
850.279	-21.33
850.454	15.53
850.63	-17.24
850.805	25.77
850.98	-2.9
851.155	74.92
851.33	-2.9
851.505	23.72
851.681	95.4
851.856	-4.95
852.031	33.96
852.206	48.3
852.381	-2.9
852.556	56.49
852.731	33.96
852.906	31.91
853.081	85.16
853.256	79.02
853.431	-25.43
853.606	-45.91
853.781	56.49
853.956	-13.14
854.131	93.35
854.305	19.63
854.48	46.25
854.655	-9.05
854.83	38.06
855.005	15.53
855.18	-33.62
855.354	36.01
855.529	3.24
855.704	44.2
855.879	23.72
856.053	7.34
856.228	-11.09
856.403	3.24
856.577	-15.19
856.752	72.87
856.926	15.53
857.101	5.29
857.276	31.91
857.45	-0.85
857.625	91.31
857.799	1.19
857.974	48.3
858.148	-43.86
858.323	-0.85
858.497	19.63
858.672	81.07
858.846	-0.85
859.02	5.29
859.195	38.06
859.369	33.96
859.543	9.39
859.718	-17.24
859.892	3.24
860.066	-2.9
860.241	-15.19
860.415	-23.38
860.589	27.82
860.763	-31.57
860.938	-43.86
861.112	29.87
861.286	23.72
861.46	36.01
861.634	11.43
861.808	-62.29
861.982	25.77
862.157	40.11
862.331	60.59
862.505	-62.29
862.679	74.92
862.853	-11.09
863.027	15.53
863.201	74.92
863.375	19.63
863.549	68.78
863.722	17.58
863.896	52.39
864.07	21.67
864.244	31.91
864.418	-19.29
864.592	74.92
864.766	-21.33
864.939	52.39
865.113	19.63
865.287	60.59
865.461	-13.14
865.634	13.48
865.808	-13.14
865.982	19.63
866.156	-60.24
866.329	15.53
866.503	33.96
866.676	40.11
866.85	-37.72
867.024	-27.48
867.197	-21.33
867.371	5.29
867.544	25.77
867.718	-37.72
867.891	40.11
868.065	-25.43
868.238	-33.62
868.412	89.26
868.585	68.78
868.759	-62.29
868.932	-7
869.105	9.39
869.279	25.77
869.452	-17.24
869.625	109.74
869.799	40.11
869.972	25.77
870.145	-78.68
870.319	5.29
870.492	-35.67
870.665	19.63
870.838	-45.91
871.011	-54.1
871.185	27.82
871.358	25.77
871.531	-13.14
871.704	52.39
871.877	-21.33
872.05	21.67
872.223	60.59
872.396	7.34
872.569	-15.19
872.742	-45.91
872.915	44.2
873.088	9.39
873.261	23.72
873.434	58.54
873.607	29.87
873.78	13.48
873.953	7.34
874.126	-21.33
874.299	3.24
874.471	-19.29
874.644	52.39
874.817	-15.19
874.99	-2.9
875.163	-58.2
875.335	7.34
875.508	79.02
875.681	66.73
875.853	-21.33
876.026	11.43
876.199	23.72
876.371	93.35
876.544	29.87
876.717	-60.24
876.889	-19.29
877.062	-17.24
877.234	-54.1
877.407	-19.29
877.579	-19.29
877.752	40.11
877.924	15.53
878.097	99.5
878.269	-19.29
878.442	19.63
878.614	29.87
878.786	-39.76
878.959	13.48
879.131	9.39
879.303	-4.95
879.476	1.19
879.648	40.11
879.82	48.3
879.993	109.74
880.165	-4.95
880.337	9.39
880.509	-13.14
880.681	-27.48
880.854	11.43
881.026	76.97
881.198	40.11
881.37	64.68
881.542	-4.95
881.714	-9.05
881.886	-0.85
882.058	25.77
882.23	-21.33
882.402	11.43
882.574	-2.9
882.746	31.91
882.918	13.48
883.09	-27.48
883.262	-7
883.434	11.43
883.606	-4.95
883.778	-13.14
883.95	54.44
884.122	-80.72
884.293	76.97
884.465	-21.33
884.637	-35.67
884.809	-4.95
884.98	-19.29
885.152	-29.52
885.324	-2.9
885.496	-0.85
885.667	105.64
885.839	19.63
886.011	36.01
886.182	15.53
886.354	29.87
886.525	-66.39
886.697	46.25
886.869	19.63
887.04	3.24
887.212	-41.81
887.383	52.39
887.555	-47.96
887.726	93.35
887.897	36.01
888.069	-0.85
888.24	21.67
888.412	-11.09
888.583	-19.29
888.754	36.01
888.926	29.87
889.097	-7
889.268	3.24
889.44	5.29
889.611	74.92
889.782	9.39
889.953	31.91
890.125	3.24
890.296	-11.09
890.467	-27.48
890.638	36.01
890.809	27.82
890.98	91.31
891.151	-7
891.323	5.29
891.494	-29.52
891.665	56.49
891.836	52.39
892.007	-15.19
892.178	-17.24
892.349	19.63
892.52	27.82
892.691	-29.52
892.862	62.63
893.032	9.39
893.203	-90.96
893.374	9.39
893.545	31.91
893.716	-27.48
893.887	7.34
894.057	-11.09
894.228	31.91
894.399	-45.91
894.57	21.67
894.74	-31.57
894.911	40.11
895.082	-43.86
895.253	-13.14
895.423	74.92
895.594	21.67
895.764	1.19
895.935	83.11
896.106	3.24
896.276	44.2
896.447	-29.52
896.617	-27.48
896.788	-62.29
896.958	25.77
897.129	-39.76
897.299	76.97
897.47	-15.19
897.64	-17.24
897.81	46.25
897.981	9.39
898.151	-11.09
898.322	38.06
898.492	70.83
898.662	44.2
898.832	27.82
899.003	1.19
899.173	38.06
899.343	36.01
899.513	33.96
