Data from USB4F104151__33__12-58-53-427.txt Node

Date: Fri Mar 14 12:58:53 EDT 2025
User: louis
Spectrometer: USB4F10415
Trigger mode: 4
Integration Time (sec): 1.000000E-2
Scans to average: 1
Electric dark correction enabled: true
Nonlinearity correction enabled: false
Boxcar width: 0
XAxis mode: Wavelengths
Number of Pixels in Spectrum: 3648
>>>>>Begin Spectral Data<<<<<
178.204	-31.91
178.424	-31.91
178.644	-31.91
178.864	-62.63
179.084	-1.19
179.304	-60.59
179.524	-42.15
179.744	0.85
179.964	15.19
180.184	-31.91
180.404	56.15
180.624	19.29
180.844	56.15
181.064	-33.96
181.283	39.76
181.503	-42.15
181.723	23.38
181.943	4.95
182.163	47.96
182.383	-33.96
182.602	7
182.822	9.05
183.042	27.48
183.262	17.24
183.482	19.29
183.701	-42.15
183.921	-72.87
184.141	31.57
184.361	-89.26
184.58	-17.58
184.8	13.14
185.02	-76.97
185.239	-7.34
185.459	-5.29
185.679	-50.35
185.898	2.9
186.118	7
186.338	-3.24
186.557	17.24
186.777	4.95
186.997	-27.82
187.216	11.09
187.436	17.24
187.655	27.48
187.875	50
188.095	-3.24
188.314	-64.68
188.534	45.91
188.753	4.95
188.973	-17.58
189.192	41.81
189.412	0.85
189.631	37.72
189.851	39.76
190.07	19.29
190.29	25.43
190.509	56.15
190.729	39.76
190.948	-7.34
191.168	74.58
191.387	25.43
191.607	74.58
191.826	56.15
192.045	43.86
192.265	-23.72
192.484	9.05
192.704	-7.34
192.923	9.05
193.142	33.62
193.362	15.19
193.581	33.62
193.8	41.81
194.02	-21.67
194.239	-11.43
194.458	2.9
194.678	33.62
194.897	27.48
195.116	127.83
195.335	-9.39
195.555	17.24
195.774	-52.39
195.993	64.34
196.212	66.39
196.432	-13.48
196.651	37.72
196.87	88.92
197.089	2.9
197.308	29.52
197.528	66.39
197.747	-97.45
197.966	7
198.185	45.91
198.404	-60.59
198.623	37.72
198.842	33.62
199.062	39.76
199.281	19.29
199.5	7
199.719	25.43
199.938	0.85
200.157	60.24
200.376	-11.43
200.595	31.57
200.814	2.9
201.033	7
201.252	-52.39
201.471	-33.96
201.69	7
201.909	37.72
202.128	-7.34
202.347	47.96
202.566	13.14
202.785	39.76
203.004	27.48
203.223	19.29
203.442	21.33
203.661	9.05
203.879	-21.67
204.098	-15.53
204.317	-50.35
204.536	25.43
204.755	13.14
204.974	7
205.193	-9.39
205.411	109.4
205.63	17.24
205.849	74.58
206.068	-15.53
206.287	-9.39
206.505	-19.63
206.724	-50.35
206.943	-29.87
207.162	-15.53
207.381	11.09
207.599	-1.19
207.818	62.29
208.037	0.85
208.255	0.85
208.474	-15.53
208.693	19.29
208.911	47.96
209.13	-52.39
209.349	-7.34
209.567	43.86
209.786	33.62
210.005	33.62
210.223	25.43
210.442	-15.53
210.661	-64.68
210.879	21.33
211.098	-7.34
211.316	-38.06
211.535	27.48
211.753	-31.91
211.972	-25.77
212.191	39.76
212.409	37.72
212.628	-13.48
212.846	21.33
213.065	52.05
213.283	15.19
213.502	15.19
213.72	4.95
213.938	13.14
214.157	45.91
214.375	-33.96
214.594	0.85
214.812	43.86
215.031	39.76
215.249	35.67
215.467	17.24
215.686	-38.06
215.904	90.96
216.122	-11.43
216.341	37.72
216.559	-25.77
216.778	-44.2
216.996	90.96
217.214	37.72
217.432	13.14
217.651	-23.72
217.869	-11.43
218.087	88.92
218.306	0.85
218.524	-60.59
218.742	2.9
218.96	62.29
219.179	58.2
219.397	19.29
219.615	31.57
219.833	-36.01
220.051	11.09
220.27	33.62
220.488	-1.19
220.706	7
220.924	37.72
221.142	17.24
221.36	-1.19
221.578	25.43
221.796	23.38
222.015	37.72
222.233	27.48
222.451	-15.53
222.669	35.67
222.887	-13.48
223.105	-40.11
223.323	-15.53
223.541	9.05
223.759	-25.77
223.977	62.29
224.195	-9.39
224.413	41.81
224.631	97.11
224.849	-13.48
225.067	56.15
225.285	58.2
225.503	64.34
225.721	17.24
225.939	-40.11
226.157	-25.77
226.375	33.62
226.592	-11.43
226.81	-9.39
227.028	17.24
227.246	56.15
227.464	15.19
227.682	-7.34
227.9	-36.01
228.117	31.57
228.335	52.05
228.553	23.38
228.771	64.34
228.989	45.91
229.206	-23.72
229.424	41.81
229.642	60.24
229.86	13.14
230.077	13.14
230.295	25.43
230.513	-33.96
230.731	54.1
230.948	17.24
231.166	62.29
231.384	43.86
231.601	-9.39
231.819	47.96
232.037	37.72
232.254	-25.77
232.472	23.38
232.689	0.85
232.907	-15.53
233.125	23.38
233.342	54.1
233.56	41.81
233.777	-72.87
233.995	-3.24
234.213	-33.96
234.43	-9.39
234.648	58.2
234.865	-5.29
235.083	35.67
235.3	25.43
235.518	64.34
235.735	37.72
235.953	31.57
236.17	13.14
236.388	-83.11
236.605	33.62
236.822	-9.39
237.04	56.15
237.257	-1.19
237.475	7
237.692	50
237.909	-1.19
238.127	15.19
238.344	50
238.562	88.92
238.779	-70.83
238.996	-25.77
239.214	11.09
239.431	25.43
239.648	23.38
239.865	29.52
240.083	-33.96
240.3	23.38
240.517	31.57
240.735	7
240.952	-60.59
241.169	27.48
241.386	39.76
241.603	-31.91
241.821	-40.11
242.038	23.38
242.255	13.14
242.472	-1.19
242.689	-38.06
242.907	-33.96
243.124	-21.67
243.341	-11.43
243.558	-40.11
243.775	72.53
243.992	-5.29
244.209	-42.15
244.426	-40.11
244.643	43.86
244.86	9.05
245.078	45.91
245.295	-9.39
245.512	-15.53
245.729	-27.82
245.946	95.06
246.163	-13.48
246.38	-42.15
246.597	23.38
246.814	19.29
247.031	11.09
247.248	66.39
247.464	29.52
247.681	-7.34
247.898	27.48
248.115	54.1
248.332	-17.58
248.549	-31.91
248.766	23.38
248.983	41.81
249.2	-17.58
249.417	0.85
249.633	29.52
249.85	-11.43
250.067	-17.58
250.284	21.33
250.501	19.29
250.717	-9.39
250.934	0.85
251.151	60.24
251.368	33.62
251.585	109.4
251.801	-38.06
252.018	39.76
252.235	74.58
252.451	-38.06
252.668	70.48
252.885	60.24
253.102	23.38
253.318	56.15
253.535	39.76
253.752	62.29
253.968	-5.29
254.185	33.62
254.401	-5.29
254.618	76.63
254.835	45.91
255.051	-15.53
255.268	23.38
255.484	17.24
255.701	35.67
255.917	-60.59
256.134	-3.24
256.351	0.85
256.567	37.72
256.784	37.72
257	-17.58
257.217	7
257.433	31.57
257.65	52.05
257.866	31.57
258.082	68.44
258.299	2.9
258.515	-23.72
258.732	25.43
258.948	23.38
259.165	31.57
259.381	33.62
259.597	43.86
259.814	76.63
260.03	47.96
260.246	68.44
260.463	-15.53
260.679	76.63
260.895	-11.43
261.112	27.48
261.328	-21.67
261.544	-5.29
261.761	27.48
261.977	-25.77
262.193	0.85
262.409	-23.72
262.626	-19.63
262.842	27.48
263.058	-44.2
263.274	66.39
263.49	93.01
263.707	-7.34
263.923	-11.43
264.139	37.72
264.355	-1.19
264.571	31.57
264.787	-29.87
265.004	25.43
265.22	64.34
265.436	41.81
265.652	-33.96
265.868	54.1
266.084	-62.63
266.3	-1.19
266.516	-40.11
266.732	-25.77
266.948	21.33
267.164	9.05
267.38	19.29
267.596	-31.91
267.812	-9.39
268.028	17.24
268.244	-13.48
268.46	-36.01
268.676	15.19
268.892	17.24
269.108	13.14
269.324	25.43
269.54	-50.35
269.756	39.76
269.972	19.29
270.188	15.19
270.403	43.86
270.619	78.68
270.835	62.29
271.051	4.95
271.267	-27.82
271.483	43.86
271.698	88.92
271.914	19.29
272.13	21.33
272.346	-5.29
272.562	9.05
272.777	47.96
272.993	-3.24
273.209	80.72
273.425	7
273.64	0.85
273.856	15.19
274.072	17.24
274.287	-15.53
274.503	27.48
274.719	-33.96
274.934	54.1
275.15	2.9
275.366	23.38
275.581	45.91
275.797	31.57
276.012	23.38
276.228	-15.53
276.444	-3.24
276.659	39.76
276.875	39.76
277.09	7
277.306	-48.3
277.521	-9.39
277.737	15.19
277.952	68.44
278.168	21.33
278.383	17.24
278.599	25.43
278.814	33.62
279.03	-9.39
279.245	58.2
279.461	41.81
279.676	25.43
279.892	21.33
280.107	-48.3
280.322	19.29
280.538	11.09
280.753	43.86
280.969	-33.96
281.184	35.67
281.399	-13.48
281.615	66.39
281.83	23.38
282.045	-15.53
282.26	64.34
282.476	4.95
282.691	23.38
282.906	23.38
283.122	35.67
283.337	31.57
283.552	-9.39
283.767	-3.24
283.983	-25.77
284.198	93.01
284.413	64.34
284.628	62.29
284.843	64.34
285.058	47.96
285.274	-15.53
285.489	64.34
285.704	-31.91
285.919	0.85
286.134	13.14
286.349	0.85
286.564	4.95
286.779	-15.53
286.995	-1.19
287.21	13.14
287.425	11.09
287.64	68.44
287.855	50
288.07	-40.11
288.285	37.72
288.5	4.95
288.715	-9.39
288.93	29.52
289.145	62.29
289.36	45.91
289.575	41.81
289.79	-25.77
290.004	39.76
290.219	31.57
290.434	82.77
290.649	-33.96
290.864	-7.34
291.079	27.48
291.294	78.68
291.509	17.24
291.724	74.58
291.938	56.15
292.153	-36.01
292.368	50
292.583	45.91
292.798	35.67
293.012	52.05
293.227	31.57
293.442	27.48
293.657	-25.77
293.871	-17.58
294.086	-19.63
294.301	68.44
294.516	-21.67
294.73	-44.2
294.945	-1.19
295.16	21.33
295.374	23.38
295.589	29.52
295.804	17.24
296.018	-56.49
296.233	-27.82
296.447	-17.58
296.662	39.76
296.877	13.14
297.091	-17.58
297.306	11.09
297.52	56.15
297.735	19.29
297.949	17.24
298.164	-19.63
298.378	-9.39
298.593	-15.53
298.807	27.48
299.022	15.19
299.236	66.39
299.451	13.14
299.665	-36.01
299.88	23.38
300.094	-5.29
300.309	-42.15
300.523	4.95
300.737	-70.83
300.952	-40.11
301.166	39.76
301.381	7
301.595	25.43
301.809	4.95
302.024	25.43
302.238	2.9
302.452	60.24
302.667	-27.82
302.881	4.95
303.095	-5.29
303.309	17.24
303.524	31.57
303.738	7
303.952	33.62
304.166	50
304.381	-17.58
304.595	70.48
304.809	-66.73
305.023	80.72
305.237	2.9
305.452	47.96
305.666	33.62
305.88	-19.63
306.094	-13.48
306.308	56.15
306.522	23.38
306.736	78.68
306.95	21.33
307.164	45.91
307.379	9.05
307.593	31.57
307.807	76.63
308.021	64.34
308.235	64.34
308.449	50
308.663	-17.58
308.877	2.9
309.091	58.2
309.305	33.62
309.519	9.05
309.733	37.72
309.947	33.62
310.161	50
310.374	93.01
310.588	43.86
310.802	-1.19
311.016	45.91
311.23	4.95
311.444	29.52
311.658	43.86
311.872	-46.25
312.085	21.33
312.299	-15.53
312.513	17.24
312.727	-5.29
312.941	7
313.154	25.43
313.368	25.43
313.582	-25.77
313.796	58.2
314.009	-50.35
314.223	-15.53
314.437	9.05
314.651	-23.72
314.864	90.96
315.078	11.09
315.292	-3.24
315.505	64.34
315.719	43.86
315.933	-1.19
316.146	7
316.36	25.43
316.573	105.3
316.787	-33.96
317.001	17.24
317.214	-25.77
317.428	74.58
317.641	-33.96
317.855	7
318.068	-23.72
318.282	37.72
318.495	60.24
318.709	25.43
318.922	56.15
319.136	74.58
319.349	39.76
319.563	-7.34
319.776	88.92
319.99	0.85
320.203	4.95
320.417	-11.43
320.63	68.44
320.843	47.96
321.057	45.91
321.27	70.48
321.483	37.72
321.697	-11.43
321.91	13.14
322.124	70.48
322.337	45.91
322.55	-23.72
322.763	17.24
322.977	33.62
323.19	9.05
323.403	17.24
323.617	62.29
323.83	17.24
324.043	88.92
324.256	-33.96
324.469	-13.48
324.683	93.01
324.896	-1.19
325.109	13.14
325.322	-54.44
325.535	119.64
325.748	15.19
325.962	-19.63
326.175	19.29
326.388	60.24
326.601	21.33
326.814	17.24
327.027	4.95
327.24	76.63
327.453	17.24
327.666	80.72
327.879	27.48
328.092	37.72
328.305	17.24
328.518	27.48
328.731	19.29
328.944	74.58
329.157	64.34
329.37	33.62
329.583	39.76
329.796	84.82
330.009	88.92
330.222	-1.19
330.435	52.05
330.648	33.62
330.861	45.91
331.073	23.38
331.286	19.29
331.499	35.67
331.712	11.09
331.925	117.59
332.138	37.72
332.35	35.67
332.563	-19.63
332.776	56.15
332.989	23.38
333.202	47.96
333.414	90.96
333.627	-23.72
333.84	37.72
334.053	29.52
334.265	66.39
334.478	25.43
334.691	13.14
334.903	-5.29
335.116	43.86
335.329	15.19
335.541	80.72
335.754	13.14
335.966	45.91
336.179	-40.11
336.392	17.24
336.604	72.53
336.817	17.24
337.029	29.52
337.242	31.57
337.454	68.44
337.667	-5.29
337.88	11.09
338.092	37.72
338.305	47.96
338.517	15.19
338.729	-7.34
338.942	7
339.154	-15.53
339.367	9.05
339.579	11.09
339.792	19.29
340.004	58.2
340.217	113.49
340.429	35.67
340.641	-66.73
340.854	7
341.066	-68.78
341.278	74.58
341.491	43.86
341.703	58.2
341.915	-54.44
342.128	66.39
342.34	41.81
342.552	56.15
342.764	-44.2
342.977	66.39
343.189	-44.2
343.401	27.48
343.613	4.95
343.826	23.38
344.038	17.24
344.25	31.57
344.462	68.44
344.674	133.97
344.886	23.38
345.099	31.57
345.311	31.57
345.523	21.33
345.735	23.38
345.947	103.25
346.159	37.72
346.371	33.62
346.583	56.15
346.795	121.68
347.007	-42.15
347.219	15.19
347.431	33.62
347.643	39.76
347.855	97.11
348.067	-9.39
348.279	-62.63
348.491	-25.77
348.703	-13.48
348.915	25.43
349.127	45.91
349.339	66.39
349.551	17.24
349.763	35.67
349.975	93.01
350.187	39.76
350.399	45.91
350.61	56.15
350.822	47.96
351.034	-11.43
351.246	-46.25
351.458	56.15
351.669	17.24
351.881	72.53
352.093	-7.34
352.305	84.82
352.517	60.24
352.728	70.48
352.94	23.38
353.152	41.81
353.363	-25.77
353.575	50
353.787	121.68
353.999	-7.34
354.21	11.09
354.422	0.85
354.633	-7.34
354.845	9.05
355.057	-5.29
355.268	-9.39
355.48	27.48
355.692	-46.25
355.903	13.14
356.115	-66.73
356.326	17.24
356.538	19.29
356.749	41.81
356.961	-9.39
357.172	-38.06
357.384	50
357.595	84.82
357.807	80.72
358.018	27.48
358.23	86.87
358.441	-7.34
358.653	80.72
358.864	15.19
359.075	0.85
359.287	25.43
359.498	39.76
359.709	31.57
359.921	31.57
360.132	-5.29
360.344	117.59
360.555	60.24
360.766	62.29
360.977	-33.96
361.189	-36.01
361.4	39.76
361.611	62.29
361.823	86.87
362.034	95.06
362.245	-48.3
362.456	93.01
362.667	0.85
362.879	74.58
363.09	68.44
363.301	39.76
363.512	41.81
363.723	64.34
363.935	129.88
364.146	-1.19
364.357	0.85
364.568	33.62
364.779	84.82
364.99	64.34
365.201	31.57
365.412	95.06
365.623	60.24
365.834	25.43
366.045	95.06
366.256	54.1
366.467	25.43
366.678	72.53
366.889	72.53
367.1	41.81
367.311	-38.06
367.522	115.54
367.733	74.58
367.944	0.85
368.155	76.63
368.366	-25.77
368.577	-33.96
368.788	80.72
368.999	15.19
369.209	54.1
369.42	82.77
369.631	70.48
369.842	-1.19
370.053	0.85
370.264	37.72
370.474	33.62
370.685	50
370.896	72.53
371.107	0.85
371.317	13.14
371.528	23.38
371.739	68.44
371.95	11.09
372.16	103.25
372.371	11.09
372.582	31.57
372.792	56.15
373.003	39.76
373.214	68.44
373.424	39.76
373.635	45.91
373.846	66.39
374.056	43.86
374.267	27.48
374.477	25.43
374.688	21.33
374.898	29.52
375.109	101.2
375.319	74.58
375.53	17.24
375.74	13.14
375.951	-23.72
376.161	60.24
376.372	19.29
376.582	-5.29
376.793	58.2
377.003	13.14
377.214	50
377.424	39.76
377.635	11.09
377.845	56.15
378.055	103.25
378.266	-11.43
378.476	11.09
378.686	56.15
378.897	37.72
379.107	39.76
379.317	58.2
379.528	47.96
379.738	-91.31
379.948	-15.53
380.158	39.76
380.369	60.24
380.579	9.05
380.789	9.05
380.999	43.86
381.21	70.48
381.42	76.63
381.63	-9.39
381.84	70.48
382.05	60.24
382.261	23.38
382.471	-3.24
382.681	113.49
382.891	39.76
383.101	60.24
383.311	7
383.521	41.81
383.731	17.24
383.941	19.29
384.151	68.44
384.361	121.68
384.571	11.09
384.781	-21.67
384.991	82.77
385.201	117.59
385.411	2.9
385.621	54.1
385.831	-5.29
386.041	19.29
386.251	4.95
386.461	133.97
386.671	29.52
386.881	15.19
387.091	-25.77
387.301	-25.77
387.511	60.24
387.72	58.2
387.93	105.3
388.14	-7.34
388.35	39.76
388.56	-7.34
388.769	54.1
388.979	68.44
389.189	13.14
389.399	35.67
389.609	-1.19
389.818	109.4
390.028	39.76
390.238	58.2
390.447	7
390.657	25.43
390.867	17.24
391.076	-1.19
391.286	50
391.496	105.3
391.705	17.24
391.915	62.29
392.125	50
392.334	25.43
392.544	19.29
392.753	-17.58
392.963	25.43
393.172	56.15
393.382	66.39
393.591	70.48
393.801	27.48
394.01	4.95
394.22	103.25
394.429	33.62
394.639	15.19
394.848	64.34
395.058	39.76
395.267	109.4
395.477	-1.19
395.686	23.38
395.895	88.92
396.105	88.92
396.314	62.29
396.524	33.62
396.733	54.1
396.942	58.2
397.152	29.52
397.361	58.2
397.57	7
397.78	56.15
397.989	47.96
398.198	52.05
398.407	15.19
398.617	39.76
398.826	84.82
399.035	90.96
399.244	105.3
399.453	17.24
399.663	52.05
399.872	82.77
400.081	47.96
400.29	23.38
400.499	72.53
400.708	66.39
400.917	50
401.127	56.15
401.336	25.43
401.545	74.58
401.754	45.91
401.963	121.68
402.172	97.11
402.381	129.88
402.59	66.39
402.799	82.77
403.008	88.92
403.217	74.58
403.426	107.35
403.635	80.72
403.844	78.68
404.053	88.92
404.262	121.68
404.471	76.63
404.68	138.07
404.888	56.15
405.097	150.36
405.306	138.07
405.515	9.05
405.724	82.77
405.933	148.31
406.142	146.26
406.35	111.44
406.559	109.4
406.768	68.44
406.977	56.15
407.185	84.82
407.394	154.45
407.603	-1.19
407.812	113.49
408.02	125.78
408.229	52.05
408.438	86.87
408.646	172.88
408.855	150.36
409.064	160.59
409.272	164.69
409.481	185.17
409.69	148.31
409.898	156.5
410.107	142.16
410.315	88.92
410.524	179.03
410.733	129.88
410.941	82.77
411.15	187.22
411.358	168.79
411.567	179.03
411.775	236.37
411.984	140.12
412.192	271.19
412.401	219.99
412.609	287.57
412.818	291.66
413.026	248.66
413.234	213.84
413.443	303.95
413.651	277.33
413.86	287.57
414.068	244.56
414.276	328.53
414.485	344.91
414.693	324.43
414.901	289.62
415.11	306
415.318	279.38
415.526	389.97
415.734	355.15
415.943	377.68
416.151	465.74
416.359	455.5
416.567	408.4
416.776	518.99
416.984	422.73
417.192	471.89
417.4	480.08
417.608	482.13
417.817	557.9
418.025	555.85
418.233	592.72
418.441	549.71
418.649	660.3
418.857	713.55
419.065	570.19
419.273	645.96
419.481	684.87
419.689	764.75
419.897	803.66
420.105	793.42
420.313	824.14
420.521	781.13
420.729	916.3
420.937	830.28
421.145	940.87
421.353	973.64
421.561	1039.17
421.769	963.4
421.977	1057.61
422.185	1045.32
422.393	1114.95
422.601	1139.52
422.809	1266.5
423.017	1188.68
423.224	1145.67
423.432	1262.4
423.64	1282.88
423.848	1338.18
424.056	1239.87
424.263	1502.01
424.471	1338.18
424.679	1557.31
424.887	1581.89
425.094	1628.99
425.302	1563.45
425.51	1647.42
425.718	1672
425.925	1635.13
426.133	1825.59
426.341	1925.94
426.548	1950.52
426.756	1911.61
426.964	1989.43
427.171	2097.97
427.379	2186.04
427.586	2190.13
427.794	2411.31
428.001	2351.92
428.209	2642.73
428.417	2452.27
428.624	2659.12
428.832	2753.32
429.039	2636.59
429.247	2665.26
429.454	2923.3
429.662	3115.81
429.869	2865.96
430.076	3099.43
430.284	2982.7
430.491	3046.18
430.699	3367.71
430.906	3263.27
431.114	3373.86
431.321	3459.87
431.528	3476.26
431.736	3742.49
431.943	3939.1
432.15	3660.57
432.358	3877.66
432.565	4018.97
432.772	4201.24
432.979	4373.27
433.187	4311.83
433.394	4289.3
433.601	4520.72
433.808	4625.17
434.016	4584.21
434.223	4662.03
434.43	5051.14
434.637	4975.37
434.844	5317.38
435.052	5454.59
435.259	5303.04
435.466	5479.17
435.673	5397.25
435.88	5792.51
436.087	6060.79
436.294	5950.2
436.501	5899
436.708	6019.83
436.915	6245.11
437.122	6470.39
437.329	6540.02
437.537	6808.3
437.743	6834.93
437.95	6867.69
438.157	7131.88
438.364	7262.95
438.571	7252.71
438.778	7441.12
438.985	8143.58
439.192	7709.41
439.399	8061.66
439.606	7731.94
439.813	8547.03
440.02	8678.1
440.227	8641.23
440.433	8438.48
440.64	8846.03
440.847	8684.24
441.054	8960.72
441.261	9530.05
441.467	9421.51
441.674	9779.9
441.881	10019.52
442.088	10103.48
442.294	10031.8
442.501	10238.65
442.708	10463.93
442.914	10719.92
443.121	11391.66
443.328	11039.4
443.534	11707.04
443.741	11475.62
443.948	11403.94
444.154	12171.93
444.361	12092.06
444.568	12212.89
444.774	12079.77
444.981	12413.59
445.187	12624.53
445.394	13103.76
445.6	13023.89
445.807	14369.4
446.013	13564.55
446.22	14039.68
446.426	14482.04
446.633	14666.36
446.839	15149.68
447.046	14553.72
447.252	15463.02
447.459	15393.39
447.665	15350.38
447.871	16198.24
448.078	17205.84
448.284	15983.2
448.491	16337.5
448.697	16773.72
448.903	17394.25
449.11	17334.86
449.316	16958.03
449.522	17472.07
449.728	17883.72
449.935	18303.55
450.141	18184.77
450.347	18774.58
450.553	18172.48
450.76	18393.66
450.966	18831.93
451.172	18565.69
451.378	19192.37
451.584	18567.74
451.791	19302.96
451.997	19063.35
452.203	19518
452.409	19378.73
452.615	19583.53
452.821	18694.71
453.027	18643.51
453.233	19767.85
453.44	18758.2
453.646	19194.42
453.852	18956.85
454.058	19634.73
454.264	18739.77
454.47	19186.22
454.676	18881.08
454.882	19458.6
455.088	17637.96
455.294	18129.47
455.5	18373.18
455.705	18498.11
455.911	17738.31
456.117	17445.45
456.323	17293.9
456.529	16310.88
456.735	16869.97
456.941	16591.45
457.147	16280.16
457.352	15907.43
457.558	15886.95
457.764	15778.4
457.97	15176.3
458.176	15225.45
458.381	15141.49
458.587	14160.51
458.793	14604.92
458.999	13544.07
459.204	14668.41
459.41	14377.59
459.616	13318.79
459.821	13413
460.027	13337.23
460.233	12978.83
460.438	12231.32
460.644	12511.89
460.85	11913.89
461.055	11618.98
461.261	11733.67
461.466	10777.26
461.672	10410.68
461.878	11209.39
462.083	10496.69
462.289	10373.82
462.494	10117.82
462.7	9673.41
462.905	9388.74
463.111	9910.97
463.316	9822.91
463.522	9802.43
463.727	9714.37
463.932	9630.4
464.138	9659.07
464.343	9505.48
464.549	9198.28
464.754	9745.09
464.959	9390.79
465.165	9591.49
465.37	9102.03
465.575	8868.56
465.781	9210.57
465.986	9229
466.191	8884.94
466.397	8790.74
466.602	8387.29
466.807	8604.37
467.012	8630.99
467.218	8385.24
467.423	8518.36
467.628	8553.17
467.833	8886.99
468.038	8626.9
468.244	8381.14
468.449	8499.92
468.654	8444.63
468.859	8383.19
469.064	8381.14
469.269	8016.6
469.474	8119
469.679	8260.31
469.885	7877.34
470.09	8073.95
470.295	7955.16
470.5	7746.27
470.705	7830.24
470.91	7719.65
471.115	7576.29
471.32	7643.87
471.525	7764.7
471.73	7598.82
471.935	7504.61
472.139	7324.39
472.344	7455.46
472.549	7271.14
472.754	7348.97
472.959	7183.08
473.164	7004.91
473.369	6679.28
473.574	7191.27
473.778	7045.87
473.983	6798.06
474.188	6918.89
474.393	6599.41
474.598	6718.19
474.802	6382.32
475.007	6552.31
475.212	6433.52
475.417	6187.77
475.621	6374.13
475.826	6370.04
476.031	6220.53
476.235	6261.49
476.44	6132.47
476.645	6075.13
476.849	5997.31
477.054	5964.54
477.259	6001.4
477.463	6046.46
477.668	5790.46
477.872	5892.86
478.077	5769.98
478.282	5675.77
478.486	5577.47
478.691	5540.61
478.895	5610.24
479.1	5470.98
479.304	5548.8
479.509	5284.61
479.713	5454.59
479.918	5253.89
480.122	5167.88
480.326	5387.01
480.531	5393.16
480.735	5184.26
480.94	5188.36
481.144	5223.17
481.348	4983.56
481.553	5053.19
481.757	5028.62
481.961	5171.97
482.166	5202.69
482.37	5221.13
482.574	5157.64
482.778	5128.97
482.983	5157.64
483.187	5280.52
483.391	5028.62
483.595	5128.97
483.8	4963.08
484.004	5094.15
484.208	5227.27
484.412	4944.65
484.616	4973.32
484.821	5200.65
485.025	5061.38
485.229	5243.65
485.433	4985.61
485.637	5114.63
485.841	5163.78
486.045	5042.95
486.249	5067.53
486.453	5151.49
486.657	5133.06
486.861	5202.69
487.065	4973.32
487.269	5120.78
487.473	4999.95
487.677	5143.3
487.881	5110.54
488.085	5075.72
488.289	5157.64
488.493	5171.97
488.697	5274.37
488.901	5071.62
489.105	5169.93
489.309	5073.67
489.512	5163.78
489.716	5133.06
489.92	5231.37
490.124	5098.25
490.328	5301
490.531	5124.87
490.735	5204.74
490.939	5331.72
491.143	5313.28
491.346	5163.78
491.55	5444.35
491.754	5301
491.958	5489.41
492.161	5286.66
492.365	5303.04
492.569	5466.88
492.772	5511.94
492.976	5561.09
493.18	5698.3
493.383	5700.35
493.587	5710.59
493.79	5630.72
493.994	5638.91
494.197	5690.11
494.401	5849.85
494.605	5815.04
494.808	5722.88
495.012	5739.26
495.215	5929.72
495.419	5937.91
495.622	5972.73
495.825	5948.15
496.029	6185.72
496.232	6294.26
496.436	6286.07
496.639	6372.08
496.843	6241.01
497.046	6384.37
497.249	6578.93
497.453	6382.32
497.656	6824.69
497.859	6673.14
498.063	6710
498.266	6847.21
498.469	6908.65
498.673	6898.41
498.876	7154.41
499.079	6890.22
499.282	7017.19
499.485	7365.35
499.689	7226.09
499.892	7406.31
500.095	7428.84
500.298	7604.96
500.501	7707.36
500.705	7815.9
500.908	7865.05
501.111	7811.81
501.314	7996.12
501.517	8071.9
501.72	8297.17
501.923	8168.15
502.126	8567.51
502.329	8608.47
502.532	8567.51
502.735	8651.47
502.938	8764.11
503.141	8913.61
503.344	8948.43
503.547	8997.58
503.75	9138.89
503.953	9560.77
504.156	9335.49
504.359	9315.02
504.562	9505.48
504.765	9810.62
504.968	9882.3
505.17	9933.5
505.373	9956.03
505.576	10283.7
505.779	10398.39
505.982	10535.6
506.185	10728.11
506.387	10758.83
506.59	10687.15
506.793	11049.64
506.996	11113.13
507.198	11258.54
507.401	11358.89
507.604	11455.14
507.807	11592.36
508.009	11721.38
508.212	11647.65
508.415	11909.79
508.617	12018.33
508.82	12307.1
509.022	12264.09
509.225	12515.99
509.428	12640.92
509.63	12937.87
509.833	12804.75
510.035	13331.08
510.238	13226.64
510.44	13320.84
510.643	13539.97
510.845	13691.52
511.048	13582.98
511.25	14109.31
511.453	14058.11
511.655	14543.48
511.858	14267
512.06	14342.78
512.262	14858.87
512.465	14668.41
512.667	14940.79
512.87	15252.08
513.072	15403.63
513.274	15456.87
513.477	15604.33
513.679	15686.25
513.881	15934.05
514.084	16267.87
514.286	16366.17
514.488	16427.61
514.69	16931.41
514.893	17052.24
515.095	16863.83
515.297	16921.17
515.499	17214.03
515.701	17113.68
515.904	17842.76
516.106	17846.85
516.308	17977.92
516.51	18371.13
516.712	18326.08
516.914	18483.77
517.116	19118.64
517.318	18852.41
517.52	19251.76
517.722	19315.25
517.925	19552.81
518.127	19550.76
518.329	19878.44
518.531	19675.69
518.733	20087.33
518.935	20150.82
519.136	20372
519.338	20703.77
519.54	20771.35
519.742	20927
519.944	20888.09
520.146	21158.42
520.348	21514.77
520.55	21846.54
520.752	21940.74
520.954	21928.45
521.155	21895.69
521.357	22311.42
521.559	22501.89
521.761	23063.03
521.963	22899.19
522.164	22698.49
522.366	23204.34
522.568	23241.2
522.77	23611.89
522.971	23890.41
523.173	23638.51
523.375	23974.38
523.576	24156.64
523.778	24044.01
523.98	24429.02
524.181	24625.63
524.383	24590.81
524.584	24906.2
524.786	24947.16
524.988	25143.77
525.189	25309.65
525.391	25342.42
525.592	25573.84
525.794	25788.88
525.995	25629.13
526.197	25866.7
526.398	25666
526.6	25962.95
526.801	26214.85
527.003	26114.5
527.204	26169.8
527.406	26601.92
527.607	26235.33
527.808	26595.78
528.01	26464.71
528.211	26630.59
528.412	27058.62
528.614	26823.1
528.815	27191.73
529.016	27599.28
529.218	26995.13
529.419	27505.07
529.62	27287.99
529.822	27134.39
530.023	27464.11
530.224	27494.83
530.425	27625.9
530.626	27363.76
530.828	27406.77
531.029	27759.02
531.23	27576.75
531.431	27586.99
531.632	28010.92
531.833	27982.25
532.035	27720.11
532.236	27955.63
532.437	28332.45
532.638	28058.03
532.839	27992.49
533.04	27918.76
533.241	27859.37
533.442	28246.44
533.643	28139.94
533.844	27939.24
534.045	28160.42
534.246	28264.87
534.447	28268.97
534.648	28146.09
534.849	28060.07
535.05	28041.64
535.251	28047.79
535.451	28072.36
535.652	28506.53
535.853	28281.25
536.054	28352.93
536.255	28594.59
536.456	27943.34
536.657	28674.46
536.857	28088.74
537.058	28287.4
537.259	28410.28
537.46	28383.65
537.66	28211.62
537.861	28502.43
538.062	28277.16
538.263	28148.14
538.463	28154.28
538.664	28471.71
538.865	28383.65
539.065	28279.21
539.266	28365.22
539.466	28135.85
539.667	28236.2
539.868	28762.53
540.068	28316.07
540.269	28494.24
540.469	28502.43
540.67	28131.75
540.87	28430.76
541.071	28203.43
541.271	28348.84
541.472	28410.28
541.672	28391.84
541.873	28256.68
542.073	27820.46
542.274	28297.64
542.474	28324.26
542.675	28346.79
542.875	28324.26
543.075	28225.96
543.276	27828.65
543.476	28461.48
543.676	27806.13
543.877	28330.41
544.077	28539.3
544.277	28318.12
544.478	27974.06
544.678	28733.85
544.878	28232.1
545.078	28316.07
545.279	27972.01
545.479	28135.85
545.679	28154.28
545.879	28090.79
546.079	28000.68
546.28	28238.25
546.48	28033.45
546.68	28092.84
546.88	28211.62
547.08	28363.17
547.28	27586.99
547.48	28318.12
547.68	28080.55
547.88	28113.32
548.081	28293.54
548.281	27865.52
548.481	28248.49
548.681	28187.05
548.881	28047.79
549.081	27851.18
549.28	27967.91
549.48	27951.53
549.68	28252.58
549.88	28344.74
550.08	27998.63
550.28	28064.17
550.48	28017.07
550.68	28123.56
550.88	28133.8
551.08	27933.1
551.279	28223.91
551.479	28115.37
551.679	28391.84
551.879	27713.97
552.079	28047.79
552.278	27818.41
552.478	27980.2
552.678	27898.28
552.878	27777.45
553.077	27875.76
553.277	27931.05
553.477	28199.34
553.676	27662.77
553.876	27718.06
554.076	27896.24
554.275	27552.18
554.475	27855.28
554.674	27767.21
554.874	27726.25
555.074	27773.36
555.273	27871.66
555.473	27601.33
555.672	27357.62
555.872	27900.33
556.071	27830.7
556.271	27910.57
556.47	27365.81
556.67	27609.52
556.869	27566.51
557.068	27543.99
557.268	27238.84
557.467	27365.81
557.667	27619.76
557.866	27767.21
558.065	27417.01
558.265	27075
558.464	27312.56
558.663	27398.58
558.863	26862.01
559.062	27445.68
559.261	26907.07
559.461	27320.76
559.66	26812.86
559.859	26939.83
560.058	26980.79
560.258	27388.34
560.457	26849.72
560.656	26972.6
560.855	26950.07
561.054	27025.85
561.253	26843.58
561.453	26827.2
561.652	27271.61
561.851	27118.01
562.05	26581.44
562.249	26520
562.448	26892.73
562.647	26661.31
562.846	26890.68
563.045	26644.93
563.244	26423.75
563.443	26603.97
563.642	26485.19
563.841	26347.97
564.04	26345.92
564.239	26812.86
564.438	25969.1
564.637	26427.84
564.836	26259.91
565.035	25731.53
565.234	26337.73
565.432	25659.85
565.631	25885.13
565.83	25754.06
566.029	25913.8
566.228	26184.13
566.427	25819.6
566.625	25612.75
566.824	25768.4
567.023	25711.05
567.222	25164.25
567.42	25936.33
567.619	25682.38
567.818	25438.67
568.016	25416.15
568.215	25756.11
568.414	25317.84
568.612	25326.03
568.811	24879.58
569.01	25201.11
569.208	24721.88
569.407	24930.78
569.605	24881.63
569.804	25000.41
570.002	24816.09
570.201	25063.89
570.4	24877.53
570.598	24687.07
570.797	24484.32
570.995	24418.78
571.193	24627.68
571.392	24596.96
571.59	24295.91
571.789	24117.73
571.987	24228.32
572.186	23931.37
572.384	23765.48
572.582	24590.81
572.781	24140.26
572.979	23849.45
573.177	24132.07
573.376	23966.18
573.574	23921.13
573.772	23740.91
573.971	23669.23
574.169	23732.72
574.367	23345.65
574.565	23681.52
574.763	23529.97
574.962	23439.86
575.16	23142.9
575.358	23413.23
575.556	23161.33
575.754	23554.54
575.952	22712.83
576.151	23261.68
576.349	23015.93
576.547	23050.74
576.745	22860.28
576.943	22856.18
577.141	22907.38
577.339	22794.75
577.537	22663.68
577.735	22604.28
577.933	22278.66
578.131	22448.64
578.329	22331.9
578.527	22221.31
578.725	22374.91
578.923	22284.8
579.121	21993.99
579.319	22026.76
579.516	22356.48
579.714	21918.21
579.912	22161.92
580.11	22008.33
580.308	21891.59
580.506	21797.38
580.704	21461.52
580.901	21680.65
581.099	21848.58
581.297	21426.7
581.495	21391.89
581.692	21885.45
581.89	21387.79
582.088	21340.69
582.285	21154.32
582.483	21436.94
582.681	21303.82
582.878	21178.9
583.076	21096.98
583.274	21168.66
583.471	20886.04
583.669	20763.16
583.866	20791.83
584.064	21180.95
584.262	20458.01
584.459	21080.6
584.657	20490.78
584.854	20689.43
585.052	20029.99
585.249	20439.58
585.447	20478.49
585.644	20335.14
585.841	20328.99
586.039	20615.71
586.236	20306.46
586.434	20064.8
586.631	20040.23
586.828	19982.88
587.026	20189.73
587.223	20130.34
587.42	19827.24
587.618	19757.61
587.815	19679.79
588.012	19722.79
588.21	19759.66
588.407	19862.05
588.604	19618.35
588.801	19745.32
588.999	19397.17
589.196	19286.58
589.393	19642.92
589.59	19116.59
589.787	18973.24
589.984	19214.9
590.182	19044.91
590.379	19153.46
590.576	18700.86
590.773	19102.26
590.97	19081.78
591.167	18827.83
591.364	18758.2
591.561	18997.81
591.758	18754.1
591.955	18471.48
592.152	18717.24
592.349	18416.19
592.546	18704.95
592.743	18233.92
592.94	18381.37
593.137	18291.26
593.334	18358.85
593.531	18145.86
593.727	18344.51
593.924	18158.14
594.121	18092.61
594.318	17936.96
594.515	18061.89
594.712	17738.31
594.908	17992.26
595.105	18018.88
595.302	17822.28
595.499	17613.38
595.696	17848.9
595.892	17470.03
596.089	17676.87
596.286	17580.62
596.482	17443.4
596.679	17588.81
596.876	17373.77
597.072	17154.64
597.269	17601.1
597.466	17304.14
597.662	17113.68
597.859	16943.7
598.055	16753.24
598.252	17078.86
598.448	16814.68
598.645	17154.64
598.841	16568.92
599.038	16743
599.234	16908.88
599.431	16587.35
599.627	16534.11
599.824	16833.11
600.02	16616.02
600.217	16579.16
600.413	16624.22
600.609	16403.04
600.806	16319.07
601.002	16482.91
601.198	16110.18
601.395	16126.56
601.591	16271.97
601.787	16114.27
601.984	16003.68
602.18	16302.68
602.376	15813.22
602.572	15798.88
602.769	15741.54
602.965	15764.07
603.161	15702.63
603.357	15573.61
603.553	15682.15
603.75	15612.52
603.946	15426.15
604.142	15868.52
604.338	15411.82
604.534	15473.26
604.73	15329.9
604.926	15215.21
605.122	15338.09
605.318	15352.43
605.514	15131.25
605.71	15157.87
605.906	15297.13
606.102	14879.35
606.298	15116.91
606.494	15174.25
606.69	15114.86
606.886	15061.62
607.082	14776.95
607.278	14772.85
607.474	14830.2
607.67	14801.52
607.866	14697.08
608.062	14908.02
608.257	14678.65
608.453	14754.42
608.649	14703.22
608.845	14570.1
609.041	14697.08
609.236	14613.11
609.432	14289.53
609.628	14623.35
609.824	14686.84
610.019	14467.7
610.215	14572.15
610.411	14563.96
610.606	14078.59
610.802	14439.03
610.998	14166.65
611.193	14447.22
611.389	13959.81
611.584	14176.89
611.78	14383.74
611.976	14115.45
612.171	14307.96
612.367	13996.67
612.562	13906.56
612.758	13818.5
612.953	13740.68
613.149	14056.06
613.344	13814.4
613.539	13988.48
613.735	13683.33
613.93	13691.52
614.126	13728.39
614.321	14011.01
614.517	13824.64
614.712	13625.99
614.907	13433.48
615.103	13644.42
615.298	13386.38
615.493	13609.61
615.688	13654.66
615.884	13728.39
616.079	13478.54
616.274	13243.02
616.47	13396.62
616.665	13294.22
616.86	13316.75
617.055	13234.83
617.25	13294.22
617.445	13347.47
617.641	12954.26
617.836	13159.05
618.031	13193.87
618.226	13001.36
618.421	13228.68
618.616	12804.75
618.811	12929.68
619.006	13083.28
619.201	12765.84
619.396	12814.99
619.591	12794.51
619.786	12700.31
619.981	12413.59
620.176	12761.75
620.371	12483.22
620.566	12608.15
620.761	12460.7
620.956	12444.31
621.151	12235.42
621.346	12348.06
621.541	12024.48
621.735	12235.42
621.93	12001.95
622.125	12282.52
622.32	11944.61
622.515	12100.25
622.709	11979.42
622.904	11418.28
623.099	11827.87
623.294	11987.61
623.488	11393.7
623.683	11500.2
623.878	11233.96
624.072	11449
624.267	11633.32
624.462	11389.61
624.656	11430.57
624.851	11205.29
625.046	11242.15
625.24	11035.31
625.435	10967.73
625.629	10916.53
625.824	11000.49
626.018	11031.21
626.213	10660.53
626.407	10703.54
626.602	10562.23
626.796	10623.67
626.991	10674.87
627.185	10730.16
627.38	10494.65
627.574	10255.03
627.768	10164.92
627.963	10164.92
628.157	10164.92
628.352	10105.53
628.546	9974.46
628.74	10228.41
628.935	10097.34
629.129	9906.88
629.323	9976.51
629.517	9878.21
629.712	10009.28
629.906	9806.53
630.1	9583.3
630.294	9706.18
630.489	9689.79
630.683	9648.83
630.877	9505.48
631.071	9259.72
631.265	9284.3
631.459	9349.83
631.653	9349.83
631.848	9374.41
632.042	9159.37
632.236	9298.63
632.43	8948.43
632.624	9245.38
632.818	9032.4
633.012	8930
633.206	9122.51
633.4	9093.83
633.594	8827.6
633.788	8807.12
633.982	8731.34
634.176	8946.38
634.369	8762.06
634.563	8723.15
634.757	8547.03
634.951	8602.32
635.145	8471.25
635.339	8520.4
635.533	8420.05
635.726	8704.72
635.92	8362.71
636.114	8575.7
636.308	8205.02
636.501	8221.4
636.695	8297.17
636.889	8092.38
637.083	8192.73
637.276	8047.32
637.47	8065.75
637.664	7920.35
637.857	8002.27
638.051	7811.81
638.244	7901.92
638.438	7996.12
638.632	7817.95
638.825	7617.25
639.019	7512.8
639.212	7660.26
639.406	7539.43
639.599	7588.58
639.793	7742.18
639.986	7232.23
640.18	7416.55
640.373	7371.49
640.567	7400.16
640.76	7322.34
640.954	7082.73
641.147	7279.33
641.34	7240.42
641.534	7312.1
641.727	6888.17
641.92	7244.52
642.114	7049.96
642.307	7056.11
642.5	6855.4
642.694	6783.73
642.887	6789.87
643.08	6843.12
643.273	6744.81
643.467	6728.43
643.66	6773.49
643.853	6746.86
644.046	6531.83
644.239	6626.03
644.432	6568.69
644.626	6458.1
644.819	6333.17
645.012	6564.59
645.205	6413.04
645.398	6304.5
645.591	6204.15
645.784	6290.17
645.977	6290.17
646.17	6300.41
646.363	6068.98
646.556	6109.94
646.749	6118.14
646.942	5985.02
647.135	5954.3
647.328	5989.11
647.521	5892.86
647.714	5954.3
647.907	5810.94
648.099	5937.91
648.292	5800.7
648.485	5827.32
648.678	5716.73
648.871	5587.71
649.064	5554.94
649.256	5774.08
649.449	5636.86
649.642	5647.1
649.835	5511.94
650.027	5552.9
650.22	5579.52
650.413	5499.65
650.605	5634.82
650.798	5470.98
650.991	5446.4
651.183	5315.33
651.376	5298.95
651.568	5329.67
651.761	5198.6
651.954	5307.14
652.146	5190.41
652.339	4979.47
652.531	5159.69
652.724	5061.38
652.916	5047.05
653.109	5057.29
653.301	4899.59
653.494	5071.62
653.686	4924.17
653.879	4868.88
654.071	5081.86
654.263	4922.12
654.456	4954.89
654.648	4875.02
654.84	4823.82
655.033	4883.21
655.225	4821.77
655.417	4731.66
655.61	4764.43
655.802	4903.69
655.994	4752.14
656.186	4735.76
656.379	4543.25
656.571	4602.64
656.763	4539.15
656.955	4537.1
657.148	4479.76
657.34	4541.2
657.532	4492.05
657.724	4463.38
657.916	4565.78
658.108	4381.46
658.3	4416.27
658.492	4457.23
658.684	4383.51
658.876	4211.48
659.068	4264.72
659.26	4299.54
659.452	4344.6
659.644	4252.44
659.836	4150.04
660.028	4047.64
660.22	4100.89
660.412	4016.92
660.604	4082.46
660.796	3943.19
660.988	4025.11
661.18	4092.69
661.372	3953.43
661.563	4152.09
661.755	3801.88
661.947	3998.49
662.139	3955.48
662.331	3959.58
662.522	3789.6
662.714	3848.99
662.906	3898.14
663.097	3765.02
663.289	3838.75
663.481	3744.54
663.673	3791.64
663.864	3707.68
664.056	3717.92
664.247	3668.77
664.439	3584.8
664.631	3629.85
664.822	3570.46
665.014	3543.84
665.205	3578.65
665.397	3482.4
665.588	3627.81
665.78	3519.26
665.971	3472.16
666.163	3521.31
666.354	3443.49
666.546	3402.53
666.737	3304.23
666.929	3375.91
667.12	3480.35
667.311	3418.91
667.503	3359.52
667.694	3355.43
667.885	3373.86
668.077	3463.97
668.268	3228.45
668.459	3316.51
668.651	3382.05
668.842	3181.35
669.033	3293.99
669.224	3199.78
669.416	3269.41
669.607	3124.01
669.798	3054.37
669.989	3126.05
670.18	3117.86
670.371	2997.03
670.563	3113.77
670.754	3040.04
670.945	2949.93
671.136	3238.69
671.327	3050.28
671.518	3124.01
671.709	3040.04
671.9	3218.21
672.091	3081
672.282	3009.32
672.473	2997.03
672.664	2945.83
672.855	2902.83
673.046	2861.87
673.237	2935.59
673.428	2872.11
673.619	3017.51
673.809	2837.29
674	2917.16
674.191	2927.4
674.382	2886.44
674.573	3054.37
674.764	2861.87
674.954	2763.56
675.145	2763.56
675.336	2884.39
675.527	2771.76
675.717	2777.9
675.908	2843.43
676.099	2722.6
676.289	2822.95
676.48	2671.4
676.671	2769.71
676.861	2757.42
677.052	2798.38
677.243	2669.36
677.433	2669.36
677.624	2679.6
677.814	2665.26
678.005	2544.43
678.195	2698.03
678.386	2747.18
678.576	2657.07
678.767	2767.66
678.957	2507.57
679.148	2775.85
679.338	2548.53
679.529	2564.91
679.719	2650.92
679.909	2716.46
680.1	2614.06
680.29	2620.21
680.481	2603.82
680.671	2667.31
680.861	2616.11
681.052	2556.72
681.242	2659.12
681.432	2640.69
681.622	2556.72
681.813	2560.81
682.003	2616.11
682.193	2505.52
682.383	2509.62
682.573	2493.23
682.764	2495.28
682.954	2575.15
683.144	2540.33
683.334	2573.1
683.524	2444.08
683.714	2507.57
683.904	2433.84
684.094	2446.13
684.284	2491.18
684.474	2521.9
684.664	2583.34
684.854	2585.39
685.044	2444.08
685.234	2511.66
685.424	2435.89
685.614	2470.7
685.804	2390.83
685.994	2409.26
686.184	2523.95
686.374	2548.53
686.564	2390.83
686.753	2515.76
686.943	2360.11
687.133	2446.13
687.323	2421.55
687.513	2413.36
687.702	2450.22
687.892	2433.84
688.082	2407.22
688.272	2308.91
688.461	2460.46
688.651	2439.98
688.841	2323.25
689.03	2313.01
689.22	2341.68
689.41	2247.48
689.599	2331.44
689.789	2372.4
689.979	2224.95
690.168	2378.55
690.358	2454.32
690.547	2282.29
690.737	2325.3
690.926	2308.91
691.116	2247.48
691.305	2335.54
691.495	2437.94
691.684	2227
691.874	2337.59
692.063	2313.01
692.252	2175.8
692.442	2419.5
692.631	2227
692.82	2292.53
693.01	2231.09
693.199	2216.76
693.388	2253.62
693.578	2229.04
693.767	2310.96
693.956	2114.36
694.146	2251.57
694.335	2171.7
694.524	2188.08
694.713	2175.8
694.902	2214.71
695.092	2181.94
695.281	2173.75
695.47	2212.66
695.659	2188.08
695.848	2077.49
696.037	2122.55
696.226	2040.63
696.415	2286.39
696.604	2038.58
696.793	2059.06
696.982	2204.47
697.171	2116.41
697.36	2061.11
697.549	2161.46
697.738	2177.84
697.927	2112.31
698.116	2155.32
698.305	2075.45
698.494	2192.18
698.683	2138.93
698.872	2110.26
699.061	2063.16
699.25	2063.16
699.438	2089.78
699.627	2026.29
699.816	2028.34
700.005	2097.97
700.193	2073.4
700.382	2163.51
700.571	2026.29
700.76	2059.06
700.948	2018.1
701.137	2026.29
701.326	2128.69
701.514	2046.77
701.703	1977.14
701.892	2061.11
702.08	2026.29
702.269	2073.4
702.457	1938.23
702.646	2030.39
702.834	2026.29
703.023	2024.25
703.212	1884.98
703.4	1936.18
703.589	1882.94
703.777	1981.24
703.965	1841.98
704.154	1960.76
704.342	1893.18
704.531	1899.32
704.719	1889.08
704.907	1966.9
705.096	1880.89
705.284	1925.94
705.472	1942.33
705.661	1991.48
705.849	1944.38
706.037	1915.7
706.226	1934.14
706.414	1854.27
706.602	1893.18
706.79	1874.74
706.979	1870.65
707.167	1880.89
707.355	1858.36
707.543	1891.13
707.731	1919.8
707.919	1956.66
708.107	1809.21
708.296	1932.09
708.484	1833.79
708.672	1876.79
708.86	1893.18
709.048	1921.85
709.236	1895.22
709.424	1850.17
709.612	1778.49
709.8	1831.74
709.988	1745.72
710.176	1919.8
710.364	1809.21
710.551	1770.3
710.739	1833.79
710.927	1721.15
711.115	1778.49
711.303	1686.33
711.491	1768.25
711.679	1803.07
711.866	1823.55
712.054	1760.06
712.242	1766.2
712.43	1690.43
712.617	1704.76
712.805	1751.87
712.993	1813.31
713.181	1680.19
713.368	1663.8
713.556	1801.02
713.744	1676.09
713.931	1770.3
714.119	1721.15
714.306	1751.87
714.494	1749.82
714.682	1725.24
714.869	1569.6
715.057	1665.85
715.244	1641.28
715.432	1762.11
715.619	1653.56
715.807	1706.81
715.994	1639.23
716.182	1753.91
716.369	1651.52
716.556	1682.24
716.744	1565.5
716.931	1538.88
717.119	1696.57
717.306	1667.9
717.493	1649.47
717.681	1604.41
717.868	1547.07
718.055	1721.15
718.242	1649.47
718.43	1616.7
718.617	1559.36
718.804	1493.82
718.991	1540.93
719.179	1598.27
719.366	1678.14
719.553	1606.46
719.74	1481.53
719.927	1583.93
720.114	1633.08
720.301	1596.22
720.488	1532.73
720.676	1577.79
720.863	1536.83
721.05	1506.11
721.237	1557.31
721.424	1532.73
721.611	1647.42
721.798	1483.58
721.985	1690.43
722.172	1520.45
722.358	1551.17
722.545	1565.5
722.732	1407.81
722.919	1502.01
723.106	1534.78
723.293	1610.56
723.48	1514.3
723.667	1403.71
723.853	1508.16
724.04	1547.07
724.227	1471.29
724.414	1524.54
724.6	1483.58
724.787	1465.15
724.974	1385.28
725.161	1434.43
725.347	1512.25
725.534	1407.81
725.72	1522.49
725.907	1418.05
726.094	1514.3
726.28	1432.38
726.467	1344.32
726.653	1473.34
726.84	1489.73
727.027	1485.63
727.213	1463.1
727.4	1430.34
727.586	1422.14
727.773	1442.62
727.959	1366.85
728.145	1491.77
728.332	1362.75
728.518	1448.77
728.705	1426.24
728.891	1405.76
729.077	1463.1
729.264	1442.62
729.45	1411.9
729.636	1327.94
729.823	1311.55
730.009	1387.33
730.195	1366.85
730.382	1432.38
730.568	1442.62
730.754	1432.38
730.94	1393.47
731.126	1338.18
731.313	1463.1
731.499	1426.24
731.685	1352.51
731.871	1475.39
732.057	1278.79
732.243	1452.86
732.429	1372.99
732.615	1424.19
732.801	1317.7
732.987	1385.28
733.173	1370.94
733.359	1346.37
733.545	1344.32
733.731	1311.55
733.917	1377.09
734.103	1356.61
734.289	1407.81
734.475	1368.9
734.661	1338.18
734.847	1368.9
735.033	1323.84
735.219	1338.18
735.404	1391.42
735.59	1219.39
735.776	1377.09
735.962	1272.64
736.148	1383.23
736.333	1303.36
736.519	1356.61
736.705	1227.59
736.89	1393.47
737.076	1334.08
737.262	1221.44
737.447	1291.07
737.633	1332.03
737.819	1336.13
738.004	1260.35
738.19	1260.35
738.375	1233.73
738.561	1350.46
738.747	1278.79
738.932	1348.42
739.118	1274.69
739.303	1297.22
739.489	1307.46
739.674	1198.92
739.859	1272.64
740.045	1243.97
740.23	1258.31
740.416	1276.74
740.601	1301.31
740.786	1256.26
740.972	1286.98
741.157	1268.55
741.342	1196.87
741.528	1207.11
741.713	1188.68
741.898	1211.2
742.084	1196.87
742.269	1262.4
742.454	1141.57
742.639	1276.74
742.824	1170.24
743.01	1276.74
743.195	1151.81
743.38	1209.15
743.565	1186.63
743.75	1176.39
743.935	1051.46
744.12	1145.67
744.305	1123.14
744.49	1100.61
744.675	1182.53
744.86	1043.27
745.045	1114.95
745.23	1018.69
745.415	1196.87
745.6	1172.29
745.785	1166.15
745.97	1170.24
746.155	1188.68
746.34	1211.2
746.525	1067.85
746.71	1129.28
746.895	1078.08
747.079	1069.89
747.264	1073.99
747.449	1082.18
747.634	932.68
747.819	1094.47
748.003	1131.33
748.188	1037.13
748.373	1082.18
748.557	1010.5
748.742	910.15
748.927	936.78
749.111	1045.32
749.296	979.78
749.481	1078.08
749.665	1039.17
749.85	957.25
750.034	1033.03
750.219	1014.6
750.404	1030.98
750.588	967.49
750.773	936.78
750.957	1016.65
751.141	940.87
751.326	938.82
751.51	930.63
751.695	922.44
751.879	924.49
752.064	930.63
752.248	842.57
752.432	918.34
752.617	922.44
752.801	908.1
752.985	965.45
753.17	992.07
753.354	910.15
753.538	867.14
753.722	934.73
753.907	793.42
754.091	899.91
754.275	897.86
754.459	842.57
754.643	940.87
754.828	795.47
755.012	807.75
755.196	871.24
755.38	815.94
755.564	762.7
755.748	877.38
755.932	801.61
756.116	772.94
756.3	824.14
756.484	777.03
756.668	787.27
756.852	885.58
757.036	699.21
757.22	785.23
757.404	848.71
757.588	787.27
757.772	717.64
757.956	762.7
758.14	734.03
758.323	709.45
758.507	793.42
758.691	703.31
758.875	674.64
759.059	697.16
759.242	762.7
759.426	678.73
759.61	734.03
759.794	703.31
759.977	721.74
760.161	711.5
760.345	703.31
760.528	764.75
760.712	682.83
760.895	623.44
761.079	725.83
761.263	662.35
761.446	596.81
761.63	637.77
761.813	695.11
761.997	697.16
762.18	637.77
762.364	703.31
762.547	584.52
762.731	598.86
762.914	600.91
763.098	666.44
763.281	674.64
763.464	668.49
763.648	590.67
763.831	650.06
764.015	555.85
764.198	607.05
764.381	605
764.564	607.05
764.748	617.29
764.931	648.01
765.114	580.43
765.297	617.29
765.481	566.09
765.664	533.33
765.847	613.2
766.03	631.63
766.213	598.86
766.397	631.63
766.58	551.76
766.763	588.62
766.946	510.8
767.129	652.11
767.312	551.76
767.495	580.43
767.678	545.61
767.861	564.04
768.044	562
768.227	641.87
768.41	594.76
768.593	506.7
768.776	582.48
768.959	572.24
769.142	576.33
769.324	621.39
769.507	523.09
769.69	516.94
769.873	478.03
770.056	553.8
770.239	500.56
770.421	615.24
770.604	533.33
770.787	547.66
770.97	461.65
771.152	512.85
771.335	537.42
771.518	553.8
771.7	529.23
771.883	615.24
772.066	523.09
772.248	506.7
772.431	551.76
772.613	516.94
772.796	529.23
772.978	467.79
773.161	467.79
773.343	566.09
773.526	541.52
773.708	443.21
773.891	461.65
774.073	482.13
774.256	437.07
774.438	568.14
774.621	441.17
774.803	486.22
774.985	480.08
775.168	504.65
775.35	465.74
775.532	420.69
775.715	455.5
775.897	469.84
776.079	432.97
776.261	416.59
776.444	447.31
776.626	414.54
776.808	473.93
776.99	490.32
777.173	478.03
777.355	387.92
777.537	488.27
777.719	451.41
777.901	379.73
778.083	453.45
778.265	435.02
778.447	418.64
778.629	402.26
778.811	367.44
778.993	340.82
779.175	422.73
779.357	432.97
779.539	344.91
779.721	359.25
779.903	435.02
780.085	377.68
780.267	373.58
780.449	389.97
780.631	324.43
780.812	424.78
780.994	404.3
781.176	406.35
781.358	326.48
781.54	279.38
781.721	357.2
781.903	371.54
782.085	353.1
782.267	314.19
782.448	404.3
782.63	312.14
782.812	306
782.993	244.56
783.175	281.43
783.357	281.43
783.538	293.71
783.72	326.48
783.901	361.3
784.083	330.58
784.264	349.01
784.446	228.18
784.627	373.58
784.809	244.56
784.99	312.14
785.172	291.66
785.353	301.9
785.535	226.13
785.716	273.23
785.897	250.71
786.079	275.28
786.26	224.08
786.441	273.23
786.623	306
786.804	381.78
786.985	346.96
787.167	340.82
787.348	277.33
787.529	254.8
787.71	357.2
787.891	185.17
788.073	256.85
788.254	289.62
788.435	248.66
788.616	312.14
788.797	213.84
788.978	172.88
789.159	211.79
789.34	199.51
789.522	240.47
789.703	166.74
789.884	256.85
790.065	207.7
790.246	160.59
790.427	201.55
790.607	211.79
790.788	185.17
790.969	246.61
791.15	152.4
791.331	191.31
791.512	215.89
791.693	193.36
791.874	174.93
792.054	207.7
792.235	205.65
792.416	187.22
792.597	150.36
792.778	197.46
792.958	267.09
793.139	256.85
793.32	258.9
793.5	201.55
793.681	199.51
793.862	260.95
794.042	197.46
794.223	213.84
794.404	162.64
794.584	172.88
794.765	187.22
794.945	131.92
795.126	256.85
795.306	215.89
795.487	226.13
795.667	138.07
795.848	166.74
796.028	162.64
796.209	150.36
796.389	148.31
796.57	211.79
796.75	193.36
796.93	136.02
797.111	136.02
797.291	185.17
797.471	144.21
797.652	129.88
797.832	238.42
798.012	187.22
798.192	207.7
798.373	146.26
798.553	133.97
798.733	148.31
798.913	189.27
799.093	140.12
799.274	146.26
799.454	203.6
799.634	119.64
799.814	150.36
799.994	125.78
800.174	166.74
800.354	95.06
800.534	129.88
800.714	107.35
800.894	148.31
801.074	90.96
801.254	164.69
801.434	84.82
801.614	156.5
801.794	80.72
801.974	363.34
802.154	170.83
802.334	107.35
802.514	78.68
802.693	187.22
802.873	123.73
803.053	133.97
803.233	191.31
803.413	232.27
803.592	88.92
803.772	45.91
803.952	39.76
804.131	90.96
804.311	109.4
804.491	97.11
804.67	105.3
804.85	154.45
805.03	160.59
805.209	113.49
805.389	93.01
805.568	121.68
805.748	148.31
805.928	113.49
806.107	140.12
806.287	174.93
806.466	125.78
806.646	97.11
806.825	84.82
807.004	111.44
807.184	113.49
807.363	78.68
807.543	162.64
807.722	109.4
807.901	174.93
808.081	68.44
808.26	138.07
808.439	133.97
808.619	107.35
808.798	101.2
808.977	66.39
809.156	72.53
809.336	97.11
809.515	125.78
809.694	121.68
809.873	179.03
810.052	76.63
810.231	97.11
810.411	60.24
810.59	144.21
810.769	125.78
810.948	43.86
811.127	80.72
811.306	113.49
811.485	58.2
811.664	144.21
811.843	152.4
812.022	146.26
812.201	76.63
812.38	170.83
812.559	117.59
812.737	170.83
812.916	64.34
813.095	35.67
813.274	154.45
813.453	93.01
813.632	111.44
813.811	31.57
813.989	113.49
814.168	58.2
814.347	86.87
814.526	138.07
814.704	86.87
814.883	109.4
815.062	70.48
815.24	99.16
815.419	138.07
815.598	68.44
815.776	70.48
815.955	117.59
816.133	93.01
816.312	127.83
816.49	45.91
816.669	76.63
816.847	66.39
817.026	99.16
817.204	21.33
817.383	119.64
817.561	97.11
817.74	60.24
817.918	74.58
818.097	25.43
818.275	93.01
818.453	88.92
818.632	107.35
818.81	133.97
818.988	88.92
819.167	105.3
819.345	31.57
819.523	129.88
819.701	27.48
819.879	78.68
820.058	60.24
820.236	74.58
820.414	60.24
820.592	56.15
820.77	78.68
820.948	86.87
821.127	74.58
821.305	2.9
821.483	97.11
821.661	58.2
821.839	66.39
822.017	72.53
822.195	56.15
822.373	133.97
822.551	80.72
822.729	88.92
822.907	37.72
823.085	127.83
823.262	25.43
823.44	88.92
823.618	66.39
823.796	109.4
823.974	74.58
824.152	93.01
824.329	60.24
824.507	131.92
824.685	33.62
824.863	72.53
825.04	45.91
825.218	74.58
825.396	123.73
825.574	76.63
825.751	84.82
825.929	64.34
826.107	25.43
826.284	37.72
826.462	23.38
826.639	54.1
826.817	-3.24
826.994	142.16
827.172	58.2
827.349	60.24
827.527	23.38
827.704	33.62
827.882	66.39
828.059	62.29
828.237	82.77
828.414	101.2
828.591	113.49
828.769	113.49
828.946	-27.82
829.124	64.34
829.301	105.3
829.478	86.87
829.655	56.15
829.833	97.11
830.01	31.57
830.187	58.2
830.364	68.44
830.542	56.15
830.719	41.81
830.896	47.96
831.073	76.63
831.25	90.96
831.427	58.2
831.604	64.34
831.782	0.85
831.959	47.96
832.136	70.48
832.313	7
832.49	15.19
832.667	58.2
832.844	13.14
833.021	82.77
833.198	17.24
833.374	60.24
833.551	64.34
833.728	35.67
833.905	15.19
834.082	-9.39
834.259	56.15
834.436	29.52
834.612	-1.19
834.789	29.52
834.966	74.58
835.143	117.59
835.319	72.53
835.496	19.29
835.673	99.16
835.85	148.31
836.026	80.72
836.203	-7.34
836.38	15.19
836.556	99.16
836.733	74.58
836.909	136.02
837.086	-11.43
837.262	-9.39
837.439	107.35
837.616	-13.48
837.792	19.29
837.968	52.05
838.145	-1.19
838.321	60.24
838.498	-13.48
838.674	72.53
838.851	17.24
839.027	64.34
839.203	66.39
839.38	29.52
839.556	-5.29
839.732	82.77
839.909	58.2
840.085	39.76
840.261	31.57
840.437	2.9
840.614	-23.72
840.79	95.06
840.966	35.67
841.142	68.44
841.318	-1.19
841.494	11.09
841.671	25.43
841.847	-21.67
842.023	76.63
842.199	0.85
842.375	47.96
842.551	-15.53
842.727	-3.24
842.903	37.72
843.079	82.77
843.255	-9.39
843.431	50
843.607	31.57
843.783	43.86
843.959	7
844.134	15.19
844.31	72.53
844.486	17.24
844.662	17.24
844.838	-7.34
845.013	27.48
845.189	62.29
845.365	93.01
845.541	-11.43
845.716	31.57
845.892	33.62
846.068	50
846.244	66.39
846.419	76.63
846.595	9.05
846.77	0.85
846.946	21.33
847.122	4.95
847.297	-11.43
847.473	86.87
847.648	50
847.824	90.96
847.999	23.38
848.175	41.81
848.35	19.29
848.526	7
848.701	-5.29
848.876	39.76
849.052	27.48
849.227	-21.67
849.403	70.48
849.578	-17.58
849.753	-48.3
849.929	90.96
850.104	82.77
850.279	62.29
850.454	-66.73
850.63	-21.67
850.805	35.67
850.98	70.48
851.155	9.05
851.33	31.57
851.505	11.09
851.681	70.48
851.856	15.19
852.031	62.29
852.206	-17.58
852.381	0.85
852.556	-11.43
852.731	43.86
852.906	60.24
853.081	-9.39
853.256	39.76
853.431	27.48
853.606	4.95
853.781	-25.77
853.956	-68.78
854.131	70.48
854.305	4.95
854.48	45.91
854.655	-3.24
854.83	-54.44
855.005	47.96
855.18	-7.34
855.354	19.29
855.529	23.38
855.704	54.1
855.879	23.38
856.053	7
856.228	33.62
856.403	43.86
856.577	17.24
856.752	43.86
856.926	25.43
857.101	11.09
857.276	80.72
857.45	17.24
857.625	0.85
857.799	7
857.974	15.19
858.148	-13.48
858.323	60.24
858.497	23.38
858.672	-3.24
858.846	11.09
859.02	35.67
859.195	25.43
859.369	37.72
859.543	-44.2
859.718	15.19
859.892	37.72
860.066	23.38
860.241	-7.34
860.415	-21.67
860.589	-66.73
860.763	109.4
860.938	-46.25
861.112	17.24
861.286	15.19
861.46	31.57
861.634	64.34
861.808	-5.29
861.982	7
862.157	-13.48
862.331	15.19
862.505	-42.15
862.679	-23.72
862.853	-21.67
863.027	-7.34
863.201	50
863.375	37.72
863.549	23.38
863.722	23.38
863.896	105.3
864.07	52.05
864.244	41.81
864.418	56.15
864.592	25.43
864.766	15.19
864.939	82.77
865.113	-33.96
865.287	11.09
865.461	45.91
865.634	-15.53
865.808	-31.91
865.982	58.2
866.156	50
866.329	21.33
866.503	103.25
866.676	25.43
866.85	-40.11
867.024	23.38
867.197	33.62
867.371	45.91
867.544	0.85
867.718	86.87
867.891	72.53
868.065	19.29
868.238	33.62
868.412	9.05
868.585	56.15
868.759	33.62
868.932	64.34
869.105	-27.82
869.279	7
869.452	-29.87
869.625	-7.34
869.799	37.72
869.972	43.86
870.145	9.05
870.319	70.48
870.492	23.38
870.665	15.19
870.838	-11.43
871.011	21.33
871.185	-36.01
871.358	50
871.531	39.76
871.704	-40.11
871.877	-5.29
872.05	33.62
872.223	-5.29
872.396	21.33
872.569	13.14
872.742	31.57
872.915	4.95
873.088	-42.15
873.261	-3.24
873.434	-7.34
873.607	13.14
873.78	-38.06
873.953	25.43
874.126	17.24
874.299	-15.53
874.471	-1.19
874.644	-13.48
874.817	33.62
874.99	7
875.163	45.91
875.335	-13.48
875.508	-27.82
875.681	19.29
875.853	-5.29
876.026	45.91
876.199	-1.19
876.371	29.52
876.544	-56.49
876.717	-7.34
876.889	58.2
877.062	70.48
877.234	-15.53
877.407	25.43
877.579	23.38
877.752	41.81
877.924	47.96
878.097	60.24
878.269	27.48
878.442	76.63
878.614	60.24
878.786	72.53
878.959	29.52
879.131	4.95
879.303	-46.25
879.476	-3.24
879.648	-21.67
879.82	11.09
879.993	4.95
880.165	0.85
880.337	-23.72
880.509	-31.91
880.681	21.33
880.854	-5.29
881.026	47.96
881.198	-1.19
881.37	-9.39
881.542	27.48
881.714	-1.19
881.886	-17.58
882.058	17.24
882.23	9.05
882.402	7
882.574	-21.67
882.746	-38.06
882.918	-1.19
883.09	41.81
883.262	-3.24
883.434	-1.19
883.606	-72.87
883.778	-27.82
883.95	39.76
884.122	0.85
884.293	-19.63
884.465	52.05
884.637	31.57
884.809	23.38
884.98	27.48
885.152	90.96
885.324	31.57
885.496	-5.29
885.667	-58.54
885.839	13.14
886.011	-15.53
886.182	62.29
886.354	41.81
886.525	-7.34
886.697	23.38
886.869	-17.58
887.04	33.62
887.212	-38.06
887.383	9.05
887.555	-66.73
887.726	-68.78
887.897	11.09
888.069	13.14
888.24	23.38
888.412	-7.34
888.583	-1.19
888.754	33.62
888.926	-38.06
889.097	-36.01
889.268	-27.82
889.44	84.82
889.611	62.29
889.782	-25.77
889.953	50
890.125	82.77
890.296	23.38
890.467	23.38
890.638	-85.16
890.809	2.9
890.98	4.95
891.151	50
891.323	19.29
891.494	9.05
891.665	0.85
891.836	-15.53
892.007	31.57
892.178	9.05
892.349	-60.59
892.52	-101.55
892.691	11.09
892.862	54.1
893.032	-29.87
893.203	47.96
893.374	15.19
893.545	13.14
893.716	-1.19
893.887	2.9
894.057	-42.15
894.228	-33.96
894.399	-3.24
894.57	52.05
894.74	-27.82
894.911	19.29
895.082	17.24
895.253	62.29
895.423	-15.53
895.594	54.1
895.764	-1.19
895.935	-23.72
896.106	31.57
896.276	-9.39
896.447	41.81
896.617	-25.77
896.788	0.85
896.958	-1.19
897.129	-31.91
897.299	19.29
897.47	33.62
897.64	-7.34
897.81	27.48
897.981	-13.48
898.151	-64.68
898.322	-48.3
898.492	7
898.662	17.24
898.832	7
899.003	-7.34
899.173	-33.96
899.343	54.1
899.513	17.24
