Data from USB4F104151__19__12-58-34-319.txt Node

Date: Fri Mar 14 12:58:34 EDT 2025
User: louis
Spectrometer: USB4F10415
Trigger mode: 4
Integration Time (sec): 1.000000E-2
Scans to average: 1
Electric dark correction enabled: true
Nonlinearity correction enabled: false
Boxcar width: 0
XAxis mode: Wavelengths
Number of Pixels in Spectrum: 3648
>>>>>Begin Spectral Data<<<<<
178.204	-65.88
178.424	-65.88
178.644	-65.88
178.864	-104.79
179.084	-78.16
179.304	-47.44
179.524	-16.73
179.744	36.52
179.964	40.62
180.184	-33.11
180.404	75.43
180.624	-2.39
180.844	-10.58
181.064	-35.16
181.283	-39.25
181.503	34.47
181.723	-2.39
181.943	50.86
182.163	-26.96
182.383	34.47
182.602	11.95
182.822	38.57
183.042	91.82
183.262	-69.97
183.482	-41.3
183.701	77.48
183.921	5.8
184.141	-47.44
184.361	79.53
184.58	-49.49
184.8	7.85
185.02	-10.58
185.239	-18.77
185.459	22.19
185.679	-24.92
185.898	-18.77
186.118	-51.54
186.338	13.99
186.557	16.04
186.777	-14.68
186.997	-4.44
187.216	5.8
187.436	5.8
187.655	57
187.875	-35.16
188.095	3.75
188.314	-33.11
188.534	-33.11
188.753	-92.5
188.973	-2.39
189.192	34.47
189.412	16.04
189.631	63.15
189.851	9.9
190.07	13.99
190.29	44.71
190.509	-41.3
190.729	24.23
190.948	59.05
191.168	91.82
191.387	52.91
191.607	9.9
191.826	-18.77
192.045	-16.73
192.265	26.28
192.484	-59.73
192.704	42.67
192.923	34.47
193.142	11.95
193.362	32.43
193.581	-2.39
193.8	5.8
194.02	18.09
194.239	-45.4
194.458	77.48
194.678	22.19
194.897	-6.49
195.116	-6.49
195.335	-24.92
195.555	50.86
195.774	42.67
195.993	-26.96
196.212	34.47
196.432	54.95
196.651	28.33
196.87	87.72
197.089	63.15
197.308	44.71
197.528	9.9
197.747	-100.69
197.966	-43.35
198.185	11.95
198.404	24.23
198.623	-24.92
198.842	16.04
199.062	50.86
199.281	-6.49
199.5	26.28
199.719	34.47
199.938	9.9
200.157	-2.39
200.376	-22.87
200.595	61.1
200.814	11.95
201.033	-10.58
201.252	3.75
201.471	20.14
201.69	138.92
201.909	3.75
202.128	-24.92
202.347	16.04
202.566	38.57
202.785	-8.53
203.004	-4.44
203.223	11.95
203.442	-2.39
203.661	20.14
203.879	61.1
204.098	42.67
204.317	-4.44
204.536	18.09
204.755	30.38
204.974	50.86
205.193	28.33
205.411	38.57
205.63	18.09
205.849	48.81
206.068	54.95
206.287	-22.87
206.505	42.67
206.724	22.19
206.943	-59.73
207.162	30.38
207.381	83.63
207.599	-0.34
207.818	16.04
208.037	-24.92
208.255	18.09
208.474	87.72
208.693	-16.73
208.911	-6.49
209.13	5.8
209.349	65.19
209.567	13.99
209.786	52.91
210.005	5.8
210.223	-33.11
210.442	1.71
210.661	32.43
210.879	-49.49
211.098	93.87
211.316	-4.44
211.535	46.76
211.753	61.1
211.972	36.52
212.191	-14.68
212.409	30.38
212.628	-31.06
212.846	9.9
213.065	65.19
213.283	28.33
213.502	22.19
213.72	46.76
213.938	48.81
214.157	16.04
214.375	52.91
214.594	-92.5
214.812	54.95
215.031	3.75
215.249	-43.35
215.467	-12.63
215.686	3.75
215.904	28.33
216.122	7.85
216.341	83.63
216.559	-18.77
216.778	20.14
216.996	9.9
217.214	-22.87
217.432	22.19
217.651	-24.92
217.869	-39.25
218.087	16.04
218.306	-10.58
218.524	63.15
218.742	-6.49
218.96	13.99
219.179	-22.87
219.397	-57.68
219.615	67.24
219.833	-0.34
220.051	5.8
220.27	38.57
220.488	-53.59
220.706	85.67
220.924	-18.77
221.142	50.86
221.36	-6.49
221.578	-16.73
221.796	-26.96
222.015	75.43
222.233	85.67
222.451	48.81
222.669	40.62
222.887	46.76
223.105	-47.44
223.323	-26.96
223.541	-8.53
223.759	-22.87
223.977	-53.59
224.195	-33.11
224.413	36.52
224.631	16.04
224.849	36.52
225.067	-6.49
225.285	-84.31
225.503	16.04
225.721	-59.73
225.939	16.04
226.157	63.15
226.375	42.67
226.592	46.76
226.81	36.52
227.028	38.57
227.246	16.04
227.464	36.52
227.682	13.99
227.9	32.43
228.117	32.43
228.335	-18.77
228.553	87.72
228.771	1.71
228.989	-12.63
229.206	-14.68
229.424	-63.83
229.642	48.81
229.86	34.47
230.077	18.09
230.295	1.71
230.513	22.19
230.731	46.76
230.948	30.38
231.166	40.62
231.384	16.04
231.601	34.47
231.819	24.23
232.037	-8.53
232.254	20.14
232.472	24.23
232.689	-39.25
232.907	38.57
233.125	-24.92
233.342	-22.87
233.56	32.43
233.777	-37.2
233.995	-16.73
234.213	28.33
234.43	26.28
234.648	81.58
234.865	81.58
235.083	50.86
235.3	-8.53
235.518	5.8
235.735	34.47
235.953	22.19
236.17	24.23
236.388	71.34
236.605	36.52
236.822	48.81
237.04	18.09
237.257	11.95
237.475	48.81
237.692	-10.58
237.909	-0.34
238.127	-8.53
238.344	-63.83
238.562	-16.73
238.779	38.57
238.996	24.23
239.214	5.8
239.431	69.29
239.648	34.47
239.865	59.05
240.083	57
240.3	59.05
240.517	20.14
240.735	50.86
240.952	-16.73
241.169	-22.87
241.386	59.05
241.603	5.8
241.821	7.85
242.038	30.38
242.255	30.38
242.472	36.52
242.689	38.57
242.907	16.04
243.124	30.38
243.341	24.23
243.558	26.28
243.775	5.8
243.992	-33.11
244.209	57
244.426	7.85
244.643	46.76
244.86	-31.06
245.078	120.49
245.295	22.19
245.512	-33.11
245.729	-24.92
245.946	7.85
246.163	48.81
246.38	48.81
246.597	-39.25
246.814	59.05
247.031	22.19
247.248	36.52
247.464	-35.16
247.681	-6.49
247.898	44.71
248.115	50.86
248.332	-14.68
248.549	-10.58
248.766	44.71
248.983	9.9
249.2	-12.63
249.417	91.82
249.633	-0.34
249.85	100.01
250.067	124.58
250.284	-35.16
250.501	57
250.717	7.85
250.934	-4.44
251.151	106.15
251.368	9.9
251.585	71.34
251.801	42.67
252.018	-16.73
252.235	93.87
252.451	3.75
252.668	18.09
252.885	61.1
253.102	-26.96
253.318	38.57
253.535	77.48
253.752	9.9
253.968	16.04
254.185	-6.49
254.401	-102.74
254.618	36.52
254.835	-8.53
255.051	5.8
255.268	34.47
255.484	71.34
255.701	-4.44
255.917	18.09
256.134	50.86
256.351	-14.68
256.567	5.8
256.784	-2.39
257	-14.68
257.217	59.05
257.433	-24.92
257.65	20.14
257.866	-8.53
258.082	30.38
258.299	-0.34
258.515	38.57
258.732	24.23
258.948	9.9
259.165	48.81
259.381	61.1
259.597	5.8
259.814	57
260.03	-12.63
260.246	-33.11
260.463	38.57
260.679	-16.73
260.895	24.23
261.112	30.38
261.328	34.47
261.544	67.24
261.761	57
261.977	-16.73
262.193	42.67
262.409	59.05
262.626	44.71
262.842	52.91
263.058	32.43
263.274	28.33
263.49	11.95
263.707	54.95
263.923	81.58
264.139	16.04
264.355	5.8
264.571	40.62
264.787	1.71
265.004	24.23
265.22	73.39
265.436	46.76
265.652	-6.49
265.868	87.72
266.084	32.43
266.3	59.05
266.516	63.15
266.732	81.58
266.948	38.57
267.164	52.91
267.38	36.52
267.596	40.62
267.812	73.39
268.028	77.48
268.244	-0.34
268.46	65.19
268.676	79.53
268.892	16.04
269.108	48.81
269.324	57
269.54	-63.83
269.756	7.85
269.972	11.95
270.188	50.86
270.403	100.01
270.619	-18.77
270.835	-51.54
271.051	57
271.267	52.91
271.483	-0.34
271.698	-31.06
271.914	83.63
272.13	38.57
272.346	26.28
272.562	40.62
272.777	22.19
272.993	1.71
273.209	-31.06
273.425	-0.34
273.64	-31.06
273.856	11.95
274.072	-37.2
274.287	-0.34
274.503	44.71
274.719	-18.77
274.934	3.75
275.15	-0.34
275.366	16.04
275.581	71.34
275.797	-16.73
276.012	59.05
276.228	-12.63
276.444	11.95
276.659	26.28
276.875	65.19
277.09	61.1
277.306	20.14
277.521	-33.11
277.737	26.28
277.952	112.3
278.168	-41.3
278.383	9.9
278.599	38.57
278.814	57
279.03	83.63
279.245	-24.92
279.461	42.67
279.676	79.53
279.892	-6.49
280.107	-45.4
280.322	5.8
280.538	40.62
280.753	69.29
280.969	24.23
281.184	11.95
281.399	40.62
281.615	34.47
281.83	50.86
282.045	57
282.26	-35.16
282.476	36.52
282.691	-0.34
282.906	93.87
283.122	9.9
283.337	22.19
283.552	16.04
283.767	13.99
283.983	-29.01
284.198	1.71
284.413	65.19
284.628	52.91
284.843	63.15
285.058	-41.3
285.274	-8.53
285.489	11.95
285.704	46.76
285.919	30.38
286.134	36.52
286.349	63.15
286.564	34.47
286.779	1.71
286.995	28.33
287.21	26.28
287.425	-2.39
287.64	1.71
287.855	1.71
288.07	48.81
288.285	36.52
288.5	38.57
288.715	3.75
288.93	16.04
289.145	71.34
289.36	48.81
289.575	36.52
289.79	20.14
290.004	-16.73
290.219	63.15
290.434	34.47
290.649	42.67
290.864	79.53
291.079	-18.77
291.294	-24.92
291.509	9.9
291.724	-14.68
291.938	-51.54
292.153	48.81
292.368	-14.68
292.583	-10.58
292.798	26.28
293.012	97.96
293.227	-45.4
293.442	26.28
293.657	-14.68
293.871	46.76
294.086	61.1
294.301	118.44
294.516	65.19
294.73	32.43
294.945	-2.39
295.16	42.67
295.374	-26.96
295.589	-18.77
295.804	-8.53
296.018	-29.01
296.233	28.33
296.447	108.2
296.662	22.19
296.877	13.99
297.091	-4.44
297.306	22.19
297.52	24.23
297.735	-4.44
297.949	52.91
298.164	42.67
298.378	36.52
298.593	91.82
298.807	-29.01
299.022	-8.53
299.236	-26.96
299.451	38.57
299.665	89.77
299.88	16.04
300.094	-47.44
300.309	-2.39
300.523	100.01
300.737	112.3
300.952	42.67
301.166	32.43
301.381	77.48
301.595	50.86
301.809	-2.39
302.024	44.71
302.238	-20.82
302.452	30.38
302.667	63.15
302.881	3.75
303.095	-4.44
303.309	9.9
303.524	-47.44
303.738	-6.49
303.952	26.28
304.166	-0.34
304.381	18.09
304.595	20.14
304.809	-8.53
305.023	-10.58
305.237	46.76
305.452	-53.59
305.666	16.04
305.88	97.96
306.094	-4.44
306.308	71.34
306.522	-20.82
306.736	7.85
306.95	9.9
307.164	28.33
307.379	42.67
307.593	7.85
307.807	73.39
308.021	9.9
308.235	-8.53
308.449	-14.68
308.663	20.14
308.877	3.75
309.091	44.71
309.305	-0.34
309.519	-16.73
309.733	24.23
309.947	-29.01
310.161	81.58
310.374	5.8
310.588	61.1
310.802	69.29
311.016	9.9
311.23	24.23
311.444	-67.92
311.658	22.19
311.872	-6.49
312.085	42.67
312.299	81.58
312.513	69.29
312.727	30.38
312.941	-6.49
313.154	-0.34
313.368	3.75
313.582	32.43
313.796	-20.82
314.009	44.71
314.223	34.47
314.437	26.28
314.651	30.38
314.864	61.1
315.078	-24.92
315.292	-29.01
315.505	46.76
315.719	-41.3
315.933	26.28
316.146	5.8
316.36	95.91
316.573	1.71
316.787	3.75
317.001	32.43
317.214	-26.96
317.428	42.67
317.641	-8.53
317.855	-53.59
318.068	46.76
318.282	13.99
318.495	13.99
318.709	9.9
318.922	5.8
319.136	-29.01
319.349	-18.77
319.563	73.39
319.776	5.8
319.99	-10.58
320.203	44.71
320.417	7.85
320.63	-6.49
320.843	52.91
321.057	16.04
321.27	34.47
321.483	36.52
321.697	1.71
321.91	-2.39
322.124	34.47
322.337	1.71
322.55	7.85
322.763	-0.34
322.977	-22.87
323.19	48.81
323.403	9.9
323.617	63.15
323.83	95.91
324.043	36.52
324.256	42.67
324.469	20.14
324.683	9.9
324.896	38.57
325.109	-2.39
325.322	-14.68
325.535	26.28
325.748	-6.49
325.962	-2.39
326.175	13.99
326.388	54.95
326.601	89.77
326.814	-31.06
327.027	52.91
327.24	75.43
327.453	5.8
327.666	79.53
327.879	22.19
328.092	89.77
328.305	-41.3
328.518	26.28
328.731	7.85
328.944	11.95
329.157	30.38
329.37	28.33
329.583	26.28
329.796	46.76
330.009	38.57
330.222	3.75
330.435	3.75
330.648	44.71
330.861	22.19
331.073	-24.92
331.286	24.23
331.499	5.8
331.712	50.86
331.925	48.81
332.138	-47.44
332.35	89.77
332.563	3.75
332.776	32.43
332.989	3.75
333.202	71.34
333.414	34.47
333.627	61.1
333.84	46.76
334.053	59.05
334.265	-2.39
334.478	67.24
334.691	-59.73
334.903	95.91
335.116	11.95
335.329	-14.68
335.541	3.75
335.754	54.95
335.966	24.23
336.179	120.49
336.392	3.75
336.604	71.34
336.817	-8.53
337.029	18.09
337.242	32.43
337.454	5.8
337.667	9.9
337.88	40.62
338.092	-2.39
338.305	-10.58
338.517	42.67
338.729	44.71
338.942	-59.73
339.154	26.28
339.367	-33.11
339.579	-0.34
339.792	34.47
340.004	40.62
340.217	-35.16
340.429	67.24
340.641	63.15
340.854	7.85
341.066	-20.82
341.278	-8.53
341.491	52.91
341.703	18.09
341.915	-22.87
342.128	22.19
342.34	95.91
342.552	75.43
342.764	-39.25
342.977	1.71
343.189	20.14
343.401	-16.73
343.613	38.57
343.826	-29.01
344.038	38.57
344.25	9.9
344.462	3.75
344.674	83.63
344.886	-49.49
345.099	13.99
345.311	-16.73
345.523	79.53
345.735	-45.4
345.947	13.99
346.159	30.38
346.371	28.33
346.583	73.39
346.795	34.47
347.007	59.05
347.219	16.04
347.431	28.33
347.643	22.19
347.855	44.71
348.067	48.81
348.279	-0.34
348.491	132.78
348.703	-53.59
348.915	-8.53
349.127	-16.73
349.339	50.86
349.551	50.86
349.763	-20.82
349.975	5.8
350.187	-16.73
350.399	16.04
350.61	30.38
350.822	26.28
351.034	71.34
351.246	18.09
351.458	54.95
351.669	-24.92
351.881	83.63
352.093	5.8
352.305	-4.44
352.517	28.33
352.728	26.28
352.94	54.95
353.152	13.99
353.363	20.14
353.575	-18.77
353.787	38.57
353.999	46.76
354.21	54.95
354.422	57
354.633	-24.92
354.845	-53.59
355.057	-26.96
355.268	32.43
355.48	63.15
355.692	3.75
355.903	-12.63
356.115	-14.68
356.326	-4.44
356.538	42.67
356.749	20.14
356.961	40.62
357.172	36.52
357.384	38.57
357.595	71.34
357.807	-20.82
358.018	-2.39
358.23	83.63
358.441	-6.49
358.653	79.53
358.864	40.62
359.075	7.85
359.287	63.15
359.498	65.19
359.709	63.15
359.921	106.15
360.132	46.76
360.344	-24.92
360.555	44.71
360.766	5.8
360.977	-8.53
361.189	-8.53
361.4	32.43
361.611	40.62
361.823	108.2
362.034	30.38
362.245	-10.58
362.456	18.09
362.667	-41.3
362.879	11.95
363.09	50.86
363.301	81.58
363.512	11.95
363.723	-20.82
363.935	44.71
364.146	-0.34
364.357	-4.44
364.568	38.57
364.779	20.14
364.99	5.8
365.201	48.81
365.412	118.44
365.623	69.29
365.834	54.95
366.045	57
366.256	40.62
366.467	28.33
366.678	3.75
366.889	85.67
367.1	-0.34
367.311	63.15
367.522	30.38
367.733	-20.82
367.944	85.67
368.155	-2.39
368.366	59.05
368.577	54.95
368.788	83.63
368.999	11.95
369.209	5.8
369.42	18.09
369.631	52.91
369.842	-20.82
370.053	59.05
370.264	18.09
370.474	42.67
370.685	57
370.896	36.52
371.107	85.67
371.317	18.09
371.528	-59.73
371.739	77.48
371.95	5.8
372.16	100.01
372.371	-22.87
372.582	124.58
372.792	-53.59
373.003	44.71
373.214	57
373.424	-0.34
373.635	9.9
373.846	26.28
374.056	38.57
374.267	30.38
374.477	7.85
374.688	54.95
374.898	24.23
375.109	-6.49
375.319	69.29
375.53	50.86
375.74	48.81
375.951	73.39
376.161	20.14
376.372	9.9
376.582	38.57
376.793	63.15
377.003	91.82
377.214	54.95
377.424	32.43
377.635	9.9
377.845	-4.44
378.055	24.23
378.266	46.76
378.476	67.24
378.686	-41.3
378.897	95.91
379.107	-2.39
379.317	-8.53
379.528	95.91
379.738	24.23
379.948	42.67
380.158	9.9
380.369	26.28
380.579	54.95
380.789	11.95
380.999	40.62
381.21	22.19
381.42	97.96
381.63	-76.12
381.84	38.57
382.05	-45.4
382.261	38.57
382.471	42.67
382.681	11.95
382.891	97.96
383.101	18.09
383.311	95.91
383.521	32.43
383.731	95.91
383.941	18.09
384.151	100.01
384.361	22.19
384.571	38.57
384.781	42.67
384.991	22.19
385.201	67.24
385.411	69.29
385.621	65.19
385.831	28.33
386.041	-16.73
386.251	-14.68
386.461	-2.39
386.671	-39.25
386.881	24.23
387.091	-14.68
387.301	-2.39
387.511	40.62
387.72	48.81
387.93	-0.34
388.14	85.67
388.35	-14.68
388.56	97.96
388.769	-2.39
388.979	73.39
389.189	-6.49
389.399	22.19
389.609	30.38
389.818	46.76
390.028	50.86
390.238	95.91
390.447	59.05
390.657	57
390.867	5.8
391.076	52.91
391.286	20.14
391.496	40.62
391.705	87.72
391.915	9.9
392.125	110.25
392.334	28.33
392.544	40.62
392.753	24.23
392.963	26.28
393.172	57
393.382	42.67
393.591	71.34
393.801	28.33
394.01	16.04
394.22	3.75
394.429	11.95
394.639	83.63
394.848	54.95
395.058	79.53
395.267	48.81
395.477	-22.87
395.686	79.53
395.895	61.1
396.105	22.19
396.314	104.11
396.524	34.47
396.733	-0.34
396.942	38.57
397.152	81.58
397.361	83.63
397.57	30.38
397.78	30.38
397.989	38.57
398.198	48.81
398.407	-10.58
398.617	100.01
398.826	87.72
399.035	79.53
399.244	83.63
399.453	75.43
399.663	54.95
399.872	48.81
400.081	36.52
400.29	114.34
400.499	145.06
400.708	124.58
400.917	65.19
401.127	77.48
401.336	114.34
401.545	126.63
401.754	44.71
401.963	93.87
402.172	46.76
402.381	87.72
402.59	93.87
402.799	9.9
403.008	81.58
403.217	87.72
403.426	63.15
403.635	65.19
403.844	112.3
404.053	108.2
404.262	44.71
404.471	89.77
404.68	126.63
404.888	110.25
405.097	118.44
405.306	97.96
405.515	108.2
405.724	145.06
405.933	106.15
406.142	159.4
406.35	61.1
406.559	157.35
406.768	124.58
406.977	128.68
407.185	155.3
407.394	202.41
407.603	149.16
407.812	188.07
408.02	134.82
408.229	122.54
408.438	186.02
408.646	122.54
408.855	202.41
409.064	190.12
409.272	177.83
409.481	202.41
409.69	194.22
409.898	157.35
410.107	212.65
410.315	120.49
410.524	181.93
410.733	200.36
410.941	257.7
411.15	210.6
411.358	278.18
411.567	276.13
411.775	235.18
411.984	310.95
412.192	298.66
412.401	300.71
412.609	272.04
412.818	284.33
413.026	286.37
413.234	306.85
413.443	229.03
413.651	376.48
413.86	364.2
414.068	374.44
414.276	388.77
414.485	425.64
414.693	439.97
414.901	358.05
415.11	466.6
415.318	472.74
415.526	448.16
415.734	448.16
415.943	419.49
416.151	523.94
416.359	505.51
416.567	607.91
416.776	540.32
416.984	605.86
417.192	642.72
417.4	679.58
417.608	652.96
417.817	669.34
418.025	683.68
418.233	747.17
418.441	767.65
418.649	741.02
418.857	861.85
419.065	849.57
419.273	775.84
419.481	818.85
419.689	923.29
419.897	956.06
420.105	1003.16
420.313	892.57
420.521	994.97
420.729	1066.65
420.937	1037.98
421.145	1080.99
421.353	1134.23
421.561	1242.78
421.769	1154.71
421.977	1232.54
422.185	1336.98
422.393	1267.35
422.601	1402.52
422.809	1343.13
423.017	1492.63
423.224	1562.26
423.432	1572.5
423.64	1529.49
423.848	1638.03
424.056	1674.9
424.263	1730.19
424.471	1736.34
424.679	1814.16
424.887	1900.17
425.094	2047.63
425.302	2031.24
425.51	2111.11
425.718	2055.82
425.925	2082.44
426.133	2201.23
426.341	2317.96
426.548	2467.46
426.756	2444.93
426.964	2487.94
427.171	2692.74
427.379	2727.55
427.586	2778.75
427.794	2778.75
428.001	2911.87
428.209	3110.52
428.417	3108.48
428.624	3280.5
428.832	3315.32
429.039	3192.44
429.247	3341.94
429.454	3503.73
429.662	3790.45
429.869	3501.69
430.076	3866.22
430.284	3731.06
430.491	3800.69
430.699	4157.04
430.906	4091.5
431.114	4087.4
431.321	4359.78
431.528	4367.98
431.736	4671.08
431.943	4855.39
432.15	4642.4
432.358	4695.65
432.565	5072.48
432.772	5025.37
432.979	5242.46
433.187	5289.56
433.394	5424.73
433.601	5768.79
433.808	5756.5
434.016	5617.24
434.223	6045.26
434.43	6151.76
434.637	6225.48
434.844	6641.22
435.052	6669.89
435.259	6620.74
435.466	6743.62
435.673	6630.98
435.88	7159.36
436.087	7562.81
436.294	7550.52
436.501	7286.33
436.708	7419.45
436.915	7657.01
437.122	8126
437.329	7943.73
437.537	8226.35
437.743	8594.98
437.95	8437.29
438.157	8754.73
438.364	9311.77
438.571	9319.96
438.778	9162.27
438.985	10104.34
439.192	9829.91
439.399	10055.19
439.606	9670.17
439.813	10204.69
440.02	10915.33
440.227	10673.67
440.433	10823.17
440.64	10790.41
440.847	10929.67
441.054	11288.06
441.261	12082.67
441.467	11652.6
441.674	12049.91
441.881	12488.17
442.088	12465.64
442.294	12432.88
442.501	12924.39
442.708	12940.77
442.914	13356.51
443.121	13985.24
443.328	13680.09
443.534	14810.57
443.741	14259.67
443.948	14079.44
444.154	14964.17
444.361	14974.41
444.568	14927.3
444.774	15078.85
444.981	15128
445.187	15205.83
445.394	16293.3
445.6	16199.09
445.807	17671.58
446.013	17227.17
446.22	17448.35
446.426	17888.67
446.633	18165.14
446.839	18582.93
447.046	18052.5
447.252	18883.98
447.459	18976.14
447.665	19242.37
447.871	19774.84
448.078	20551.03
448.284	19588.48
448.491	20114.81
448.697	21085.54
448.903	21292.39
449.11	21515.62
449.316	21181.8
449.522	21511.52
449.728	22371.67
449.935	22478.16
450.141	22177.11
450.347	22736.21
450.553	22125.91
450.76	22500.69
450.966	23416.13
451.172	22895.95
451.378	23463.24
451.584	23131.47
451.791	23448.9
451.997	23651.65
452.203	23969.08
452.409	23856.45
452.615	23766.34
452.821	23147.85
453.027	22811.98
453.233	24053.05
453.44	22887.76
453.646	23393.61
453.852	23444.8
454.058	23805.25
454.264	23061.83
454.47	23610.69
454.676	23160.14
454.882	23674.18
455.088	21669.22
455.294	22144.34
455.5	22758.74
455.705	22973.77
455.911	21675.36
456.117	21636.45
456.323	21009.77
456.529	20120.95
456.735	20518.26
456.941	20123
457.147	20036.98
457.352	19203.46
457.558	19223.94
457.764	19189.13
457.97	18910.6
458.176	18316.69
458.381	18498.96
458.587	17669.53
458.793	17556.89
458.999	16651.69
459.204	17567.13
459.41	17206.69
459.616	16387.5
459.821	15795.64
460.027	16160.18
460.233	15609.28
460.438	15033.8
460.644	15205.83
460.85	14505.42
461.055	14235.09
461.261	14210.51
461.466	13211.11
461.672	12844.52
461.878	13663.71
462.083	12619.24
462.289	12477.93
462.494	12326.38
462.7	11890.17
462.905	11628.03
463.111	12058.1
463.316	12039.67
463.522	11718.14
463.727	11685.37
463.932	11703.8
464.138	11671.03
464.343	11488.76
464.549	11380.22
464.754	11632.12
464.959	11443.71
465.165	11615.74
465.37	11091.46
465.575	10808.84
465.781	11036.16
465.986	11208.19
466.191	10757.64
466.397	10677.77
466.602	10022.42
466.807	10350.09
467.012	10438.16
467.218	10323.47
467.423	10311.18
467.628	10343.95
467.833	10905.09
468.038	10499.59
468.244	9899.54
468.449	10475.02
468.654	10194.45
468.859	10268.17
469.064	10065.43
469.269	9682.45
469.474	9754.13
469.679	10046.99
469.885	9602.58
470.09	9840.15
470.295	9799.19
470.5	9395.74
470.705	9541.15
470.91	9178.65
471.115	9156.13
471.32	9250.33
471.525	9317.92
471.73	9152.03
471.935	9051.68
472.139	8791.59
472.344	8896.03
472.549	8683.05
472.754	8848.93
472.959	8551.98
473.164	8459.82
473.369	8140.33
473.574	8631.85
473.778	8414.76
473.983	8295.98
474.188	8359.47
474.393	7740.98
474.598	8115.76
474.802	7937.59
475.007	7913.01
475.212	8091.18
475.417	7765.56
475.621	7521.85
475.826	7620.15
476.031	7407.16
476.235	7388.73
476.44	7390.78
476.645	7161.41
476.849	7233.08
477.054	7140.93
477.259	7083.58
477.463	7120.45
477.668	6911.55
477.872	6960.7
478.077	6909.51
478.282	6772.29
478.486	6798.91
478.691	6774.34
478.895	6733.38
479.1	6587.97
479.304	6741.57
479.509	6370.89
479.713	6559.3
479.918	6432.33
480.122	6225.48
480.326	6293.07
480.531	6391.37
480.735	6207.05
480.94	6123.09
481.144	6391.37
481.348	6108.75
481.553	6133.33
481.757	6028.88
481.961	6256.2
482.166	6188.62
482.37	6395.47
482.574	6051.41
482.778	5961.3
482.983	6235.72
483.187	5975.63
483.391	6256.2
483.595	5979.73
483.8	5838.42
484.004	6149.71
484.208	6291.02
484.412	6084.17
484.616	6184.52
484.821	5908.05
485.025	6014.54
485.229	6176.33
485.433	6168.14
485.637	5955.15
485.841	5869.14
486.045	6002.26
486.249	6135.37
486.453	6063.69
486.657	6004.3
486.861	6075.98
487.065	5946.96
487.269	6180.43
487.473	5846.61
487.677	6108.75
487.881	6270.54
488.085	6264.4
488.289	6135.37
488.493	5989.97
488.697	6102.61
488.901	6147.66
489.105	5951.06
489.309	6094.41
489.512	6162
489.716	6131.28
489.92	6086.22
490.124	6137.42
490.328	6364.75
490.531	6219.34
490.735	6293.07
490.939	6092.37
491.143	6155.85
491.346	6162
491.55	6430.28
491.754	6190.67
491.958	6303.31
492.161	6262.35
492.365	6440.52
492.569	6446.66
492.772	6493.77
492.976	6338.12
493.18	6461
493.383	6469.19
493.587	6542.92
493.79	6714.95
493.994	6604.36
494.197	6698.56
494.401	6979.14
494.605	6827.59
494.808	6829.63
495.012	6790.72
495.215	6936.13
495.419	7071.29
495.622	6893.12
495.825	7216.7
496.029	7149.12
496.232	7192.12
496.436	7134.78
496.639	7597.62
496.843	7331.39
497.046	7495.22
497.249	7497.27
497.453	7487.03
497.656	7657.01
497.859	7984.69
498.063	7904.82
498.266	7904.82
498.469	7888.43
498.673	8152.62
498.876	8033.84
499.079	8175.15
499.282	8218.16
499.485	8517.16
499.689	8498.73
499.892	8523.3
500.095	8683.05
500.298	8891.94
500.501	8468.01
500.705	8875.56
500.908	9037.34
501.111	9301.53
501.314	9199.13
501.517	9549.34
501.72	9571.86
501.923	9543.19
502.126	9819.67
502.329	9877.01
502.532	9821.72
502.735	10067.47
502.938	10155.54
503.141	10171.92
503.344	10395.15
503.547	10173.97
503.75	10780.17
503.953	10714.63
504.156	10847.75
504.359	11040.26
504.562	11245.06
504.765	11410.94
504.968	11320.83
505.17	11429.37
505.373	11597.31
505.576	11759.1
505.779	11841.01
505.982	11841.01
506.185	12185.07
506.387	12275.18
506.59	12246.51
506.793	12606.95
506.996	12604.91
507.198	13030.88
507.401	12875.24
507.604	13059.56
507.807	13260.26
508.009	13346.27
508.212	13463.01
508.415	13923.8
508.617	13831.64
508.82	13807.06
509.022	13968.85
509.225	14104.02
509.428	14497.23
509.63	14570.96
509.833	14699.98
510.035	15011.27
510.238	14900.68
510.44	15128
510.643	15265.22
510.845	15402.43
511.048	15316.42
511.25	15640
511.453	15850.94
511.655	16176.56
511.858	16053.69
512.06	16158.13
512.262	16618.93
512.465	16602.54
512.667	16735.66
512.87	16778.67
513.072	17180.07
513.274	17374.63
513.477	17692.06
513.679	17522.08
513.881	17790.36
514.084	18044.31
514.286	17964.44
514.488	18322.84
514.69	18791.82
514.893	18552.21
515.095	18843.02
515.297	19123.59
515.499	19166.6
515.701	19471.75
515.904	19844.48
516.106	19832.19
516.308	19969.4
516.51	20032.89
516.712	20108.66
516.914	20241.78
517.116	20927.85
517.318	21058.92
517.52	21122.41
517.722	21079.4
517.925	21241.19
518.127	21597.54
518.329	21822.81
518.531	21718.37
518.733	22201.69
518.935	22205.78
519.136	22275.41
519.338	22900.05
519.54	23000.4
519.742	22887.76
519.944	23049.55
520.146	23520.58
520.348	23676.23
520.55	23737.66
520.752	23999.8
520.954	24415.54
521.155	24184.12
521.357	24476.98
521.559	24739.12
521.761	25404.71
521.963	25120.04
522.164	25120.04
522.366	25193.77
522.568	25693.47
522.77	25629.99
522.971	26039.58
523.173	25867.55
523.375	26139.93
523.576	26256.67
523.778	26408.22
523.98	26887.44
524.181	26570.01
524.383	26895.63
524.584	27041.04
524.786	27127.05
524.988	27219.21
525.189	27387.14
525.391	27452.68
525.592	27583.75
525.794	27745.54
525.995	28044.54
526.197	28011.78
526.398	27819.27
526.6	28122.37
526.801	28458.23
527.003	28376.31
527.204	28384.51
527.406	28544.25
527.607	28703.99
527.808	28620.02
528.01	28544.25
528.211	28908.79
528.412	29150.45
528.614	29367.53
528.815	29148.4
529.016	29607.14
529.218	29295.85
529.419	29089.01
529.62	29627.62
529.822	29283.56
530.023	29584.62
530.224	29555.94
530.425	29676.77
530.626	29574.38
530.828	29416.68
531.029	30100.7
531.23	29400.3
531.431	29820.13
531.632	29693.16
531.833	29889.76
532.035	29844.71
532.236	30145.76
532.437	30270.68
532.638	30129.37
532.839	30108.9
533.04	30223.58
533.241	30051.55
533.442	30319.84
533.643	30280.92
533.844	30006.5
534.045	30311.64
534.246	29928.67
534.447	30452.95
534.648	29867.23
534.849	30297.31
535.05	30627.03
535.251	30455
535.451	30000.35
535.652	30516.44
535.853	30686.42
536.054	30524.63
536.255	30579.93
536.456	30041.31
536.657	30733.53
536.857	30219.49
537.058	30158.05
537.259	30553.3
537.46	30268.64
537.66	30137.57
537.861	30545.11
538.062	30094.56
538.263	29953.25
538.463	30069.98
538.664	30133.47
538.865	30104.8
539.065	30446.81
539.266	30262.49
539.466	30506.2
539.667	30022.88
539.868	30463.19
540.068	30457.05
540.269	30276.83
540.469	30448.86
540.67	29912.29
540.87	30403.8
541.071	30381.28
541.271	30174.43
541.472	30536.92
541.672	30108.9
541.873	30012.64
542.073	29684.97
542.274	30340.32
542.474	30063.84
542.675	29770.98
542.875	30297.31
543.075	30219.49
543.276	29730.02
543.476	30407.9
543.676	30319.84
543.877	29959.39
544.077	30414.04
544.277	30264.54
544.478	29779.17
544.678	30180.57
544.878	30258.4
545.078	30237.92
545.279	29762.79
545.479	29801.7
545.679	30184.67
545.879	30010.59
546.079	30172.38
546.28	29912.29
546.48	29459.69
546.68	30223.58
546.88	30196.96
547.08	30065.89
547.28	30086.37
547.48	29568.23
547.68	29922.53
547.88	29940.96
548.081	30041.31
548.281	29799.65
548.481	30041.31
548.681	30012.64
548.881	29992.16
549.081	29783.27
549.28	29932.77
549.48	29932.77
549.68	29871.33
549.88	30190.81
550.08	29545.7
550.28	30268.64
550.48	29842.66
550.68	30022.88
550.88	29734.12
551.08	30037.22
551.279	29697.25
551.479	29867.23
551.679	29967.59
551.879	29687.01
552.079	29844.71
552.278	29754.6
552.478	29801.7
552.678	29469.93
552.878	29891.81
553.077	29365.48
553.277	29398.25
553.477	29754.6
553.676	29891.81
553.876	29732.07
554.076	29275.37
554.275	29566.18
554.475	29160.69
554.674	29318.38
554.874	29492.46
555.074	29314.28
555.273	29535.46
555.473	29633.77
555.672	29357.29
555.872	29345
556.071	29510.89
556.271	29355.24
556.47	29228.27
556.67	28978.42
556.869	28935.41
557.068	29275.37
557.268	29002.99
557.467	28896.5
557.667	29222.12
557.866	29123.82
558.065	29127.92
558.265	28804.34
558.464	28888.31
558.663	29295.85
558.863	28509.43
559.062	29103.34
559.261	28491
559.461	29005.04
559.66	28556.53
559.859	28728.56
560.058	28663.03
560.258	29002.99
560.457	28552.44
560.656	28796.15
560.855	28013.82
561.054	28251.39
561.253	28194.04
561.453	28310.78
561.652	28501.24
561.851	28407.03
562.05	28331.26
562.249	28394.75
562.448	28286.2
562.647	28376.31
562.846	27899.14
563.045	28085.5
563.244	28099.84
563.443	28148.99
563.642	27688.2
563.841	27790.59
564.04	27854.08
564.239	28194.04
564.438	27596.04
564.637	27780.35
564.836	28028.16
565.035	27489.54
565.234	27725.06
565.432	27708.68
565.631	27497.74
565.83	27667.72
566.029	27469.06
566.228	27323.66
566.427	27041.04
566.625	27245.83
566.824	26916.11
567.023	27331.85
567.222	26832.15
567.42	27002.13
567.619	26758.42
567.818	26983.69
568.016	26928.4
568.215	26883.34
568.414	26680.6
568.612	27096.33
568.811	26727.7
569.01	26522.9
569.208	26297.63
569.407	26799.38
569.605	26496.28
569.804	26332.44
570.002	26107.16
570.201	26455.32
570.4	26252.57
570.598	25652.52
570.797	25869.6
570.995	25982.24
571.193	25509.16
571.392	26105.12
571.59	25521.45
571.789	25490.73
571.987	25539.88
572.186	25621.8
572.384	25476.39
572.582	25451.81
572.781	25711.91
572.979	25089.32
573.177	25326.89
573.376	25392.42
573.574	25212.2
573.772	25167.15
573.971	24919.34
574.169	24810.8
574.367	24982.83
574.565	25124.14
574.763	24640.82
574.962	24862
575.16	24700.21
575.358	24958.25
575.556	24114.49
575.754	24694.07
575.952	24141.11
576.151	24532.28
576.349	24249.66
576.547	24198.46
576.745	24048.96
576.943	24343.86
577.141	24380.73
577.339	24278.33
577.537	23975.23
577.735	24081.72
577.933	24087.87
578.131	24026.43
578.329	23713.09
578.527	23539.01
578.725	23604.55
578.923	23655.75
579.121	23522.63
579.319	23407.94
579.516	23131.47
579.714	23586.11
579.912	23278.92
580.11	23213.38
580.308	23110.99
580.506	23041.36
580.704	22510.93
580.901	22951.24
581.099	22883.66
581.297	23194.95
581.495	22699.34
581.692	23133.51
581.89	22517.08
582.088	22871.37
582.285	22568.27
582.483	22734.16
582.681	22574.42
582.878	22207.83
583.076	22267.22
583.274	22326.61
583.471	21964.12
583.669	22263.13
583.866	22173.02
584.064	21982.56
584.262	22058.33
584.459	22130.01
584.657	21888.35
584.854	21845.34
585.052	21417.32
585.249	21605.73
585.447	21972.32
585.644	21345.64
585.841	21476.71
586.039	21652.83
586.236	21452.13
586.434	21216.61
586.631	21228.9
586.828	20936.04
587.026	21069.16
587.223	21337.45
587.42	21077.35
587.618	20798.83
587.815	20745.58
588.012	20620.66
588.21	20938.09
588.407	20878.7
588.604	20893.04
588.801	20606.32
588.999	20723.05
589.196	20497.78
589.393	20403.57
589.59	20600.18
589.787	20522.35
589.984	20276.6
590.182	20104.57
590.379	20215.16
590.576	19885.44
590.773	20145.53
590.97	20082.04
591.167	19991.93
591.364	19629.44
591.561	20211.06
591.758	19633.54
591.955	19662.21
592.152	19543.42
592.349	19690.88
592.546	19694.97
592.743	19703.17
592.94	19293.57
593.137	19580.29
593.334	19625.34
593.531	19203.46
593.727	19471.75
593.924	19103.11
594.121	19230.09
594.318	19109.26
594.515	19019.14
594.712	19131.78
594.908	18959.75
595.105	18828.68
595.302	18623.89
595.499	18863.5
595.696	18615.69
595.892	18597.26
596.089	18675.09
596.286	18650.51
596.482	18619.79
596.679	18722.19
596.876	18507.15
597.072	18408.85
597.269	18288.02
597.466	18273.68
597.662	18013.59
597.859	18271.64
598.055	18421.14
598.252	17747.36
598.448	17950.1
598.645	17667.49
598.841	17866.14
599.038	17507.74
599.234	17743.26
599.431	17403.3
599.627	17360.29
599.824	17585.57
600.02	17618.33
600.217	17573.28
600.413	17376.67
600.609	17460.64
600.806	17184.16
601.002	17247.65
601.198	17157.54
601.395	17071.53
601.591	16979.37
601.787	16870.83
601.984	16852.39
602.18	17175.97
602.376	16731.56
602.572	16848.3
602.769	16758.19
602.965	16565.68
603.161	16453.04
603.357	16414.13
603.553	16760.23
603.75	16627.12
603.946	16293.3
604.142	16580.01
604.338	16256.43
604.534	16276.91
604.73	16010.68
604.926	16192.95
605.122	15902.14
605.318	16203.19
605.514	15797.69
605.71	15947.19
605.906	15992.25
606.102	15906.23
606.298	16020.92
606.494	15871.42
606.69	15695.29
606.886	15693.24
607.082	15496.64
607.278	15619.52
607.474	15474.11
607.67	15586.75
607.866	15367.62
608.062	15697.34
608.257	15406.53
608.453	15398.34
608.649	15617.47
608.845	15453.63
609.041	15291.84
609.236	15136.2
609.432	15207.87
609.628	15275.46
609.824	15295.94
610.019	15101.38
610.215	15128
610.411	15209.92
610.606	15054.28
610.802	14917.06
610.998	14861.77
611.193	15044.04
611.389	15300.03
611.584	14757.32
611.78	14882.25
611.976	15025.61
612.171	14699.98
612.367	14669.26
612.562	14845.38
612.758	14843.34
612.953	14638.54
613.149	15085
613.344	14779.85
613.539	14800.33
613.735	14349.78
613.93	14575.05
614.126	14464.46
614.321	14552.52
614.517	14441.93
614.712	14210.51
614.907	14267.86
615.103	14349.78
615.298	14421.45
615.493	14441.93
615.688	14147.03
615.884	14554.57
616.079	14114.26
616.274	14294.48
616.47	14192.08
616.665	14128.6
616.86	14026.2
617.055	14067.16
617.25	13809.11
617.445	14265.81
617.641	13567.45
617.836	14167.51
618.031	13653.47
618.226	13858.26
618.421	13647.32
618.616	13815.26
618.811	13581.79
619.006	14015.96
619.201	13592.03
619.396	13657.56
619.591	13180.39
619.786	13659.61
619.981	13088.23
620.176	13329.89
620.371	13411.81
620.566	13331.94
620.761	13084.13
620.956	13264.35
621.151	12961.25
621.346	13118.95
621.541	12510.7
621.735	12969.44
621.93	12785.13
622.125	12647.91
622.32	12418.54
622.515	12690.92
622.709	12588.52
622.904	12609
623.099	12469.74
623.294	12473.84
623.488	12266.99
623.683	12101.11
623.878	11996.66
624.072	12207.6
624.267	12168.69
624.462	12107.25
624.656	11658.74
624.851	11886.07
625.046	11777.53
625.24	11664.89
625.435	11638.27
625.629	11689.46
625.824	11585.02
626.018	11431.42
626.213	11150.85
626.407	11503.1
626.602	11154.94
626.796	11181.57
626.991	11097.6
627.185	11253.25
627.38	11038.21
627.574	10860.04
627.768	10788.36
627.963	10884.61
628.157	10802.69
628.352	10638.86
628.546	10403.34
628.74	10651.14
628.935	10614.28
629.129	10771.97
629.323	10419.72
629.517	10638.86
629.712	10384.91
629.906	10098.19
630.1	10225.17
630.294	10198.54
630.489	9987.6
630.683	10155.54
630.877	9807.38
631.071	9967.12
631.265	9981.46
631.459	9897.49
631.653	9754.13
631.848	9903.64
632.042	9616.92
632.236	9829.91
632.43	9582.1
632.624	9633.3
632.818	9559.58
633.012	9381.4
633.206	9276.96
633.4	9375.26
633.594	9383.45
633.788	9362.97
633.982	9440.79
634.176	9303.58
634.369	9256.48
634.563	8941.09
634.757	9051.68
634.951	9039.39
635.145	8982.05
635.339	9004.58
635.533	8869.41
635.726	8891.94
635.92	8670.76
636.114	8717.86
636.308	8640.04
636.501	8670.76
636.695	8531.5
636.889	8615.46
637.083	8320.56
637.276	8523.3
637.47	8468.01
637.664	8414.76
637.857	8386.09
638.051	8343.08
638.244	8148.53
638.438	8255.02
638.632	8326.7
638.825	8054.32
639.019	8128.05
639.212	7996.98
639.406	7953.97
639.599	8011.31
639.793	7870
639.986	7657.01
640.18	7841.33
640.373	7652.92
640.567	7675.45
640.76	7747.12
640.954	7398.97
641.147	7388.73
641.34	7452.22
641.534	7474.74
641.727	7462.46
641.92	7394.87
642.114	7454.26
642.307	7505.46
642.5	7214.65
642.694	7315
642.887	7118.4
643.08	7339.58
643.273	7165.5
643.467	7073.34
643.66	6905.41
643.853	7093.82
644.046	6782.53
644.239	6829.63
644.432	6708.8
644.626	6704.71
644.819	6788.68
645.012	6612.55
645.205	6659.65
645.398	6655.56
645.591	6633.03
645.784	6516.3
645.977	6458.95
646.17	6587.97
646.363	6538.82
646.556	6297.16
646.749	6510.15
646.942	6553.16
647.135	6329.93
647.328	6182.48
647.521	6260.3
647.714	6211.15
647.907	6147.66
648.099	6131.28
648.292	6198.86
648.485	6133.33
648.678	6108.75
648.871	5983.82
649.064	6041.17
649.256	5951.06
649.449	5824.08
649.642	5824.08
649.835	5826.13
650.027	5764.69
650.22	5842.51
650.413	5713.49
650.605	5721.68
650.798	5682.77
650.991	5746.26
651.183	5885.52
651.376	5623.38
651.568	5547.61
651.761	5568.09
651.954	5615.19
652.146	5592.66
652.339	5404.25
652.531	5404.25
652.724	5518.93
652.916	5326.43
653.109	5299.8
653.301	5512.79
653.494	5264.99
653.686	5226.07
653.879	5418.58
654.071	5230.17
654.263	5195.36
654.456	5019.23
654.648	5144.16
654.84	5138.01
655.033	5160.54
655.225	5101.15
655.417	4871.78
655.61	4863.58
655.802	4986.46
655.994	4986.46
656.186	4849.25
656.379	4843.1
656.571	4695.65
656.763	4857.44
656.955	4814.43
657.148	4677.22
657.34	4800.1
657.532	4595.3
657.724	4636.26
657.916	4728.42
658.108	4617.83
658.3	4634.21
658.492	4505.19
658.684	4544.1
658.876	4472.42
659.068	4679.27
659.26	4396.65
659.452	4478.57
659.644	4322.92
659.836	4337.26
660.028	4382.31
660.22	4216.43
660.412	4218.47
660.604	4281.96
660.796	4234.86
660.988	4212.33
661.18	4159.08
661.372	4228.71
661.563	4077.16
661.755	4152.94
661.947	4222.57
662.139	4163.18
662.331	4103.79
662.522	3974.77
662.714	4122.22
662.906	4071.02
663.097	4040.3
663.289	3937.9
663.481	4087.4
663.673	3999.34
663.864	3808.88
664.056	3765.87
664.247	3833.46
664.439	3755.63
664.631	3892.85
664.822	3741.3
665.014	3808.88
665.205	3759.73
665.397	3677.81
665.588	3763.83
665.78	3788.4
665.971	3628.66
666.163	3665.52
666.354	3759.73
666.546	3643
666.737	3638.9
666.929	3438.2
667.12	3495.54
667.311	3538.55
667.503	3470.97
667.694	3511.93
667.885	3421.81
668.077	3427.96
668.268	3464.82
668.459	3460.73
668.651	3339.9
668.842	3417.72
669.033	3329.66
669.224	3350.14
669.416	3311.22
669.607	3331.7
669.798	3374.71
669.989	3245.69
670.18	3311.22
670.371	3212.92
670.563	3387
670.754	3225.21
670.945	3247.74
671.136	3247.74
671.327	3315.32
671.518	3075.71
671.709	3147.39
671.9	3186.3
672.091	3171.96
672.282	3108.48
672.473	3128.95
672.664	3088
672.855	3094.14
673.046	3024.51
673.237	3116.67
673.428	3194.49
673.619	3139.19
673.809	3147.39
674	3026.56
674.191	2909.82
674.382	2885.25
674.573	2975.36
674.764	3014.27
674.954	2965.12
675.145	2971.26
675.336	2907.77
675.527	2850.43
675.717	2971.26
675.908	2942.59
676.099	2875.01
676.289	2846.34
676.48	2866.81
676.671	2950.78
676.861	2836.1
677.052	2784.9
677.243	2766.46
677.433	2901.63
677.624	2928.25
677.814	2807.42
678.005	2909.82
678.195	2682.5
678.386	2788.99
678.576	2784.9
678.767	2788.99
678.957	2805.38
679.148	2852.48
679.338	2766.46
679.529	2729.6
679.719	2823.81
679.909	2653.83
680.1	2637.44
680.29	2635.39
680.481	2635.39
680.671	2674.31
680.861	2741.89
681.052	2655.87
681.242	2700.93
681.432	2709.12
681.622	2670.21
681.813	2664.07
682.003	2608.77
682.193	2707.07
682.383	2643.59
682.573	2582.15
682.764	2614.91
682.954	2612.87
683.144	2707.07
683.334	2690.69
683.524	2565.76
683.714	2537.09
683.904	2555.52
684.094	2565.76
684.284	2530.95
684.474	2496.13
684.664	2578.05
684.854	2563.72
685.044	2590.34
685.234	2449.03
685.424	2496.13
685.614	2465.41
685.804	2535.04
685.994	2510.47
686.184	2557.57
686.374	2533
686.564	2528.9
686.753	2530.95
686.943	2565.76
687.133	2385.54
687.323	2477.7
687.513	2526.85
687.702	2358.92
687.892	2551.43
688.082	2465.41
688.272	2453.13
688.461	2518.66
688.651	2408.07
688.841	2313.86
689.03	2483.84
689.22	2393.73
689.41	2489.99
689.599	2381.45
689.789	2453.13
689.979	2340.49
690.168	2395.78
690.358	2309.77
690.547	2303.62
690.737	2446.98
690.926	2350.73
691.116	2344.58
691.305	2328.2
691.495	2455.17
691.684	2127.5
691.874	2363.01
692.063	2301.58
692.252	2258.57
692.442	2293.38
692.631	2293.38
692.82	2256.52
693.01	2221.7
693.199	2285.19
693.388	2225.8
693.578	2131.59
693.767	2268.81
693.956	2199.18
694.146	2119.31
694.335	2158.22
694.524	2209.42
694.713	2225.8
694.902	2317.96
695.092	2125.45
695.281	2170.51
695.47	2168.46
695.659	2231.94
695.848	2172.55
696.037	2197.13
696.226	2102.92
696.415	2219.66
696.604	2158.22
696.793	2123.4
696.982	2186.89
697.171	2125.45
697.36	2252.42
697.549	2143.88
697.738	2137.74
697.927	2043.53
698.116	2031.24
698.305	2121.35
698.494	2082.44
698.683	2066.06
698.872	2086.54
699.061	1992.33
699.25	2086.54
699.438	2012.81
699.627	2061.96
699.816	2053.77
700.005	2086.54
700.193	2031.24
700.382	2141.83
700.571	2025.1
700.76	2031.24
700.948	2041.48
701.137	2049.68
701.326	2029.2
701.514	1980.04
701.703	2055.82
701.892	2045.58
702.08	1891.98
702.269	1990.28
702.457	2014.86
702.646	2023.05
702.834	1982.09
703.023	1980.04
703.212	1967.76
703.4	1906.32
703.589	1971.85
703.777	1851.02
703.965	2098.83
704.154	1902.22
704.342	1906.32
704.531	1971.85
704.719	2047.63
704.907	1951.37
705.096	1990.28
705.284	1906.32
705.472	1990.28
705.661	2100.87
705.849	1932.94
706.037	1877.65
706.226	1939.09
706.414	1963.66
706.602	1955.47
706.79	1914.51
706.979	1990.28
707.167	1834.64
707.355	1924.75
707.543	1855.12
707.731	1922.7
707.919	1848.97
708.107	1947.28
708.296	1865.36
708.484	1779.34
708.672	1830.54
708.86	1848.97
709.048	1842.83
709.236	1793.68
709.424	1871.5
709.612	1752.72
709.8	1875.6
709.988	1740.43
710.176	1744.53
710.364	1781.39
710.551	1832.59
710.739	1838.73
710.927	1756.82
711.115	1838.73
711.303	1801.87
711.491	1822.35
711.679	1787.54
711.866	1760.91
712.054	1853.07
712.242	1771.15
712.43	1791.63
712.617	1801.87
712.805	1808.02
712.993	1668.75
713.181	1777.3
713.368	1605.27
713.556	1717.9
713.744	1730.19
713.931	1734.29
714.119	1726.1
714.306	1699.47
714.494	1699.47
714.682	1701.52
714.869	1658.51
715.057	1732.24
715.244	1734.29
715.432	1707.66
715.619	1687.18
715.807	1627.79
715.994	1691.28
716.182	1756.82
716.369	1701.52
716.556	1762.96
716.744	1773.2
716.931	1666.71
717.119	1750.67
717.306	1670.8
717.493	1642.13
717.681	1722
717.868	1701.52
718.055	1732.24
718.242	1664.66
718.43	1672.85
718.617	1642.13
718.804	1599.12
718.991	1658.51
719.179	1650.32
719.366	1609.36
719.553	1574.55
719.74	1611.41
719.927	1635.99
720.114	1711.76
720.301	1584.79
720.488	1654.42
720.676	1568.4
720.863	1609.36
721.05	1695.38
721.237	1685.14
721.424	1560.21
721.611	1633.94
721.798	1642.13
721.985	1554.07
722.172	1552.02
722.358	1621.65
722.545	1599.12
722.732	1582.74
722.919	1496.72
723.106	1584.79
723.293	1646.23
723.48	1547.92
723.667	1574.55
723.853	1619.6
724.04	1672.85
724.227	1543.83
724.414	1597.07
724.6	1648.27
724.787	1531.54
724.974	1543.83
725.161	1693.33
725.347	1490.58
725.534	1504.92
725.72	1539.73
725.907	1482.39
726.094	1613.46
726.28	1558.16
726.467	1537.68
726.653	1427.09
726.84	1472.15
727.027	1574.55
727.213	1404.57
727.4	1523.35
727.586	1494.68
727.773	1523.35
727.959	1416.85
728.145	1496.72
728.332	1527.44
728.518	1453.72
728.705	1539.73
728.891	1554.07
729.077	1445.52
729.264	1541.78
729.45	1468.05
729.636	1535.64
729.823	1453.72
730.009	1357.46
730.195	1408.66
730.382	1513.11
730.568	1488.53
730.754	1566.35
730.94	1537.68
731.126	1408.66
731.313	1382.04
731.499	1486.48
731.685	1496.72
731.871	1509.01
732.057	1519.25
732.243	1484.44
732.429	1447.57
732.615	1431.19
732.801	1492.63
732.987	1408.66
733.173	1390.23
733.359	1377.94
733.545	1416.85
733.731	1375.89
733.917	1431.19
734.103	1433.24
734.289	1445.52
734.475	1420.95
734.661	1396.37
734.847	1568.4
735.033	1398.42
735.219	1461.91
735.404	1414.81
735.59	1394.33
735.776	1351.32
735.962	1373.85
736.148	1478.29
736.333	1423
736.519	1410.71
736.705	1382.04
736.89	1537.68
737.076	1369.75
737.262	1357.46
737.447	1476.24
737.633	1328.79
737.819	1410.71
738.004	1408.66
738.19	1418.9
738.375	1398.42
738.561	1400.47
738.747	1334.93
738.932	1447.57
739.118	1312.41
739.303	1322.65
739.489	1410.71
739.674	1293.97
739.859	1304.21
740.045	1371.8
740.23	1298.07
740.416	1298.07
740.601	1441.43
740.786	1201.82
740.972	1355.41
741.157	1361.56
741.342	1291.93
741.528	1250.97
741.713	1349.27
741.898	1300.12
742.084	1304.21
742.269	1326.74
742.454	1341.08
742.639	1445.52
742.824	1310.36
743.01	1285.78
743.195	1365.65
743.38	1310.36
743.565	1316.5
743.75	1300.12
743.935	1271.45
744.12	1345.17
744.305	1291.93
744.49	1138.33
744.675	1195.67
744.86	1306.26
745.045	1154.71
745.23	1255.06
745.415	1162.9
745.6	1273.5
745.785	1152.67
745.97	1158.81
746.155	1191.58
746.34	1199.77
746.525	1238.68
746.71	1130.14
746.895	1205.91
747.079	1220.25
747.264	1103.51
747.449	1173.14
747.634	1109.66
747.819	1246.87
748.003	1214.1
748.188	1117.85
748.373	1171.1
748.557	1169.05
748.742	1115.8
748.927	1052.31
749.111	1046.17
749.296	1083.03
749.481	1068.7
749.665	1076.89
749.85	1085.08
750.034	1123.99
750.219	1087.13
750.404	1080.99
750.588	1042.07
750.773	1062.55
750.957	1040.03
751.141	1027.74
751.326	976.54
751.51	927.39
751.695	954.01
751.879	859.81
752.064	1001.12
752.248	1076.89
752.432	1021.6
752.617	992.92
752.801	1003.16
752.985	988.83
753.17	908.96
753.354	939.68
753.538	984.73
753.722	960.16
753.907	927.39
754.091	878.24
754.275	878.24
754.459	939.68
754.643	923.29
754.828	923.29
755.012	902.81
755.196	788.13
755.38	851.61
755.564	802.46
755.748	857.76
755.932	784.03
756.116	857.76
756.3	943.77
756.484	894.62
756.668	861.85
756.852	884.38
757.036	765.6
757.22	816.8
757.404	839.33
757.588	845.47
757.772	794.27
757.956	859.81
758.14	810.65
758.323	800.41
758.507	779.93
758.691	769.69
758.875	806.56
759.059	804.51
759.242	829.09
759.426	796.32
759.61	749.22
759.794	796.32
759.977	738.98
760.161	804.51
760.345	745.12
760.528	730.78
760.712	786.08
760.895	710.3
761.079	640.67
761.263	781.98
761.446	693.92
761.63	779.93
761.813	720.54
761.997	730.78
762.18	687.78
762.364	749.22
762.547	620.19
762.731	661.15
762.914	661.15
763.098	636.58
763.281	767.65
763.464	675.49
763.648	593.57
763.831	646.82
764.015	626.34
764.198	593.57
764.381	642.72
764.564	624.29
764.748	652.96
764.931	681.63
765.114	626.34
765.297	685.73
765.481	581.28
765.664	612
765.847	718.5
766.03	632.48
766.213	683.68
766.397	767.65
766.58	538.27
766.763	628.39
766.946	614.05
767.129	702.11
767.312	595.62
767.495	702.11
767.678	648.86
767.861	734.88
768.044	581.28
768.227	661.15
768.41	583.33
768.593	571.04
768.776	609.95
768.959	618.15
769.142	597.67
769.324	603.81
769.507	554.66
769.69	609.95
769.873	509.6
770.056	568.99
770.239	530.08
770.421	644.77
770.604	577.19
770.787	530.08
770.97	521.89
771.152	538.27
771.335	505.51
771.518	505.51
771.7	528.03
771.883	532.13
772.066	517.79
772.248	552.61
772.431	519.84
772.613	612
772.796	525.99
772.978	542.37
773.161	462.5
773.343	513.7
773.526	401.06
773.708	530.08
773.891	540.32
774.073	474.79
774.256	470.69
774.438	448.16
774.621	485.03
774.803	489.12
774.985	476.84
775.168	407.2
775.35	419.49
775.532	489.12
775.715	521.89
775.897	489.12
776.079	493.22
776.261	507.55
776.444	495.27
776.626	509.6
776.808	439.97
776.99	423.59
777.173	448.16
777.355	433.83
777.537	480.93
777.719	448.16
777.901	444.07
778.083	444.07
778.265	419.49
778.447	435.88
778.629	362.15
778.811	374.44
778.993	388.77
779.175	431.78
779.357	439.97
779.539	474.79
779.721	423.59
779.903	450.21
780.085	456.36
780.267	399.01
780.449	431.78
780.631	452.26
780.812	313
780.994	362.15
781.176	407.2
781.358	448.16
781.54	368.29
781.721	366.25
781.903	390.82
782.085	415.4
782.267	388.77
782.448	378.53
782.63	376.48
782.812	292.52
782.993	327.33
783.175	343.72
783.357	341.67
783.538	319.14
783.72	263.85
783.901	245.41
784.083	286.37
784.264	388.77
784.446	272.04
784.627	222.89
784.809	274.09
784.99	304.81
785.172	399.01
785.353	308.9
785.535	310.95
785.716	308.9
785.897	282.28
786.079	267.94
786.26	231.08
786.441	300.71
786.623	251.56
786.804	247.46
786.985	274.09
787.167	296.61
787.348	294.57
787.529	294.57
787.71	308.9
787.891	204.46
788.073	253.61
788.254	306.85
788.435	272.04
788.616	276.13
788.797	276.13
788.978	241.32
789.159	278.18
789.34	284.33
789.522	241.32
789.703	269.99
789.884	163.5
790.065	276.13
790.246	214.7
790.427	247.46
790.607	292.52
790.788	278.18
790.969	206.5
791.15	274.09
791.331	263.85
791.512	245.41
791.693	229.03
791.874	181.93
792.054	196.26
792.235	194.22
792.416	243.37
792.597	206.5
792.778	220.84
792.958	163.5
793.139	173.74
793.32	159.4
793.5	200.36
793.681	288.42
793.862	245.41
794.042	192.17
794.223	188.07
794.404	190.12
794.584	214.7
794.765	140.97
794.945	175.78
795.126	251.56
795.306	253.61
795.487	249.51
795.667	200.36
795.848	276.13
796.028	235.18
796.209	210.6
796.389	177.83
796.57	241.32
796.75	145.06
796.93	104.11
797.111	188.07
797.291	143.02
797.471	194.22
797.652	124.58
797.832	179.88
798.012	216.74
798.192	188.07
798.373	206.5
798.553	210.6
798.733	204.46
798.913	198.31
799.093	175.78
799.274	177.83
799.454	186.02
799.634	165.54
799.814	118.44
799.994	214.7
800.174	173.74
800.354	169.64
800.534	134.82
800.714	147.11
800.894	159.4
801.074	122.54
801.254	145.06
801.434	212.65
801.614	157.35
801.794	116.39
801.974	413.35
802.154	89.77
802.334	65.19
802.514	157.35
802.693	104.11
802.873	71.34
803.053	153.26
803.233	149.16
803.413	118.44
803.592	108.2
803.772	186.02
803.952	159.4
804.131	183.98
804.311	138.92
804.491	95.91
804.67	245.41
804.85	175.78
805.03	95.91
805.209	161.45
805.389	147.11
805.568	208.55
805.748	118.44
805.928	40.62
806.107	147.11
806.287	177.83
806.466	83.63
806.646	89.77
806.825	52.91
807.004	116.39
807.184	143.02
807.363	102.06
807.543	120.49
807.722	81.58
807.901	159.4
808.081	106.15
808.26	81.58
808.439	130.73
808.619	67.24
808.798	100.01
808.977	93.87
809.156	108.2
809.336	77.48
809.515	130.73
809.694	112.3
809.873	5.8
810.052	48.81
810.231	181.93
810.411	95.91
810.59	122.54
810.769	85.67
810.948	77.48
811.127	91.82
811.306	63.15
811.485	134.82
811.664	95.91
811.843	122.54
812.022	124.58
812.201	122.54
812.38	157.35
812.559	149.16
812.737	42.67
812.916	52.91
813.095	87.72
813.274	85.67
813.453	114.34
813.632	93.87
813.811	93.87
813.989	149.16
814.168	112.3
814.347	71.34
814.526	83.63
814.704	79.53
814.883	97.96
815.062	50.86
815.24	9.9
815.419	95.91
815.598	120.49
815.776	122.54
815.955	140.97
816.133	28.33
816.312	81.58
816.49	57
816.669	134.82
816.847	59.05
817.026	57
817.204	79.53
817.383	75.43
817.561	100.01
817.74	71.34
817.918	57
818.097	73.39
818.275	54.95
818.453	61.1
818.632	116.39
818.81	124.58
818.988	9.9
819.167	36.52
819.345	122.54
819.523	128.68
819.701	7.85
819.879	71.34
820.058	81.58
820.236	63.15
820.414	79.53
820.592	3.75
820.77	134.82
820.948	69.29
821.127	104.11
821.305	89.77
821.483	46.76
821.661	71.34
821.839	57
822.017	52.91
822.195	65.19
822.373	106.15
822.551	79.53
822.729	114.34
822.907	28.33
823.085	128.68
823.262	48.81
823.44	71.34
823.618	85.67
823.796	44.71
823.974	42.67
824.152	149.16
824.329	97.96
824.507	89.77
824.685	44.71
824.863	-4.44
825.04	50.86
825.218	143.02
825.396	104.11
825.574	38.57
825.751	138.92
825.929	44.71
826.107	-4.44
826.284	46.76
826.462	63.15
826.639	13.99
826.817	67.24
826.994	114.34
827.172	71.34
827.349	79.53
827.527	75.43
827.704	100.01
827.882	95.91
828.059	50.86
828.237	32.43
828.414	91.82
828.591	32.43
828.769	-4.44
828.946	11.95
829.124	93.87
829.301	130.73
829.478	112.3
829.655	28.33
829.833	102.06
830.01	79.53
830.187	91.82
830.364	26.28
830.542	48.81
830.719	71.34
830.896	114.34
831.073	175.78
831.25	65.19
831.427	87.72
831.604	57
831.782	32.43
831.959	24.23
832.136	81.58
832.313	24.23
832.49	71.34
832.667	59.05
832.844	71.34
833.021	73.39
833.198	61.1
833.374	5.8
833.551	46.76
833.728	34.47
833.905	73.39
834.082	18.09
834.259	61.1
834.436	102.06
834.612	3.75
834.789	-22.87
834.966	83.63
835.143	57
835.319	-39.25
835.496	83.63
835.673	38.57
835.85	38.57
836.026	-26.96
836.203	59.05
836.38	13.99
836.556	112.3
836.733	91.82
836.909	32.43
837.086	30.38
837.262	24.23
837.439	-8.53
837.616	-76.12
837.792	7.85
837.968	40.62
838.145	-22.87
838.321	50.86
838.498	-18.77
838.674	34.47
838.851	-14.68
839.027	100.01
839.203	52.91
839.38	63.15
839.556	32.43
839.732	59.05
839.909	30.38
840.085	67.24
840.261	-22.87
840.437	65.19
840.614	48.81
840.79	5.8
840.966	13.99
841.142	122.54
841.318	20.14
841.494	61.1
841.671	71.34
841.847	-18.77
842.023	93.87
842.199	-33.11
842.375	81.58
842.551	50.86
842.727	42.67
842.903	13.99
843.079	-59.73
843.255	61.1
843.431	36.52
843.607	42.67
843.783	-0.34
843.959	9.9
844.134	42.67
844.31	-2.39
844.486	13.99
844.662	87.72
844.838	-16.73
845.013	100.01
845.189	54.95
845.365	20.14
845.541	-2.39
845.716	71.34
845.892	63.15
846.068	-0.34
846.244	44.71
846.419	5.8
846.595	81.58
846.77	24.23
846.946	7.85
847.122	-18.77
847.297	32.43
847.473	36.52
847.648	-4.44
847.824	-35.16
847.999	-26.96
848.175	32.43
848.35	-45.4
848.526	79.53
848.701	1.71
848.876	71.34
849.052	48.81
849.227	-6.49
849.403	9.9
849.578	11.95
849.753	54.95
849.929	54.95
850.104	38.57
850.279	61.1
850.454	11.95
850.63	9.9
850.805	42.67
850.98	-22.87
851.155	-10.58
851.33	-35.16
851.505	18.09
851.681	5.8
851.856	7.85
852.031	63.15
852.206	46.76
852.381	5.8
852.556	40.62
852.731	42.67
852.906	22.19
853.081	97.96
853.256	44.71
853.431	67.24
853.606	-29.01
853.781	18.09
853.956	-22.87
854.131	-4.44
854.305	-35.16
854.48	32.43
854.655	-24.92
854.83	83.63
855.005	9.9
855.18	18.09
855.354	-18.77
855.529	44.71
855.704	71.34
855.879	26.28
856.053	63.15
856.228	59.05
856.403	26.28
856.577	89.77
856.752	-69.97
856.926	46.76
857.101	73.39
857.276	18.09
857.45	54.95
857.625	57
857.799	73.39
857.974	104.11
858.148	-37.2
858.323	-2.39
858.497	61.1
858.672	-41.3
858.846	-8.53
859.02	46.76
859.195	-22.87
859.369	32.43
859.543	32.43
859.718	20.14
859.892	30.38
860.066	48.81
860.241	5.8
860.415	-43.35
860.589	32.43
860.763	26.28
860.938	-49.49
861.112	71.34
861.286	-6.49
861.46	18.09
861.634	-10.58
861.808	32.43
861.982	-49.49
862.157	18.09
862.331	-20.82
862.505	-24.92
862.679	75.43
862.853	-4.44
863.027	-37.2
863.201	38.57
863.375	28.33
863.549	-18.77
863.722	-0.34
863.896	38.57
864.07	89.77
864.244	-2.39
864.418	106.15
864.592	30.38
864.766	36.52
864.939	-80.21
865.113	42.67
865.287	54.95
865.461	40.62
865.634	65.19
865.808	-4.44
865.982	50.86
866.156	30.38
866.329	-10.58
866.503	7.85
866.676	13.99
866.85	-8.53
867.024	-33.11
867.197	26.28
867.371	24.23
867.544	22.19
867.718	38.57
867.891	18.09
868.065	48.81
868.238	79.53
868.412	65.19
868.585	-14.68
868.759	-53.59
868.932	-16.73
869.105	-33.11
869.279	-43.35
869.452	24.23
869.625	65.19
869.799	-2.39
869.972	52.91
870.145	104.11
870.319	-0.34
870.492	5.8
870.665	28.33
870.838	40.62
871.011	-16.73
871.185	13.99
871.358	-26.96
871.531	20.14
871.704	-24.92
871.877	-16.73
872.05	42.67
872.223	16.04
872.396	46.76
872.569	63.15
872.742	52.91
872.915	-22.87
873.088	3.75
873.261	5.8
873.434	-14.68
873.607	22.19
873.78	-4.44
873.953	-45.4
874.126	-65.88
874.299	13.99
874.471	-24.92
874.644	42.67
874.817	42.67
874.99	5.8
875.163	9.9
875.335	30.38
875.508	-4.44
875.681	-12.63
875.853	-10.58
876.026	-0.34
876.199	-18.77
876.371	42.67
876.544	-2.39
876.717	24.23
876.889	54.95
877.062	3.75
877.234	9.9
877.407	71.34
877.579	-18.77
877.752	9.9
877.924	-16.73
878.097	-0.34
878.269	-20.82
878.442	65.19
878.614	42.67
878.786	-0.34
878.959	-49.49
879.131	48.81
879.303	11.95
879.476	73.39
879.648	1.71
879.82	1.71
879.993	-2.39
880.165	-41.3
880.337	-14.68
880.509	-29.01
880.681	24.23
880.854	89.77
881.026	75.43
881.198	28.33
881.37	-24.92
881.542	-39.25
881.714	22.19
881.886	-29.01
882.058	52.91
882.23	48.81
882.402	73.39
882.574	-18.77
882.746	1.71
882.918	-59.73
883.09	44.71
883.262	-0.34
883.434	48.81
883.606	24.23
883.778	36.52
883.95	5.8
884.122	-39.25
884.293	-4.44
884.465	13.99
884.637	28.33
884.809	5.8
884.98	28.33
885.152	-14.68
885.324	120.49
885.496	38.57
885.667	13.99
885.839	-59.73
886.011	48.81
886.182	3.75
886.354	7.85
886.525	50.86
886.697	18.09
886.869	7.85
887.04	89.77
887.212	28.33
887.383	-14.68
887.555	-61.78
887.726	5.8
887.897	16.04
888.069	9.9
888.24	-51.54
888.412	24.23
888.583	-4.44
888.754	52.91
888.926	-49.49
889.097	9.9
889.268	-59.73
889.44	-20.82
889.611	-53.59
889.782	44.71
889.953	-16.73
890.125	26.28
890.296	-2.39
890.467	16.04
890.638	24.23
890.809	71.34
890.98	9.9
891.151	63.15
891.323	7.85
891.494	5.8
891.665	-20.82
891.836	44.71
892.007	-37.2
892.178	24.23
892.349	-35.16
892.52	24.23
892.691	-20.82
892.862	1.71
893.032	-14.68
893.203	-2.39
893.374	59.05
893.545	50.86
893.716	26.28
893.887	11.95
894.057	30.38
894.228	20.14
894.399	-59.73
894.57	30.38
894.74	32.43
894.911	32.43
895.082	-49.49
895.253	-14.68
895.423	-8.53
895.594	42.67
895.764	1.71
895.935	38.57
896.106	36.52
896.276	-43.35
896.447	18.09
896.617	-41.3
896.788	-41.3
896.958	7.85
897.129	52.91
897.299	-51.54
897.47	38.57
897.64	-41.3
897.81	-67.92
897.981	24.23
898.151	-2.39
898.322	-29.01
898.492	54.95
898.662	-55.64
898.832	-24.92
899.003	-20.82
899.173	-26.96
899.343	87.72
899.513	-6.49
