Data from USB4F104151__88__13-00-04-479.txt Node

Date: Fri Mar 14 13:00:04 EDT 2025
User: louis
Spectrometer: USB4F10415
Trigger mode: 4
Integration Time (sec): 1.000000E-2
Scans to average: 1
Electric dark correction enabled: true
Nonlinearity correction enabled: false
Boxcar width: 0
XAxis mode: Wavelengths
Number of Pixels in Spectrum: 3648
>>>>>Begin Spectral Data<<<<<
178.204	-59.39
178.424	-59.39
178.644	-59.39
178.864	-63.49
179.084	-22.53
179.304	18.43
179.524	-40.96
179.744	-22.53
179.964	51.2
180.184	26.62
180.404	8.19
180.624	-45.06
180.844	32.77
181.064	-28.67
181.283	-16.38
181.503	-10.24
181.723	26.62
181.943	-2.05
182.163	36.86
182.383	30.72
182.602	12.29
182.822	-2.05
183.042	122.88
183.262	2.05
183.482	-45.06
183.701	-40.96
183.921	67.58
184.141	-2.05
184.361	47.1
184.58	10.24
184.8	6.14
185.02	10.24
185.239	65.54
185.459	-51.2
185.679	20.48
185.898	4.1
186.118	61.44
186.338	-67.58
186.557	26.62
186.777	32.77
186.997	-2.05
187.216	14.34
187.436	112.64
187.655	-47.1
187.875	-18.43
188.095	-26.62
188.314	65.54
188.534	-4.1
188.753	16.38
188.973	-40.96
189.192	67.58
189.412	-18.43
189.631	71.68
189.851	47.1
190.07	22.53
190.29	16.38
190.509	49.15
190.729	-61.44
190.948	-18.43
191.168	55.3
191.387	-38.91
191.607	-14.34
191.826	124.93
192.045	77.82
192.265	45.06
192.484	24.58
192.704	83.97
192.923	49.15
193.142	106.49
193.362	-2.05
193.581	61.44
193.8	-22.53
194.02	-59.39
194.239	-2.05
194.458	20.48
194.678	26.62
194.897	47.1
195.116	16.38
195.335	6.14
195.555	-36.86
195.774	49.15
195.993	-6.14
196.212	-38.91
196.432	43.01
196.651	71.68
196.87	63.49
197.089	6.14
197.308	-8.19
197.528	4.1
197.747	-32.77
197.966	79.87
198.185	18.43
198.404	4.1
198.623	-4.1
198.842	57.34
199.062	16.38
199.281	32.77
199.5	55.3
199.719	124.93
199.938	18.43
200.157	14.34
200.376	55.3
200.595	36.86
200.814	75.77
201.033	38.91
201.252	104.45
201.471	43.01
201.69	12.29
201.909	28.67
202.128	49.15
202.347	32.77
202.566	-8.19
202.785	49.15
203.004	16.38
203.223	53.25
203.442	57.34
203.661	18.43
203.879	20.48
204.098	14.34
204.317	18.43
204.536	40.96
204.755	30.72
204.974	40.96
205.193	2.05
205.411	22.53
205.63	-8.19
205.849	65.54
206.068	-20.48
206.287	-30.72
206.505	-14.34
206.724	40.96
206.943	30.72
207.162	30.72
207.381	6.14
207.599	55.3
207.818	38.91
208.037	16.38
208.255	-67.58
208.474	40.96
208.693	49.15
208.911	30.72
209.13	22.53
209.349	-20.48
209.567	-32.77
209.786	8.19
210.005	30.72
210.223	-16.38
210.442	45.06
210.661	53.25
210.879	104.45
211.098	24.58
211.316	53.25
211.535	34.82
211.753	57.34
211.972	-4.1
212.191	61.44
212.409	88.06
212.628	24.58
212.846	53.25
213.065	55.3
213.283	57.34
213.502	32.77
213.72	36.86
213.938	-49.15
214.157	96.25
214.375	40.96
214.594	-26.62
214.812	-14.34
215.031	53.25
215.249	-8.19
215.467	32.77
215.686	2.05
215.904	-10.24
216.122	-28.67
216.341	79.87
216.559	47.1
216.778	26.62
216.996	51.2
217.214	20.48
217.432	47.1
217.651	-65.53
217.869	83.97
218.087	-18.43
218.306	57.34
218.524	53.25
218.742	-28.67
218.96	6.14
219.179	16.38
219.397	61.44
219.615	53.25
219.833	-77.82
220.051	12.29
220.27	24.58
220.488	71.68
220.706	30.72
220.924	28.67
221.142	43.01
221.36	43.01
221.578	53.25
221.796	57.34
222.015	6.14
222.233	34.82
222.451	71.68
222.669	-79.87
222.887	-30.72
223.105	-43.01
223.323	2.05
223.541	-6.14
223.759	6.14
223.977	92.16
224.195	47.1
224.413	4.1
224.631	59.39
224.849	38.91
225.067	-14.34
225.285	24.58
225.503	-26.62
225.721	8.19
225.939	59.39
226.157	12.29
226.375	36.86
226.592	18.43
226.81	-2.05
227.028	63.49
227.246	114.69
227.464	-4.1
227.682	30.72
227.9	65.54
228.117	6.14
228.335	55.3
228.553	38.91
228.771	16.38
228.989	10.24
229.206	26.62
229.424	-18.43
229.642	22.53
229.86	67.58
230.077	102.4
230.295	51.2
230.513	63.49
230.731	47.1
230.948	90.11
231.166	67.58
231.384	77.82
231.601	88.06
231.819	51.2
232.037	73.73
232.254	38.91
232.472	71.68
232.689	81.92
232.907	32.77
233.125	2.05
233.342	36.86
233.56	-26.62
233.777	73.73
233.995	65.54
234.213	65.54
234.43	-16.38
234.648	10.24
234.865	40.96
235.083	110.59
235.3	18.43
235.518	86.01
235.735	36.86
235.953	51.2
236.17	79.87
236.388	16.38
236.605	34.82
236.822	8.19
237.04	47.1
237.257	4.1
237.475	8.19
237.692	65.54
237.909	-40.96
238.127	22.53
238.344	-90.11
238.562	10.24
238.779	26.62
238.996	12.29
239.214	79.87
239.431	26.62
239.648	-110.59
239.865	43.01
240.083	30.72
240.3	43.01
240.517	-14.34
240.735	-40.96
240.952	8.19
241.169	40.96
241.386	67.58
241.603	53.25
241.821	47.1
242.038	16.38
242.255	59.39
242.472	2.05
242.689	102.4
242.907	-14.34
243.124	-45.06
243.341	32.77
243.558	-34.82
243.775	36.86
243.992	10.24
244.209	77.82
244.426	4.1
244.643	12.29
244.86	26.62
245.078	-22.53
245.295	-59.39
245.512	16.38
245.729	24.58
245.946	18.43
246.163	59.39
246.38	-59.39
246.597	30.72
246.814	53.25
247.031	36.86
247.248	6.14
247.464	51.2
247.681	-8.19
247.898	71.68
248.115	20.48
248.332	59.39
248.549	16.38
248.766	75.77
248.983	-10.24
249.2	26.62
249.417	34.82
249.633	-20.48
249.85	63.49
250.067	-14.34
250.284	90.11
250.501	69.63
250.717	59.39
250.934	83.97
251.151	-12.29
251.368	61.44
251.585	79.87
251.801	4.1
252.018	0
252.235	40.96
252.451	-12.29
252.668	-20.48
252.885	36.86
253.102	28.67
253.318	24.58
253.535	71.68
253.752	28.67
253.968	6.14
254.185	55.3
254.401	61.44
254.618	57.34
254.835	36.86
255.051	28.67
255.268	47.1
255.484	67.58
255.701	-36.86
255.917	24.58
256.134	26.62
256.351	63.49
256.567	-26.62
256.784	163.84
257	-18.43
257.217	18.43
257.433	59.39
257.65	43.01
257.866	22.53
258.082	-8.19
258.299	16.38
258.515	-6.14
258.732	8.19
258.948	-49.15
259.165	24.58
259.381	40.96
259.597	22.53
259.814	57.34
260.03	-38.91
260.246	32.77
260.463	51.2
260.679	51.2
260.895	-8.19
261.112	57.34
261.328	83.97
261.544	22.53
261.761	-2.05
261.977	34.82
262.193	49.15
262.409	43.01
262.626	38.91
262.842	43.01
263.058	-30.72
263.274	51.2
263.49	-4.1
263.707	43.01
263.923	30.72
264.139	-8.19
264.355	47.1
264.571	24.58
264.787	28.67
265.004	53.25
265.22	51.2
265.436	-47.1
265.652	47.1
265.868	86.01
266.084	-2.05
266.3	-24.58
266.516	-8.19
266.732	40.96
266.948	49.15
267.164	4.1
267.38	32.77
267.596	34.82
267.812	12.29
268.028	24.58
268.244	38.91
268.46	30.72
268.676	36.86
268.892	30.72
269.108	10.24
269.324	30.72
269.54	-4.1
269.756	-10.24
269.972	-18.43
270.188	-20.48
270.403	47.1
270.619	-10.24
270.835	-55.3
271.051	8.19
271.267	4.1
271.483	53.25
271.698	6.14
271.914	-30.72
272.13	6.14
272.346	-6.14
272.562	-34.82
272.777	88.06
272.993	18.43
273.209	57.34
273.425	26.62
273.64	51.2
273.856	22.53
274.072	28.67
274.287	45.06
274.503	20.48
274.719	75.77
274.934	-32.77
275.15	-2.05
275.366	-6.14
275.581	34.82
275.797	45.06
276.012	10.24
276.228	47.1
276.444	22.53
276.659	2.05
276.875	-49.15
277.09	-26.62
277.306	-40.96
277.521	83.97
277.737	24.58
277.952	18.43
278.168	49.15
278.383	79.87
278.599	-10.24
278.814	38.91
279.03	36.86
279.245	24.58
279.461	65.54
279.676	34.82
279.892	-2.05
280.107	-57.34
280.322	32.77
280.538	14.34
280.753	26.62
280.969	47.1
281.184	-28.67
281.399	71.68
281.615	81.92
281.83	118.78
282.045	106.49
282.26	18.43
282.476	49.15
282.691	49.15
282.906	34.82
283.122	-40.96
283.337	61.44
283.552	69.63
283.767	-40.96
283.983	30.72
284.198	26.62
284.413	47.1
284.628	6.14
284.843	71.68
285.058	34.82
285.274	104.45
285.489	8.19
285.704	53.25
285.919	-2.05
286.134	-6.14
286.349	32.77
286.564	75.77
286.779	49.15
286.995	40.96
287.21	-69.63
287.425	36.86
287.64	47.1
287.855	100.35
288.07	-2.05
288.285	-30.72
288.5	79.87
288.715	63.49
288.93	14.34
289.145	-34.82
289.36	16.38
289.575	53.25
289.79	40.96
290.004	141.31
290.219	14.34
290.434	65.54
290.649	-92.16
290.864	94.21
291.079	28.67
291.294	108.54
291.509	10.24
291.724	45.06
291.938	-22.53
292.153	55.3
292.368	4.1
292.583	-24.58
292.798	51.2
293.012	8.19
293.227	6.14
293.442	40.96
293.657	104.45
293.871	38.91
294.086	30.72
294.301	67.58
294.516	92.16
294.73	53.25
294.945	63.49
295.16	12.29
295.374	110.59
295.589	38.91
295.804	65.54
296.018	20.48
296.233	90.11
296.447	53.25
296.662	-20.48
296.877	122.88
297.091	18.43
297.306	30.72
297.52	18.43
297.735	34.82
297.949	10.24
298.164	47.1
298.378	-4.1
298.593	14.34
298.807	-28.67
299.022	69.63
299.236	108.54
299.451	36.86
299.665	8.19
299.88	83.97
300.094	26.62
300.309	8.19
300.523	67.58
300.737	-4.1
300.952	26.62
301.166	55.3
301.381	-38.91
301.595	79.87
301.809	-12.29
302.024	40.96
302.238	-22.53
302.452	96.25
302.667	47.1
302.881	32.77
303.095	4.1
303.309	57.34
303.524	53.25
303.738	30.72
303.952	20.48
304.166	79.87
304.381	6.14
304.595	77.82
304.809	-4.1
305.023	108.54
305.237	-4.1
305.452	-12.29
305.666	-67.58
305.88	57.34
306.094	69.63
306.308	10.24
306.522	22.53
306.736	2.05
306.95	71.68
307.164	106.49
307.379	24.58
307.593	67.58
307.807	34.82
308.021	-47.1
308.235	18.43
308.449	10.24
308.663	-34.82
308.877	47.1
309.091	22.53
309.305	126.97
309.519	67.58
309.733	49.15
309.947	40.96
310.161	4.1
310.374	2.05
310.588	75.77
310.802	-10.24
311.016	18.43
311.23	10.24
311.444	36.86
311.658	108.54
311.872	81.92
312.085	30.72
312.299	26.62
312.513	14.34
312.727	57.34
312.941	8.19
313.154	6.14
313.368	-4.1
313.582	-4.1
313.796	-51.2
314.009	-10.24
314.223	51.2
314.437	10.24
314.651	-8.19
314.864	4.1
315.078	75.77
315.292	71.68
315.505	4.1
315.719	75.77
315.933	45.06
316.146	-2.05
316.36	6.14
316.573	75.77
316.787	43.01
317.001	96.25
317.214	-18.43
317.428	96.25
317.641	73.73
317.855	32.77
318.068	36.86
318.282	65.54
318.495	147.45
318.709	71.68
318.922	24.58
319.136	24.58
319.349	-6.14
319.563	36.86
319.776	22.53
319.99	73.73
320.203	57.34
320.417	-10.24
320.63	73.73
320.843	16.38
321.057	-61.44
321.27	51.2
321.483	-8.19
321.697	55.3
321.91	10.24
322.124	139.26
322.337	-49.15
322.55	43.01
322.763	30.72
322.977	-26.62
323.19	32.77
323.403	79.87
323.617	116.73
323.83	49.15
324.043	40.96
324.256	47.1
324.469	-16.38
324.683	-18.43
324.896	32.77
325.109	32.77
325.322	20.48
325.535	90.11
325.748	94.21
325.962	75.77
326.175	-6.14
326.388	69.63
326.601	18.43
326.814	92.16
327.027	73.73
327.24	96.25
327.453	-40.96
327.666	51.2
327.879	38.91
328.092	59.39
328.305	40.96
328.518	22.53
328.731	28.67
328.944	53.25
329.157	43.01
329.37	6.14
329.583	38.91
329.796	-18.43
330.009	49.15
330.222	53.25
330.435	53.25
330.648	61.44
330.861	10.24
331.073	22.53
331.286	77.82
331.499	24.58
331.712	4.1
331.925	65.54
332.138	-69.63
332.35	96.25
332.563	2.05
332.776	65.54
332.989	43.01
333.202	98.3
333.414	63.49
333.627	106.49
333.84	45.06
334.053	47.1
334.265	61.44
334.478	88.06
334.691	49.15
334.903	12.29
335.116	43.01
335.329	30.72
335.541	-30.72
335.754	108.54
335.966	12.29
336.179	43.01
336.392	38.91
336.604	81.92
336.817	55.3
337.029	81.92
337.242	43.01
337.454	18.43
337.667	6.14
337.88	38.91
338.092	32.77
338.305	79.87
338.517	40.96
338.729	24.58
338.942	55.3
339.154	12.29
339.367	43.01
339.579	51.2
339.792	-53.25
340.004	77.82
340.217	32.77
340.429	-24.58
340.641	2.05
340.854	30.72
341.066	71.68
341.278	55.3
341.491	75.77
341.703	-40.96
341.915	6.14
342.128	43.01
342.34	-38.91
342.552	96.25
342.764	20.48
342.977	79.87
343.189	14.34
343.401	86.01
343.613	8.19
343.826	22.53
344.038	-34.82
344.25	75.77
344.462	75.77
344.674	47.1
344.886	61.44
345.099	4.1
345.311	57.34
345.523	-26.62
345.735	67.58
345.947	12.29
346.159	16.38
346.371	65.54
346.583	6.14
346.795	61.44
347.007	38.91
347.219	61.44
347.431	30.72
347.643	26.62
347.855	32.77
348.067	49.15
348.279	16.38
348.491	8.19
348.703	38.91
348.915	36.86
349.127	28.67
349.339	12.29
349.551	-10.24
349.763	-2.05
349.975	8.19
350.187	14.34
350.399	20.48
350.61	106.49
350.822	34.82
351.034	-14.34
351.246	12.29
351.458	30.72
351.669	-2.05
351.881	-14.34
352.093	-18.43
352.305	-2.05
352.517	71.68
352.728	40.96
352.94	-24.58
353.152	63.49
353.363	51.2
353.575	43.01
353.787	26.62
353.999	98.3
354.21	71.68
354.422	4.1
354.633	16.38
354.845	-38.91
355.057	43.01
355.268	8.19
355.48	73.73
355.692	-2.05
355.903	30.72
356.115	63.49
356.326	14.34
356.538	26.62
356.749	59.39
356.961	24.58
357.172	38.91
357.384	-2.05
357.595	32.77
357.807	55.3
358.018	40.96
358.23	49.15
358.441	43.01
358.653	14.34
358.864	129.02
359.075	-26.62
359.287	-6.14
359.498	51.2
359.709	-20.48
359.921	16.38
360.132	22.53
360.344	57.34
360.555	49.15
360.766	79.87
360.977	-20.48
361.189	8.19
361.4	49.15
361.611	59.39
361.823	12.29
362.034	65.54
362.245	38.91
362.456	-12.29
362.667	55.3
362.879	16.38
363.09	47.1
363.301	49.15
363.512	47.1
363.723	57.34
363.935	16.38
364.146	51.2
364.357	8.19
364.568	55.3
364.779	24.58
364.99	47.1
365.201	24.58
365.412	55.3
365.623	-10.24
365.834	47.1
366.045	14.34
366.256	-86.01
366.467	18.43
366.678	69.63
366.889	8.19
367.1	38.91
367.311	-12.29
367.522	-2.05
367.733	53.25
367.944	22.53
368.155	12.29
368.366	92.16
368.577	20.48
368.788	24.58
368.999	59.39
369.209	-4.1
369.42	38.91
369.631	8.19
369.842	67.58
370.053	28.67
370.264	-18.43
370.474	102.4
370.685	49.15
370.896	18.43
371.107	88.06
371.317	106.49
371.528	49.15
371.739	75.77
371.95	49.15
372.16	-8.19
372.371	24.58
372.582	49.15
372.792	4.1
373.003	18.43
373.214	65.54
373.424	114.69
373.635	0
373.846	40.96
374.056	14.34
374.267	6.14
374.477	6.14
374.688	22.53
374.898	-8.19
375.109	55.3
375.319	43.01
375.53	67.58
375.74	4.1
375.951	73.73
376.161	14.34
376.372	12.29
376.582	24.58
376.793	88.06
377.003	-6.14
377.214	98.3
377.424	-4.1
377.635	-14.34
377.845	20.48
378.055	73.73
378.266	43.01
378.476	88.06
378.686	0
378.897	67.58
379.107	104.45
379.317	51.2
379.528	81.92
379.738	65.54
379.948	-47.1
380.158	-22.53
380.369	53.25
380.579	40.96
380.789	43.01
380.999	32.77
381.21	38.91
381.42	110.59
381.63	-40.96
381.84	77.82
382.05	8.19
382.261	43.01
382.471	102.4
382.681	81.92
382.891	88.06
383.101	47.1
383.311	38.91
383.521	38.91
383.731	49.15
383.941	45.06
384.151	100.35
384.361	30.72
384.571	16.38
384.781	114.69
384.991	18.43
385.201	108.54
385.411	79.87
385.621	61.44
385.831	47.1
386.041	24.58
386.251	65.54
386.461	102.4
386.671	22.53
386.881	43.01
387.091	57.34
387.301	86.01
387.511	38.91
387.72	155.65
387.93	51.2
388.14	2.05
388.35	24.58
388.56	86.01
388.769	-36.86
388.979	30.72
389.189	24.58
389.399	14.34
389.609	108.54
389.818	36.86
390.028	45.06
390.238	71.68
390.447	-2.05
390.657	86.01
390.867	49.15
391.076	22.53
391.286	14.34
391.496	0
391.705	100.35
391.915	-28.67
392.125	104.45
392.334	63.49
392.544	28.67
392.753	-30.72
392.963	34.82
393.172	40.96
393.382	-59.39
393.591	67.58
393.801	-22.53
394.01	49.15
394.22	16.38
394.429	51.2
394.639	10.24
394.848	-24.58
395.058	90.11
395.267	94.21
395.477	38.91
395.686	51.2
395.895	-22.53
396.105	32.77
396.314	-2.05
396.524	28.67
396.733	59.39
396.942	55.3
397.152	40.96
397.361	55.3
397.57	61.44
397.78	57.34
397.989	69.63
398.198	43.01
398.407	38.91
398.617	32.77
398.826	18.43
399.035	55.3
399.244	67.58
399.453	51.2
399.663	90.11
399.872	51.2
400.081	-12.29
400.29	90.11
400.499	-2.05
400.708	45.06
400.917	14.34
401.127	47.1
401.336	34.82
401.545	94.21
401.754	12.29
401.963	38.91
402.172	79.87
402.381	63.49
402.59	102.4
402.799	131.07
403.008	83.97
403.217	120.83
403.426	102.4
403.635	159.74
403.844	79.87
404.053	30.72
404.262	67.58
404.471	98.3
404.68	88.06
404.888	106.49
405.097	24.58
405.306	67.58
405.515	98.3
405.724	92.16
405.933	100.35
406.142	112.64
406.35	69.63
406.559	139.26
406.768	36.86
406.977	169.98
407.185	67.58
407.394	129.02
407.603	153.6
407.812	165.89
408.02	73.73
408.229	96.25
408.438	159.74
408.646	47.1
408.855	215.04
409.064	137.21
409.272	104.45
409.481	266.24
409.69	186.37
409.898	153.6
410.107	157.69
410.315	204.8
410.524	210.94
410.733	124.93
410.941	155.65
411.15	192.51
411.358	188.41
411.567	161.79
411.775	172.03
411.984	229.37
412.192	151.55
412.401	196.61
412.609	182.27
412.818	219.13
413.026	229.37
413.234	219.13
413.443	231.42
413.651	247.8
413.86	292.86
414.068	319.48
414.276	344.06
414.485	268.28
414.693	233.47
414.901	262.14
415.11	301.05
415.318	268.28
415.526	385.02
415.734	342.01
415.943	311.29
416.151	296.96
416.359	417.79
416.567	389.11
416.776	376.83
416.984	356.35
417.192	428.03
417.4	448.51
417.608	337.91
417.817	385.02
418.025	468.98
418.233	522.23
418.441	460.79
418.649	501.75
418.857	561.14
419.065	604.15
419.273	571.38
419.481	602.1
419.689	614.39
419.897	636.92
420.105	647.16
420.313	651.25
420.521	616.44
420.729	747.51
420.937	686.07
421.145	808.95
421.353	747.51
421.561	796.66
421.769	798.71
421.977	954.35
422.185	813.04
422.393	841.72
422.601	876.53
422.809	890.87
423.017	993.26
423.224	1001.46
423.432	1040.37
423.64	1116.14
423.848	1208.3
424.056	1198.06
424.263	1329.13
424.471	1185.77
424.679	1124.33
424.887	1316.84
425.094	1357.8
425.302	1368.04
425.51	1357.8
425.718	1423.34
425.925	1474.54
426.133	1572.84
426.341	1531.88
426.548	1699.81
426.756	1597.42
426.964	1687.53
427.171	1767.4
427.379	1861.6
427.586	1794.02
427.794	1875.94
428.001	1947.62
428.209	2000.87
428.417	2133.98
428.624	2285.53
428.832	2234.33
429.039	2144.22
429.247	2140.13
429.454	2455.51
429.662	2545.63
429.869	2463.71
430.076	2598.87
430.284	2547.67
430.491	2506.71
430.699	2834.39
430.906	2742.23
431.114	2809.81
431.321	2852.82
431.528	2963.41
431.736	3147.73
431.943	3327.95
432.15	3131.34
432.358	3266.51
432.565	3334.09
432.772	3258.32
432.979	3510.22
433.187	3676.1
433.394	3721.16
433.601	3839.94
433.808	3891.14
434.016	3876.8
434.223	3856.33
434.43	4251.58
434.637	4235.2
434.844	4483
435.052	4558.78
435.259	4489.15
435.466	4544.44
435.673	4519.87
435.88	4747.19
436.087	4941.75
436.294	5119.92
436.501	4853.69
436.708	5003.19
436.915	5142.45
437.122	5349.29
437.329	5408.69
437.537	5523.37
437.743	5674.92
437.95	5693.35
438.157	5992.36
438.364	6008.74
438.571	6088.61
438.778	6178.72
438.985	6774.68
439.192	6334.37
439.399	6514.59
439.606	6471.58
439.813	6858.65
440.02	7264.15
440.227	6979.48
440.433	7100.31
440.64	7329.68
440.847	7258
441.054	7389.07
441.261	7896.97
441.467	7919.5
441.674	7923.59
441.881	8431.49
442.088	8200.07
442.294	8238.98
442.501	8394.62
442.708	8761.21
442.914	8943.48
443.121	9361.27
443.328	9217.91
443.534	9770.86
443.741	9355.12
443.948	9437.04
444.154	10135.4
444.361	10053.48
444.568	10168.16
444.774	10078.05
444.981	10268.52
445.187	10542.94
445.394	11095.89
445.6	10952.54
445.807	11982.67
446.013	11255.64
446.22	11472.72
446.426	11929.42
446.633	11984.71
446.839	12498.75
447.046	12164.93
447.252	12674.88
447.459	12621.63
447.665	12846.91
447.871	13256.5
448.078	14069.55
448.284	13416.24
448.491	13657.9
448.697	14065.45
448.903	14362.4
449.11	14604.07
449.316	14237.48
449.522	14393.12
449.728	15001.37
449.935	15126.3
450.141	14855.97
450.347	15175.45
450.553	14933.79
450.76	15081.24
450.966	15574.8
451.172	15636.24
451.378	15988.49
451.584	15595.28
451.791	16037.64
451.997	15646.48
452.203	16234.25
452.409	16510.72
452.615	16133.9
452.821	15816.46
453.027	15374.1
453.233	16094.99
453.44	15863.57
453.646	15804.17
453.852	15769.36
454.058	16307.98
454.264	15558.42
454.47	16023.31
454.676	15644.43
454.882	15947.53
455.088	14819.1
455.294	14870.3
455.5	15238.94
455.705	15214.36
455.911	14616.35
456.117	14266.15
456.323	14200.62
456.529	13545.27
456.735	14047.02
456.941	13639.47
457.147	13455.15
457.352	13205.3
457.558	12994.36
457.764	13117.24
457.97	12812.09
458.176	12646.21
458.381	12476.23
458.587	11878.22
458.793	11743.05
458.999	11306.84
459.204	12197.7
459.41	11765.58
459.616	11298.64
459.821	11079.51
460.027	11001.69
460.233	10551.14
460.438	10250.08
460.644	10178.4
460.85	9924.46
461.055	9850.73
461.261	9736.04
461.466	9037.69
461.672	8650.62
461.878	9387.89
462.083	8783.74
462.289	8583.04
462.494	8484.73
462.7	8159.11
462.905	7769.99
463.111	8062.85
463.316	8218.5
463.522	8052.61
463.727	8038.28
463.932	8214.4
464.138	7985.03
464.343	8038.28
464.549	7602.06
464.754	8077.19
464.959	7917.45
465.165	7921.54
465.37	7647.12
465.575	7360.4
465.781	7640.97
465.986	7548.81
466.191	7505.81
466.397	7366.54
466.602	6887.32
466.807	7073.68
467.012	7153.55
467.218	7090.07
467.423	7116.69
467.628	7270.29
467.833	7438.22
468.038	7214.99
468.244	7116.69
468.449	7307.15
468.654	7018.39
468.859	6868.89
469.064	6967.19
469.269	6725.53
469.474	6725.53
469.679	6887.32
469.885	6428.57
470.09	6727.58
470.295	6854.55
470.5	6569.88
470.705	6619.03
470.91	6381.47
471.115	6348.7
471.32	6700.95
471.525	6440.86
471.73	6358.94
471.935	6264.74
472.139	6113.19
472.344	6168.48
472.549	6178.72
472.754	6141.86
472.959	5881.77
473.164	5808.04
473.369	5631.91
473.574	6018.98
473.778	5969.83
473.983	5803.94
474.188	5593
474.393	5437.36
474.598	5572.52
474.802	5685.16
475.007	5525.42
475.212	5629.87
475.417	5302.19
475.621	5220.27
475.826	5304.24
476.031	5179.31
476.235	5021.62
476.44	5189.55
476.645	5038
476.849	5068.72
477.054	4949.94
477.259	5103.54
477.463	5074.87
477.668	4997.04
477.872	4792.25
478.077	4890.55
478.282	4698.04
478.486	4644.79
478.691	4648.89
478.895	4630.46
479.1	4739
479.304	4538.3
479.509	4487.1
479.713	4564.92
479.918	4476.86
480.122	4442.04
480.326	4321.21
480.531	4526.01
480.735	4517.82
480.94	4419.52
481.144	4511.68
481.348	4224.96
481.553	4337.6
481.757	4274.11
481.961	4374.46
482.166	4392.89
482.37	4388.8
482.574	4212.67
482.778	4255.68
482.983	4298.69
483.187	4376.51
483.391	4267.97
483.595	4308.93
483.8	4304.83
484.004	4276.16
484.208	4435.9
484.412	4263.87
484.616	4396.99
484.821	4265.92
485.025	4339.65
485.229	4452.28
485.433	4347.84
485.637	4140.99
485.841	4278.21
486.045	4386.75
486.249	4382.65
486.453	4323.26
486.657	4263.87
486.861	4360.13
487.065	4136.9
487.269	4255.68
487.473	4392.89
487.677	4308.93
487.881	4372.41
488.085	4396.99
488.289	4491.2
488.493	4306.88
488.697	4317.12
488.901	4280.25
489.105	4450.24
489.309	4368.32
489.512	4411.32
489.716	4396.99
489.92	4546.49
490.124	4302.78
490.328	4495.29
490.531	4374.46
490.735	4403.13
490.939	4630.46
491.143	4456.38
491.346	4532.15
491.55	4620.22
491.754	4483
491.958	4511.68
492.161	4659.13
492.365	4642.75
492.569	4724.66
492.772	4573.11
492.976	4667.32
493.18	4642.75
493.383	4734.9
493.587	4874.17
493.79	4794.29
493.994	4751.29
494.197	4782.01
494.401	4986.8
494.605	4900.79
494.808	4986.8
495.012	5056.43
495.215	4949.94
495.419	5101.49
495.622	5056.43
495.825	5038
496.029	5136.31
496.232	5384.11
496.436	5267.38
496.639	5425.07
496.843	5279.66
497.046	5388.21
497.249	5496.75
497.453	5599.15
497.656	5584.81
497.859	5736.36
498.063	5693.35
498.266	5816.23
498.469	5883.81
498.673	5892.01
498.876	5924.77
499.079	6113.19
499.282	6094.76
499.485	6254.5
499.689	6217.63
499.892	6526.88
500.095	6461.34
500.298	6457.25
500.501	6322.08
500.705	6727.58
500.908	6836.12
501.111	6686.62
501.314	6899.61
501.517	6977.43
501.72	6969.24
501.923	7151.51
502.126	7120.79
502.329	7362.45
502.532	7282.58
502.735	7403.41
502.938	7665.55
503.141	7450.51
503.344	7571.34
503.547	7899.02
503.75	7767.95
503.953	8003.46
504.156	8034.18
504.359	8152.96
504.562	8361.86
504.765	8394.62
504.968	8552.32
505.17	8521.6
505.373	8564.61
505.576	8695.68
505.779	8851.32
505.982	9054.07
506.185	9273.2
506.387	9148.28
506.59	9353.07
506.793	9658.22
506.996	9402.22
507.198	9658.22
507.401	9738.09
507.604	9709.42
507.807	10045.29
508.009	10131.3
508.212	10098.53
508.415	10444.64
508.617	10522.46
508.82	10651.49
509.022	10448.74
509.225	10782.56
509.428	10858.33
509.63	10999.64
509.833	10979.16
510.035	11396.95
510.238	11308.88
510.44	11681.61
510.643	11761.48
510.845	11978.57
511.048	11845.45
511.25	12048.2
511.453	12025.67
511.655	12537.66
511.858	12228.42
512.06	12379.97
512.262	12867.39
512.465	12746.56
512.667	12973.88
512.87	13008.7
513.072	13152.06
513.274	13360.95
513.477	13467.44
513.679	13754.16
513.881	13641.52
514.084	14159.66
514.286	13924.14
514.488	13961
514.69	14473
514.893	14513.95
515.095	14626.59
515.297	14911.26
515.499	14831.39
515.701	15243.03
515.904	15204.12
516.106	15523.6
516.308	15496.98
516.51	15859.47
516.712	16029.45
516.914	15838.99
517.116	16463.62
517.318	16461.57
517.52	16627.46
517.722	16592.64
517.925	16656.13
518.127	16981.76
518.329	17217.27
518.531	17280.76
518.733	17538.8
518.935	17643.25
519.136	17696.5
519.338	17929.97
519.54	18550.5
519.742	18083.56
519.944	18386.66
520.146	18751.2
520.348	18661.09
520.55	18728.67
520.752	18749.15
520.954	19478.23
521.155	19267.29
521.357	19619.54
521.559	19742.42
521.761	19912.4
521.963	19668.69
522.164	19842.77
522.366	20002.51
522.568	20055.76
522.77	20321.99
522.971	20711.11
523.173	20543.17
523.375	20903.62
523.576	20944.58
523.778	20797.12
523.98	21247.68
524.181	21362.36
524.383	21440.18
524.584	21767.86
524.786	21681.85
524.988	21626.55
525.189	21943.99
525.391	21937.84
525.592	22097.58
525.794	22165.17
525.995	22202.03
526.197	22351.53
526.398	22576.81
526.6	22843.04
526.801	22632.1
527.003	22826.66
527.204	22793.89
527.406	23043.74
527.607	23135.9
527.808	23348.89
528.01	23049.89
528.211	22859.43
528.412	23621.27
528.614	23738.01
528.815	23570.07
529.016	23797.4
529.218	23568.02
529.419	23744.15
529.62	23781.01
529.822	23924.37
530.023	23770.77
530.224	23977.62
530.425	24008.34
530.626	23817.88
530.828	23924.37
531.029	24438.41
531.23	24047.25
531.431	24030.87
531.632	24213.13
531.833	24123.02
532.035	24430.22
532.236	24434.32
532.437	24432.27
532.638	24440.46
532.839	24508.04
533.04	24549
533.241	24350.35
533.442	24888.96
533.643	24596.1
533.844	24536.71
534.045	24577.67
534.246	24299.15
534.447	24573.58
534.648	24307.34
534.849	24915.59
535.05	24415.88
535.251	24479.37
535.451	24569.48
535.652	24909.44
535.853	24630.92
536.054	24786.57
536.255	24704.65
536.456	24372.88
536.657	24977.03
536.857	24553.1
537.058	24673.93
537.259	24862.34
537.46	24960.64
537.66	25054.85
537.861	24739.46
538.062	24405.64
538.263	24657.54
538.463	24397.45
538.664	24528.52
538.865	24524.43
539.065	24823.43
539.266	24266.38
539.466	24888.96
539.667	24622.73
539.868	24874.63
540.068	24866.44
540.269	24426.12
540.469	24628.87
540.67	24503.95
540.87	24553.1
541.071	24403.6
541.271	24833.67
541.472	24829.57
541.672	24493.71
541.873	24641.16
542.073	24489.61
542.274	24989.31
542.474	24536.71
542.675	24440.46
542.875	24954.5
543.075	24534.67
543.276	24487.56
543.476	24886.92
543.676	24274.57
543.877	25011.84
544.077	24661.64
544.277	24540.81
544.478	24460.94
544.678	24688.26
544.878	24354.44
545.078	24462.99
545.279	24583.82
545.479	24641.16
545.679	24413.84
545.879	24567.43
546.079	24782.47
546.28	24440.46
546.48	24397.45
546.68	24682.12
546.88	24692.36
547.08	24551.05
547.28	24395.4
547.48	24495.75
547.68	24583.82
547.88	24395.4
548.081	24790.66
548.281	24528.52
548.481	24233.61
548.681	24698.5
548.881	24632.97
549.081	24884.87
549.28	24413.84
549.48	24391.31
549.68	24649.35
549.88	24516.23
550.08	24385.16
550.28	24471.18
550.48	24387.21
550.68	24620.68
550.88	24467.08
551.08	24268.43
551.279	24272.53
551.479	24090.26
551.679	24667.78
551.879	24391.31
552.079	24475.27
552.278	24495.75
552.478	24161.94
552.678	24450.7
552.878	24426.12
553.077	24372.88
553.277	24200.85
553.477	24264.33
553.676	24194.7
553.876	24028.82
554.076	24131.22
554.275	24080.02
554.475	23973.52
554.674	24452.75
554.874	24090.26
555.074	24223.37
555.273	24145.55
555.473	24401.55
555.672	23905.94
555.872	24118.93
556.071	24092.3
556.271	24436.36
556.47	24168.08
556.67	23936.66
556.869	24067.73
557.068	24301.2
557.268	23824.02
557.467	24000.15
557.667	24055.44
557.866	23729.81
558.065	23766.68
558.265	23905.94
558.464	23717.53
558.663	24350.35
558.863	23520.92
559.062	24059.54
559.261	23944.85
559.461	24006.29
559.66	23246.49
559.859	23748.25
560.058	23549.59
560.258	23713.43
560.457	23627.42
560.656	23588.5
560.855	23617.18
561.054	23727.77
561.253	23099.04
561.453	23146.14
561.652	23676.57
561.851	23273.12
562.05	23328.41
562.249	23133.85
562.448	23369.37
562.647	23275.16
562.846	23170.72
563.045	23060.13
563.244	22884
563.443	23432.86
563.642	22886.05
563.841	23019.17
564.04	22750.88
564.239	23033.5
564.438	22754.98
564.637	22816.42
564.836	23041.7
565.035	22734.5
565.234	22757.03
565.432	22537.9
565.631	22546.09
565.83	22646.44
566.029	22541.99
566.228	22308.52
566.427	22589.1
566.625	22521.51
566.824	22025.9
567.023	22316.72
567.222	22060.72
567.42	22505.13
567.619	22251.18
567.818	22197.93
568.016	22120.11
568.215	22308.52
568.414	22212.27
568.612	21968.56
568.811	21958.32
569.01	21962.42
569.208	21673.65
569.407	21962.42
569.605	21354.17
569.804	21909.17
570.002	21718.71
570.201	21620.41
570.4	21278.4
570.598	21419.71
570.797	21374.65
570.995	21311.16
571.193	21114.56
571.392	21497.53
571.59	21356.22
571.789	21114.56
571.987	21036.74
572.186	20977.34
572.384	21132.99
572.582	21112.51
572.781	21132.99
572.979	20618.95
573.177	20842.18
573.376	21030.59
573.574	20704.96
573.772	20913.86
573.971	20502.22
574.169	20666.05
574.367	20596.42
574.565	20438.73
574.763	20321.99
574.962	20584.13
575.16	20444.87
575.358	20311.75
575.556	20223.69
575.754	20477.64
575.952	20043.47
576.151	20326.09
576.349	19992.27
576.547	20025.04
576.745	20004.56
576.943	20303.56
577.141	20156.11
577.339	19889.87
577.537	19547.86
577.735	19891.92
577.933	19521.24
578.131	19805.91
578.329	19447.51
578.527	19373.78
578.725	19338.97
578.923	19648.21
579.121	19554.01
579.319	19345.11
579.516	19175.13
579.714	19293.91
579.912	19500.76
580.11	19279.58
580.308	18994.91
580.506	19060.45
580.704	19035.87
580.901	19062.49
581.099	19136.22
581.297	18759.39
581.495	18876.13
581.692	18884.32
581.89	18437.86
582.088	18734.82
582.285	18470.63
582.483	18714.34
582.681	18460.39
582.878	18609.89
583.076	18251.5
583.274	18589.41
583.471	18163.43
583.669	18276.07
583.866	18118.38
584.064	18206.44
584.262	17909.49
584.459	18120.43
584.657	18239.21
584.854	18061.04
585.052	17786.61
585.249	18036.46
585.447	17964.78
585.644	17532.66
585.841	17719.03
586.039	17899.25
586.236	17612.53
586.434	17608.44
586.631	17469.17
586.828	17733.36
587.026	17274.62
587.223	17587.96
587.42	17344.25
587.618	17630.96
587.815	17245.94
588.012	17157.88
588.21	16854.78
588.407	17252.09
588.604	17014.52
588.801	16934.65
588.999	17213.18
589.196	16805.63
589.393	17010.43
589.59	16688.9
589.787	16912.13
589.984	16705.28
590.182	16713.47
590.379	16649.99
590.576	16594.69
590.773	16502.53
590.97	16457.48
591.167	16398.09
591.364	16293.64
591.561	16443.14
591.758	16377.61
591.955	16156.43
592.152	16455.43
592.349	16254.73
592.546	16152.33
592.743	16082.7
592.94	15912.72
593.137	16328.45
593.334	16144.14
593.531	15804.17
593.727	15929.1
593.924	16033.55
594.121	15626
594.318	15642.39
594.515	15548.18
594.712	15519.51
594.908	15664.91
595.105	15611.67
595.302	15554.32
595.499	15392.53
595.696	15537.94
595.892	15550.23
596.089	15464.21
596.286	15546.13
596.482	15388.44
596.679	15480.6
596.876	15220.5
597.072	15019.8
597.269	15044.38
597.466	15116.06
597.662	14925.6
597.859	15040.28
598.055	14999.32
598.252	14909.21
598.448	14833.44
598.645	14702.37
598.841	14573.35
599.038	14698.27
599.234	14606.11
599.431	14569.25
599.627	14477.09
599.824	14640.93
600.02	14511.91
600.217	14573.35
600.413	14335.78
600.609	14118.7
600.806	14112.55
601.002	14499.62
601.198	14266.15
601.395	14204.71
601.591	14094.12
601.787	14296.87
601.984	13870.89
602.18	14026.54
602.376	14040.87
602.572	13866.8
602.769	13862.7
602.965	13991.72
603.161	13850.41
603.357	13760.3
603.553	13901.61
603.75	13770.54
603.946	13645.62
604.142	13766.45
604.338	13637.42
604.534	13588.27
604.73	13129.53
604.926	13242.17
605.122	13512.5
605.318	13178.68
605.514	13086.52
605.71	13430.58
605.906	13244.21
606.102	13356.85
606.298	13236.02
606.494	13401.91
606.69	13301.56
606.886	13170.49
607.082	12871.48
607.278	12951.35
607.474	12951.35
607.67	13129.53
607.866	12791.61
608.062	13008.7
608.257	12844.86
608.453	12801.85
608.649	12787.52
608.845	12601.15
609.041	12676.93
609.236	12769.09
609.432	12646.21
609.628	12537.66
609.824	12451.65
610.019	12683.07
610.215	12353.35
610.411	12656.45
610.606	12515.14
610.802	12556.1
610.998	12408.64
611.193	12382.02
611.389	12300.1
611.584	12341.06
611.78	12275.52
611.976	12382.02
612.171	12404.55
612.367	12132.17
612.562	12083.02
612.758	12037.96
612.953	12080.97
613.149	12384.07
613.344	11976.52
613.539	12228.42
613.735	12095.3
613.93	12261.19
614.126	12074.82
614.321	12293.96
614.517	12007.24
614.712	11906.89
614.907	11964.23
615.103	11890.51
615.298	11937.61
615.493	11972.43
615.688	11716.43
615.884	12070.73
616.079	11634.51
616.274	11773.77
616.47	11788.11
616.665	11722.57
616.86	11622.22
617.055	11642.7
617.25	11425.62
617.445	11585.36
617.641	11446.1
617.836	11571.02
618.031	11433.81
618.226	11675.47
618.421	11382.61
618.616	11575.12
618.811	11327.32
619.006	11687.76
619.201	11294.55
619.396	11323.22
619.591	10917.72
619.786	11165.53
619.981	10962.78
620.176	11206.48
620.371	10960.73
620.566	10956.63
620.761	10749.79
620.956	10788.7
621.151	10577.76
621.346	10757.98
621.541	10884.95
621.735	10805.08
621.93	10635.1
622.125	10456.93
622.32	10456.93
622.515	10424.16
622.709	10346.34
622.904	10237.8
623.099	10188.64
623.294	10336.1
623.488	9963.37
623.683	10442.59
623.878	10051.43
624.072	9903.98
624.267	9979.75
624.462	9944.94
624.656	10014.57
624.851	9643.88
625.046	9684.84
625.24	9779.05
625.435	9516.91
625.629	9613.17
625.824	9619.31
626.018	9611.12
626.213	9336.69
626.407	9391.98
626.602	9541.49
626.796	9357.17
626.991	9164.66
627.185	9246.58
627.38	9316.21
627.574	9002.87
627.768	9011.06
627.963	8957.82
628.157	8947.58
628.352	9095.03
628.546	8812.41
628.74	8914.81
628.935	8746.87
629.129	8728.44
629.323	8558.46
629.517	8779.64
629.712	8583.04
629.906	8548.22
630.1	8585.08
630.294	8447.87
630.489	8392.58
630.683	8329.09
630.877	8157.06
631.071	8292.23
631.265	8427.39
631.459	8306.56
631.653	8417.15
631.848	8009.61
632.042	8152.96
632.236	8226.69
632.43	7903.11
632.624	8085.38
632.818	8013.7
633.012	7714.7
633.206	7901.06
633.4	7810.95
633.594	7600.01
633.788	7780.23
633.982	7837.58
634.176	7708.55
634.369	7514
634.563	7505.81
634.757	7499.66
634.951	7542.67
635.145	7585.68
635.339	7608.2
635.533	7362.45
635.726	7382.93
635.92	7321.49
636.114	7290.77
636.308	7118.74
636.501	7249.81
636.695	7073.68
636.889	7073.68
637.083	7108.5
637.276	7038.87
637.47	7057.3
637.664	6944.66
637.857	6971.29
638.051	6915.99
638.244	6899.61
638.438	6741.91
638.632	6762.39
638.825	6694.81
639.019	6709.15
639.212	6590.36
639.406	6696.86
639.599	6684.57
639.793	6629.27
639.986	6272.93
640.18	6565.79
640.373	6483.87
640.567	6164.39
640.76	6453.15
640.954	6176.67
641.147	6143.91
641.34	6281.12
641.534	6252.45
641.727	6223.78
641.92	6178.72
642.114	6025.12
642.307	6068.13
642.5	6053.8
642.694	5869.48
642.887	5994.4
643.08	6016.93
643.273	5961.64
643.467	5873.57
643.66	5787.56
643.853	5787.56
644.046	5765.03
644.239	5769.13
644.432	5785.51
644.626	5556.14
644.819	5648.3
645.012	5601.19
645.205	5586.86
645.398	5672.87
645.591	5461.93
645.784	5476.27
645.977	5486.51
646.17	5410.73
646.363	5324.72
646.556	5279.66
646.749	5392.3
646.942	5281.71
647.135	5191.6
647.328	5257.14
647.521	5287.86
647.714	5236.66
647.907	5216.18
648.099	5179.31
648.292	4931.51
648.485	5164.98
648.678	5064.63
648.871	4999.09
649.064	5076.91
649.256	4927.41
649.449	4845.49
649.642	4839.35
649.835	4853.69
650.027	4779.96
650.22	4642.75
650.413	4716.47
650.605	4657.08
650.798	4644.79
650.991	4536.25
651.183	4765.62
651.376	4638.65
651.568	4679.61
651.761	4542.39
651.954	4730.81
652.146	4722.62
652.339	4356.03
652.531	4511.68
652.724	4493.24
652.916	4440
653.109	4407.23
653.301	4364.22
653.494	4421.56
653.686	4392.89
653.879	4335.55
654.071	4300.73
654.263	4126.66
654.456	4194.24
654.648	4409.28
654.84	4347.84
655.033	4210.62
655.225	4333.5
655.417	4300.73
655.61	4044.74
655.802	4153.28
655.994	4081.6
656.186	4040.64
656.379	4155.33
656.571	3839.94
656.763	3944.39
656.955	4173.76
657.148	4032.45
657.34	4007.87
657.532	3921.86
657.724	3786.69
657.916	3887.04
658.108	3825.61
658.3	3801.03
658.492	3856.33
658.684	3786.69
658.876	3702.73
659.068	3725.26
659.26	3635.14
659.452	3661.77
659.644	3717.06
659.836	3647.43
660.028	3629
660.22	3645.38
660.412	3444.68
660.604	3651.53
660.796	3422.16
660.988	3667.91
661.18	3565.51
661.372	3405.77
661.563	3479.5
661.755	3358.67
661.947	3442.64
662.139	3389.39
662.331	3512.27
662.522	3381.2
662.714	3327.95
662.906	3295.18
663.097	3330
663.289	3299.28
663.481	3147.73
663.673	3225.55
663.864	3174.35
664.056	3284.94
664.247	3237.84
664.439	3168.21
664.631	3149.78
664.822	3133.39
665.014	3117.01
665.205	3215.31
665.397	2957.27
665.588	3112.91
665.78	3030.99
665.971	3047.38
666.163	3082.19
666.354	3037.14
666.546	2998.23
666.737	3135.44
666.929	3043.28
667.12	3037.14
667.311	2973.65
667.503	2828.24
667.694	2830.29
667.885	2850.77
668.077	2897.88
668.268	2779.09
668.459	2992.08
668.651	2949.07
668.842	2650.07
669.033	2803.67
669.224	2727.89
669.416	2858.96
669.607	2777.05
669.798	2781.14
669.989	2729.94
670.18	2701.27
670.371	2643.93
670.563	2768.85
670.754	2725.85
670.945	2801.62
671.136	2742.23
671.327	2725.85
671.518	2643.93
671.709	2623.45
671.9	2629.59
672.091	2686.94
672.282	2631.64
672.473	2508.76
672.664	2527.19
672.855	2508.76
673.046	2508.76
673.237	2625.5
673.428	2516.95
673.619	2500.57
673.809	2666.46
674	2521.05
674.191	2586.58
674.382	2490.33
674.573	2488.28
674.764	2363.36
674.954	2385.88
675.145	2373.6
675.336	2461.66
675.527	2449.37
675.717	2430.94
675.908	2500.57
676.099	2492.38
676.289	2447.32
676.48	2516.95
676.671	2301.92
676.861	2463.71
677.052	2355.16
677.243	2312.16
677.433	2318.3
677.624	2451.42
677.814	2267.1
678.005	2404.32
678.195	2424.8
678.386	2226.14
678.576	2248.67
678.767	2303.96
678.957	2412.51
679.148	2260.96
679.338	2308.06
679.529	2224.09
679.719	2234.33
679.909	2205.66
680.1	2320.35
680.29	2308.06
680.481	2291.68
680.671	2277.34
680.861	2181.09
681.052	2215.9
681.242	2283.49
681.432	2297.82
681.622	2205.66
681.813	2258.91
682.003	2242.53
682.193	2209.76
682.383	2230.24
682.573	2234.33
682.764	2238.43
682.954	2222.05
683.144	2232.29
683.334	2168.8
683.524	2199.52
683.714	2246.62
683.904	2140.13
684.094	2201.57
684.284	2076.64
684.474	2238.43
684.664	2160.61
684.854	2197.47
685.044	2242.53
685.234	2211.81
685.424	2207.71
685.614	2207.71
685.804	2181.09
685.994	2113.5
686.184	2181.09
686.374	2211.81
686.564	2125.79
686.753	2144.22
686.943	2115.55
687.133	2125.79
687.323	2215.9
687.513	2136.03
687.702	2002.91
687.892	2097.12
688.082	2068.45
688.272	2078.69
688.461	2154.46
688.651	1988.58
688.841	2144.22
689.03	2039.78
689.22	2080.74
689.41	1974.24
689.599	2015.2
689.789	2035.68
689.979	2039.78
690.168	1996.77
690.358	1974.24
690.547	1974.24
690.737	2054.11
690.926	2002.91
691.116	2097.12
691.305	1961.95
691.495	2050.02
691.684	2062.3
691.874	2007.01
692.063	2019.3
692.252	2031.59
692.442	2033.63
692.631	1957.86
692.82	2088.93
693.01	1851.36
693.199	2033.63
693.388	1822.69
693.578	1902.56
693.767	1931.23
693.956	1871.84
694.146	1834.98
694.335	1920.99
694.524	1830.88
694.713	2041.82
694.902	2039.78
695.092	1920.99
695.281	1853.41
695.47	1716.2
695.659	1865.7
695.848	1916.9
696.037	1888.23
696.226	1849.32
696.415	1800.16
696.604	1955.81
696.793	1902.56
696.982	1873.89
697.171	1898.47
697.36	1877.99
697.549	1851.36
697.738	1935.33
697.927	1923.04
698.116	1816.55
698.305	1894.37
698.494	1728.49
698.683	1945.57
698.872	1882.08
699.061	1857.51
699.25	1818.6
699.438	1894.37
699.627	1800.16
699.816	1730.53
700.005	1761.25
700.193	1816.55
700.382	1851.36
700.571	1800.16
700.76	1771.49
700.948	1841.12
701.137	1814.5
701.326	1798.12
701.514	1759.21
701.703	1703.91
701.892	1818.6
702.08	1734.63
702.269	1810.4
702.457	1732.58
702.646	1681.38
702.834	1716.2
703.023	1718.25
703.212	1742.82
703.4	1920.99
703.589	1662.95
703.777	1705.96
703.965	1710.05
704.154	1730.53
704.342	1660.9
704.531	1679.33
704.719	1583.08
704.907	1744.87
705.096	1791.97
705.284	1679.33
705.472	1779.68
705.661	1679.33
705.849	1736.68
706.037	1673.19
706.226	1628.14
706.414	1660.9
706.602	1611.75
706.79	1652.71
706.979	1636.33
707.167	1683.43
707.355	1642.47
707.543	1634.28
707.731	1761.25
707.919	1699.81
708.107	1566.7
708.296	1640.42
708.484	1601.51
708.672	1652.71
708.86	1660.9
709.048	1644.52
709.236	1570.79
709.424	1550.31
709.612	1595.37
709.8	1634.28
709.988	1562.6
710.176	1566.7
710.364	1556.46
710.551	1560.55
710.739	1650.66
710.927	1578.98
711.115	1626.09
711.303	1570.79
711.491	1578.98
711.679	1482.73
711.866	1597.42
712.054	1603.56
712.242	1607.66
712.43	1601.51
712.617	1449.96
712.805	1478.63
712.993	1564.65
713.181	1452.01
713.368	1499.11
713.556	1535.98
713.744	1447.91
713.931	1464.3
714.119	1497.07
714.306	1591.27
714.494	1535.98
714.682	1454.06
714.869	1374.19
715.057	1435.63
715.244	1480.68
715.432	1472.49
715.619	1484.78
715.807	1505.26
715.994	1433.58
716.182	1406.95
716.369	1470.44
716.556	1443.82
716.744	1529.83
716.931	1409
717.119	1456.11
717.306	1505.26
717.493	1382.38
717.681	1419.24
717.868	1382.38
718.055	1470.44
718.242	1441.77
718.43	1368.04
718.617	1415.15
718.804	1355.76
718.991	1503.21
719.179	1386.47
719.366	1437.67
719.553	1388.52
719.74	1310.7
719.927	1335.28
720.114	1376.24
720.301	1325.04
720.488	1363.95
720.676	1339.37
720.863	1382.38
721.05	1413.1
721.237	1329.13
721.424	1294.32
721.611	1279.98
721.798	1396.71
721.985	1282.03
722.172	1351.66
722.358	1337.32
722.545	1232.88
722.732	1234.93
722.919	1322.99
723.106	1310.7
723.293	1316.84
723.48	1370.09
723.667	1208.3
723.853	1249.26
724.04	1329.13
724.227	1325.04
724.414	1253.36
724.6	1230.83
724.787	1294.32
724.974	1333.23
725.161	1267.69
725.347	1210.35
725.534	1296.36
725.72	1294.32
725.907	1284.08
726.094	1322.99
726.28	1308.65
726.467	1198.06
726.653	1292.27
726.84	1353.71
727.027	1306.6
727.213	1236.97
727.4	1294.32
727.586	1265.64
727.773	1232.88
727.959	1292.27
728.145	1228.78
728.332	1212.4
728.518	1224.69
728.705	1243.12
728.891	1275.88
729.077	1232.88
729.264	1249.26
729.45	1222.64
729.636	1230.83
729.823	1269.74
730.009	1308.65
730.195	1277.93
730.382	1222.64
730.568	1263.6
730.754	1259.5
730.94	1177.58
731.126	1279.98
731.313	1212.4
731.499	1110
731.685	1255.4
731.871	1163.25
732.057	1187.82
732.243	1177.58
732.429	1284.08
732.615	1193.97
732.801	1193.97
732.987	1136.62
733.173	1157.1
733.359	1148.91
733.545	1142.77
733.731	1097.71
733.917	1224.69
734.103	1212.4
734.289	1210.35
734.475	1185.77
734.661	1097.71
734.847	1155.05
735.033	1198.06
735.219	1220.59
735.404	1159.15
735.59	1204.21
735.776	1101.81
735.962	1191.92
736.148	1183.73
736.333	1138.67
736.519	1142.77
736.705	1128.43
736.89	1191.92
737.076	1187.82
737.262	1097.71
737.447	1124.33
737.633	1138.67
737.819	1114.1
738.004	1144.81
738.19	1146.86
738.375	1015.79
738.561	1144.81
738.747	1083.38
738.932	1130.48
739.118	1122.29
739.303	1181.68
739.489	1071.09
739.674	1046.51
739.859	1054.7
740.045	1148.91
740.23	1120.24
740.416	1060.85
740.601	1038.32
740.786	1058.8
740.972	1042.42
741.157	1071.09
741.342	1089.52
741.528	1050.61
741.713	1120.24
741.898	1021.94
742.084	1081.33
742.269	1048.56
742.454	1064.94
742.639	1038.32
742.824	1077.23
743.01	1050.61
743.195	1028.08
743.38	1085.42
743.565	1038.32
743.75	1058.8
743.935	948.21
744.12	942.07
744.305	1026.03
744.49	956.4
744.675	1003.5
744.86	1009.65
745.045	978.93
745.23	847.86
745.415	944.11
745.6	937.97
745.785	954.35
745.97	948.21
746.155	954.35
746.34	927.73
746.525	962.55
746.71	964.59
746.895	946.16
747.079	942.07
747.264	991.22
747.449	909.3
747.634	907.25
747.819	956.4
748.003	882.67
748.188	956.4
748.373	849.91
748.557	925.68
748.742	931.83
748.927	937.97
749.111	819.19
749.296	868.34
749.481	849.91
749.665	868.34
749.85	974.83
750.034	831.48
750.219	901.11
750.404	837.62
750.588	829.43
750.773	880.63
750.957	841.72
751.141	854
751.326	790.52
751.51	831.48
751.695	774.13
751.879	774.13
752.064	815.09
752.248	747.51
752.432	841.72
752.617	706.55
752.801	851.95
752.985	811
753.17	772.08
753.354	774.13
753.538	772.08
753.722	825.33
753.907	712.69
754.091	788.47
754.275	741.36
754.459	741.36
754.643	731.12
754.828	698.36
755.012	681.97
755.196	647.16
755.38	698.36
755.564	770.04
755.748	767.99
755.932	638.97
756.116	759.8
756.3	608.25
756.484	681.97
756.668	675.83
756.852	729.08
757.036	681.97
757.22	706.55
757.404	632.82
757.588	679.93
757.772	655.35
757.956	702.45
758.14	671.73
758.323	606.2
758.507	663.54
758.691	546.81
758.875	614.39
759.059	657.4
759.242	618.49
759.426	628.73
759.61	610.29
759.794	612.34
759.977	657.4
760.161	626.68
760.345	589.82
760.528	647.16
760.712	587.77
760.895	501.75
761.079	571.38
761.263	577.53
761.446	542.71
761.63	618.49
761.813	602.1
761.997	559.1
762.18	647.16
762.364	595.96
762.547	497.66
762.731	634.87
762.914	659.45
763.098	520.18
763.281	591.86
763.464	532.47
763.648	581.62
763.831	600.05
764.015	454.65
764.198	579.58
764.381	540.66
764.564	595.96
764.748	544.76
764.931	593.91
765.114	503.8
765.297	546.81
765.481	532.47
765.664	540.66
765.847	509.94
766.03	522.23
766.213	466.94
766.397	509.94
766.58	507.9
766.763	481.27
766.946	507.9
767.129	540.66
767.312	524.28
767.495	563.19
767.678	464.89
767.861	505.85
768.044	505.85
768.227	532.47
768.41	401.4
768.593	491.51
768.776	444.41
768.959	458.75
769.142	411.64
769.324	489.46
769.507	501.75
769.69	526.33
769.873	509.94
770.056	442.36
770.239	501.75
770.421	577.53
770.604	544.76
770.787	473.08
770.97	403.45
771.152	473.08
771.335	555
771.518	446.46
771.7	538.62
771.883	507.9
772.066	485.37
772.248	454.65
772.431	464.89
772.613	448.51
772.796	391.16
772.978	425.98
773.161	509.94
773.343	432.12
773.526	313.34
773.708	442.36
773.891	411.64
774.073	415.74
774.256	368.63
774.438	518.14
774.621	442.36
774.803	346.11
774.985	425.98
775.168	415.74
775.35	434.17
775.532	462.84
775.715	344.06
775.897	425.98
776.079	432.12
776.261	374.78
776.444	366.59
776.626	411.64
776.808	403.45
776.99	380.92
777.173	407.55
777.355	380.92
777.537	352.25
777.719	309.24
777.901	327.68
778.083	387.07
778.265	294.91
778.447	325.63
778.629	296.96
778.811	342.01
778.993	397.31
779.175	380.92
779.357	342.01
779.539	401.4
779.721	350.2
779.903	317.44
780.085	413.69
780.267	346.11
780.449	331.77
780.631	325.63
780.812	354.3
780.994	333.82
781.176	235.52
781.358	299
781.54	264.19
781.721	321.53
781.903	284.67
782.085	319.48
782.267	270.33
782.448	325.63
782.63	313.34
782.812	329.72
782.993	319.48
783.175	301.05
783.357	317.44
783.538	301.05
783.72	286.72
783.901	329.72
784.083	333.82
784.264	315.39
784.446	282.62
784.627	278.52
784.809	307.2
784.99	221.18
785.172	303.1
785.353	303.1
785.535	219.13
785.716	237.56
785.897	299
786.079	282.62
786.26	276.48
786.441	364.54
786.623	227.32
786.804	276.48
786.985	272.38
787.167	282.62
787.348	247.8
787.529	172.03
787.71	256
787.891	210.94
788.073	231.42
788.254	221.18
788.435	202.75
788.616	204.8
788.797	200.7
788.978	182.27
789.159	155.65
789.34	190.46
789.522	229.37
789.703	194.56
789.884	192.51
790.065	258.04
790.246	141.31
790.427	219.13
790.607	206.84
790.788	231.42
790.969	165.89
791.15	221.18
791.331	196.61
791.512	215.04
791.693	174.08
791.874	196.61
792.054	198.65
792.235	192.51
792.416	159.74
792.597	131.07
792.778	176.13
792.958	202.75
793.139	169.98
793.32	149.5
793.5	229.37
793.681	180.22
793.862	184.32
794.042	217.08
794.223	157.69
794.404	167.93
794.584	198.65
794.765	133.12
794.945	186.37
795.126	292.86
795.306	149.5
795.487	229.37
795.667	114.69
795.848	145.41
796.028	139.26
796.209	227.32
796.389	153.6
796.57	206.84
796.75	135.17
796.93	151.55
797.111	141.31
797.291	253.95
797.471	188.41
797.652	122.88
797.832	139.26
798.012	210.94
798.192	190.46
798.373	159.74
798.553	165.89
798.733	204.8
798.913	202.75
799.093	153.6
799.274	161.79
799.454	135.17
799.634	104.45
799.814	163.84
799.994	71.68
800.174	163.84
800.354	45.06
800.534	147.45
800.714	167.93
800.894	151.55
801.074	126.97
801.254	126.97
801.434	167.93
801.614	169.98
801.794	79.87
801.974	370.68
802.154	81.92
802.334	163.84
802.514	73.73
802.693	126.97
802.873	133.12
803.053	141.31
803.233	120.83
803.413	137.21
803.592	112.64
803.772	102.4
803.952	169.98
804.131	73.73
804.311	131.07
804.491	86.01
804.67	118.78
804.85	137.21
805.03	143.36
805.209	184.32
805.389	28.67
805.568	139.26
805.748	135.17
805.928	106.49
806.107	133.12
806.287	149.5
806.466	94.21
806.646	104.45
806.825	30.72
807.004	100.35
807.184	110.59
807.363	196.61
807.543	22.53
807.722	67.58
807.901	135.17
808.081	34.82
808.26	116.73
808.439	139.26
808.619	118.78
808.798	71.68
808.977	106.49
809.156	67.58
809.336	108.54
809.515	81.92
809.694	43.01
809.873	139.26
810.052	75.77
810.231	139.26
810.411	77.82
810.59	118.78
810.769	79.87
810.948	139.26
811.127	178.17
811.306	120.83
811.485	36.86
811.664	133.12
811.843	83.97
812.022	71.68
812.201	112.64
812.38	129.02
812.559	73.73
812.737	104.45
812.916	108.54
813.095	114.69
813.274	104.45
813.453	61.44
813.632	67.58
813.811	79.87
813.989	88.06
814.168	83.97
814.347	86.01
814.526	73.73
814.704	145.41
814.883	30.72
815.062	71.68
815.24	129.02
815.419	126.97
815.598	57.34
815.776	104.45
815.955	75.77
816.133	98.3
816.312	131.07
816.49	88.06
816.669	104.45
816.847	108.54
817.026	114.69
817.204	47.1
817.383	81.92
817.561	71.68
817.74	108.54
817.918	106.49
818.097	83.97
818.275	26.62
818.453	57.34
818.632	-10.24
818.81	51.2
818.988	75.77
819.167	61.44
819.345	59.39
819.523	96.25
819.701	112.64
819.879	86.01
820.058	79.87
820.236	57.34
820.414	106.49
820.592	94.21
820.77	129.02
820.948	112.64
821.127	124.93
821.305	118.78
821.483	47.1
821.661	116.73
821.839	90.11
822.017	40.96
822.195	83.97
822.373	55.3
822.551	40.96
822.729	118.78
822.907	86.01
823.085	73.73
823.262	63.49
823.44	71.68
823.618	79.87
823.796	26.62
823.974	51.2
824.152	90.11
824.329	49.15
824.507	96.25
824.685	122.88
824.863	32.77
825.04	98.3
825.218	102.4
825.396	57.34
825.574	69.63
825.751	92.16
825.929	110.59
826.107	110.59
826.284	106.49
826.462	32.77
826.639	83.97
826.817	2.05
826.994	30.72
827.172	30.72
827.349	90.11
827.527	47.1
827.704	69.63
827.882	75.77
828.059	83.97
828.237	57.34
828.414	57.34
828.591	81.92
828.769	73.73
828.946	43.01
829.124	73.73
829.301	43.01
829.478	26.62
829.655	73.73
829.833	133.12
830.01	-2.05
830.187	69.63
830.364	-12.29
830.542	57.34
830.719	79.87
830.896	106.49
831.073	94.21
831.25	22.53
831.427	104.45
831.604	38.91
831.782	51.2
831.959	77.82
832.136	12.29
832.313	57.34
832.49	63.49
832.667	61.44
832.844	65.54
833.021	40.96
833.198	69.63
833.374	30.72
833.551	51.2
833.728	112.64
833.905	26.62
834.082	20.48
834.259	51.2
834.436	106.49
834.612	55.3
834.789	47.1
834.966	40.96
835.143	67.58
835.319	88.06
835.496	59.39
835.673	120.83
835.85	71.68
836.026	118.78
836.203	157.69
836.38	34.82
836.556	65.54
836.733	63.49
836.909	79.87
837.086	14.34
837.262	-6.14
837.439	112.64
837.616	36.86
837.792	8.19
837.968	32.77
838.145	49.15
838.321	65.54
838.498	49.15
838.674	8.19
838.851	0
839.027	-24.58
839.203	-14.34
839.38	4.1
839.556	110.59
839.732	22.53
839.909	57.34
840.085	38.91
840.261	-2.05
840.437	12.29
840.614	40.96
840.79	6.14
840.966	88.06
841.142	43.01
841.318	102.4
841.494	-24.58
841.671	92.16
841.847	32.77
842.023	-14.34
842.199	61.44
842.375	53.25
842.551	28.67
842.727	79.87
842.903	92.16
843.079	73.73
843.255	106.49
843.431	-6.14
843.607	53.25
843.783	22.53
843.959	40.96
844.134	69.63
844.31	63.49
844.486	22.53
844.662	-22.53
844.838	65.54
845.013	-10.24
845.189	63.49
845.365	10.24
845.541	0
845.716	6.14
845.892	14.34
846.068	57.34
846.244	34.82
846.419	22.53
846.595	-24.58
846.77	59.39
846.946	32.77
847.122	38.91
847.297	30.72
847.473	24.58
847.648	-26.62
847.824	98.3
847.999	-38.91
848.175	67.58
848.35	73.73
848.526	36.86
848.701	-8.19
848.876	51.2
849.052	28.67
849.227	-14.34
849.403	14.34
849.578	100.35
849.753	28.67
849.929	69.63
850.104	-14.34
850.279	8.19
850.454	-28.67
850.63	2.05
850.805	77.82
850.98	-4.1
851.155	18.43
851.33	18.43
851.505	-36.86
851.681	22.53
851.856	-20.48
852.031	47.1
852.206	14.34
852.381	90.11
852.556	-6.14
852.731	88.06
852.906	24.58
853.081	94.21
853.256	102.4
853.431	26.62
853.606	4.1
853.781	55.3
853.956	16.38
854.131	53.25
854.305	67.58
854.48	-22.53
854.655	69.63
854.83	47.1
855.005	12.29
855.18	38.91
855.354	67.58
855.529	-12.29
855.704	59.39
855.879	20.48
856.053	59.39
856.228	-8.19
856.403	12.29
856.577	79.87
856.752	55.3
856.926	12.29
857.101	12.29
857.276	63.49
857.45	-4.1
857.625	14.34
857.799	12.29
857.974	18.43
858.148	-30.72
858.323	0
858.497	59.39
858.672	26.62
858.846	-34.82
859.02	51.2
859.195	30.72
859.369	102.4
859.543	12.29
859.718	67.58
859.892	-16.38
860.066	-10.24
860.241	4.1
860.415	-36.86
860.589	28.67
860.763	104.45
860.938	36.86
861.112	18.43
861.286	38.91
861.46	49.15
861.634	0
861.808	61.44
861.982	65.54
862.157	16.38
862.331	-26.62
862.505	49.15
862.679	-16.38
862.853	32.77
863.027	-30.72
863.201	34.82
863.375	-34.82
863.549	32.77
863.722	8.19
863.896	-45.06
864.07	10.24
864.244	59.39
864.418	12.29
864.592	61.44
864.766	40.96
864.939	24.58
865.113	2.05
865.287	16.38
865.461	32.77
865.634	16.38
865.808	16.38
865.982	18.43
866.156	4.1
866.329	22.53
866.503	47.1
866.676	63.49
866.85	73.73
867.024	75.77
867.197	75.77
867.371	38.91
867.544	-12.29
867.718	-18.43
867.891	-30.72
868.065	-26.62
868.238	-6.14
868.412	-6.14
868.585	43.01
868.759	40.96
868.932	8.19
869.105	65.54
869.279	30.72
869.452	-14.34
869.625	43.01
869.799	-65.53
869.972	-14.34
870.145	14.34
870.319	69.63
870.492	-106.49
870.665	-22.53
870.838	65.54
871.011	4.1
871.185	51.2
871.358	20.48
871.531	26.62
871.704	4.1
871.877	59.39
872.05	-2.05
872.223	20.48
872.396	-40.96
872.569	63.49
872.742	71.68
872.915	43.01
873.088	16.38
873.261	36.86
873.434	32.77
873.607	49.15
873.78	36.86
873.953	-8.19
874.126	-10.24
874.299	22.53
874.471	63.49
874.644	30.72
874.817	61.44
874.99	36.86
875.163	4.1
875.335	69.63
875.508	65.54
875.681	-8.19
875.853	108.54
876.026	-40.96
876.199	16.38
876.371	88.06
876.544	-14.34
876.717	-20.48
876.889	-8.19
877.062	71.68
877.234	40.96
877.407	51.2
877.579	-16.38
877.752	-18.43
877.924	47.1
878.097	8.19
878.269	-30.72
878.442	-67.58
878.614	12.29
878.786	116.73
878.959	47.1
879.131	47.1
879.303	-40.96
879.476	47.1
879.648	53.25
879.82	2.05
879.993	-20.48
880.165	36.86
880.337	-2.05
880.509	-12.29
880.681	-63.49
880.854	67.58
881.026	47.1
881.198	63.49
881.37	34.82
881.542	30.72
881.714	45.06
881.886	51.2
882.058	-20.48
882.23	4.1
882.402	-43.01
882.574	40.96
882.746	53.25
882.918	53.25
883.09	40.96
883.262	-24.58
883.434	6.14
883.606	49.15
883.778	67.58
883.95	14.34
884.122	43.01
884.293	20.48
884.465	16.38
884.637	30.72
884.809	28.67
884.98	47.1
885.152	45.06
885.324	126.97
885.496	-65.53
885.667	63.49
885.839	22.53
886.011	36.86
886.182	18.43
886.354	90.11
886.525	-43.01
886.697	2.05
886.869	57.34
887.04	77.82
887.212	-26.62
887.383	43.01
887.555	6.14
887.726	53.25
887.897	40.96
888.069	22.53
888.24	34.82
888.412	40.96
888.583	63.49
888.754	-43.01
888.926	-30.72
889.097	47.1
889.268	38.91
889.44	18.43
889.611	4.1
889.782	38.91
889.953	18.43
890.125	10.24
890.296	2.05
890.467	8.19
890.638	43.01
890.809	-14.34
890.98	65.54
891.151	77.82
891.323	104.45
891.494	59.39
891.665	36.86
891.836	2.05
892.007	24.58
892.178	16.38
892.349	0
892.52	96.25
892.691	-16.38
892.862	55.3
893.032	-36.86
893.203	0
893.374	-51.2
893.545	38.91
893.716	36.86
893.887	57.34
894.057	55.3
894.228	20.48
894.399	0
894.57	65.54
894.74	51.2
894.911	96.25
895.082	-6.14
895.253	55.3
895.423	30.72
895.594	63.49
895.764	-8.19
895.935	12.29
896.106	47.1
896.276	6.14
896.447	26.62
896.617	-16.38
896.788	75.77
896.958	59.39
897.129	63.49
897.299	67.58
897.47	69.63
897.64	-16.38
897.81	22.53
897.981	24.58
898.151	-10.24
898.322	-2.05
898.492	63.49
898.662	36.86
898.832	-38.91
899.003	12.29
899.173	83.97
899.343	22.53
899.513	63.49
