Data from USB4F104151__58__12-59-19-264.txt Node

Date: Fri Mar 14 12:59:19 EDT 2025
User: louis
Spectrometer: USB4F10415
Trigger mode: 4
Integration Time (sec): 1.000000E-2
Scans to average: 1
Electric dark correction enabled: true
Nonlinearity correction enabled: false
Boxcar width: 0
XAxis mode: Wavelengths
Number of Pixels in Spectrum: 3648
>>>>>Begin Spectral Data<<<<<
178.204	-49.83
178.424	-49.83
178.644	-49.83
178.864	-51.88
179.084	-80.55
179.304	-47.79
179.524	-0.68
179.744	-12.97
179.964	3.41
180.184	-0.68
180.404	46.42
180.624	-47.79
180.844	-45.74
181.064	-2.73
181.283	34.13
181.503	7.51
181.723	66.9
181.943	-31.4
182.163	36.18
182.383	3.41
182.602	103.76
182.822	-21.16
183.042	-17.07
183.262	-0.68
183.482	68.95
183.701	-35.5
183.921	48.47
184.141	11.61
184.361	38.23
184.58	-41.64
184.8	-39.59
185.02	13.65
185.239	48.47
185.459	13.65
185.679	5.46
185.898	23.89
186.118	54.61
186.338	-47.79
186.557	-17.07
186.777	-15.02
186.997	-29.35
187.216	-53.93
187.436	75.09
187.655	-37.55
187.875	13.65
188.095	-21.16
188.314	75.09
188.534	15.7
188.753	32.08
188.973	11.61
189.192	21.85
189.412	42.32
189.631	5.46
189.851	40.28
190.07	-21.16
190.29	-51.88
190.509	-21.16
190.729	27.99
190.948	32.08
191.168	99.67
191.387	34.13
191.607	27.99
191.826	77.14
192.045	25.94
192.265	13.65
192.484	38.23
192.704	32.08
192.923	11.61
193.142	25.94
193.362	7.51
193.581	-17.07
193.8	-76.46
194.02	-39.59
194.239	25.94
194.458	-41.64
194.678	40.28
194.897	52.56
195.116	-12.97
195.335	17.75
195.555	52.56
195.774	46.42
195.993	64.85
196.212	62.8
196.432	11.61
196.651	-0.68
196.87	-19.11
197.089	-6.83
197.308	46.42
197.528	40.28
197.747	-19.11
197.966	23.89
198.185	-51.88
198.404	-0.68
198.623	44.37
198.842	-12.97
199.062	-4.78
199.281	34.13
199.5	1.37
199.719	-4.78
199.938	-6.83
200.157	7.51
200.376	23.89
200.595	34.13
200.814	-15.02
201.033	13.65
201.252	79.19
201.471	7.51
201.69	40.28
201.909	-41.64
202.128	3.41
202.347	44.37
202.566	34.13
202.785	34.13
203.004	21.85
203.223	5.46
203.442	-45.74
203.661	11.61
203.879	66.9
204.098	-8.87
204.317	-0.68
204.536	73.04
204.755	52.56
204.974	19.8
205.193	38.23
205.411	-17.07
205.63	17.75
205.849	56.66
206.068	19.8
206.287	66.9
206.505	-4.78
206.724	21.85
206.943	-2.73
207.162	40.28
207.381	116.05
207.599	25.94
207.818	-0.68
208.037	71
208.255	-15.02
208.474	15.7
208.693	-53.93
208.911	42.32
209.13	34.13
209.349	21.85
209.567	-17.07
209.786	-23.21
210.005	40.28
210.223	36.18
210.442	42.32
210.661	-0.68
210.879	42.32
211.098	44.37
211.316	62.8
211.535	50.52
211.753	50.52
211.972	64.85
212.191	40.28
212.409	19.8
212.628	38.23
212.846	21.85
213.065	-0.68
213.283	48.47
213.502	7.51
213.72	17.75
213.938	-29.35
214.157	75.09
214.375	-47.79
214.594	7.51
214.812	42.32
215.031	60.76
215.249	-4.78
215.467	-10.92
215.686	46.42
215.904	48.47
216.122	7.51
216.341	5.46
216.559	77.14
216.778	5.46
216.996	50.52
217.214	15.7
217.432	32.08
217.651	34.13
217.869	27.99
218.087	-8.87
218.306	-23.21
218.524	54.61
218.742	-31.4
218.96	-45.74
219.179	91.48
219.397	19.8
219.615	7.51
219.833	1.37
220.051	38.23
220.27	11.61
220.488	40.28
220.706	89.43
220.924	-25.26
221.142	97.62
221.36	48.47
221.578	15.7
221.796	81.24
222.015	13.65
222.233	-0.68
222.451	101.72
222.669	83.28
222.887	48.47
223.105	66.9
223.323	-17.07
223.541	-37.55
223.759	58.71
223.977	-4.78
224.195	-25.26
224.413	23.89
224.631	83.28
224.849	9.56
225.067	46.42
225.285	9.56
225.503	7.51
225.721	-25.26
225.939	-45.74
226.157	17.75
226.375	-12.97
226.592	-15.02
226.81	27.99
227.028	-15.02
227.246	44.37
227.464	-10.92
227.682	-2.73
227.9	1.37
228.117	58.71
228.335	62.8
228.553	-6.83
228.771	-53.93
228.989	5.46
229.206	-29.35
229.424	1.37
229.642	-45.74
229.86	58.71
230.077	-25.26
230.295	42.32
230.513	1.37
230.731	17.75
230.948	11.61
231.166	21.85
231.384	73.04
231.601	56.66
231.819	36.18
232.037	27.99
232.254	-33.45
232.472	-10.92
232.689	75.09
232.907	64.85
233.125	17.75
233.342	-47.79
233.56	25.94
233.777	9.56
233.995	3.41
234.213	42.32
234.43	-15.02
234.648	68.95
234.865	27.99
235.083	56.66
235.3	32.08
235.518	-8.87
235.735	-41.64
235.953	7.51
236.17	7.51
236.388	15.7
236.605	46.42
236.822	68.95
237.04	-10.92
237.257	87.38
237.475	25.94
237.692	79.19
237.909	58.71
238.127	5.46
238.344	11.61
238.562	58.71
238.779	-51.88
238.996	62.8
239.214	52.56
239.431	27.99
239.648	7.51
239.865	64.85
240.083	7.51
240.3	-8.87
240.517	11.61
240.735	46.42
240.952	58.71
241.169	7.51
241.386	-25.26
241.603	44.37
241.821	3.41
242.038	52.56
242.255	1.37
242.472	52.56
242.689	7.51
242.907	9.56
243.124	13.65
243.341	56.66
243.558	13.65
243.775	-25.26
243.992	64.85
244.209	81.24
244.426	-2.73
244.643	30.04
244.86	105.81
245.078	9.56
245.295	48.47
245.512	-58.03
245.729	3.41
245.946	15.7
246.163	44.37
246.38	36.18
246.597	-25.26
246.814	23.89
247.031	5.46
247.248	-60.07
247.464	27.99
247.681	-6.83
247.898	38.23
248.115	32.08
248.332	-23.21
248.549	-6.83
248.766	27.99
248.983	81.24
249.2	64.85
249.417	77.14
249.633	44.37
249.85	9.56
250.067	-17.07
250.284	-10.92
250.501	77.14
250.717	23.89
250.934	36.18
251.151	7.51
251.368	71
251.585	-12.97
251.801	9.56
252.018	-41.64
252.235	103.76
252.451	97.62
252.668	56.66
252.885	5.46
253.102	-12.97
253.318	40.28
253.535	83.28
253.752	11.61
253.968	17.75
254.185	-6.83
254.401	36.18
254.618	56.66
254.835	-12.97
255.051	34.13
255.268	3.41
255.484	91.48
255.701	-12.97
255.917	32.08
256.134	-4.78
256.351	9.56
256.567	-17.07
256.784	56.66
257	-29.35
257.217	11.61
257.433	23.89
257.65	-35.5
257.866	36.18
258.082	48.47
258.299	60.76
258.515	101.72
258.732	17.75
258.948	103.76
259.165	-35.5
259.381	15.7
259.597	9.56
259.814	38.23
260.03	1.37
260.246	116.05
260.463	-19.11
260.679	15.7
260.895	75.09
261.112	11.61
261.328	62.8
261.544	-29.35
261.761	50.52
261.977	7.51
262.193	34.13
262.409	66.9
262.626	-8.87
262.842	56.66
263.058	27.99
263.274	-0.68
263.49	50.52
263.707	25.94
263.923	75.09
264.139	19.8
264.355	34.13
264.571	-0.68
264.787	-33.45
265.004	5.46
265.22	19.8
265.436	9.56
265.652	50.52
265.868	58.71
266.084	7.51
266.3	75.09
266.516	50.52
266.732	15.7
266.948	7.51
267.164	95.57
267.38	36.18
267.596	9.56
267.812	46.42
268.028	11.61
268.244	56.66
268.46	-4.78
268.676	-2.73
268.892	27.99
269.108	-17.07
269.324	42.32
269.54	19.8
269.756	11.61
269.972	-15.02
270.188	44.37
270.403	5.46
270.619	38.23
270.835	-17.07
271.051	97.62
271.267	-4.78
271.483	60.76
271.698	-0.68
271.914	36.18
272.13	1.37
272.346	-0.68
272.562	9.56
272.777	48.47
272.993	-23.21
273.209	50.52
273.425	64.85
273.64	68.95
273.856	-15.02
274.072	66.9
274.287	42.32
274.503	13.65
274.719	17.75
274.934	17.75
275.15	-2.73
275.366	5.46
275.581	7.51
275.797	56.66
276.012	79.19
276.228	1.37
276.444	62.8
276.659	32.08
276.875	58.71
277.09	44.37
277.306	17.75
277.521	27.99
277.737	-17.07
277.952	81.24
278.168	50.52
278.383	13.65
278.599	-0.68
278.814	-33.45
279.03	19.8
279.245	54.61
279.461	34.13
279.676	32.08
279.892	30.04
280.107	68.95
280.322	11.61
280.538	-6.83
280.753	-45.74
280.969	87.38
281.184	60.76
281.399	34.13
281.615	40.28
281.83	105.81
282.045	-47.79
282.26	56.66
282.476	62.8
282.691	27.99
282.906	93.52
283.122	52.56
283.337	40.28
283.552	-15.02
283.767	71
283.983	66.9
284.198	-15.02
284.413	23.89
284.628	25.94
284.843	85.33
285.058	9.56
285.274	56.66
285.489	15.7
285.704	44.37
285.919	-39.59
286.134	-0.68
286.349	-10.92
286.564	19.8
286.779	-12.97
286.995	95.57
287.21	-55.98
287.425	73.04
287.64	64.85
287.855	71
288.07	73.04
288.285	-23.21
288.5	83.28
288.715	66.9
288.93	93.52
289.145	34.13
289.36	48.47
289.575	40.28
289.79	-41.64
290.004	40.28
290.219	54.61
290.434	23.89
290.649	85.33
290.864	40.28
291.079	19.8
291.294	-2.73
291.509	30.04
291.724	-25.26
291.938	9.56
292.153	-15.02
292.368	-0.68
292.583	40.28
292.798	-39.59
293.012	25.94
293.227	34.13
293.442	19.8
293.657	40.28
293.871	50.52
294.086	75.09
294.301	116.05
294.516	9.56
294.73	46.42
294.945	-43.69
295.16	15.7
295.374	42.32
295.589	9.56
295.804	-4.78
296.018	-33.45
296.233	40.28
296.447	-0.68
296.662	19.8
296.877	56.66
297.091	89.43
297.306	17.75
297.52	66.9
297.735	-23.21
297.949	-76.46
298.164	1.37
298.378	21.85
298.593	15.7
298.807	111.96
299.022	-0.68
299.236	89.43
299.451	32.08
299.665	21.85
299.88	-31.4
300.094	19.8
300.309	75.09
300.523	64.85
300.737	3.41
300.952	-10.92
301.166	81.24
301.381	-8.87
301.595	42.32
301.809	-41.64
302.024	56.66
302.238	60.76
302.452	34.13
302.667	58.71
302.881	-25.26
303.095	1.37
303.309	19.8
303.524	66.9
303.738	21.85
303.952	17.75
304.166	85.33
304.381	-10.92
304.595	48.47
304.809	15.7
305.023	48.47
305.237	42.32
305.452	-8.87
305.666	101.72
305.88	34.13
306.094	58.71
306.308	-12.97
306.522	83.28
306.736	79.19
306.95	30.04
307.164	11.61
307.379	19.8
307.593	50.52
307.807	-37.55
308.021	25.94
308.235	81.24
308.449	30.04
308.663	79.19
308.877	142.68
309.091	9.56
309.305	-19.11
309.519	19.8
309.733	-19.11
309.947	23.89
310.161	27.99
310.374	64.85
310.588	30.04
310.802	-33.45
311.016	48.47
311.23	7.51
311.444	-15.02
311.658	58.71
311.872	34.13
312.085	34.13
312.299	36.18
312.513	42.32
312.727	3.41
312.941	7.51
313.154	17.75
313.368	36.18
313.582	73.04
313.796	7.51
314.009	23.89
314.223	60.76
314.437	34.13
314.651	-4.78
314.864	5.46
315.078	-29.35
315.292	79.19
315.505	109.91
315.719	19.8
315.933	30.04
316.146	32.08
316.36	-8.87
316.573	50.52
316.787	-8.87
317.001	27.99
317.214	21.85
317.428	32.08
317.641	-8.87
317.855	46.42
318.068	-47.79
318.282	9.56
318.495	32.08
318.709	64.85
318.922	62.8
319.136	32.08
319.349	54.61
319.563	85.33
319.776	17.75
319.99	97.62
320.203	-31.4
320.417	-19.11
320.63	1.37
320.843	-21.16
321.057	-8.87
321.27	68.95
321.483	89.43
321.697	73.04
321.91	17.75
322.124	42.32
322.337	64.85
322.55	30.04
322.763	15.7
322.977	27.99
323.19	15.7
323.403	-41.64
323.617	-37.55
323.83	-6.83
324.043	3.41
324.256	44.37
324.469	13.65
324.683	81.24
324.896	36.18
325.109	-23.21
325.322	11.61
325.535	23.89
325.748	-10.92
325.962	34.13
326.175	50.52
326.388	32.08
326.601	27.99
326.814	17.75
327.027	42.32
327.24	9.56
327.453	13.65
327.666	103.76
327.879	-2.73
328.092	13.65
328.305	3.41
328.518	79.19
328.731	-25.26
328.944	11.61
329.157	7.51
329.37	30.04
329.583	-19.11
329.796	42.32
330.009	-2.73
330.222	50.52
330.435	19.8
330.648	-8.87
330.861	-15.02
331.073	-62.12
331.286	-6.83
331.499	1.37
331.712	42.32
331.925	83.28
332.138	5.46
332.35	36.18
332.563	42.32
332.776	87.38
332.989	3.41
333.202	62.8
333.414	62.8
333.627	11.61
333.84	-12.97
334.053	27.99
334.265	48.47
334.478	64.85
334.691	40.28
334.903	56.66
335.116	-49.83
335.329	27.99
335.541	103.76
335.754	-4.78
335.966	-17.07
336.179	13.65
336.392	15.7
336.604	32.08
336.817	34.13
337.029	17.75
337.242	85.33
337.454	1.37
337.667	-27.31
337.88	15.7
338.092	9.56
338.305	-2.73
338.517	-33.45
338.729	1.37
338.942	21.85
339.154	23.89
339.367	48.47
339.579	-27.31
339.792	48.47
340.004	68.95
340.217	107.86
340.429	66.9
340.641	25.94
340.854	38.23
341.066	23.89
341.278	11.61
341.491	19.8
341.703	-0.68
341.915	21.85
342.128	-31.4
342.34	-35.5
342.552	-25.26
342.764	21.85
342.977	27.99
343.189	-17.07
343.401	15.7
343.613	71
343.826	32.08
344.038	-0.68
344.25	-17.07
344.462	25.94
344.674	-17.07
344.886	40.28
345.099	-8.87
345.311	54.61
345.523	56.66
345.735	-33.45
345.947	97.62
346.159	3.41
346.371	-33.45
346.583	-15.02
346.795	40.28
347.007	-37.55
347.219	21.85
347.431	77.14
347.643	40.28
347.855	9.56
348.067	93.52
348.279	23.89
348.491	7.51
348.703	105.81
348.915	-0.68
349.127	9.56
349.339	93.52
349.551	-15.02
349.763	91.48
349.975	42.32
350.187	32.08
350.399	9.56
350.61	-6.83
350.822	-2.73
351.034	-6.83
351.246	34.13
351.458	48.47
351.669	-12.97
351.881	7.51
352.093	34.13
352.305	77.14
352.517	-0.68
352.728	44.37
352.94	71
353.152	64.85
353.363	27.99
353.575	34.13
353.787	54.61
353.999	46.42
354.21	-51.88
354.422	3.41
354.633	-29.35
354.845	89.43
355.057	79.19
355.268	5.46
355.48	21.85
355.692	32.08
355.903	52.56
356.115	-8.87
356.326	3.41
356.538	19.8
356.749	75.09
356.961	-17.07
357.172	81.24
357.384	19.8
357.595	95.57
357.807	48.47
358.018	-58.03
358.23	60.76
358.441	58.71
358.653	97.62
358.864	101.72
359.075	19.8
359.287	7.51
359.498	17.75
359.709	89.43
359.921	-31.4
360.132	-53.93
360.344	11.61
360.555	73.04
360.766	64.85
360.977	13.65
361.189	68.95
361.4	-6.83
361.611	13.65
361.823	7.51
362.034	99.67
362.245	7.51
362.456	-0.68
362.667	-8.87
362.879	-37.55
363.09	44.37
363.301	-12.97
363.512	-10.92
363.723	46.42
363.935	-2.73
364.146	40.28
364.357	99.67
364.568	21.85
364.779	25.94
364.99	52.56
365.201	83.28
365.412	-6.83
365.623	17.75
365.834	89.43
366.045	-15.02
366.256	21.85
366.467	7.51
366.678	-39.59
366.889	75.09
367.1	42.32
367.311	11.61
367.522	11.61
367.733	81.24
367.944	75.09
368.155	-23.21
368.366	56.66
368.577	54.61
368.788	25.94
368.999	-6.83
369.209	13.65
369.42	75.09
369.631	27.99
369.842	23.89
370.053	73.04
370.264	95.57
370.474	-35.5
370.685	17.75
370.896	91.48
371.107	9.56
371.317	21.85
371.528	56.66
371.739	89.43
371.95	60.76
372.16	46.42
372.371	-15.02
372.582	27.99
372.792	89.43
373.003	40.28
373.214	50.52
373.424	62.8
373.635	11.61
373.846	52.56
374.056	-23.21
374.267	38.23
374.477	124.24
374.688	-15.02
374.898	-15.02
375.109	85.33
375.319	25.94
375.53	-17.07
375.74	42.32
375.951	56.66
376.161	-8.87
376.372	50.52
376.582	19.8
376.793	17.75
377.003	58.71
377.214	56.66
377.424	89.43
377.635	-0.68
377.845	89.43
378.055	13.65
378.266	83.28
378.476	23.89
378.686	30.04
378.897	105.81
379.107	42.32
379.317	58.71
379.528	19.8
379.738	73.04
379.948	-37.55
380.158	32.08
380.369	36.18
380.579	60.76
380.789	95.57
380.999	58.71
381.21	73.04
381.42	32.08
381.63	58.71
381.84	79.19
382.05	5.46
382.261	34.13
382.471	64.85
382.681	3.41
382.891	66.9
383.101	-29.35
383.311	-0.68
383.521	34.13
383.731	50.52
383.941	3.41
384.151	1.37
384.361	23.89
384.571	87.38
384.781	30.04
384.991	62.8
385.201	58.71
385.411	62.8
385.621	48.47
385.831	77.14
386.041	-4.78
386.251	38.23
386.461	73.04
386.671	79.19
386.881	-2.73
387.091	91.48
387.301	48.47
387.511	-17.07
387.72	99.67
387.93	7.51
388.14	36.18
388.35	73.04
388.56	101.72
388.769	83.28
388.979	-2.73
389.189	-4.78
389.399	73.04
389.609	-12.97
389.818	58.71
390.028	56.66
390.238	34.13
390.447	-8.87
390.657	56.66
390.867	68.95
391.076	38.23
391.286	-8.87
391.496	54.61
391.705	73.04
391.915	15.7
392.125	-2.73
392.334	83.28
392.544	36.18
392.753	46.42
392.963	40.28
393.172	116.05
393.382	3.41
393.591	87.38
393.801	62.8
394.01	118.1
394.22	52.56
394.429	40.28
394.639	36.18
394.848	73.04
395.058	36.18
395.267	52.56
395.477	38.23
395.686	32.08
395.895	58.71
396.105	77.14
396.314	32.08
396.524	75.09
396.733	27.99
396.942	50.52
397.152	103.76
397.361	81.24
397.57	40.28
397.78	48.47
397.989	46.42
398.198	25.94
398.407	17.75
398.617	66.9
398.826	54.61
399.035	79.19
399.244	109.91
399.453	19.8
399.663	73.04
399.872	77.14
400.081	99.67
400.29	171.35
400.499	50.52
400.708	73.04
400.917	-6.83
401.127	75.09
401.336	83.28
401.545	56.66
401.754	75.09
401.963	77.14
402.172	3.41
402.381	17.75
402.59	66.9
402.799	50.52
403.008	122.2
403.217	56.66
403.426	114
403.635	21.85
403.844	27.99
404.053	107.86
404.262	75.09
404.471	109.91
404.68	75.09
404.888	66.9
405.097	40.28
405.306	60.76
405.515	148.82
405.724	91.48
405.933	89.43
406.142	218.45
406.35	97.62
406.559	30.04
406.768	146.77
406.977	111.96
407.185	83.28
407.394	114
407.603	130.39
407.812	173.39
408.02	130.39
408.229	116.05
408.438	126.29
408.646	93.52
408.855	138.58
409.064	173.39
409.272	204.11
409.481	195.92
409.69	179.54
409.898	185.68
410.107	169.3
410.315	122.2
410.524	187.73
410.733	243.03
410.941	218.45
411.15	191.83
411.358	218.45
411.567	187.73
411.775	251.22
411.984	236.88
412.192	253.27
412.401	226.64
412.609	271.7
412.818	175.44
413.026	326.99
413.234	253.27
413.443	236.88
413.651	345.42
413.86	306.51
414.068	339.28
414.276	392.53
414.485	359.76
414.693	392.53
414.901	396.62
415.11	359.76
415.318	386.38
415.526	386.38
415.734	423.25
415.943	402.77
416.151	435.53
416.359	572.75
416.567	492.88
416.776	423.25
416.984	548.17
417.192	552.27
417.4	548.17
417.608	542.03
417.817	570.7
418.025	576.84
418.233	539.98
418.441	671.05
418.649	628.04
418.857	789.83
419.065	689.48
419.273	671.05
419.481	806.22
419.689	763.21
419.897	888.14
420.105	884.04
420.313	869.7
420.521	968.01
420.729	994.63
420.937	974.15
421.145	1078.6
421.353	1082.69
421.561	1062.21
421.769	1125.7
421.977	1207.62
422.185	1064.26
422.393	1271.11
422.601	1297.73
422.809	1264.96
423.017	1342.78
423.224	1473.85
423.432	1377.6
423.64	1473.85
423.848	1578.3
424.056	1496.38
424.263	1576.25
424.471	1692.99
424.679	1652.03
424.887	1772.86
425.094	1811.77
425.302	1742.14
425.51	1803.58
425.718	2032.95
425.925	1948.98
426.133	2073.91
426.341	2184.5
426.548	2229.56
426.756	2295.09
426.964	2405.68
427.171	2344.24
427.379	2569.52
427.586	2581.81
427.794	2600.24
428.001	2626.86
428.209	2841.9
428.417	2716.97
428.624	3022.12
428.832	2985.26
429.039	2929.96
429.247	2845.99
429.454	3259.68
429.662	3398.95
429.869	3194.15
430.076	3495.2
430.284	3400.99
430.491	3456.29
430.699	3743
430.906	3706.14
431.114	3777.82
431.321	3872.03
431.528	3947.8
431.736	4232.47
431.943	4449.55
432.15	4318.48
432.358	4304.15
432.565	4635.92
432.772	4519.18
432.979	4977.93
433.187	4783.37
433.394	4887.82
433.601	5225.73
433.808	5291.27
434.016	5182.73
434.223	5481.73
434.43	5844.22
434.637	5670.14
434.844	6042.87
435.052	6124.79
435.259	6200.57
435.466	6227.19
435.673	6145.27
435.88	6305.01
436.087	6810.86
436.294	6708.46
436.501	6726.89
436.708	6857.96
436.915	6978.79
437.122	7326.95
437.329	7335.14
437.537	7589.09
437.743	7693.54
437.95	7652.58
438.157	8086.75
438.364	8434.9
438.571	8271.06
438.778	8283.35
438.985	9034.96
439.192	8733.9
439.399	8998.09
439.606	8973.52
439.813	9391.3
440.02	9895.1
440.227	9983.16
440.433	9913.53
440.64	10042.56
440.847	10099.9
441.054	10114.23
441.261	10804.4
441.467	10912.94
441.674	11011.25
441.881	11001.01
442.088	11340.97
442.294	11213.99
442.501	11334.82
442.708	11807.91
442.914	12231.83
443.121	13024.4
443.328	12483.73
443.534	13247.63
443.741	13124.75
443.948	13173.9
444.154	13810.82
444.361	13733
444.568	13960.32
444.774	13593.73
444.981	13954.18
445.187	14273.66
445.394	15166.57
445.6	14615.67
445.807	16202.85
446.013	15594.6
446.22	15985.76
446.426	16596.06
446.633	16473.18
446.839	16837.72
447.046	16374.88
447.252	17439.82
447.459	17507.4
447.665	17589.32
447.871	18353.21
448.078	19194.93
448.284	17964.1
448.491	18394.17
448.697	19641.39
448.903	19530.8
449.11	19794.98
449.316	19495.98
449.522	20071.46
449.728	20356.13
449.935	20548.64
450.141	20403.23
450.347	21085.2
450.553	20528.16
450.76	20599.83
450.966	21294.1
451.172	21052.44
451.378	21783.56
451.584	21308.43
451.791	21859.34
451.997	21873.67
452.203	22379.52
452.409	22066.18
452.615	21847.05
452.821	21290
453.027	21240.85
453.233	22219.78
453.44	21388.3
453.646	21578.76
453.852	21576.72
454.058	22197.25
454.264	21591.05
454.47	21898.25
454.676	21464.08
454.882	22035.46
455.088	20235.3
455.294	20313.12
455.5	20814.87
455.705	20911.13
455.911	20423.71
456.117	19803.18
456.323	19448.88
456.529	18695.22
456.735	19323.95
456.941	19033.14
457.147	18416.7
457.352	17869.89
457.558	17904.71
457.764	17771.59
457.97	17505.35
458.176	17308.75
458.381	17200.21
458.587	16366.68
458.793	16551
458.999	15721.57
459.204	16487.51
459.41	15952.99
459.616	15084.66
459.821	15029.36
460.027	14902.39
460.233	14611.57
460.438	14103.68
460.644	14122.11
460.85	13626.5
461.055	13311.11
461.261	13323.4
461.466	12348.57
461.672	12039.33
461.878	12625.04
462.083	12039.33
462.289	11816.1
462.494	11564.2
462.7	11269.29
462.905	10677.43
463.111	11173.03
463.316	11220.14
463.522	10886.32
463.727	11044.01
463.932	11064.49
464.138	10788.02
464.343	11082.92
464.549	10441.91
464.754	10880.18
464.959	10861.74
465.165	10980.53
465.37	10163.39
465.575	9977.02
465.781	10423.48
465.986	10476.73
466.191	10173.63
466.397	9874.62
466.602	9350.34
466.807	9725.12
467.012	9948.35
467.218	9866.43
467.423	9718.98
467.628	9688.26
467.833	10208.44
468.038	9729.22
468.244	9534.66
468.449	9962.69
468.654	9503.94
468.859	9436.36
469.064	9323.72
469.269	9010.38
469.474	9145.55
469.679	9262.28
469.885	9104.59
470.09	9241.8
470.295	9094.35
470.5	8889.55
470.705	8963.28
470.91	8862.93
471.115	8699.09
471.32	8715.47
471.525	8692.94
471.73	8547.54
471.935	8494.29
472.139	8269.02
472.344	8336.6
472.549	8240.34
472.754	8258.78
472.959	7933.15
473.164	7705.82
473.369	7711.97
473.574	7933.15
473.778	7865.57
473.983	7943.39
474.188	7789.79
474.393	7539.94
474.598	7539.94
474.802	7580.9
475.007	7402.72
475.212	7494.88
475.417	7019.75
475.621	7136.49
475.826	7128.3
476.031	7173.35
476.235	6841.58
476.44	6952.17
476.645	6890.73
476.849	6847.72
477.054	6857.96
477.259	6757.61
477.463	6737.13
477.668	6468.85
477.872	6601.97
478.077	6374.64
478.282	6251.77
478.486	6288.63
478.691	6419.7
478.895	6184.18
479.1	6104.31
479.304	6368.5
479.509	5944.57
479.713	6225.14
479.918	5842.17
480.122	6034.68
480.326	6063.35
480.531	5901.56
480.735	6139.13
480.94	5879.04
481.144	6196.47
481.348	5850.36
481.553	5926.14
481.757	5694.72
481.961	5815.55
482.166	5864.7
482.37	5885.18
482.574	5735.68
482.778	5979.39
482.983	5635.33
483.187	5754.11
483.391	5821.69
483.595	5864.7
483.8	5655.81
484.004	5770.49
484.208	5856.51
484.412	5750.01
484.616	5721.34
484.821	5825.79
485.025	5733.63
485.229	5950.71
485.433	5842.17
485.637	5905.66
485.841	5686.53
486.045	5733.63
486.249	5725.44
486.453	5745.92
486.657	5815.55
486.861	5833.98
487.065	5842.17
487.269	5696.77
487.473	5729.53
487.677	5739.77
487.881	5913.85
488.085	5805.31
488.289	5793.02
488.493	5895.42
488.697	5866.75
488.901	5901.56
489.105	5965.05
489.309	5852.41
489.512	5887.23
489.716	5852.41
489.92	5897.47
490.124	5954.81
490.328	6110.46
490.531	6061.3
490.735	5954.81
490.939	6053.11
491.143	6018.3
491.346	6046.97
491.55	6085.88
491.754	6071.54
491.958	6077.69
492.161	6212.85
492.365	6309.11
492.569	6231.29
492.772	6151.42
492.976	6292.73
493.18	6356.21
493.383	6423.8
493.587	6399.22
493.79	6360.31
493.994	6319.35
494.197	6403.32
494.401	6481.14
494.605	6407.41
494.808	6593.78
495.012	6890.73
495.215	6597.87
495.419	6886.64
495.622	6810.86
495.825	6829.29
496.029	6864.11
496.232	7218.41
496.436	7017.71
496.639	7216.36
496.843	7161.06
497.046	7253.22
497.249	7349.48
497.453	7249.13
497.656	7537.89
497.859	7458.02
498.063	7681.25
498.266	7873.76
498.469	7959.77
498.673	7908.57
498.876	7998.68
499.079	7961.82
499.282	7912.67
499.485	8242.39
499.689	8309.97
499.892	8461.52
500.095	8416.47
500.298	8840.4
500.501	8690.9
500.705	8944.84
500.908	9163.98
501.111	9092.3
501.314	9143.5
501.517	9239.75
501.72	9288.9
501.923	9315.53
502.126	9682.11
502.329	9819.33
502.532	9901.25
502.735	9745.6
502.938	10187.96
503.141	10087.61
503.344	10300.6
503.547	10534.07
503.75	10493.11
503.953	10783.92
504.156	10685.62
504.359	11011.25
504.562	11119.79
504.765	11310.25
504.968	11580.58
505.17	11455.65
505.373	11472.04
505.576	11701.41
505.779	11963.55
505.982	11934.88
506.185	12272.79
506.387	12199.07
506.59	12401.82
506.793	12827.79
506.996	12659.86
507.198	13044.88
507.401	12780.69
507.604	13073.55
507.807	13270.15
508.009	13317.26
508.212	13810.82
508.415	13628.55
508.617	13696.13
508.82	13982.85
509.022	13931.65
509.225	14363.77
509.428	14457.98
509.63	14806.13
509.833	14685.3
510.035	15174.77
510.238	15041.65
510.44	15463.53
510.643	15506.54
510.845	15662.18
511.048	15854.69
511.25	16149.6
511.453	16008.29
511.655	16847.96
511.858	16165.98
512.06	16919.64
512.262	16866.39
512.465	17140.82
512.667	17222.73
512.87	17388.62
513.072	17419.34
513.274	17894.47
513.477	18056.26
513.679	18484.28
513.881	18398.27
514.084	18635.83
514.286	18588.73
514.488	18940.98
514.69	19436.59
514.893	19307.57
515.095	19495.98
515.297	19846.18
515.499	19721.26
515.701	20059.17
515.904	20155.43
516.106	20380.7
516.308	20659.23
516.51	20890.65
516.712	21097.49
516.914	21396.49
517.116	21470.22
517.318	21720.07
517.52	21634.06
517.722	22113.28
517.925	22141.96
518.127	22666.24
518.329	22789.11
518.531	22862.84
518.733	23165.94
518.935	23436.27
519.136	23354.35
519.338	23372.78
519.54	23747.56
519.742	24376.29
519.944	24460.26
520.146	24722.4
520.348	24740.83
520.55	24837.08
520.752	25426.9
520.954	25557.97
521.155	25490.38
521.357	25693.13
521.559	26029
521.761	26467.27
521.963	26328
522.164	26635.2
522.366	26672.06
522.568	26780.6
522.77	27288.5
522.971	27425.71
523.173	27141.05
523.375	27634.61
523.576	27532.21
523.778	27823.02
523.98	27780.01
524.181	28568.48
524.383	28165.03
524.584	28672.93
524.786	28898.2
524.988	28640.16
525.189	29133.72
525.391	29461.4
525.592	29352.85
525.794	29621.14
525.995	29617.04
526.197	29594.51
526.398	29576.08
526.6	30290.82
526.801	30245.77
527.003	30245.77
527.204	30342.02
527.406	30784.38
527.607	30335.88
527.808	30716.8
528.01	30407.56
528.211	30892.93
528.412	31249.27
528.614	31007.61
528.815	31419.25
529.016	31191.93
529.218	31028.09
529.419	31357.81
529.62	31777.65
529.822	31613.81
530.023	31904.62
530.224	31996.78
530.425	31787.89
530.626	31796.08
530.828	31699.83
531.029	32240.49
531.23	31667.06
531.431	31976.3
531.632	32154.47
531.833	31947.63
532.035	32263.02
532.236	32387.94
532.437	32306.02
532.638	32234.35
532.839	32158.57
533.04	32990.05
533.241	32148.33
533.442	32508.77
533.643	32545.64
533.844	32326.5
534.045	32559.97
534.246	32172.91
534.447	32775.01
534.648	32637.8
534.849	32775.01
535.05	32568.16
535.251	32834.4
535.451	32523.11
535.652	33022.81
535.853	32668.51
536.054	32543.59
536.255	32797.54
536.456	32125.8
536.657	33049.44
536.857	32674.66
537.058	32471.91
537.259	32815.97
537.46	32607.08
537.66	32459.62
537.861	32762.72
538.062	32392.04
538.263	32594.79
538.463	32482.15
538.664	32349.03
538.865	32766.82
539.065	32906.08
539.266	32734.05
539.466	33223.51
539.667	32557.92
539.868	33082.2
540.068	32357.22
540.269	32426.85
540.469	32727.91
540.67	32815.97
540.87	32658.27
541.071	32838.5
541.271	32936.8
541.472	32809.82
541.672	32631.65
541.873	32430.95
542.073	32226.15
542.274	32961.37
542.474	32512.87
542.675	31945.58
542.875	32899.94
543.075	32897.89
543.276	32381.8
543.476	32678.75
543.676	32852.83
543.877	32566.12
544.077	32594.79
544.277	32308.07
544.478	32568.16
544.678	32635.75
544.878	32287.59
545.078	33063.77
545.279	32387.94
545.479	32476.01
545.679	32865.12
545.879	32578.4
546.079	32250.73
546.28	32682.85
546.48	32256.87
546.68	32473.96
546.88	32578.4
547.08	32818.02
547.28	32840.54
547.48	32054.12
547.68	32205.67
547.88	32369.51
548.081	32641.89
548.281	32633.7
548.481	32230.25
548.681	32439.14
548.881	32529.25
549.081	32482.15
549.28	32181.1
549.48	32373.61
549.68	32633.7
549.88	32701.28
550.08	32402.28
550.28	32461.67
550.48	32226.15
550.68	32602.98
550.88	32334.7
551.08	32426.85
551.279	32578.4
551.479	31875.95
551.679	32496.49
551.879	32281.45
552.079	32613.22
552.278	32088.94
552.478	32303.98
552.678	32021.36
552.878	32535.4
553.077	32359.27
553.277	32271.21
553.477	32557.92
553.676	32162.67
553.876	32521.06
554.076	32007.02
554.275	32054.12
554.475	31816.56
554.674	32514.92
554.874	32252.78
555.074	32160.62
555.273	32066.41
555.473	32193.39
555.672	32193.39
555.872	32131.95
556.071	31732.59
556.271	32400.23
556.47	31695.73
556.67	32136.04
556.869	31736.69
557.068	32109.42
557.268	31259.51
557.467	31781.74
557.667	31771.5
557.866	31746.93
558.065	31824.75
558.265	31366.01
558.464	31384.44
558.663	31636.34
558.863	31187.83
559.062	31787.89
559.261	31107.96
559.461	31892.33
559.66	31351.67
559.859	31552.37
560.058	31110.01
560.258	31681.39
560.457	31468.41
560.656	30999.42
560.855	30976.89
561.054	31110.01
561.253	30954.36
561.453	31269.75
561.652	31282.04
561.851	31284.09
562.05	30944.13
562.249	30727.04
562.448	31028.09
562.647	30911.36
562.846	30731.14
563.045	30686.08
563.244	30290.82
563.443	30684.03
563.642	30364.55
563.841	30432.13
564.04	30172.04
564.239	30628.74
564.438	30315.4
564.637	30673.79
564.836	30419.85
565.035	30264.2
565.234	30296.97
565.432	30423.94
565.631	29825.93
565.83	29772.69
566.029	30036.88
566.228	29995.92
566.427	29545.36
566.625	29754.26
566.824	29311.89
567.023	29655.95
567.222	29361.05
567.42	29502.36
567.619	29494.16
567.818	29137.82
568.016	29029.27
568.215	29389.72
568.414	29371.29
568.612	29234.07
568.811	29156.25
569.01	29346.71
569.208	28570.53
569.407	29082.52
569.605	28681.12
569.804	28820.38
570.002	28593.06
570.201	28967.84
570.4	28453.8
570.598	28468.13
570.797	28431.27
570.995	28511.14
571.193	28156.84
571.392	28425.12
571.59	28019.63
571.789	28187.56
571.987	27863.98
572.186	28091.3
572.384	28046.25
572.582	27921.32
572.781	27888.56
572.979	27243.45
573.177	27640.75
573.376	28029.87
573.574	27667.38
573.772	27843.5
573.971	27257.78
574.169	27284.4
574.367	27063.22
574.565	27290.55
574.763	27038.65
574.962	26866.62
575.16	26966.97
575.358	27093.94
575.556	26688.45
575.754	26788.8
575.952	26565.57
576.151	26663.87
576.349	26489.79
576.547	26667.97
576.745	26416.07
576.943	26624.96
577.141	26565.57
577.339	26420.16
577.537	26162.12
577.735	26418.11
577.933	25840.59
578.131	26166.21
578.329	25682.89
578.527	25502.67
578.725	26090.44
578.923	25881.55
579.121	25820.11
579.319	25609.17
579.516	25777.1
579.714	25430.99
579.912	25476.05
580.11	25381.84
580.308	25365.46
580.506	25349.07
580.704	25002.97
580.901	25351.12
581.099	25203.67
581.297	24853.47
581.495	25213.91
581.692	24828.89
581.89	24587.23
582.088	25058.26
582.285	24597.47
582.483	24978.39
582.681	24656.86
582.878	24777.69
583.076	24103.91
583.274	24093.67
583.471	23966.7
583.669	24038.37
583.866	24040.42
584.064	24108.01
584.262	23727.08
584.459	24085.48
584.657	23704.56
584.854	24067.05
585.052	23737.32
585.249	23456.75
585.447	23645.16
585.644	23372.78
585.841	23583.73
586.039	23612.4
586.236	23004.15
586.434	22909.94
586.631	23278.58
586.828	23096.31
587.026	23391.22
587.223	22967.29
587.42	22899.7
587.618	23155.7
587.815	22809.59
588.012	22905.85
588.21	22998.01
588.407	22803.45
588.604	22772.73
588.801	22359.04
588.999	22408.19
589.196	22430.72
589.393	22301.7
589.59	22205.44
589.787	22361.09
589.984	22238.21
590.182	21775.37
590.379	22201.35
590.576	21818.38
590.773	21928.97
590.97	22051.84
591.167	22187.01
591.364	21896.2
591.561	21761.03
591.758	21206.03
591.955	21646.35
592.152	21625.87
592.349	21294.1
592.546	21476.37
592.743	21584.91
592.94	20739.1
593.137	21335.06
593.334	21322.77
593.531	20702.23
593.727	21038.1
593.924	21042.2
594.121	20616.22
594.318	20956.18
594.515	20515.87
594.712	21015.57
594.908	20567.07
595.105	20806.68
595.302	20628.51
595.499	20493.34
595.696	20470.81
595.892	20433.95
596.089	20593.69
596.286	20403.23
596.482	20196.39
596.679	20370.46
596.876	20161.57
597.072	19940.39
597.269	20032.55
597.466	19749.93
597.662	19948.58
597.859	19680.3
598.055	19788.84
598.252	19676.2
598.448	19692.58
598.645	19526.7
598.841	19485.74
599.038	19379.25
599.234	19426.35
599.431	19113.01
599.627	19051.57
599.824	19174.45
600.02	19188.78
600.217	19364.91
600.413	19141.68
600.609	18994.23
600.806	18730.04
601.002	18971.7
601.198	18619.45
601.395	18766.9
601.591	18838.58
601.787	18723.9
601.984	18725.94
602.18	18584.63
602.376	18414.65
602.572	18353.21
602.769	18383.93
602.965	18238.53
603.161	18271.29
603.357	18306.11
603.553	18070.59
603.75	18138.18
603.946	17751.11
604.142	18107.46
604.338	17736.77
604.534	17890.37
604.73	17704.01
604.926	17609.8
605.122	17706.06
605.318	17740.87
605.514	17525.83
605.71	17462.35
605.906	17439.82
606.102	17437.77
606.298	17294.41
606.494	17237.07
606.69	17656.9
606.886	17456.2
607.082	17073.23
607.278	17155.15
607.474	16903.25
607.67	17189.97
607.866	17181.78
608.062	17218.64
608.257	17030.23
608.453	17062.99
608.649	17282.13
608.845	16888.92
609.041	16854.1
609.236	16807
609.432	16720.98
609.628	16741.46
609.824	16643.16
610.019	16667.74
610.215	16712.79
610.411	16731.22
610.606	16542.81
610.802	16626.78
610.998	16432.22
611.193	16632.92
611.389	16284.76
611.584	16229.47
611.78	16188.51
611.976	16229.47
612.171	16295
612.367	16266.33
612.562	16129.12
612.758	15879.27
612.953	15766.63
613.149	16270.43
613.344	16004.19
613.539	16338.01
613.735	15752.29
613.93	15981.67
614.126	15832.16
614.321	16145.5
614.517	15504.49
614.712	15836.26
614.907	15789.16
615.103	15731.81
615.298	15604.84
615.493	15772.77
615.688	15469.67
615.884	15838.31
616.079	15418.47
616.274	15737.96
616.47	15254.64
616.665	15318.12
616.86	15326.32
617.055	15250.54
617.25	15146.09
617.445	15596.65
617.641	14935.15
617.836	15385.71
618.031	15004.78
618.226	15252.59
618.421	15055.98
618.616	15080.56
618.811	14730.36
619.006	15119.47
619.201	14724.21
619.396	14886
619.591	14576.76
619.786	14634.1
619.981	14640.25
620.176	14720.12
620.371	14478.46
620.566	14615.67
620.761	14220.41
620.956	14298.24
621.151	14216.32
621.346	14376.06
621.541	14118.01
621.735	14025.86
621.93	13915.26
622.125	14197.88
622.32	13698.18
622.515	13757.57
622.709	13857.92
622.904	13552.77
623.099	13446.28
623.294	13687.94
623.488	13212.81
623.683	13624.45
623.878	13089.93
624.072	13165.71
624.267	13159.56
624.462	13067.41
624.656	12993.68
624.851	12962.96
625.046	13020.3
625.24	12922
625.435	12674.2
625.629	12700.82
625.824	12686.48
626.018	12715.16
626.213	12297.37
626.407	12577.94
626.602	12125.34
626.796	12440.73
626.991	12508.31
627.185	12158.11
627.38	12119.2
627.574	12113.05
627.768	11914.4
627.963	11818.14
628.157	11895.97
628.352	11789.47
628.546	11588.77
628.74	11603.11
628.935	11369.64
629.129	11664.55
629.323	11369.64
629.517	11379.88
629.712	11275.43
629.906	11451.56
630.1	11035.82
630.294	11246.76
630.489	10966.19
630.683	11031.72
630.877	10960.05
631.071	10964.14
631.265	11117.74
631.459	10767.54
631.653	10745.01
631.848	10683.57
632.042	10722.48
632.236	10697.91
632.43	10396.85
632.624	10441.91
632.818	10415.29
633.012	10491.06
633.206	10251.45
633.4	10366.14
633.594	10020.03
633.788	10218.68
633.982	10343.61
634.176	10390.71
634.369	10075.32
634.563	10022.08
634.757	10101.95
634.951	10050.75
635.145	9839.81
635.339	9618.63
635.533	9716.93
635.726	9589.95
635.92	9544.9
636.114	9647.3
636.308	9514.18
636.501	9493.7
636.695	9405.64
636.889	9411.78
637.083	9305.29
637.276	9282.76
637.47	9237.7
637.664	9270.47
637.857	9106.63
638.051	9229.51
638.244	9063.63
638.438	9133.26
638.632	8994
638.825	8907.98
639.019	9047.24
639.212	8772.82
639.406	8824.01
639.599	8684.75
639.793	8690.9
639.986	8488.15
640.18	8654.03
640.373	8633.55
640.567	8494.29
640.76	8428.76
640.954	8346.84
641.147	8107.23
641.34	8391.89
641.534	8504.53
641.727	8230.1
641.92	8281.3
642.114	7961.82
642.307	7974.11
642.5	8086.75
642.694	7863.52
642.887	7912.67
643.08	8023.26
643.273	7871.71
643.467	7736.54
643.66	7699.68
643.853	7814.37
644.046	7711.97
644.239	7644.38
644.432	7521.51
644.626	7466.21
644.819	7285.99
645.012	7582.95
645.205	7453.92
645.398	7372
645.591	7185.64
645.784	7308.52
645.977	7103.72
646.17	7355.62
646.363	7042.28
646.556	7015.66
646.749	6972.65
646.942	6976.75
647.135	7027.95
647.328	7015.66
647.521	6915.31
647.714	6868.2
647.907	6849.77
648.099	6628.59
648.292	6835.44
648.485	6696.18
648.678	6655.22
648.871	6612.21
649.064	6604.02
649.256	6653.17
649.449	6448.37
649.642	6466.8
649.835	6284.53
650.027	6376.69
650.22	6354.16
650.413	6378.74
650.605	6196.47
650.798	6196.47
650.991	6094.07
651.183	6225.14
651.376	6018.3
651.568	5942.52
651.761	6057.21
651.954	5840.12
652.146	5971.19
652.339	5975.29
652.531	5874.94
652.724	5911.8
652.916	5678.33
653.109	5901.56
653.301	5850.36
653.494	5764.35
653.686	5696.77
653.879	5827.84
654.071	5700.86
654.263	5598.46
654.456	5696.77
654.648	5612.8
654.84	5498.11
655.033	5543.17
655.225	5524.74
655.417	5483.78
655.61	5502.21
655.802	5530.88
655.994	5367.04
656.186	5375.24
656.379	5373.19
656.571	5299.46
656.763	5371.14
656.955	5121.29
657.148	5190.92
657.34	5164.29
657.532	5211.4
657.724	5113.1
657.916	5129.48
658.108	5121.29
658.3	5063.94
658.492	5117.19
658.684	5059.85
658.876	4914.44
659.068	4889.87
659.26	4836.62
659.452	5039.37
659.644	4834.57
659.836	4769.04
660.028	4875.53
660.22	4775.18
660.412	4617.49
660.604	4697.36
660.796	4672.78
660.988	4627.73
661.18	4883.72
661.372	4619.53
661.563	4619.53
661.755	4367.63
661.947	4617.49
662.139	4529.42
662.331	4580.62
662.522	4408.59
662.714	4406.55
662.906	4336.92
663.097	4357.39
663.289	4322.58
663.481	4281.62
663.673	4398.35
663.864	4310.29
664.056	4216.08
664.247	4211.99
664.439	4160.79
664.631	4146.45
664.822	4185.37
665.014	4087.06
665.205	4099.35
665.397	4076.82
665.588	4048.15
665.78	3937.56
665.971	3996.95
666.163	4130.07
666.354	4097.3
666.546	3884.31
666.737	3958.04
666.929	3955.99
667.12	3884.31
667.311	3829.02
667.503	3783.96
667.694	3882.27
667.885	3728.67
668.077	3734.81
668.268	3759.39
668.459	3833.11
668.651	3796.25
668.842	3747.1
669.033	3704.09
669.224	3613.98
669.416	3679.52
669.607	3609.89
669.798	3716.38
669.989	3710.24
670.18	3573.02
670.371	3534.11
670.563	3546.4
670.754	3618.08
670.945	3433.76
671.136	3593.5
671.327	3562.78
671.518	3487.01
671.709	3464.48
671.9	3556.64
672.091	3380.51
672.282	3446.05
672.473	3400.99
672.664	3435.81
672.855	3403.04
673.046	3345.7
673.237	3530.02
673.428	3312.93
673.619	3333.41
673.809	3419.43
674	3325.22
674.191	3339.55
674.382	3298.59
674.573	3243.3
674.764	3190.05
674.954	3185.96
675.145	3183.91
675.336	3239.2
675.527	3261.73
675.717	3271.97
675.908	2997.54
676.099	3136.81
676.289	3183.91
676.48	2946.34
676.671	3030.31
676.861	3099.94
677.052	2977.06
677.243	2999.59
677.433	3276.07
677.624	3022.12
677.814	3210.53
678.005	3063.08
678.195	3018.02
678.386	3022.12
678.576	3024.17
678.767	3003.69
678.957	3007.78
679.148	3030.31
679.338	3095.85
679.529	3036.45
679.719	2958.63
679.909	3101.99
680.1	3003.69
680.29	3058.98
680.481	2999.59
680.671	2942.25
680.861	3065.13
681.052	3018.02
681.242	2972.97
681.432	2956.58
681.622	2950.44
681.813	2899.24
682.003	2950.44
682.193	2868.52
682.383	2929.96
682.573	2905.38
682.764	2870.57
682.954	2989.35
683.144	2860.33
683.334	2757.93
683.524	2946.34
683.714	3018.02
683.904	2891.05
684.094	2856.23
684.284	2768.17
684.474	2903.34
684.664	2942.25
684.854	2788.65
685.044	2858.28
685.234	2878.76
685.424	2759.98
685.614	2743.6
685.804	2784.55
685.994	2848.04
686.184	2739.5
686.374	2759.98
686.564	2782.51
686.753	2843.95
686.943	2764.08
687.133	2755.88
687.323	2749.74
687.513	2608.43
687.702	2719.02
687.892	2686.25
688.082	2716.97
688.272	2690.35
688.461	2841.9
688.651	2817.32
688.841	2737.45
689.03	2731.31
689.22	2676.01
689.41	2770.22
689.599	2721.07
689.789	2688.3
689.979	2579.76
690.168	2577.71
690.358	2534.7
690.547	2710.83
690.737	2665.77
690.926	2571.57
691.116	2698.54
691.305	2712.88
691.495	2579.76
691.684	2555.18
691.874	2684.2
692.063	2487.6
692.252	2688.3
692.442	2600.24
692.631	2624.81
692.82	2571.57
693.01	2522.41
693.199	2604.33
693.388	2565.42
693.578	2579.76
693.767	2590
693.956	2512.18
694.146	2426.16
694.335	2473.26
694.524	2573.61
694.713	2544.94
694.902	2546.99
695.092	2469.17
695.281	2444.59
695.47	2585.9
695.659	2538.8
695.848	2481.46
696.037	2532.65
696.226	2413.87
696.415	2571.57
696.604	2600.24
696.793	2458.93
696.982	2442.54
697.171	2395.44
697.36	2501.94
697.549	2393.39
697.738	2514.22
697.927	2465.07
698.116	2526.51
698.305	2442.54
698.494	2469.17
698.683	2377.01
698.872	2407.73
699.061	2573.61
699.25	2469.17
699.438	2434.35
699.627	2438.45
699.816	2454.83
700.005	2383.15
700.193	2428.21
700.382	2426.16
700.571	2381.1
700.76	2370.87
700.948	2325.81
701.137	2331.95
701.326	2399.54
701.514	2356.53
701.703	2329.91
701.892	2399.54
702.08	2250.03
702.269	2282.8
702.457	2325.81
702.646	2348.34
702.834	2331.95
703.023	2235.7
703.212	2350.39
703.4	2290.99
703.589	2223.41
703.777	2272.56
703.965	2319.67
704.154	2176.31
704.342	2338.1
704.531	2282.8
704.719	2204.98
704.907	2256.18
705.096	2194.74
705.284	2276.66
705.472	2213.17
705.661	2211.12
705.849	2245.94
706.037	2157.88
706.226	2118.97
706.414	2256.18
706.602	2176.31
706.79	2243.89
706.979	2161.97
707.167	2293.04
707.355	2219.32
707.543	2168.12
707.731	2137.4
707.919	2116.92
708.107	2102.58
708.296	2143.54
708.484	2155.83
708.672	2153.78
708.86	2145.59
709.048	2139.44
709.236	2186.55
709.424	2098.49
709.612	2032.95
709.8	2018.61
709.988	2053.43
710.176	2127.16
710.364	2063.67
710.551	2082.1
710.739	2030.9
710.927	2104.63
711.115	2121.01
711.303	2082.1
711.491	2057.53
711.679	1940.79
711.866	2112.82
712.054	1848.63
712.242	2082.1
712.43	1987.89
712.617	1973.56
712.805	1994.04
712.993	2000.18
713.181	1785.15
713.368	2014.52
713.556	2082.1
713.744	1889.59
713.931	2010.42
714.119	1875.26
714.306	2028.85
714.494	2000.18
714.682	1932.6
714.869	2049.33
715.057	1967.42
715.244	1899.83
715.432	2024.76
715.619	1916.22
715.807	1926.46
715.994	1895.74
716.182	1875.26
716.369	1838.39
716.556	1860.92
716.744	1916.22
716.931	1899.83
717.119	1903.93
717.306	1893.69
717.493	1881.4
717.681	1912.12
717.868	1883.45
718.055	1926.46
718.242	1858.87
718.43	1942.84
718.617	1809.72
718.804	1846.59
718.991	1758.52
719.179	1817.91
719.366	1787.19
719.553	1899.83
719.74	1717.56
719.927	1809.72
720.114	1746.23
720.301	1817.91
720.488	1744.19
720.676	1764.67
720.863	1762.62
721.05	1756.47
721.237	1688.89
721.424	1793.34
721.611	1764.67
721.798	1664.32
721.985	1715.52
722.172	1735.99
722.358	1760.57
722.545	1729.85
722.732	1744.19
722.919	1654.08
723.106	1742.14
723.293	1740.09
723.48	1643.84
723.667	1631.55
723.853	1776.95
724.04	1705.28
724.227	1670.46
724.414	1625.4
724.6	1746.23
724.787	1649.98
724.974	1645.88
725.161	1680.7
725.347	1678.65
725.534	1754.43
725.72	1604.92
725.907	1596.73
726.094	1604.92
726.28	1590.59
726.467	1621.31
726.653	1537.34
726.84	1588.54
727.027	1631.55
727.213	1541.44
727.4	1682.75
727.586	1625.4
727.773	1584.45
727.959	1609.02
728.145	1557.82
728.332	1584.45
728.518	1664.32
728.705	1621.31
728.891	1641.79
729.077	1633.6
729.264	1512.77
729.45	1557.82
729.636	1525.05
729.823	1584.45
730.009	1617.21
730.195	1410.37
730.382	1549.63
730.568	1424.7
730.754	1596.73
730.94	1596.73
731.126	1525.05
731.313	1568.06
731.499	1611.07
731.685	1537.34
731.871	1443.14
732.057	1656.12
732.243	1480
732.429	1596.73
732.615	1553.73
732.801	1588.54
732.987	1541.44
733.173	1545.53
733.359	1467.71
733.545	1449.28
733.731	1625.4
733.917	1535.29
734.103	1492.29
734.289	1568.06
734.475	1514.81
734.661	1549.63
734.847	1492.29
735.033	1451.33
735.219	1566.01
735.404	1529.15
735.59	1424.7
735.776	1484.09
735.962	1553.73
736.148	1457.47
736.333	1471.81
736.519	1486.14
736.705	1439.04
736.89	1383.74
737.076	1408.32
737.262	1426.75
737.447	1439.04
737.633	1385.79
737.819	1350.98
738.004	1324.35
738.19	1377.6
738.375	1379.65
738.561	1396.03
738.747	1426.75
738.932	1463.62
739.118	1383.74
739.303	1355.07
739.489	1350.98
739.674	1408.32
739.859	1371.46
740.045	1375.55
740.23	1367.36
740.416	1480
740.601	1350.98
740.786	1340.74
740.972	1293.63
741.157	1273.15
741.342	1344.83
741.528	1291.59
741.713	1258.82
741.898	1334.59
742.084	1338.69
742.269	1246.53
742.454	1262.91
742.639	1424.7
742.824	1232.19
743.01	1295.68
743.195	1285.44
743.38	1305.92
743.565	1181
743.75	1244.48
743.935	1289.54
744.12	1262.91
744.305	1336.64
744.49	1260.87
744.675	1287.49
744.86	1293.63
745.045	1291.59
745.23	1269.06
745.415	1178.95
745.6	1203.52
745.785	1150.28
745.97	1199.43
746.155	1248.58
746.34	1215.81
746.525	1213.76
746.71	1158.47
746.895	1193.28
747.079	1224
747.264	1178.95
747.449	1160.52
747.634	1144.13
747.819	1068.36
748.003	1148.23
748.188	1164.61
748.373	1123.65
748.557	1144.13
748.742	1166.66
748.927	1074.5
749.111	1027.4
749.296	1072.45
749.481	1060.17
749.665	1082.69
749.85	1090.88
750.034	1031.49
750.219	1097.03
750.404	982.34
750.588	1080.64
750.773	1008.97
750.957	1045.83
751.141	1004.87
751.326	1017.16
751.51	939.33
751.695	990.53
751.879	959.81
752.064	939.33
752.248	1021.25
752.432	968.01
752.617	916.81
752.801	947.53
752.985	984.39
753.17	1006.92
753.354	1045.83
753.538	974.15
753.722	984.39
753.907	949.57
754.091	939.33
754.275	994.63
754.459	939.33
754.643	902.47
754.828	992.58
755.012	904.52
755.196	875.85
755.38	920.9
755.564	935.24
755.748	865.61
755.932	861.51
756.116	935.24
756.3	828.74
756.484	892.23
756.668	910.66
756.852	834.89
757.036	859.46
757.22	818.5
757.404	781.64
757.588	834.89
757.772	707.91
757.956	814.41
758.14	767.31
758.323	742.73
758.507	804.17
758.691	822.6
758.875	759.11
759.059	738.63
759.242	822.6
759.426	798.03
759.61	734.54
759.794	752.97
759.977	736.59
760.161	877.9
760.345	800.07
760.528	841.03
760.712	812.36
760.895	701.77
761.079	740.68
761.263	744.78
761.446	712.01
761.63	779.59
761.813	771.4
761.997	724.3
762.18	742.73
762.364	720.2
762.547	652.62
762.731	718.15
762.914	720.2
763.098	640.33
763.281	646.48
763.464	724.3
763.648	714.06
763.831	634.19
764.015	683.34
764.198	640.33
764.381	638.28
764.564	693.58
764.748	632.14
764.931	613.71
765.114	714.06
765.297	589.13
765.481	712.01
765.664	662.86
765.847	632.14
766.03	654.67
766.213	636.24
766.397	644.43
766.58	605.52
766.763	630.09
766.946	654.67
767.129	601.42
767.312	539.98
767.495	732.49
767.678	595.28
767.861	572.75
768.044	533.84
768.227	558.41
768.41	570.7
768.593	587.08
768.776	617.8
768.959	669
769.142	574.8
769.324	552.27
769.507	580.94
769.69	601.42
769.873	591.18
770.056	593.23
770.239	589.13
770.421	509.26
770.604	599.37
770.787	628.04
770.97	494.93
771.152	517.45
771.335	599.37
771.518	556.36
771.7	539.98
771.883	515.41
772.066	548.17
772.248	511.31
772.431	517.45
772.613	537.93
772.796	509.26
772.978	515.41
773.161	537.93
773.343	666.96
773.526	496.97
773.708	542.03
773.891	505.17
774.073	458.06
774.256	527.69
774.438	474.45
774.621	472.4
774.803	521.55
774.985	470.35
775.168	523.6
775.35	521.55
775.532	515.41
775.715	580.94
775.897	537.93
776.079	443.73
776.261	449.87
776.444	482.64
776.626	443.73
776.808	492.88
776.99	494.93
777.173	533.84
777.355	468.3
777.537	474.45
777.719	453.97
777.901	419.15
778.083	548.17
778.265	365.9
778.447	468.3
778.629	402.77
778.811	445.77
778.993	433.49
779.175	476.49
779.357	367.95
779.539	408.91
779.721	445.77
779.903	478.54
780.085	404.82
780.267	402.77
780.449	441.68
780.631	370
780.812	410.96
780.994	425.29
781.176	378.19
781.358	439.63
781.54	367.95
781.721	404.82
781.903	435.53
782.085	365.9
782.267	333.14
782.448	347.47
782.63	343.38
782.812	382.29
782.993	339.28
783.175	417.1
783.357	300.37
783.538	380.24
783.72	339.28
783.901	394.58
784.083	333.14
784.264	238.93
784.446	292.18
784.627	351.57
784.809	355.66
784.99	273.75
785.172	341.33
785.353	232.79
785.535	263.51
785.716	324.94
785.897	294.22
786.079	292.18
786.26	253.27
786.441	417.1
786.623	247.12
786.804	357.71
786.985	283.98
787.167	298.32
787.348	355.66
787.529	263.51
787.71	273.75
787.891	359.76
788.073	335.18
788.254	232.79
788.435	318.8
788.616	294.22
788.797	224.59
788.978	322.9
789.159	263.51
789.34	218.45
789.522	247.12
789.703	304.46
789.884	238.93
790.065	212.31
790.246	202.07
790.427	275.79
790.607	253.27
790.788	277.84
790.969	240.98
791.15	273.75
791.331	208.21
791.512	204.11
791.693	288.08
791.874	230.74
792.054	329.04
792.235	318.8
792.416	214.35
792.597	238.93
792.778	283.98
792.958	195.92
793.139	212.31
793.32	277.84
793.5	261.46
793.681	197.97
793.862	212.31
794.042	267.6
794.223	224.59
794.404	210.26
794.584	154.96
794.765	179.54
794.945	257.36
795.126	236.88
795.306	271.7
795.487	163.15
795.667	206.16
795.848	195.92
796.028	200.02
796.209	197.97
796.389	179.54
796.57	169.3
796.75	195.92
796.93	247.12
797.111	181.59
797.291	185.68
797.471	138.58
797.652	175.44
797.832	273.75
798.012	144.72
798.192	216.4
798.373	81.24
798.553	236.88
798.733	191.83
798.913	197.97
799.093	206.16
799.274	167.25
799.454	99.67
799.634	134.48
799.814	142.68
799.994	134.48
800.174	148.82
800.354	187.73
800.534	218.45
800.714	163.15
800.894	144.72
801.074	173.39
801.254	200.02
801.434	257.36
801.614	68.95
801.794	193.87
801.974	324.94
802.154	240.98
802.334	245.07
802.514	191.83
802.693	124.24
802.873	111.96
803.053	154.96
803.233	204.11
803.413	140.63
803.592	130.39
803.772	140.63
803.952	132.44
804.131	157.01
804.311	142.68
804.491	177.49
804.67	97.62
804.85	116.05
805.03	210.26
805.209	99.67
805.389	154.96
805.568	154.96
805.748	134.48
805.928	134.48
806.107	83.28
806.287	118.1
806.466	148.82
806.646	130.39
806.825	140.63
807.004	99.67
807.184	173.39
807.363	154.96
807.543	122.2
807.722	150.87
807.901	118.1
808.081	130.39
808.26	79.19
808.439	132.44
808.619	109.91
808.798	146.77
808.977	111.96
809.156	124.24
809.336	175.44
809.515	136.53
809.694	183.63
809.873	146.77
810.052	159.06
810.231	183.63
810.411	60.76
810.59	138.58
810.769	89.43
810.948	122.2
811.127	103.76
811.306	97.62
811.485	73.04
811.664	140.63
811.843	109.91
812.022	101.72
812.201	136.53
812.38	167.25
812.559	81.24
812.737	138.58
812.916	138.58
813.095	140.63
813.274	81.24
813.453	89.43
813.632	140.63
813.811	105.81
813.989	83.28
814.168	138.58
814.347	87.38
814.526	93.52
814.704	140.63
814.883	134.48
815.062	116.05
815.24	152.91
815.419	97.62
815.598	150.87
815.776	99.67
815.955	120.15
816.133	83.28
816.312	79.19
816.49	68.95
816.669	34.13
816.847	56.66
817.026	81.24
817.204	62.8
817.383	105.81
817.561	118.1
817.74	27.99
817.918	138.58
818.097	89.43
818.275	109.91
818.453	68.95
818.632	114
818.81	148.82
818.988	62.8
819.167	36.18
819.345	56.66
819.523	97.62
819.701	120.15
819.879	193.87
820.058	71
820.236	118.1
820.414	109.91
820.592	40.28
820.77	50.52
820.948	54.61
821.127	52.56
821.305	81.24
821.483	48.47
821.661	122.2
821.839	52.56
822.017	140.63
822.195	122.2
822.373	95.57
822.551	75.09
822.729	103.76
822.907	25.94
823.085	152.91
823.262	103.76
823.44	83.28
823.618	101.72
823.796	40.28
823.974	68.95
824.152	93.52
824.329	99.67
824.507	93.52
824.685	56.66
824.863	79.19
825.04	48.47
825.218	107.86
825.396	79.19
825.574	107.86
825.751	71
825.929	99.67
826.107	101.72
826.284	50.52
826.462	105.81
826.639	87.38
826.817	95.57
826.994	95.57
827.172	32.08
827.349	91.48
827.527	23.89
827.704	85.33
827.882	60.76
828.059	54.61
828.237	93.52
828.414	89.43
828.591	60.76
828.769	146.77
828.946	36.18
829.124	23.89
829.301	81.24
829.478	73.04
829.655	93.52
829.833	73.04
830.01	81.24
830.187	93.52
830.364	56.66
830.542	79.19
830.719	56.66
830.896	114
831.073	81.24
831.25	87.38
831.427	15.7
831.604	97.62
831.782	30.04
831.959	50.52
832.136	52.56
832.313	91.48
832.49	38.23
832.667	19.8
832.844	60.76
833.021	32.08
833.198	62.8
833.374	107.86
833.551	-17.07
833.728	38.23
833.905	52.56
834.082	52.56
834.259	54.61
834.436	71
834.612	109.91
834.789	56.66
834.966	9.56
835.143	107.86
835.319	48.47
835.496	60.76
835.673	62.8
835.85	36.18
836.026	48.47
836.203	93.52
836.38	116.05
836.556	101.72
836.733	140.63
836.909	50.52
837.086	48.47
837.262	107.86
837.439	99.67
837.616	-6.83
837.792	107.86
837.968	105.81
838.145	27.99
838.321	36.18
838.498	-8.87
838.674	15.7
838.851	-17.07
839.027	132.44
839.203	62.8
839.38	40.28
839.556	75.09
839.732	50.52
839.909	52.56
840.085	103.76
840.261	1.37
840.437	-19.11
840.614	-2.73
840.79	75.09
840.966	46.42
841.142	42.32
841.318	38.23
841.494	46.42
841.671	40.28
841.847	32.08
842.023	-33.45
842.199	52.56
842.375	56.66
842.551	60.76
842.727	79.19
842.903	54.61
843.079	-45.74
843.255	48.47
843.431	-6.83
843.607	50.52
843.783	-4.78
843.959	50.52
844.134	15.7
844.31	1.37
844.486	21.85
844.662	56.66
844.838	38.23
845.013	46.42
845.189	68.95
845.365	38.23
845.541	7.51
845.716	83.28
845.892	27.99
846.068	1.37
846.244	-10.92
846.419	73.04
846.595	11.61
846.77	34.13
846.946	34.13
847.122	-15.02
847.297	21.85
847.473	32.08
847.648	60.76
847.824	60.76
847.999	-2.73
848.175	52.56
848.35	79.19
848.526	48.47
848.701	58.71
848.876	30.04
849.052	-0.68
849.227	21.85
849.403	64.85
849.578	36.18
849.753	27.99
849.929	-8.87
850.104	-19.11
850.279	34.13
850.454	79.19
850.63	17.75
850.805	44.37
850.98	42.32
851.155	48.47
851.33	23.89
851.505	71
851.681	36.18
851.856	21.85
852.031	17.75
852.206	-37.55
852.381	-17.07
852.556	-12.97
852.731	52.56
852.906	27.99
853.081	42.32
853.256	48.47
853.431	15.7
853.606	48.47
853.781	38.23
853.956	38.23
854.131	19.8
854.305	-17.07
854.48	99.67
854.655	66.9
854.83	-12.97
855.005	-41.64
855.18	32.08
855.354	-23.21
855.529	17.75
855.704	62.8
855.879	25.94
856.053	50.52
856.228	5.46
856.403	60.76
856.577	99.67
856.752	5.46
856.926	48.47
857.101	25.94
857.276	34.13
857.45	54.61
857.625	66.9
857.799	-8.87
857.974	21.85
858.148	-6.83
858.323	66.9
858.497	17.75
858.672	60.76
858.846	-10.92
859.02	60.76
859.195	19.8
859.369	64.85
859.543	-29.35
859.718	58.71
859.892	79.19
860.066	34.13
860.241	34.13
860.415	97.62
860.589	-4.78
860.763	34.13
860.938	40.28
861.112	25.94
861.286	93.52
861.46	44.37
861.634	-53.93
861.808	97.62
861.982	25.94
862.157	68.95
862.331	-43.69
862.505	-0.68
862.679	27.99
862.853	27.99
863.027	42.32
863.201	48.47
863.375	-51.88
863.549	54.61
863.722	-23.21
863.896	32.08
864.07	38.23
864.244	60.76
864.418	11.61
864.592	40.28
864.766	-17.07
864.939	48.47
865.113	36.18
865.287	23.89
865.461	42.32
865.634	79.19
865.808	19.8
865.982	34.13
866.156	13.65
866.329	23.89
866.503	124.24
866.676	-12.97
866.85	5.46
867.024	-15.02
867.197	3.41
867.371	19.8
867.544	30.04
867.718	25.94
867.891	60.76
868.065	1.37
868.238	-37.55
868.412	7.51
868.585	25.94
868.759	52.56
868.932	21.85
869.105	40.28
869.279	-37.55
869.452	-33.45
869.625	56.66
869.799	44.37
869.972	36.18
870.145	40.28
870.319	44.37
870.492	52.56
870.665	75.09
870.838	-15.02
871.011	42.32
871.185	5.46
871.358	-43.69
871.531	11.61
871.704	15.7
871.877	58.71
872.05	54.61
872.223	77.14
872.396	73.04
872.569	-4.78
872.742	9.56
872.915	-12.97
873.088	42.32
873.261	9.56
873.434	30.04
873.607	11.61
873.78	118.1
873.953	-58.03
874.126	73.04
874.299	13.65
874.471	-25.26
874.644	19.8
874.817	-0.68
874.99	40.28
875.163	-49.83
875.335	44.37
875.508	-58.03
875.681	-15.02
875.853	-15.02
876.026	-0.68
876.199	52.56
876.371	-25.26
876.544	-37.55
876.717	128.34
876.889	7.51
877.062	-58.03
877.234	-4.78
877.407	25.94
877.579	91.48
877.752	-0.68
877.924	32.08
878.097	23.89
878.269	62.8
878.442	-8.87
878.614	-33.45
878.786	11.61
878.959	13.65
879.131	66.9
879.303	23.89
879.476	17.75
879.648	42.32
879.82	-8.87
879.993	46.42
880.165	1.37
880.337	-8.87
880.509	50.52
880.681	52.56
880.854	46.42
881.026	-2.73
881.198	-15.02
881.37	3.41
881.542	27.99
881.714	73.04
881.886	-47.79
882.058	54.61
882.23	-49.83
882.402	13.65
882.574	50.52
882.746	50.52
882.918	62.8
883.09	-70.31
883.262	13.65
883.434	42.32
883.606	40.28
883.778	64.85
883.95	7.51
884.122	23.89
884.293	73.04
884.465	46.42
884.637	75.09
884.809	-96.94
884.98	-41.64
885.152	54.61
885.324	73.04
885.496	-41.64
885.667	17.75
885.839	23.89
886.011	97.62
886.182	50.52
886.354	44.37
886.525	50.52
886.697	-53.93
886.869	1.37
887.04	42.32
887.212	34.13
887.383	17.75
887.555	32.08
887.726	87.38
887.897	19.8
888.069	40.28
888.24	62.8
888.412	-37.55
888.583	23.89
888.754	-6.83
888.926	30.04
889.097	36.18
889.268	122.2
889.44	-12.97
889.611	-78.51
889.782	40.28
889.953	-64.17
890.125	105.81
890.296	-19.11
890.467	17.75
890.638	48.47
890.809	19.8
890.98	17.75
891.151	44.37
891.323	27.99
891.494	44.37
891.665	23.89
891.836	-21.16
892.007	17.75
892.178	7.51
892.349	-37.55
892.52	-29.35
892.691	54.61
892.862	-15.02
893.032	1.37
893.203	13.65
893.374	9.56
893.545	-8.87
893.716	-53.93
893.887	73.04
894.057	56.66
894.228	58.71
894.399	34.13
894.57	-47.79
894.74	-4.78
894.911	44.37
895.082	-29.35
895.253	3.41
895.423	19.8
895.594	-4.78
895.764	-4.78
895.935	46.42
896.106	68.95
896.276	42.32
896.447	-17.07
896.617	25.94
896.788	19.8
896.958	15.7
897.129	50.52
897.299	15.7
897.47	7.51
897.64	58.71
897.81	46.42
897.981	7.51
898.151	-0.68
898.322	48.47
898.492	-15.02
898.662	19.8
898.832	27.99
899.003	-6.83
899.173	42.32
899.343	-33.45
899.513	48.47
