Data from USB4F104151__101__13-00-17-117.txt Node

Date: Fri Mar 14 13:00:17 EDT 2025
User: louis
Spectrometer: USB4F10415
Trigger mode: 4
Integration Time (sec): 1.000000E-2
Scans to average: 1
Electric dark correction enabled: true
Nonlinearity correction enabled: false
Boxcar width: 0
XAxis mode: Wavelengths
Number of Pixels in Spectrum: 3648
>>>>>Begin Spectral Data<<<<<
178.204	8.02
178.424	8.02
178.644	8.02
178.864	-22.7
179.084	-30.89
179.304	-8.36
179.524	26.45
179.744	-59.56
179.964	-16.55
180.184	28.5
180.404	-2.22
180.624	-20.65
180.844	-2.22
181.064	-63.66
181.283	51.03
181.503	-14.51
181.723	81.75
181.943	-49.32
182.163	24.4
182.383	-12.46
182.602	-8.36
182.822	40.79
183.042	-24.75
183.262	26.45
183.482	-20.65
183.701	71.51
183.921	51.03
184.141	-41.13
184.361	8.02
184.58	1.88
184.8	14.17
185.02	16.21
185.239	3.93
185.459	-32.94
185.679	114.52
185.898	40.79
186.118	48.98
186.338	46.93
186.557	106.32
186.777	8.02
186.997	34.64
187.216	-8.36
187.436	8.02
187.655	-32.94
187.875	48.98
188.095	-0.17
188.314	12.12
188.534	-22.7
188.753	28.5
188.973	16.21
189.192	12.12
189.412	38.74
189.631	12.12
189.851	116.56
190.07	-30.89
190.29	-4.27
190.509	26.45
190.729	-37.03
190.948	57.17
191.168	44.88
191.387	24.4
191.607	40.79
191.826	55.12
192.045	55.12
192.265	-0.17
192.484	36.69
192.704	1.88
192.923	-37.03
193.142	14.17
193.362	51.03
193.581	26.45
193.8	32.6
194.02	40.79
194.239	94.04
194.458	59.22
194.678	-41.13
194.897	126.8
195.116	22.36
195.335	28.5
195.555	-41.13
195.774	-6.31
195.993	1.88
196.212	-8.36
196.432	-0.17
196.651	-26.79
196.87	5.97
197.089	51.03
197.308	24.4
197.528	14.17
197.747	20.31
197.966	5.97
198.185	112.47
198.404	5.97
198.623	-57.51
198.842	-10.41
199.062	55.12
199.281	24.4
199.5	-14.51
199.719	-18.6
199.938	73.56
200.157	69.46
200.376	73.56
200.595	48.98
200.814	-8.36
201.033	-26.79
201.252	59.22
201.471	16.21
201.69	20.31
201.909	16.21
202.128	-6.31
202.347	32.6
202.566	1.88
202.785	-8.36
203.004	-8.36
203.223	69.46
203.442	-47.27
203.661	-8.36
203.879	16.21
204.098	42.84
204.317	18.26
204.536	46.93
204.755	-12.46
204.974	14.17
205.193	16.21
205.411	44.88
205.63	-45.23
205.849	-32.94
206.068	40.79
206.287	48.98
206.505	-8.36
206.724	98.13
206.943	24.4
207.162	-65.71
207.381	12.12
207.599	53.08
207.818	38.74
208.037	46.93
208.255	-8.36
208.474	18.26
208.693	10.07
208.911	18.26
209.13	71.51
209.349	-4.27
209.567	-6.31
209.786	22.36
210.005	1.88
210.223	48.98
210.442	44.88
210.661	40.79
210.879	-37.03
211.098	53.08
211.316	32.6
211.535	-14.51
211.753	26.45
211.972	24.4
212.191	55.12
212.409	81.75
212.628	71.51
212.846	-4.27
213.065	30.55
213.283	14.17
213.502	24.4
213.72	44.88
213.938	12.12
214.157	26.45
214.375	3.93
214.594	16.21
214.812	73.56
215.031	-51.37
215.249	85.84
215.467	83.8
215.686	-18.6
215.904	3.93
216.122	-22.7
216.341	79.7
216.559	-22.7
216.778	65.36
216.996	46.93
217.214	32.6
217.432	-12.46
217.651	10.07
217.869	-16.55
218.087	-39.08
218.306	-22.7
218.524	36.69
218.742	1.88
218.96	42.84
219.179	57.17
219.397	34.64
219.615	-0.17
219.833	34.64
220.051	-6.31
220.27	83.8
220.488	71.51
220.706	1.88
220.924	5.97
221.142	-24.75
221.36	22.36
221.578	61.27
221.796	44.88
222.015	94.04
222.233	-59.56
222.451	22.36
222.669	59.22
222.887	24.4
223.105	14.17
223.323	26.45
223.541	32.6
223.759	-0.17
223.977	18.26
224.195	53.08
224.413	69.46
224.631	63.32
224.849	73.56
225.067	12.12
225.285	26.45
225.503	48.98
225.721	-16.55
225.939	-2.22
226.157	-34.99
226.375	12.12
226.592	-26.79
226.81	-22.7
227.028	12.12
227.246	34.64
227.464	20.31
227.682	-47.27
227.9	14.17
228.117	8.02
228.335	-63.66
228.553	1.88
228.771	40.79
228.989	65.36
229.206	20.31
229.424	34.64
229.642	51.03
229.86	28.5
230.077	-12.46
230.295	-14.51
230.513	12.12
230.731	69.46
230.948	36.69
231.166	130.9
231.384	1.88
231.601	40.79
231.819	59.22
232.037	36.69
232.254	16.21
232.472	24.4
232.689	65.36
232.907	-18.6
233.125	3.93
233.342	126.8
233.56	14.17
233.777	-18.6
233.995	24.4
234.213	44.88
234.43	-14.51
234.648	36.69
234.865	-67.75
235.083	65.36
235.3	20.31
235.518	10.07
235.735	14.17
235.953	-0.17
236.17	57.17
236.388	24.4
236.605	96.08
236.822	-18.6
237.04	12.12
237.257	10.07
237.475	-10.41
237.692	12.12
237.909	18.26
238.127	-14.51
238.344	81.75
238.562	36.69
238.779	55.12
238.996	-0.17
239.214	-37.03
239.431	14.17
239.648	32.6
239.865	44.88
240.083	-37.03
240.3	10.07
240.517	-16.55
240.735	83.8
240.952	-0.17
241.169	26.45
241.386	30.55
241.603	30.55
241.821	20.31
242.038	18.26
242.255	65.36
242.472	71.51
242.689	-20.65
242.907	8.02
243.124	30.55
243.341	18.26
243.558	-2.22
243.775	26.45
243.992	-14.51
244.209	57.17
244.426	-2.22
244.643	-16.55
244.86	16.21
245.078	26.45
245.295	-2.22
245.512	-8.36
245.729	153.43
245.946	8.02
246.163	104.28
246.38	69.46
246.597	3.93
246.814	53.08
247.031	-26.79
247.248	98.13
247.464	42.84
247.681	1.88
247.898	-53.42
248.115	48.98
248.332	-0.17
248.549	87.89
248.766	44.88
248.983	40.79
249.2	8.02
249.417	42.84
249.633	-55.47
249.85	3.93
250.067	14.17
250.284	3.93
250.501	30.55
250.717	5.97
250.934	57.17
251.151	59.22
251.368	-34.99
251.585	83.8
251.801	18.26
252.018	18.26
252.235	-24.75
252.451	20.31
252.668	51.03
252.885	-4.27
253.102	-41.13
253.318	-34.99
253.535	-51.37
253.752	-6.31
253.968	40.79
254.185	34.64
254.401	16.21
254.618	5.97
254.835	69.46
255.051	69.46
255.268	32.6
255.484	87.89
255.701	-10.41
255.917	73.56
256.134	3.93
256.351	16.21
256.567	28.5
256.784	-32.94
257	-28.84
257.217	-26.79
257.433	16.21
257.65	44.88
257.866	22.36
258.082	-10.41
258.299	-14.51
258.515	63.32
258.732	-0.17
258.948	32.6
259.165	-20.65
259.381	-6.31
259.597	20.31
259.814	34.64
260.03	-69.8
260.246	-12.46
260.463	73.56
260.679	-24.75
260.895	51.03
261.112	59.22
261.328	51.03
261.544	67.41
261.761	32.6
261.977	16.21
262.193	14.17
262.409	-10.41
262.626	-26.79
262.842	28.5
263.058	79.7
263.274	63.32
263.49	5.97
263.707	-30.89
263.923	-32.94
264.139	1.88
264.355	18.26
264.571	24.4
264.787	130.9
265.004	-37.03
265.22	8.02
265.436	-69.8
265.652	-6.31
265.868	40.79
266.084	-71.85
266.3	36.69
266.516	5.97
266.732	22.36
266.948	32.6
267.164	94.04
267.38	46.93
267.596	12.12
267.812	8.02
268.028	40.79
268.244	53.08
268.46	-2.22
268.676	-73.9
268.892	73.56
269.108	44.88
269.324	1.88
269.54	22.36
269.756	59.22
269.972	-51.37
270.188	-28.84
270.403	96.08
270.619	1.88
270.835	30.55
271.051	-14.51
271.267	-41.13
271.483	-24.75
271.698	-51.37
271.914	-4.27
272.13	57.17
272.346	-57.51
272.562	-14.51
272.777	32.6
272.993	10.07
273.209	-26.79
273.425	102.23
273.64	16.21
273.856	12.12
274.072	61.27
274.287	10.07
274.503	40.79
274.719	-16.55
274.934	8.02
275.15	-14.51
275.366	-8.36
275.581	38.74
275.797	-4.27
276.012	18.26
276.228	28.5
276.444	-39.08
276.659	3.93
276.875	16.21
277.09	38.74
277.306	-24.75
277.521	-24.75
277.737	-0.17
277.952	14.17
278.168	40.79
278.383	28.5
278.599	61.27
278.814	-16.55
279.03	-47.27
279.245	-20.65
279.461	-10.41
279.676	69.46
279.892	-51.37
280.107	-10.41
280.322	18.26
280.538	-12.46
280.753	22.36
280.969	32.6
281.184	3.93
281.399	-32.94
281.615	59.22
281.83	8.02
282.045	61.27
282.26	-12.46
282.476	1.88
282.691	32.6
282.906	55.12
283.122	51.03
283.337	18.26
283.552	69.46
283.767	91.99
283.983	42.84
284.198	-2.22
284.413	40.79
284.628	-34.99
284.843	-8.36
285.058	-51.37
285.274	3.93
285.489	8.02
285.704	1.88
285.919	89.94
286.134	-30.89
286.349	-0.17
286.564	53.08
286.779	8.02
286.995	1.88
287.21	48.98
287.425	10.07
287.64	-14.51
287.855	73.56
288.07	22.36
288.285	61.27
288.5	32.6
288.715	69.46
288.93	55.12
289.145	34.64
289.36	34.64
289.575	34.64
289.79	55.12
290.004	79.7
290.219	-14.51
290.434	44.88
290.649	40.79
290.864	-26.79
291.079	3.93
291.294	48.98
291.509	83.8
291.724	40.79
291.938	-24.75
292.153	55.12
292.368	-32.94
292.583	59.22
292.798	16.21
293.012	-0.17
293.227	-28.84
293.442	8.02
293.657	65.36
293.871	44.88
294.086	18.26
294.301	57.17
294.516	65.36
294.73	3.93
294.945	34.64
295.16	-49.32
295.374	-47.27
295.589	3.93
295.804	32.6
296.018	69.46
296.233	51.03
296.447	-10.41
296.662	-0.17
296.877	51.03
297.091	-0.17
297.306	-28.84
297.52	18.26
297.735	51.03
297.949	42.84
298.164	18.26
298.378	-6.31
298.593	-0.17
298.807	-12.46
299.022	57.17
299.236	-34.99
299.451	18.26
299.665	22.36
299.88	16.21
300.094	26.45
300.309	44.88
300.523	44.88
300.737	53.08
300.952	59.22
301.166	8.02
301.381	75.6
301.595	-20.65
301.809	83.8
302.024	59.22
302.238	42.84
302.452	46.93
302.667	65.36
302.881	51.03
303.095	24.4
303.309	-16.55
303.524	-24.75
303.738	10.07
303.952	40.79
304.166	10.07
304.381	77.65
304.595	77.65
304.809	-73.9
305.023	40.79
305.237	-20.65
305.452	38.74
305.666	5.97
305.88	-4.27
306.094	-16.55
306.308	36.69
306.522	40.79
306.736	14.17
306.95	20.31
307.164	-8.36
307.379	-20.65
307.593	42.84
307.807	59.22
308.021	63.32
308.235	34.64
308.449	24.4
308.663	46.93
308.877	67.41
309.091	51.03
309.305	61.27
309.519	40.79
309.733	32.6
309.947	-49.32
310.161	85.84
310.374	-14.51
310.588	57.17
310.802	5.97
311.016	61.27
311.23	40.79
311.444	53.08
311.658	46.93
311.872	36.69
312.085	-34.99
312.299	5.97
312.513	36.69
312.727	-12.46
312.941	26.45
313.154	46.93
313.368	18.26
313.582	8.02
313.796	51.03
314.009	32.6
314.223	73.56
314.437	16.21
314.651	-2.22
314.864	8.02
315.078	10.07
315.292	-20.65
315.505	16.21
315.719	-0.17
315.933	26.45
316.146	-0.17
316.36	-6.31
316.573	42.84
316.787	48.98
317.001	-8.36
317.214	108.37
317.428	8.02
317.641	59.22
317.855	65.36
318.068	-28.84
318.282	94.04
318.495	24.4
318.709	-39.08
318.922	-14.51
319.136	-14.51
319.349	57.17
319.563	16.21
319.776	8.02
319.99	44.88
320.203	36.69
320.417	40.79
320.63	20.31
320.843	48.98
321.057	-28.84
321.27	89.94
321.483	69.46
321.697	100.18
321.91	40.79
322.124	10.07
322.337	-8.36
322.55	26.45
322.763	8.02
322.977	-20.65
323.19	12.12
323.403	20.31
323.617	79.7
323.83	75.6
324.043	-0.17
324.256	-16.55
324.469	61.27
324.683	53.08
324.896	-6.31
325.109	53.08
325.322	5.97
325.535	-55.47
325.748	81.75
325.962	12.12
326.175	38.74
326.388	57.17
326.601	28.5
326.814	38.74
327.027	36.69
327.24	32.6
327.453	28.5
327.666	30.55
327.879	48.98
328.092	-20.65
328.305	18.26
328.518	51.03
328.731	32.6
328.944	57.17
329.157	100.18
329.37	51.03
329.583	59.22
329.796	87.89
330.009	-32.94
330.222	34.64
330.435	106.32
330.648	28.5
330.861	71.51
331.073	-67.75
331.286	85.84
331.499	28.5
331.712	3.93
331.925	24.4
332.138	-82.09
332.35	65.36
332.563	-51.37
332.776	34.64
332.989	48.98
333.202	24.4
333.414	10.07
333.627	12.12
333.84	57.17
334.053	61.27
334.265	30.55
334.478	-37.03
334.691	5.97
334.903	36.69
335.116	-14.51
335.329	53.08
335.541	-4.27
335.754	126.8
335.966	-53.42
336.179	-4.27
336.392	-12.46
336.604	46.93
336.817	57.17
337.029	-10.41
337.242	24.4
337.454	18.26
337.667	26.45
337.88	32.6
338.092	34.64
338.305	73.56
338.517	-8.36
338.729	32.6
338.942	-37.03
339.154	-32.94
339.367	3.93
339.579	98.13
339.792	44.88
340.004	55.12
340.217	-24.75
340.429	16.21
340.641	-16.55
340.854	36.69
341.066	14.17
341.278	34.64
341.491	-8.36
341.703	24.4
341.915	32.6
342.128	48.98
342.34	16.21
342.552	8.02
342.764	10.07
342.977	1.88
343.189	-10.41
343.401	20.31
343.613	-16.55
343.826	-14.51
344.038	8.02
344.25	-18.6
344.462	-2.22
344.674	73.56
344.886	14.17
345.099	65.36
345.311	51.03
345.523	100.18
345.735	-10.41
345.947	108.37
346.159	57.17
346.371	36.69
346.583	-22.7
346.795	44.88
347.007	3.93
347.219	-10.41
347.431	38.74
347.643	118.61
347.855	65.36
348.067	57.17
348.279	18.26
348.491	42.84
348.703	5.97
348.915	16.21
349.127	18.26
349.339	32.6
349.551	10.07
349.763	100.18
349.975	36.69
350.187	51.03
350.399	55.12
350.61	114.52
350.822	16.21
351.034	46.93
351.246	-20.65
351.458	3.93
351.669	59.22
351.881	-16.55
352.093	32.6
352.305	34.64
352.517	-0.17
352.728	46.93
352.94	22.36
353.152	85.84
353.363	24.4
353.575	1.88
353.787	106.32
353.999	61.27
354.21	24.4
354.422	40.79
354.633	63.32
354.845	67.41
355.057	18.26
355.268	-2.22
355.48	87.89
355.692	3.93
355.903	-24.75
356.115	32.6
356.326	-4.27
356.538	57.17
356.749	-4.27
356.961	3.93
357.172	-0.17
357.384	71.51
357.595	40.79
357.807	26.45
358.018	-14.51
358.23	91.99
358.441	32.6
358.653	139.09
358.864	10.07
359.075	55.12
359.287	-0.17
359.498	12.12
359.709	1.88
359.921	57.17
360.132	-14.51
360.344	57.17
360.555	89.94
360.766	-6.31
360.977	61.27
361.189	22.36
361.4	44.88
361.611	63.32
361.823	3.93
362.034	-20.65
362.245	-10.41
362.456	40.79
362.667	-10.41
362.879	24.4
363.09	1.88
363.301	71.51
363.512	51.03
363.723	42.84
363.935	73.56
364.146	8.02
364.357	40.79
364.568	32.6
364.779	-14.51
364.99	-18.6
365.201	114.52
365.412	48.98
365.623	-69.8
365.834	16.21
366.045	28.5
366.256	48.98
366.467	-41.13
366.678	-30.89
366.889	51.03
367.1	48.98
367.311	42.84
367.522	18.26
367.733	-4.27
367.944	14.17
368.155	51.03
368.366	57.17
368.577	51.03
368.788	1.88
368.999	30.55
369.209	26.45
369.42	116.56
369.631	59.22
369.842	32.6
370.053	42.84
370.264	73.56
370.474	55.12
370.685	36.69
370.896	-10.41
371.107	85.84
371.317	30.55
371.528	34.64
371.739	46.93
371.95	30.55
372.16	34.64
372.371	26.45
372.582	51.03
372.792	18.26
373.003	59.22
373.214	-22.7
373.424	3.93
373.635	34.64
373.846	77.65
374.056	77.65
374.267	26.45
374.477	51.03
374.688	-0.17
374.898	22.36
375.109	-82.09
375.319	38.74
375.53	16.21
375.74	38.74
375.951	69.46
376.161	-2.22
376.372	65.36
376.582	96.08
376.793	34.64
377.003	12.12
377.214	48.98
377.424	36.69
377.635	69.46
377.845	-45.23
378.055	22.36
378.266	-30.89
378.476	-6.31
378.686	-6.31
378.897	149.33
379.107	1.88
379.317	18.26
379.528	40.79
379.738	73.56
379.948	1.88
380.158	85.84
380.369	42.84
380.579	77.65
380.789	14.17
380.999	3.93
381.21	-73.9
381.42	83.8
381.63	42.84
381.84	40.79
382.05	40.79
382.261	18.26
382.471	42.84
382.681	5.97
382.891	32.6
383.101	44.88
383.311	-6.31
383.521	1.88
383.731	48.98
383.941	5.97
384.151	42.84
384.361	1.88
384.571	-0.17
384.781	51.03
384.991	-18.6
385.201	48.98
385.411	77.65
385.621	30.55
385.831	8.02
386.041	-6.31
386.251	57.17
386.461	12.12
386.671	40.79
386.881	77.65
387.091	42.84
387.301	59.22
387.511	16.21
387.72	85.84
387.93	77.65
388.14	22.36
388.35	16.21
388.56	-4.27
388.769	34.64
388.979	-26.79
389.189	69.46
389.399	69.46
389.609	42.84
389.818	16.21
390.028	16.21
390.238	120.66
390.447	24.4
390.657	65.36
390.867	-20.65
391.076	77.65
391.286	22.36
391.496	1.88
391.705	91.99
391.915	77.65
392.125	63.32
392.334	1.88
392.544	3.93
392.753	30.55
392.963	57.17
393.172	46.93
393.382	38.74
393.591	10.07
393.801	79.7
394.01	20.31
394.22	89.94
394.429	-14.51
394.639	22.36
394.848	3.93
395.058	46.93
395.267	40.79
395.477	28.5
395.686	48.98
395.895	24.4
396.105	5.97
396.314	-6.31
396.524	81.75
396.733	55.12
396.942	67.41
397.152	135
397.361	10.07
397.57	8.02
397.78	106.32
397.989	-12.46
398.198	36.69
398.407	79.7
398.617	-0.17
398.826	34.64
399.035	44.88
399.244	51.03
399.453	14.17
399.663	69.46
399.872	42.84
400.081	18.26
400.29	67.41
400.499	-69.8
400.708	24.4
400.917	-0.17
401.127	32.6
401.336	65.36
401.545	91.99
401.754	40.79
401.963	26.45
402.172	40.79
402.381	34.64
402.59	14.17
402.799	28.5
403.008	34.64
403.217	59.22
403.426	79.7
403.635	102.23
403.844	32.6
404.053	130.9
404.262	59.22
404.471	71.51
404.68	100.18
404.888	116.56
405.097	53.08
405.306	51.03
405.515	110.42
405.724	61.27
405.933	16.21
406.142	114.52
406.35	126.8
406.559	108.37
406.768	18.26
406.977	69.46
407.185	81.75
407.394	163.67
407.603	16.21
407.812	65.36
408.02	77.65
408.229	124.76
408.438	130.9
408.646	165.71
408.855	114.52
409.064	81.75
409.272	91.99
409.481	161.62
409.69	94.04
409.898	141.14
410.107	184.15
410.315	147.28
410.524	188.24
410.733	81.75
410.941	159.57
411.15	122.71
411.358	186.19
411.567	151.38
411.775	221.01
411.984	180.05
412.192	225.11
412.401	237.39
412.609	218.96
412.818	286.54
413.026	124.76
413.234	259.92
413.443	186.19
413.651	229.2
413.86	298.83
414.068	290.64
414.276	251.73
414.485	175.95
414.693	225.11
414.901	300.88
415.11	307.02
415.318	296.78
415.526	345.94
415.734	372.56
415.943	333.65
416.151	339.79
416.359	329.55
416.567	458.57
416.776	411.47
416.984	386.9
417.192	483.15
417.4	411.47
417.608	442.19
417.817	485.2
418.025	524.11
418.233	509.77
418.441	517.97
418.649	550.73
418.857	536.4
419.065	542.54
419.273	546.64
419.481	614.22
419.689	612.17
419.897	636.75
420.105	632.65
420.313	603.98
420.521	755.53
420.729	704.33
420.937	769.87
421.145	749.39
421.353	892.74
421.561	864.07
421.769	874.31
421.977	851.78
422.185	823.11
422.393	878.41
422.601	982.85
422.809	970.57
423.017	1025.86
423.224	984.9
423.432	1038.15
423.64	1083.2
423.848	1179.46
424.056	1128.26
424.263	1171.27
424.471	1263.43
424.679	1271.62
424.887	1242.95
425.094	1249.09
425.302	1285.95
425.51	1328.96
425.718	1478.46
425.925	1335.1
426.133	1527.61
426.341	1658.68
426.548	1597.24
426.756	1599.29
426.964	1756.99
427.171	1761.08
427.379	1918.78
427.586	1853.24
427.794	1881.91
428.001	1953.59
428.209	2135.86
428.417	2031.41
428.624	2113.33
428.832	2156.34
429.039	2219.83
429.247	2205.49
429.454	2477.87
429.662	2522.93
429.869	2342.71
430.076	2527.02
430.284	2469.68
430.491	2631.47
430.699	2670.38
430.906	2709.29
431.114	2682.67
431.321	2813.74
431.528	2998.06
431.736	3084.07
431.943	3223.33
432.15	3254.05
432.358	3172.13
432.565	3409.7
432.772	3309.35
432.979	3565.34
433.187	3546.91
433.394	3669.79
433.601	3778.33
433.808	3833.63
434.016	3991.32
434.223	4032.28
434.43	4237.08
434.637	4063
434.844	4409.11
435.052	4525.84
435.259	4497.17
435.466	4390.67
435.673	4437.78
435.88	4849.42
436.087	4861.71
436.294	5029.64
436.501	4865.8
436.708	4818.7
436.915	5078.79
437.122	5455.62
437.329	5318.4
437.537	5418.75
437.743	5611.26
437.95	5461.76
438.157	5805.82
438.364	6016.76
438.571	6084.34
438.778	6022.91
438.985	6631.15
439.192	6369.01
439.399	6653.68
439.606	6487.79
439.813	6772.46
440.02	7237.35
440.227	7065.32
440.433	6954.73
440.64	7200.49
440.847	7323.37
441.054	7411.43
441.261	7976.67
441.467	7880.41
441.674	7962.33
441.881	8290.01
442.088	8402.65
442.294	8238.81
442.501	8283.86
442.708	8402.65
442.914	8761.04
443.121	9365.19
443.328	9006.8
443.534	9903.81
443.741	9400.01
443.948	9336.52
444.154	10006.2
444.361	9895.61
444.568	10114.75
444.774	10182.33
444.981	10155.71
445.187	10366.65
445.394	10886.83
445.6	10835.63
445.807	11812.51
446.013	11493.03
446.22	11458.21
446.426	11988.64
446.633	12187.29
446.839	12445.34
447.046	11976.35
447.252	12648.08
447.459	12736.15
447.665	12850.83
447.871	13235.85
448.078	14003.84
448.284	13061.77
448.491	13561.48
448.697	14026.37
448.903	14202.49
449.11	14519.93
449.316	14378.62
449.522	14331.51
449.728	14839.41
449.935	15101.55
450.141	14872.18
450.347	15357.55
450.553	14982.77
450.76	15021.68
450.966	15556.2
451.172	15482.47
451.378	15900.26
451.584	15605.35
451.791	15933.03
451.997	16023.14
452.203	16291.42
452.409	16182.88
452.615	16045.66
452.821	15539.82
453.027	15234.67
453.233	16336.48
453.44	15717.99
453.646	15631.97
453.852	15998.56
454.058	16060
454.264	15711.85
454.47	15732.33
454.676	15662.69
454.882	16064.1
455.088	14749.3
455.294	14896.75
455.5	14868.08
455.705	15191.66
455.911	14653.05
456.117	14179.96
456.323	14304.89
456.529	13547.14
456.735	14077.57
456.941	13870.72
457.147	13512.33
457.352	13196.94
457.558	12922.51
457.764	13145.74
457.97	12740.24
458.176	12535.45
458.381	12850.83
458.587	11908.77
458.793	11730.59
458.999	11257.51
459.204	12271.26
459.41	11857.57
459.616	11030.19
459.821	10927.79
460.027	10944.17
460.233	10753.71
460.438	10303.16
460.644	10401.46
460.85	10055.36
461.055	9522.88
461.261	9715.39
461.466	8963.79
461.672	8496.85
461.878	9109.19
462.083	8867.53
462.289	8443.6
462.494	8386.26
462.7	7991
462.905	7821.02
463.111	8195.8
463.316	8101.59
463.522	8060.63
463.727	7909.08
463.932	7925.47
464.138	7866.08
464.343	7907.04
464.549	7515.87
464.754	7945.95
464.959	8068.83
465.165	7864.03
465.37	7302.89
465.575	7341.8
465.781	7522.02
465.986	7409.38
466.191	7364.32
466.397	7163.62
466.602	6850.28
466.807	7186.15
467.012	7167.72
467.218	7010.03
467.423	7085.8
467.628	6964.97
467.833	7347.94
468.038	6973.16
468.244	7012.07
468.449	7126.76
468.654	6964.97
468.859	6895.34
469.064	6784.75
469.269	6608.62
469.474	6493.94
469.679	6668.02
469.885	6307.57
470.09	6551.28
470.295	6536.95
470.5	6491.89
470.705	6571.76
470.91	6291.19
471.115	6190.84
471.32	6319.86
471.525	6317.81
471.73	6096.63
471.935	6051.58
472.139	5910.27
472.344	6170.36
472.549	6088.44
472.754	5979.9
472.959	5697.28
473.164	5543.68
473.369	5779.2
473.574	6010.62
473.778	5705.47
473.983	5584.64
474.188	5672.7
474.393	5439.23
474.598	5512.96
474.802	5408.51
475.007	5336.84
475.212	5404.42
475.417	5144.33
475.621	5160.71
475.826	5242.63
476.031	5062.41
476.235	4941.58
476.44	5097.22
476.645	5017.35
476.849	5023.5
477.054	4845.32
477.259	4900.62
477.463	4857.61
477.668	4650.77
477.872	4620.05
478.077	4695.82
478.282	4523.79
478.486	4626.19
478.691	4521.74
478.895	4525.84
479.1	4437.78
479.304	4482.83
479.509	4337.43
479.713	4421.39
479.918	4331.28
480.122	4304.66
480.326	4337.43
480.531	4405.01
480.735	4288.28
480.94	4181.78
481.144	4292.37
481.348	4157.21
481.553	4275.99
481.757	4095.77
481.961	4257.56
482.166	4319
482.37	4218.64
482.574	4022.04
482.778	4245.27
482.983	4271.89
483.187	4247.32
483.391	4247.32
483.595	4106.01
483.8	4175.64
484.004	4308.76
484.208	4214.55
484.412	4157.21
484.616	4112.15
484.821	4235.03
485.025	4108.05
485.229	4257.56
485.433	4140.82
485.637	4327.19
485.841	4009.75
486.045	4118.29
486.249	4359.95
486.453	4235.03
486.657	4194.07
486.861	4192.02
487.065	4146.97
487.269	4124.44
487.473	4140.82
487.677	4206.36
487.881	4202.26
488.085	4146.97
488.289	4288.28
488.493	4175.64
488.697	4296.47
488.901	4362
489.105	4230.93
489.309	4083.48
489.512	4308.76
489.716	4196.12
489.92	4343.57
490.124	4308.76
490.328	4437.78
490.531	4366.1
490.735	4366.1
490.939	4343.57
491.143	4366.1
491.346	4396.82
491.55	4523.79
491.754	4339.48
491.958	4398.87
492.161	4472.59
492.365	4413.2
492.569	4488.98
492.772	4448.02
492.976	4458.26
493.18	4476.69
493.383	4691.73
493.587	4599.57
493.79	4755.21
493.994	4484.88
494.197	4562.7
494.401	4704.01
494.605	4775.69
494.808	4816.65
495.012	4830.99
495.215	4828.94
495.419	5082.89
495.622	4837.13
495.825	4816.65
496.029	4966.15
496.232	4933.39
496.436	5134.09
496.639	5254.92
496.843	5175.05
497.046	5291.78
497.249	5320.45
497.453	5259.01
497.656	5394.18
497.859	5406.47
498.063	5482.24
498.266	5746.43
498.469	5687.04
498.673	5740.29
498.876	5830.4
499.079	6004.47
499.282	5791.48
499.485	5943.03
499.689	6002.43
499.892	6184.69
500.095	6121.21
500.298	6450.93
500.501	6135.54
500.705	6489.84
500.908	6524.66
501.111	6520.56
501.314	6756.08
501.517	6475.51
501.72	6708.97
501.923	6840.04
502.126	6846.19
502.329	7081.71
502.532	7134.95
502.735	7005.93
502.938	7321.32
503.141	7343.85
503.344	7390.95
503.547	7319.27
503.75	7562.98
503.953	7894.75
504.156	7909.08
504.359	7952.09
504.562	7962.33
504.765	8111.83
504.968	8183.51
505.17	8310.49
505.373	8208.09
505.576	8523.48
505.779	8740.56
505.982	8822.48
506.185	8875.73
506.387	8810.19
506.59	8990.41
506.793	9113.29
506.996	9217.74
507.198	9408.2
507.401	9350.85
507.604	9649.86
507.807	9946.81
508.009	9879.23
508.212	9985.72
508.415	10120.89
508.617	10176.19
508.82	10352.31
509.022	10157.75
509.225	10766
509.428	10610.36
509.63	10809.01
509.833	10927.79
510.035	11202.22
510.238	11048.62
510.44	11005.61
510.643	11343.53
510.845	11445.93
511.048	11493.03
511.25	11630.24
511.453	11822.75
511.655	12334.75
511.858	12336.79
512.06	12330.65
512.262	12519.06
512.465	12355.22
512.667	12629.65
512.87	12963.47
513.072	12639.89
513.274	13190.8
513.477	13426.31
513.679	13399.69
513.881	13506.18
514.084	13741.7
514.286	13868.67
514.488	13901.44
514.69	14481.02
514.893	14139.01
515.095	14182.01
515.297	14691.96
515.499	14544.5
515.701	15124.08
515.904	15183.47
516.106	15191.66
516.308	15558.25
516.51	15664.74
516.712	15496.81
516.914	15777.38
517.116	15875.68
517.318	16256.61
517.52	16375.39
517.722	16285.28
517.925	16336.48
518.127	16850.52
518.329	16936.53
518.531	16846.42
518.733	17354.32
518.935	17559.11
519.136	17462.86
519.338	17833.54
519.54	17796.68
519.742	18163.26
519.944	18046.53
520.146	18576.95
520.348	18650.68
520.55	18880.05
520.752	18626.11
520.954	18861.62
521.155	18978.36
521.357	19295.79
521.559	19879.46
521.761	19631.66
521.963	19770.92
522.164	19910.18
522.366	20078.11
522.568	20012.58
522.77	20164.13
522.971	20850.2
523.173	20614.68
523.375	20604.44
523.576	20979.22
523.778	21042.71
523.98	21356.05
524.181	21497.36
524.383	21397.01
524.584	21888.52
524.786	21743.11
524.988	21964.29
525.189	21976.58
525.391	22447.61
525.592	22212.1
525.794	22197.76
525.995	22515.2
526.197	22648.32
526.398	22676.99
526.6	22531.58
526.801	22797.82
527.003	23217.65
527.204	23131.64
527.406	23655.92
527.607	23184.88
527.808	23678.44
528.01	23094.77
528.211	23322.1
528.412	23963.11
528.614	23799.27
528.815	23682.54
529.016	24143.33
529.218	23850.47
529.419	23981.54
529.62	23786.99
529.822	24059.37
530.023	24010.21
530.224	24155.62
530.425	24198.63
530.626	24143.33
530.828	24387.04
531.029	24454.62
531.23	24448.48
531.431	24610.27
531.632	24835.55
531.833	24352.23
532.035	24577.5
532.236	24464.86
532.437	24735.2
532.638	24618.46
532.839	24985.05
533.04	24485.34
533.241	24544.73
533.442	24954.33
533.643	25015.77
533.844	24561.12
534.045	25124.31
534.246	24679.9
534.447	25107.93
534.648	24813.02
534.849	25017.82
535.05	24937.94
535.251	25001.43
535.451	24733.15
535.652	25161.17
535.853	24921.56
536.054	24864.22
536.255	24933.85
536.456	24853.98
536.657	25226.71
536.857	24909.27
537.058	24856.03
537.259	25054.68
537.46	24956.38
537.66	25144.79
537.861	25189.84
538.062	25058.77
538.263	25341.39
538.463	24980.95
538.664	24917.47
538.865	25175.51
539.065	25251.28
539.266	25044.44
539.466	25454.03
539.667	24589.79
539.868	25529.81
540.068	25179.61
540.269	25069.01
540.469	24946.14
540.67	24882.65
540.87	25038.3
541.071	25189.84
541.271	24952.28
541.472	25077.21
541.672	24925.66
541.873	25069.01
542.073	24608.22
542.274	25050.58
542.474	25071.06
542.675	24923.61
542.875	25148.89
543.075	24931.8
543.276	24837.59
543.476	25380.31
543.676	24919.51
543.877	25069.01
544.077	24958.42
544.277	24921.56
544.478	24997.34
544.678	25159.13
544.878	24796.63
545.078	25085.4
545.279	24942.04
545.479	25003.48
545.679	24985.05
545.879	24958.42
546.079	24829.4
546.28	24724.96
546.48	24817.11
546.68	24722.91
546.88	24878.55
547.08	24901.08
547.28	24821.21
547.48	24790.49
547.68	24882.65
547.88	24782.3
548.081	24833.5
548.281	24847.83
548.481	24843.74
548.681	25267.67
548.881	24757.72
549.081	24710.62
549.28	24544.73
549.48	25081.3
549.68	24700.38
549.88	25050.58
550.08	24518.11
550.28	24651.23
550.48	24845.79
550.68	24856.03
550.88	24681.95
551.08	24458.72
551.279	24571.36
551.479	24737.24
551.679	24749.53
551.879	24468.96
552.079	24903.13
552.278	24612.32
552.478	24743.39
552.678	24813.02
552.878	24745.44
553.077	24544.73
553.277	24346.08
553.477	24575.45
553.676	24337.89
553.876	24552.93
554.076	24804.83
554.275	24507.87
554.475	24432.1
554.674	24520.16
554.874	24911.32
555.074	24522.21
555.273	24315.36
555.473	24548.83
555.672	24413.66
555.872	24368.61
556.071	24131.05
556.271	24544.73
556.47	24159.72
556.67	24227.3
556.869	24296.93
557.068	23889.38
557.268	24079.85
557.467	24145.38
557.667	24092.13
557.866	24116.71
558.065	24325.6
558.265	24024.55
558.464	23743.98
558.663	24221.16
558.863	23682.54
559.062	24491.49
559.261	23526.89
559.461	24315.36
559.66	23879.14
559.859	23774.7
560.058	23651.82
560.258	23608.81
560.457	23522.8
560.656	23887.34
560.855	23692.78
561.054	24008.17
561.253	23332.34
561.453	23436.78
561.652	23375.34
561.851	23829.99
562.05	23617
562.249	23293.43
562.448	23703.02
562.647	23322.1
562.846	23139.83
563.045	23299.57
563.244	23043.57
563.443	23479.79
563.642	22820.35
563.841	22994.42
564.04	22744.57
564.239	23240.18
564.438	22783.48
564.637	22947.32
564.836	22832.63
565.035	22779.39
565.234	22906.36
565.432	22537.73
565.631	22578.68
565.83	22777.34
566.029	22162.95
566.228	22425.09
566.427	22629.88
566.625	22431.23
566.824	22093.32
567.023	22296.07
567.222	21841.42
567.42	22210.05
567.619	21882.38
567.818	21960.2
568.016	22093.32
568.215	22205.95
568.414	21949.96
568.612	21888.52
568.811	21792.26
569.01	21638.67
569.208	21423.63
569.407	21720.59
569.605	21569.04
569.804	21532.17
570.002	21462.54
570.201	21628.43
570.4	21259.79
570.598	21145.11
570.797	21214.74
570.995	21122.58
571.193	21157.39
571.392	21202.45
571.59	21249.55
571.789	20983.32
571.987	20903.45
572.186	20561.44
572.384	20807.19
572.582	20766.23
572.781	20721.18
572.979	20362.78
573.177	20350.49
573.376	20399.65
573.574	20522.52
573.772	20350.49
573.971	20133.41
574.169	20137.51
574.367	19775.02
574.565	20184.61
574.763	19977.76
574.962	20020.77
575.16	19985.96
575.358	19858.98
575.556	19723.82
575.754	19973.67
575.952	19498.54
576.151	19721.77
576.349	19519.02
576.547	19539.5
576.745	19803.69
576.943	19246.64
577.141	19383.85
577.339	19271.22
577.537	19332.65
577.735	19297.84
577.933	19181.1
578.131	19267.12
578.329	19127.86
578.527	18966.07
578.725	18949.68
578.923	19033.65
579.121	18644.54
579.319	18828.85
579.516	18996.79
579.714	18773.56
579.912	18603.58
580.11	18558.52
580.308	18583.1
580.506	18460.22
580.704	18345.53
580.901	18540.09
581.099	18345.53
581.297	18056.77
581.495	17987.14
581.692	18148.93
581.89	18009.67
582.088	18316.86
582.285	17929.8
582.483	17917.51
582.681	17854.02
582.878	17950.28
583.076	17663.56
583.274	17817.16
583.471	17688.14
583.669	17481.29
583.866	17585.74
584.064	17710.66
584.262	17053.27
584.459	17376.84
584.657	17374.8
584.854	17540.68
585.052	17028.69
585.249	17063.5
585.447	17159.76
585.644	16944.72
585.841	17063.5
586.039	17184.34
586.236	16647.77
586.434	16483.93
586.631	16842.32
586.828	16862.8
587.026	16817.75
587.223	16684.63
587.42	16678.49
587.618	16965.2
587.815	16526.94
588.012	16506.46
588.21	16410.2
588.407	16602.71
588.604	16395.87
588.801	16039.52
588.999	16164.45
589.196	16252.51
589.393	16289.37
589.59	16150.11
589.787	16066.14
589.984	15822.44
590.182	15715.94
590.379	16184.93
590.576	15761
590.773	15720.04
590.97	15634.02
591.167	16002.66
591.364	15533.67
591.561	15498.86
591.758	15670.89
591.955	15638.12
592.152	15578.73
592.349	15572.58
592.546	15371.88
592.743	15677.03
592.94	15281.77
593.137	15269.48
593.334	15160.94
593.531	14829.17
593.727	15099.5
593.924	15101.55
594.121	15031.92
594.318	15076.98
594.515	14773.88
594.712	14911.09
594.908	14677.62
595.105	15023.73
595.302	14702.2
595.499	14730.87
595.696	14798.45
595.892	14517.88
596.089	14577.27
596.286	14472.82
596.482	14378.62
596.679	14513.78
596.876	14343.8
597.072	14317.18
597.269	14448.25
597.466	14245.5
597.662	14255.74
597.859	14351.99
598.055	14108.29
598.252	14235.26
598.448	14077.57
598.645	14110.33
598.841	13751.94
599.038	14014.08
599.234	14100.09
599.431	13553.29
599.627	13751.94
599.824	13964.93
600.02	13778.56
600.217	13721.22
600.413	13610.63
600.609	13403.78
600.806	13629.06
601.002	13655.68
601.198	13495.94
601.395	13508.23
601.591	13270.67
601.787	13221.52
601.984	13233.8
602.18	13508.23
602.376	13162.12
602.572	13045.39
602.769	13272.71
602.965	13090.45
603.161	13301.39
603.357	13094.54
603.553	12732.05
603.75	12928.66
603.946	12908.18
604.142	13020.81
604.338	12703.38
604.534	13002.38
604.73	12529.3
604.926	12752.53
605.122	12789.39
605.318	12590.74
605.514	12775.06
605.71	12402.33
605.906	12385.94
606.102	12482.2
606.298	12603.03
606.494	12416.66
606.69	12404.38
606.886	12347.03
607.082	12113.56
607.278	12275.35
607.474	12060.32
607.67	12406.42
607.866	11865.76
608.062	12267.16
608.257	11955.87
608.453	12023.45
608.649	12019.36
608.845	11951.77
609.041	11910.82
609.236	11808.42
609.432	11695.78
609.628	11949.73
609.824	11814.56
610.019	11681.44
610.215	11712.16
610.411	11933.34
610.606	11665.06
610.802	11714.21
610.998	11701.92
611.193	11581.09
611.389	11396.78
611.584	11493.03
611.78	11269.8
611.976	11503.27
612.171	11472.55
612.367	11585.19
612.562	11263.66
612.758	11345.58
612.953	11101.87
613.149	11314.86
613.344	11146.92
613.539	11214.51
613.735	11202.22
613.93	11296.42
614.126	11108.01
614.321	11273.9
614.517	11228.84
614.712	11155.12
614.907	10954.41
615.103	10958.51
615.298	10886.83
615.493	11071.15
615.688	10845.87
615.884	11091.63
616.079	10860.21
616.274	11001.52
616.47	10751.67
616.665	10696.37
616.86	10800.82
617.055	10641.07
617.25	10696.37
617.445	11005.61
617.641	10485.43
617.836	10612.4
618.031	10432.18
618.226	10811.06
618.421	10370.74
618.616	10579.64
618.811	10485.43
619.006	10485.43
619.201	10288.82
619.396	10360.5
619.591	10241.72
619.786	10086.08
619.981	10147.51
620.176	10122.94
620.371	10020.54
620.566	10237.63
620.761	9948.86
620.956	10106.56
621.151	9926.33
621.346	9961.15
621.541	9733.82
621.735	9967.29
621.93	9520.84
622.125	9680.58
622.32	9598.66
622.515	9688.77
622.709	9506.5
622.904	9535.17
623.099	9590.47
623.294	9375.43
623.488	9361.09
623.683	9369.29
623.878	9205.45
624.072	9434.82
624.267	9029.32
624.462	9107.15
624.656	8900.3
624.851	9023.18
625.046	8838.86
625.24	8953.55
625.435	8814.29
625.629	8875.73
625.824	8812.24
626.018	8816.33
626.213	8459.99
626.407	8685.26
626.602	8535.76
626.796	8623.83
626.991	8543.95
627.185	8453.84
627.38	8447.7
627.574	8449.75
627.768	8294.1
627.963	8232.66
628.157	8195.8
628.352	8140.51
628.546	8197.85
628.74	8214.23
628.935	7968.48
629.129	8070.87
629.323	7874.27
629.517	7915.23
629.712	7816.93
629.906	7810.78
630.1	7675.62
630.294	7751.39
630.489	7732.96
630.683	7888.6
630.877	7542.5
631.071	7562.98
631.265	7466.72
631.459	7446.24
631.653	7386.85
631.848	7288.55
632.042	7565.03
632.236	7399.14
632.43	7323.37
632.624	7304.93
632.818	7368.42
633.012	7214.82
633.206	7159.53
633.4	7247.59
633.594	6987.5
633.788	6960.88
633.982	7030.51
634.176	7161.58
634.369	6913.77
634.563	6962.92
634.757	6854.38
634.951	6987.5
635.145	6801.13
635.339	6891.24
635.533	6739.69
635.726	6565.62
635.92	6842.09
636.114	6649.58
636.308	6573.81
636.501	6594.29
636.695	6508.27
636.889	6481.65
637.083	6430.45
637.276	6385.4
637.47	6366.96
637.664	6305.53
637.857	6387.44
638.051	6360.82
638.244	6334.2
638.438	6176.5
638.632	6115.06
638.825	6115.06
639.019	6008.57
639.212	6145.78
639.406	5965.56
639.599	6061.82
639.793	6029.05
639.986	5766.91
640.18	5789.44
640.373	5754.62
640.567	5566.21
640.76	5854.97
640.954	5623.55
641.147	5689.09
641.34	5617.41
641.534	5678.85
641.727	5654.27
641.92	5672.7
642.114	5527.3
642.307	5562.11
642.5	5371.65
642.694	5390.08
642.887	5308.16
643.08	5508.87
643.273	5402.37
643.467	5361.41
643.66	5322.5
643.853	5338.88
644.046	5273.35
644.239	5121.8
644.432	5201.67
644.626	5220.1
644.819	5074.7
645.012	4859.66
645.205	5142.28
645.398	5080.84
645.591	4935.43
645.784	5027.59
645.977	4732.69
646.17	4843.28
646.363	4781.84
646.556	4744.97
646.749	4681.49
646.942	4701.97
647.135	4613.9
647.328	4689.68
647.521	4658.96
647.714	4478.74
647.907	4548.37
648.099	4413.2
648.292	4570.9
648.485	4466.45
648.678	4433.68
648.871	4441.87
649.064	4222.74
649.256	4517.65
649.449	4376.34
649.642	4413.2
649.835	4253.46
650.027	4265.75
650.22	4284.18
650.413	4278.04
650.605	4210.45
650.798	4269.84
650.991	4212.5
651.183	4097.81
651.376	4122.39
651.568	4132.63
651.761	4177.69
651.954	4026.14
652.146	3927.83
652.339	3968.79
652.531	3974.94
652.724	3917.59
652.916	3888.92
653.109	3890.97
653.301	3890.97
653.494	3903.26
653.686	3870.49
653.879	3802.91
654.071	3807
654.263	3825.43
654.456	3903.26
654.648	3587.87
654.84	3649.31
655.033	3684.13
655.225	3704.6
655.417	3653.41
655.61	3872.54
655.802	3643.17
655.994	3524.38
656.186	3710.75
656.379	3546.91
656.571	3622.69
656.763	3518.24
656.955	3620.64
657.148	3456.8
657.34	3475.23
657.532	3415.84
657.724	3376.93
657.916	3311.39
658.108	3366.69
658.3	3319.59
658.492	3376.93
658.684	3292.96
658.876	3231.52
659.068	3366.69
659.26	3243.81
659.452	3211.04
659.644	3376.93
659.836	3317.54
660.028	3198.76
660.22	3305.25
660.412	3018.54
660.604	3030.82
660.796	2936.62
660.988	3209
661.18	3159.85
661.372	2985.77
661.563	3024.68
661.755	3036.97
661.947	3020.58
662.139	3075.88
662.331	2993.96
662.522	2895.66
662.714	2963.24
662.906	2907.94
663.097	2809.64
663.289	2948.9
663.481	2858.79
663.673	2842.41
663.864	2778.92
664.056	2744.11
664.247	2787.11
664.439	2699.05
664.631	2697
664.822	2770.73
665.014	2721.58
665.205	2654
665.397	2774.83
665.588	2740.01
665.78	2578.22
665.971	2703.15
666.163	2686.76
666.354	2590.51
666.546	2690.86
666.737	2582.32
666.929	2572.08
667.12	2516.78
667.311	2596.65
667.503	2654
667.694	2625.33
667.885	2529.07
668.077	2500.4
668.268	2524.97
668.459	2438.96
668.651	2471.73
668.842	2398
669.033	2445.1
669.224	2449.2
669.416	2369.33
669.607	2398
669.798	2393.9
669.989	2434.86
670.18	2400.05
670.371	2432.82
670.563	2361.14
670.754	2408.24
670.945	2260.79
671.136	2309.94
671.327	2352.95
671.518	2404.14
671.709	2299.7
671.9	2387.76
672.091	2395.95
672.282	2248.5
672.473	2336.56
672.664	2209.59
672.855	2314.03
673.046	2324.27
673.237	2307.89
673.428	2213.68
673.619	2318.13
673.809	2211.64
674	2146.1
674.191	2195.25
674.382	2219.83
674.573	2236.21
674.764	2189.11
674.954	2144.05
675.145	2193.2
675.336	2201.4
675.527	2160.44
675.717	2135.86
675.908	2101.05
676.099	2139.96
676.289	2144.05
676.48	2240.31
676.671	2170.68
676.861	2168.63
677.052	2146.1
677.243	2170.68
677.433	2199.35
677.624	2158.39
677.814	2086.71
678.005	2164.53
678.195	2096.95
678.386	2139.96
678.576	2096.95
678.767	2086.71
678.957	2103.09
679.148	2037.56
679.338	2084.66
679.529	2074.42
679.719	2076.47
679.909	2117.43
680.1	2094.9
680.29	2062.13
680.481	2047.8
680.671	2092.85
680.861	2019.13
681.052	2080.57
681.242	2078.52
681.432	2099
681.622	2082.61
681.813	1998.65
682.003	2066.23
682.193	2078.52
682.383	2058.04
682.573	2088.76
682.764	2043.7
682.954	2105.14
683.144	2099
683.334	2008.89
683.524	2240.31
683.714	1984.31
683.904	2123.57
684.094	2017.08
684.284	2015.03
684.474	2008.89
684.664	2113.33
684.854	2055.99
685.044	2111.29
685.234	1953.59
685.424	2023.22
685.614	2058.04
685.804	2006.84
685.994	2027.32
686.184	2023.22
686.374	2150.2
686.564	2047.8
686.753	2029.37
686.943	1965.88
687.133	2008.89
687.323	1982.26
687.513	2051.89
687.702	1941.3
687.892	1926.97
688.082	1976.12
688.272	1978.17
688.461	1941.3
688.651	2062.13
688.841	1994.55
689.03	2008.89
689.22	1998.65
689.41	1998.65
689.599	1957.69
689.789	2006.84
689.979	1982.26
690.168	1961.78
690.358	1998.65
690.547	1986.36
690.737	1988.41
690.926	1961.78
691.116	1967.93
691.305	1931.06
691.495	2015.03
691.684	1957.69
691.874	1896.25
692.063	1873.72
692.252	1879.86
692.442	1859.38
692.631	1986.36
692.82	1916.73
693.01	2017.08
693.199	1906.49
693.388	1744.7
693.578	1949.5
693.767	1867.58
693.956	1922.87
694.146	1945.4
694.335	1959.74
694.524	1865.53
694.713	1898.3
694.902	1855.29
695.092	1802.04
695.281	1939.26
695.47	1896.25
695.659	1761.08
695.848	1939.26
696.037	1843
696.226	1941.3
696.415	1840.95
696.604	1857.34
696.793	1779.51
696.982	1906.49
697.171	1806.14
697.36	1920.82
697.549	1840.95
697.738	1894.2
697.927	1857.34
698.116	1810.23
698.305	1908.54
698.494	1855.29
698.683	1867.58
698.872	1941.3
699.061	1748.79
699.25	1902.39
699.438	1832.76
699.627	1787.71
699.816	1980.22
700.005	1924.92
700.193	1851.19
700.382	1883.96
700.571	1818.43
700.76	1754.94
700.948	1808.19
701.137	1765.18
701.326	1838.91
701.514	1748.79
701.703	1838.91
701.892	1806.14
702.08	1826.62
702.269	1816.38
702.457	1869.62
702.646	1777.47
702.834	1840.95
703.023	1857.34
703.212	1720.12
703.4	1781.56
703.589	1806.14
703.777	1799.99
703.965	1705.79
704.154	1713.98
704.342	1691.45
704.531	1814.33
704.719	1765.18
704.907	1722.17
705.096	1720.12
705.284	1689.4
705.472	1793.85
705.661	1734.46
705.849	1773.37
706.037	1750.84
706.226	1861.43
706.414	1808.19
706.602	1713.98
706.79	1775.42
706.979	1732.41
707.167	1619.77
707.355	1750.84
707.543	1699.64
707.731	1670.97
707.919	1728.31
708.107	1781.56
708.296	1738.55
708.484	1703.74
708.672	1765.18
708.86	1718.08
709.048	1713.98
709.236	1666.88
709.424	1646.4
709.612	1783.61
709.8	1707.84
709.988	1689.4
710.176	1660.73
710.364	1728.31
710.551	1693.5
710.739	1662.78
710.927	1713.98
711.115	1691.45
711.303	1799.99
711.491	1726.27
711.679	1597.24
711.866	1605.44
712.054	1773.37
712.242	1642.3
712.43	1640.25
712.617	1556.29
712.805	1566.53
712.993	1668.92
713.181	1627.96
713.368	1593.15
713.556	1623.87
713.744	1607.48
713.931	1570.62
714.119	1695.55
714.306	1697.6
714.494	1650.49
714.682	1660.73
714.869	1521.47
715.057	1550.14
715.244	1640.25
715.432	1609.53
715.619	1642.3
715.807	1492.8
715.994	1527.61
716.182	1611.58
716.369	1562.43
716.556	1611.58
716.744	1492.8
716.931	1576.77
717.119	1498.94
717.306	1500.99
717.493	1615.68
717.681	1462.08
717.868	1656.64
718.055	1519.42
718.242	1632.06
718.43	1511.23
718.617	1646.4
718.804	1591.1
718.991	1576.77
719.179	1544
719.366	1457.98
719.553	1470.27
719.74	1535.81
719.927	1599.29
720.114	1617.72
720.301	1535.81
720.488	1521.47
720.676	1531.71
720.863	1457.98
721.05	1513.28
721.237	1509.18
721.424	1533.76
721.611	1447.74
721.798	1443.65
721.985	1462.08
722.172	1511.23
722.358	1441.6
722.545	1496.89
722.732	1419.07
722.919	1564.48
723.106	1443.65
723.293	1412.93
723.48	1460.03
723.667	1464.13
723.853	1468.22
724.04	1468.22
724.227	1449.79
724.414	1460.03
724.6	1398.59
724.787	1425.22
724.974	1582.91
725.161	1425.22
725.347	1482.56
725.534	1421.12
725.72	1457.98
725.907	1474.37
726.094	1525.57
726.28	1314.63
726.467	1466.17
726.653	1429.31
726.84	1419.07
727.027	1451.84
727.213	1441.6
727.4	1457.98
727.586	1457.98
727.773	1457.98
727.959	1388.35
728.145	1435.46
728.332	1345.34
728.518	1357.63
728.705	1443.65
728.891	1431.36
729.077	1382.21
729.264	1406.78
729.45	1406.78
729.636	1451.84
729.823	1507.13
730.009	1382.21
730.195	1421.12
730.382	1363.78
730.568	1341.25
730.754	1500.99
730.94	1410.88
731.126	1365.82
731.313	1398.59
731.499	1378.11
731.685	1390.4
731.871	1455.94
732.057	1437.5
732.243	1449.79
732.429	1433.41
732.615	1353.54
732.801	1445.7
732.987	1353.54
733.173	1371.97
733.359	1277.76
733.545	1371.97
733.731	1406.78
733.917	1425.22
734.103	1392.45
734.289	1378.11
734.475	1392.45
734.661	1353.54
734.847	1404.74
735.033	1228.61
735.219	1388.35
735.404	1328.96
735.59	1324.87
735.776	1316.67
735.962	1314.63
736.148	1310.53
736.333	1365.82
736.519	1337.15
736.705	1400.64
736.89	1290.05
737.076	1406.78
737.262	1320.77
737.447	1312.58
737.633	1236.8
737.819	1371.97
738.004	1277.76
738.19	1359.68
738.375	1359.68
738.561	1367.87
738.747	1318.72
738.932	1441.6
739.118	1314.63
739.303	1236.8
739.489	1369.92
739.674	1242.95
739.859	1355.58
740.045	1283.91
740.23	1343.3
740.416	1238.85
740.601	1261.38
740.786	1161.03
740.972	1224.51
741.157	1351.49
741.342	1238.85
741.528	1238.85
741.713	1371.97
741.898	1191.75
742.084	1247.04
742.269	1179.46
742.454	1183.56
742.639	1294.15
742.824	1193.8
743.01	1179.46
743.195	1165.12
743.38	1283.91
743.565	1285.95
743.75	1236.8
743.935	1175.36
744.12	1273.67
744.305	1238.85
744.49	1216.32
744.675	1181.51
744.86	1163.08
745.045	1171.27
745.23	1197.89
745.415	1144.64
745.6	1111.88
745.785	1091.4
745.97	1210.18
746.155	1144.64
746.34	1115.97
746.525	1171.27
746.71	1122.12
746.895	1113.92
747.079	1075.01
747.264	1255.23
747.449	1134.4
747.634	1066.82
747.819	1077.06
748.003	1128.26
748.188	1044.29
748.373	1093.44
748.557	1079.11
748.742	1015.62
748.927	1034.05
749.111	1019.72
749.296	1023.81
749.481	1077.06
749.665	1023.81
749.85	1138.5
750.034	1042.25
750.219	1023.81
750.404	1013.57
750.588	966.47
750.773	941.89
750.957	1075.01
751.141	974.66
751.326	1009.48
751.51	1032.01
751.695	937.8
751.879	966.47
752.064	950.09
752.248	943.94
752.432	892.74
752.617	927.56
752.801	911.18
752.985	870.22
753.17	976.71
753.354	931.66
753.538	878.41
753.722	862.02
753.907	800.59
754.091	882.5
754.275	952.13
754.459	816.97
754.643	849.74
754.828	896.84
755.012	827.21
755.196	794.44
755.38	911.18
755.564	821.06
755.748	730.95
755.932	855.88
756.116	790.35
756.3	790.35
756.484	728.91
756.668	827.21
756.852	710.47
757.036	769.87
757.22	745.29
757.404	771.91
757.588	831.3
757.772	741.19
757.956	706.38
758.14	769.87
758.323	603.98
758.507	837.45
758.691	782.15
758.875	745.29
759.059	819.02
759.242	751.43
759.426	733
759.61	685.9
759.794	632.65
759.977	675.66
760.161	735.05
760.345	733
760.528	718.67
760.712	730.95
760.895	685.9
761.079	728.91
761.263	755.53
761.446	687.95
761.63	597.84
761.813	706.38
761.997	722.76
762.18	591.69
762.364	628.56
762.547	681.8
762.731	536.4
762.914	610.12
763.098	616.27
763.281	663.37
763.464	655.18
763.648	618.32
763.831	689.99
764.015	634.7
764.198	673.61
764.381	661.32
764.564	724.81
764.748	653.13
764.931	624.46
765.114	558.92
765.297	642.89
765.481	544.59
765.664	583.5
765.847	593.74
766.03	587.6
766.213	628.56
766.397	540.49
766.58	532.3
766.763	628.56
766.946	571.21
767.129	569.16
767.312	632.65
767.495	550.73
767.678	603.98
767.861	575.31
768.044	655.18
768.227	608.08
768.41	556.88
768.593	581.45
768.776	540.49
768.959	501.58
769.142	552.78
769.324	573.26
769.507	505.68
769.69	534.35
769.873	540.49
770.056	497.49
770.239	501.58
770.421	464.72
770.604	507.73
770.787	503.63
770.97	653.13
771.152	489.29
771.335	614.22
771.518	517.97
771.7	548.68
771.883	505.68
772.066	517.97
772.248	501.58
772.431	520.01
772.613	507.73
772.796	563.02
772.978	556.88
773.161	483.15
773.343	511.82
773.526	528.21
773.708	474.96
773.891	442.19
774.073	513.87
774.256	413.52
774.438	528.21
774.621	489.29
774.803	429.9
774.985	423.76
775.168	520.01
775.35	419.66
775.532	411.47
775.715	425.81
775.897	499.53
776.079	378.7
776.261	466.77
776.444	452.43
776.626	417.61
776.808	434
776.99	423.76
777.173	384.85
777.355	456.53
777.537	417.61
777.719	477.01
777.901	395.09
778.083	436.05
778.265	425.81
778.447	343.89
778.629	362.32
778.811	417.61
778.993	356.18
779.175	368.46
779.357	356.18
779.539	352.08
779.721	393.04
779.903	374.61
780.085	360.27
780.267	399.18
780.449	368.46
780.631	319.31
780.812	311.12
780.994	368.46
781.176	372.56
781.358	315.22
781.54	405.33
781.721	327.5
781.903	378.7
782.085	358.22
782.267	345.94
782.448	313.17
782.63	304.98
782.812	354.13
782.993	360.27
783.175	339.79
783.357	264.02
783.538	442.19
783.72	335.7
783.901	292.69
784.083	298.83
784.264	376.66
784.446	286.54
784.627	249.68
784.809	251.73
784.99	309.07
785.172	239.44
785.353	266.07
785.535	282.45
785.716	266.07
785.897	270.16
786.079	345.94
786.26	259.92
786.441	259.92
786.623	278.35
786.804	309.07
786.985	278.35
787.167	257.87
787.348	294.74
787.529	304.98
787.71	350.03
787.891	298.83
788.073	352.08
788.254	268.11
788.435	272.21
788.616	309.07
788.797	272.21
788.978	225.11
789.159	266.07
789.34	284.5
789.522	298.83
789.703	192.34
789.884	264.02
790.065	169.81
790.246	249.68
790.427	216.91
790.607	241.49
790.788	212.82
790.969	229.2
791.15	165.71
791.331	261.97
791.512	212.82
791.693	135
791.874	182.1
792.054	180.05
792.235	149.33
792.416	251.73
792.597	169.81
792.778	167.76
792.958	192.34
793.139	229.2
793.32	161.62
793.5	153.43
793.681	196.43
793.862	89.94
794.042	237.39
794.223	227.15
794.404	218.96
794.584	161.62
794.765	130.9
794.945	104.28
795.126	204.63
795.306	161.62
795.487	139.09
795.667	182.1
795.848	214.87
796.028	184.15
796.209	182.1
796.389	169.81
796.57	231.25
796.75	118.61
796.93	237.39
797.111	143.19
797.291	188.24
797.471	182.1
797.652	214.87
797.832	206.67
798.012	216.91
798.192	153.43
798.373	165.71
798.553	153.43
798.733	94.04
798.913	149.33
799.093	89.94
799.274	153.43
799.454	145.24
799.634	194.39
799.814	192.34
799.994	135
800.174	182.1
800.354	180.05
800.534	192.34
800.714	100.18
800.894	171.86
801.074	79.7
801.254	91.99
801.434	118.61
801.614	139.09
801.794	110.42
801.974	386.9
802.154	157.52
802.334	147.28
802.514	112.47
802.693	139.09
802.873	139.09
803.053	89.94
803.233	153.43
803.413	182.1
803.592	175.95
803.772	102.23
803.952	114.52
804.131	104.28
804.311	163.67
804.491	114.52
804.67	186.19
804.85	157.52
805.03	143.19
805.209	110.42
805.389	122.71
805.568	165.71
805.748	141.14
805.928	145.24
806.107	102.23
806.287	139.09
806.466	42.84
806.646	67.41
806.825	59.22
807.004	175.95
807.184	102.23
807.363	98.13
807.543	71.51
807.722	147.28
807.901	200.53
808.081	77.65
808.26	143.19
808.439	116.56
808.619	81.75
808.798	186.19
808.977	130.9
809.156	118.61
809.336	102.23
809.515	75.6
809.694	30.55
809.873	36.69
810.052	112.47
810.231	132.95
810.411	192.34
810.59	147.28
810.769	75.6
810.948	114.52
811.127	67.41
811.306	69.46
811.485	8.02
811.664	106.32
811.843	110.42
812.022	75.6
812.201	139.09
812.38	114.52
812.559	112.47
812.737	16.21
812.916	89.94
813.095	98.13
813.274	94.04
813.453	116.56
813.632	147.28
813.811	153.43
813.989	120.66
814.168	77.65
814.347	77.65
814.526	147.28
814.704	110.42
814.883	118.61
815.062	67.41
815.24	126.8
815.419	163.67
815.598	79.7
815.776	141.14
815.955	198.48
816.133	89.94
816.312	91.99
816.49	124.76
816.669	75.6
816.847	100.18
817.026	145.24
817.204	83.8
817.383	165.71
817.561	81.75
817.74	112.47
817.918	28.5
818.097	85.84
818.275	132.95
818.453	132.95
818.632	48.98
818.81	231.25
818.988	28.5
819.167	81.75
819.345	96.08
819.523	130.9
819.701	14.17
819.879	81.75
820.058	126.8
820.236	55.12
820.414	57.17
820.592	53.08
820.77	81.75
820.948	75.6
821.127	48.98
821.305	132.95
821.483	20.31
821.661	22.36
821.839	48.98
822.017	87.89
822.195	48.98
822.373	77.65
822.551	83.8
822.729	63.32
822.907	57.17
823.085	44.88
823.262	24.4
823.44	57.17
823.618	75.6
823.796	83.8
823.974	81.75
824.152	67.41
824.329	42.84
824.507	75.6
824.685	32.6
824.863	10.07
825.04	32.6
825.218	106.32
825.396	87.89
825.574	73.56
825.751	89.94
825.929	73.56
826.107	14.17
826.284	32.6
826.462	67.41
826.639	-4.27
826.817	-12.46
826.994	44.88
827.172	71.51
827.349	75.6
827.527	67.41
827.704	53.08
827.882	122.71
828.059	83.8
828.237	16.21
828.414	120.66
828.591	48.98
828.769	85.84
828.946	-45.23
829.124	67.41
829.301	42.84
829.478	22.36
829.655	51.03
829.833	81.75
830.01	-18.6
830.187	1.88
830.364	63.32
830.542	59.22
830.719	51.03
830.896	145.24
831.073	22.36
831.25	81.75
831.427	63.32
831.604	143.19
831.782	48.98
831.959	94.04
832.136	106.32
832.313	163.67
832.49	-37.03
832.667	100.18
832.844	12.12
833.021	85.84
833.198	71.51
833.374	53.08
833.551	65.36
833.728	77.65
833.905	32.6
834.082	30.55
834.259	14.17
834.436	67.41
834.612	126.8
834.789	8.02
834.966	63.32
835.143	71.51
835.319	-53.42
835.496	122.71
835.673	34.64
835.85	91.99
836.026	155.47
836.203	108.37
836.38	51.03
836.556	30.55
836.733	16.21
836.909	59.22
837.086	77.65
837.262	-12.46
837.439	16.21
837.616	-12.46
837.792	100.18
837.968	-24.75
838.145	-2.22
838.321	28.5
838.498	75.6
838.674	55.12
838.851	-20.65
839.027	34.64
839.203	71.51
839.38	46.93
839.556	24.4
839.732	81.75
839.909	44.88
840.085	73.56
840.261	42.84
840.437	96.08
840.614	28.5
840.79	91.99
840.966	61.27
841.142	94.04
841.318	24.4
841.494	18.26
841.671	130.9
841.847	40.79
842.023	36.69
842.199	53.08
842.375	59.22
842.551	-18.6
842.727	20.31
842.903	36.69
843.079	10.07
843.255	12.12
843.431	75.6
843.607	-32.94
843.783	-12.46
843.959	75.6
844.134	96.08
844.31	24.4
844.486	94.04
844.662	36.69
844.838	81.75
845.013	67.41
845.189	-49.32
845.365	8.02
845.541	46.93
845.716	8.02
845.892	40.79
846.068	69.46
846.244	-12.46
846.419	77.65
846.595	8.02
846.77	51.03
846.946	20.31
847.122	1.88
847.297	48.98
847.473	67.41
847.648	-0.17
847.824	110.42
847.999	-8.36
848.175	61.27
848.35	-12.46
848.526	71.51
848.701	-2.22
848.876	22.36
849.052	14.17
849.227	44.88
849.403	67.41
849.578	40.79
849.753	-51.37
849.929	106.32
850.104	1.88
850.279	24.4
850.454	40.79
850.63	36.69
850.805	-39.08
850.98	24.4
851.155	-2.22
851.33	55.12
851.505	48.98
851.681	40.79
851.856	22.36
852.031	46.93
852.206	67.41
852.381	1.88
852.556	-26.79
852.731	91.99
852.906	53.08
853.081	-32.94
853.256	57.17
853.431	73.56
853.606	-39.08
853.781	53.08
853.956	-63.66
854.131	57.17
854.305	44.88
854.48	1.88
854.655	22.36
854.83	38.74
855.005	-14.51
855.18	75.6
855.354	116.56
855.529	26.45
855.704	42.84
855.879	81.75
856.053	14.17
856.228	18.26
856.403	1.88
856.577	36.69
856.752	-30.89
856.926	53.08
857.101	8.02
857.276	40.79
857.45	30.55
857.625	48.98
857.799	-4.27
857.974	46.93
858.148	-8.36
858.323	-45.23
858.497	12.12
858.672	-26.79
858.846	65.36
859.02	-4.27
859.195	-63.66
859.369	3.93
859.543	14.17
859.718	36.69
859.892	24.4
860.066	8.02
860.241	75.6
860.415	67.41
860.589	16.21
860.763	24.4
860.938	38.74
861.112	34.64
861.286	10.07
861.46	57.17
861.634	48.98
861.808	32.6
861.982	-14.51
862.157	24.4
862.331	36.69
862.505	14.17
862.679	-6.31
862.853	38.74
863.027	8.02
863.201	65.36
863.375	-0.17
863.549	-18.6
863.722	120.66
863.896	55.12
864.07	46.93
864.244	-49.32
864.418	-28.84
864.592	-16.55
864.766	18.26
864.939	48.98
865.113	-0.17
865.287	69.46
865.461	34.64
865.634	26.45
865.808	38.74
865.982	81.75
866.156	46.93
866.329	38.74
866.503	3.93
866.676	18.26
866.85	1.88
867.024	53.08
867.197	67.41
867.371	18.26
867.544	16.21
867.718	-2.22
867.891	-4.27
868.065	40.79
868.238	24.4
868.412	-16.55
868.585	-26.79
868.759	12.12
868.932	1.88
869.105	26.45
869.279	22.36
869.452	75.6
869.625	51.03
869.799	24.4
869.972	28.5
870.145	14.17
870.319	-57.51
870.492	61.27
870.665	28.5
870.838	48.98
871.011	-45.23
871.185	24.4
871.358	-32.94
871.531	-24.75
871.704	46.93
871.877	8.02
872.05	40.79
872.223	40.79
872.396	18.26
872.569	8.02
872.742	-41.13
872.915	16.21
873.088	55.12
873.261	-16.55
873.434	32.6
873.607	57.17
873.78	-49.32
873.953	53.08
874.126	-8.36
874.299	12.12
874.471	3.93
874.644	22.36
874.817	-53.42
874.99	20.31
875.163	14.17
875.335	-28.84
875.508	18.26
875.681	-2.22
875.853	53.08
876.026	-14.51
876.199	71.51
876.371	89.94
876.544	61.27
876.717	20.31
876.889	-28.84
877.062	-6.31
877.234	8.02
877.407	-6.31
877.579	-65.71
877.752	-51.37
877.924	26.45
878.097	8.02
878.269	3.93
878.442	-16.55
878.614	51.03
878.786	38.74
878.959	1.88
879.131	34.64
879.303	61.27
879.476	18.26
879.648	5.97
879.82	89.94
879.993	-28.84
880.165	48.98
880.337	-6.31
880.509	24.4
880.681	-12.46
880.854	-14.51
881.026	42.84
881.198	98.13
881.37	-67.75
881.542	-0.17
881.714	65.36
881.886	69.46
882.058	61.27
882.23	40.79
882.402	-8.36
882.574	1.88
882.746	73.56
882.918	-4.27
883.09	55.12
883.262	12.12
883.434	-8.36
883.606	-26.79
883.778	-6.31
883.95	98.13
884.122	24.4
884.293	46.93
884.465	-26.79
884.637	-28.84
884.809	5.97
884.98	65.36
885.152	-55.47
885.324	32.6
885.496	32.6
885.667	24.4
885.839	18.26
886.011	-2.22
886.182	3.93
886.354	-20.65
886.525	-2.22
886.697	75.6
886.869	40.79
887.04	-14.51
887.212	55.12
887.383	-14.51
887.555	-16.55
887.726	57.17
887.897	30.55
888.069	51.03
888.24	26.45
888.412	69.46
888.583	-16.55
888.754	63.32
888.926	-30.89
889.097	-8.36
889.268	22.36
889.44	40.79
889.611	-16.55
889.782	44.88
889.953	1.88
890.125	24.4
890.296	-22.7
890.467	-57.51
890.638	-45.23
890.809	-2.22
890.98	-34.99
891.151	24.4
891.323	-0.17
891.494	22.36
891.665	-22.7
891.836	69.46
892.007	-34.99
892.178	20.31
892.349	8.02
892.52	14.17
892.691	57.17
892.862	42.84
893.032	34.64
893.203	12.12
893.374	-34.99
893.545	-2.22
893.716	-18.6
893.887	14.17
894.057	28.5
894.228	20.31
894.399	20.31
894.57	-14.51
894.74	-34.99
894.911	24.4
895.082	-22.7
895.253	-32.94
895.423	-86.19
895.594	-41.13
895.764	-32.94
895.935	-22.7
896.106	40.79
896.276	42.84
896.447	-0.17
896.617	-8.36
896.788	-14.51
896.958	-0.17
897.129	-14.51
897.299	61.27
897.47	59.22
897.64	73.56
897.81	-22.7
897.981	16.21
898.151	-55.47
898.322	65.36
898.492	-39.08
898.662	-24.75
898.832	-34.99
899.003	61.27
899.173	26.45
899.343	-22.7
899.513	-16.55
