Data from USB4F104151__72__12-59-37-202.txt Node

Date: Fri Mar 14 12:59:37 EDT 2025
User: louis
Spectrometer: USB4F10415
Trigger mode: 4
Integration Time (sec): 1.000000E-2
Scans to average: 1
Electric dark correction enabled: true
Nonlinearity correction enabled: false
Boxcar width: 0
XAxis mode: Wavelengths
Number of Pixels in Spectrum: 3648
>>>>>Begin Spectral Data<<<<<
178.204	-51.71
178.424	-51.71
178.644	-51.71
178.864	-90.62
179.084	-23.04
179.304	-18.94
179.524	-10.75
179.744	-68.09
179.964	52.74
180.184	34.3
180.404	-27.14
180.624	60.93
180.844	-12.8
181.064	13.82
181.283	15.87
181.503	-31.23
181.723	-8.7
181.943	-16.9
182.163	-16.9
182.383	13.82
182.602	42.5
182.822	19.97
183.042	95.74
183.262	-10.75
183.482	38.4
183.701	-2.56
183.921	1.54
184.141	7.68
184.361	103.93
184.58	-6.66
184.8	-8.7
185.02	15.87
185.239	48.64
185.459	-31.23
185.679	56.83
185.898	-66.05
186.118	-51.71
186.338	15.87
186.557	65.02
186.777	-25.09
186.997	11.78
187.216	-2.56
187.436	9.73
187.655	36.35
187.875	15.87
188.095	30.21
188.314	-43.52
188.534	11.78
188.753	-64
188.973	-33.28
189.192	42.5
189.412	-27.14
189.631	17.92
189.851	11.78
190.07	34.3
190.29	-23.04
190.509	34.3
190.729	71.17
190.948	26.11
191.168	48.64
191.387	13.82
191.607	-20.99
191.826	67.07
192.045	5.63
192.265	22.02
192.484	22.02
192.704	-23.04
192.923	-49.66
193.142	50.69
193.362	32.26
193.581	58.88
193.8	-35.33
194.02	65.02
194.239	-16.9
194.458	46.59
194.678	5.63
194.897	-16.9
195.116	-20.99
195.335	-10.75
195.555	46.59
195.774	-37.38
195.993	69.12
196.212	62.98
196.432	32.26
196.651	-57.86
196.87	-14.85
197.089	77.31
197.308	-66.05
197.528	62.98
197.747	19.97
197.966	7.68
198.185	-4.61
198.404	-2.56
198.623	40.45
198.842	5.63
199.062	38.4
199.281	108.03
199.5	32.26
199.719	-29.18
199.938	46.59
200.157	73.21
200.376	-53.76
200.595	-27.14
200.814	11.78
201.033	67.07
201.252	11.78
201.471	32.26
201.69	40.45
201.909	81.41
202.128	11.78
202.347	-10.75
202.566	36.35
202.785	-76.29
203.004	9.73
203.223	81.41
203.442	71.17
203.661	-96.77
203.879	-18.94
204.098	-16.9
204.317	30.21
204.536	-16.9
204.755	-41.47
204.974	38.4
205.193	24.06
205.411	34.3
205.63	-16.9
205.849	-31.23
206.068	58.88
206.287	73.21
206.505	-10.75
206.724	-33.28
206.943	-31.23
207.162	-2.56
207.381	13.82
207.599	15.87
207.818	28.16
208.037	46.59
208.255	22.02
208.474	-20.99
208.693	3.58
208.911	-6.66
209.13	77.31
209.349	56.83
209.567	34.3
209.786	-47.62
210.005	46.59
210.223	-10.75
210.442	15.87
210.661	5.63
210.879	-31.23
211.098	28.16
211.316	1.54
211.535	38.4
211.753	24.06
211.972	44.54
212.191	-72.19
212.409	-23.04
212.628	-20.99
212.846	-27.14
213.065	36.35
213.283	56.83
213.502	-0.51
213.72	44.54
213.938	-6.66
214.157	-2.56
214.375	17.92
214.594	32.26
214.812	32.26
215.031	73.21
215.249	30.21
215.467	17.92
215.686	-4.61
215.904	-18.94
216.122	-6.66
216.341	69.12
216.559	32.26
216.778	-31.23
216.996	19.97
217.214	9.73
217.432	46.59
217.651	85.5
217.869	-27.14
218.087	81.41
218.306	13.82
218.524	9.73
218.742	-29.18
218.96	30.21
219.179	-55.81
219.397	91.65
219.615	7.68
219.833	38.4
220.051	-6.66
220.27	7.68
220.488	26.11
220.706	-49.66
220.924	15.87
221.142	-0.51
221.36	-16.9
221.578	5.63
221.796	7.68
222.015	-31.23
222.233	-66.05
222.451	-16.9
222.669	-2.56
222.887	28.16
223.105	-68.09
223.323	15.87
223.541	26.11
223.759	-18.94
223.977	69.12
224.195	-51.71
224.413	36.35
224.631	7.68
224.849	-35.33
225.067	58.88
225.285	-20.99
225.503	58.88
225.721	67.07
225.939	3.58
226.157	73.21
226.375	52.74
226.592	15.87
226.81	22.02
227.028	-2.56
227.246	-35.33
227.464	-47.62
227.682	17.92
227.9	-14.85
228.117	22.02
228.335	-6.66
228.553	32.26
228.771	95.74
228.989	65.02
229.206	38.4
229.424	-66.05
229.642	48.64
229.86	-41.47
230.077	50.69
230.295	36.35
230.513	40.45
230.731	30.21
230.948	38.4
231.166	65.02
231.384	19.97
231.601	69.12
231.819	65.02
232.037	-25.09
232.254	46.59
232.472	-31.23
232.689	58.88
232.907	132.61
233.125	1.54
233.342	-12.8
233.56	-43.52
233.777	28.16
233.995	-8.7
234.213	58.88
234.43	-23.04
234.648	-18.94
234.865	-20.99
235.083	34.3
235.3	71.17
235.518	32.26
235.735	-45.57
235.953	5.63
236.17	13.82
236.388	34.3
236.605	-27.14
236.822	26.11
237.04	-2.56
237.257	-12.8
237.475	-31.23
237.692	-35.33
237.909	1.54
238.127	83.45
238.344	54.78
238.562	24.06
238.779	71.17
238.996	34.3
239.214	34.3
239.431	77.31
239.648	69.12
239.865	40.45
240.083	9.73
240.3	73.21
240.517	-6.66
240.735	26.11
240.952	71.17
241.169	-0.51
241.386	-41.47
241.603	-33.28
241.821	-0.51
242.038	97.79
242.255	36.35
242.472	32.26
242.689	-18.94
242.907	40.45
243.124	24.06
243.341	-2.56
243.558	40.45
243.775	22.02
243.992	58.88
244.209	62.98
244.426	46.59
244.643	1.54
244.86	-10.75
245.078	54.78
245.295	17.92
245.512	-14.85
245.729	26.11
245.946	5.63
246.163	17.92
246.38	15.87
246.597	-2.56
246.814	-35.33
247.031	-109.05
247.248	5.63
247.464	-18.94
247.681	42.5
247.898	-29.18
248.115	34.3
248.332	-80.38
248.549	34.3
248.766	34.3
248.983	67.07
249.2	42.5
249.417	56.83
249.633	1.54
249.85	-29.18
250.067	9.73
250.284	32.26
250.501	-6.66
250.717	19.97
250.934	13.82
251.151	19.97
251.368	-57.86
251.585	40.45
251.801	-59.9
252.018	38.4
252.235	9.73
252.451	24.06
252.668	-18.94
252.885	-0.51
253.102	30.21
253.318	32.26
253.535	-29.18
253.752	-6.66
253.968	5.63
254.185	-35.33
254.401	5.63
254.618	22.02
254.835	-8.7
255.051	-4.61
255.268	-0.51
255.484	32.26
255.701	7.68
255.917	7.68
256.134	-16.9
256.351	69.12
256.567	-55.81
256.784	40.45
257	-27.14
257.217	62.98
257.433	-47.62
257.65	32.26
257.866	-2.56
258.082	58.88
258.299	36.35
258.515	54.78
258.732	-16.9
258.948	-0.51
259.165	26.11
259.381	-16.9
259.597	-31.23
259.814	-14.85
260.03	38.4
260.246	-43.52
260.463	40.45
260.679	38.4
260.895	28.16
261.112	44.54
261.328	-33.28
261.544	-51.71
261.761	11.78
261.977	-31.23
262.193	-31.23
262.409	1.54
262.626	5.63
262.842	3.58
263.058	-31.23
263.274	-72.19
263.49	46.59
263.707	24.06
263.923	40.45
264.139	-4.61
264.355	-8.7
264.571	5.63
264.787	69.12
265.004	56.83
265.22	-16.9
265.436	38.4
265.652	44.54
265.868	-20.99
266.084	32.26
266.3	54.78
266.516	30.21
266.732	46.59
266.948	-10.75
267.164	22.02
267.38	-37.38
267.596	73.21
267.812	30.21
268.028	22.02
268.244	-4.61
268.46	-12.8
268.676	-0.51
268.892	-4.61
269.108	46.59
269.324	5.63
269.54	-25.09
269.756	38.4
269.972	34.3
270.188	40.45
270.403	38.4
270.619	15.87
270.835	19.97
271.051	36.35
271.267	32.26
271.483	28.16
271.698	5.63
271.914	-25.09
272.13	15.87
272.346	5.63
272.562	28.16
272.777	30.21
272.993	-0.51
273.209	-57.86
273.425	1.54
273.64	26.11
273.856	-10.75
274.072	5.63
274.287	-16.9
274.503	60.93
274.719	-0.51
274.934	48.64
275.15	60.93
275.366	-10.75
275.581	11.78
275.797	26.11
276.012	38.4
276.228	62.98
276.444	3.58
276.659	79.36
276.875	5.63
277.09	-16.9
277.306	7.68
277.521	34.3
277.737	38.4
277.952	44.54
278.168	38.4
278.383	-2.56
278.599	110.08
278.814	13.82
279.03	-23.04
279.245	34.3
279.461	-49.66
279.676	58.88
279.892	-33.28
280.107	-2.56
280.322	5.63
280.538	3.58
280.753	-10.75
280.969	103.93
281.184	9.73
281.399	40.45
281.615	-27.14
281.83	-55.81
282.045	-12.8
282.26	9.73
282.476	38.4
282.691	62.98
282.906	13.82
283.122	34.3
283.337	7.68
283.552	42.5
283.767	-37.38
283.983	22.02
284.198	11.78
284.413	34.3
284.628	-41.47
284.843	17.92
285.058	26.11
285.274	97.79
285.489	30.21
285.704	50.69
285.919	-27.14
286.134	34.3
286.349	-18.94
286.564	38.4
286.779	103.93
286.995	15.87
287.21	-43.52
287.425	-27.14
287.64	44.54
287.855	17.92
288.07	-27.14
288.285	46.59
288.5	24.06
288.715	58.88
288.93	-41.47
289.145	5.63
289.36	-37.38
289.575	73.21
289.79	62.98
290.004	-6.66
290.219	-33.28
290.434	1.54
290.649	-72.19
290.864	48.64
291.079	17.92
291.294	54.78
291.509	87.55
291.724	-0.51
291.938	1.54
292.153	-16.9
292.368	-47.62
292.583	-2.56
292.798	36.35
293.012	46.59
293.227	-41.47
293.442	13.82
293.657	17.92
293.871	1.54
294.086	32.26
294.301	69.12
294.516	24.06
294.73	54.78
294.945	46.59
295.16	-18.94
295.374	60.93
295.589	13.82
295.804	81.41
296.018	11.78
296.233	40.45
296.447	54.78
296.662	-49.66
296.877	56.83
297.091	13.82
297.306	36.35
297.52	-18.94
297.735	26.11
297.949	30.21
298.164	5.63
298.378	-23.04
298.593	7.68
298.807	-37.38
299.022	38.4
299.236	-14.85
299.451	9.73
299.665	42.5
299.88	30.21
300.094	17.92
300.309	3.58
300.523	58.88
300.737	22.02
300.952	9.73
301.166	-2.56
301.381	-33.28
301.595	-18.94
301.809	-14.85
302.024	65.02
302.238	-57.86
302.452	-12.8
302.667	3.58
302.881	22.02
303.095	22.02
303.309	26.11
303.524	73.21
303.738	-0.51
303.952	46.59
304.166	75.26
304.381	-45.57
304.595	-8.7
304.809	-6.66
305.023	-12.8
305.237	-14.85
305.452	-16.9
305.666	89.6
305.88	15.87
306.094	73.21
306.308	-14.85
306.522	-43.52
306.736	36.35
306.95	-31.23
307.164	-14.85
307.379	46.59
307.593	44.54
307.807	-16.9
308.021	-25.09
308.235	24.06
308.449	40.45
308.663	-35.33
308.877	46.59
309.091	-25.09
309.305	13.82
309.519	7.68
309.733	-59.9
309.947	34.3
310.161	-8.7
310.374	69.12
310.588	69.12
310.802	-18.94
311.016	108.03
311.23	9.73
311.444	7.68
311.658	44.54
311.872	-27.14
312.085	-14.85
312.299	-72.19
312.513	-0.51
312.727	-2.56
312.941	38.4
313.154	50.69
313.368	-29.18
313.582	22.02
313.796	9.73
314.009	54.78
314.223	-18.94
314.437	7.68
314.651	-33.28
314.864	-16.9
315.078	-2.56
315.292	58.88
315.505	-27.14
315.719	73.21
315.933	7.68
316.146	1.54
316.36	3.58
316.573	24.06
316.787	22.02
317.001	91.65
317.214	15.87
317.428	-27.14
317.641	1.54
317.855	-16.9
318.068	17.92
318.282	48.64
318.495	5.63
318.709	58.88
318.922	-10.75
319.136	-18.94
319.349	34.3
319.563	3.58
319.776	7.68
319.99	40.45
320.203	-18.94
320.417	3.58
320.63	85.5
320.843	67.07
321.057	-4.61
321.27	-8.7
321.483	79.36
321.697	5.63
321.91	24.06
322.124	101.89
322.337	11.78
322.55	38.4
322.763	26.11
322.977	15.87
323.19	48.64
323.403	-0.51
323.617	48.64
323.83	50.69
324.043	22.02
324.256	75.26
324.469	30.21
324.683	-23.04
324.896	-43.52
325.109	40.45
325.322	46.59
325.535	-16.9
325.748	30.21
325.962	-12.8
326.175	-41.47
326.388	-8.7
326.601	93.69
326.814	-12.8
327.027	50.69
327.24	58.88
327.453	-10.75
327.666	5.63
327.879	-14.85
328.092	26.11
328.305	13.82
328.518	7.68
328.731	-41.47
328.944	73.21
329.157	7.68
329.37	62.98
329.583	81.41
329.796	54.78
330.009	1.54
330.222	62.98
330.435	58.88
330.648	24.06
330.861	54.78
331.073	30.21
331.286	-14.85
331.499	-33.28
331.712	-49.66
331.925	-8.7
332.138	-66.05
332.35	22.02
332.563	-16.9
332.776	81.41
332.989	56.83
333.202	38.4
333.414	-39.42
333.627	46.59
333.84	60.93
334.053	-2.56
334.265	-39.42
334.478	-47.62
334.691	9.73
334.903	38.4
335.116	9.73
335.329	-10.75
335.541	11.78
335.754	46.59
335.966	-20.99
336.179	-10.75
336.392	11.78
336.604	26.11
336.817	81.41
337.029	65.02
337.242	28.16
337.454	79.36
337.667	-18.94
337.88	48.64
338.092	-61.95
338.305	-8.7
338.517	62.98
338.729	71.17
338.942	60.93
339.154	38.4
339.367	3.58
339.579	32.26
339.792	-33.28
340.004	50.69
340.217	-2.56
340.429	-18.94
340.641	69.12
340.854	-53.76
341.066	5.63
341.278	-23.04
341.491	62.98
341.703	-6.66
341.915	-2.56
342.128	-6.66
342.34	-51.71
342.552	22.02
342.764	3.58
342.977	34.3
343.189	-23.04
343.401	1.54
343.613	-27.14
343.826	-8.7
344.038	-12.8
344.25	30.21
344.462	7.68
344.674	38.4
344.886	13.82
345.099	-25.09
345.311	32.26
345.523	26.11
345.735	15.87
345.947	22.02
346.159	-2.56
346.371	44.54
346.583	-68.09
346.795	-16.9
347.007	13.82
347.219	-4.61
347.431	-39.42
347.643	22.02
347.855	52.74
348.067	-25.09
348.279	-27.14
348.491	58.88
348.703	30.21
348.915	-2.56
349.127	11.78
349.339	60.93
349.551	65.02
349.763	46.59
349.975	-16.9
350.187	5.63
350.399	26.11
350.61	-10.75
350.822	42.5
351.034	15.87
351.246	-20.99
351.458	87.55
351.669	15.87
351.881	73.21
352.093	15.87
352.305	32.26
352.517	32.26
352.728	50.69
352.94	28.16
353.152	9.73
353.363	-43.52
353.575	-6.66
353.787	32.26
353.999	-16.9
354.21	46.59
354.422	42.5
354.633	-59.9
354.845	22.02
355.057	79.36
355.268	85.5
355.48	42.5
355.692	58.88
355.903	-33.28
356.115	5.63
356.326	28.16
356.538	1.54
356.749	5.63
356.961	19.97
357.172	-29.18
357.384	-74.24
357.595	-10.75
357.807	-23.04
358.018	-0.51
358.23	44.54
358.441	34.3
358.653	-18.94
358.864	-2.56
359.075	17.92
359.287	-10.75
359.498	44.54
359.709	52.74
359.921	67.07
360.132	-2.56
360.344	9.73
360.555	-35.33
360.766	30.21
360.977	-8.7
361.189	28.16
361.4	13.82
361.611	-20.99
361.823	13.82
362.034	11.78
362.245	-14.85
362.456	28.16
362.667	26.11
362.879	9.73
363.09	-0.51
363.301	58.88
363.512	-23.04
363.723	32.26
363.935	38.4
364.146	5.63
364.357	9.73
364.568	-4.61
364.779	-14.85
364.99	30.21
365.201	13.82
365.412	-51.71
365.623	87.55
365.834	83.45
366.045	-10.75
366.256	56.83
366.467	-16.9
366.678	69.12
366.889	-10.75
367.1	42.5
367.311	-18.94
367.522	22.02
367.733	13.82
367.944	-61.95
368.155	-16.9
368.366	22.02
368.577	-51.71
368.788	56.83
368.999	-31.23
369.209	-2.56
369.42	17.92
369.631	101.89
369.842	5.63
370.053	22.02
370.264	11.78
370.474	22.02
370.685	24.06
370.896	-31.23
371.107	7.68
371.317	15.87
371.528	-8.7
371.739	71.17
371.95	46.59
372.16	44.54
372.371	-27.14
372.582	-8.7
372.792	7.68
373.003	-14.85
373.214	30.21
373.424	13.82
373.635	26.11
373.846	34.3
374.056	-6.66
374.267	36.35
374.477	-8.7
374.688	-31.23
374.898	1.54
375.109	73.21
375.319	-4.61
375.53	75.26
375.74	-18.94
375.951	-2.56
376.161	15.87
376.372	56.83
376.582	-12.8
376.793	95.74
377.003	54.78
377.214	-12.8
377.424	-25.09
377.635	22.02
377.845	-35.33
378.055	54.78
378.266	-6.66
378.476	13.82
378.686	-55.81
378.897	17.92
379.107	17.92
379.317	38.4
379.528	46.59
379.738	87.55
379.948	48.64
380.158	3.58
380.369	3.58
380.579	46.59
380.789	22.02
380.999	46.59
381.21	-94.72
381.42	42.5
381.63	9.73
381.84	22.02
382.05	11.78
382.261	52.74
382.471	54.78
382.681	-6.66
382.891	-2.56
383.101	73.21
383.311	24.06
383.521	62.98
383.731	-4.61
383.941	-0.51
384.151	-39.42
384.361	1.54
384.571	-66.05
384.781	28.16
384.991	30.21
385.201	54.78
385.411	11.78
385.621	-0.51
385.831	22.02
386.041	71.17
386.251	-2.56
386.461	56.83
386.671	24.06
386.881	58.88
387.091	32.26
387.301	9.73
387.511	95.74
387.72	83.45
387.93	58.88
388.14	-61.95
388.35	-8.7
388.56	42.5
388.769	-45.57
388.979	28.16
389.189	7.68
389.399	36.35
389.609	-27.14
389.818	38.4
390.028	28.16
390.238	46.59
390.447	26.11
390.657	38.4
390.867	5.63
391.076	-0.51
391.286	-47.62
391.496	38.4
391.705	69.12
391.915	30.21
392.125	71.17
392.334	-31.23
392.544	32.26
392.753	7.68
392.963	44.54
393.172	24.06
393.382	-16.9
393.591	79.36
393.801	-14.85
394.01	13.82
394.22	-16.9
394.429	30.21
394.639	28.16
394.848	-8.7
395.058	22.02
395.267	-41.47
395.477	79.36
395.686	52.74
395.895	1.54
396.105	95.74
396.314	56.83
396.524	-25.09
396.733	-27.14
396.942	77.31
397.152	52.74
397.361	34.3
397.57	67.07
397.78	81.41
397.989	11.78
398.198	32.26
398.407	19.97
398.617	13.82
398.826	-51.71
399.035	34.3
399.244	32.26
399.453	1.54
399.663	54.78
399.872	79.36
400.081	-18.94
400.29	26.11
400.499	52.74
400.708	77.31
400.917	22.02
401.127	19.97
401.336	32.26
401.545	34.3
401.754	24.06
401.963	60.93
402.172	15.87
402.381	1.54
402.59	34.3
402.799	87.55
403.008	79.36
403.217	22.02
403.426	5.63
403.635	-25.09
403.844	32.26
404.053	26.11
404.262	52.74
404.471	34.3
404.68	-16.9
404.888	24.06
405.097	46.59
405.306	5.63
405.515	-6.66
405.724	22.02
405.933	46.59
406.142	44.54
406.35	-14.85
406.559	28.16
406.768	83.45
406.977	144.89
407.185	9.73
407.394	134.65
407.603	75.26
407.812	19.97
408.02	75.26
408.229	44.54
408.438	52.74
408.646	87.55
408.855	75.26
409.064	79.36
409.272	95.74
409.481	60.93
409.69	34.3
409.898	91.65
410.107	58.88
410.315	71.17
410.524	114.17
410.733	99.84
410.941	73.21
411.15	136.7
411.358	67.07
411.567	71.17
411.775	87.55
411.984	126.46
412.192	83.45
412.401	103.93
412.609	83.45
412.818	169.47
413.026	116.22
413.234	122.37
413.443	52.74
413.651	126.46
413.86	183.81
414.068	177.66
414.276	212.48
414.485	130.56
414.693	237.05
414.901	202.24
415.11	134.65
415.318	198.14
415.526	163.33
415.734	216.57
415.943	196.09
416.151	220.67
416.359	237.05
416.567	140.8
416.776	282.11
416.984	241.15
417.192	249.34
417.4	204.28
417.608	222.72
417.817	261.63
418.025	294.4
418.233	271.87
418.441	300.54
418.649	312.83
418.857	257.53
419.065	349.69
419.273	269.82
419.481	316.92
419.689	327.16
419.897	337.4
420.105	325.12
420.313	419.32
420.521	343.55
420.729	452.09
420.937	392.7
421.145	419.32
421.353	470.52
421.561	425.47
421.769	511.48
421.977	501.24
422.185	445.95
422.393	486.9
422.601	509.43
422.809	521.72
423.017	566.78
423.224	579.06
423.432	597.49
423.64	581.11
423.848	613.88
424.056	595.45
424.263	640.5
424.471	718.33
424.679	689.65
424.887	699.89
425.094	775.67
425.302	783.86
425.51	812.53
425.718	865.78
425.925	777.72
426.133	900.59
426.341	998.9
426.548	933.36
426.756	955.89
426.964	974.32
427.171	984.56
427.379	1000.94
427.586	1048.05
427.794	1046
428.001	1127.92
428.209	1181.17
428.417	1136.11
428.624	1195.5
428.832	1275.37
429.039	1201.65
429.247	1238.51
429.454	1381.87
429.662	1461.74
429.869	1424.87
430.076	1428.97
430.284	1422.83
430.491	1428.97
430.699	1607.14
430.906	1572.33
431.114	1615.34
431.321	1680.87
431.528	1574.38
431.736	1805.8
431.943	1799.65
432.15	1820.13
432.358	1762.79
432.565	1961.44
432.772	1842.66
432.979	1908.19
433.187	2061.79
433.394	2057.7
433.601	2137.57
433.808	2201.05
434.016	2184.67
434.223	2305.5
434.43	2364.89
434.637	2407.9
434.844	2495.96
435.052	2455
435.259	2553.31
435.466	2530.78
435.673	2430.43
435.88	2577.88
436.087	2895.32
436.294	2897.36
436.501	2688.47
436.708	2907.6
436.915	2913.75
437.122	3038.67
437.329	3003.86
437.537	3091.92
437.743	3177.94
437.95	3034.58
438.157	3186.13
438.364	3321.29
438.571	3407.31
438.778	3483.08
438.985	3724.74
439.192	3638.73
439.399	3710.41
439.606	3634.63
439.813	3913.16
440.02	3997.12
440.227	4005.31
440.433	3923.4
440.64	4070.85
440.847	4120
441.054	4160.96
441.261	4421.05
441.467	4507.07
441.674	4523.45
441.881	4701.62
442.088	4679.1
442.294	4693.43
442.501	4793.78
442.708	4750.78
442.914	5078.45
443.121	5078.45
443.328	4988.34
443.534	5633.45
443.741	5254.58
443.948	5189.04
444.154	5668.27
444.361	5567.92
444.568	5569.96
444.774	5457.32
444.981	5608.87
445.187	5825.96
445.394	5985.7
445.6	6122.91
445.807	6593.95
446.013	6391.2
446.22	6657.43
446.426	6903.19
446.633	6782.36
446.839	7114.13
447.046	6821.27
447.252	7075.22
447.459	7267.73
447.665	7011.73
447.871	7511.44
448.078	7724.43
448.284	7234.96
448.491	7505.29
448.697	7937.41
448.903	7972.23
449.11	8144.26
449.316	8166.79
449.522	8142.21
449.728	8246.66
449.935	8492.41
450.141	8381.82
450.347	8564.09
450.553	8455.55
450.76	8260.99
450.966	8764.79
451.172	8574.33
451.378	8877.43
451.584	8916.34
451.791	8961.4
451.997	8940.92
452.203	9082.23
452.409	9018.74
452.615	9018.74
452.821	8652.16
453.027	8648.06
453.233	9196.92
453.44	8711.55
453.646	8852.86
453.852	9004.41
454.058	8844.67
454.264	8942.97
454.47	9184.63
454.676	8664.44
454.882	9115
455.088	8287.62
455.294	8312.19
455.5	8590.72
455.705	8748.41
455.911	8324.48
456.117	8174.98
456.323	7857.54
456.529	7740.81
456.735	7781.77
456.941	7648.65
457.147	7583.12
457.352	7411.09
457.558	7144.85
457.764	7185.81
457.97	7042.45
458.176	6888.85
458.381	7153.04
458.587	6698.39
458.793	6802.84
458.999	6350.24
459.204	6929.81
459.41	6575.52
459.616	6186.4
459.821	6256.03
460.027	6208.93
460.233	5879.21
460.438	5756.33
460.644	5793.19
460.85	5598.63
461.055	5481.9
461.261	5336.49
461.466	5072.31
461.672	4847.03
461.878	5258.67
462.083	4961.72
462.289	4662.71
462.494	4822.45
462.7	4648.38
462.905	4451.77
463.111	4584.89
463.316	4701.62
463.522	4306.37
463.727	4472.25
463.932	4543.93
464.138	4306.37
464.343	4449.72
464.549	4349.37
464.754	4470.2
464.959	4462.01
465.165	4402.62
465.37	4273.6
465.575	4142.53
465.781	4330.94
465.986	4191.68
466.191	4089.28
466.397	4027.84
466.602	3884.48
466.807	4111.81
467.012	3859.91
467.218	3999.17
467.423	4021.7
467.628	4095.43
467.833	4113.86
468.038	4013.51
468.244	3915.2
468.449	4101.57
468.654	3970.5
468.859	3857.86
469.064	3761.61
469.269	3653.06
469.474	3681.74
469.679	3884.48
469.885	3556.81
470.09	3642.82
470.295	3835.33
470.5	3745.22
470.705	3651.02
470.91	3560.91
471.115	3687.88
471.32	3603.91
471.525	3763.65
471.73	3446.22
471.935	3521.99
472.139	3413.45
472.344	3349.96
472.549	3425.74
472.754	3358.16
472.959	3360.2
473.164	3110.35
473.369	3122.64
473.574	3311.05
473.778	3261.9
473.983	3251.66
474.188	3182.03
474.393	3075.54
474.598	3026.39
474.802	3177.94
475.007	3163.6
475.212	2915.8
475.417	2893.27
475.621	2958.8
475.826	2971.09
476.031	2880.98
476.235	2946.52
476.44	2829.78
476.645	2784.73
476.849	2854.36
477.054	2852.31
477.259	2653.66
477.463	2717.14
477.668	2766.29
477.872	2754.01
478.077	2694.61
478.282	2536.92
478.486	2563.54
478.691	2584.02
478.895	2649.56
479.1	2573.78
479.304	2711
479.509	2457.05
479.713	2590.17
479.918	2547.16
480.122	2563.54
480.326	2393.56
480.531	2479.58
480.735	2475.48
480.94	2434.52
481.144	2633.18
481.348	2375.13
481.553	2522.59
481.757	2344.41
481.961	2485.72
482.166	2391.52
482.37	2551.26
482.574	2368.99
482.778	2389.47
482.983	2426.33
483.187	2287.07
483.391	2493.91
483.595	2405.85
483.8	2467.29
484.004	2440.67
484.208	2356.7
484.412	2471.39
484.616	2379.23
484.821	2407.9
485.025	2403.8
485.229	2401.76
485.433	2430.43
485.637	2366.94
485.841	2448.86
486.045	2495.96
486.249	2457.05
486.453	2414.04
486.657	2446.81
486.861	2401.76
487.065	2473.43
487.269	2461.15
487.473	2403.8
487.677	2498.01
487.881	2473.43
488.085	2432.47
488.289	2420.19
488.493	2428.38
488.697	2565.59
488.901	2412
489.105	2520.54
489.309	2504.15
489.512	2518.49
489.716	2432.47
489.92	2547.16
490.124	2463.19
490.328	2641.37
490.531	2500.06
490.735	2559.45
490.939	2567.64
491.143	2573.78
491.346	2559.45
491.55	2518.49
491.754	2565.59
491.958	2573.78
492.161	2573.78
492.365	2616.79
492.569	2762.2
492.772	2680.28
492.976	2663.9
493.18	2579.93
493.383	2657.75
493.587	2762.2
493.79	2629.08
493.994	2760.15
494.197	2788.82
494.401	2846.16
494.605	2792.92
494.808	2946.52
495.012	2786.77
495.215	2782.68
495.419	2944.47
495.622	2952.66
495.825	2891.22
496.029	2883.03
496.232	2938.32
496.436	2964.95
496.639	3130.83
496.843	3089.87
497.046	3179.98
497.249	3167.7
497.453	3229.13
497.656	3139.02
497.859	3284.43
498.063	3278.29
498.266	3298.77
498.469	3335.63
498.673	3323.34
498.876	3462.6
499.079	3452.36
499.282	3618.25
499.485	3620.3
499.689	3640.78
499.892	3554.76
500.095	3593.67
500.298	3825.09
500.501	3708.36
500.705	3784.13
500.908	3878.34
501.111	3868.1
501.314	3923.4
501.517	4099.52
501.72	4109.76
501.923	4163.01
502.126	4175.3
502.329	4337.09
502.532	4251.07
502.735	4240.83
502.938	4376
503.141	4416.96
503.344	4451.77
503.547	4494.78
503.75	4511.16
503.953	4595.13
504.156	4785.59
504.359	4791.73
504.562	4822.45
504.765	4842.93
504.968	4834.74
505.17	4814.26
505.373	4953.52
505.576	5238.19
505.779	5244.34
505.982	5238.19
506.185	5496.24
506.387	5316.01
506.59	5563.82
506.793	5584.3
506.996	5660.07
507.198	5666.22
507.401	5727.66
507.604	5789.1
507.807	5918.12
508.009	6034.85
508.212	6124.96
508.415	6071.72
508.617	6135.2
508.82	6114.72
509.022	6188.45
509.225	6260.13
509.428	6483.36
509.63	6421.92
509.833	6444.45
510.035	6811.03
510.238	6806.94
510.44	6856.09
510.643	6895
510.845	7042.45
511.048	6862.23
511.25	7021.97
511.453	7122.32
511.655	7443.85
511.858	7304.59
512.06	7466.38
512.262	7484.81
512.465	7411.09
512.667	7564.68
512.87	7703.95
513.072	7839.11
513.274	8121.73
513.477	8355.2
513.679	8217.99
513.881	8410.5
514.084	8332.67
514.286	8404.35
514.488	8385.92
514.69	8770.94
514.893	8789.37
515.095	8908.15
515.297	8830.33
515.499	9051.51
515.701	8973.69
515.904	9149.81
516.106	9170.29
516.308	9512.3
516.51	9334.13
516.712	9403.76
516.914	9731.44
517.116	9837.93
517.318	9940.33
517.52	9925.99
517.722	9936.23
517.925	10272.1
518.127	10374.5
518.329	10388.83
518.531	10380.64
518.733	10440.03
518.935	10761.56
519.136	10599.77
519.338	10861.91
519.54	10691.93
519.742	10900.83
519.944	11122.01
520.146	11216.21
520.348	11316.56
520.55	11468.11
520.752	11613.52
520.954	11572.56
521.155	11521.36
521.357	12092.74
521.559	12195.14
521.761	12203.33
521.963	12090.7
522.164	12211.53
522.366	12299.59
522.568	12535.1
522.77	12674.37
522.971	12750.14
523.173	12600.64
523.375	12744
523.576	12973.37
523.778	13002.04
523.98	13030.71
524.181	13100.34
524.383	13131.06
524.584	13292.85
524.786	13471.03
524.988	13237.56
525.189	13665.58
525.391	13554.99
525.592	13694.26
525.794	13862.19
525.995	13741.36
526.197	13827.37
526.398	13937.96
526.6	14056.75
526.801	14210.34
527.003	14128.42
527.204	14351.65
527.406	14488.87
527.607	14296.36
527.808	14521.63
528.01	14161.19
528.211	14490.91
528.412	14710.05
528.614	14654.75
528.815	14658.85
529.016	14951.71
529.218	14867.74
529.419	14779.68
529.62	14705.95
529.822	15025.43
530.023	14834.97
530.224	14804.25
530.425	15072.54
530.626	14791.97
530.828	14892.32
531.029	15156.5
531.23	14791.97
531.431	15213.85
531.632	15258.9
531.833	15211.8
532.035	15242.52
532.236	15154.46
532.437	15422.74
532.638	15342.87
532.839	15236.38
533.04	15379.73
533.241	15260.95
533.442	15525.14
533.643	15334.68
533.844	15256.86
534.045	15340.82
534.246	15179.03
534.447	15400.21
534.648	15529.24
534.849	15426.84
535.05	15410.45
535.251	15498.52
535.451	15383.83
535.652	15424.79
535.853	15398.17
536.054	15400.21
536.255	15469.84
536.456	15361.3
536.657	15480.08
536.857	15406.36
537.058	15258.9
537.259	15541.52
537.46	15578.39
537.66	15512.85
537.861	15174.94
538.062	15480.08
538.263	15402.26
538.463	15297.81
538.664	15609.11
538.865	15594.77
539.065	15537.43
539.266	15410.45
539.466	15471.89
539.667	15559.95
539.868	15662.35
540.068	15435.03
540.269	15469.84
540.469	15672.59
540.67	15392.02
540.87	15523.09
541.071	15346.97
541.271	15398.17
541.472	15498.52
541.672	15572.24
541.873	15383.83
542.073	15166.74
542.274	15779.09
542.474	15510.8
542.675	15373.59
542.875	15537.43
543.075	15631.63
543.276	15439.12
543.476	15598.87
543.676	15570.19
543.877	15820.05
544.077	15502.61
544.277	15353.11
544.478	15451.41
544.678	15416.6
544.878	15402.26
545.078	15408.4
545.279	15291.67
545.479	15226.14
545.679	15394.07
545.879	15562
546.079	15394.07
546.28	15422.74
546.48	15080.73
546.68	15312.15
546.88	15686.93
547.08	15416.6
547.28	15232.28
547.48	15361.3
547.68	15531.28
547.88	15400.21
548.081	15537.43
548.281	15389.97
548.481	15385.88
548.681	15463.7
548.881	15373.59
549.081	15351.06
549.28	15226.14
549.48	15449.36
549.68	15498.52
549.88	15684.88
550.08	15303.96
550.28	15625.49
550.48	15467.8
550.68	15594.77
550.88	15447.32
551.08	15521.04
551.279	15422.74
551.479	15217.94
551.679	15658.26
551.879	15232.28
552.079	15514.9
552.278	15353.11
552.478	15486.23
552.678	15361.3
552.878	15277.33
553.077	15443.22
553.277	15215.9
553.477	15281.43
553.676	15187.22
553.876	15506.71
554.076	15205.66
554.275	15398.17
554.475	15088.92
554.674	14939.42
554.874	15066.39
555.074	15033.63
555.273	15176.98
555.473	15289.62
555.672	14992.67
555.872	15230.23
556.071	15058.2
556.271	15301.91
556.47	15236.38
556.67	14976.28
556.869	15127.83
557.068	15011.1
557.268	14914.84
557.467	15009.05
557.667	15070.49
557.866	14959.9
558.065	14755.1
558.265	14964
558.464	14859.55
558.663	15103.26
558.863	14951.71
559.062	15113.5
559.261	14820.64
559.461	14890.27
559.66	14755.1
559.859	14771.49
560.058	14664.99
560.258	14968.09
560.457	14591.27
560.656	14912.8
560.855	14535.97
561.054	14587.17
561.253	14511.39
561.453	14783.77
561.652	14660.9
561.851	14409
562.05	14615.84
562.249	14212.39
562.448	14669.09
562.647	14388.52
562.846	14431.52
563.045	14505.25
563.244	14177.58
563.443	14578.98
563.642	14396.71
563.841	14419.24
564.04	14382.37
564.239	14644.51
564.438	14294.31
564.637	14069.03
564.836	14302.5
565.035	13993.26
565.234	13999.4
565.432	14202.15
565.631	14097.7
565.83	14122.28
566.029	14081.32
566.228	13950.25
566.427	13856.04
566.625	13735.21
566.824	13794.61
567.023	13759.79
567.222	13665.58
567.42	13897
567.619	13647.15
567.818	13692.21
568.016	13700.4
568.215	13751.6
568.414	13559.09
568.612	13776.17
568.811	13477.17
569.01	13415.73
569.208	13403.44
569.407	13403.44
569.605	13299
569.804	13382.96
570.002	13161.78
570.201	13591.86
570.4	13163.83
570.598	13020.47
570.797	13167.93
570.995	13221.17
571.193	13143.35
571.392	13016.38
571.59	13196.6
571.789	12999.99
571.987	12971.32
572.186	12932.41
572.384	12502.34
572.582	12971.32
572.781	12866.88
572.979	12649.79
573.177	12655.93
573.376	12729.66
573.574	12471.62
573.772	12832.06
573.971	12444.99
574.169	12459.33
574.367	12381.51
574.565	12367.17
574.763	12496.19
574.962	12340.55
575.16	12305.73
575.358	12324.16
575.556	12252.49
575.754	12461.38
575.952	12189
576.151	12109.13
576.349	12039.5
576.547	12303.68
576.745	12051.78
576.943	12379.46
577.141	12090.7
577.339	12197.19
577.537	11924.81
577.735	11984.2
577.933	11849.04
578.131	11832.65
578.329	12039.5
578.527	11611.47
578.725	11662.67
578.923	11910.47
579.121	11461.97
579.319	11896.14
579.516	11582.8
579.714	11775.31
579.912	11498.83
580.11	11519.31
580.308	11613.52
580.506	11515.22
580.704	11064.66
580.901	11507.02
581.099	11265.36
581.297	11279.7
581.495	11230.55
581.692	11232.6
581.89	11156.82
582.088	11156.82
582.285	11251.03
582.483	11347.28
582.681	11068.76
582.878	10900.83
583.076	11009.37
583.274	11060.57
583.471	10968.41
583.669	10888.54
583.866	10825.05
584.064	10755.42
584.262	10800.48
584.459	10831.19
584.657	10915.16
584.854	10956.12
585.052	10526.05
585.249	10648.93
585.447	10712.41
585.644	10605.92
585.841	10642.78
586.039	10812.76
586.236	10480.99
586.434	10503.52
586.631	10444.13
586.828	10431.84
587.026	10501.47
587.223	10294.63
587.42	10290.53
587.618	10345.83
587.815	10311.01
588.012	10210.66
588.21	10114.41
588.407	10044.77
588.604	10075.49
588.801	10198.37
588.999	10157.41
589.196	10136.93
589.393	9975.14
589.59	9987.43
589.787	10059.11
589.984	9932.14
590.182	9649.52
590.379	9966.95
590.576	9788.78
590.773	9958.76
590.97	9942.38
591.167	9635.18
591.364	9631.09
591.561	9878.89
591.758	9692.52
591.955	9635.18
592.152	9606.51
592.349	9526.64
592.546	9502.06
592.743	9547.12
592.94	9479.54
593.137	9467.25
593.334	9508.21
593.531	9262.45
593.727	9448.82
593.924	9436.53
594.121	9186.68
594.318	9377.14
594.515	9362.8
594.712	9315.7
594.908	9125.24
595.105	9280.88
595.302	9196.92
595.499	8967.54
595.696	8928.63
595.892	8977.78
596.089	9090.42
596.286	9399.66
596.482	8951.16
596.679	8885.62
596.876	9008.5
597.072	8828.28
597.269	8996.21
597.466	8822.14
597.662	8844.67
597.859	8904.06
598.055	8754.55
598.252	8772.99
598.448	8811.9
598.645	8691.07
598.841	8605.05
599.038	8527.23
599.234	8662.4
599.431	8584.57
599.627	8373.63
599.824	8576.38
600.02	8484.22
600.217	8516.99
600.413	8465.79
600.609	8342.91
600.806	8500.61
601.002	8269.19
601.198	8242.56
601.395	8316.29
601.591	8363.39
601.787	8125.83
601.984	8172.93
602.18	8400.26
602.376	8191.36
602.572	8058.25
602.769	8308.1
602.965	8029.57
603.161	8238.47
603.357	7923.08
603.553	8041.86
603.75	8256.9
603.946	7943.56
604.142	8123.78
604.338	7939.46
604.534	8027.53
604.73	7984.52
604.926	7761.29
605.122	7875.98
605.318	7845.26
605.514	7890.31
605.71	7544.2
605.906	7767.43
606.102	7595.4
606.298	7918.98
606.494	7843.21
606.69	7552.4
606.886	7468.43
607.082	7525.77
607.278	7564.68
607.474	7445.9
607.67	7763.34
607.866	7421.33
608.062	7626.12
608.257	7437.71
608.453	7493.01
608.649	7544.2
608.845	7320.98
609.041	7685.51
609.236	7421.33
609.432	7320.98
609.628	7425.42
609.824	7345.55
610.019	7282.06
610.215	7353.74
610.411	7392.66
610.606	7259.54
610.802	7361.94
610.998	7323.02
611.193	7413.13
611.389	7224.72
611.584	7003.54
611.78	7237.01
611.976	7138.71
612.171	7132.56
612.367	7040.4
612.562	7015.83
612.758	6962.58
612.953	6999.45
613.149	7146.9
613.344	7024.02
613.539	7175.57
613.735	6845.85
613.93	6968.73
614.126	6796.7
614.321	7118.23
614.517	7009.69
614.712	6954.39
614.907	6808.98
615.103	6817.18
615.298	6940.05
615.493	6847.9
615.688	6704.54
615.884	6757.78
616.079	6792.6
616.274	6884.76
616.47	6665.63
616.665	6716.83
616.86	6528.41
617.055	6557.08
617.25	6606.24
617.445	6591.9
617.641	6557.08
617.836	6698.39
618.031	6448.54
618.226	6788.5
618.421	6380.96
618.616	6675.87
618.811	6356.38
619.006	6497.69
619.201	6266.27
619.396	6405.53
619.591	6307.23
619.786	6415.77
619.981	6170.02
620.176	6315.42
620.371	6129.06
620.566	6231.46
620.761	6223.27
620.956	6415.77
621.151	6127.01
621.346	6055.33
621.541	6176.16
621.735	6227.36
621.93	5918.12
622.125	6100.39
622.32	6016.42
622.515	5940.65
622.709	6170.02
622.904	5854.63
623.099	5744.04
623.294	5969.32
623.488	5723.56
623.683	5760.42
623.878	5799.34
624.072	5764.52
624.267	5557.68
624.462	5615.02
624.656	5486
624.851	5586.35
625.046	5553.58
625.24	5541.29
625.435	5641.64
625.629	5445.04
625.824	5522.86
626.018	5305.78
626.213	5336.49
626.407	5385.65
626.602	5438.89
626.796	5244.34
626.991	5404.08
627.185	5375.41
627.38	5283.25
627.574	5193.14
627.768	5160.37
627.963	5213.62
628.157	5074.35
628.352	5066.16
628.546	5043.64
628.74	5070.26
628.935	4939.19
629.129	5051.83
629.323	4789.69
629.517	4908.47
629.712	4933.04
629.906	4861.37
630.1	4847.03
630.294	4601.27
630.489	4728.25
630.683	4718.01
630.877	4658.62
631.071	4851.13
631.265	4640.19
631.459	4627.9
631.653	4675
631.848	4748.73
632.042	4554.17
632.236	4713.91
632.43	4623.8
632.624	4355.52
632.818	4466.11
633.012	4396.48
633.206	4505.02
633.4	4404.67
633.594	4482.49
633.788	4396.48
633.982	4433.34
634.176	4306.37
634.369	4398.52
634.563	4320.7
634.757	4345.28
634.951	4177.34
635.145	4302.27
635.339	4228.54
635.533	4128.19
635.726	4187.58
635.92	4109.76
636.114	4097.47
636.308	4146.62
636.501	4111.81
636.695	4107.71
636.889	3898.82
637.083	4011.46
637.276	3958.21
637.47	3999.17
637.664	3851.72
637.857	3859.91
638.051	3861.96
638.244	3759.56
638.438	3900.87
638.632	3839.43
638.825	3788.23
639.019	3939.78
639.212	3728.84
639.406	3749.32
639.599	3677.64
639.793	3741.13
639.986	3642.82
640.18	3667.4
640.373	3593.67
640.567	3708.36
640.76	3583.43
640.954	3517.9
641.147	3571.15
641.34	3470.8
641.534	3491.27
641.727	3505.61
641.92	3495.37
642.114	3349.96
642.307	3390.92
642.5	3499.47
642.694	3444.17
642.887	3352.01
643.08	3304.91
643.273	3294.67
643.467	3220.94
643.66	3329.49
643.853	3196.37
644.046	3192.27
644.239	3112.4
644.432	3204.56
644.626	3036.63
644.819	3184.08
645.012	3026.39
645.205	3120.59
645.398	3046.87
645.591	2979.28
645.784	3040.72
645.977	2995.67
646.17	3032.53
646.363	3044.82
646.556	2987.47
646.749	2880.98
646.942	2837.97
647.135	3020.24
647.328	2944.47
647.521	2797.01
647.714	2827.73
647.907	2887.12
648.099	2784.73
648.292	2751.96
648.485	2741.72
648.678	2840.02
648.871	2745.81
649.064	2700.76
649.256	2692.57
649.449	2719.19
649.642	2749.91
649.835	2612.7
650.027	2620.89
650.22	2649.56
650.413	2653.66
650.605	2561.5
650.798	2584.02
650.991	2557.4
651.183	2579.93
651.376	2479.58
651.568	2522.59
651.761	2407.9
651.954	2500.06
652.146	2596.31
652.339	2545.11
652.531	2483.67
652.724	2446.81
652.916	2471.39
653.109	2438.62
653.301	2325.98
653.494	2440.67
653.686	2387.42
653.879	2309.6
654.071	2350.56
654.263	2315.74
654.456	2430.43
654.648	2389.47
654.84	2336.22
655.033	2242.01
655.225	2297.31
655.417	2178.53
655.61	2274.78
655.802	2319.84
655.994	2289.12
656.186	2242.01
656.379	2239.97
656.571	2211.29
656.763	2139.62
656.955	2110.94
657.148	2233.82
657.34	2069.98
657.532	2205.15
657.724	2170.33
657.916	2106.85
658.108	2041.31
658.3	2184.67
658.492	2102.75
658.684	2018.79
658.876	2108.9
659.068	2035.17
659.26	1943.01
659.452	2026.98
659.644	1959.39
659.836	2010.59
660.028	1936.87
660.22	1979.87
660.412	2029.03
660.604	1990.11
660.796	1885.67
660.988	1908.19
661.18	1981.92
661.372	1922.53
661.563	1875.43
661.755	1807.84
661.947	1877.48
662.139	1816.04
662.331	1881.57
662.522	1799.65
662.714	1730.02
662.906	1766.89
663.097	1865.19
663.289	1816.04
663.481	1770.98
663.673	1719.78
663.864	1658.34
664.056	1693.16
664.247	1684.97
664.439	1668.58
664.631	1697.25
664.822	1730.02
665.014	1725.93
665.205	1789.41
665.397	1648.1
665.588	1658.34
665.78	1615.34
665.971	1639.91
666.163	1607.14
666.354	1627.62
666.546	1584.62
666.737	1586.66
666.929	1621.48
667.12	1603.05
667.311	1517.03
667.503	1523.18
667.694	1627.62
667.885	1539.56
668.077	1557.99
668.268	1496.55
668.459	1388.01
668.651	1476.07
668.842	1490.41
669.033	1555.94
669.224	1469.93
669.416	1549.8
669.607	1521.13
669.798	1441.26
669.989	1482.22
670.18	1428.97
670.371	1490.41
670.563	1377.77
670.754	1416.68
670.945	1465.83
671.136	1572.33
671.327	1347.05
671.518	1379.82
671.709	1465.83
671.9	1431.02
672.091	1414.63
672.282	1385.96
672.473	1349.1
672.664	1359.34
672.855	1340.91
673.046	1471.98
673.237	1392.11
673.428	1404.39
673.619	1371.63
673.809	1295.85
674	1283.56
674.191	1277.42
674.382	1402.35
674.573	1383.91
674.764	1299.95
674.954	1422.83
675.145	1324.52
675.336	1363.44
675.527	1267.18
675.717	1324.52
675.908	1314.28
676.099	1377.77
676.289	1363.44
676.48	1357.29
676.671	1310.19
676.861	1215.98
677.052	1373.68
677.243	1310.19
677.433	1234.41
677.624	1215.98
677.814	1297.9
678.005	1299.95
678.195	1310.19
678.386	1261.04
678.576	1228.27
678.767	1230.32
678.957	1261.04
679.148	1308.14
679.338	1342.96
679.529	1238.51
679.719	1258.99
679.909	1263.08
680.1	1238.51
680.29	1314.28
680.481	1310.19
680.671	1234.41
680.861	1263.08
681.052	1205.74
681.242	1310.19
681.432	1226.22
681.622	1293.8
681.813	1285.61
682.003	1326.57
682.193	1218.03
682.383	1293.8
682.573	1277.42
682.764	1242.61
682.954	1267.18
683.144	1289.71
683.334	1353.2
683.524	1248.75
683.714	1209.84
683.904	1226.22
684.094	1302
684.284	1267.18
684.474	1285.61
684.664	1332.72
684.854	1256.94
685.044	1304.04
685.234	1220.08
685.424	1250.8
685.614	1252.84
685.804	1236.46
685.994	1351.15
686.184	1285.61
686.374	1269.23
686.564	1234.41
686.753	1281.52
686.943	1277.42
687.133	1304.04
687.323	1254.89
687.513	1267.18
687.702	1201.65
687.892	1203.69
688.082	1121.77
688.272	1244.65
688.461	1226.22
688.651	1252.84
688.841	1179.12
689.03	1261.04
689.22	1193.45
689.41	1289.71
689.599	1226.22
689.789	1256.94
689.979	1197.55
690.168	1193.45
690.358	1218.03
690.547	1209.84
690.737	1285.61
690.926	1271.28
691.116	1211.89
691.305	1168.88
691.495	1154.54
691.684	1170.93
691.874	1244.65
692.063	1146.35
692.252	1222.13
692.442	1213.93
692.631	1160.69
692.82	1283.56
693.01	1156.59
693.199	1181.17
693.388	1199.6
693.578	1215.98
693.767	1103.34
693.956	1164.78
694.146	1193.45
694.335	1265.13
694.524	1267.18
694.713	1152.49
694.902	1125.87
695.092	1164.78
695.281	1222.13
695.47	1156.59
695.659	1213.93
695.848	1119.73
696.037	1273.32
696.226	1144.3
696.415	1254.89
696.604	1195.5
696.793	1263.08
696.982	1132.01
697.171	1195.5
697.36	1082.86
697.549	1138.16
697.738	1209.84
697.927	1091.06
698.116	1095.15
698.305	1177.07
698.494	1228.27
698.683	1140.21
698.872	1154.54
699.061	1136.11
699.25	1175.02
699.438	1109.49
699.627	1156.59
699.816	1308.14
700.005	1181.17
700.193	1148.4
700.382	1291.76
700.571	1252.84
700.76	1244.65
700.948	1115.63
701.137	1209.84
701.326	1148.4
701.514	1107.44
701.703	1072.62
701.892	1078.77
702.08	1197.55
702.269	1095.15
702.457	1097.2
702.646	1127.92
702.834	1209.84
703.023	1013.23
703.212	1105.39
703.4	1166.83
703.589	1193.45
703.777	1181.17
703.965	1052.14
704.154	1105.39
704.342	1093.1
704.531	1177.07
704.719	1062.38
704.907	1089.01
705.096	1203.69
705.284	1054.19
705.472	1070.58
705.661	1086.96
705.849	1082.86
706.037	1091.06
706.226	1086.96
706.414	1066.48
706.602	1037.81
706.79	1113.58
706.979	1078.77
707.167	1070.58
707.355	1041.9
707.543	1093.1
707.731	1111.54
707.919	1062.38
708.107	1078.77
708.296	1101.3
708.484	1015.28
708.672	1078.77
708.86	1111.54
709.048	1025.52
709.236	1054.19
709.424	1074.67
709.612	1086.96
709.8	1041.9
709.988	1111.54
710.176	955.89
710.364	1097.2
710.551	1021.42
710.739	1050.1
710.927	982.51
711.115	1029.62
711.303	972.27
711.491	1007.09
711.679	955.89
711.866	1011.18
712.054	1058.29
712.242	1097.2
712.43	1002.99
712.617	1043.95
712.805	1041.9
712.993	943.6
713.181	990.7
713.368	1013.23
713.556	1009.14
713.744	996.85
713.931	1062.38
714.119	1015.28
714.306	994.8
714.494	1041.9
714.682	957.94
714.869	1058.29
715.057	957.94
715.244	1123.82
715.432	984.56
715.619	957.94
715.807	962.03
715.994	935.41
716.182	1058.29
716.369	1000.94
716.556	1009.14
716.744	951.79
716.931	1023.47
717.119	941.55
717.306	998.9
717.493	947.7
717.681	990.7
717.868	908.79
718.055	957.94
718.242	933.36
718.43	980.47
718.617	976.37
718.804	939.51
718.991	998.9
719.179	949.75
719.366	933.36
719.553	925.17
719.74	966.13
719.927	964.08
720.114	908.79
720.301	970.23
720.488	988.66
720.676	865.78
720.863	914.93
721.05	998.9
721.237	964.08
721.424	919.03
721.611	908.79
721.798	976.37
721.985	894.45
722.172	867.83
722.358	959.99
722.545	859.63
722.732	988.66
722.919	933.36
723.106	941.55
723.293	945.65
723.48	904.69
723.667	959.99
723.853	906.74
724.04	962.03
724.227	886.26
724.414	824.82
724.6	916.98
724.787	921.07
724.974	906.74
725.161	876.02
725.347	894.45
725.534	865.78
725.72	894.45
725.907	916.98
726.094	894.45
726.28	816.63
726.467	841.2
726.653	841.2
726.84	869.87
727.027	808.44
727.213	869.87
727.4	818.68
727.586	873.97
727.773	943.6
727.959	849.4
728.145	910.83
728.332	837.11
728.518	857.59
728.705	906.74
728.891	841.2
729.077	841.2
729.264	888.31
729.45	863.73
729.636	980.47
729.823	941.55
730.009	804.34
730.195	802.29
730.382	906.74
730.568	824.82
730.754	835.06
730.94	851.44
731.126	910.83
731.313	771.57
731.499	798.2
731.685	808.44
731.871	845.3
732.057	921.07
732.243	802.29
732.429	830.96
732.615	759.28
732.801	808.44
732.987	796.15
733.173	863.73
733.359	798.2
733.545	816.63
733.731	740.85
733.917	865.78
734.103	761.33
734.289	865.78
734.475	910.83
734.661	869.87
734.847	833.01
735.033	841.2
735.219	845.3
735.404	749.04
735.59	771.57
735.776	871.92
735.962	765.43
736.148	804.34
736.333	873.97
736.519	806.39
736.705	867.83
736.89	771.57
737.076	910.83
737.262	792.05
737.447	841.2
737.633	835.06
737.819	849.4
738.004	802.29
738.19	818.68
738.375	767.48
738.561	841.2
738.747	773.62
738.932	796.15
739.118	742.9
739.303	736.76
739.489	718.33
739.674	693.75
739.859	820.72
740.045	818.68
740.23	777.72
740.416	792.05
740.601	722.42
740.786	734.71
740.972	808.44
741.157	757.24
741.342	712.18
741.528	740.85
741.713	744.95
741.898	792.05
742.084	787.96
742.269	779.76
742.454	732.66
742.639	771.57
742.824	714.23
743.01	757.24
743.195	697.85
743.38	720.37
743.565	671.22
743.75	701.94
743.935	640.5
744.12	773.62
744.305	716.28
744.49	718.33
744.675	775.67
744.86	755.19
745.045	644.6
745.23	636.41
745.415	665.08
745.6	681.46
745.785	652.79
745.97	824.82
746.155	634.36
746.34	693.75
746.525	589.3
746.71	701.94
746.895	689.65
747.079	695.8
747.264	703.99
747.449	626.17
747.634	679.41
747.819	691.7
748.003	617.97
748.188	540.15
748.373	642.55
748.557	579.06
748.742	577.02
748.927	673.27
749.111	595.45
749.296	669.17
749.481	693.75
749.665	650.74
749.85	638.45
750.034	587.26
750.219	654.84
750.404	562.68
750.588	507.38
750.773	589.3
750.957	587.26
751.141	531.96
751.326	574.97
751.51	583.16
751.695	611.83
751.879	544.25
752.064	642.55
752.248	525.82
752.432	484.86
752.617	595.45
752.801	505.34
752.985	521.72
753.17	540.15
753.354	599.54
753.538	587.26
753.722	472.57
753.907	458.23
754.091	488.95
754.275	521.72
754.459	550.39
754.643	499.19
754.828	521.72
755.012	493.05
755.196	546.3
755.38	486.9
755.564	472.57
755.748	458.23
755.932	507.38
756.116	488.95
756.3	536.06
756.484	480.76
756.668	425.47
756.852	515.58
757.036	515.58
757.22	501.24
757.404	550.39
757.588	495.1
757.772	513.53
757.956	464.38
758.14	394.75
758.323	437.75
758.507	472.57
758.691	445.95
758.875	497.14
759.059	435.71
759.242	536.06
759.426	441.85
759.61	429.56
759.794	441.85
759.977	517.62
760.161	431.61
760.345	423.42
760.528	396.79
760.712	456.19
760.895	454.14
761.079	396.79
761.263	388.6
761.446	343.55
761.63	423.42
761.813	497.14
761.997	359.93
762.18	382.46
762.364	415.23
762.547	366.07
762.731	409.08
762.914	407.03
763.098	343.55
763.281	425.47
763.464	347.64
763.648	423.42
763.831	312.83
764.015	382.46
764.198	312.83
764.381	359.93
764.564	265.72
764.748	286.2
764.931	292.35
765.114	308.73
765.297	400.89
765.481	284.16
765.664	306.68
765.847	337.4
766.03	423.42
766.213	407.03
766.397	325.12
766.58	321.02
766.763	384.51
766.946	353.79
767.129	398.84
767.312	261.63
767.495	318.97
767.678	298.49
767.861	366.07
768.044	333.31
768.227	357.88
768.41	273.92
768.593	269.82
768.776	253.44
768.959	384.51
769.142	339.45
769.324	353.79
769.507	275.96
769.69	316.92
769.873	300.54
770.056	273.92
770.239	357.88
770.421	398.84
770.604	325.12
770.787	366.07
770.97	280.06
771.152	302.59
771.335	302.59
771.518	308.73
771.7	318.97
771.883	318.97
772.066	288.25
772.248	292.35
772.431	323.07
772.613	300.54
772.796	300.54
772.978	306.68
773.161	247.29
773.343	321.02
773.526	267.77
773.708	271.87
773.891	304.64
774.073	325.12
774.256	253.44
774.438	318.97
774.621	316.92
774.803	327.16
774.985	226.81
775.168	263.68
775.35	269.82
775.532	257.53
775.715	337.4
775.897	325.12
776.079	255.48
776.261	202.24
776.444	239.1
776.626	243.2
776.808	243.2
776.99	263.68
777.173	220.67
777.355	278.01
777.537	243.2
777.719	329.21
777.901	237.05
778.083	282.11
778.265	210.43
778.447	247.29
778.629	171.52
778.811	261.63
778.993	261.63
779.175	235
779.357	275.96
779.539	294.4
779.721	212.48
779.903	194.05
780.085	192
780.267	243.2
780.449	243.2
780.631	196.09
780.812	230.91
780.994	206.33
781.176	218.62
781.358	259.58
781.54	235
781.721	237.05
781.903	271.87
782.085	263.68
782.267	196.09
782.448	226.81
782.63	232.96
782.812	169.47
782.993	218.62
783.175	304.64
783.357	181.76
783.538	206.33
783.72	288.25
783.901	161.28
784.083	181.76
784.264	189.95
784.446	206.33
784.627	124.41
784.809	204.28
784.99	144.89
785.172	179.71
785.353	185.85
785.535	167.42
785.716	187.9
785.897	196.09
786.079	140.8
786.26	144.89
786.441	163.33
786.623	167.42
786.804	189.95
786.985	169.47
787.167	239.1
787.348	87.55
787.529	148.99
787.71	204.28
787.891	161.28
788.073	153.09
788.254	124.41
788.435	138.75
788.616	108.03
788.797	105.98
788.978	114.17
789.159	148.99
789.34	91.65
789.522	136.7
789.703	192
789.884	177.66
790.065	126.46
790.246	171.52
790.427	15.87
790.607	128.51
790.788	155.13
790.969	110.08
791.15	148.99
791.331	85.5
791.512	122.37
791.693	144.89
791.874	148.99
792.054	81.41
792.235	167.42
792.416	95.74
792.597	155.13
792.778	185.85
792.958	114.17
793.139	255.48
793.32	202.24
793.5	116.22
793.681	161.28
793.862	134.65
794.042	169.47
794.223	126.46
794.404	67.07
794.584	136.7
794.765	128.51
794.945	54.78
795.126	128.51
795.306	120.32
795.487	130.56
795.667	142.85
795.848	114.17
796.028	-0.51
796.209	85.5
796.389	62.98
796.57	124.41
796.75	73.21
796.93	130.56
797.111	46.59
797.291	144.89
797.471	210.43
797.652	157.18
797.832	103.93
798.012	163.33
798.192	15.87
798.373	140.8
798.553	99.84
798.733	120.32
798.913	69.12
799.093	89.6
799.274	126.46
799.454	110.08
799.634	46.59
799.814	108.03
799.994	112.13
800.174	91.65
800.354	105.98
800.534	118.27
800.714	108.03
800.894	114.17
801.074	42.5
801.254	67.07
801.434	46.59
801.614	114.17
801.794	81.41
801.974	325.12
802.154	103.93
802.334	62.98
802.514	-0.51
802.693	101.89
802.873	48.64
803.053	62.98
803.233	136.7
803.413	34.3
803.592	36.35
803.772	54.78
803.952	130.56
804.131	97.79
804.311	50.69
804.491	151.04
804.67	46.59
804.85	103.93
805.03	79.36
805.209	105.98
805.389	65.02
805.568	32.26
805.748	30.21
805.928	75.26
806.107	42.5
806.287	44.54
806.466	62.98
806.646	54.78
806.825	15.87
807.004	97.79
807.184	97.79
807.363	103.93
807.543	5.63
807.722	97.79
807.901	65.02
808.081	67.07
808.26	132.61
808.439	32.26
808.619	48.64
808.798	73.21
808.977	46.59
809.156	95.74
809.336	85.5
809.515	-16.9
809.694	26.11
809.873	-8.7
810.052	85.5
810.231	95.74
810.411	62.98
810.59	54.78
810.769	7.68
810.948	118.27
811.127	-33.28
811.306	-6.66
811.485	112.13
811.664	122.37
811.843	95.74
812.022	75.26
812.201	50.69
812.38	-10.75
812.559	32.26
812.737	71.17
812.916	5.63
813.095	42.5
813.274	46.59
813.453	42.5
813.632	38.4
813.811	114.17
813.989	62.98
814.168	34.3
814.347	95.74
814.526	140.8
814.704	11.78
814.883	99.84
815.062	62.98
815.24	58.88
815.419	65.02
815.598	105.98
815.776	99.84
815.955	17.92
816.133	5.63
816.312	122.37
816.49	32.26
816.669	71.17
816.847	-2.56
817.026	62.98
817.204	46.59
817.383	54.78
817.561	-45.57
817.74	71.17
817.918	75.26
818.097	3.58
818.275	9.73
818.453	73.21
818.632	73.21
818.81	126.46
818.988	46.59
819.167	54.78
819.345	81.41
819.523	40.45
819.701	50.69
819.879	60.93
820.058	58.88
820.236	110.08
820.414	-66.05
820.592	67.07
820.77	34.3
820.948	101.89
821.127	-16.9
821.305	91.65
821.483	83.45
821.661	56.83
821.839	-8.7
822.017	75.26
822.195	38.4
822.373	46.59
822.551	40.45
822.729	19.97
822.907	40.45
823.085	54.78
823.262	56.83
823.44	9.73
823.618	30.21
823.796	24.06
823.974	44.54
824.152	26.11
824.329	17.92
824.507	118.27
824.685	58.88
824.863	38.4
825.04	11.78
825.218	22.02
825.396	83.45
825.574	26.11
825.751	65.02
825.929	30.21
826.107	58.88
826.284	22.02
826.462	-18.94
826.639	46.59
826.817	67.07
826.994	30.21
827.172	3.58
827.349	73.21
827.527	56.83
827.704	-14.85
827.882	48.64
828.059	-12.8
828.237	28.16
828.414	79.36
828.591	5.63
828.769	58.88
828.946	-14.85
829.124	67.07
829.301	-4.61
829.478	1.54
829.655	48.64
829.833	58.88
830.01	-4.61
830.187	65.02
830.364	17.92
830.542	17.92
830.719	60.93
830.896	32.26
831.073	46.59
831.25	24.06
831.427	93.69
831.604	15.87
831.782	93.69
831.959	9.73
832.136	56.83
832.313	114.17
832.49	30.21
832.667	65.02
832.844	30.21
833.021	54.78
833.198	34.3
833.374	75.26
833.551	-4.61
833.728	69.12
833.905	65.02
834.082	112.13
834.259	-0.51
834.436	24.06
834.612	56.83
834.789	30.21
834.966	48.64
835.143	77.31
835.319	-31.23
835.496	73.21
835.673	65.02
835.85	38.4
836.026	67.07
836.203	26.11
836.38	-39.42
836.556	87.55
836.733	-51.71
836.909	71.17
837.086	87.55
837.262	46.59
837.439	24.06
837.616	65.02
837.792	13.82
837.968	34.3
838.145	13.82
838.321	-4.61
838.498	-37.38
838.674	58.88
838.851	32.26
839.027	30.21
839.203	-31.23
839.38	73.21
839.556	62.98
839.732	22.02
839.909	32.26
840.085	17.92
840.261	13.82
840.437	71.17
840.614	-6.66
840.79	58.88
840.966	32.26
841.142	69.12
841.318	-49.66
841.494	30.21
841.671	81.41
841.847	40.45
842.023	62.98
842.199	58.88
842.375	26.11
842.551	13.82
842.727	36.35
842.903	13.82
843.079	26.11
843.255	56.83
843.431	15.87
843.607	54.78
843.783	15.87
843.959	-23.04
844.134	17.92
844.31	38.4
844.486	48.64
844.662	46.59
844.838	7.68
845.013	19.97
845.189	62.98
845.365	22.02
845.541	22.02
845.716	11.78
845.892	42.5
846.068	17.92
846.244	-12.8
846.419	99.84
846.595	22.02
846.77	3.58
846.946	46.59
847.122	-45.57
847.297	65.02
847.473	13.82
847.648	22.02
847.824	-6.66
847.999	-18.94
848.175	42.5
848.35	-27.14
848.526	50.69
848.701	-39.42
848.876	-18.94
849.052	77.31
849.227	-57.86
849.403	52.74
849.578	-33.28
849.753	-31.23
849.929	-0.51
850.104	-6.66
850.279	-18.94
850.454	-2.56
850.63	83.45
850.805	58.88
850.98	1.54
851.155	75.26
851.33	52.74
851.505	28.16
851.681	30.21
851.856	-14.85
852.031	-25.09
852.206	-18.94
852.381	-20.99
852.556	28.16
852.731	62.98
852.906	-39.42
853.081	54.78
853.256	-8.7
853.431	32.26
853.606	38.4
853.781	-2.56
853.956	-8.7
854.131	40.45
854.305	15.87
854.48	11.78
854.655	-6.66
854.83	-0.51
855.005	-59.9
855.18	1.54
855.354	-33.28
855.529	30.21
855.704	-37.38
855.879	46.59
856.053	-18.94
856.228	50.69
856.403	48.64
856.577	30.21
856.752	44.54
856.926	-43.52
857.101	22.02
857.276	-2.56
857.45	54.78
857.625	56.83
857.799	-6.66
857.974	58.88
858.148	-45.57
858.323	95.74
858.497	24.06
858.672	9.73
858.846	-18.94
859.02	19.97
859.195	-6.66
859.369	9.73
859.543	34.3
859.718	19.97
859.892	9.73
860.066	-78.33
860.241	-47.62
860.415	-68.09
860.589	1.54
860.763	-18.94
860.938	54.78
861.112	69.12
861.286	22.02
861.46	38.4
861.634	-49.66
861.808	32.26
861.982	-76.29
862.157	3.58
862.331	7.68
862.505	1.54
862.679	73.21
862.853	30.21
863.027	11.78
863.201	56.83
863.375	-18.94
863.549	-6.66
863.722	-4.61
863.896	-31.23
864.07	60.93
864.244	34.3
864.418	-31.23
864.592	32.26
864.766	-2.56
864.939	-25.09
865.113	-18.94
865.287	17.92
865.461	-27.14
865.634	-4.61
865.808	22.02
865.982	15.87
866.156	-31.23
866.329	-10.75
866.503	34.3
866.676	1.54
866.85	-47.62
867.024	34.3
867.197	81.41
867.371	50.69
867.544	-4.61
867.718	-16.9
867.891	48.64
868.065	9.73
868.238	19.97
868.412	46.59
868.585	22.02
868.759	58.88
868.932	-18.94
869.105	-39.42
869.279	-10.75
869.452	5.63
869.625	-41.47
869.799	3.58
869.972	-33.28
870.145	32.26
870.319	-92.67
870.492	-2.56
870.665	50.69
870.838	24.06
871.011	17.92
871.185	48.64
871.358	32.26
871.531	13.82
871.704	22.02
871.877	77.31
872.05	-27.14
872.223	1.54
872.396	110.08
872.569	28.16
872.742	-39.42
872.915	87.55
873.088	42.5
873.261	54.78
873.434	56.83
873.607	32.26
873.78	38.4
873.953	-29.18
874.126	44.54
874.299	42.5
874.471	-16.9
874.644	-2.56
874.817	7.68
874.99	-10.75
875.163	69.12
875.335	-25.09
875.508	-20.99
875.681	5.63
875.853	-2.56
876.026	-16.9
876.199	22.02
876.371	-10.75
876.544	22.02
876.717	46.59
876.889	-8.7
877.062	30.21
877.234	-49.66
877.407	-4.61
877.579	30.21
877.752	-51.71
877.924	-66.05
878.097	-12.8
878.269	30.21
878.442	26.11
878.614	7.68
878.786	71.17
878.959	34.3
879.131	46.59
879.303	-4.61
879.476	-33.28
879.648	36.35
879.82	3.58
879.993	-53.76
880.165	-27.14
880.337	28.16
880.509	15.87
880.681	-31.23
880.854	-16.9
881.026	73.21
881.198	-14.85
881.37	58.88
881.542	5.63
881.714	-0.51
881.886	-74.24
882.058	83.45
882.23	5.63
882.402	-57.86
882.574	13.82
882.746	34.3
882.918	32.26
883.09	-31.23
883.262	87.55
883.434	65.02
883.606	-16.9
883.778	-45.57
883.95	1.54
884.122	-33.28
884.293	-16.9
884.465	-25.09
884.637	-8.7
884.809	-0.51
884.98	-20.99
885.152	-88.57
885.324	79.36
885.496	-18.94
885.667	9.73
885.839	-59.9
886.011	-72.19
886.182	-35.33
886.354	22.02
886.525	34.3
886.697	-23.04
886.869	-23.04
887.04	26.11
887.212	-29.18
887.383	17.92
887.555	-18.94
887.726	44.54
887.897	1.54
888.069	48.64
888.24	-18.94
888.412	-16.9
888.583	32.26
888.754	101.89
888.926	-2.56
889.097	9.73
889.268	17.92
889.44	46.59
889.611	-31.23
889.782	30.21
889.953	-23.04
890.125	-49.66
890.296	7.68
890.467	-33.28
890.638	3.58
890.809	44.54
890.98	7.68
891.151	44.54
891.323	-10.75
891.494	24.06
891.665	-51.71
891.836	-35.33
892.007	22.02
892.178	13.82
892.349	54.78
892.52	79.36
892.691	-29.18
892.862	34.3
893.032	-0.51
893.203	-23.04
893.374	-35.33
893.545	22.02
893.716	-18.94
893.887	9.73
894.057	-10.75
894.228	73.21
894.399	54.78
894.57	46.59
894.74	-27.14
894.911	-4.61
895.082	50.69
895.253	-2.56
895.423	-27.14
895.594	60.93
895.764	-53.76
895.935	-2.56
896.106	-16.9
896.276	-20.99
896.447	42.5
896.617	103.93
896.788	-35.33
896.958	26.11
897.129	22.02
897.299	-25.09
897.47	1.54
897.64	-2.56
897.81	-10.75
897.981	-14.85
898.151	-8.7
898.322	-25.09
898.492	-12.8
898.662	-59.9
898.832	-43.52
899.003	11.78
899.173	108.03
899.343	-2.56
899.513	-39.42
