Data from USB4F104151__22__12-58-38-018.txt Node

Date: Fri Mar 14 12:58:38 EDT 2025
User: louis
Spectrometer: USB4F10415
Trigger mode: 4
Integration Time (sec): 1.000000E-2
Scans to average: 1
Electric dark correction enabled: true
Nonlinearity correction enabled: false
Boxcar width: 0
XAxis mode: Wavelengths
Number of Pixels in Spectrum: 3648
>>>>>Begin Spectral Data<<<<<
178.204	-97.45
178.424	-97.45
178.644	-97.45
178.864	-27.82
179.084	-111.78
179.304	66.39
179.524	29.52
179.744	-21.67
179.964	-17.58
180.184	-74.92
180.404	52.05
180.624	-3.24
180.844	15.19
181.064	-1.19
181.283	21.33
181.503	-64.68
181.723	-1.19
181.943	-56.49
182.163	39.76
182.383	-42.15
182.602	-9.39
182.822	-33.96
183.042	-3.24
183.262	-31.91
183.482	-15.53
183.701	-13.48
183.921	-19.63
184.141	33.62
184.361	-46.25
184.58	-19.63
184.8	15.19
185.02	9.05
185.239	47.96
185.459	45.91
185.679	15.19
185.898	-40.11
186.118	23.38
186.338	31.57
186.557	-44.2
186.777	-3.24
186.997	-27.82
187.216	70.48
187.436	37.72
187.655	31.57
187.875	45.91
188.095	-40.11
188.314	29.52
188.534	58.2
188.753	9.05
188.973	-40.11
189.192	23.38
189.412	11.09
189.631	-42.15
189.851	21.33
190.07	56.15
190.29	-33.96
190.509	-15.53
190.729	56.15
190.948	-46.25
191.168	101.2
191.387	15.19
191.607	-15.53
191.826	-42.15
192.045	-11.43
192.265	-93.35
192.484	23.38
192.704	31.57
192.923	-3.24
193.142	58.2
193.362	7
193.581	-9.39
193.8	41.81
194.02	-13.48
194.239	-23.72
194.458	58.2
194.678	9.05
194.897	15.19
195.116	-9.39
195.335	58.2
195.555	17.24
195.774	-60.59
195.993	-11.43
196.212	17.24
196.432	13.14
196.651	7
196.87	-81.07
197.089	58.2
197.308	-3.24
197.528	62.29
197.747	23.38
197.966	45.91
198.185	33.62
198.404	-13.48
198.623	-13.48
198.842	11.09
199.062	80.72
199.281	7
199.5	7
199.719	43.86
199.938	74.58
200.157	-9.39
200.376	35.67
200.595	-3.24
200.814	-23.72
201.033	-1.19
201.252	4.95
201.471	64.34
201.69	27.48
201.909	15.19
202.128	-21.67
202.347	31.57
202.566	31.57
202.785	-23.72
203.004	11.09
203.223	33.62
203.442	-95.4
203.661	-27.82
203.879	-33.96
204.098	15.19
204.317	-21.67
204.536	-29.87
204.755	-29.87
204.974	-81.07
205.193	9.05
205.411	17.24
205.63	-13.48
205.849	15.19
206.068	-5.29
206.287	11.09
206.505	66.39
206.724	62.29
206.943	4.95
207.162	-17.58
207.381	23.38
207.599	-25.77
207.818	9.05
208.037	25.43
208.255	31.57
208.474	64.34
208.693	31.57
208.911	37.72
209.13	23.38
209.349	9.05
209.567	4.95
209.786	31.57
210.005	-23.72
210.223	-9.39
210.442	11.09
210.661	-9.39
210.879	-58.54
211.098	19.29
211.316	43.86
211.535	45.91
211.753	-29.87
211.972	47.96
212.191	-48.3
212.409	-50.35
212.628	-27.82
212.846	15.19
213.065	50
213.283	-56.49
213.502	-5.29
213.72	-31.91
213.938	-64.68
214.157	7
214.375	-60.59
214.594	80.72
214.812	-70.83
215.031	-31.91
215.249	-21.67
215.467	-42.15
215.686	-27.82
215.904	-40.11
216.122	-13.48
216.341	0.85
216.559	47.96
216.778	52.05
216.996	-23.72
217.214	-15.53
217.432	-5.29
217.651	9.05
217.869	35.67
218.087	-23.72
218.306	-40.11
218.524	-56.49
218.742	-31.91
218.96	-17.58
219.179	86.87
219.397	33.62
219.615	2.9
219.833	54.1
220.051	19.29
220.27	-54.44
220.488	74.58
220.706	-31.91
220.924	25.43
221.142	-7.34
221.36	-1.19
221.578	25.43
221.796	-9.39
222.015	-25.77
222.233	-33.96
222.451	-17.58
222.669	-50.35
222.887	23.38
223.105	23.38
223.323	68.44
223.541	-9.39
223.759	56.15
223.977	17.24
224.195	-29.87
224.413	0.85
224.631	2.9
224.849	-38.06
225.067	45.91
225.285	-1.19
225.503	19.29
225.721	74.58
225.939	-5.29
226.157	21.33
226.375	68.44
226.592	2.9
226.81	-7.34
227.028	-72.87
227.246	66.39
227.464	39.76
227.682	-46.25
227.9	19.29
228.117	2.9
228.335	19.29
228.553	-11.43
228.771	-17.58
228.989	-1.19
229.206	0.85
229.424	86.87
229.642	9.05
229.86	13.14
230.077	31.57
230.295	60.24
230.513	25.43
230.731	35.67
230.948	4.95
231.166	50
231.384	54.1
231.601	-58.54
231.819	50
232.037	15.19
232.254	107.35
232.472	0.85
232.689	-17.58
232.907	-25.77
233.125	-107.69
233.342	-15.53
233.56	-17.58
233.777	76.63
233.995	-25.77
234.213	9.05
234.43	25.43
234.648	0.85
234.865	25.43
235.083	4.95
235.3	-1.19
235.518	58.2
235.735	-29.87
235.953	78.68
236.17	29.52
236.388	31.57
236.605	0.85
236.822	33.62
237.04	33.62
237.257	-19.63
237.475	4.95
237.692	21.33
237.909	-1.19
238.127	-23.72
238.344	54.1
238.562	-19.63
238.779	19.29
238.996	7
239.214	7
239.431	-7.34
239.648	-58.54
239.865	39.76
240.083	15.19
240.3	41.81
240.517	0.85
240.735	2.9
240.952	37.72
241.169	23.38
241.386	-17.58
241.603	4.95
241.821	-25.77
242.038	23.38
242.255	15.19
242.472	-5.29
242.689	-15.53
242.907	64.34
243.124	-15.53
243.341	58.2
243.558	47.96
243.775	-25.77
243.992	-70.83
244.209	41.81
244.426	-62.63
244.643	35.67
244.86	-60.59
245.078	-25.77
245.295	13.14
245.512	-27.82
245.729	90.96
245.946	95.06
246.163	-21.67
246.38	31.57
246.597	39.76
246.814	27.48
247.031	-56.49
247.248	52.05
247.464	-25.77
247.681	-15.53
247.898	-46.25
248.115	-13.48
248.332	-7.34
248.549	-7.34
248.766	82.77
248.983	-21.67
249.2	-15.53
249.417	25.43
249.633	-29.87
249.85	-27.82
250.067	-29.87
250.284	-25.77
250.501	33.62
250.717	0.85
250.934	54.1
251.151	-40.11
251.368	27.48
251.585	-54.44
251.801	31.57
252.018	-15.53
252.235	-1.19
252.451	-21.67
252.668	15.19
252.885	21.33
253.102	-3.24
253.318	-31.91
253.535	-38.06
253.752	-21.67
253.968	50
254.185	-17.58
254.401	-79.02
254.618	25.43
254.835	-36.01
255.051	56.15
255.268	-40.11
255.484	35.67
255.701	15.19
255.917	33.62
256.134	9.05
256.351	9.05
256.567	-36.01
256.784	-9.39
257	-48.3
257.217	-33.96
257.433	27.48
257.65	13.14
257.866	-23.72
258.082	-64.68
258.299	2.9
258.515	84.82
258.732	27.48
258.948	-9.39
259.165	19.29
259.381	13.14
259.597	-31.91
259.814	-3.24
260.03	-11.43
260.246	-11.43
260.463	19.29
260.679	-19.63
260.895	-15.53
261.112	-91.31
261.328	19.29
261.544	-15.53
261.761	23.38
261.977	9.05
262.193	23.38
262.409	31.57
262.626	-42.15
262.842	35.67
263.058	21.33
263.274	33.62
263.49	56.15
263.707	-9.39
263.923	4.95
264.139	95.06
264.355	-9.39
264.571	35.67
264.787	43.86
265.004	-17.58
265.22	15.19
265.436	15.19
265.652	-1.19
265.868	23.38
266.084	-23.72
266.3	-46.25
266.516	-66.73
266.732	43.86
266.948	-46.25
267.164	47.96
267.38	-40.11
267.596	-50.35
267.812	17.24
268.028	31.57
268.244	-9.39
268.46	21.33
268.676	84.82
268.892	-31.91
269.108	-87.21
269.324	19.29
269.54	93.01
269.756	31.57
269.972	-25.77
270.188	41.81
270.403	74.58
270.619	9.05
270.835	0.85
271.051	29.52
271.267	-68.78
271.483	-1.19
271.698	-33.96
271.914	-33.96
272.13	-13.48
272.346	15.19
272.562	-13.48
272.777	35.67
272.993	-11.43
273.209	39.76
273.425	17.24
273.64	2.9
273.856	2.9
274.072	-48.3
274.287	-9.39
274.503	-11.43
274.719	-31.91
274.934	9.05
275.15	9.05
275.366	-9.39
275.581	60.24
275.797	13.14
276.012	41.81
276.228	-5.29
276.444	21.33
276.659	-29.87
276.875	-11.43
277.09	74.58
277.306	-42.15
277.521	-3.24
277.737	-15.53
277.952	115.54
278.168	4.95
278.383	47.96
278.599	-11.43
278.814	41.81
279.03	7
279.245	19.29
279.461	7
279.676	4.95
279.892	4.95
280.107	7
280.322	-25.77
280.538	-1.19
280.753	-19.63
280.969	56.15
281.184	-31.91
281.399	31.57
281.615	-1.19
281.83	11.09
282.045	9.05
282.26	-1.19
282.476	19.29
282.691	-48.3
282.906	-1.19
283.122	-7.34
283.337	31.57
283.552	-5.29
283.767	-50.35
283.983	11.09
284.198	4.95
284.413	-33.96
284.628	-1.19
284.843	19.29
285.058	-19.63
285.274	50
285.489	-38.06
285.704	9.05
285.919	68.44
286.134	43.86
286.349	-5.29
286.564	52.05
286.779	25.43
286.995	4.95
287.21	13.14
287.425	-15.53
287.64	13.14
287.855	-7.34
288.07	47.96
288.285	-9.39
288.5	-5.29
288.715	84.82
288.93	23.38
289.145	54.1
289.36	86.87
289.575	21.33
289.79	-25.77
290.004	27.48
290.219	-25.77
290.434	-11.43
290.649	-23.72
290.864	-5.29
291.079	15.19
291.294	35.67
291.509	33.62
291.724	-23.72
291.938	31.57
292.153	33.62
292.368	-7.34
292.583	2.9
292.798	-11.43
293.012	11.09
293.227	-27.82
293.442	33.62
293.657	37.72
293.871	52.05
294.086	-54.44
294.301	54.1
294.516	-7.34
294.73	-9.39
294.945	41.81
295.16	-15.53
295.374	11.09
295.589	27.48
295.804	-31.91
296.018	33.62
296.233	37.72
296.447	66.39
296.662	-13.48
296.877	7
297.091	7
297.306	-31.91
297.52	2.9
297.735	9.05
297.949	-1.19
298.164	-1.19
298.378	-31.91
298.593	23.38
298.807	39.76
299.022	33.62
299.236	-15.53
299.451	-33.96
299.665	45.91
299.88	52.05
300.094	11.09
300.309	76.63
300.523	9.05
300.737	45.91
300.952	-27.82
301.166	-1.19
301.381	45.91
301.595	47.96
301.809	4.95
302.024	21.33
302.238	25.43
302.452	13.14
302.667	0.85
302.881	-27.82
303.095	23.38
303.309	0.85
303.524	-52.39
303.738	-23.72
303.952	-27.82
304.166	11.09
304.381	-36.01
304.595	9.05
304.809	72.53
305.023	56.15
305.237	-52.39
305.452	31.57
305.666	21.33
305.88	-27.82
306.094	62.29
306.308	-27.82
306.522	-81.07
306.736	52.05
306.95	-29.87
307.164	-66.73
307.379	70.48
307.593	66.39
307.807	45.91
308.021	11.09
308.235	7
308.449	-17.58
308.663	-38.06
308.877	-3.24
309.091	25.43
309.305	23.38
309.519	-74.92
309.733	-40.11
309.947	27.48
310.161	-17.58
310.374	2.9
310.588	58.2
310.802	-42.15
311.016	-5.29
311.23	27.48
311.444	9.05
311.658	68.44
311.872	52.05
312.085	35.67
312.299	-48.3
312.513	15.19
312.727	58.2
312.941	-56.49
313.154	-19.63
313.368	47.96
313.582	-17.58
313.796	68.44
314.009	2.9
314.223	23.38
314.437	-9.39
314.651	-29.87
314.864	19.29
315.078	-15.53
315.292	2.9
315.505	0.85
315.719	35.67
315.933	-15.53
316.146	7
316.36	21.33
316.573	-9.39
316.787	17.24
317.001	84.82
317.214	-38.06
317.428	19.29
317.641	19.29
317.855	64.34
318.068	19.29
318.282	25.43
318.495	-5.29
318.709	-9.39
318.922	-33.96
319.136	37.72
319.349	-17.58
319.563	-1.19
319.776	52.05
319.99	47.96
320.203	33.62
320.417	31.57
320.63	33.62
320.843	-15.53
321.057	-31.91
321.27	33.62
321.483	35.67
321.697	35.67
321.91	-31.91
322.124	-50.35
322.337	47.96
322.55	9.05
322.763	47.96
322.977	23.38
323.19	41.81
323.403	33.62
323.617	-1.19
323.83	15.19
324.043	-48.3
324.256	27.48
324.469	68.44
324.683	-64.68
324.896	-25.77
325.109	13.14
325.322	41.81
325.535	-17.58
325.748	41.81
325.962	76.63
326.175	17.24
326.388	-48.3
326.601	82.77
326.814	105.3
327.027	-21.67
327.24	39.76
327.453	-11.43
327.666	23.38
327.879	50
328.092	2.9
328.305	17.24
328.518	41.81
328.731	25.43
328.944	23.38
329.157	11.09
329.37	7
329.583	37.72
329.796	-15.53
330.009	41.81
330.222	86.87
330.435	-42.15
330.648	-11.43
330.861	-3.24
331.073	-9.39
331.286	72.53
331.499	39.76
331.712	19.29
331.925	-50.35
332.138	-19.63
332.35	45.91
332.563	23.38
332.776	52.05
332.989	35.67
333.202	64.34
333.414	19.29
333.627	35.67
333.84	-11.43
334.053	0.85
334.265	109.4
334.478	11.09
334.691	11.09
334.903	-23.72
335.116	-13.48
335.329	68.44
335.541	50
335.754	-31.91
335.966	-5.29
336.179	-7.34
336.392	7
336.604	54.1
336.817	21.33
337.029	9.05
337.242	2.9
337.454	54.1
337.667	-54.44
337.88	-7.34
338.092	41.81
338.305	11.09
338.517	-9.39
338.729	86.87
338.942	-11.43
339.154	31.57
339.367	-3.24
339.579	37.72
339.792	72.53
340.004	19.29
340.217	-54.44
340.429	39.76
340.641	-29.87
340.854	15.19
341.066	-44.2
341.278	123.73
341.491	33.62
341.703	-1.19
341.915	-27.82
342.128	31.57
342.34	56.15
342.552	2.9
342.764	17.24
342.977	31.57
343.189	-66.73
343.401	29.52
343.613	31.57
343.826	-13.48
344.038	23.38
344.25	74.58
344.462	31.57
344.674	-17.58
344.886	29.52
345.099	56.15
345.311	78.68
345.523	-1.19
345.735	-1.19
345.947	15.19
346.159	-25.77
346.371	82.77
346.583	43.86
346.795	4.95
347.007	47.96
347.219	4.95
347.431	43.86
347.643	25.43
347.855	25.43
348.067	15.19
348.279	-11.43
348.491	-17.58
348.703	31.57
348.915	25.43
349.127	2.9
349.339	-23.72
349.551	-17.58
349.763	-17.58
349.975	45.91
350.187	41.81
350.399	9.05
350.61	4.95
350.822	54.1
351.034	15.19
351.246	13.14
351.458	80.72
351.669	-15.53
351.881	21.33
352.093	-9.39
352.305	-33.96
352.517	-7.34
352.728	-11.43
352.94	39.76
353.152	-29.87
353.363	86.87
353.575	56.15
353.787	60.24
353.999	15.19
354.21	47.96
354.422	2.9
354.633	-23.72
354.845	-3.24
355.057	62.29
355.268	-38.06
355.48	-25.77
355.692	19.29
355.903	-11.43
356.115	17.24
356.326	-72.87
356.538	47.96
356.749	-9.39
356.961	68.44
357.172	37.72
357.384	23.38
357.595	72.53
357.807	-17.58
358.018	9.05
358.23	15.19
358.441	47.96
358.653	25.43
358.864	23.38
359.075	-66.73
359.287	-40.11
359.498	29.52
359.709	-40.11
359.921	17.24
360.132	23.38
360.344	-36.01
360.555	64.34
360.766	47.96
360.977	23.38
361.189	47.96
361.4	70.48
361.611	9.05
361.823	66.39
362.034	45.91
362.245	-3.24
362.456	21.33
362.667	-7.34
362.879	35.67
363.09	35.67
363.301	72.53
363.512	68.44
363.723	64.34
363.935	-25.77
364.146	43.86
364.357	66.39
364.568	25.43
364.779	-19.63
364.99	70.48
365.201	15.19
365.412	37.72
365.623	-40.11
365.834	13.14
366.045	-56.49
366.256	13.14
366.467	70.48
366.678	21.33
366.889	113.49
367.1	107.35
367.311	-21.67
367.522	23.38
367.733	17.24
367.944	41.81
368.155	-31.91
368.366	-21.67
368.577	43.86
368.788	62.29
368.999	13.14
369.209	-11.43
369.42	39.76
369.631	70.48
369.842	41.81
370.053	-70.83
370.264	-38.06
370.474	15.19
370.685	2.9
370.896	35.67
371.107	31.57
371.317	31.57
371.528	43.86
371.739	21.33
371.95	43.86
372.16	41.81
372.371	-40.11
372.582	15.19
372.792	37.72
373.003	-7.34
373.214	-38.06
373.424	-72.87
373.635	9.05
373.846	56.15
374.056	15.19
374.267	43.86
374.477	19.29
374.688	13.14
374.898	27.48
375.109	-1.19
375.319	33.62
375.53	56.15
375.74	33.62
375.951	-1.19
376.161	15.19
376.372	95.06
376.582	54.1
376.793	64.34
377.003	-23.72
377.214	-29.87
377.424	17.24
377.635	58.2
377.845	88.92
378.055	113.49
378.266	27.48
378.476	37.72
378.686	-1.19
378.897	84.82
379.107	-60.59
379.317	21.33
379.528	39.76
379.738	80.72
379.948	7
380.158	17.24
380.369	-31.91
380.579	76.63
380.789	29.52
380.999	43.86
381.21	58.2
381.42	7
381.63	2.9
381.84	2.9
382.05	27.48
382.261	80.72
382.471	27.48
382.681	-29.87
382.891	33.62
383.101	37.72
383.311	21.33
383.521	21.33
383.731	52.05
383.941	90.96
384.151	27.48
384.361	-17.58
384.571	0.85
384.781	43.86
384.991	54.1
385.201	39.76
385.411	52.05
385.621	2.9
385.831	31.57
386.041	-58.54
386.251	43.86
386.461	0.85
386.671	-9.39
386.881	47.96
387.091	7
387.301	54.1
387.511	-29.87
387.72	29.52
387.93	-11.43
388.14	64.34
388.35	23.38
388.56	-21.67
388.769	56.15
388.979	123.73
389.189	43.86
389.399	-7.34
389.609	37.72
389.818	-17.58
390.028	70.48
390.238	0.85
390.447	17.24
390.657	64.34
390.867	66.39
391.076	11.09
391.286	50
391.496	47.96
391.705	2.9
391.915	23.38
392.125	56.15
392.334	74.58
392.544	-7.34
392.753	-3.24
392.963	31.57
393.172	-17.58
393.382	-23.72
393.591	33.62
393.801	21.33
394.01	66.39
394.22	64.34
394.429	62.29
394.639	-1.19
394.848	127.83
395.058	74.58
395.267	58.2
395.477	54.1
395.686	45.91
395.895	99.16
396.105	50
396.314	82.77
396.524	58.2
396.733	35.67
396.942	33.62
397.152	43.86
397.361	80.72
397.57	105.3
397.78	60.24
397.989	33.62
398.198	64.34
398.407	123.73
398.617	105.3
398.826	9.05
399.035	56.15
399.244	39.76
399.453	52.05
399.663	82.77
399.872	58.2
400.081	-31.91
400.29	56.15
400.499	19.29
400.708	68.44
400.917	2.9
401.127	13.14
401.336	97.11
401.545	62.29
401.754	50
401.963	138.07
402.172	86.87
402.381	35.67
402.59	109.4
402.799	97.11
403.008	50
403.217	101.2
403.426	82.77
403.635	103.25
403.844	64.34
404.053	162.64
404.262	27.48
404.471	58.2
404.68	82.77
404.888	95.06
405.097	74.58
405.306	109.4
405.515	74.58
405.724	41.81
405.933	82.77
406.142	84.82
406.35	86.87
406.559	133.97
406.768	105.3
406.977	207.7
407.185	129.88
407.394	105.3
407.603	109.4
407.812	174.93
408.02	125.78
408.229	125.78
408.438	115.54
408.646	136.02
408.855	168.79
409.064	138.07
409.272	74.58
409.481	168.79
409.69	222.03
409.898	152.4
410.107	205.65
410.315	193.36
410.524	129.88
410.733	232.27
410.941	158.55
411.15	217.94
411.358	205.65
411.567	234.32
411.775	252.75
411.984	199.51
412.192	285.52
412.401	248.66
412.609	283.47
412.818	250.71
413.026	310.1
413.234	271.19
413.443	312.14
413.651	187.22
413.86	318.29
414.068	318.29
414.276	363.34
414.485	330.58
414.693	416.59
414.901	396.11
415.11	353.1
415.318	432.97
415.526	385.87
415.734	367.44
415.943	447.31
416.151	437.07
416.359	500.56
416.567	496.46
416.776	551.76
416.984	502.61
417.192	586.57
417.4	504.65
417.608	527.18
417.817	631.63
418.025	588.62
418.233	697.16
418.441	678.73
418.649	631.63
418.857	813.9
419.065	717.64
419.273	750.41
419.481	717.64
419.689	785.23
419.897	801.61
420.105	910.15
420.313	914.25
420.521	856.9
420.729	949.06
420.937	920.39
421.145	961.35
421.353	1076.04
421.561	1073.99
421.769	1110.85
421.977	1135.43
422.185	1157.96
422.393	1278.79
422.601	1262.4
422.809	1364.8
423.017	1313.6
423.224	1473.34
423.432	1418.05
423.64	1473.34
423.848	1454.91
424.056	1510.21
424.263	1649.47
424.471	1719.1
424.679	1657.66
424.887	1723.2
425.094	1827.64
425.302	1715
425.51	1874.74
425.718	1991.48
425.925	1956.66
426.133	1964.86
426.341	2032.44
426.548	2175.8
426.756	2245.43
426.964	2302.77
427.171	2431.79
427.379	2577.2
427.586	2472.75
427.794	2536.24
428.001	2646.83
428.209	2833.19
428.417	2728.75
428.624	2939.69
428.832	2908.97
429.039	2974.5
429.247	2743.08
429.454	3222.31
429.662	3420.96
429.869	3205.92
430.076	3451.68
430.284	3316.51
430.491	3541.79
430.699	3709.72
430.906	3801.88
431.114	3771.16
431.321	3851.03
431.528	4031.26
431.736	4367.12
431.943	4395.79
432.15	4279.06
432.358	4264.72
432.565	4563.73
432.772	4502.29
432.979	4881.16
433.187	4782.86
433.394	5063.43
433.601	5102.34
433.808	5239.56
434.016	5311.24
434.223	5374.72
434.43	5864.19
434.637	5720.83
434.844	6038.27
435.052	6232.82
435.259	6062.84
435.466	6126.33
435.673	6107.9
435.88	6423.28
436.087	6687.47
436.294	6900.46
436.501	6626.03
436.708	6644.46
436.915	6980.33
437.122	7480.04
437.329	7181.03
437.537	7566.05
437.743	7604.96
437.95	7600.87
438.157	8245.98
438.364	8430.29
438.571	8252.12
438.778	8370.9
438.985	9173.71
439.192	8600.27
439.399	8927.95
439.606	8835.79
439.813	9394.89
440.02	10031.8
440.227	9788.1
440.433	9743.04
440.64	9966.27
440.847	9816.77
441.054	9964.22
441.261	10711.73
441.467	10750.64
441.674	11027.12
441.881	11346.6
442.088	11162.28
442.294	11139.76
442.501	11504.29
442.708	11590.31
442.914	12090.01
443.121	12726.93
443.328	12503.7
443.534	13066.89
443.741	12843.67
443.948	12853.91
444.154	13531.78
444.361	13587.08
444.568	13775.49
444.774	13927.04
444.981	14109.31
445.187	14238.33
445.394	14914.16
445.6	14664.31
445.807	16212.57
446.013	15141.49
446.22	15798.88
446.426	16407.13
446.633	16632.41
446.839	17185.36
447.046	16380.51
447.252	17281.61
447.459	17209.93
447.665	17279.57
447.871	18192.96
448.078	18897.46
448.284	18096.71
448.491	18635.32
448.697	19239.47
448.903	19860.01
449.11	19524.14
449.316	19249.71
449.522	19638.83
449.728	20302.37
449.935	20255.26
450.141	20447.77
450.347	20990.49
450.553	20429.34
450.76	20640.28
450.966	21084.69
451.172	20957.72
451.378	21740.04
451.584	21203.47
451.791	21885.45
451.997	21592.59
452.203	21885.45
452.409	22172.16
452.615	21805.58
452.821	20789.78
453.027	20468.25
453.233	22249.99
453.44	21221.91
453.646	21348.88
453.852	21594.64
454.058	21993.99
454.264	21135.89
454.47	21594.64
454.676	21346.83
454.882	21895.69
455.088	19792.42
455.294	20298.27
455.5	20591.13
455.705	20754.97
455.911	20085.28
456.117	19708.46
456.323	19411.5
456.529	18344.51
456.735	19175.98
456.941	18530.87
457.147	18092.61
457.352	17883.72
457.558	17566.28
457.764	17441.36
457.97	17179.22
458.176	16861.78
458.381	16908.88
458.587	16302.68
458.793	16048.74
458.999	15331.95
459.204	16341.6
459.41	16044.64
459.616	14760.56
459.821	14682.74
460.027	14723.7
460.233	14453.37
460.438	13990.53
460.644	13755.01
460.85	13230.73
461.055	13361.8
461.261	13122.19
461.466	12151.45
461.672	11846.3
461.878	12608.15
462.083	11682.47
462.289	11358.89
462.494	11383.46
462.7	10719.92
462.905	10881.71
463.111	10998.45
463.316	11033.26
463.522	10873.52
463.727	10650.29
463.932	10795.7
464.138	10738.35
464.343	10521.27
464.549	10357.43
464.754	10693.3
464.959	10828.46
465.165	10443.45
465.37	10179.26
465.575	9986.75
465.781	10226.36
465.986	10361.53
466.191	9960.13
466.397	9960.13
466.602	9366.21
466.807	9816.77
467.012	9632.45
467.218	9540.29
467.423	9564.87
467.628	9374.41
467.833	9884.35
468.038	9624.26
468.244	9327.3
468.449	9708.23
468.654	9394.89
468.859	9290.44
469.064	9261.77
469.269	8880.85
469.474	8901.33
469.679	9138.89
469.885	8774.35
470.09	8997.58
470.295	8899.28
470.5	8917.71
470.705	8757.97
470.91	8258.26
471.115	8512.21
471.32	8725.2
471.525	8329.94
471.73	8512.21
471.935	8428.24
472.139	8071.9
472.344	8233.69
472.549	8233.69
472.754	7850.72
472.959	7891.68
473.164	7705.31
473.369	7512.8
473.574	7840.48
473.778	7840.48
473.983	7578.34
474.188	7750.37
474.393	7496.42
474.598	7226.09
474.802	7359.21
475.007	7344.87
475.212	7144.17
475.417	6972.14
475.621	7043.82
475.826	6863.6
476.031	7029.48
476.235	6748.91
476.44	6830.83
476.645	6593.26
476.849	6728.43
477.054	6585.07
477.259	6705.9
477.463	6560.5
477.668	6382.32
477.872	6421.24
478.077	6269.69
478.282	6140.66
478.486	6355.7
478.691	6238.97
478.895	6075.13
479.1	6185.72
479.304	6085.37
479.509	5899
479.713	6003.45
479.918	5804.8
480.122	5851.9
480.326	5915.39
480.531	5858.04
480.735	5716.73
480.94	5622.53
481.144	5751.55
481.348	5577.47
481.553	5597.95
481.757	5606.14
481.961	5747.45
482.166	5659.39
482.37	5708.54
482.574	5505.79
482.778	5513.99
482.983	5769.98
483.187	5550.85
483.391	5735.17
483.595	5501.7
483.8	5556.99
484.004	5626.62
484.208	5661.44
484.412	5491.46
484.616	5626.62
484.821	5714.69
485.025	5495.55
485.229	5671.68
485.433	5493.51
485.637	5509.89
485.841	5563.14
486.045	5438.21
486.249	5731.07
486.453	5452.55
486.657	5774.08
486.861	5589.76
487.065	5460.74
487.269	5548.8
487.473	5409.54
487.677	5600
487.881	5554.94
488.085	5536.51
488.289	5663.49
488.493	5718.78
488.697	5636.86
488.901	5853.95
489.105	5743.36
489.309	5780.22
489.512	5645.06
489.716	5731.07
489.92	5620.48
490.124	5700.35
490.328	5530.37
490.531	5743.36
490.735	5886.72
490.939	5628.67
491.143	5817.08
491.346	5808.89
491.55	5958.39
491.754	5831.42
491.958	5966.59
492.161	5868.28
492.365	6066.94
492.569	5790.46
492.772	6034.17
492.976	5982.97
493.18	5993.21
493.383	5923.58
493.587	6183.67
493.79	6161.14
493.994	6183.67
494.197	6191.86
494.401	6406.9
494.605	6224.63
494.808	6273.78
495.012	6292.21
495.215	6507.25
495.419	6597.36
495.622	6480.63
495.825	6474.48
496.029	6546.16
496.232	6750.96
496.436	6767.34
496.639	6859.5
496.843	6839.02
497.046	7115.5
497.249	6998.76
497.453	7058.15
497.656	7232.23
497.859	7211.75
498.063	7240.42
498.266	7365.35
498.469	7451.36
498.673	7545.57
498.876	7719.65
499.079	7863.01
499.282	7822.05
499.485	8043.23
499.689	7873.25
499.892	8153.82
500.095	8112.86
500.298	8297.17
500.501	8215.26
500.705	8321.75
500.908	8526.55
501.111	8659.67
501.314	8635.09
501.517	8944.33
501.72	9163.47
501.923	9095.88
502.126	9304.78
502.329	9308.87
502.532	9288.39
502.735	9558.72
502.938	9634.5
503.141	9702.08
503.344	9769.66
503.547	9900.73
503.75	9915.07
503.953	10054.33
504.156	10287.8
504.359	10336.95
504.562	10416.82
504.765	10439.35
504.968	10887.86
505.17	10814.13
505.373	10764.98
505.576	11231.91
505.779	11143.85
505.982	11205.29
506.185	11629.22
506.387	11618.98
506.59	11610.79
506.793	11934.37
506.996	11922.08
507.198	12325.53
507.401	12083.87
507.604	12274.33
507.807	12427.93
508.009	12712.6
508.212	12526.23
508.415	13132.43
508.617	13126.29
508.82	13195.92
509.022	13122.19
509.225	13568.65
509.428	13587.08
509.63	13699.72
509.833	13804.16
510.035	14166.65
510.238	13951.62
510.44	14322.3
510.643	14531.19
510.845	14819.96
511.048	14676.6
511.25	14983.79
511.453	14928.5
511.655	15553.13
511.858	15467.11
512.06	15325.8
512.262	15473.26
512.465	15770.21
512.667	16235.1
512.87	16159.33
513.072	16075.36
513.274	16835.16
513.477	16841.3
513.679	17193.55
513.881	17017.43
514.084	17504.84
514.286	17349.2
514.488	17408.59
514.69	17871.43
514.893	18209.34
515.095	17846.85
515.297	18430.52
515.499	18448.96
515.701	18616.89
515.904	18917.94
516.106	18977.33
516.308	19348.01
516.51	19452.46
516.712	19679.79
516.914	19735.08
517.116	20011.56
517.318	20273.7
517.52	20292.13
517.722	20294.18
517.925	20562.46
518.127	20935.19
518.329	21281.3
518.531	20771.35
518.733	21547.53
518.935	21633.55
519.136	21623.31
519.338	21996.04
519.54	22032.9
519.742	22299.14
519.944	22092.29
520.146	22872.57
520.348	22958.58
520.55	23003.64
520.752	22837.75
520.954	23564.78
521.155	23333.36
521.357	23935.46
521.559	23884.26
521.761	24486.37
521.963	24117.73
522.164	24267.24
522.366	24672.73
522.568	24760.8
522.77	24877.53
522.971	25354.71
523.173	25371.09
523.375	25414.1
523.576	25344.47
523.778	25649.61
523.98	26001.86
524.181	25868.75
524.383	25729.48
524.584	26436.03
524.786	26386.88
524.988	26411.46
525.189	26550.72
525.391	26743.23
525.592	26884.54
525.794	27036.09
525.995	27441.59
526.197	27093.43
526.398	27099.58
526.6	27519.41
526.801	27484.59
527.003	28004.78
527.204	27711.92
527.406	27638.19
527.607	27982.25
527.808	28203.43
528.01	27963.82
528.211	27969.96
528.412	28580.26
528.614	28539.3
528.815	28649.89
529.016	28567.97
529.218	28424.61
529.419	28656.03
529.62	28793.25
529.822	28662.18
530.023	28842.4
530.224	28586.4
530.425	28719.52
530.626	28752.29
530.828	28742.05
531.029	29481.36
531.23	28918.17
531.431	29002.14
531.632	29254.04
531.833	29168.02
532.035	29278.61
532.236	29208.98
532.437	29469.08
532.638	29268.37
532.839	29624.72
533.04	29342.1
533.241	29190.55
533.442	29612.43
533.643	29381.01
533.844	29393.3
534.045	29667.73
534.246	29532.56
534.447	29692.3
534.648	29378.97
534.849	29884.81
535.05	29331.86
535.251	29725.07
535.451	29669.78
535.652	29780.37
535.853	29743.5
536.054	29841.81
536.255	29790.61
536.456	29381.01
536.657	30128.52
536.857	29503.89
537.058	29614.48
537.259	29473.17
537.46	29454.74
537.66	29622.67
537.861	29454.74
538.062	29813.13
538.263	29802.89
538.463	29512.08
538.664	29720.98
538.865	29983.12
539.065	29854.09
539.266	29436.31
539.466	30036.36
539.667	29503.89
539.868	29571.47
540.068	29755.79
540.269	29579.67
540.469	29714.83
540.67	29665.68
540.87	29532.56
541.071	29737.36
541.271	29479.32
541.472	29432.21
541.672	29178.26
541.873	29501.84
542.073	29213.08
542.274	29634.96
542.474	29303.19
542.675	29004.19
542.875	29651.34
543.075	29254.04
543.276	29227.42
543.476	29852.05
543.676	29381.01
543.877	29796.75
544.077	29657.49
544.277	29753.74
544.478	29010.33
544.678	29485.46
544.878	29452.69
545.078	29262.23
545.279	29430.16
545.479	29225.37
545.679	29645.2
545.879	29028.76
546.079	29338.01
546.28	29321.62
546.48	29211.03
546.68	29624.72
546.88	29819.28
547.08	29510.04
547.28	29325.72
547.48	29270.42
547.68	29452.69
547.88	29069.72
548.081	29616.53
548.281	29536.66
548.481	29217.18
548.681	29460.88
548.881	29254.04
549.081	29655.44
549.28	29012.38
549.48	29456.79
549.68	29424.02
549.88	29393.3
550.08	29012.38
550.28	29333.91
550.48	29295
550.68	29229.46
550.88	29153.69
551.08	29094.3
551.279	29315.48
551.479	28725.66
551.679	29307.29
551.879	28920.22
552.079	29178.26
552.278	29327.77
552.478	29196.7
552.678	29381.01
552.878	29049.24
553.077	29217.18
553.277	28957.08
553.477	29237.66
553.676	28975.52
553.876	29014.43
554.076	29165.98
554.275	28924.32
554.475	29098.39
554.674	29182.36
554.874	29194.65
555.074	28672.42
555.273	28981.66
555.473	29200.79
555.672	28830.11
555.872	28660.13
556.071	28869.02
556.271	29073.82
556.47	28991.9
556.67	28320.17
556.869	28735.9
557.068	28770.72
557.268	28649.89
557.467	28567.97
557.667	28496.29
557.866	28455.33
558.065	28795.29
558.265	28189.1
558.464	28320.17
558.663	28942.75
558.863	27992.49
559.062	28610.98
559.261	28203.43
559.461	28535.2
559.66	28148.14
559.859	28219.81
560.058	27984.3
560.258	28316.07
560.457	27666.86
560.656	27929
560.855	28068.27
561.054	28115.37
561.253	27939.24
561.453	27886
561.652	27963.82
561.851	27894.19
562.05	27834.8
562.249	27730.35
562.448	28113.32
562.647	27775.41
562.846	27705.77
563.045	27724.21
563.244	27433.39
563.443	27713.97
563.642	27427.25
563.841	27412.92
564.04	27406.77
564.239	27640.24
564.438	27249.08
564.637	27011.51
564.836	26995.13
565.035	26995.13
565.234	27292.08
565.432	26864.06
565.631	27062.71
565.83	27056.57
566.029	26968.51
566.228	26634.69
566.427	26657.21
566.625	27017.66
566.824	26366.4
567.023	27148.73
567.222	26309.06
567.42	26732.99
567.619	26612.16
567.818	26345.92
568.016	26292.68
568.215	26622.4
568.414	26425.79
568.612	26460.61
568.811	26137.03
569.01	26128.84
569.208	25633.23
569.407	26182.09
569.605	25694.67
569.804	26032.58
570.002	25459.15
570.201	25835.98
570.4	25975.24
570.598	25657.81
570.797	25352.66
570.995	25788.88
571.193	25215.44
571.392	25600.46
571.59	25428.43
571.789	25434.58
571.987	24992.22
572.186	25233.88
572.384	25117.14
572.582	25487.82
572.781	25407.95
572.979	24846.81
573.177	24990.17
573.376	25213.4
573.574	24535.52
573.772	25125.33
573.971	24386.02
574.169	24517.09
574.367	24566.24
574.565	24431.07
574.763	24302.05
574.962	24353.25
575.16	24029.67
575.358	24261.09
575.556	24021.48
575.754	24562.14
575.952	23828.97
576.151	24156.64
576.349	23890.41
576.547	24213.99
576.745	23732.72
576.943	23790.06
577.141	23851.5
577.339	23859.69
577.537	23564.78
577.735	23828.97
577.933	23699.95
578.131	23691.76
578.329	23157.24
578.527	23212.53
578.725	23271.92
578.923	23259.63
579.121	23116.28
579.319	22782.46
579.516	23304.69
579.714	23028.21
579.912	22981.11
580.11	22860.28
580.308	22671.87
580.506	22919.67
580.704	22288.9
580.901	22891
581.099	22663.68
581.297	22260.23
581.495	22428.16
581.692	22675.96
581.89	22170.12
582.088	22184.45
582.285	22176.26
582.483	22139.4
582.681	22006.28
582.878	22032.9
583.076	21656.07
583.274	21742.09
583.471	21787.14
583.669	21914.12
583.866	21742.09
584.064	21920.26
584.262	21479.95
584.459	21572.11
584.657	20998.68
584.854	21756.43
585.052	21203.47
585.249	21234.19
585.447	21443.09
585.644	21049.88
585.841	21043.73
586.039	21240.34
586.236	20867.61
586.434	20836.89
586.631	21074.45
586.828	21041.68
587.026	20638.23
587.223	20615.71
587.42	20650.52
587.618	20621.85
587.815	20537.88
588.012	20347.42
588.21	20546.08
588.407	20331.04
588.604	20429.34
588.801	20034.08
588.999	20247.07
589.196	20236.83
589.393	20003.36
589.59	20042.28
589.787	19927.59
589.984	19898.92
590.182	19358.25
590.379	20130.34
590.576	19687.98
590.773	19649.07
590.97	19315.25
591.167	19601.96
591.364	19280.43
591.561	19280.43
591.758	19446.32
591.955	19241.52
592.152	19702.31
592.349	19001.91
592.546	19345.97
592.743	19218.99
592.94	19325.49
593.137	19302.96
593.334	18874.93
593.531	18709.05
593.727	18991.67
593.924	18745.91
594.121	18448.96
594.318	18715.19
594.515	18498.11
594.712	18745.91
594.908	18616.89
595.105	18577.98
595.302	18545.21
595.499	18350.65
595.696	18223.68
595.892	18307.65
596.089	18168.38
596.286	18338.37
596.482	18002.5
596.679	18088.51
596.876	18104.9
597.072	17855.04
597.269	17887.81
597.466	17740.36
597.662	17936.96
597.859	17873.48
598.055	17545.8
598.252	17588.81
598.448	17533.51
598.645	17693.26
598.841	17525.32
599.038	17431.12
599.234	17584.71
599.431	17205.84
599.627	17369.68
599.824	17545.8
600.02	17113.68
600.217	17259.09
600.413	17115.73
600.609	16884.31
600.806	16804.44
601.002	17085.01
601.198	16837.2
601.395	16583.26
601.591	16843.35
601.787	16816.72
601.984	16425.56
602.18	16636.5
602.376	16663.13
602.572	16372.32
602.769	16499.29
602.965	16149.09
603.161	16462.43
603.357	16087.65
603.553	16321.12
603.75	16063.07
603.946	16071.26
604.142	16253.53
604.338	15903.33
604.534	16210.53
604.73	15856.23
604.926	15641.19
605.122	15983.2
605.318	15770.21
605.514	15702.63
605.71	15659.62
605.906	15573.61
606.102	15573.61
606.298	15696.49
606.494	15329.9
606.69	15385.19
606.886	15708.77
607.082	15424.11
607.278	15450.73
607.474	15166.06
607.67	15471.21
607.866	15112.81
608.062	15340.14
608.257	15176.3
608.453	15200.88
608.649	15256.17
608.845	15127.15
609.041	15196.78
609.236	14955.12
609.432	15067.76
609.628	14908.02
609.824	14756.47
610.019	14815.86
610.215	15092.34
610.411	14928.5
610.606	14867.06
610.802	14779
610.998	14846.58
611.193	14695.03
611.389	14445.18
611.584	14418.55
611.78	14404.22
611.976	14488.18
612.171	14647.93
612.367	14373.5
612.562	14428.79
612.758	14307.96
612.953	14398.07
613.149	14353.02
613.344	14023.3
613.539	14504.57
613.735	14269.05
613.93	14240.38
614.126	14256.76
614.321	14463.61
614.517	14064.25
614.712	14197.37
614.907	13933.18
615.103	14180.99
615.298	14131.84
615.493	14121.6
615.688	13816.45
615.884	14129.79
616.079	13900.42
616.274	13914.75
616.47	13763.2
616.665	13873.79
616.86	13716.1
617.055	13617.8
617.25	13798.02
617.445	13609.61
617.641	13458.06
617.836	13716.1
618.031	13298.31
618.226	13619.85
618.421	13316.75
618.616	13785.73
618.811	13353.61
619.006	13333.13
619.201	13224.59
619.396	13183.63
619.591	13005.45
619.786	13056.65
619.981	13040.27
620.176	13130.38
620.371	12911.25
620.566	12798.61
620.761	12827.28
620.956	12898.96
621.151	12788.37
621.346	12628.63
621.541	12552.85
621.735	12659.35
621.93	12518.04
622.125	12419.74
622.32	12376.73
622.515	12546.71
622.709	12272.28
622.904	12167.84
623.099	12038.81
623.294	12204.7
623.488	12049.05
623.683	12120.73
623.878	11766.43
624.072	11850.4
624.267	11731.62
624.462	11741.86
624.656	11694.75
624.851	11641.51
625.046	11365.03
625.24	11498.15
625.435	11313.83
625.629	11557.54
625.824	11260.59
626.018	11233.96
626.213	11109.04
626.407	11158.19
626.602	11027.12
626.796	11080.36
626.991	11041.45
627.185	10889.9
627.38	10937.01
627.574	10586.8
627.768	10508.98
627.963	10488.5
628.157	10595
628.352	10551.99
628.546	10310.33
628.74	10521.27
628.935	10255.03
629.129	10230.46
629.323	10136.25
629.517	10222.27
629.712	10175.16
629.906	10171.07
630.1	10095.29
630.294	10164.92
630.489	9910.97
630.683	9906.88
630.877	9745.09
631.071	9630.4
631.265	9743.04
631.459	9550.53
631.653	9556.68
631.848	9726.66
632.042	9673.41
632.236	9603.78
632.43	9466.56
632.624	9384.65
632.818	9161.42
633.012	9237.19
633.206	8909.52
633.4	9247.43
633.594	9110.22
633.788	9134.79
633.982	9224.9
634.176	8829.65
634.369	8979.15
634.563	9091.79
634.757	8833.74
634.951	8811.21
635.145	8782.54
635.339	8727.25
635.533	8706.77
635.726	8692.43
635.92	8579.79
636.114	8639.19
636.308	8592.08
636.501	8442.58
636.695	8530.64
636.889	8331.99
637.083	8317.65
637.276	8305.37
637.47	8116.95
637.664	8284.89
637.857	8202.97
638.051	8243.93
638.244	7791.33
638.438	7930.59
638.632	7949.02
638.825	7936.73
639.019	7828.19
639.212	7799.52
639.406	7805.66
639.599	7979.74
639.793	7797.47
639.986	7676.64
640.18	7686.88
640.373	7377.64
640.567	7596.77
640.76	7545.57
640.954	7363.3
641.147	7234.28
641.34	7185.13
641.534	7377.64
641.727	7338.73
641.92	7123.69
642.114	7260.9
642.307	7045.87
642.5	7117.54
642.694	7105.26
642.887	7092.97
643.08	6902.51
643.273	6931.18
643.467	7115.5
643.66	6814.45
643.853	6873.84
644.046	6818.54
644.239	6671.09
644.432	6763.25
644.626	6714.09
644.819	6603.5
645.012	6607.6
645.205	6447.86
645.398	6546.16
645.591	6390.52
645.784	6468.34
645.977	6314.74
646.17	6527.73
646.363	6238.97
646.556	6298.36
646.749	6249.21
646.942	6347.51
647.135	6103.8
647.328	6179.58
647.521	6120.18
647.714	6017.79
647.907	6048.51
648.099	6060.79
648.292	6157.05
648.485	5931.77
648.678	5845.76
648.871	5923.58
649.064	5862.14
649.256	5880.57
649.449	5765.89
649.642	5643.01
649.835	5708.54
650.027	5726.97
650.22	5473.03
650.413	5604.1
650.605	5573.38
650.798	5561.09
650.991	5577.47
651.183	5518.08
651.376	5421.83
651.568	5454.59
651.761	5438.21
651.954	5171.97
652.146	5405.44
652.339	5331.72
652.531	5368.58
652.724	5214.98
652.916	5348.1
653.109	5262.09
653.301	4989.71
653.494	5200.65
653.686	5141.25
653.879	5178.12
654.071	5045
654.263	4952.84
654.456	5116.68
654.648	4989.71
654.84	4963.08
655.033	4854.54
655.225	5010.18
655.417	4868.88
655.61	4913.93
655.802	4862.73
655.994	4711.18
656.186	4877.07
656.379	4807.44
656.571	4786.96
656.763	4637.45
656.955	4700.94
657.148	4569.87
657.34	4637.45
657.532	4653.84
657.724	4608.78
657.916	4547.34
658.108	4461.33
658.3	4420.37
658.492	4459.28
658.684	4440.85
658.876	4465.43
659.068	4428.56
659.26	4307.73
659.452	4367.12
659.644	4369.17
659.836	4111.13
660.028	4246.29
660.22	4195.09
660.412	4166.42
660.604	4111.13
660.796	4123.41
660.988	4107.03
661.18	4145.94
661.372	4055.83
661.563	4107.03
661.755	3955.48
661.947	4047.64
662.139	4002.58
662.331	3873.56
662.522	3853.08
662.714	3959.58
662.906	3814.17
663.097	3898.14
663.289	3846.94
663.481	3726.11
663.673	3853.08
663.864	3769.12
664.056	3564.32
664.247	3736.35
664.439	3636
664.631	3709.72
664.822	3695.39
665.014	3699.48
665.205	3586.85
665.397	3584.8
665.588	3676.96
665.78	3545.89
665.971	3552.03
666.163	3537.7
666.354	3568.41
666.546	3554.08
666.737	3345.19
666.929	3504.93
667.12	3425.06
667.311	3517.22
667.503	3316.51
667.694	3406.63
667.885	3414.82
668.077	3275.56
668.268	3250.98
668.459	3296.04
668.651	3273.51
668.842	3330.85
669.033	3265.32
669.224	3281.7
669.416	3242.79
669.607	3291.94
669.798	3138.34
669.989	3222.31
670.18	3121.96
670.371	3124.01
670.563	3236.64
670.754	3234.6
670.945	3228.45
671.136	3105.57
671.327	3017.51
671.518	3124.01
671.709	3031.85
671.9	3017.51
672.091	2925.35
672.282	2994.98
672.473	2921.26
672.664	2994.98
672.855	3076.9
673.046	3056.42
673.237	2976.55
673.428	2929.45
673.619	2906.92
673.809	2865.96
674	2892.59
674.191	3011.37
674.382	2853.67
674.573	3015.46
674.764	2855.72
674.954	2853.67
675.145	2890.54
675.336	2853.67
675.527	2827.05
675.717	2781.99
675.908	2509.62
676.099	2878.25
676.289	2765.61
676.48	2702.12
676.671	2749.23
676.861	2894.63
677.052	2841.39
677.243	2693.93
677.433	2605.87
677.624	2687.79
677.814	2755.37
678.005	2814.76
678.195	2716.46
678.386	2822.95
678.576	2683.69
678.767	2743.08
678.957	2652.97
679.148	2663.21
679.338	2769.71
679.529	2665.26
679.719	2581.29
679.909	2687.79
680.1	2523.95
680.29	2743.08
680.481	2667.31
680.671	2579.25
680.861	2612.01
681.052	2599.73
681.242	2683.69
681.432	2616.11
681.622	2587.44
681.813	2603.82
682.003	2591.53
682.193	2448.18
682.383	2466.61
682.573	2671.4
682.764	2630.45
682.954	2554.67
683.144	2530.09
683.334	2558.77
683.524	2517.81
683.714	2521.9
683.904	2458.42
684.094	2526
684.284	2550.57
684.474	2571.05
684.664	2515.76
684.854	2399.02
685.044	2329.39
685.234	2566.96
685.424	2528.05
685.614	2310.96
685.804	2423.6
685.994	2396.98
686.184	2439.98
686.374	2573.1
686.564	2439.98
686.753	2485.04
686.943	2386.74
687.133	2401.07
687.323	2339.63
687.513	2448.18
687.702	2399.02
687.892	2331.44
688.082	2423.6
688.272	2429.74
688.461	2442.03
688.651	2286.39
688.841	2347.83
689.03	2442.03
689.22	2396.98
689.41	2290.48
689.599	2333.49
689.789	2319.15
689.979	2143.03
690.168	2294.58
690.358	2294.58
690.547	2222.9
690.737	2159.41
690.926	2360.11
691.116	2227
691.305	2284.34
691.495	2280.24
691.684	2259.76
691.874	2259.76
692.063	2300.72
692.252	2261.81
692.442	2349.87
692.631	2294.58
692.82	2259.76
693.01	2229.04
693.199	2263.86
693.388	2210.61
693.578	2173.75
693.767	2136.88
693.956	2270
694.146	2116.41
694.335	2169.65
694.524	2251.57
694.713	2253.62
694.902	2149.17
695.092	2272.05
695.281	2001.72
695.47	2151.22
695.659	2042.68
695.848	2075.45
696.037	2251.57
696.226	2163.51
696.415	2124.6
696.604	2173.75
696.793	2120.5
696.982	2186.04
697.171	2145.08
697.36	2188.08
697.549	2128.69
697.738	2022.2
697.927	2026.29
698.116	2077.49
698.305	2128.69
698.494	2073.4
698.683	2104.12
698.872	2042.68
699.061	2079.54
699.25	2044.73
699.438	2204.47
699.627	2003.77
699.816	2108.21
700.005	1956.66
700.193	1964.86
700.382	1999.67
700.571	2067.25
700.76	2057.01
700.948	1991.48
701.137	2016.05
701.326	2075.45
701.514	1968.95
701.703	1983.29
701.892	2038.58
702.08	1952.57
702.269	2057.01
702.457	2030.39
702.646	1985.34
702.834	2063.16
703.023	1936.18
703.212	1985.34
703.4	2032.44
703.589	1874.74
703.777	1981.24
703.965	1944.38
704.154	1964.86
704.342	2020.15
704.531	1833.79
704.719	1921.85
704.907	2005.81
705.096	1909.56
705.284	1932.09
705.472	1966.9
705.661	1909.56
705.849	1934.14
706.037	1862.46
706.226	1944.38
706.414	1819.45
706.602	1958.71
706.79	1850.17
706.979	1846.07
707.167	1860.41
707.355	1846.07
707.543	1893.18
707.731	1807.16
707.919	1817.4
708.107	1829.69
708.296	1901.37
708.484	1837.88
708.672	1858.36
708.86	1850.17
709.048	1819.45
709.236	1776.44
709.424	1803.07
709.612	1882.94
709.8	1905.46
709.988	1762.11
710.176	1739.58
710.364	1764.15
710.551	1743.67
710.739	1839.93
710.927	1811.26
711.115	1657.66
711.303	1803.07
711.491	1678.14
711.679	1786.68
711.866	1739.58
712.054	1751.87
712.242	1792.83
712.43	1788.73
712.617	1663.8
712.805	1737.53
712.993	1760.06
713.181	1710.91
713.368	1717.05
713.556	1680.19
713.744	1702.72
713.931	1745.72
714.119	1706.81
714.306	1674.04
714.494	1645.37
714.682	1616.7
714.869	1614.65
715.057	1708.86
715.244	1600.32
715.432	1661.76
715.619	1655.61
715.807	1704.76
715.994	1596.22
716.182	1592.13
716.369	1676.09
716.556	1678.14
716.744	1598.27
716.931	1708.86
717.119	1628.99
717.306	1694.52
717.493	1549.12
717.681	1604.41
717.868	1567.55
718.055	1631.04
718.242	1549.12
718.43	1626.94
718.617	1506.11
718.804	1624.89
718.991	1575.74
719.179	1620.8
719.366	1663.8
719.553	1575.74
719.74	1583.93
719.927	1604.41
720.114	1532.73
720.301	1598.27
720.488	1592.13
720.676	1508.16
720.863	1569.6
721.05	1649.47
721.237	1579.84
721.424	1538.88
721.611	1573.69
721.798	1512.25
721.985	1481.53
722.172	1563.45
722.358	1467.2
722.545	1489.73
722.732	1411.9
722.919	1594.17
723.106	1407.81
723.293	1454.91
723.48	1545.02
723.667	1456.96
723.853	1456.96
724.04	1542.97
724.227	1401.66
724.414	1516.35
724.6	1442.62
724.787	1573.69
724.974	1516.35
725.161	1602.36
725.347	1440.58
725.534	1405.76
725.72	1434.43
725.907	1459.01
726.094	1418.05
726.28	1483.58
726.467	1540.93
726.653	1348.42
726.84	1450.82
727.027	1522.49
727.213	1430.34
727.4	1475.39
727.586	1497.92
727.773	1493.82
727.959	1366.85
728.145	1424.19
728.332	1416
728.518	1475.39
728.705	1389.38
728.891	1399.62
729.077	1405.76
729.264	1358.66
729.45	1436.48
729.636	1405.76
729.823	1342.27
730.009	1418.05
730.195	1401.66
730.382	1407.81
730.568	1426.24
730.754	1436.48
730.94	1438.53
731.126	1438.53
731.313	1399.62
731.499	1395.52
731.685	1389.38
731.871	1307.46
732.057	1370.94
732.243	1395.52
732.429	1456.96
732.615	1416
732.801	1432.38
732.987	1379.14
733.173	1407.81
733.359	1350.46
733.545	1491.77
733.731	1313.6
733.917	1434.43
734.103	1477.44
734.289	1401.66
734.475	1338.18
734.661	1446.72
734.847	1420.1
735.033	1377.09
735.219	1305.41
735.404	1391.42
735.59	1399.62
735.776	1364.8
735.962	1418.05
736.148	1250.11
736.333	1307.46
736.519	1450.82
736.705	1315.65
736.89	1252.16
737.076	1407.81
737.262	1372.99
737.447	1366.85
737.633	1299.27
737.819	1227.59
738.004	1272.64
738.19	1319.75
738.375	1207.11
738.561	1293.12
738.747	1364.8
738.932	1442.62
739.118	1258.31
739.303	1256.26
739.489	1276.74
739.674	1315.65
739.859	1309.51
740.045	1268.55
740.23	1205.06
740.416	1215.3
740.601	1303.36
740.786	1147.72
740.972	1286.98
741.157	1284.93
741.342	1303.36
741.528	1200.96
741.713	1325.89
741.898	1250.11
742.084	1141.57
742.269	1241.92
742.454	1297.22
742.639	1231.68
742.824	1248.07
743.01	1147.72
743.195	1323.84
743.38	1123.14
743.565	1225.54
743.75	1100.61
743.935	1211.2
744.12	1160
744.305	1100.61
744.49	1053.51
744.675	1213.25
744.86	1235.78
745.045	1104.71
745.23	1200.96
745.415	1211.2
745.6	1166.15
745.785	1076.04
745.97	1176.39
746.155	1188.68
746.34	1104.71
746.525	1065.8
746.71	1067.85
746.895	1172.29
747.079	1094.47
747.264	1086.28
747.449	1098.56
747.634	1055.56
747.819	1117
748.003	1092.42
748.188	1020.74
748.373	1030.98
748.557	1035.08
748.742	924.49
748.927	1057.61
749.111	1002.31
749.296	1049.41
749.481	944.97
749.665	998.21
749.85	967.49
750.034	1016.65
750.219	965.45
750.404	959.3
750.588	916.3
750.773	961.35
750.957	875.34
751.141	992.07
751.326	832.33
751.51	936.78
751.695	955.21
751.879	899.91
752.064	916.3
752.248	1008.45
752.432	967.49
752.617	932.68
752.801	971.59
752.985	910.15
753.17	904.01
753.354	910.15
753.538	934.73
753.722	932.68
753.907	885.58
754.091	861
754.275	961.35
754.459	746.31
754.643	867.14
754.828	817.99
755.012	826.18
755.196	836.42
755.38	858.95
755.564	793.42
755.748	875.34
755.932	918.34
756.116	910.15
756.3	836.42
756.484	803.66
756.668	785.23
756.852	740.17
757.036	801.61
757.22	756.55
757.404	783.18
757.588	686.92
757.772	701.26
757.956	723.79
758.14	748.36
758.323	660.3
758.507	766.79
758.691	758.6
758.875	629.58
759.059	680.78
759.242	742.22
759.426	727.88
759.61	703.31
759.794	699.21
759.977	721.74
760.161	768.84
760.345	658.25
760.528	670.54
760.712	648.01
760.895	824.14
761.079	664.4
761.263	674.64
761.446	549.71
761.63	711.5
761.813	648.01
761.997	723.79
762.18	643.92
762.364	648.01
762.547	635.72
762.731	584.52
762.914	697.16
763.098	621.39
763.281	633.68
763.464	631.63
763.648	682.83
763.831	697.16
764.015	660.3
764.198	654.16
764.381	662.35
764.564	613.2
764.748	557.9
764.931	600.91
765.114	609.1
765.297	617.29
765.481	574.28
765.664	633.68
765.847	584.52
766.03	629.58
766.213	549.71
766.397	596.81
766.58	568.14
766.763	525.13
766.946	557.9
767.129	590.67
767.312	627.53
767.495	588.62
767.678	572.24
767.861	582.48
768.044	539.47
768.227	549.71
768.41	607.05
768.593	578.38
768.776	598.86
768.959	631.63
769.142	605
769.324	629.58
769.507	496.46
769.69	584.52
769.873	535.37
770.056	572.24
770.239	557.9
770.421	645.96
770.604	508.75
770.787	510.8
770.97	514.89
771.152	557.9
771.335	543.57
771.518	553.8
771.7	502.61
771.883	496.46
772.066	490.32
772.248	469.84
772.431	525.13
772.613	514.89
772.796	527.18
772.978	533.33
773.161	559.95
773.343	437.07
773.526	584.52
773.708	445.26
773.891	430.93
774.073	490.32
774.256	527.18
774.438	500.56
774.621	510.8
774.803	484.17
774.985	402.26
775.168	426.83
775.35	396.11
775.532	484.17
775.715	426.83
775.897	478.03
776.079	400.21
776.261	514.89
776.444	387.92
776.626	443.21
776.808	408.4
776.99	435.02
777.173	439.12
777.355	441.17
777.537	336.72
777.719	422.73
777.901	416.59
778.083	353.1
778.265	416.59
778.447	445.26
778.629	422.73
778.811	478.03
778.993	361.3
779.175	392.02
779.357	418.64
779.539	375.63
779.721	338.77
779.903	310.1
780.085	416.59
780.267	416.59
780.449	312.14
780.631	428.88
780.812	408.4
780.994	334.67
781.176	371.54
781.358	396.11
781.54	324.43
781.721	375.63
781.903	349.01
782.085	428.88
782.267	287.57
782.448	340.82
782.63	301.9
782.812	394.06
782.993	367.44
783.175	236.37
783.357	367.44
783.538	383.82
783.72	310.1
783.901	334.67
784.083	285.52
784.264	281.43
784.446	299.86
784.627	316.24
784.809	244.56
784.99	269.14
785.172	275.28
785.353	295.76
785.535	248.66
785.716	308.05
785.897	232.27
786.079	334.67
786.26	240.47
786.441	281.43
786.623	262.99
786.804	316.24
786.985	230.23
787.167	275.28
787.348	312.14
787.529	281.43
787.71	219.99
787.891	267.09
788.073	189.27
788.254	199.51
788.435	252.75
788.616	279.38
788.797	248.66
788.978	248.66
789.159	222.03
789.34	215.89
789.522	242.51
789.703	285.52
789.884	285.52
790.065	205.65
790.246	295.76
790.427	316.24
790.607	226.13
790.788	238.42
790.969	185.17
791.15	150.36
791.331	187.22
791.512	213.84
791.693	252.75
791.874	203.6
792.054	183.12
792.235	252.75
792.416	254.8
792.597	199.51
792.778	207.7
792.958	336.72
793.139	172.88
793.32	203.6
793.5	162.64
793.681	228.18
793.862	160.59
794.042	172.88
794.223	103.25
794.404	133.97
794.584	191.31
794.765	224.08
794.945	260.95
795.126	174.93
795.306	215.89
795.487	191.31
795.667	246.61
795.848	197.46
796.028	201.55
796.209	162.64
796.389	205.65
796.57	140.12
796.75	185.17
796.93	191.31
797.111	105.3
797.291	246.61
797.471	148.31
797.652	164.69
797.832	131.92
798.012	166.74
798.192	158.55
798.373	84.82
798.553	123.73
798.733	113.49
798.913	189.27
799.093	176.98
799.274	187.22
799.454	162.64
799.634	90.96
799.814	131.92
799.994	142.16
800.174	123.73
800.354	127.83
800.534	113.49
800.714	131.92
800.894	115.54
801.074	90.96
801.254	148.31
801.434	142.16
801.614	101.2
801.794	164.69
801.974	389.97
802.154	117.59
802.334	144.21
802.514	117.59
802.693	93.01
802.873	121.68
803.053	101.2
803.233	142.16
803.413	109.4
803.592	170.83
803.772	129.88
803.952	88.92
804.131	158.55
804.311	64.34
804.491	54.1
804.67	78.68
804.85	80.72
805.03	150.36
805.209	162.64
805.389	107.35
805.568	119.64
805.748	183.12
805.928	64.34
806.107	154.45
806.287	148.31
806.466	84.82
806.646	86.87
806.825	74.58
807.004	47.96
807.184	99.16
807.363	146.26
807.543	152.4
807.722	70.48
807.901	68.44
808.081	82.77
808.26	113.49
808.439	113.49
808.619	95.06
808.798	56.15
808.977	37.72
809.156	88.92
809.336	168.79
809.515	166.74
809.694	54.1
809.873	115.54
810.052	72.53
810.231	138.07
810.411	78.68
810.59	168.79
810.769	86.87
810.948	115.54
811.127	117.59
811.306	148.31
811.485	146.26
811.664	113.49
811.843	72.53
812.022	109.4
812.201	111.44
812.38	97.11
812.559	13.14
812.737	138.07
812.916	33.62
813.095	45.91
813.274	86.87
813.453	119.64
813.632	101.2
813.811	121.68
813.989	123.73
814.168	101.2
814.347	31.57
814.526	-9.39
814.704	9.05
814.883	78.68
815.062	58.2
815.24	70.48
815.419	105.3
815.598	111.44
815.776	105.3
815.955	138.07
816.133	33.62
816.312	125.78
816.49	80.72
816.669	107.35
816.847	70.48
817.026	25.43
817.204	58.2
817.383	68.44
817.561	45.91
817.74	109.4
817.918	23.38
818.097	113.49
818.275	129.88
818.453	58.2
818.632	31.57
818.81	187.22
818.988	41.81
819.167	95.06
819.345	27.48
819.523	99.16
819.701	47.96
819.879	82.77
820.058	64.34
820.236	41.81
820.414	50
820.592	72.53
820.77	19.29
820.948	23.38
821.127	66.39
821.305	45.91
821.483	43.86
821.661	121.68
821.839	107.35
822.017	97.11
822.195	43.86
822.373	82.77
822.551	93.01
822.729	84.82
822.907	78.68
823.085	9.05
823.262	101.2
823.44	125.78
823.618	29.52
823.796	72.53
823.974	37.72
824.152	41.81
824.329	121.68
824.507	93.01
824.685	60.24
824.863	37.72
825.04	64.34
825.218	82.77
825.396	80.72
825.574	70.48
825.751	33.62
825.929	105.3
826.107	88.92
826.284	64.34
826.462	150.36
826.639	99.16
826.817	41.81
826.994	23.38
827.172	-9.39
827.349	72.53
827.527	52.05
827.704	15.19
827.882	25.43
828.059	23.38
828.237	13.14
828.414	64.34
828.591	31.57
828.769	31.57
828.946	-7.34
829.124	47.96
829.301	68.44
829.478	64.34
829.655	33.62
829.833	72.53
830.01	23.38
830.187	21.33
830.364	33.62
830.542	86.87
830.719	58.2
830.896	23.38
831.073	99.16
831.25	95.06
831.427	41.81
831.604	33.62
831.782	68.44
831.959	15.19
832.136	82.77
832.313	21.33
832.49	-31.91
832.667	7
832.844	-5.29
833.021	74.58
833.198	35.67
833.374	68.44
833.551	76.63
833.728	2.9
833.905	0.85
834.082	13.14
834.259	19.29
834.436	127.83
834.612	35.67
834.789	-1.19
834.966	86.87
835.143	64.34
835.319	17.24
835.496	125.78
835.673	15.19
835.85	70.48
836.026	2.9
836.203	84.82
836.38	60.24
836.556	66.39
836.733	-44.2
836.909	99.16
837.086	103.25
837.262	113.49
837.439	-17.58
837.616	66.39
837.792	19.29
837.968	-5.29
838.145	35.67
838.321	43.86
838.498	17.24
838.674	62.29
838.851	23.38
839.027	-11.43
839.203	25.43
839.38	-1.19
839.556	-21.67
839.732	107.35
839.909	-1.19
840.085	43.86
840.261	-5.29
840.437	80.72
840.614	-64.68
840.79	31.57
840.966	62.29
841.142	11.09
841.318	35.67
841.494	17.24
841.671	101.2
841.847	31.57
842.023	-11.43
842.199	41.81
842.375	-19.63
842.551	33.62
842.727	13.14
842.903	78.68
843.079	2.9
843.255	68.44
843.431	33.62
843.607	19.29
843.783	-9.39
843.959	50
844.134	21.33
844.31	23.38
844.486	-15.53
844.662	107.35
844.838	66.39
845.013	52.05
845.189	-5.29
845.365	50
845.541	47.96
845.716	-62.63
845.892	76.63
846.068	17.24
846.244	56.15
846.419	45.91
846.595	60.24
846.77	-11.43
846.946	4.95
847.122	66.39
847.297	52.05
847.473	50
847.648	-21.67
847.824	-40.11
847.999	11.09
848.175	-52.39
848.35	45.91
848.526	-17.58
848.701	45.91
848.876	43.86
849.052	-46.25
849.227	-9.39
849.403	-64.68
849.578	19.29
849.753	19.29
849.929	0.85
850.104	17.24
850.279	-21.67
850.454	17.24
850.63	21.33
850.805	17.24
850.98	41.81
851.155	17.24
851.33	43.86
851.505	-13.48
851.681	25.43
851.856	70.48
852.031	78.68
852.206	29.52
852.381	-64.68
852.556	-42.15
852.731	64.34
852.906	78.68
853.081	17.24
853.256	39.76
853.431	54.1
853.606	31.57
853.781	52.05
853.956	78.68
854.131	74.58
854.305	15.19
854.48	19.29
854.655	-38.06
854.83	-3.24
855.005	-3.24
855.18	15.19
855.354	-27.82
855.529	45.91
855.704	-7.34
855.879	21.33
856.053	-5.29
856.228	9.05
856.403	0.85
856.577	-7.34
856.752	52.05
856.926	-5.29
857.101	19.29
857.276	15.19
857.45	25.43
857.625	-19.63
857.799	-36.01
857.974	50
858.148	-60.59
858.323	-54.44
858.497	-42.15
858.672	60.24
858.846	78.68
859.02	-56.49
859.195	31.57
859.369	11.09
859.543	-95.4
859.718	-3.24
859.892	2.9
860.066	50
860.241	-1.19
860.415	-68.78
860.589	35.67
860.763	82.77
860.938	-25.77
861.112	15.19
861.286	19.29
861.46	-36.01
861.634	25.43
861.808	-38.06
861.982	25.43
862.157	-3.24
862.331	-29.87
862.505	31.57
862.679	-40.11
862.853	-11.43
863.027	-40.11
863.201	31.57
863.375	-25.77
863.549	50
863.722	23.38
863.896	39.76
864.07	-31.91
864.244	13.14
864.418	25.43
864.592	-17.58
864.766	21.33
864.939	4.95
865.113	-31.91
865.287	64.34
865.461	2.9
865.634	-15.53
865.808	-13.48
865.982	82.77
866.156	41.81
866.329	-27.82
866.503	-1.19
866.676	19.29
866.85	-42.15
867.024	72.53
867.197	-9.39
867.371	-36.01
867.544	-33.96
867.718	17.24
867.891	52.05
868.065	2.9
868.238	17.24
868.412	72.53
868.585	-58.54
868.759	64.34
868.932	-54.44
869.105	31.57
869.279	4.95
869.452	15.19
869.625	-5.29
869.799	-9.39
869.972	45.91
870.145	9.05
870.319	41.81
870.492	-23.72
870.665	39.76
870.838	47.96
871.011	-33.96
871.185	47.96
871.358	11.09
871.531	43.86
871.704	-87.21
871.877	17.24
872.05	-40.11
872.223	0.85
872.396	15.19
872.569	33.62
872.742	39.76
872.915	-1.19
873.088	-70.83
873.261	-23.72
873.434	-66.73
873.607	-9.39
873.78	21.33
873.953	33.62
874.126	41.81
874.299	50
874.471	-1.19
874.644	21.33
874.817	-27.82
874.99	-40.11
875.163	21.33
875.335	21.33
875.508	-40.11
875.681	11.09
875.853	29.52
876.026	21.33
876.199	35.67
876.371	19.29
876.544	-23.72
876.717	29.52
876.889	19.29
877.062	31.57
877.234	-56.49
877.407	-31.91
877.579	7
877.752	23.38
877.924	-38.06
878.097	31.57
878.269	-36.01
878.442	-9.39
878.614	-3.24
878.786	-23.72
878.959	-27.82
879.131	-46.25
879.303	41.81
879.476	23.38
879.648	-1.19
879.82	50
879.993	35.67
880.165	-9.39
880.337	2.9
880.509	-76.97
880.681	-29.87
880.854	-60.59
881.026	74.58
881.198	-25.77
881.37	-87.21
881.542	-7.34
881.714	-13.48
881.886	39.76
882.058	-52.39
882.23	-42.15
882.402	37.72
882.574	0.85
882.746	-122.02
882.918	17.24
883.09	-19.63
883.262	-19.63
883.434	-17.58
883.606	-48.3
883.778	-56.49
883.95	-15.53
884.122	11.09
884.293	-5.29
884.465	88.92
884.637	35.67
884.809	4.95
884.98	19.29
885.152	-19.63
885.324	25.43
885.496	-13.48
885.667	-23.72
885.839	15.19
886.011	-1.19
886.182	-1.19
886.354	-38.06
886.525	50
886.697	15.19
886.869	39.76
887.04	-7.34
887.212	45.91
887.383	9.05
887.555	-31.91
887.726	-29.87
887.897	-70.83
888.069	86.87
888.24	4.95
888.412	29.52
888.583	7
888.754	88.92
888.926	-40.11
889.097	-74.92
889.268	-13.48
889.44	21.33
889.611	33.62
889.782	13.14
889.953	27.48
890.125	-46.25
890.296	-72.87
890.467	-17.58
890.638	-15.53
890.809	-11.43
890.98	-23.72
891.151	21.33
891.323	-21.67
891.494	37.72
891.665	-1.19
891.836	72.53
892.007	-9.39
892.178	17.24
892.349	-11.43
892.52	-42.15
892.691	-29.87
892.862	19.29
893.032	-44.2
893.203	76.63
893.374	11.09
893.545	68.44
893.716	-83.11
893.887	-7.34
894.057	-81.07
894.228	-9.39
894.399	-23.72
894.57	-60.59
894.74	-9.39
894.911	-15.53
895.082	13.14
895.253	62.29
895.423	23.38
895.594	0.85
895.764	15.19
895.935	-11.43
896.106	-13.48
896.276	15.19
896.447	-33.96
896.617	-46.25
896.788	-17.58
896.958	-25.77
897.129	11.09
897.299	9.05
897.47	80.72
897.64	-40.11
897.81	-5.29
897.981	109.4
898.151	-31.91
898.322	43.86
898.492	56.15
898.662	-42.15
898.832	-1.19
899.003	-29.87
899.173	11.09
899.343	37.72
899.513	11.09
