Data from USB4F104151__105__13-00-27-276.txt Node

Date: Fri Mar 14 13:00:27 EDT 2025
User: louis
Spectrometer: USB4F10415
Trigger mode: 4
Integration Time (sec): 1.000000E-2
Scans to average: 1
Electric dark correction enabled: true
Nonlinearity correction enabled: false
Boxcar width: 0
XAxis mode: Wavelengths
Number of Pixels in Spectrum: 3648
>>>>>Begin Spectral Data<<<<<
178.204	-32.26
178.424	-32.26
178.644	-32.26
178.864	-38.4
179.084	-69.12
179.304	-48.64
179.524	37.38
179.744	-15.87
179.964	16.9
180.184	82.43
180.404	-22.02
180.624	-17.92
180.844	20.99
181.064	-60.93
181.283	-22.02
181.503	-5.63
181.723	35.33
181.943	-13.82
182.163	78.33
182.383	-9.73
182.602	80.38
182.822	-56.83
183.042	16.9
183.262	14.85
183.482	-26.11
183.701	86.53
183.921	16.9
184.141	88.57
184.361	31.23
184.58	-30.21
184.8	20.99
185.02	6.66
185.239	53.76
185.459	-13.82
185.679	49.66
185.898	-3.58
186.118	59.9
186.338	-11.78
186.557	76.29
186.777	35.33
186.997	18.94
187.216	-15.87
187.436	45.57
187.655	-13.82
187.875	-22.02
188.095	43.52
188.314	70.14
188.534	45.57
188.753	-24.06
188.973	39.42
189.192	31.23
189.412	0.51
189.631	51.71
189.851	-13.82
190.07	53.76
190.29	20.99
190.509	64
190.729	0.51
190.948	45.57
191.168	41.47
191.387	43.52
191.607	-13.82
191.826	-13.82
192.045	-26.11
192.265	43.52
192.484	41.47
192.704	-30.21
192.923	-54.78
193.142	-17.92
193.362	-9.73
193.581	51.71
193.8	31.23
194.02	-13.82
194.239	74.24
194.458	57.86
194.678	-32.26
194.897	16.9
195.116	25.09
195.335	68.09
195.555	-58.88
195.774	68.09
195.993	55.81
196.212	-3.58
196.432	-34.3
196.651	68.09
196.87	68.09
197.089	23.04
197.308	53.76
197.528	10.75
197.747	-9.73
197.966	43.52
198.185	4.61
198.404	51.71
198.623	33.28
198.842	37.38
199.062	-46.59
199.281	88.57
199.5	47.62
199.719	-77.31
199.938	51.71
200.157	33.28
200.376	23.04
200.595	125.44
200.814	6.66
201.033	-26.11
201.252	27.14
201.471	-19.97
201.69	23.04
201.909	37.38
202.128	2.56
202.347	-7.68
202.566	59.9
202.785	55.81
203.004	-77.31
203.223	41.47
203.442	-79.36
203.661	61.95
203.879	-73.21
204.098	20.99
204.317	-17.92
204.536	-19.97
204.755	6.66
204.974	-3.58
205.193	6.66
205.411	109.05
205.63	-52.74
205.849	76.29
206.068	20.99
206.287	-30.21
206.505	18.94
206.724	72.19
206.943	-58.88
207.162	-26.11
207.381	-19.97
207.599	88.57
207.818	8.7
208.037	23.04
208.255	-28.16
208.474	64
208.693	27.14
208.911	-22.02
209.13	6.66
209.349	35.33
209.567	-36.35
209.786	0.51
210.005	-34.3
210.223	31.23
210.442	-24.06
210.661	16.9
210.879	39.42
211.098	94.72
211.316	-11.78
211.535	37.38
211.753	-52.74
211.972	-32.26
212.191	-7.68
212.409	33.28
212.628	-44.54
212.846	43.52
213.065	-65.02
213.283	-19.97
213.502	20.99
213.72	55.81
213.938	-48.64
214.157	61.95
214.375	51.71
214.594	-13.82
214.812	27.14
215.031	74.24
215.249	47.62
215.467	61.95
215.686	-58.88
215.904	45.57
216.122	-13.82
216.341	88.57
216.559	25.09
216.778	55.81
216.996	53.76
217.214	20.99
217.432	29.18
217.651	53.76
217.869	-7.68
218.087	-24.06
218.306	10.75
218.524	-36.35
218.742	-28.16
218.96	-34.3
219.179	-44.54
219.397	-58.88
219.615	4.61
219.833	61.95
220.051	80.38
220.27	51.71
220.488	35.33
220.706	31.23
220.924	-15.87
221.142	-17.92
221.36	-5.63
221.578	27.14
221.796	25.09
222.015	6.66
222.233	43.52
222.451	-40.45
222.669	12.8
222.887	14.85
223.105	55.81
223.323	-7.68
223.541	-11.78
223.759	-13.82
223.977	16.9
224.195	-22.02
224.413	41.47
224.631	20.99
224.849	-13.82
225.067	82.43
225.285	33.28
225.503	64
225.721	29.18
225.939	31.23
226.157	6.66
226.375	25.09
226.592	37.38
226.81	68.09
227.028	61.95
227.246	76.29
227.464	57.86
227.682	35.33
227.9	33.28
228.117	25.09
228.335	16.9
228.553	14.85
228.771	10.75
228.989	51.71
229.206	4.61
229.424	51.71
229.642	94.72
229.86	72.19
230.077	16.9
230.295	86.53
230.513	53.76
230.731	-1.54
230.948	0.51
231.166	-1.54
231.384	-15.87
231.601	12.8
231.819	-26.11
232.037	-30.21
232.254	111.1
232.472	49.66
232.689	-19.97
232.907	-30.21
233.125	-13.82
233.342	16.9
233.56	-13.82
233.777	-24.06
233.995	-58.88
234.213	12.8
234.43	10.75
234.648	70.14
234.865	-42.5
235.083	57.86
235.3	6.66
235.518	64
235.735	27.14
235.953	23.04
236.17	23.04
236.388	14.85
236.605	-5.63
236.822	-11.78
237.04	18.94
237.257	27.14
237.475	31.23
237.692	27.14
237.909	49.66
238.127	39.42
238.344	25.09
238.562	39.42
238.779	-46.59
238.996	-28.16
239.214	8.7
239.431	111.1
239.648	-34.3
239.865	78.33
240.083	88.57
240.3	18.94
240.517	16.9
240.735	70.14
240.952	43.52
241.169	45.57
241.386	10.75
241.603	78.33
241.821	12.8
242.038	45.57
242.255	-28.16
242.472	-24.06
242.689	-13.82
242.907	76.29
243.124	51.71
243.341	45.57
243.558	23.04
243.775	-13.82
243.992	16.9
244.209	59.9
244.426	41.47
244.643	37.38
244.86	-9.73
245.078	51.71
245.295	-5.63
245.512	119.29
245.729	12.8
245.946	20.99
246.163	12.8
246.38	37.38
246.597	55.81
246.814	29.18
247.031	-11.78
247.248	59.9
247.464	29.18
247.681	10.75
247.898	-17.92
248.115	10.75
248.332	20.99
248.549	-19.97
248.766	27.14
248.983	31.23
249.2	37.38
249.417	96.77
249.633	70.14
249.85	92.67
250.067	4.61
250.284	-36.35
250.501	10.75
250.717	51.71
250.934	2.56
251.151	43.52
251.368	-26.11
251.585	0.51
251.801	20.99
252.018	-44.54
252.235	8.7
252.451	94.72
252.668	-13.82
252.885	0.51
253.102	-15.87
253.318	-1.54
253.535	-24.06
253.752	78.33
253.968	12.8
254.185	53.76
254.401	-71.17
254.618	2.56
254.835	41.47
255.051	76.29
255.268	-3.58
255.484	6.66
255.701	82.43
255.917	84.48
256.134	16.9
256.351	-34.3
256.567	12.8
256.784	-7.68
257	12.8
257.217	18.94
257.433	68.09
257.65	55.81
257.866	35.33
258.082	86.53
258.299	-24.06
258.515	61.95
258.732	74.24
258.948	20.99
259.165	-32.26
259.381	-1.54
259.597	20.99
259.814	23.04
260.03	4.61
260.246	57.86
260.463	72.19
260.679	16.9
260.895	-19.97
261.112	68.09
261.328	14.85
261.544	-44.54
261.761	-17.92
261.977	86.53
262.193	104.96
262.409	49.66
262.626	35.33
262.842	2.56
263.058	-3.58
263.274	82.43
263.49	35.33
263.707	45.57
263.923	51.71
264.139	27.14
264.355	55.81
264.571	43.52
264.787	12.8
265.004	66.05
265.22	-52.74
265.436	-28.16
265.652	12.8
265.868	27.14
266.084	-1.54
266.3	84.48
266.516	-28.16
266.732	25.09
266.948	47.62
267.164	-36.35
267.38	12.8
267.596	57.86
267.812	66.05
268.028	31.23
268.244	-42.5
268.46	53.76
268.676	59.9
268.892	76.29
269.108	14.85
269.324	-15.87
269.54	-52.74
269.756	47.62
269.972	20.99
270.188	61.95
270.403	-22.02
270.619	47.62
270.835	-5.63
271.051	-30.21
271.267	45.57
271.483	41.47
271.698	82.43
271.914	82.43
272.13	84.48
272.346	16.9
272.562	39.42
272.777	61.95
272.993	43.52
273.209	18.94
273.425	66.05
273.64	61.95
273.856	-7.68
274.072	51.71
274.287	74.24
274.503	0.51
274.719	-15.87
274.934	45.57
275.15	-15.87
275.366	23.04
275.581	16.9
275.797	72.19
276.012	-1.54
276.228	29.18
276.444	-38.4
276.659	82.43
276.875	23.04
277.09	-11.78
277.306	-24.06
277.521	37.38
277.737	29.18
277.952	2.56
278.168	20.99
278.383	53.76
278.599	6.66
278.814	59.9
279.03	35.33
279.245	-24.06
279.461	39.42
279.676	43.52
279.892	-11.78
280.107	27.14
280.322	23.04
280.538	43.52
280.753	0.51
280.969	35.33
281.184	33.28
281.399	14.85
281.615	-38.4
281.83	92.67
282.045	37.38
282.26	6.66
282.476	39.42
282.691	68.09
282.906	25.09
283.122	27.14
283.337	-67.07
283.552	8.7
283.767	90.62
283.983	16.9
284.198	84.48
284.413	14.85
284.628	-22.02
284.843	27.14
285.058	-9.73
285.274	41.47
285.489	-9.73
285.704	53.76
285.919	-19.97
286.134	-77.31
286.349	55.81
286.564	41.47
286.779	-46.59
286.995	6.66
287.21	74.24
287.425	47.62
287.64	-17.92
287.855	-7.68
288.07	25.09
288.285	68.09
288.5	-32.26
288.715	64
288.93	-60.93
289.145	-22.02
289.36	51.71
289.575	-3.58
289.79	57.86
290.004	47.62
290.219	-26.11
290.434	10.75
290.649	-44.54
290.864	-44.54
291.079	-5.63
291.294	35.33
291.509	35.33
291.724	41.47
291.938	-32.26
292.153	37.38
292.368	-11.78
292.583	-24.06
292.798	45.57
293.012	47.62
293.227	-22.02
293.442	51.71
293.657	10.75
293.871	31.23
294.086	-11.78
294.301	43.52
294.516	-19.97
294.73	-79.36
294.945	43.52
295.16	23.04
295.374	10.75
295.589	-9.73
295.804	-13.82
296.018	55.81
296.233	39.42
296.447	84.48
296.662	-87.55
296.877	76.29
297.091	10.75
297.306	57.86
297.52	-36.35
297.735	33.28
297.949	53.76
298.164	74.24
298.378	4.61
298.593	78.33
298.807	29.18
299.022	6.66
299.236	49.66
299.451	14.85
299.665	25.09
299.88	43.52
300.094	4.61
300.309	27.14
300.523	4.61
300.737	72.19
300.952	53.76
301.166	53.76
301.381	14.85
301.595	-46.59
301.809	10.75
302.024	18.94
302.238	31.23
302.452	84.48
302.667	12.8
302.881	49.66
303.095	10.75
303.309	27.14
303.524	-17.92
303.738	14.85
303.952	-5.63
304.166	-5.63
304.381	-48.64
304.595	2.56
304.809	-99.84
305.023	25.09
305.237	27.14
305.452	-36.35
305.666	27.14
305.88	57.86
306.094	35.33
306.308	61.95
306.522	-32.26
306.736	12.8
306.95	12.8
307.164	-7.68
307.379	-15.87
307.593	-22.02
307.807	-9.73
308.021	86.53
308.235	82.43
308.449	-15.87
308.663	37.38
308.877	23.04
309.091	8.7
309.305	37.38
309.519	14.85
309.733	51.71
309.947	-5.63
310.161	37.38
310.374	18.94
310.588	31.23
310.802	-71.17
311.016	47.62
311.23	31.23
311.444	0.51
311.658	-56.83
311.872	55.81
312.085	59.9
312.299	59.9
312.513	33.28
312.727	18.94
312.941	10.75
313.154	14.85
313.368	57.86
313.582	-38.4
313.796	35.33
314.009	49.66
314.223	12.8
314.437	55.81
314.651	43.52
314.864	31.23
315.078	72.19
315.292	27.14
315.505	-22.02
315.719	-1.54
315.933	51.71
316.146	68.09
316.36	10.75
316.573	96.77
316.787	-3.58
317.001	53.76
317.214	-34.3
317.428	33.28
317.641	18.94
317.855	-22.02
318.068	143.87
318.282	29.18
318.495	109.05
318.709	33.28
318.922	-42.5
319.136	82.43
319.349	64
319.563	66.05
319.776	39.42
319.99	43.52
320.203	-3.58
320.417	104.96
320.63	-17.92
320.843	-1.54
321.057	31.23
321.27	74.24
321.483	18.94
321.697	4.61
321.91	20.99
322.124	29.18
322.337	16.9
322.55	18.94
322.763	25.09
322.977	96.77
323.19	61.95
323.403	-3.58
323.617	4.61
323.83	59.9
324.043	4.61
324.256	-22.02
324.469	-3.58
324.683	35.33
324.896	35.33
325.109	-56.83
325.322	55.81
325.535	61.95
325.748	37.38
325.962	27.14
326.175	35.33
326.388	66.05
326.601	-17.92
326.814	61.95
327.027	41.47
327.24	31.23
327.453	20.99
327.666	-83.45
327.879	-1.54
328.092	96.77
328.305	27.14
328.518	-40.45
328.731	-42.5
328.944	-1.54
329.157	27.14
329.37	27.14
329.583	-5.63
329.796	61.95
330.009	6.66
330.222	84.48
330.435	59.9
330.648	70.14
330.861	61.95
331.073	68.09
331.286	-34.3
331.499	33.28
331.712	70.14
331.925	12.8
332.138	12.8
332.35	86.53
332.563	84.48
332.776	98.81
332.989	72.19
333.202	-5.63
333.414	55.81
333.627	-34.3
333.84	-17.92
334.053	-22.02
334.265	-1.54
334.478	23.04
334.691	8.7
334.903	-13.82
335.116	45.57
335.329	-13.82
335.541	8.7
335.754	35.33
335.966	-1.54
336.179	64
336.392	20.99
336.604	-7.68
336.817	16.9
337.029	68.09
337.242	35.33
337.454	104.96
337.667	18.94
337.88	45.57
338.092	47.62
338.305	59.9
338.517	41.47
338.729	61.95
338.942	-7.68
339.154	2.56
339.367	-5.63
339.579	53.76
339.792	47.62
340.004	-19.97
340.217	35.33
340.429	-5.63
340.641	6.66
340.854	64
341.066	82.43
341.278	53.76
341.491	61.95
341.703	43.52
341.915	6.66
342.128	78.33
342.34	68.09
342.552	41.47
342.764	27.14
342.977	-15.87
343.189	10.75
343.401	2.56
343.613	-69.12
343.826	61.95
344.038	-3.58
344.25	76.29
344.462	-5.63
344.674	72.19
344.886	25.09
345.099	43.52
345.311	-1.54
345.523	43.52
345.735	64
345.947	-3.58
346.159	14.85
346.371	-19.97
346.583	-19.97
346.795	51.71
347.007	25.09
347.219	47.62
347.431	47.62
347.643	-24.06
347.855	2.56
348.067	64
348.279	59.9
348.491	66.05
348.703	104.96
348.915	18.94
349.127	86.53
349.339	2.56
349.551	35.33
349.763	76.29
349.975	57.86
350.187	23.04
350.399	37.38
350.61	41.47
350.822	88.57
351.034	8.7
351.246	23.04
351.458	41.47
351.669	-28.16
351.881	29.18
352.093	-5.63
352.305	35.33
352.517	53.76
352.728	109.05
352.94	84.48
353.152	-40.45
353.363	-15.87
353.575	31.23
353.787	59.9
353.999	47.62
354.21	-3.58
354.422	-28.16
354.633	76.29
354.845	27.14
355.057	25.09
355.268	14.85
355.48	47.62
355.692	61.95
355.903	-19.97
356.115	-5.63
356.326	-24.06
356.538	-24.06
356.749	10.75
356.961	37.38
357.172	59.9
357.384	-30.21
357.595	41.47
357.807	-32.26
358.018	-15.87
358.23	31.23
358.441	47.62
358.653	47.62
358.864	51.71
359.075	96.77
359.287	55.81
359.498	27.14
359.709	31.23
359.921	86.53
360.132	43.52
360.344	84.48
360.555	35.33
360.766	68.09
360.977	10.75
361.189	31.23
361.4	68.09
361.611	53.76
361.823	16.9
362.034	74.24
362.245	49.66
362.456	20.99
362.667	94.72
362.879	8.7
363.09	45.57
363.301	61.95
363.512	-48.64
363.723	-71.17
363.935	-7.68
364.146	51.71
364.357	68.09
364.568	100.86
364.779	16.9
364.99	113.15
365.201	57.86
365.412	64
365.623	2.56
365.834	78.33
366.045	8.7
366.256	70.14
366.467	55.81
366.678	55.81
366.889	23.04
367.1	16.9
367.311	49.66
367.522	-11.78
367.733	0.51
367.944	96.77
368.155	2.56
368.366	29.18
368.577	29.18
368.788	31.23
368.999	-15.87
369.209	-36.35
369.42	78.33
369.631	43.52
369.842	100.86
370.053	18.94
370.264	61.95
370.474	92.67
370.685	-40.45
370.896	41.47
371.107	41.47
371.317	6.66
371.528	33.28
371.739	84.48
371.95	-17.92
372.16	53.76
372.371	39.42
372.582	-11.78
372.792	76.29
373.003	-44.54
373.214	33.28
373.424	-3.58
373.635	45.57
373.846	23.04
374.056	6.66
374.267	-13.82
374.477	45.57
374.688	31.23
374.898	47.62
375.109	72.19
375.319	61.95
375.53	96.77
375.74	12.8
375.951	27.14
376.161	98.81
376.372	68.09
376.582	14.85
376.793	70.14
377.003	2.56
377.214	-11.78
377.424	35.33
377.635	8.7
377.845	0.51
378.055	27.14
378.266	59.9
378.476	-5.63
378.686	41.47
378.897	12.8
379.107	-30.21
379.317	20.99
379.528	43.52
379.738	16.9
379.948	-44.54
380.158	25.09
380.369	6.66
380.579	47.62
380.789	113.15
380.999	90.62
381.21	-13.82
381.42	76.29
381.63	2.56
381.84	57.86
382.05	100.86
382.261	100.86
382.471	14.85
382.681	35.33
382.891	20.99
383.101	41.47
383.311	2.56
383.521	78.33
383.731	84.48
383.941	43.52
384.151	100.86
384.361	-22.02
384.571	45.57
384.781	35.33
384.991	29.18
385.201	6.66
385.411	66.05
385.621	78.33
385.831	14.85
386.041	12.8
386.251	49.66
386.461	35.33
386.671	16.9
386.881	100.86
387.091	-17.92
387.301	6.66
387.511	-5.63
387.72	31.23
387.93	68.09
388.14	33.28
388.35	20.99
388.56	27.14
388.769	12.8
388.979	68.09
389.189	4.61
389.399	6.66
389.609	59.9
389.818	61.95
390.028	-28.16
390.238	39.42
390.447	6.66
390.657	12.8
390.867	20.99
391.076	55.81
391.286	80.38
391.496	92.67
391.705	68.09
391.915	41.47
392.125	39.42
392.334	23.04
392.544	35.33
392.753	-32.26
392.963	111.1
393.172	70.14
393.382	70.14
393.591	-3.58
393.801	49.66
394.01	68.09
394.22	4.61
394.429	68.09
394.639	-11.78
394.848	82.43
395.058	94.72
395.267	57.86
395.477	20.99
395.686	66.05
395.895	98.81
396.105	51.71
396.314	68.09
396.524	131.58
396.733	94.72
396.942	43.52
397.152	37.38
397.361	92.67
397.57	31.23
397.78	86.53
397.989	72.19
398.198	76.29
398.407	35.33
398.617	57.86
398.826	70.14
399.035	133.63
399.244	117.25
399.453	102.91
399.663	68.09
399.872	53.76
400.081	74.24
400.29	82.43
400.499	80.38
400.708	37.38
400.917	27.14
401.127	113.15
401.336	72.19
401.545	84.48
401.754	82.43
401.963	109.05
402.172	141.82
402.381	92.67
402.59	59.9
402.799	20.99
403.008	74.24
403.217	61.95
403.426	96.77
403.635	125.44
403.844	88.57
404.053	64
404.262	88.57
404.471	145.92
404.68	80.38
404.888	59.9
405.097	127.49
405.306	137.73
405.515	68.09
405.724	35.33
405.933	61.95
406.142	133.63
406.35	84.48
406.559	90.62
406.768	66.05
406.977	193.02
407.185	70.14
407.394	104.96
407.603	102.91
407.812	129.53
408.02	84.48
408.229	121.34
408.438	107.01
408.646	98.81
408.855	129.53
409.064	160.25
409.272	125.44
409.481	152.06
409.69	150.01
409.898	205.31
410.107	236.03
410.315	205.31
410.524	233.98
410.733	215.55
410.941	203.26
411.15	274.94
411.358	217.6
411.567	276.99
411.775	266.75
411.984	324.09
412.192	256.51
412.401	262.65
412.609	186.88
412.818	336.38
413.026	324.09
413.234	436.73
413.443	348.67
413.651	309.76
413.86	371.19
414.068	346.62
414.276	399.87
414.485	412.15
414.693	418.3
414.901	408.06
415.11	483.83
415.318	449.02
415.526	459.26
415.734	440.83
415.943	506.36
416.151	559.61
416.359	549.37
416.567	541.18
416.776	535.03
416.984	625.14
417.192	627.19
417.4	641.53
417.608	629.24
417.817	629.24
418.025	606.71
418.233	696.82
418.441	676.34
418.649	707.06
418.857	741.88
419.065	862.71
419.273	831.99
419.481	838.13
419.689	928.24
419.897	870.9
420.105	913.91
420.313	913.91
420.521	981.49
420.729	965.11
420.937	1143.28
421.145	1065.46
421.353	1116.65
421.561	1157.61
421.769	1257.96
421.977	1296.88
422.185	1374.7
422.393	1268.2
422.601	1407.47
422.809	1429.99
423.017	1483.24
423.224	1380.84
423.432	1511.91
423.64	1540.58
423.848	1663.46
424.056	1624.55
424.263	1751.53
424.471	1743.33
424.679	1800.68
424.887	1907.17
425.094	1878.5
425.302	1968.61
425.51	2038.24
425.718	2132.45
425.925	2095.58
426.133	2200.03
426.341	2296.28
426.548	2435.55
426.756	2445.79
426.964	2511.32
427.171	2593.24
427.379	2714.07
427.586	2722.26
427.794	2857.43
428.001	2947.54
428.209	3043.79
428.417	2963.92
428.624	3113.42
428.832	3168.72
429.039	3099.09
429.247	3260.88
429.454	3428.81
429.662	3705.29
429.869	3445.2
430.076	3697.1
430.284	3541.45
430.491	3836.36
430.699	3942.85
430.906	4043.2
431.114	3969.48
431.321	4121.03
431.528	4305.34
431.736	4598.2
431.943	4735.42
432.15	4534.71
432.358	4688.31
432.565	4944.31
432.772	4958.64
432.979	5142.96
433.187	5290.42
433.394	5261.74
433.601	5724.58
433.808	5620.14
434.016	5648.81
434.223	5810.6
434.43	6255.01
434.637	6154.66
434.844	6441.37
435.052	6597.02
435.259	6441.37
435.466	6472.09
435.673	6599.07
435.88	6990.23
436.087	7274.9
436.294	7414.16
436.501	7252.37
436.708	7274.9
436.915	7481.74
437.122	7893.38
437.329	7928.2
437.537	7989.64
437.743	8108.42
437.95	8155.52
438.157	8745.34
438.364	8927.61
438.571	8876.41
438.778	8866.17
438.985	9824.62
439.192	9402.74
439.399	9607.53
439.606	9687.4
439.813	9884.01
440.02	10617.18
440.227	10426.72
440.433	10557.79
440.64	10738.01
440.847	10580.32
441.054	10901.85
441.261	11702.61
441.467	11356.5
441.674	11942.22
441.881	12163.4
442.088	12200.26
442.294	12085.58
442.501	12261.7
442.708	12673.34
442.914	13136.18
443.121	13797.68
443.328	13365.56
443.534	14391.59
443.741	13799.73
443.948	13627.7
444.154	14561.57
444.361	14598.43
444.568	14739.74
444.774	14702.88
444.981	14774.56
445.187	15175.96
445.394	15741.2
445.6	15843.6
445.807	17223.93
446.013	16701.7
446.22	16812.29
446.426	17567.99
446.633	17697.01
446.839	18053.36
447.046	17338.62
447.252	18573.54
447.459	18692.32
447.665	18712.8
447.871	19056.86
448.078	20269.26
448.284	19089.63
448.491	19693.78
448.697	20580.55
448.903	20996.29
449.11	21117.12
449.316	20336.84
449.522	21047.49
449.728	21563.57
449.935	21833.91
450.141	21670.07
450.347	22407.34
450.553	21735.6
450.76	21848.24
450.966	22589.61
451.172	22311.08
451.378	22694.05
451.584	22616.23
451.791	23070.88
451.997	23087.26
452.203	23517.34
452.409	23267.48
452.615	23304.35
452.821	22440.11
453.027	22347.95
453.233	23287.96
453.44	22532.26
453.646	22665.38
453.852	22921.38
454.058	23216.29
454.264	22399.15
454.47	22966.43
454.676	22161.58
454.882	23285.92
455.088	21328.06
455.294	21653.69
455.5	21684.41
455.705	22073.52
455.911	21123.26
456.117	20451.53
456.323	20351.18
456.529	19052.77
456.735	20213.96
456.941	19701.97
457.147	19411.16
457.352	18782.43
457.558	18612.45
457.764	18589.92
457.97	18206.95
458.176	17938.67
458.381	17879.28
458.587	16937.21
458.793	17168.63
458.999	15997.2
459.204	17135.87
459.41	16881.92
459.616	15759.63
459.821	15819.02
460.027	15550.74
460.233	15403.28
460.438	14311.72
460.644	14625.06
460.85	14203.18
461.055	13877.55
461.261	14043.43
461.466	12788.03
461.672	12542.27
461.878	13203.77
462.083	12368.2
462.289	11993.42
462.494	12147.01
462.7	11632.97
462.905	11301.2
463.111	11438.42
463.316	11622.73
463.522	11299.16
463.727	11319.64
463.932	11366.74
464.138	11227.48
464.343	11290.96
464.549	11059.54
464.754	11282.77
464.959	11233.62
465.165	10959.19
465.37	10891.61
465.575	10340.71
465.781	10862.94
465.986	10973.53
466.191	10400.1
466.397	10172.77
466.602	9832.81
466.807	10125.67
467.012	10266.98
467.218	10111.33
467.423	9916.78
467.628	10094.95
467.833	10500.45
468.038	10060.13
468.244	9797.99
468.449	10105.19
468.654	9814.38
468.859	9728.36
469.064	9707.88
469.269	9320.82
469.474	9423.22
469.679	9853.29
469.885	9154.93
470.09	9601.39
470.295	9318.77
470.5	9130.36
470.705	9351.54
470.91	9083.25
471.115	9144.69
471.32	9060.73
471.525	8939.9
471.73	8798.59
471.935	8792.44
472.139	8610.17
472.344	8532.35
472.549	8460.67
472.754	8372.61
472.959	8343.94
473.164	8096.13
473.369	8124.8
473.574	8227.2
473.778	8030.6
473.983	8223.11
474.188	8104.32
474.393	7647.63
474.598	7772.55
474.802	7813.51
475.007	7539.08
475.212	7664.01
475.417	7360.91
475.621	7256.47
475.826	7375.25
476.031	7223.7
476.235	7063.96
476.44	7235.99
476.645	7031.19
476.849	7043.48
477.054	6986.13
477.259	6939.03
477.463	7008.66
477.668	6676.89
477.872	6889.88
478.077	6504.86
478.282	6420.89
478.486	6418.85
478.691	6457.76
478.895	6517.15
479.1	6306.21
479.304	6363.55
479.509	6181.28
479.713	6320.54
479.918	6275.49
480.122	5990.82
480.326	6130.08
480.531	6189.47
480.735	6171.04
480.94	6232.48
481.144	6187.43
481.348	5953.96
481.553	5869.99
481.757	5767.59
481.961	5982.63
482.166	6037.92
482.37	5872.04
482.574	5855.65
482.778	5863.85
482.983	6064.55
483.187	5990.82
483.391	5894.57
483.595	5808.55
483.8	5894.57
484.004	5900.71
484.208	5958.05
484.412	5837.22
484.616	5845.41
484.821	6068.64
485.025	5798.31
485.229	6099.36
485.433	5822.89
485.637	5869.99
485.841	5648.81
486.045	5857.7
486.249	5792.17
486.453	5812.65
486.657	5810.6
486.861	5925.29
487.065	5747.11
487.269	5622.19
487.473	5865.89
487.677	5745.06
487.881	6023.59
488.085	5826.98
488.289	5792.17
488.493	5904.81
488.697	5939.62
488.901	5917.09
489.105	5953.96
489.309	5982.63
489.512	6046.12
489.716	6039.97
489.92	5826.98
490.124	5933.48
490.328	6060.45
490.531	5935.53
490.735	6015.4
490.939	5943.72
491.143	5982.63
491.346	5962.15
491.55	6025.64
491.754	6128.03
491.958	6197.67
492.161	6275.49
492.365	6267.3
492.569	6209.95
492.772	6197.67
492.976	6244.77
493.18	6212
493.383	6508.96
493.587	6470.05
493.79	6445.47
493.994	6269.34
494.197	6498.72
494.401	6332.83
494.605	6693.27
494.808	6588.83
495.012	6554.01
495.215	6723.99
495.419	6879.64
495.622	6627.74
495.825	6912.41
496.029	6881.69
496.232	7176.59
496.436	6965.65
496.639	7164.31
496.843	7203.22
497.046	7369.1
497.249	7440.78
497.453	7446.93
497.656	7438.73
497.859	7475.6
498.063	7655.82
498.266	7643.53
498.469	7668.11
498.673	8116.61
498.876	7909.77
499.079	7836.04
499.282	7948.68
499.485	8268.16
499.689	8151.43
499.892	8356.22
500.095	8225.15
500.298	8532.35
500.501	8577.41
500.705	8774.01
500.908	8857.98
501.111	8751.48
501.314	9130.36
501.517	9089.4
501.72	9353.59
501.923	9380.21
502.126	9263.47
502.329	9546.09
502.532	9632.11
502.735	9695.6
502.938	9742.7
503.141	9714.03
503.344	9970.02
503.547	10156.39
503.75	10273.12
503.953	10447.2
504.156	10449.25
504.359	10617.18
504.562	10824.03
504.765	10944.86
504.968	11071.83
505.17	11147.61
505.373	11237.72
505.576	11432.27
505.779	11577.68
505.982	11729.23
506.185	11643.21
506.387	11768.14
506.59	11731.28
506.793	12118.34
506.996	12138.82
507.198	12388.67
507.401	12337.48
507.604	12564.8
507.807	12671.29
508.009	12992.83
508.212	12988.73
508.415	13285.69
508.617	13232.44
508.82	13568.3
509.022	13478.19
509.225	13685.04
509.428	13986.09
509.63	14078.25
509.833	14029.1
510.035	14403.88
510.238	14360.87
510.44	14895.39
510.643	14627.1
510.845	14958.88
511.048	14844.19
511.25	14997.79
511.453	15216.92
511.655	15552.79
511.858	15378.71
512.06	15698.19
512.262	15769.87
512.465	15974.67
512.667	16255.24
512.87	16527.62
513.072	16492.8
513.274	16816.38
513.477	16957.69
513.679	17129.72
513.881	17330.42
514.084	17389.81
514.286	17340.66
514.488	17713.39
514.69	17981.68
514.893	18223.34
515.095	18278.63
515.297	18297.06
515.499	18491.62
515.701	18757.86
515.904	18866.4
516.106	19103.96
516.308	19341.53
516.51	19433.69
516.712	19607.76
516.914	19628.24
517.116	20068.56
517.318	20072.65
517.52	20304.07
517.722	20414.66
517.925	20662.47
518.127	20897.99
518.329	20914.37
518.531	20760.77
518.733	21500.09
518.935	21645.49
519.136	21465.27
519.338	21661.88
519.54	22243.5
519.742	22257.84
519.944	22524.07
520.146	22614.18
520.348	22751.4
520.55	22759.59
520.752	23042.21
520.954	23353.5
521.155	23072.93
521.357	23691.41
521.559	23992.47
521.761	24240.27
521.963	24451.21
522.164	24135.82
522.366	24414.35
522.568	24666.25
522.77	25077.89
522.971	25223.3
523.173	25038.98
523.375	24776.84
523.576	25411.71
523.778	25155.71
523.98	25548.92
524.181	25495.67
524.383	25622.65
524.584	26087.54
524.786	26179.7
524.988	25970.8
525.189	26486.89
525.391	26695.78
525.592	26783.85
525.794	26923.11
525.995	26753.13
526.197	26839.14
526.398	27033.7
526.6	27230.3
526.801	27469.92
527.003	27564.12
527.204	27490.4
527.406	27836.5
527.607	27928.66
527.808	27818.07
528.01	27545.69
528.211	27770.97
528.412	28407.89
528.614	28162.13
528.815	28477.52
529.016	28532.81
529.218	28293.2
529.419	28543.05
529.62	28397.65
529.822	28254.29
530.023	28471.37
530.224	28418.13
530.425	28522.57
530.626	28307.54
530.828	28289.1
531.029	28713.03
531.23	28641.35
531.431	28477.52
531.632	28680.27
531.833	29229.12
532.035	28917.83
532.236	28627.02
532.437	29098.05
532.638	28868.68
532.839	28934.21
533.04	29085.76
533.241	28827.72
533.442	29544.51
533.643	29241.41
533.844	29026.37
534.045	28911.69
534.246	28985.41
534.447	29298.75
534.648	28958.79
534.849	29294.66
535.05	29106.24
535.251	29339.71
535.451	28901.45
535.652	29438.01
535.853	29081.67
536.054	29235.27
536.255	29388.86
536.456	28926.02
536.657	29456.45
536.857	29356.1
537.058	29409.34
537.259	29225.03
537.46	29560.89
537.66	29055.04
537.861	29366.34
538.062	29233.22
538.263	29284.42
538.463	29149.25
538.664	29016.13
538.865	29323.33
539.065	29452.35
539.266	29048.9
539.466	29397.06
539.667	28772.42
539.868	29212.74
540.068	29114.44
540.269	29007.94
540.469	29276.23
540.67	29069.38
540.87	29370.43
541.071	28895.3
541.271	29397.06
541.472	29304.9
541.672	28969.03
541.873	28928.07
542.073	28799.05
542.274	29427.77
542.474	28936.26
542.675	28649.55
542.875	29433.92
543.075	28999.75
543.276	28670.03
543.476	29136.96
543.676	28833.86
543.877	28860.49
544.077	29163.59
544.277	28797
544.478	28833.86
544.678	28866.63
544.878	28790.86
545.078	28745.8
545.279	28903.49
545.479	28565.58
545.679	28985.41
545.879	28751.95
546.079	28868.68
546.28	28786.76
546.48	28919.88
546.68	29032.52
546.88	28948.55
547.08	28852.3
547.28	28829.77
547.48	28708.94
547.68	28723.27
547.88	28403.79
548.081	29040.71
548.281	28549.2
548.481	28655.69
548.681	29155.4
548.881	28758.09
549.081	29022.28
549.28	28305.49
549.48	28880.97
549.68	28561.48
549.88	28946.5
550.08	28665.93
550.28	28475.47
550.48	28426.32
550.68	28819.53
550.88	28522.57
551.08	28672.07
551.279	28706.89
551.479	28178.51
551.679	28545.1
551.879	28686.41
552.079	28502.09
552.278	28366.93
552.478	28586.06
552.678	28319.82
552.878	28643.4
553.077	28366.93
553.277	27848.79
553.477	28657.74
553.676	28301.39
553.876	28500.05
554.076	28518.48
554.275	28252.24
554.475	28092.5
554.674	28084.31
554.874	28356.69
555.074	27957.33
555.273	28407.89
555.473	28409.93
555.672	28112.98
555.872	28125.27
556.071	28278.86
556.271	28319.82
556.47	28184.66
556.67	27699.29
556.869	27932.76
557.068	28235.86
557.268	27889.75
557.467	28170.32
557.667	28026.96
557.866	28074.07
558.065	28155.99
558.265	27650.14
558.464	27828.31
558.663	27965.53
558.863	27328.61
559.062	27676.76
559.261	27439.2
559.461	27478.11
559.66	27428.96
559.859	27349.09
560.058	27359.33
560.258	27426.91
560.457	27340.89
560.656	27381.85
560.855	27340.89
561.054	27506.78
561.253	27207.78
561.453	27256.93
561.652	27373.66
561.851	27547.74
562.05	27244.64
562.249	26984.55
562.448	27283.55
562.647	26906.73
562.846	26792.04
563.045	27080.8
563.244	27031.65
563.443	27222.11
563.642	26495.08
563.841	26902.63
564.04	26749.03
564.239	26894.44
564.438	26718.31
564.637	26726.5
564.836	26765.42
565.035	26347.63
565.234	26517.61
565.432	26546.28
565.631	26237.04
565.83	26421.36
566.029	26302.57
566.228	26228.85
566.427	25962.61
566.625	25794.68
566.824	25778.29
567.023	26030.19
567.222	25747.58
567.42	25784.44
567.619	25471.1
567.818	25839.73
568.016	25544.83
568.215	26196.08
568.414	25407.61
568.612	25774.2
568.811	25479.29
569.01	25639.03
569.208	25598.07
569.407	25266.3
569.605	25333.89
569.804	25331.84
570.002	25196.67
570.201	25538.68
570.4	25090.18
570.598	24987.78
570.797	24967.3
570.995	25024.64
571.193	24881.28
571.392	24881.28
571.59	24549.51
571.789	24860.8
571.987	24526.99
572.186	24615.05
572.384	24406.16
572.582	24584.33
572.781	24424.59
572.979	24303.76
573.177	24160.4
573.376	24150.16
573.574	24053.9
573.772	24000.66
573.971	24043.67
574.169	23677.08
574.367	24084.62
574.565	23810.2
574.763	23754.9
574.962	23959.7
575.16	23378.08
575.358	23949.46
575.556	23644.31
575.754	23761.05
575.952	23371.93
576.151	23611.54
576.349	23316.64
576.547	23132.32
576.745	23269.53
576.943	23296.16
577.141	23007.39
577.339	23023.78
577.537	22894.75
577.735	23236.77
577.933	22556.84
578.131	22667.43
578.329	22841.51
578.527	22735.01
578.725	22861.99
578.923	22677.67
579.121	22712.49
579.319	22554.79
579.516	22679.72
579.714	22337.71
579.912	22476.97
580.11	22276.27
580.308	22229.16
580.506	22300.84
580.704	22030.51
580.901	22270.12
581.099	22057.14
581.297	22003.89
581.495	22057.14
581.692	21999.79
581.89	21283
582.088	21715.12
582.285	21610.68
582.483	21493.94
582.681	21778.61
582.878	21721.27
583.076	21289.15
583.274	21461.18
583.471	21196.99
583.669	21137.6
583.866	21252.28
584.064	21289.15
584.262	21063.87
584.459	21072.06
584.657	21104.83
584.854	21266.62
585.052	20857.03
585.249	20924.61
585.447	21000.38
585.644	20611.27
585.841	20590.79
586.039	20801.73
586.236	20621.51
586.434	20359.37
586.631	20455.62
586.828	20664.52
587.026	20336.84
587.223	20213.96
587.42	20312.27
587.618	19978.45
587.815	20187.34
588.012	20023.5
588.21	19980.5
588.407	20093.13
588.604	19957.97
588.801	19775.7
588.999	19704.02
589.196	19841.23
589.393	19474.65
589.59	19618
589.787	19661.01
589.984	19454.17
590.182	19570.9
590.379	19425.5
590.576	19124.44
590.773	19370.2
590.97	19183.84
591.167	18903.26
591.364	19259.61
591.561	19063.01
591.758	18618.6
591.955	18800.87
592.152	18899.17
592.349	18594.02
592.546	18899.17
592.743	18874.59
592.94	18491.62
593.137	18790.63
593.334	18606.31
593.531	18381.03
593.727	18831.58
593.924	18499.81
594.121	18358.5
594.318	18448.61
594.515	18178.28
594.712	18456.81
594.908	18186.47
595.105	18290.92
595.302	17920.24
595.499	17996.01
595.696	18020.59
595.892	17834.22
596.089	17862.9
596.286	17897.71
596.482	17658.1
596.679	17959.15
596.876	17819.89
597.072	17496.31
597.269	17479.93
597.466	17635.57
597.662	17545.46
597.859	17389.81
598.055	17205.5
598.252	17029.37
598.448	16965.89
598.645	17187.07
598.841	16963.84
599.038	16951.55
599.234	16890.11
599.431	16679.17
599.627	16718.08
599.824	16933.12
600.02	16503.04
600.217	16574.72
600.413	16431.37
600.609	16627.97
600.806	16376.07
601.002	16679.17
601.198	16591.11
601.395	16398.6
601.591	16247.05
601.787	16484.61
601.984	16511.24
602.18	16505.09
602.376	16183.56
602.572	15845.65
602.769	15970.57
602.965	15958.28
603.161	15849.74
603.357	15821.07
603.553	15814.93
603.75	15778.06
603.946	15814.93
604.142	15659.28
604.338	15538.45
604.534	15737.1
604.73	15587.6
604.926	15315.22
605.122	15534.35
605.318	15769.87
605.514	15421.72
605.71	15063.32
605.906	15227.16
606.102	15376.66
606.298	15323.41
606.494	15182.1
606.69	15352.09
606.886	15235.35
607.082	14844.19
607.278	15216.92
607.474	14641.44
607.67	15315.22
607.866	14420.26
608.062	15073.56
608.257	14840.09
608.453	14858.53
608.649	14838.05
608.845	14571.81
609.041	14565.67
609.236	14723.36
609.432	14772.51
609.628	14522.66
609.824	14491.94
610.019	14639.39
610.215	14485.79
610.411	14381.35
610.606	14416.16
610.802	14563.62
610.998	14399.78
611.193	14518.56
611.389	14256.42
611.584	14168.36
611.78	14344.49
611.976	14344.49
612.171	14315.81
612.367	14369.06
612.562	14268.71
612.758	13932.84
612.953	13791.53
613.149	14117.16
613.344	13916.46
613.539	14225.7
613.735	13754.67
613.93	14102.82
614.126	13904.17
614.321	14080.3
614.517	13844.78
614.712	13818.16
614.907	13685.04
615.103	13742.38
615.298	13797.68
615.493	13826.35
615.688	13629.74
615.884	13850.92
616.079	13635.89
616.274	13617.46
616.47	13601.07
616.665	13674.8
616.86	13685.04
617.055	13498.67
617.25	13248.82
617.445	13435.19
617.641	13228.34
617.836	13265.21
618.031	13283.64
618.226	13261.11
618.421	13082.94
618.616	13379.89
618.811	13160.76
619.006	13246.77
619.201	12773.69
619.396	13023.55
619.591	12759.36
619.786	12851.52
619.981	12925.24
620.176	12915
620.371	12792.12
620.566	12540.22
620.761	12622.14
620.956	12773.69
621.151	12294.47
621.346	12550.46
621.541	12433.73
621.735	12435.78
621.93	12392.77
622.125	12192.07
622.32	11721.04
622.515	12030.28
622.709	12011.85
622.904	11864.39
623.099	11929.93
623.294	11790.67
623.488	11815.24
623.683	11723.09
623.878	11694.41
624.072	11561.3
624.267	11510.1
624.462	11393.36
624.656	11227.48
624.851	11565.39
625.046	11338.07
625.24	11163.99
625.435	11069.78
625.629	11223.38
625.824	11057.5
626.018	10889.56
626.213	10836.31
626.407	11108.69
626.602	10596.7
626.796	10889.56
626.991	10733.92
627.185	10547.55
627.38	10658.14
627.574	10367.33
627.768	10557.79
627.963	10402.15
628.157	10119.53
628.352	10201.44
628.546	9916.78
628.74	10246.5
628.935	10338.66
629.129	10131.81
629.323	9978.22
629.517	10031.46
629.712	10043.75
629.906	9886.06
630.1	9734.51
630.294	9920.87
630.489	9699.69
630.683	9836.91
630.877	9492.85
631.071	9525.61
631.265	9638.25
631.459	9480.56
631.653	9357.68
631.848	9288.05
632.042	9308.53
632.236	9451.89
632.43	9173.36
632.624	9173.36
632.818	9124.21
633.012	9005.43
633.206	9122.16
633.4	9122.16
633.594	8980.85
633.788	8925.56
633.982	8917.37
634.176	8831.35
634.369	8688
634.563	8843.64
634.757	8698.24
634.951	8702.33
635.145	8577.41
635.339	8708.48
635.533	8368.51
635.726	8530.3
635.92	8335.74
636.114	8309.12
636.308	8257.92
636.501	8208.77
636.695	8399.23
636.889	8257.92
637.083	8083.84
637.276	8149.38
637.47	7940.49
637.664	8104.32
637.857	7995.78
638.051	7950.73
638.244	7858.57
638.438	7891.34
638.632	7891.34
638.825	7621
639.019	7569.8
639.212	7717.26
639.406	7633.29
639.599	7784.84
639.793	7502.22
639.986	7520.65
640.18	7391.63
640.373	7391.63
640.567	7192.98
640.76	7412.11
640.954	7412.11
641.147	7174.55
641.34	7276.94
641.534	7174.55
641.727	7174.55
641.92	6988.18
642.114	6994.33
642.307	7117.2
642.5	7057.81
642.694	6818.2
642.887	6910.36
643.08	6920.6
643.273	6781.34
643.467	6719.9
643.66	6640.03
643.853	6723.99
644.046	6695.32
644.239	6777.24
644.432	6609.31
644.626	6642.07
644.819	6416.8
645.012	6554.01
645.205	6574.49
645.398	6359.45
645.591	6179.23
645.784	6418.85
645.977	6101.41
646.17	6136.23
646.363	6255.01
646.556	6201.76
646.749	6138.27
646.942	6001.06
647.135	5908.9
647.328	6080.93
647.521	5949.86
647.714	5990.82
647.907	5896.61
648.099	5665.19
648.292	5968.29
648.485	5937.57
648.678	5773.74
648.871	5689.77
649.064	5747.11
649.256	5925.29
649.449	5693.87
649.642	5642.67
649.835	5609.9
650.027	5575.08
650.22	5697.96
650.413	5427.63
650.605	5575.08
650.798	5476.78
650.991	5429.68
651.183	5450.16
651.376	5343.66
651.568	5419.44
651.761	5441.96
651.954	5239.22
652.146	5253.55
652.339	5239.22
652.531	5165.49
652.724	5097.91
652.916	5013.94
653.109	5110.19
653.301	5136.82
653.494	5018.04
653.686	5015.99
653.879	4921.78
654.071	4997.56
654.263	5009.84
654.456	4803
654.648	4966.84
654.84	4796.85
655.033	4901.3
655.225	4858.29
655.417	4733.37
655.61	4745.66
655.802	4747.7
655.994	4729.27
656.186	4698.55
656.379	4676.02
656.571	4563.39
656.763	4544.95
656.955	4565.43
657.148	4647.35
657.34	4510.14
657.532	4520.38
657.724	4471.23
657.916	4497.85
658.108	4491.71
658.3	4391.36
658.492	4415.93
658.684	4211.14
658.876	4442.56
659.068	4387.26
659.26	4131.26
659.452	4278.72
659.644	4315.58
659.836	4172.22
660.028	4190.66
660.22	4123.07
660.412	4114.88
660.604	3934.66
660.796	4008.39
660.988	4059.59
661.18	4059.59
661.372	4035.01
661.563	3971.52
661.755	3930.56
661.947	3934.66
662.139	3871.17
662.331	4024.77
662.522	3867.08
662.714	3809.73
662.906	3819.97
663.097	3805.64
663.289	3764.68
663.481	3703.24
663.673	3809.73
663.864	3754.44
664.056	3711.43
664.247	3586.51
664.439	3660.23
664.631	3740.1
664.822	3617.22
665.014	3686.86
665.205	3598.79
665.397	3631.56
665.588	3482.06
665.78	3502.54
665.971	3455.44
666.163	3459.53
666.354	3514.83
666.546	3385.8
666.737	3371.47
666.929	3402.19
667.12	3402.19
667.311	3316.17
667.503	3420.62
667.694	3447.24
667.885	3248.59
668.077	3240.4
668.268	3324.37
668.459	3199.44
668.651	3275.21
668.842	3232.21
669.033	3099.09
669.224	3178.96
669.416	3166.67
669.607	3156.43
669.798	3115.47
669.989	3156.43
670.18	3199.44
670.371	3021.27
670.563	3074.51
670.754	3080.66
670.945	2988.5
671.136	3013.07
671.327	3115.47
671.518	3006.93
671.709	2943.44
671.9	3002.83
672.091	2920.92
672.282	2935.25
672.473	2875.86
672.664	2845.14
672.855	2918.87
673.046	2863.57
673.237	2976.21
673.428	2845.14
673.619	2892.24
673.809	3033.55
674	2929.11
674.191	2716.12
674.382	2843.09
674.573	2740.69
674.764	2785.75
674.954	2824.66
675.145	2697.69
675.336	2771.41
675.527	2681.3
675.717	2697.69
675.908	2716.12
676.099	2623.96
676.289	2654.68
676.48	2656.73
676.671	2595.29
676.861	2652.63
677.052	2675.16
677.243	2726.36
677.433	2642.39
677.624	2699.73
677.814	2642.39
678.005	2546.14
678.195	2492.89
678.386	2535.9
678.576	2501.08
678.767	2413.02
678.957	2613.72
679.148	2515.42
679.338	2525.66
679.529	2490.84
679.719	2453.98
679.909	2447.83
680.1	2468.31
680.29	2460.12
680.481	2472.41
680.671	2435.55
680.861	2458.07
681.052	2488.79
681.242	2490.84
681.432	2441.69
681.622	2525.66
681.813	2437.59
682.003	2431.45
682.193	2331.1
682.383	2476.51
682.573	2333.15
682.764	2433.5
682.954	2238.94
683.144	2302.43
683.334	2380.25
683.524	2390.49
683.714	2349.53
683.904	2296.28
684.094	2247.13
684.284	2230.75
684.474	2245.09
684.664	2224.61
684.854	2314.72
685.044	2374.11
685.234	2200.03
685.424	2302.43
685.614	2218.46
685.804	2140.64
685.994	2214.37
686.184	2337.24
686.374	2208.22
686.564	2279.9
686.753	2249.18
686.943	2232.8
687.133	2234.85
687.323	2206.17
687.513	2167.26
687.702	2128.35
687.892	2187.74
688.082	2175.45
688.272	2111.97
688.461	2226.65
688.651	2034.14
688.841	2150.88
689.03	2134.5
689.22	2152.93
689.41	2128.35
689.599	1974.75
689.789	2095.58
689.979	2054.62
690.168	1948.13
690.358	2042.34
690.547	1903.07
690.737	2021.86
690.926	2052.58
691.116	2038.24
691.305	2105.82
691.495	1970.66
691.684	2021.86
691.874	2050.53
692.063	2111.97
692.252	1991.14
692.442	2056.67
692.631	2023.91
692.82	1974.75
693.01	1907.17
693.199	1956.32
693.388	1962.47
693.578	1939.94
693.767	1968.61
693.956	2023.91
694.146	1925.6
694.335	1925.6
694.524	1853.92
694.713	1960.42
694.902	1862.12
695.092	1919.46
695.281	1978.85
695.47	1866.21
695.659	1841.64
695.848	1939.94
696.037	2001.38
696.226	1804.77
696.415	1927.65
696.604	1831.4
696.793	1812.96
696.982	1886.69
697.171	1919.46
697.36	1978.85
697.549	1843.68
697.738	1796.58
697.927	1884.64
698.116	1862.12
698.305	1837.54
698.494	1864.16
698.683	1802.72
698.872	1892.84
699.061	1845.73
699.25	1772
699.438	1776.1
699.627	1831.4
699.816	1753.57
700.005	1780.2
700.193	1786.34
700.382	1739.24
700.571	1757.67
700.76	1786.34
700.948	1855.97
701.137	1718.76
701.326	1921.51
701.514	1776.1
701.703	1724.9
701.892	1761.77
702.08	1718.76
702.269	1714.66
702.457	1716.71
702.646	1749.48
702.834	1710.57
703.023	1708.52
703.212	1790.44
703.4	1825.25
703.589	1759.72
703.777	1743.33
703.965	1673.7
704.154	1649.13
704.342	1696.23
704.531	1757.67
704.719	1677.8
704.907	1704.42
705.096	1626.6
705.284	1685.99
705.472	1679.85
705.661	1757.67
705.849	1675.75
706.037	1653.22
706.226	1677.8
706.414	1604.07
706.602	1722.85
706.79	1667.56
706.979	1726.95
707.167	1659.37
707.355	1608.17
707.543	1579.5
707.731	1595.88
707.919	1653.22
708.107	1561.06
708.296	1585.64
708.484	1573.35
708.672	1591.78
708.86	1640.93
709.048	1649.13
709.236	1554.92
709.424	1593.83
709.612	1602.02
709.8	1624.55
709.988	1534.44
710.176	1567.21
710.364	1561.06
710.551	1540.58
710.739	1599.98
710.927	1536.49
711.115	1509.86
711.303	1583.59
711.491	1618.41
711.679	1460.71
711.866	1573.35
712.054	1436.14
712.242	1610.22
712.43	1610.22
712.617	1612.26
712.805	1573.35
712.993	1561.06
713.181	1530.34
713.368	1548.78
713.556	1507.82
713.744	1522.15
713.931	1434.09
714.119	1559.02
714.306	1524.2
714.494	1384.94
714.682	1419.75
714.869	1436.14
715.057	1370.6
715.244	1462.76
715.432	1477.1
715.619	1473
715.807	1507.82
715.994	1501.67
716.182	1466.86
716.369	1501.67
716.556	1548.78
716.744	1507.82
716.931	1434.09
717.119	1368.56
717.306	1458.67
717.493	1460.71
717.681	1419.75
717.868	1399.27
718.055	1384.94
718.242	1384.94
718.43	1432.04
718.617	1427.95
718.804	1464.81
718.991	1303.02
719.179	1403.37
719.366	1348.08
719.553	1391.08
719.74	1378.79
719.927	1415.66
720.114	1386.99
720.301	1423.85
720.488	1395.18
720.676	1407.47
720.863	1405.42
721.05	1380.84
721.237	1339.88
721.424	1282.54
721.611	1350.12
721.798	1346.03
721.985	1356.27
722.172	1360.36
722.358	1442.28
722.545	1233.39
722.732	1239.53
722.919	1274.35
723.106	1313.26
723.293	1329.64
723.48	1307.12
723.667	1284.59
723.853	1311.21
724.04	1319.4
724.227	1280.49
724.414	1305.07
724.6	1282.54
724.787	1225.2
724.974	1331.69
725.161	1315.31
725.347	1231.34
725.534	1243.63
725.72	1264.11
725.907	1270.25
726.094	1190.38
726.28	1196.53
726.467	1223.15
726.653	1257.96
726.84	1325.55
727.027	1241.58
727.213	1225.2
727.4	1313.26
727.586	1296.88
727.773	1235.44
727.959	1192.43
728.145	1223.15
728.332	1212.91
728.518	1272.3
728.705	1169.9
728.891	1149.42
729.077	1174
729.264	1257.96
729.45	1161.71
729.636	1290.73
729.823	1186.29
730.009	1309.16
730.195	1233.39
730.382	1204.72
730.568	1194.48
730.754	1241.58
730.94	1247.72
731.126	1241.58
731.313	1122.8
731.499	1210.86
731.685	1112.56
731.871	1155.57
732.057	1165.81
732.243	1239.53
732.429	1178.09
732.615	1270.25
732.801	1198.57
732.987	1026.54
733.173	1151.47
733.359	1126.89
733.545	1102.32
733.731	1087.98
733.917	1143.28
734.103	1153.52
734.289	1130.99
734.475	1194.48
734.661	1204.72
734.847	1165.81
735.033	1120.75
735.219	1063.41
735.404	1157.61
735.59	1180.14
735.776	1030.64
735.962	1075.7
736.148	1147.37
736.333	1079.79
736.519	1139.18
736.705	997.87
736.89	1157.61
737.076	1135.09
737.262	995.82
737.447	1061.36
737.633	1092.08
737.819	1030.64
738.004	1057.26
738.19	1012.21
738.375	1001.97
738.561	1092.08
738.747	1053.17
738.932	995.82
739.118	1104.37
739.303	1022.45
739.489	1126.89
739.674	1012.21
739.859	1051.12
740.045	1112.56
740.23	1108.46
740.416	1022.45
740.601	1059.31
740.786	1112.56
740.972	1036.78
741.157	944.63
741.342	1008.11
741.528	954.87
741.713	946.67
741.898	987.63
742.084	938.48
742.269	1004.02
742.454	924.15
742.639	977.39
742.824	952.82
743.01	999.92
743.195	946.67
743.38	1124.85
743.565	911.86
743.75	1004.02
743.935	989.68
744.12	985.58
744.305	938.48
744.49	944.63
744.675	989.68
744.86	922.1
745.045	864.75
745.23	985.58
745.415	969.2
745.6	936.43
745.785	889.33
745.97	983.54
746.155	922.1
746.34	981.49
746.525	909.81
746.71	893.43
746.895	911.86
747.079	846.32
747.264	858.61
747.449	950.77
747.634	934.39
747.819	862.71
748.003	813.56
748.188	870.9
748.373	838.13
748.557	846.32
748.742	928.24
748.927	838.13
749.111	797.17
749.296	868.85
749.481	827.89
749.665	893.43
749.85	764.4
750.034	819.7
750.219	788.98
750.404	786.93
750.588	846.32
750.773	782.84
750.957	750.07
751.141	760.31
751.326	756.21
751.51	821.75
751.695	788.98
751.879	788.98
752.064	623.09
752.248	721.4
752.432	731.64
752.617	756.21
752.801	735.73
752.985	702.97
753.17	770.55
753.354	717.3
753.538	799.22
753.722	666.1
753.907	700.92
754.091	723.44
754.275	649.72
754.459	621.05
754.643	686.58
754.828	619
755.012	659.96
755.196	670.2
755.38	717.3
755.564	664.05
755.748	616.95
755.932	561.66
756.116	715.25
756.3	608.76
756.484	709.11
756.668	676.34
756.852	690.68
757.036	528.89
757.22	608.76
757.404	647.67
757.588	629.24
757.772	711.16
757.956	684.53
758.14	627.19
758.323	518.65
758.507	555.51
758.691	600.57
758.875	600.57
759.059	555.51
759.242	584.18
759.426	645.62
759.61	594.42
759.794	528.89
759.977	621.05
760.161	584.18
760.345	555.51
760.528	600.57
760.712	547.32
760.895	537.08
761.079	584.18
761.263	580.09
761.446	627.19
761.63	580.09
761.813	563.7
761.997	520.7
762.18	512.5
762.364	553.46
762.547	463.35
762.731	557.56
762.914	512.5
763.098	532.98
763.281	471.54
763.464	590.33
763.648	510.46
763.831	502.26
764.015	504.31
764.198	569.85
764.381	494.07
764.564	459.26
764.748	451.07
764.931	561.66
765.114	547.32
765.297	608.76
765.481	563.7
765.664	485.88
765.847	494.07
766.03	487.93
766.213	592.37
766.397	526.84
766.58	575.99
766.763	477.69
766.946	500.22
767.129	397.82
767.312	502.26
767.495	492.02
767.678	420.35
767.861	524.79
768.044	461.3
768.227	481.78
768.41	561.66
768.593	555.51
768.776	422.39
768.959	481.78
769.142	592.37
769.324	473.59
769.507	440.83
769.69	483.83
769.873	438.78
770.056	438.78
770.239	453.11
770.421	563.7
770.604	436.73
770.787	455.16
770.97	420.35
771.152	446.97
771.335	473.59
771.518	442.87
771.7	461.3
771.883	510.46
772.066	408.06
772.248	446.97
772.431	397.82
772.613	434.68
772.796	406.01
772.978	424.44
773.161	440.83
773.343	483.83
773.526	457.21
773.708	422.39
773.891	414.2
774.073	522.74
774.256	444.92
774.438	438.78
774.621	389.63
774.803	420.35
774.985	393.72
775.168	444.92
775.35	403.96
775.532	479.74
775.715	375.29
775.897	377.34
776.079	438.78
776.261	389.63
776.444	467.45
776.626	311.8
776.808	295.42
776.99	406.01
777.173	401.91
777.355	350.71
777.537	358.91
777.719	340.47
777.901	354.81
778.083	307.71
778.265	303.61
778.447	383.48
778.629	420.35
778.811	360.95
778.993	303.61
779.175	365.05
779.357	371.19
779.539	326.14
779.721	365.05
779.903	295.42
780.085	276.99
780.267	289.28
780.449	311.8
780.631	330.23
780.812	354.81
780.994	334.33
781.176	301.56
781.358	422.39
781.54	283.13
781.721	379.39
781.903	287.23
782.085	356.86
782.267	391.67
782.448	274.94
782.63	340.47
782.812	317.95
782.993	268.8
783.175	348.67
783.357	272.89
783.538	307.71
783.72	313.85
783.901	258.56
784.083	365.05
784.264	317.95
784.446	287.23
784.627	317.95
784.809	297.47
784.99	240.12
785.172	279.04
785.353	264.7
785.535	317.95
785.716	291.32
785.897	297.47
786.079	264.7
786.26	274.94
786.441	279.04
786.623	209.4
786.804	262.65
786.985	258.56
787.167	209.4
787.348	236.03
787.529	223.74
787.71	276.99
787.891	240.12
788.073	197.12
788.254	170.49
788.435	291.32
788.616	231.93
788.797	266.75
788.978	233.98
789.159	227.84
789.34	260.6
789.522	252.41
789.703	160.25
789.884	188.93
790.065	201.21
790.246	256.51
790.427	219.64
790.607	184.83
790.788	182.78
790.969	156.16
791.15	221.69
791.331	160.25
791.512	174.59
791.693	256.51
791.874	162.3
792.054	229.88
792.235	217.6
792.416	236.03
792.597	215.55
792.778	154.11
792.958	166.4
793.139	217.6
793.32	203.26
793.5	131.58
793.681	238.08
793.862	174.59
794.042	223.74
794.223	147.97
794.404	215.55
794.584	127.49
794.765	152.06
794.945	182.78
795.126	125.44
795.306	117.25
795.487	156.16
795.667	207.36
795.848	190.97
796.028	190.97
796.209	178.69
796.389	197.12
796.57	217.6
796.75	162.3
796.93	154.11
797.111	182.78
797.291	139.77
797.471	150.01
797.652	170.49
797.832	133.63
798.012	229.88
798.192	119.29
798.373	190.97
798.553	193.02
798.733	117.25
798.913	107.01
799.093	127.49
799.274	109.05
799.454	203.26
799.634	121.34
799.814	143.87
799.994	133.63
800.174	176.64
800.354	119.29
800.534	158.21
800.714	84.48
800.894	72.19
801.074	90.62
801.254	129.53
801.434	141.82
801.614	180.73
801.794	182.78
801.974	375.29
802.154	180.73
802.334	221.69
802.514	109.05
802.693	141.82
802.873	186.88
803.053	223.74
803.233	127.49
803.413	104.96
803.592	98.81
803.772	39.42
803.952	53.76
804.131	78.33
804.311	115.2
804.491	154.11
804.67	123.39
804.85	190.97
805.03	166.4
805.209	123.39
805.389	61.95
805.568	66.05
805.748	51.71
805.928	64
806.107	164.35
806.287	137.73
806.466	172.54
806.646	102.91
806.825	115.2
807.004	244.22
807.184	133.63
807.363	162.3
807.543	53.76
807.722	168.45
807.901	70.14
808.081	143.87
808.26	158.21
808.439	90.62
808.619	80.38
808.798	90.62
808.977	119.29
809.156	150.01
809.336	111.1
809.515	64
809.694	20.99
809.873	123.39
810.052	121.34
810.231	141.82
810.411	82.43
810.59	143.87
810.769	168.45
810.948	143.87
811.127	125.44
811.306	115.2
811.485	39.42
811.664	164.35
811.843	111.1
812.022	107.01
812.201	92.67
812.38	86.53
812.559	94.72
812.737	117.25
812.916	35.33
813.095	68.09
813.274	121.34
813.453	170.49
813.632	94.72
813.811	80.38
813.989	94.72
814.168	86.53
814.347	94.72
814.526	131.58
814.704	96.77
814.883	139.77
815.062	61.95
815.24	125.44
815.419	49.66
815.598	193.02
815.776	70.14
815.955	100.86
816.133	70.14
816.312	86.53
816.49	55.81
816.669	111.1
816.847	133.63
817.026	4.61
817.204	82.43
817.383	129.53
817.561	78.33
817.74	94.72
817.918	84.48
818.097	41.47
818.275	47.62
818.453	111.1
818.632	76.29
818.81	119.29
818.988	27.14
819.167	76.29
819.345	43.52
819.523	66.05
819.701	104.96
819.879	82.43
820.058	133.63
820.236	51.71
820.414	94.72
820.592	100.86
820.77	20.99
820.948	80.38
821.127	0.51
821.305	94.72
821.483	68.09
821.661	0.51
821.839	104.96
822.017	61.95
822.195	39.42
822.373	123.39
822.551	49.66
822.729	86.53
822.907	12.8
823.085	55.81
823.262	84.48
823.44	43.52
823.618	-5.63
823.796	35.33
823.974	127.49
824.152	94.72
824.329	53.76
824.507	113.15
824.685	72.19
824.863	70.14
825.04	57.86
825.218	96.77
825.396	57.86
825.574	72.19
825.751	-5.63
825.929	29.18
826.107	35.33
826.284	70.14
826.462	88.57
826.639	84.48
826.817	47.62
826.994	51.71
827.172	49.66
827.349	86.53
827.527	70.14
827.704	-9.73
827.882	61.95
828.059	107.01
828.237	35.33
828.414	51.71
828.591	10.75
828.769	55.81
828.946	0.51
829.124	76.29
829.301	57.86
829.478	86.53
829.655	43.52
829.833	-11.78
830.01	100.86
830.187	-17.92
830.364	41.47
830.542	59.9
830.719	51.71
830.896	74.24
831.073	59.9
831.25	107.01
831.427	39.42
831.604	78.33
831.782	2.56
831.959	76.29
832.136	57.86
832.313	59.9
832.49	8.7
832.667	59.9
832.844	78.33
833.021	-3.58
833.198	68.09
833.374	92.67
833.551	117.25
833.728	18.94
833.905	43.52
834.082	35.33
834.259	18.94
834.436	33.28
834.612	109.05
834.789	68.09
834.966	-17.92
835.143	59.9
835.319	39.42
835.496	16.9
835.673	27.14
835.85	68.09
836.026	27.14
836.203	78.33
836.38	10.75
836.556	2.56
836.733	35.33
836.909	29.18
837.086	86.53
837.262	-3.58
837.439	16.9
837.616	12.8
837.792	27.14
837.968	80.38
838.145	14.85
838.321	-34.3
838.498	51.71
838.674	31.23
838.851	23.04
839.027	2.56
839.203	-30.21
839.38	-7.68
839.556	14.85
839.732	78.33
839.909	111.1
840.085	80.38
840.261	74.24
840.437	100.86
840.614	12.8
840.79	-3.58
840.966	96.77
841.142	33.28
841.318	31.23
841.494	29.18
841.671	70.14
841.847	45.57
842.023	70.14
842.199	127.49
842.375	27.14
842.551	27.14
842.727	2.56
842.903	61.95
843.079	-19.97
843.255	14.85
843.431	16.9
843.607	-1.54
843.783	4.61
843.959	45.57
844.134	43.52
844.31	100.86
844.486	10.75
844.662	59.9
844.838	10.75
845.013	2.56
845.189	82.43
845.365	59.9
845.541	49.66
845.716	53.76
845.892	-32.26
846.068	70.14
846.244	-19.97
846.419	72.19
846.595	57.86
846.77	-28.16
846.946	25.09
847.122	45.57
847.297	-83.45
847.473	4.61
847.648	18.94
847.824	59.9
847.999	35.33
848.175	18.94
848.35	27.14
848.526	12.8
848.701	59.9
848.876	45.57
849.052	-5.63
849.227	45.57
849.403	-3.58
849.578	41.47
849.753	8.7
849.929	6.66
850.104	-9.73
850.279	80.38
850.454	43.52
850.63	82.43
850.805	45.57
850.98	-13.82
851.155	31.23
851.33	47.62
851.505	-5.63
851.681	59.9
851.856	31.23
852.031	84.48
852.206	35.33
852.381	68.09
852.556	53.76
852.731	18.94
852.906	45.57
853.081	37.38
853.256	53.76
853.431	43.52
853.606	61.95
853.781	57.86
853.956	47.62
854.131	74.24
854.305	-19.97
854.48	-26.11
854.655	43.52
854.83	72.19
855.005	-19.97
855.18	47.62
855.354	-5.63
855.529	27.14
855.704	-34.3
855.879	72.19
856.053	29.18
856.228	68.09
856.403	-22.02
856.577	92.67
856.752	70.14
856.926	53.76
857.101	39.42
857.276	33.28
857.45	31.23
857.625	64
857.799	8.7
857.974	2.56
858.148	-32.26
858.323	55.81
858.497	-22.02
858.672	-19.97
858.846	20.99
859.02	90.62
859.195	-9.73
859.369	49.66
859.543	-11.78
859.718	14.85
859.892	72.19
860.066	-19.97
860.241	27.14
860.415	14.85
860.589	100.86
860.763	-11.78
860.938	43.52
861.112	-28.16
861.286	2.56
861.46	18.94
861.634	-58.88
861.808	-46.59
861.982	-19.97
862.157	29.18
862.331	94.72
862.505	29.18
862.679	-1.54
862.853	41.47
863.027	45.57
863.201	0.51
863.375	23.04
863.549	61.95
863.722	-17.92
863.896	6.66
864.07	-24.06
864.244	29.18
864.418	-9.73
864.592	78.33
864.766	10.75
864.939	53.76
865.113	35.33
865.287	18.94
865.461	-19.97
865.634	-11.78
865.808	8.7
865.982	-24.06
866.156	-5.63
866.329	8.7
866.503	27.14
866.676	20.99
866.85	16.9
867.024	27.14
867.197	-22.02
867.371	57.86
867.544	-36.35
867.718	-3.58
867.891	68.09
868.065	82.43
868.238	2.56
868.412	-46.59
868.585	-17.92
868.759	20.99
868.932	-11.78
869.105	-50.69
869.279	0.51
869.452	27.14
869.625	0.51
869.799	-36.35
869.972	-22.02
870.145	23.04
870.319	-3.58
870.492	-9.73
870.665	16.9
870.838	35.33
871.011	-30.21
871.185	49.66
871.358	66.05
871.531	45.57
871.704	2.56
871.877	70.14
872.05	84.48
872.223	-15.87
872.396	43.52
872.569	20.99
872.742	12.8
872.915	86.53
873.088	0.51
873.261	-5.63
873.434	18.94
873.607	25.09
873.78	-19.97
873.953	-26.11
874.126	-7.68
874.299	84.48
874.471	31.23
874.644	-19.97
874.817	-5.63
874.99	20.99
875.163	-52.74
875.335	72.19
875.508	-52.74
875.681	12.8
875.853	14.85
876.026	-28.16
876.199	4.61
876.371	76.29
876.544	55.81
876.717	-5.63
876.889	18.94
877.062	-24.06
877.234	-22.02
877.407	27.14
877.579	41.47
877.752	18.94
877.924	-3.58
878.097	8.7
878.269	-36.35
878.442	6.66
878.614	-7.68
878.786	-7.68
878.959	-44.54
879.131	33.28
879.303	25.09
879.476	12.8
879.648	27.14
879.82	18.94
879.993	-13.82
880.165	59.9
880.337	14.85
880.509	113.15
880.681	4.61
880.854	-5.63
881.026	37.38
881.198	45.57
881.37	61.95
881.542	16.9
881.714	-13.82
881.886	82.43
882.058	-13.82
882.23	74.24
882.402	20.99
882.574	2.56
882.746	68.09
882.918	70.14
883.09	37.38
883.262	-3.58
883.434	61.95
883.606	27.14
883.778	-26.11
883.95	0.51
884.122	45.57
884.293	27.14
884.465	-30.21
884.637	41.47
884.809	51.71
884.98	8.7
885.152	31.23
885.324	25.09
885.496	-5.63
885.667	39.42
885.839	61.95
886.011	-30.21
886.182	-38.4
886.354	-28.16
886.525	27.14
886.697	-3.58
886.869	-40.45
887.04	10.75
887.212	29.18
887.383	78.33
887.555	57.86
887.726	-73.21
887.897	4.61
888.069	-22.02
888.24	23.04
888.412	18.94
888.583	0.51
888.754	100.86
888.926	-75.26
889.097	20.99
889.268	27.14
889.44	76.29
889.611	-22.02
889.782	-5.63
889.953	94.72
890.125	18.94
890.296	37.38
890.467	20.99
890.638	-79.36
890.809	37.38
890.98	70.14
891.151	-36.35
891.323	-7.68
891.494	-38.4
891.665	-1.54
891.836	33.28
892.007	-26.11
892.178	-50.69
892.349	27.14
892.52	31.23
892.691	12.8
892.862	-28.16
893.032	-54.78
893.203	6.66
893.374	-36.35
893.545	-54.78
893.716	16.9
893.887	16.9
894.057	12.8
894.228	-3.58
894.399	-67.07
894.57	-30.21
894.74	14.85
894.911	-75.26
895.082	-22.02
895.253	-3.58
895.423	25.09
895.594	18.94
895.764	31.23
895.935	53.76
896.106	2.56
896.276	33.28
896.447	39.42
896.617	-9.73
896.788	-44.54
896.958	29.18
897.129	-5.63
897.299	-24.06
897.47	39.42
897.64	-50.69
897.81	8.7
897.981	39.42
898.151	10.75
898.322	33.28
898.492	-11.78
898.662	23.04
898.832	-15.87
899.003	18.94
899.173	-5.63
899.343	-38.4
899.513	72.19
