Data from USB4F104151__77__12-59-42-001.txt Node

Date: Fri Mar 14 12:59:42 EDT 2025
User: louis
Spectrometer: USB4F10415
Trigger mode: 4
Integration Time (sec): 1.000000E-2
Scans to average: 1
Electric dark correction enabled: true
Nonlinearity correction enabled: false
Boxcar width: 0
XAxis mode: Wavelengths
Number of Pixels in Spectrum: 3648
>>>>>Begin Spectral Data<<<<<
178.204	-20.48
178.424	-20.48
178.644	-20.48
178.864	-38.91
179.084	-24.58
179.304	-24.58
179.524	14.34
179.744	-38.91
179.964	67.58
180.184	14.34
180.404	2.05
180.624	43.01
180.844	-28.67
181.064	-6.14
181.283	57.34
181.503	-73.73
181.723	-26.62
181.943	-22.53
182.163	-71.68
182.383	-30.72
182.602	32.77
182.822	18.43
183.042	-22.53
183.262	4.1
183.482	-14.34
183.701	0
183.921	2.05
184.141	22.53
184.361	14.34
184.58	-36.86
184.8	-32.77
185.02	-26.62
185.239	67.58
185.459	-14.34
185.679	-49.15
185.898	-2.05
186.118	-2.05
186.338	-34.82
186.557	57.34
186.777	-10.24
186.997	59.39
187.216	-43.01
187.436	34.82
187.655	22.53
187.875	-6.14
188.095	-6.14
188.314	86.01
188.534	-73.73
188.753	12.29
188.973	2.05
189.192	4.1
189.412	-55.3
189.631	0
189.851	-61.44
190.07	-10.24
190.29	-55.3
190.509	8.19
190.729	-8.19
190.948	-2.05
191.168	34.82
191.387	6.14
191.607	-4.1
191.826	71.68
192.045	10.24
192.265	-100.35
192.484	-22.53
192.704	-6.14
192.923	67.58
193.142	-12.29
193.362	4.1
193.581	-20.48
193.8	-45.06
194.02	-57.34
194.239	-73.73
194.458	-47.1
194.678	-38.91
194.897	-36.86
195.116	-43.01
195.335	6.14
195.555	-61.44
195.774	77.82
195.993	-12.29
196.212	-10.24
196.432	61.44
196.651	63.49
196.87	92.16
197.089	36.86
197.308	22.53
197.528	-24.58
197.747	-30.72
197.966	-2.05
198.185	26.62
198.404	-14.34
198.623	-22.53
198.842	-16.38
199.062	26.62
199.281	77.82
199.5	22.53
199.719	6.14
199.938	2.05
200.157	10.24
200.376	43.01
200.595	14.34
200.814	-20.48
201.033	-12.29
201.252	-28.67
201.471	45.06
201.69	12.29
201.909	-36.86
202.128	-18.43
202.347	4.1
202.566	-38.91
202.785	73.73
203.004	-18.43
203.223	-14.34
203.442	10.24
203.661	2.05
203.879	75.77
204.098	-18.43
204.317	-22.53
204.536	2.05
204.755	-63.49
204.974	20.48
205.193	36.86
205.411	51.2
205.63	-16.38
205.849	51.2
206.068	30.72
206.287	-26.62
206.505	4.1
206.724	-10.24
206.943	28.67
207.162	-26.62
207.381	-4.1
207.599	34.82
207.818	-16.38
208.037	67.58
208.255	-24.58
208.474	2.05
208.693	-45.06
208.911	-51.2
209.13	12.29
209.349	6.14
209.567	10.24
209.786	53.25
210.005	-10.24
210.223	-38.91
210.442	-43.01
210.661	-8.19
210.879	-12.29
211.098	-14.34
211.316	-16.38
211.535	-16.38
211.753	34.82
211.972	-75.77
212.191	47.1
212.409	-6.14
212.628	79.87
212.846	57.34
213.065	2.05
213.283	-4.1
213.502	-36.86
213.72	102.4
213.938	30.72
214.157	-43.01
214.375	34.82
214.594	43.01
214.812	36.86
215.031	-36.86
215.249	-26.62
215.467	59.39
215.686	16.38
215.904	14.34
216.122	16.38
216.341	4.1
216.559	2.05
216.778	20.48
216.996	8.19
217.214	-67.58
217.432	20.48
217.651	49.15
217.869	-6.14
218.087	34.82
218.306	-10.24
218.524	-26.62
218.742	14.34
218.96	32.77
219.179	24.58
219.397	-32.77
219.615	-18.43
219.833	-32.77
220.051	-75.77
220.27	30.72
220.488	75.77
220.706	38.91
220.924	32.77
221.142	-57.34
221.36	-65.53
221.578	-12.29
221.796	-32.77
222.015	59.39
222.233	-8.19
222.451	51.2
222.669	-47.1
222.887	20.48
223.105	-22.53
223.323	-10.24
223.541	36.86
223.759	61.44
223.977	-10.24
224.195	-45.06
224.413	14.34
224.631	-63.49
224.849	-2.05
225.067	-18.43
225.285	6.14
225.503	20.48
225.721	-22.53
225.939	45.06
226.157	49.15
226.375	6.14
226.592	-63.49
226.81	-20.48
227.028	10.24
227.246	57.34
227.464	32.77
227.682	0
227.9	-6.14
228.117	43.01
228.335	-6.14
228.553	20.48
228.771	-26.62
228.989	14.34
229.206	-55.3
229.424	-10.24
229.642	18.43
229.86	-30.72
230.077	-12.29
230.295	75.77
230.513	32.77
230.731	24.58
230.948	59.39
231.166	53.25
231.384	-55.3
231.601	26.62
231.819	-10.24
232.037	-30.72
232.254	86.01
232.472	14.34
232.689	-22.53
232.907	4.1
233.125	-53.25
233.342	-32.77
233.56	6.14
233.777	-61.44
233.995	24.58
234.213	-47.1
234.43	-30.72
234.648	20.48
234.865	16.38
235.083	-4.1
235.3	-10.24
235.518	43.01
235.735	-43.01
235.953	30.72
236.17	-4.1
236.388	-26.62
236.605	79.87
236.822	14.34
237.04	-26.62
237.257	30.72
237.475	63.49
237.692	92.16
237.909	24.58
238.127	-4.1
238.344	-26.62
238.562	0
238.779	81.92
238.996	32.77
239.214	112.64
239.431	-16.38
239.648	-10.24
239.865	28.67
240.083	-10.24
240.3	14.34
240.517	8.19
240.735	8.19
240.952	-79.87
241.169	24.58
241.386	38.91
241.603	18.43
241.821	10.24
242.038	-18.43
242.255	-36.86
242.472	6.14
242.689	83.97
242.907	30.72
243.124	-47.1
243.341	71.68
243.558	-59.39
243.775	-30.72
243.992	-65.53
244.209	34.82
244.426	-10.24
244.643	-26.62
244.86	8.19
245.078	4.1
245.295	40.96
245.512	38.91
245.729	16.38
245.946	53.25
246.163	-51.2
246.38	-47.1
246.597	36.86
246.814	26.62
247.031	10.24
247.248	2.05
247.464	20.48
247.681	-36.86
247.898	28.67
248.115	53.25
248.332	-18.43
248.549	0
248.766	18.43
248.983	-30.72
249.2	2.05
249.417	-26.62
249.633	2.05
249.85	22.53
250.067	6.14
250.284	4.1
250.501	-4.1
250.717	73.73
250.934	-34.82
251.151	36.86
251.368	-8.19
251.585	16.38
251.801	53.25
252.018	-22.53
252.235	18.43
252.451	-6.14
252.668	14.34
252.885	-8.19
253.102	-26.62
253.318	69.63
253.535	26.62
253.752	-28.67
253.968	-6.14
254.185	-12.29
254.401	47.1
254.618	-2.05
254.835	6.14
255.051	47.1
255.268	-63.49
255.484	24.58
255.701	10.24
255.917	-20.48
256.134	32.77
256.351	-10.24
256.567	-55.3
256.784	55.3
257	-38.91
257.217	28.67
257.433	0
257.65	71.68
257.866	-14.34
258.082	26.62
258.299	-20.48
258.515	-2.05
258.732	10.24
258.948	26.62
259.165	-22.53
259.381	28.67
259.597	-61.44
259.814	-8.19
260.03	-6.14
260.246	-4.1
260.463	32.77
260.679	34.82
260.895	20.48
261.112	8.19
261.328	2.05
261.544	-14.34
261.761	49.15
261.977	55.3
262.193	-51.2
262.409	28.67
262.626	-20.48
262.842	40.96
263.058	-6.14
263.274	22.53
263.49	-26.62
263.707	-18.43
263.923	8.19
264.139	-43.01
264.355	-2.05
264.571	-26.62
264.787	-43.01
265.004	-8.19
265.22	-38.91
265.436	-45.06
265.652	12.29
265.868	26.62
266.084	30.72
266.3	10.24
266.516	12.29
266.732	-6.14
266.948	26.62
267.164	-59.39
267.38	-88.06
267.596	-20.48
267.812	24.58
268.028	55.3
268.244	57.34
268.46	-20.48
268.676	-47.1
268.892	-34.82
269.108	-12.29
269.324	-51.2
269.54	4.1
269.756	14.34
269.972	38.91
270.188	-24.58
270.403	12.29
270.619	63.49
270.835	53.25
271.051	30.72
271.267	-10.24
271.483	6.14
271.698	16.38
271.914	98.3
272.13	18.43
272.346	-32.77
272.562	53.25
272.777	18.43
272.993	10.24
273.209	2.05
273.425	-71.68
273.64	14.34
273.856	-79.87
274.072	28.67
274.287	-24.58
274.503	51.2
274.719	77.82
274.934	-20.48
275.15	77.82
275.366	-24.58
275.581	22.53
275.797	-8.19
276.012	-36.86
276.228	22.53
276.444	-22.53
276.659	36.86
276.875	-4.1
277.09	40.96
277.306	20.48
277.521	-26.62
277.737	-14.34
277.952	0
278.168	40.96
278.383	36.86
278.599	16.38
278.814	-34.82
279.03	-6.14
279.245	-47.1
279.461	43.01
279.676	75.77
279.892	-47.1
280.107	-12.29
280.322	-24.58
280.538	10.24
280.753	0
280.969	-20.48
281.184	22.53
281.399	34.82
281.615	24.58
281.83	4.1
282.045	4.1
282.26	14.34
282.476	8.19
282.691	12.29
282.906	26.62
283.122	30.72
283.337	-24.58
283.552	-20.48
283.767	-71.68
283.983	28.67
284.198	-98.3
284.413	22.53
284.628	-53.25
284.843	-10.24
285.058	-36.86
285.274	-6.14
285.489	-26.62
285.704	-38.91
285.919	22.53
286.134	43.01
286.349	12.29
286.564	-47.1
286.779	-63.49
286.995	20.48
287.21	40.96
287.425	-12.29
287.64	-38.91
287.855	26.62
288.07	36.86
288.285	-2.05
288.5	28.67
288.715	-28.67
288.93	-20.48
289.145	-24.58
289.36	-34.82
289.575	-53.25
289.79	28.67
290.004	26.62
290.219	28.67
290.434	2.05
290.649	-55.3
290.864	-2.05
291.079	49.15
291.294	18.43
291.509	-34.82
291.724	43.01
291.938	-6.14
292.153	59.39
292.368	-10.24
292.583	-36.86
292.798	-38.91
293.012	40.96
293.227	30.72
293.442	10.24
293.657	-20.48
293.871	71.68
294.086	86.01
294.301	63.49
294.516	-26.62
294.73	18.43
294.945	-12.29
295.16	12.29
295.374	77.82
295.589	-57.34
295.804	-30.72
296.018	-49.15
296.233	-53.25
296.447	12.29
296.662	-16.38
296.877	28.67
297.091	90.11
297.306	10.24
297.52	49.15
297.735	24.58
297.949	36.86
298.164	53.25
298.378	4.1
298.593	10.24
298.807	10.24
299.022	30.72
299.236	38.91
299.451	24.58
299.665	8.19
299.88	12.29
300.094	2.05
300.309	-8.19
300.523	34.82
300.737	12.29
300.952	-63.49
301.166	57.34
301.381	-18.43
301.595	-6.14
301.809	12.29
302.024	30.72
302.238	-12.29
302.452	94.21
302.667	40.96
302.881	26.62
303.095	43.01
303.309	12.29
303.524	-20.48
303.738	22.53
303.952	-45.06
304.166	-18.43
304.381	14.34
304.595	36.86
304.809	6.14
305.023	-55.3
305.237	26.62
305.452	-6.14
305.666	34.82
305.88	81.92
306.094	-28.67
306.308	2.05
306.522	-34.82
306.736	51.2
306.95	-20.48
307.164	63.49
307.379	20.48
307.593	22.53
307.807	30.72
308.021	-12.29
308.235	-65.53
308.449	53.25
308.663	45.06
308.877	12.29
309.091	-4.1
309.305	-2.05
309.519	-47.1
309.733	12.29
309.947	-88.06
310.161	22.53
310.374	-10.24
310.588	53.25
310.802	-47.1
311.016	47.1
311.23	-94.21
311.444	-10.24
311.658	-49.15
311.872	2.05
312.085	14.34
312.299	-18.43
312.513	45.06
312.727	43.01
312.941	20.48
313.154	45.06
313.368	20.48
313.582	61.44
313.796	26.62
314.009	-14.34
314.223	20.48
314.437	-16.38
314.651	-92.16
314.864	53.25
315.078	26.62
315.292	40.96
315.505	40.96
315.719	14.34
315.933	43.01
316.146	36.86
316.36	16.38
316.573	43.01
316.787	-79.87
317.001	77.82
317.214	-6.14
317.428	6.14
317.641	-83.97
317.855	-45.06
318.068	6.14
318.282	2.05
318.495	4.1
318.709	38.91
318.922	18.43
319.136	36.86
319.349	36.86
319.563	2.05
319.776	22.53
319.99	-40.96
320.203	38.91
320.417	-22.53
320.63	45.06
320.843	4.1
321.057	2.05
321.27	-36.86
321.483	32.77
321.697	-2.05
321.91	61.44
322.124	-6.14
322.337	-8.19
322.55	28.67
322.763	38.91
322.977	30.72
323.19	-10.24
323.403	83.97
323.617	-49.15
323.83	-30.72
324.043	10.24
324.256	-20.48
324.469	-22.53
324.683	-2.05
324.896	-12.29
325.109	6.14
325.322	-16.38
325.535	0
325.748	34.82
325.962	12.29
326.175	-47.1
326.388	16.38
326.601	-4.1
326.814	-14.34
327.027	4.1
327.24	-6.14
327.453	-47.1
327.666	36.86
327.879	43.01
328.092	49.15
328.305	47.1
328.518	-22.53
328.731	-34.82
328.944	-2.05
329.157	24.58
329.37	-18.43
329.583	-47.1
329.796	-36.86
330.009	-32.77
330.222	-22.53
330.435	10.24
330.648	69.63
330.861	34.82
331.073	-8.19
331.286	36.86
331.499	30.72
331.712	-67.58
331.925	-61.44
332.138	30.72
332.35	-53.25
332.563	6.14
332.776	-45.06
332.989	-45.06
333.202	14.34
333.414	-86.01
333.627	-12.29
333.84	16.38
334.053	38.91
334.265	0
334.478	-28.67
334.691	-6.14
334.903	-79.87
335.116	-47.1
335.329	-81.92
335.541	-28.67
335.754	114.69
335.966	-16.38
336.179	40.96
336.392	-43.01
336.604	16.38
336.817	67.58
337.029	-24.58
337.242	-16.38
337.454	83.97
337.667	-10.24
337.88	-30.72
338.092	6.14
338.305	-16.38
338.517	-38.91
338.729	-38.91
338.942	34.82
339.154	30.72
339.367	18.43
339.579	-4.1
339.792	-51.2
340.004	-38.91
340.217	-34.82
340.429	83.97
340.641	10.24
340.854	43.01
341.066	6.14
341.278	18.43
341.491	-28.67
341.703	8.19
341.915	36.86
342.128	-47.1
342.34	18.43
342.552	8.19
342.764	34.82
342.977	-61.44
343.189	36.86
343.401	-4.1
343.613	-55.3
343.826	100.35
344.038	18.43
344.25	34.82
344.462	4.1
344.674	0
344.886	20.48
345.099	47.1
345.311	-6.14
345.523	63.49
345.735	-51.2
345.947	36.86
346.159	-36.86
346.371	18.43
346.583	28.67
346.795	38.91
347.007	24.58
347.219	51.2
347.431	30.72
347.643	-18.43
347.855	43.01
348.067	45.06
348.279	133.12
348.491	2.05
348.703	-28.67
348.915	-83.97
349.127	73.73
349.339	8.19
349.551	14.34
349.763	-26.62
349.975	2.05
350.187	16.38
350.399	71.68
350.61	63.49
350.822	-18.43
351.034	-36.86
351.246	18.43
351.458	83.97
351.669	28.67
351.881	34.82
352.093	69.63
352.305	45.06
352.517	81.92
352.728	75.77
352.94	-22.53
353.152	47.1
353.363	-73.73
353.575	-4.1
353.787	-8.19
353.999	4.1
354.21	43.01
354.422	-71.68
354.633	-75.77
354.845	-16.38
355.057	18.43
355.268	38.91
355.48	14.34
355.692	-38.91
355.903	-34.82
356.115	55.3
356.326	8.19
356.538	38.91
356.749	45.06
356.961	43.01
357.172	-12.29
357.384	4.1
357.595	32.77
357.807	-71.68
358.018	-10.24
358.23	10.24
358.441	20.48
358.653	45.06
358.864	28.67
359.075	-59.39
359.287	20.48
359.498	14.34
359.709	-59.39
359.921	34.82
360.132	38.91
360.344	24.58
360.555	-40.96
360.766	16.38
360.977	-83.97
361.189	26.62
361.4	30.72
361.611	-6.14
361.823	6.14
362.034	-59.39
362.245	-53.25
362.456	-36.86
362.667	40.96
362.879	26.62
363.09	71.68
363.301	16.38
363.512	30.72
363.723	-36.86
363.935	-34.82
364.146	4.1
364.357	-47.1
364.568	28.67
364.779	-22.53
364.99	75.77
365.201	-8.19
365.412	26.62
365.623	57.34
365.834	2.05
366.045	53.25
366.256	16.38
366.467	-12.29
366.678	0
366.889	36.86
367.1	-34.82
367.311	16.38
367.522	14.34
367.733	18.43
367.944	45.06
368.155	22.53
368.366	-22.53
368.577	-20.48
368.788	-8.19
368.999	45.06
369.209	-12.29
369.42	-16.38
369.631	-16.38
369.842	106.49
370.053	16.38
370.264	-14.34
370.474	98.3
370.685	-65.53
370.896	22.53
371.107	30.72
371.317	6.14
371.528	-22.53
371.739	63.49
371.95	6.14
372.16	24.58
372.371	-40.96
372.582	36.86
372.792	32.77
373.003	81.92
373.214	22.53
373.424	-53.25
373.635	10.24
373.846	-10.24
374.056	-43.01
374.267	26.62
374.477	6.14
374.688	-43.01
374.898	28.67
375.109	22.53
375.319	86.01
375.53	57.34
375.74	12.29
375.951	114.69
376.161	77.82
376.372	47.1
376.582	-28.67
376.793	28.67
377.003	-18.43
377.214	10.24
377.424	-16.38
377.635	30.72
377.845	6.14
378.055	-2.05
378.266	-69.63
378.476	-20.48
378.686	2.05
378.897	30.72
379.107	24.58
379.317	0
379.528	28.67
379.738	-4.1
379.948	4.1
380.158	6.14
380.369	24.58
380.579	18.43
380.789	-59.39
380.999	86.01
381.21	36.86
381.42	88.06
381.63	-38.91
381.84	8.19
382.05	-8.19
382.261	-2.05
382.471	-40.96
382.681	77.82
382.891	16.38
383.101	20.48
383.311	-8.19
383.521	51.2
383.731	83.97
383.941	43.01
384.151	-71.68
384.361	51.2
384.571	-18.43
384.781	10.24
384.991	20.48
385.201	36.86
385.411	36.86
385.621	53.25
385.831	34.82
386.041	-16.38
386.251	-2.05
386.461	45.06
386.671	-34.82
386.881	-38.91
387.091	0
387.301	36.86
387.511	34.82
387.72	59.39
387.93	-16.38
388.14	-47.1
388.35	45.06
388.56	20.48
388.769	38.91
388.979	12.29
389.189	-8.19
389.399	-12.29
389.609	16.38
389.818	69.63
390.028	28.67
390.238	18.43
390.447	-26.62
390.657	-2.05
390.867	-22.53
391.076	22.53
391.286	6.14
391.496	108.54
391.705	34.82
391.915	-6.14
392.125	61.44
392.334	112.64
392.544	69.63
392.753	-28.67
392.963	-36.86
393.172	36.86
393.382	-45.06
393.591	61.44
393.801	-96.25
394.01	79.87
394.22	43.01
394.429	106.49
394.639	12.29
394.848	18.43
395.058	8.19
395.267	2.05
395.477	28.67
395.686	-26.62
395.895	63.49
396.105	12.29
396.314	12.29
396.524	69.63
396.733	-10.24
396.942	51.2
397.152	-16.38
397.361	4.1
397.57	22.53
397.78	20.48
397.989	10.24
398.198	96.25
398.407	12.29
398.617	-10.24
398.826	45.06
399.035	-12.29
399.244	77.82
399.453	-51.2
399.663	90.11
399.872	63.49
400.081	16.38
400.29	24.58
400.499	-10.24
400.708	18.43
400.917	16.38
401.127	24.58
401.336	-18.43
401.545	83.97
401.754	32.77
401.963	26.62
402.172	-38.91
402.381	18.43
402.59	22.53
402.799	45.06
403.008	102.4
403.217	47.1
403.426	69.63
403.635	61.44
403.844	4.1
404.053	26.62
404.262	-26.62
404.471	4.1
404.68	24.58
404.888	-18.43
405.097	-28.67
405.306	14.34
405.515	47.1
405.724	36.86
405.933	-14.34
406.142	75.77
406.35	30.72
406.559	69.63
406.768	73.73
406.977	26.62
407.185	-49.15
407.394	61.44
407.603	-12.29
407.812	18.43
408.02	63.49
408.229	-6.14
408.438	71.68
408.646	63.49
408.855	106.49
409.064	98.3
409.272	59.39
409.481	104.45
409.69	61.44
409.898	59.39
410.107	86.01
410.315	45.06
410.524	81.92
410.733	81.92
410.941	139.26
411.15	16.38
411.358	96.25
411.567	133.12
411.775	102.4
411.984	118.78
412.192	120.83
412.401	69.63
412.609	112.64
412.818	174.08
413.026	194.56
413.234	133.12
413.443	104.45
413.651	83.97
413.86	149.5
414.068	108.54
414.276	145.41
414.485	145.41
414.693	182.27
414.901	241.66
415.11	190.46
415.318	165.89
415.526	221.18
415.734	241.66
415.943	196.61
416.151	180.22
416.359	176.13
416.567	227.32
416.776	217.08
416.984	264.19
417.192	321.53
417.4	231.42
417.608	315.39
417.817	288.76
418.025	344.06
418.233	327.68
418.441	280.57
418.649	299
418.857	339.96
419.065	423.93
419.273	405.5
419.481	380.92
419.689	385.02
419.897	425.98
420.105	417.79
420.313	430.07
420.521	458.75
420.729	450.55
420.937	522.23
421.145	524.28
421.353	528.38
421.561	516.09
421.769	567.29
421.977	583.67
422.185	555
422.393	573.43
422.601	589.82
422.809	708.6
423.017	696.31
423.224	765.94
423.432	690.17
423.64	628.73
423.848	710.65
424.056	737.27
424.263	751.6
424.471	890.87
424.679	753.65
424.887	946.16
425.094	843.76
425.302	948.21
425.51	907.25
425.718	972.79
425.925	892.91
426.133	993.26
426.341	999.41
426.548	1101.81
426.756	1171.44
426.964	995.31
427.171	1157.1
427.379	1216.49
427.586	1255.4
427.794	1304.56
428.001	1325.04
428.209	1308.65
428.417	1382.38
428.624	1503.21
428.832	1406.95
429.039	1443.82
429.247	1355.76
429.454	1560.55
429.662	1621.99
429.869	1550.31
430.076	1708.01
430.284	1611.75
430.491	1697.77
430.699	1787.88
430.906	1816.55
431.114	1884.13
431.321	1867.75
431.528	1955.81
431.736	2019.3
431.943	2152.42
432.15	2152.42
432.358	2146.27
432.565	2279.39
432.772	2133.98
432.979	2342.88
433.187	2340.83
433.394	2412.51
433.601	2525.15
433.808	2508.76
434.016	2654.17
434.223	2609.11
434.43	2883.54
434.637	2676.7
434.844	2949.07
435.052	3016.66
435.259	2971.6
435.466	3059.67
435.673	2955.22
435.88	3106.77
436.087	3430.35
436.294	3350.48
436.501	3229.65
436.708	3272.65
436.915	3477.45
437.122	3645.38
437.329	3653.58
437.537	3805.13
437.743	3651.53
437.95	3811.27
438.157	4040.64
438.364	3993.54
438.571	4067.27
438.778	4093.89
438.985	4487.1
439.192	4247.49
439.399	4483
439.606	4343.74
439.813	4599.74
440.02	4825.01
440.227	4837.3
440.433	4687.8
440.64	4818.87
440.847	4847.54
441.054	5005.24
441.261	5248.94
441.467	5226.42
441.674	5203.89
441.881	5506.99
442.088	5511.08
442.294	5459.88
442.501	5660.59
442.708	5715.88
442.914	6064.04
443.121	6258.59
443.328	6033.32
443.534	6469.53
443.741	6459.29
443.948	6170.53
444.154	6766.49
444.361	6711.19
444.568	6631.32
444.774	6766.49
444.981	6825.88
445.187	6975.38
445.394	7354.26
445.6	7294.86
445.807	7894.92
446.013	7630.73
446.22	7825.29
446.426	7970.69
446.633	7974.79
446.839	8505.21
447.046	8128.39
447.252	8617.85
447.459	8488.83
447.665	8499.07
447.871	8982.39
448.078	9275.25
448.284	8871.8
448.491	9107.32
448.697	9316.21
448.903	9582.45
449.11	9613.17
449.316	9668.46
449.522	9703.28
449.728	10086.25
449.935	10037.09
450.141	10116.97
450.347	10196.84
450.553	9826.15
450.76	9965.42
450.966	10385.25
451.172	10327.91
451.378	10426.21
451.584	10391.39
451.791	10573.66
451.997	10512.22
452.203	10905.43
452.409	10721.12
452.615	10889.05
452.821	10403.68
453.027	10458.98
453.233	10866.52
453.44	10352.48
453.646	10428.26
453.852	10606.43
454.058	10708.83
454.264	10491.74
454.47	10760.03
454.676	10440.54
454.882	10864.47
455.088	10041.19
455.294	10012.52
455.5	10301.28
455.705	10209.12
455.911	9934.7
456.117	9680.75
456.323	9674.6
456.529	8990.58
456.735	9373.55
456.941	9267.06
457.147	9158.52
457.352	8841.08
457.558	8603.52
457.764	8875.9
457.97	8697.72
458.176	8533.89
458.381	8576.89
458.587	8060.8
458.793	7772.04
458.999	7567.24
459.204	8005.51
459.41	7796.62
459.616	7335.82
459.821	7606.16
460.027	7499.66
460.233	7292.82
460.438	6748.06
460.644	6971.29
460.85	6698.91
461.055	6565.79
461.261	6498.2
461.466	6031.27
461.672	5877.67
461.878	6274.98
462.083	5810.09
462.289	5719.98
462.494	5722.02
462.7	5400.49
462.905	5236.66
463.111	5472.17
463.316	5466.03
463.522	5250.99
463.727	5437.36
463.932	5212.08
464.138	5394.35
464.343	5365.68
464.549	5201.84
464.754	5302.19
464.959	5281.71
465.165	5367.73
465.37	5046.19
465.575	4769.72
465.781	5205.94
465.986	5107.63
466.191	5072.82
466.397	4859.83
466.602	4607.93
466.807	4788.15
467.012	4722.62
467.218	4882.36
467.423	4685.75
467.628	4700.09
467.833	5097.39
468.038	4890.55
468.244	4722.62
468.449	4736.95
468.654	4726.71
468.859	4761.53
469.064	4700.09
469.269	4605.88
469.474	4483
469.679	4597.69
469.885	4405.18
470.09	4626.36
470.295	4462.52
470.5	4351.93
470.705	4532.15
470.91	4179.9
471.115	4249.54
471.32	4442.04
471.525	4212.67
471.73	4229.06
471.935	4181.95
472.139	4136.9
472.344	4112.32
472.549	4061.12
472.754	3968.96
472.959	3807.17
473.164	3805.13
473.369	3936.2
473.574	4100.03
473.778	3946.44
473.983	3794.89
474.188	3917.76
474.393	3784.65
474.598	3710.92
474.802	3684.3
475.007	3596.23
475.212	3733.45
475.417	3532.75
475.621	3436.49
475.826	3483.59
476.031	3518.41
476.235	3362.76
476.44	3499.98
476.645	3344.33
476.849	3502.03
477.054	3471.31
477.259	3334.09
477.463	3293.13
477.668	3311.57
477.872	3219.41
478.077	3149.78
478.282	3104.72
478.486	3106.77
478.691	3098.58
478.895	3092.43
479.1	3055.57
479.304	3143.63
479.509	3131.34
479.713	3112.91
479.918	3012.56
480.122	2936.79
480.326	2985.94
480.531	3086.29
480.735	2828.24
480.94	3024.85
481.144	3033.04
481.348	2867.16
481.553	2932.69
481.757	2953.17
481.961	2959.31
482.166	2975.7
482.37	2944.98
482.574	2842.58
482.778	2920.4
482.983	2893.78
483.187	2873.3
483.391	2875.35
483.595	3043.28
483.8	2840.53
484.004	2877.4
484.208	2969.55
484.412	3010.51
484.616	3002.32
484.821	3069.91
485.025	2908.12
485.229	2916.31
485.433	2844.63
485.637	2918.36
485.841	2873.3
486.045	2885.59
486.249	3061.71
486.453	2934.74
486.657	3020.75
486.861	2949.07
487.065	2928.6
487.269	2836.44
487.473	2846.68
487.677	2961.36
487.881	2987.99
488.085	2996.18
488.289	2861.01
488.493	3065.81
488.697	2967.51
488.901	3008.47
489.105	2953.17
489.309	2953.17
489.512	2977.75
489.716	3022.8
489.92	3000.27
490.124	3061.71
490.328	3137.49
490.531	2944.98
490.735	3135.44
490.939	3215.31
491.143	2967.51
491.346	3053.52
491.55	3074
491.754	3080.14
491.958	3098.58
492.161	3110.86
492.365	3090.38
492.569	3098.58
492.772	3205.07
492.976	3143.63
493.18	3149.78
493.383	3250.13
493.587	3188.69
493.79	3317.71
493.994	3172.3
494.197	3291.09
494.401	3379.15
494.605	3295.18
494.808	3375.05
495.012	3436.49
495.215	3428.3
495.419	3534.79
495.622	3389.39
495.825	3581.9
496.029	3512.27
496.232	3487.69
496.436	3536.84
496.639	3704.78
496.843	3639.24
497.046	3839.94
497.249	3772.36
497.453	3805.13
497.656	3796.93
497.859	3919.81
498.063	3694.54
498.266	3975.11
498.469	4032.45
498.673	3973.06
498.876	4161.47
499.079	3997.63
499.282	4069.31
499.485	4249.54
499.689	4415.42
499.892	4321.21
500.095	4335.55
500.298	4556.73
500.501	4388.8
500.705	4423.61
500.908	4421.56
501.111	4716.47
501.314	4827.06
501.517	4640.7
501.72	4931.51
501.923	4843.45
502.126	5001.14
502.329	4935.6
502.532	4982.71
502.735	5152.69
502.938	5187.5
503.141	5183.41
503.344	5400.49
503.547	5377.97
503.75	5361.58
503.953	5570.47
504.156	5525.42
504.359	5500.84
504.562	5672.87
504.765	5769.13
504.968	5707.69
505.17	5906.34
505.373	5828.52
505.576	6123.43
505.779	6123.43
505.982	6199.2
506.185	6227.87
506.387	6162.34
506.59	6438.81
506.793	6539.16
506.996	6586.27
507.198	6741.91
507.401	6657.95
507.604	6780.82
507.807	7024.53
508.009	6901.65
508.212	6915.99
508.415	7131.03
508.617	7135.12
508.82	7301.01
509.022	7479.18
509.225	7427.98
509.428	7587.72
509.63	7442.32
509.833	7745.42
510.035	7782.28
510.238	7927.69
510.44	7815.05
510.643	8150.92
510.845	8112
511.048	8128.39
511.25	8253.31
511.453	8398.72
511.655	8658.81
511.858	8537.98
512.06	8521.6
512.262	8798.07
512.465	8974.2
512.667	9152.37
512.87	9052.02
513.072	9357.17
513.274	9312.11
513.477	9424.75
513.679	9443.18
513.881	9752.43
514.084	9834.35
514.286	10084.2
514.488	9901.93
514.69	9985.9
514.893	10262.37
515.095	10155.88
515.297	10391.39
515.499	10301.28
515.701	10518.37
515.904	10516.32
516.106	10831.71
516.308	10866.52
516.51	11108.18
516.712	11077.46
516.914	11229.01
517.116	11425.62
517.318	11398.99
517.52	11519.82
517.722	11579.22
517.925	11835.21
518.127	11947.85
518.329	11962.19
518.531	11913.03
518.733	12306.24
518.935	12298.05
519.136	12351.3
519.338	12529.47
519.54	12414.79
519.742	12955.45
519.944	12955.45
520.146	13004.6
520.348	13006.65
520.55	13166.39
520.752	13291.32
520.954	13748.01
521.155	13500.21
521.357	13778.73
521.559	13805.36
521.761	13907.76
521.963	13838.12
522.164	14053.16
522.366	14073.64
522.568	14243.62
522.77	14167.85
522.971	14657.31
523.173	14493.47
523.375	14739.23
523.576	14776.09
523.778	14704.42
523.98	15109.91
524.181	14980.89
524.383	15085.34
524.584	15367.96
524.786	15462.16
524.988	15337.24
525.189	15664.91
525.391	15607.57
525.592	15617.81
525.794	15671.06
525.995	15746.83
526.197	15804.17
526.398	15685.39
526.6	16082.7
526.801	16154.38
527.003	16086.79
527.204	16260.87
527.406	16359.17
527.607	16094.99
527.808	16410.37
528.01	16312.07
528.211	16246.54
528.412	16725.76
528.614	16551.68
528.815	16932.61
529.016	16652.03
529.218	16946.94
529.419	16862.97
529.62	16918.27
529.822	16842.49
530.023	17086.2
530.224	17143.55
530.425	16928.51
530.626	16862.97
530.828	16803.58
531.029	17116.92
531.23	17063.68
531.431	17084.16
531.632	17196.79
531.833	17151.74
532.035	17026.81
532.236	17288.95
532.437	17524.47
532.638	17217.27
532.839	17149.69
533.04	17374.97
533.241	17174.27
533.442	17643.25
533.643	17354.49
533.844	17651.44
534.045	17604.34
534.246	17372.92
534.447	17510.13
534.648	17428.21
534.849	17524.47
535.05	17161.98
535.251	17389.3
535.451	17626.87
535.652	17573.62
535.853	17426.17
536.054	17460.98
536.255	17538.8
536.456	17133.31
536.657	17798.9
536.857	17317.62
537.058	17348.34
537.259	17524.47
537.46	17587.96
537.66	17549.04
537.861	17544.95
538.062	17491.7
538.263	17417.97
538.463	17325.82
538.664	17473.27
538.865	17567.48
539.065	17428.21
539.266	17377.01
539.466	17485.56
539.667	17444.6
539.868	17686.26
540.068	17762.03
540.269	17235.7
540.469	17747.7
540.67	17544.95
540.87	17411.83
541.071	17651.44
541.271	17626.87
541.472	17514.23
541.672	17557.24
541.873	17456.89
542.073	17583.86
542.274	17579.76
542.474	17522.42
542.675	17260.28
542.875	17884.91
543.075	17622.77
543.276	17274.62
543.476	17624.82
543.676	17221.37
543.877	17473.27
544.077	17596.15
544.277	17516.28
544.478	17428.21
544.678	17528.56
544.878	17673.97
545.078	17549.04
545.279	17569.52
545.479	17211.13
545.679	17581.81
545.879	17452.79
546.079	17385.21
546.28	17420.02
546.48	17262.33
546.68	17403.64
546.88	17551.09
547.08	17610.48
547.28	17385.21
547.48	17534.71
547.68	17712.88
547.88	17194.75
548.081	17637.11
548.281	17755.89
548.481	17264.38
548.681	17442.55
548.881	17475.32
549.081	17303.29
549.28	17276.66
549.48	17618.68
549.68	17477.37
549.88	17596.15
550.08	17245.94
550.28	17573.62
550.48	17233.66
550.68	17284.86
550.88	17245.94
551.08	17479.41
551.279	17368.82
551.479	17426.17
551.679	17360.63
551.879	17272.57
552.079	17495.8
552.278	17207.03
552.478	17352.44
552.678	17471.22
552.878	17407.73
553.077	17121.02
553.277	17401.59
553.477	17417.97
553.676	17032.96
553.876	17194.75
554.076	17350.39
554.275	17295.1
554.475	16983.8
554.674	17094.4
554.874	17403.64
555.074	17172.22
555.273	17295.1
555.473	17303.29
555.672	17069.82
555.872	17159.93
556.071	17297.14
556.271	17194.75
556.47	17147.64
556.67	16736
556.869	17121.02
557.068	17129.21
557.268	17243.9
557.467	16840.45
557.667	16852.73
557.866	16971.52
558.065	16967.42
558.265	17135.35
558.464	16576.26
558.663	16891.65
558.863	16856.83
559.062	17078.01
559.261	16645.89
559.461	17139.45
559.66	16748.29
559.859	16824.06
560.058	17037.05
560.258	16936.7
560.457	16598.79
560.656	16856.83
560.855	16797.44
561.054	16869.12
561.253	16813.82
561.453	16326.41
561.652	16791.3
561.851	16637.7
562.05	16682.75
562.249	16381.7
562.448	16520.96
562.647	16504.58
562.846	16240.39
563.045	16467.72
563.244	16160.52
563.443	16541.44
563.642	16279.3
563.841	16271.11
564.04	16385.8
564.239	16449.28
564.438	16596.74
564.637	16328.45
564.836	16168.71
565.035	16256.78
565.234	16215.82
565.432	15922.96
565.631	15929.1
565.83	16297.74
566.029	15974.16
566.228	15990.54
566.427	16133.9
566.625	15687.44
566.824	15628.05
567.023	15650.58
567.222	15705.87
567.42	15783.7
567.619	15988.49
567.818	15669.01
568.016	15546.13
568.215	15769.36
568.414	15611.67
568.612	15603.47
568.811	15415.06
569.01	15490.84
569.208	15539.99
569.407	15607.57
569.605	15030.04
569.804	15664.91
570.002	15468.31
570.201	15445.78
570.4	15333.14
570.598	15197.98
570.797	15138.59
570.995	15206.17
571.193	15054.62
571.392	15386.39
571.59	15085.34
571.789	14987.04
571.987	14845.73
572.186	14978.84
572.384	14724.9
572.582	15087.39
572.781	14896.92
572.979	14397.22
573.177	14817.05
573.376	14585.63
573.574	14690.08
573.772	14485.28
573.971	14485.28
574.169	14321.45
574.367	14260.01
574.565	14663.46
574.763	14499.62
574.962	14468.9
575.16	13995.82
575.358	14317.35
575.556	14362.4
575.754	14155.56
575.952	13924.14
576.151	14327.59
576.349	14245.67
576.547	14212.9
576.745	14159.66
576.943	14030.63
577.141	13995.82
577.339	14108.46
577.537	13707.05
577.735	13797.17
577.933	13879.08
578.131	13881.13
578.329	13707.05
578.527	13723.44
578.725	13752.11
578.923	13662
579.121	13565.75
579.319	13655.86
579.516	13567.79
579.714	13741.87
579.912	13461.3
580.11	13383.48
580.308	13236.02
580.506	13412.15
580.704	13127.48
580.901	13350.71
581.099	13389.62
581.297	13281.08
581.495	13254.45
581.692	13080.38
581.89	13031.23
582.088	13127.48
582.285	13135.67
582.483	13158.2
582.681	12838.72
582.878	12724.03
583.076	12951.35
583.274	12853.05
583.471	12738.37
583.669	13127.48
583.866	12769.09
584.064	12969.79
584.262	12732.22
584.459	12654.4
584.657	12613.44
584.854	12779.33
585.052	12463.94
585.249	12472.13
585.447	12511.04
585.644	12320.58
585.841	12476.23
586.039	12615.49
586.236	12447.55
586.434	12296
586.631	12330.82
586.828	12291.91
587.026	12248.9
587.223	12463.94
587.42	12300.1
587.618	12216.13
587.815	12037.96
588.012	12013.38
588.21	12119.88
588.407	11884.36
588.604	11761.48
588.801	11675.47
588.999	11796.3
589.196	11872.07
589.393	11784.01
589.59	11796.3
589.787	11648.85
589.984	11747.15
590.182	11759.44
590.379	11552.59
590.576	11616.08
590.773	11749.2
590.97	11462.48
591.167	11415.38
591.364	11454.29
591.561	11417.43
591.758	11566.93
591.955	11462.48
592.152	11351.89
592.349	11222.87
592.546	11192.15
592.743	11202.39
592.94	11253.59
593.137	11181.91
593.334	11257.68
593.531	10905.43
593.727	11192.15
593.924	10995.54
594.121	11216.72
594.318	11024.22
594.515	10921.82
594.712	11030.36
594.908	11081.56
595.105	10854.23
595.302	10856.28
595.499	11009.88
595.696	10749.79
595.892	10864.47
596.089	10882.91
596.286	10907.48
596.482	10809.18
596.679	10631.01
596.876	10688.35
597.072	10590.05
597.269	10479.46
597.466	10456.93
597.662	10657.63
597.859	10401.63
598.055	10403.68
598.252	10303.33
598.448	10256.23
598.645	10219.36
598.841	10303.33
599.038	10241.89
599.234	10147.69
599.431	10198.88
599.627	10174.31
599.824	10037.09
600.02	10305.38
600.217	10092.39
600.413	9875.31
600.609	10028.9
600.806	9871.21
601.002	10004.33
601.198	9840.49
601.395	10086.25
601.591	9793.39
601.787	9989.99
601.984	9674.6
602.18	9842.54
602.376	9918.31
602.572	9795.43
602.769	9693.04
602.965	9432.94
603.161	9799.53
603.357	9564.01
603.553	9475.95
603.75	9549.68
603.946	9525.1
604.142	9582.45
604.338	9334.64
604.534	9572.21
604.73	9441.14
604.926	9260.91
605.122	9133.94
605.318	9328.5
605.514	9187.19
605.71	9150.32
605.906	9121.65
606.102	9123.7
606.298	9248.63
606.494	9127.8
606.69	9111.41
606.886	9119.6
607.082	8994.68
607.278	9054.07
607.474	8755.07
607.67	9017.21
607.866	8726.39
608.062	9002.87
608.257	8966.01
608.453	8877.94
608.649	9023.35
608.845	8906.62
609.041	8966.01
609.236	8865.66
609.432	8861.56
609.628	8873.85
609.824	8636.28
610.019	8650.62
610.215	8687.48
610.411	8697.72
610.606	8716.16
610.802	8777.59
610.998	8703.87
611.193	8804.22
611.389	8628.09
611.584	8685.44
611.78	8421.25
611.976	8562.56
612.171	8329.09
612.367	8572.8
612.562	8343.42
612.758	8499.07
612.953	8476.54
613.149	8560.51
613.344	8167.3
613.539	8480.64
613.735	8359.81
613.93	8189.83
614.126	8247.17
614.321	8333.18
614.517	8306.56
614.712	8345.47
614.907	8112
615.103	8253.31
615.298	8263.55
615.493	8195.97
615.688	8157.06
615.884	8396.67
616.079	8157.06
616.274	8089.48
616.47	8132.48
616.665	8161.16
616.86	8038.28
617.055	8028.04
617.25	8134.53
617.445	8155.01
617.641	7878.54
617.836	7978.89
618.031	7724.94
618.226	7866.25
618.421	7853.96
618.616	7987.08
618.811	7880.58
619.006	7960.45
619.201	7681.93
619.396	7778.19
619.591	7651.21
619.786	7802.76
619.981	7679.88
620.176	7597.96
620.371	7376.78
620.566	7518.09
620.761	7511.95
620.956	7493.52
621.151	7446.41
621.346	7407.5
621.541	7358.35
621.735	7311.25
621.93	7251.86
622.125	7264.15
622.32	7292.82
622.515	7112.6
622.709	7155.6
622.904	7194.51
623.099	6991.77
623.294	7045.01
623.488	6985.62
623.683	6889.37
623.878	7047.06
624.072	6854.55
624.267	6942.61
624.462	6711.19
624.656	6639.51
624.851	6870.94
625.046	6758.3
625.24	6735.77
625.435	6541.21
625.629	6657.95
625.824	6653.85
626.018	6748.06
626.213	6436.77
626.407	6596.51
626.602	6537.12
626.796	6500.25
626.991	6295.46
627.185	6295.46
627.38	6535.07
627.574	6287.26
627.768	6229.92
627.963	6254.5
628.157	6148
628.352	6223.78
628.546	6074.28
628.74	6215.59
628.935	6008.74
629.129	6051.75
629.323	5842.85
629.517	5738.41
629.712	5765.03
629.906	5861.29
630.1	5617.58
630.294	5767.08
630.489	5816.23
630.683	5777.32
630.877	5810.09
631.071	5672.87
631.265	5681.07
631.459	5699.5
631.653	5783.46
631.848	5674.92
632.042	5390.25
632.236	5568.43
632.43	5605.29
632.624	5511.08
632.818	5564.33
633.012	5345.2
633.206	5412.78
633.4	5466.03
633.594	5304.24
633.788	5253.04
633.982	5484.46
634.176	5279.66
634.369	5289.9
634.563	5224.37
634.757	5048.24
634.951	5173.17
635.145	5326.77
635.339	5052.34
635.533	4945.84
635.726	5150.64
635.92	4851.64
636.114	5042.1
636.308	4925.36
636.501	4976.56
636.695	4966.32
636.889	4810.68
637.083	4943.8
637.276	4863.93
637.47	4827.06
637.664	4806.58
637.857	4845.49
638.051	4564.92
638.244	4667.32
638.438	4810.68
638.632	4710.33
638.825	4609.98
639.019	4798.39
639.212	4777.91
639.406	4566.97
639.599	4454.33
639.793	4538.3
639.986	4497.34
640.18	4552.63
640.373	4544.44
640.567	4308.93
640.76	4329.41
640.954	4220.86
641.147	4351.93
641.34	4167.62
641.534	4286.4
641.727	4188.1
641.92	4243.39
642.114	4409.28
642.307	4261.82
642.5	4079.55
642.694	4108.23
642.887	4161.47
643.08	4089.79
643.273	3962.82
643.467	3983.3
643.66	3844.04
643.853	4026.31
644.046	3983.3
644.239	3901.38
644.432	3936.2
644.626	3868.61
644.819	3839.94
645.012	3850.18
645.205	3702.73
645.398	3850.18
645.591	3837.89
645.784	3721.16
645.977	3712.97
646.17	3723.21
646.363	3499.98
646.556	3532.75
646.749	3553.23
646.942	3706.82
647.135	3676.1
647.328	3641.29
647.521	3581.9
647.714	3532.75
647.907	3522.51
648.099	3413.96
648.292	3397.58
648.485	3422.16
648.678	3520.46
648.871	3434.44
649.064	3295.18
649.256	3387.34
649.449	3270.61
649.642	3252.17
649.835	3323.85
650.027	3231.69
650.22	3274.7
650.413	3289.04
650.605	3219.41
650.798	3180.5
650.991	3096.53
651.183	3213.26
651.376	3078.1
651.568	3203.02
651.761	3006.42
651.954	3028.95
652.146	3160.02
652.339	2969.55
652.531	2994.13
652.724	3125.2
652.916	3022.8
653.109	2994.13
653.301	2957.27
653.494	3033.04
653.686	2901.97
653.879	2926.55
654.071	2910.16
654.263	2867.16
654.456	2889.68
654.648	2848.72
654.84	2832.34
655.033	2893.78
655.225	2936.79
655.417	2805.72
655.61	2783.19
655.802	2908.12
655.994	2887.64
656.186	2719.7
656.379	2779.09
656.571	2611.16
656.763	2791.38
656.955	2738.13
657.148	2680.79
657.34	2566.1
657.532	2691.03
657.724	2531.29
657.916	2645.98
658.108	2678.74
658.3	2527.19
658.492	2533.34
658.684	2527.19
658.876	2451.42
659.068	2523.1
659.26	2512.86
659.452	2504.67
659.644	2508.76
659.836	2482.14
660.028	2547.67
660.22	2338.78
660.412	2500.57
660.604	2445.27
660.796	2297.82
660.988	2392.03
661.18	2295.77
661.372	2361.31
661.563	2289.63
661.755	2340.83
661.947	2267.1
662.139	2244.57
662.331	2267.1
662.522	2183.13
662.714	2205.66
662.906	2250.72
663.097	2207.71
663.289	2131.94
663.481	2138.08
663.673	2322.4
663.864	2103.26
664.056	2222.05
664.247	2205.66
664.439	2101.22
664.631	2150.37
664.822	2127.84
665.014	2160.61
665.205	2179.04
665.397	2041.82
665.588	2111.46
665.78	2029.54
665.971	1980.39
666.163	2144.22
666.354	2115.55
666.546	2037.73
666.737	1957.86
666.929	1943.52
667.12	2033.63
667.311	1951.71
667.503	1988.58
667.694	1902.56
667.885	1968.1
668.077	1865.7
668.268	1964
668.459	1925.09
668.651	1906.66
668.842	1789.92
669.033	1902.56
669.224	1853.41
669.416	1877.99
669.607	1812.45
669.798	1773.54
669.989	1873.89
670.18	1822.69
670.371	1830.88
670.563	1732.58
670.754	1742.82
670.945	1779.68
671.136	1839.08
671.327	1712.1
671.518	1810.4
671.709	1808.36
671.9	1834.98
672.091	1794.02
672.282	1640.42
672.473	1757.16
672.664	1640.42
672.855	1765.35
673.046	1730.53
673.237	1681.38
673.428	1654.76
673.619	1675.24
673.809	1710.05
674	1689.57
674.191	1591.27
674.382	1628.14
674.573	1599.46
674.764	1671.14
674.954	1640.42
675.145	1525.74
675.336	1648.61
675.527	1681.38
675.717	1716.2
675.908	1636.33
676.099	1638.38
676.289	1671.14
676.48	1609.7
676.671	1624.04
676.861	1626.09
677.052	1640.42
677.243	1585.13
677.433	1683.43
677.624	1597.42
677.814	1617.9
678.005	1529.83
678.195	1564.65
678.386	1568.74
678.576	1488.87
678.767	1624.04
678.957	1535.98
679.148	1413.1
679.338	1599.46
679.529	1513.45
679.719	1499.11
679.909	1540.07
680.1	1533.93
680.29	1519.59
680.481	1593.32
680.671	1572.84
680.861	1589.22
681.052	1468.39
681.242	1458.15
681.432	1550.31
681.622	1583.08
681.813	1409
682.003	1578.98
682.193	1509.35
682.383	1542.12
682.573	1488.87
682.764	1531.88
682.954	1585.13
683.144	1644.52
683.334	1495.02
683.524	1447.91
683.714	1443.82
683.904	1587.18
684.094	1464.3
684.284	1499.11
684.474	1495.02
684.664	1505.26
684.854	1501.16
685.044	1419.24
685.234	1521.64
685.424	1564.65
685.614	1593.32
685.804	1406.95
685.994	1585.13
686.184	1458.15
686.374	1576.94
686.564	1339.37
686.753	1429.48
686.943	1492.97
687.133	1413.1
687.323	1542.12
687.513	1423.34
687.702	1546.22
687.892	1474.54
688.082	1421.29
688.272	1464.3
688.461	1370.09
688.651	1439.72
688.841	1503.21
689.03	1435.63
689.22	1361.9
689.41	1449.96
689.599	1421.29
689.789	1560.55
689.979	1419.24
690.168	1474.54
690.358	1445.87
690.547	1488.87
690.737	1458.15
690.926	1376.23
691.116	1392.62
691.305	1359.85
691.495	1363.95
691.684	1378.28
691.874	1394.67
692.063	1316.84
692.252	1386.47
692.442	1351.66
692.631	1353.71
692.82	1468.39
693.01	1406.95
693.199	1316.84
693.388	1384.43
693.578	1380.33
693.767	1392.62
693.956	1417.19
694.146	1351.66
694.335	1431.53
694.524	1331.18
694.713	1413.1
694.902	1441.77
695.092	1388.52
695.281	1355.76
695.47	1329.13
695.659	1392.62
695.848	1290.22
696.037	1372.14
696.226	1376.23
696.415	1366
696.604	1224.69
696.793	1390.57
696.982	1298.41
697.171	1298.41
697.36	1333.23
697.549	1320.94
697.738	1161.2
697.927	1392.62
698.116	1378.28
698.305	1308.65
698.494	1351.66
698.683	1304.56
698.872	1372.14
699.061	1249.26
699.25	1327.08
699.438	1284.08
699.627	1347.56
699.816	1318.89
700.005	1271.79
700.193	1275.88
700.382	1222.64
700.571	1353.71
700.76	1255.4
700.948	1329.13
701.137	1175.53
701.326	1345.52
701.514	1298.41
701.703	1232.88
701.892	1279.98
702.08	1316.84
702.269	1257.45
702.457	1320.94
702.646	1208.3
702.834	1236.97
703.023	1241.07
703.212	1314.8
703.4	1310.7
703.589	1218.54
703.777	1267.69
703.965	1239.02
704.154	1210.35
704.342	1210.35
704.531	1286.12
704.719	1175.53
704.907	1241.07
705.096	1200.11
705.284	1308.65
705.472	1216.49
705.661	1202.16
705.849	1185.77
706.037	1239.02
706.226	1245.17
706.414	1220.59
706.602	1196.01
706.79	1247.21
706.979	1116.14
707.167	1128.43
707.355	1175.53
707.543	1075.18
707.731	1148.91
707.919	1312.75
708.107	1052.66
708.296	1144.81
708.484	1165.29
708.672	1130.48
708.86	1163.25
709.048	1132.53
709.236	1169.39
709.424	1183.73
709.612	1163.25
709.8	1198.06
709.988	1222.64
710.176	1132.53
710.364	1107.95
710.551	1091.57
710.739	1081.33
710.927	1112.05
711.115	1105.9
711.303	1138.67
711.491	1120.24
711.679	1116.14
711.866	1044.46
712.054	1155.05
712.242	1130.48
712.43	1120.24
712.617	1060.85
712.805	1163.25
712.993	1126.38
713.181	1054.7
713.368	1060.85
713.556	1054.7
713.744	1040.37
713.931	1030.13
714.119	1036.27
714.306	1107.95
714.494	1034.22
714.682	1081.33
714.869	1042.42
715.057	1017.84
715.244	1130.48
715.432	1079.28
715.619	1028.08
715.807	1134.57
715.994	1050.61
716.182	1011.7
716.369	989.17
716.556	1112.05
716.744	970.74
716.931	1091.57
717.119	1058.8
717.306	1046.51
717.493	913.39
717.681	1023.98
717.868	1034.22
718.055	1013.74
718.242	1026.03
718.43	1013.74
718.617	1007.6
718.804	1062.9
718.991	997.36
719.179	1003.5
719.366	929.78
719.553	966.64
719.74	1001.46
719.927	1095.66
720.114	903.15
720.301	974.83
720.488	1026.03
720.676	966.64
720.863	1030.13
721.05	935.92
721.237	993.26
721.424	966.64
721.611	1019.89
721.798	894.96
721.985	1003.5
722.172	931.83
722.358	927.73
722.545	933.87
722.732	970.74
722.919	970.74
723.106	978.93
723.293	1009.65
723.48	931.83
723.667	1003.5
723.853	944.11
724.04	868.34
724.227	968.69
724.414	952.31
724.6	927.73
724.787	937.97
724.974	960.5
725.161	933.87
725.347	911.35
725.534	950.26
725.72	903.15
725.907	911.35
726.094	894.96
726.28	933.87
726.467	911.35
726.653	831.48
726.84	980.98
727.027	907.25
727.213	899.06
727.4	954.35
727.586	897.01
727.773	839.67
727.959	849.91
728.145	909.3
728.332	882.67
728.518	866.29
728.705	948.21
728.891	919.54
729.077	888.82
729.264	940.02
729.45	851.96
729.636	972.79
729.823	813.04
730.009	913.39
730.195	767.99
730.382	864.24
730.568	915.44
730.754	921.59
730.94	815.09
731.126	784.37
731.313	874.48
731.499	839.67
731.685	903.15
731.871	878.58
732.057	788.47
732.243	886.77
732.429	798.71
732.615	845.81
732.801	851.96
732.987	925.68
733.173	833.52
733.359	813.04
733.545	847.86
733.731	837.62
733.917	866.29
734.103	886.77
734.289	880.63
734.475	862.19
734.661	813.04
734.847	819.19
735.033	880.63
735.219	821.24
735.404	860.15
735.59	788.47
735.776	837.62
735.962	733.17
736.148	811
736.333	845.81
736.519	862.19
736.705	784.37
736.89	856.05
737.076	878.58
737.262	854
737.447	698.36
737.633	790.52
737.819	821.24
738.004	831.48
738.19	815.09
738.375	845.81
738.561	743.41
738.747	765.94
738.932	833.52
739.118	856.05
739.303	743.41
739.489	741.36
739.674	747.51
739.859	778.23
740.045	782.32
740.23	819.19
740.416	780.28
740.601	788.47
740.786	741.36
740.972	692.21
741.157	724.98
741.342	739.32
741.528	796.66
741.713	706.55
741.898	749.56
742.084	755.7
742.269	772.08
742.454	720.88
742.639	772.08
742.824	741.36
743.01	663.54
743.195	772.08
743.38	794.61
743.565	761.84
743.75	681.97
743.935	800.76
744.12	727.03
744.305	696.31
744.49	677.88
744.675	784.37
744.86	704.5
745.045	770.04
745.23	665.59
745.415	702.45
745.6	667.64
745.785	667.64
745.97	677.88
746.155	661.49
746.34	673.78
746.525	688.12
746.71	694.26
746.895	741.36
747.079	636.92
747.264	643.06
747.449	710.65
747.634	706.55
747.819	632.82
748.003	618.49
748.188	669.69
748.373	647.16
748.557	643.06
748.742	669.69
748.927	614.39
749.111	587.77
749.296	598.01
749.481	673.78
749.665	608.25
749.85	641.01
750.034	679.93
750.219	608.25
750.404	659.45
750.588	618.49
750.773	575.48
750.957	600.05
751.141	604.15
751.326	608.25
751.51	587.77
751.695	503.8
751.879	587.77
752.064	583.67
752.248	528.38
752.432	534.52
752.617	602.1
752.801	579.58
752.985	499.7
753.17	661.49
753.354	577.53
753.538	565.24
753.722	495.61
753.907	546.81
754.091	460.79
754.275	563.19
754.459	538.62
754.643	487.42
754.828	524.28
755.012	544.76
755.196	526.33
755.38	595.96
755.564	464.89
755.748	557.05
755.932	477.18
756.116	497.66
756.3	518.14
756.484	489.46
756.668	440.31
756.852	462.84
757.036	550.9
757.22	509.94
757.404	415.74
757.588	428.03
757.772	460.79
757.956	397.31
758.14	501.75
758.323	497.66
758.507	364.54
758.691	415.74
758.875	493.56
759.059	419.83
759.242	362.49
759.426	421.88
759.61	436.22
759.794	446.46
759.977	374.78
760.161	466.94
760.345	387.07
760.528	450.55
760.712	448.51
760.895	419.83
761.079	428.03
761.263	430.07
761.446	417.79
761.63	401.4
761.813	397.31
761.997	409.59
762.18	395.26
762.364	448.51
762.547	370.68
762.731	446.46
762.914	356.35
763.098	380.92
763.281	329.72
763.464	380.92
763.648	364.54
763.831	346.11
764.015	425.98
764.198	374.78
764.381	378.87
764.564	382.97
764.748	442.36
764.931	376.83
765.114	405.5
765.297	391.16
765.481	370.68
765.664	337.91
765.847	362.49
766.03	387.07
766.213	333.82
766.397	387.07
766.58	294.91
766.763	321.53
766.946	354.3
767.129	354.3
767.312	290.81
767.495	315.39
767.678	311.29
767.861	342.01
768.044	362.49
768.227	301.05
768.41	346.11
768.593	393.21
768.776	362.49
768.959	411.64
769.142	329.72
769.324	348.15
769.507	321.53
769.69	290.81
769.873	356.35
770.056	325.63
770.239	249.85
770.421	374.78
770.604	366.59
770.787	360.44
770.97	305.15
771.152	376.83
771.335	264.19
771.518	235.52
771.7	294.91
771.883	311.29
772.066	352.25
772.248	378.87
772.431	258.04
772.613	278.52
772.796	323.58
772.978	372.73
773.161	329.72
773.343	282.62
773.526	305.15
773.708	311.29
773.891	260.09
774.073	264.19
774.256	294.91
774.438	270.33
774.621	239.61
774.803	290.81
774.985	344.06
775.168	239.61
775.35	182.27
775.532	301.05
775.715	241.66
775.897	272.38
776.079	241.66
776.261	292.86
776.444	235.52
776.626	249.85
776.808	260.09
776.99	253.95
777.173	215.04
777.355	274.43
777.537	239.61
777.719	215.04
777.901	260.09
778.083	174.08
778.265	190.46
778.447	184.32
778.629	249.85
778.811	210.94
778.993	239.61
779.175	184.32
779.357	286.72
779.539	157.69
779.721	202.75
779.903	217.08
780.085	288.76
780.267	186.37
780.449	178.17
780.631	245.76
780.812	165.89
780.994	253.95
781.176	169.98
781.358	215.04
781.54	178.17
781.721	215.04
781.903	116.73
782.085	184.32
782.267	165.89
782.448	145.41
782.63	227.32
782.812	141.31
782.993	190.46
783.175	243.71
783.357	163.84
783.538	149.5
783.72	139.26
783.901	143.36
784.083	174.08
784.264	221.18
784.446	153.6
784.627	104.45
784.809	153.6
784.99	165.89
785.172	186.37
785.353	198.65
785.535	163.84
785.716	167.93
785.897	188.41
786.079	143.36
786.26	186.37
786.441	180.22
786.623	149.5
786.804	133.12
786.985	276.48
787.167	163.84
787.348	165.89
787.529	176.13
787.71	200.7
787.891	106.49
788.073	135.17
788.254	114.69
788.435	182.27
788.616	178.17
788.797	116.73
788.978	49.15
789.159	131.07
789.34	124.93
789.522	151.55
789.703	141.31
789.884	174.08
790.065	182.27
790.246	120.83
790.427	137.21
790.607	167.93
790.788	100.35
790.969	141.31
791.15	174.08
791.331	118.78
791.512	108.54
791.693	83.97
791.874	155.65
792.054	83.97
792.235	116.73
792.416	55.3
792.597	118.78
792.778	151.55
792.958	47.1
793.139	190.46
793.32	217.08
793.5	55.3
793.681	174.08
793.862	69.63
794.042	98.3
794.223	151.55
794.404	126.97
794.584	98.3
794.765	94.21
794.945	38.91
795.126	174.08
795.306	79.87
795.487	149.5
795.667	161.79
795.848	96.25
796.028	36.86
796.209	59.39
796.389	53.25
796.57	75.77
796.75	116.73
796.93	100.35
797.111	131.07
797.291	79.87
797.471	45.06
797.652	51.2
797.832	67.58
798.012	59.39
798.192	79.87
798.373	10.24
798.553	94.21
798.733	135.17
798.913	65.54
799.093	133.12
799.274	57.34
799.454	118.78
799.634	155.65
799.814	112.64
799.994	157.69
800.174	79.87
800.354	43.01
800.534	67.58
800.714	69.63
800.894	43.01
801.074	83.97
801.254	110.59
801.434	67.58
801.614	71.68
801.794	24.58
801.974	321.53
802.154	57.34
802.334	86.01
802.514	18.43
802.693	145.41
802.873	26.62
803.053	135.17
803.233	59.39
803.413	45.06
803.592	24.58
803.772	12.29
803.952	118.78
804.131	38.91
804.311	126.97
804.491	51.2
804.67	112.64
804.85	135.17
805.03	92.16
805.209	92.16
805.389	32.77
805.568	38.91
805.748	32.77
805.928	73.73
806.107	49.15
806.287	73.73
806.466	49.15
806.646	135.17
806.825	88.06
807.004	40.96
807.184	77.82
807.363	88.06
807.543	59.39
807.722	2.05
807.901	77.82
808.081	49.15
808.26	38.91
808.439	49.15
808.619	92.16
808.798	122.88
808.977	45.06
809.156	88.06
809.336	75.77
809.515	20.48
809.694	51.2
809.873	43.01
810.052	90.11
810.231	86.01
810.411	28.67
810.59	86.01
810.769	61.44
810.948	75.77
811.127	110.59
811.306	26.62
811.485	83.97
811.664	94.21
811.843	75.77
812.022	38.91
812.201	47.1
812.38	38.91
812.559	36.86
812.737	40.96
812.916	6.14
813.095	135.17
813.274	53.25
813.453	2.05
813.632	45.06
813.811	100.35
813.989	69.63
814.168	73.73
814.347	59.39
814.526	40.96
814.704	88.06
814.883	77.82
815.062	-10.24
815.24	114.69
815.419	-34.82
815.598	59.39
815.776	47.1
815.955	63.49
816.133	40.96
816.312	14.34
816.49	45.06
816.669	14.34
816.847	-4.1
817.026	-12.29
817.204	26.62
817.383	102.4
817.561	43.01
817.74	67.58
817.918	-20.48
818.097	92.16
818.275	32.77
818.453	10.24
818.632	30.72
818.81	26.62
818.988	110.59
819.167	65.54
819.345	51.2
819.523	45.06
819.701	47.1
819.879	43.01
820.058	-16.38
820.236	75.77
820.414	55.3
820.592	-12.29
820.77	83.97
820.948	34.82
821.127	16.38
821.305	30.72
821.483	-38.91
821.661	18.43
821.839	34.82
822.017	28.67
822.195	0
822.373	69.63
822.551	16.38
822.729	45.06
822.907	26.62
823.085	2.05
823.262	-16.38
823.44	-32.77
823.618	34.82
823.796	79.87
823.974	55.3
824.152	53.25
824.329	-6.14
824.507	16.38
824.685	16.38
824.863	86.01
825.04	57.34
825.218	53.25
825.396	53.25
825.574	47.1
825.751	100.35
825.929	36.86
826.107	30.72
826.284	2.05
826.462	-30.72
826.639	4.1
826.817	-16.38
826.994	69.63
827.172	69.63
827.349	-8.19
827.527	26.62
827.704	2.05
827.882	43.01
828.059	4.1
828.237	-2.05
828.414	61.44
828.591	26.62
828.769	26.62
828.946	65.54
829.124	6.14
829.301	100.35
829.478	-20.48
829.655	49.15
829.833	2.05
830.01	-16.38
830.187	0
830.364	-18.43
830.542	4.1
830.719	28.67
830.896	10.24
831.073	-36.86
831.25	-8.19
831.427	26.62
831.604	-20.48
831.782	-2.05
831.959	28.67
832.136	4.1
832.313	36.86
832.49	8.19
832.667	40.96
832.844	10.24
833.021	4.1
833.198	100.35
833.374	18.43
833.551	2.05
833.728	32.77
833.905	34.82
834.082	10.24
834.259	34.82
834.436	6.14
834.612	43.01
834.789	2.05
834.966	6.14
835.143	2.05
835.319	14.34
835.496	69.63
835.673	65.54
835.85	24.58
836.026	26.62
836.203	112.64
836.38	16.38
836.556	45.06
836.733	-4.1
836.909	14.34
837.086	-61.44
837.262	-12.29
837.439	-77.82
837.616	-12.29
837.792	16.38
837.968	71.68
838.145	4.1
838.321	-20.48
838.498	55.3
838.674	75.77
838.851	43.01
839.027	-10.24
839.203	8.19
839.38	20.48
839.556	20.48
839.732	10.24
839.909	-12.29
840.085	69.63
840.261	38.91
840.437	18.43
840.614	16.38
840.79	28.67
840.966	-26.62
841.142	20.48
841.318	26.62
841.494	22.53
841.671	38.91
841.847	45.06
842.023	-63.49
842.199	26.62
842.375	0
842.551	47.1
842.727	30.72
842.903	4.1
843.079	18.43
843.255	43.01
843.431	-45.06
843.607	-30.72
843.783	94.21
843.959	18.43
844.134	-12.29
844.31	63.49
844.486	0
844.662	45.06
844.838	43.01
845.013	-55.3
845.189	-28.67
845.365	-10.24
845.541	-8.19
845.716	47.1
845.892	30.72
846.068	4.1
846.244	75.77
846.419	65.54
846.595	-12.29
846.77	75.77
846.946	-4.1
847.122	75.77
847.297	28.67
847.473	100.35
847.648	6.14
847.824	59.39
847.999	-8.19
848.175	12.29
848.35	-12.29
848.526	10.24
848.701	-47.1
848.876	20.48
849.052	-4.1
849.227	2.05
849.403	18.43
849.578	49.15
849.753	67.58
849.929	-26.62
850.104	12.29
850.279	55.3
850.454	-34.82
850.63	45.06
850.805	-22.53
850.98	-6.14
851.155	2.05
851.33	10.24
851.505	-24.58
851.681	14.34
851.856	2.05
852.031	22.53
852.206	-30.72
852.381	32.77
852.556	-4.1
852.731	-47.1
852.906	16.38
853.081	86.01
853.256	6.14
853.431	36.86
853.606	-47.1
853.781	43.01
853.956	-67.58
854.131	-26.62
854.305	-98.3
854.48	10.24
854.655	-12.29
854.83	-8.19
855.005	10.24
855.18	-30.72
855.354	-10.24
855.529	-18.43
855.704	12.29
855.879	53.25
856.053	-8.19
856.228	51.2
856.403	-28.67
856.577	-2.05
856.752	12.29
856.926	8.19
857.101	-79.87
857.276	83.97
857.45	-26.62
857.625	53.25
857.799	16.38
857.974	14.34
858.148	-79.87
858.323	-24.58
858.497	6.14
858.672	-20.48
858.846	14.34
859.02	26.62
859.195	-51.2
859.369	-71.68
859.543	-18.43
859.718	-30.72
859.892	49.15
860.066	-55.3
860.241	14.34
860.415	43.01
860.589	-6.14
860.763	-4.1
860.938	26.62
861.112	-12.29
861.286	-47.1
861.46	-12.29
861.634	40.96
861.808	26.62
861.982	-2.05
862.157	73.73
862.331	53.25
862.505	-10.24
862.679	10.24
862.853	12.29
863.027	2.05
863.201	43.01
863.375	49.15
863.549	-47.1
863.722	-45.06
863.896	30.72
864.07	-36.86
864.244	-2.05
864.418	16.38
864.592	-45.06
864.766	-59.39
864.939	-96.25
865.113	-98.3
865.287	47.1
865.461	-18.43
865.634	-20.48
865.808	-6.14
865.982	-20.48
866.156	-14.34
866.329	-8.19
866.503	-30.72
866.676	-4.1
866.85	4.1
867.024	-2.05
867.197	59.39
867.371	63.49
867.544	4.1
867.718	22.53
867.891	22.53
868.065	-71.68
868.238	24.58
868.412	81.92
868.585	-8.19
868.759	-22.53
868.932	10.24
869.105	4.1
869.279	-14.34
869.452	53.25
869.625	-30.72
869.799	34.82
869.972	12.29
870.145	30.72
870.319	8.19
870.492	-6.14
870.665	47.1
870.838	53.25
871.011	8.19
871.185	22.53
871.358	-26.62
871.531	45.06
871.704	-20.48
871.877	14.34
872.05	-22.53
872.223	51.2
872.396	-24.58
872.569	-49.15
872.742	-4.1
872.915	6.14
873.088	-43.01
873.261	-110.59
873.434	-28.67
873.607	24.58
873.78	40.96
873.953	-10.24
874.126	-53.25
874.299	-75.77
874.471	16.38
874.644	34.82
874.817	-45.06
874.99	53.25
875.163	-2.05
875.335	-14.34
875.508	-22.53
875.681	-22.53
875.853	90.11
876.026	-14.34
876.199	-16.38
876.371	-45.06
876.544	38.91
876.717	0
876.889	-45.06
877.062	36.86
877.234	-63.49
877.407	65.54
877.579	-26.62
877.752	22.53
877.924	-26.62
878.097	8.19
878.269	0
878.442	-12.29
878.614	2.05
878.786	-36.86
878.959	26.62
879.131	-22.53
879.303	16.38
879.476	-30.72
879.648	-34.82
879.82	20.48
879.993	45.06
880.165	-86.01
880.337	32.77
880.509	20.48
880.681	47.1
880.854	-8.19
881.026	-28.67
881.198	63.49
881.37	43.01
881.542	-16.38
881.714	30.72
881.886	-30.72
882.058	-28.67
882.23	20.48
882.402	22.53
882.574	24.58
882.746	-8.19
882.918	16.38
883.09	-30.72
883.262	2.05
883.434	-55.3
883.606	-8.19
883.778	4.1
883.95	-12.29
884.122	-10.24
884.293	6.14
884.465	26.62
884.637	26.62
884.809	-36.86
884.98	-47.1
885.152	28.67
885.324	-45.06
885.496	-8.19
885.667	-16.38
885.839	12.29
886.011	36.86
886.182	-10.24
886.354	-94.21
886.525	-77.82
886.697	-47.1
886.869	-24.58
887.04	-16.38
887.212	-69.63
887.383	90.11
887.555	38.91
887.726	-22.53
887.897	18.43
888.069	12.29
888.24	-36.86
888.412	34.82
888.583	-26.62
888.754	22.53
888.926	34.82
889.097	36.86
889.268	4.1
889.44	-20.48
889.611	-47.1
889.782	-36.86
889.953	-57.34
890.125	73.73
890.296	32.77
890.467	0
890.638	-47.1
890.809	28.67
890.98	-2.05
891.151	-8.19
891.323	-20.48
891.494	6.14
891.665	20.48
891.836	8.19
892.007	-49.15
892.178	36.86
892.349	-22.53
892.52	10.24
892.691	12.29
892.862	-2.05
893.032	10.24
893.203	73.73
893.374	-49.15
893.545	2.05
893.716	-6.14
893.887	-67.58
894.057	-32.77
894.228	40.96
894.399	-4.1
894.57	-38.91
894.74	6.14
894.911	28.67
895.082	-10.24
895.253	-14.34
895.423	-30.72
895.594	4.1
895.764	28.67
895.935	51.2
896.106	47.1
896.276	-34.82
896.447	49.15
896.617	-57.34
896.788	-51.2
896.958	2.05
897.129	32.77
897.299	-20.48
897.47	-10.24
897.64	-22.53
897.81	-4.1
897.981	40.96
898.151	55.3
898.322	-14.34
898.492	22.53
898.662	-28.67
898.832	-73.73
899.003	-6.14
899.173	-55.3
899.343	53.25
899.513	45.06
