Data from USB4F104151__6__12-58-26-780.txt Node

Date: Fri Mar 14 12:58:26 EDT 2025
User: louis
Spectrometer: USB4F10415
Trigger mode: 4
Integration Time (sec): 1.000000E-2
Scans to average: 1
Electric dark correction enabled: true
Nonlinearity correction enabled: false
Boxcar width: 0
XAxis mode: Wavelengths
Number of Pixels in Spectrum: 3648
>>>>>Begin Spectral Data<<<<<
178.204	-50.52
178.424	-50.52
178.644	-50.52
178.864	-3.41
179.084	-3.41
179.304	62.12
179.524	-25.94
179.744	-95.57
179.964	62.12
180.184	0.68
180.404	2.73
180.624	-11.61
180.844	55.98
181.064	-38.23
181.283	2.73
181.503	-11.61
181.723	-3.41
181.943	-11.61
182.163	-7.51
182.383	4.78
182.602	47.79
182.822	33.45
183.042	10.92
183.262	-3.41
183.482	-3.41
183.701	-21.85
183.921	17.07
184.141	-3.41
184.361	43.69
184.58	-13.65
184.8	17.07
185.02	-7.51
185.239	72.36
185.459	74.41
185.679	43.69
185.898	15.02
186.118	-13.65
186.338	51.88
186.557	19.11
186.777	19.11
186.997	-36.18
187.216	23.21
187.436	58.03
187.655	47.79
187.875	43.69
188.095	-60.76
188.314	64.17
188.534	35.5
188.753	2.73
188.973	68.27
189.192	64.17
189.412	-21.85
189.631	90.79
189.851	31.4
190.07	-9.56
190.29	-5.46
190.509	-52.56
190.729	70.31
190.948	35.5
191.168	84.65
191.387	37.55
191.607	68.27
191.826	41.64
192.045	29.35
192.265	47.79
192.484	45.74
192.704	4.78
192.923	10.92
193.142	80.55
193.362	23.21
193.581	-5.46
193.8	78.51
194.02	-13.65
194.239	-17.75
194.458	4.78
194.678	-9.56
194.897	-3.41
195.116	-7.51
195.335	27.31
195.555	-32.08
195.774	25.26
195.993	31.4
196.212	-13.65
196.432	2.73
196.651	19.11
196.87	-25.94
197.089	53.93
197.308	78.51
197.528	19.11
197.747	-11.61
197.966	68.27
198.185	105.13
198.404	4.78
198.623	35.5
198.842	-30.04
199.062	45.74
199.281	70.31
199.5	-13.65
199.719	84.65
199.938	31.4
200.157	-3.41
200.376	58.03
200.595	47.79
200.814	8.87
201.033	4.78
201.252	-3.41
201.471	66.22
201.69	45.74
201.909	49.83
202.128	74.41
202.347	15.02
202.566	-3.41
202.785	51.88
203.004	-23.89
203.223	111.27
203.442	4.78
203.661	31.4
203.879	-54.61
204.098	92.84
204.317	27.31
204.536	43.69
204.755	19.11
204.974	8.87
205.193	19.11
205.411	131.75
205.63	64.17
205.849	-13.65
206.068	15.02
206.287	49.83
206.505	74.41
206.724	10.92
206.943	-38.23
207.162	68.27
207.381	33.45
207.599	4.78
207.818	72.36
208.037	8.87
208.255	25.26
208.474	8.87
208.693	10.92
208.911	10.92
209.13	53.93
209.349	15.02
209.567	-1.37
209.786	88.75
210.005	105.13
210.223	-13.65
210.442	8.87
210.661	129.7
210.879	94.89
211.098	19.11
211.316	47.79
211.535	60.07
211.753	-15.7
211.972	45.74
212.191	25.26
212.409	-32.08
212.628	-60.76
212.846	90.79
213.065	64.17
213.283	58.03
213.502	96.94
213.72	62.12
213.938	23.21
214.157	111.27
214.375	-25.94
214.594	-9.56
214.812	-44.37
215.031	33.45
215.249	10.92
215.467	2.73
215.686	12.97
215.904	45.74
216.122	27.31
216.341	51.88
216.559	29.35
216.778	78.51
216.996	33.45
217.214	8.87
217.432	86.7
217.651	60.07
217.869	-23.89
218.087	76.46
218.306	-32.08
218.524	25.26
218.742	0.68
218.96	74.41
219.179	125.61
219.397	58.03
219.615	43.69
219.833	19.11
220.051	-7.51
220.27	0.68
220.488	12.97
220.706	80.55
220.924	64.17
221.142	-21.85
221.36	43.69
221.578	43.69
221.796	-21.85
222.015	19.11
222.233	64.17
222.451	10.92
222.669	-1.37
222.887	6.83
223.105	2.73
223.323	55.98
223.541	23.21
223.759	45.74
223.977	31.4
224.195	96.94
224.413	78.51
224.631	92.84
224.849	-5.46
225.067	115.37
225.285	19.11
225.503	-27.99
225.721	37.55
225.939	23.21
226.157	10.92
226.375	82.6
226.592	-5.46
226.81	21.16
227.028	-9.56
227.246	98.99
227.464	33.45
227.682	76.46
227.9	21.16
228.117	70.31
228.335	0.68
228.553	0.68
228.771	58.03
228.989	-30.04
229.206	-95.57
229.424	45.74
229.642	-19.8
229.86	-15.7
230.077	55.98
230.295	-1.37
230.513	33.45
230.731	12.97
230.948	55.98
231.166	41.64
231.384	2.73
231.601	31.4
231.819	-17.75
232.037	55.98
232.254	12.97
232.472	29.35
232.689	49.83
232.907	23.21
233.125	43.69
233.342	6.83
233.56	31.4
233.777	39.59
233.995	8.87
234.213	31.4
234.43	31.4
234.648	37.55
234.865	-32.08
235.083	86.7
235.3	0.68
235.518	60.07
235.735	39.59
235.953	150.18
236.17	-25.94
236.388	17.07
236.605	19.11
236.822	72.36
237.04	15.02
237.257	23.21
237.475	41.64
237.692	17.07
237.909	23.21
238.127	43.69
238.344	98.99
238.562	62.12
238.779	-3.41
238.996	60.07
239.214	6.83
239.431	-3.41
239.648	55.98
239.865	78.51
240.083	51.88
240.3	-27.99
240.517	-40.28
240.735	-21.85
240.952	58.03
241.169	-36.18
241.386	49.83
241.603	35.5
241.821	17.07
242.038	47.79
242.255	23.21
242.472	43.69
242.689	51.88
242.907	39.59
243.124	15.02
243.341	45.74
243.558	12.97
243.775	19.11
243.992	19.11
244.209	51.88
244.426	43.69
244.643	-15.7
244.86	92.84
245.078	84.65
245.295	4.78
245.512	76.46
245.729	19.11
245.946	-5.46
246.163	2.73
246.38	58.03
246.597	-79.19
246.814	6.83
247.031	45.74
247.248	-34.13
247.464	19.11
247.681	2.73
247.898	19.11
248.115	76.46
248.332	74.41
248.549	45.74
248.766	19.11
248.983	25.26
249.2	-11.61
249.417	55.98
249.633	25.26
249.85	-7.51
250.067	19.11
250.284	-1.37
250.501	19.11
250.717	43.69
250.934	82.6
251.151	74.41
251.368	4.78
251.585	-1.37
251.801	113.32
252.018	45.74
252.235	2.73
252.451	-36.18
252.668	-46.42
252.885	72.36
253.102	-9.56
253.318	55.98
253.535	23.21
253.752	-9.56
253.968	37.55
254.185	19.11
254.401	12.97
254.618	68.27
254.835	4.78
255.051	2.73
255.268	12.97
255.484	86.7
255.701	19.11
255.917	92.84
256.134	8.87
256.351	88.75
256.567	45.74
256.784	-5.46
257	31.4
257.217	80.55
257.433	12.97
257.65	33.45
257.866	4.78
258.082	-27.99
258.299	23.21
258.515	62.12
258.732	17.07
258.948	2.73
259.165	-25.94
259.381	-64.85
259.597	39.59
259.814	60.07
260.03	19.11
260.246	8.87
260.463	31.4
260.679	88.75
260.895	10.92
261.112	43.69
261.328	-75.09
261.544	-7.51
261.761	60.07
261.977	58.03
262.193	6.83
262.409	84.65
262.626	-21.85
262.842	64.17
263.058	41.64
263.274	-23.89
263.49	70.31
263.707	105.13
263.923	39.59
264.139	-19.8
264.355	6.83
264.571	70.31
264.787	39.59
265.004	55.98
265.22	-9.56
265.436	43.69
265.652	10.92
265.868	60.07
266.084	21.16
266.3	62.12
266.516	29.35
266.732	6.83
266.948	0.68
267.164	-5.46
267.38	45.74
267.596	51.88
267.812	53.93
268.028	33.45
268.244	53.93
268.46	111.27
268.676	-3.41
268.892	53.93
269.108	78.51
269.324	21.16
269.54	-73.04
269.756	-46.42
269.972	31.4
270.188	-13.65
270.403	39.59
270.619	45.74
270.835	2.73
271.051	-5.46
271.267	4.78
271.483	64.17
271.698	58.03
271.914	74.41
272.13	43.69
272.346	10.92
272.562	39.59
272.777	15.02
272.993	78.51
273.209	10.92
273.425	29.35
273.64	101.03
273.856	-7.51
274.072	12.97
274.287	-13.65
274.503	45.74
274.719	90.79
274.934	39.59
275.15	-11.61
275.366	0.68
275.581	-44.37
275.797	64.17
276.012	84.65
276.228	33.45
276.444	8.87
276.659	12.97
276.875	2.73
277.09	51.88
277.306	0.68
277.521	-21.85
277.737	25.26
277.952	37.55
278.168	27.31
278.383	-11.61
278.599	-7.51
278.814	-11.61
279.03	80.55
279.245	76.46
279.461	-11.61
279.676	101.03
279.892	4.78
280.107	103.08
280.322	27.31
280.538	-1.37
280.753	39.59
280.969	58.03
281.184	53.93
281.399	39.59
281.615	-25.94
281.83	27.31
282.045	15.02
282.26	88.75
282.476	19.11
282.691	35.5
282.906	41.64
283.122	51.88
283.337	84.65
283.552	8.87
283.767	-7.51
283.983	55.98
284.198	12.97
284.413	10.92
284.628	10.92
284.843	-46.42
285.058	23.21
285.274	41.64
285.489	-38.23
285.704	66.22
285.919	-79.19
286.134	55.98
286.349	-11.61
286.564	21.16
286.779	15.02
286.995	49.83
287.21	-13.65
287.425	37.55
287.64	8.87
287.855	21.16
288.07	47.79
288.285	29.35
288.5	72.36
288.715	74.41
288.93	31.4
289.145	76.46
289.36	82.6
289.575	64.17
289.79	51.88
290.004	51.88
290.219	-50.52
290.434	41.64
290.649	80.55
290.864	29.35
291.079	31.4
291.294	39.59
291.509	4.78
291.724	-54.61
291.938	17.07
292.153	51.88
292.368	31.4
292.583	68.27
292.798	55.98
293.012	-21.85
293.227	31.4
293.442	72.36
293.657	12.97
293.871	10.92
294.086	21.16
294.301	84.65
294.516	-11.61
294.73	19.11
294.945	62.12
295.16	-5.46
295.374	111.27
295.589	6.83
295.804	4.78
296.018	21.16
296.233	19.11
296.447	88.75
296.662	-23.89
296.877	35.5
297.091	29.35
297.306	-3.41
297.52	-17.75
297.735	35.5
297.949	-19.8
298.164	43.69
298.378	72.36
298.593	107.18
298.807	19.11
299.022	-95.57
299.236	0.68
299.451	55.98
299.665	86.7
299.88	70.31
300.094	74.41
300.309	68.27
300.523	31.4
300.737	-21.85
300.952	8.87
301.166	37.55
301.381	37.55
301.595	15.02
301.809	-1.37
302.024	-19.8
302.238	64.17
302.452	86.7
302.667	55.98
302.881	19.11
303.095	15.02
303.309	21.16
303.524	35.5
303.738	-36.18
303.952	55.98
304.166	76.46
304.381	19.11
304.595	39.59
304.809	25.26
305.023	-15.7
305.237	107.18
305.452	-1.37
305.666	84.65
305.88	64.17
306.094	23.21
306.308	55.98
306.522	47.79
306.736	35.5
306.95	64.17
307.164	76.46
307.379	8.87
307.593	66.22
307.807	76.46
308.021	2.73
308.235	72.36
308.449	-15.7
308.663	66.22
308.877	-3.41
309.091	25.26
309.305	53.93
309.519	-27.99
309.733	35.5
309.947	31.4
310.161	37.55
310.374	39.59
310.588	72.36
310.802	-38.23
311.016	23.21
311.23	49.83
311.444	4.78
311.658	4.78
311.872	8.87
312.085	37.55
312.299	19.11
312.513	94.89
312.727	43.69
312.941	19.11
313.154	64.17
313.368	51.88
313.582	23.21
313.796	64.17
314.009	45.74
314.223	78.51
314.437	94.89
314.651	41.64
314.864	-54.61
315.078	51.88
315.292	29.35
315.505	49.83
315.719	-50.52
315.933	58.03
316.146	70.31
316.36	2.73
316.573	78.51
316.787	84.65
317.001	55.98
317.214	62.12
317.428	17.07
317.641	-3.41
317.855	86.7
318.068	35.5
318.282	17.07
318.495	64.17
318.709	47.79
318.922	4.78
319.136	25.26
319.349	66.22
319.563	35.5
319.776	111.27
319.99	8.87
320.203	43.69
320.417	-19.8
320.63	17.07
320.843	55.98
321.057	72.36
321.27	25.26
321.483	31.4
321.697	66.22
321.91	2.73
322.124	64.17
322.337	-40.28
322.55	53.93
322.763	58.03
322.977	-11.61
323.19	-71
323.403	51.88
323.617	98.99
323.83	47.79
324.043	6.83
324.256	66.22
324.469	-23.89
324.683	6.83
324.896	74.41
325.109	41.64
325.322	43.69
325.535	45.74
325.748	6.83
325.962	68.27
326.175	66.22
326.388	76.46
326.601	60.07
326.814	6.83
327.027	43.69
327.24	41.64
327.453	2.73
327.666	107.18
327.879	62.12
328.092	94.89
328.305	-13.65
328.518	35.5
328.731	19.11
328.944	35.5
329.157	111.27
329.37	25.26
329.583	27.31
329.796	80.55
330.009	19.11
330.222	29.35
330.435	-1.37
330.648	37.55
330.861	39.59
331.073	-13.65
331.286	62.12
331.499	94.89
331.712	-23.89
331.925	47.79
332.138	43.69
332.35	12.97
332.563	25.26
332.776	6.83
332.989	84.65
333.202	68.27
333.414	76.46
333.627	-9.56
333.84	-30.04
334.053	35.5
334.265	12.97
334.478	27.31
334.691	15.02
334.903	64.17
335.116	-3.41
335.329	64.17
335.541	39.59
335.754	31.4
335.966	-13.65
336.179	10.92
336.392	-27.99
336.604	43.69
336.817	60.07
337.029	74.41
337.242	-19.8
337.454	23.21
337.667	23.21
337.88	51.88
338.092	60.07
338.305	43.69
338.517	17.07
338.729	-36.18
338.942	29.35
339.154	94.89
339.367	55.98
339.579	25.26
339.792	84.65
340.004	21.16
340.217	-34.13
340.429	76.46
340.641	96.94
340.854	37.55
341.066	12.97
341.278	-48.47
341.491	35.5
341.703	37.55
341.915	51.88
342.128	84.65
342.34	66.22
342.552	39.59
342.764	-32.08
342.977	51.88
343.189	60.07
343.401	-3.41
343.613	88.75
343.826	66.22
344.038	21.16
344.25	4.78
344.462	84.65
344.674	-3.41
344.886	12.97
345.099	60.07
345.311	43.69
345.523	84.65
345.735	53.93
345.947	53.93
346.159	78.51
346.371	66.22
346.583	-9.56
346.795	92.84
347.007	-3.41
347.219	43.69
347.431	51.88
347.643	37.55
347.855	41.64
348.067	78.51
348.279	74.41
348.491	-75.09
348.703	25.26
348.915	84.65
349.127	43.69
349.339	39.59
349.551	41.64
349.763	31.4
349.975	-1.37
350.187	35.5
350.399	62.12
350.61	29.35
350.822	17.07
351.034	33.45
351.246	49.83
351.458	58.03
351.669	39.59
351.881	60.07
352.093	23.21
352.305	86.7
352.517	2.73
352.728	60.07
352.94	-11.61
353.152	29.35
353.363	-13.65
353.575	88.75
353.787	45.74
353.999	92.84
354.21	101.03
354.422	-25.94
354.633	-7.51
354.845	76.46
355.057	76.46
355.268	78.51
355.48	-13.65
355.692	-15.7
355.903	17.07
356.115	17.07
356.326	74.41
356.538	55.98
356.749	70.31
356.961	78.51
357.172	117.42
357.384	43.69
357.595	117.42
357.807	64.17
358.018	-38.23
358.23	92.84
358.441	43.69
358.653	101.03
358.864	6.83
359.075	19.11
359.287	-3.41
359.498	58.03
359.709	33.45
359.921	19.11
360.132	58.03
360.344	88.75
360.555	17.07
360.766	15.02
360.977	45.74
361.189	66.22
361.4	12.97
361.611	78.51
361.823	19.11
362.034	17.07
362.245	15.02
362.456	-1.37
362.667	35.5
362.879	88.75
363.09	25.26
363.301	41.64
363.512	25.26
363.723	94.89
363.935	49.83
364.146	64.17
364.357	35.5
364.568	-21.85
364.779	23.21
364.99	55.98
365.201	4.78
365.412	-1.37
365.623	23.21
365.834	55.98
366.045	-15.7
366.256	29.35
366.467	21.16
366.678	76.46
366.889	17.07
367.1	12.97
367.311	72.36
367.522	62.12
367.733	101.03
367.944	90.79
368.155	45.74
368.366	70.31
368.577	115.37
368.788	41.64
368.999	39.59
369.209	51.88
369.42	113.32
369.631	58.03
369.842	96.94
370.053	160.42
370.264	111.27
370.474	66.22
370.685	19.11
370.896	27.31
371.107	31.4
371.317	84.65
371.528	29.35
371.739	103.08
371.95	-13.65
372.16	-1.37
372.371	23.21
372.582	107.18
372.792	72.36
373.003	53.93
373.214	0.68
373.424	43.69
373.635	39.59
373.846	66.22
374.056	37.55
374.267	94.89
374.477	88.75
374.688	98.99
374.898	25.26
375.109	35.5
375.319	-3.41
375.53	64.17
375.74	31.4
375.951	55.98
376.161	41.64
376.372	47.79
376.582	68.27
376.793	-23.89
377.003	62.12
377.214	51.88
377.424	78.51
377.635	43.69
377.845	29.35
378.055	92.84
378.266	-15.7
378.476	43.69
378.686	31.4
378.897	117.42
379.107	107.18
379.317	-13.65
379.528	-21.85
379.738	62.12
379.948	51.88
380.158	94.89
380.369	68.27
380.579	8.87
380.789	66.22
380.999	31.4
381.21	6.83
381.42	117.42
381.63	31.4
381.84	55.98
382.05	70.31
382.261	66.22
382.471	80.55
382.681	53.93
382.891	6.83
383.101	98.99
383.311	88.75
383.521	86.7
383.731	111.27
383.941	39.59
384.151	76.46
384.361	60.07
384.571	10.92
384.781	19.11
384.991	64.17
385.201	58.03
385.411	25.26
385.621	43.69
385.831	47.79
386.041	-1.37
386.251	41.64
386.461	49.83
386.671	49.83
386.881	-21.85
387.091	23.21
387.301	107.18
387.511	-13.65
387.72	-27.99
387.93	2.73
388.14	109.22
388.35	6.83
388.56	35.5
388.769	60.07
388.979	68.27
389.189	58.03
389.399	4.78
389.609	94.89
389.818	-17.75
390.028	72.36
390.238	111.27
390.447	68.27
390.657	41.64
390.867	49.83
391.076	49.83
391.286	92.84
391.496	45.74
391.705	43.69
391.915	62.12
392.125	25.26
392.334	31.4
392.544	45.74
392.753	47.79
392.963	49.83
393.172	35.5
393.382	15.02
393.591	62.12
393.801	94.89
394.01	51.88
394.22	109.22
394.429	101.03
394.639	25.26
394.848	68.27
395.058	103.08
395.267	60.07
395.477	66.22
395.686	62.12
395.895	103.08
396.105	82.6
396.314	133.8
396.524	31.4
396.733	43.69
396.942	86.7
397.152	47.79
397.361	51.88
397.57	86.7
397.78	53.93
397.989	84.65
398.198	129.7
398.407	39.59
398.617	103.08
398.826	92.84
399.035	86.7
399.244	10.92
399.453	125.61
399.663	17.07
399.872	127.66
400.081	21.16
400.29	94.89
400.499	47.79
400.708	86.7
400.917	90.79
401.127	33.45
401.336	103.08
401.545	70.31
401.754	78.51
401.963	27.31
402.172	105.13
402.381	15.02
402.59	-27.99
402.799	51.88
403.008	135.85
403.217	105.13
403.426	68.27
403.635	84.65
403.844	98.99
404.053	127.66
404.262	51.88
404.471	135.85
404.68	119.46
404.888	68.27
405.097	80.55
405.306	68.27
405.515	141.99
405.724	76.46
405.933	178.86
406.142	146.09
406.35	135.85
406.559	27.31
406.768	133.8
406.977	119.46
407.185	133.8
407.394	150.18
407.603	92.84
407.812	137.9
408.02	199.34
408.229	203.43
408.438	182.95
408.646	125.61
408.855	127.66
409.064	180.9
409.272	195.24
409.481	242.34
409.69	176.81
409.898	121.51
410.107	201.38
410.315	217.77
410.524	160.42
410.733	225.96
410.941	174.76
411.15	260.77
411.358	283.3
411.567	213.67
411.775	185
411.984	201.38
412.192	242.34
412.401	322.21
412.609	252.58
412.818	287.4
413.026	340.65
413.234	289.45
413.443	279.21
413.651	344.74
413.86	311.97
414.068	371.36
414.276	373.41
414.485	379.56
414.693	354.98
414.901	432.8
415.11	426.66
415.318	375.46
415.526	432.8
415.734	447.14
415.943	518.82
416.151	576.16
416.359	484
416.567	395.94
416.776	502.43
416.984	600.74
417.192	602.79
417.4	559.78
417.608	479.91
417.817	651.94
418.025	639.65
418.233	619.17
418.441	756.38
418.649	709.28
418.857	791.2
419.065	823.97
419.273	795.29
419.481	875.17
419.689	828.06
419.897	914.08
420.105	858.78
420.313	973.47
420.521	1018.52
420.729	1063.58
420.937	1090.2
421.145	1120.92
421.353	1219.22
421.561	1223.32
421.769	1168.02
421.977	1288.85
422.185	1233.56
422.393	1331.86
422.601	1395.35
422.809	1319.57
423.017	1372.82
423.224	1550.99
423.432	1555.09
423.64	1579.67
423.848	1612.43
424.056	1532.56
424.263	1850
424.471	1704.59
424.679	1858.19
424.887	1862.29
425.094	1890.96
425.302	1909.39
425.51	2060.94
425.718	2136.71
425.925	2060.94
426.133	2214.54
426.341	2267.78
426.548	2359.94
426.756	2423.43
426.964	2374.28
427.171	2423.43
427.379	2574.98
427.586	2542.21
427.794	2722.43
428.001	2910.85
428.209	3052.16
428.417	3013.24
428.624	3166.84
428.832	3062.4
429.039	3175.03
429.247	3091.07
429.454	3420.79
429.662	3484.28
429.869	3447.41
430.076	3695.22
430.284	3631.73
430.491	3775.09
430.699	3922.54
430.906	3834.48
431.114	3967.6
431.321	4057.71
431.528	4172.39
431.736	4706.91
431.943	4635.24
432.15	4489.83
432.358	4469.35
432.565	4805.22
432.772	4737.63
432.979	4983.39
433.187	5251.67
433.394	5270.11
433.601	5468.76
433.808	5560.92
434.016	5382.74
434.223	5634.64
434.43	6034
434.637	5943.89
434.844	6249.04
435.052	6515.27
435.259	6353.48
435.466	6406.73
435.673	6257.23
435.88	6785.6
436.087	7131.71
436.294	7105.09
436.501	6949.44
436.708	7100.99
436.915	7385.66
437.122	7604.79
437.329	7596.6
437.537	7793.2
437.743	7975.47
437.95	7862.83
438.157	8534.57
438.364	8845.86
438.571	8745.51
438.778	8737.32
438.985	9589.27
439.192	9085.47
439.399	9415.19
439.606	9370.14
439.813	9787.93
440.02	10254.86
440.227	10267.15
440.433	10244.62
440.64	10553.87
440.847	10549.77
441.054	10793.48
441.261	11160.06
441.467	11119.1
441.674	11356.67
441.881	11776.5
442.088	11776.5
442.294	11690.49
442.501	12130.8
442.708	12390.89
442.914	12775.91
443.121	13314.53
443.328	12917.22
443.534	13933.01
443.741	13332.96
443.948	13320.67
444.154	14395.85
444.361	14242.26
444.568	14338.51
444.774	14428.62
444.981	14563.79
445.187	14995.91
445.394	15577.53
445.6	15405.5
445.807	16916.9
446.013	16206.26
446.22	16523.69
446.426	17250.72
446.633	17422.75
446.839	17684.89
447.046	17029.54
447.252	18360.72
447.459	18141.59
447.665	18299.28
447.871	18983.31
448.078	19655.04
448.284	18833.8
448.491	19239.3
448.697	20097.4
448.903	20425.07
449.11	20691.31
449.316	20316.53
449.522	20681.07
449.728	21125.48
449.935	21469.54
450.141	21256.55
450.347	21696.86
450.553	21258.6
450.76	21567.84
450.966	22313.3
451.172	21916
451.378	22333.78
451.584	21916
451.791	22401.36
451.997	22296.92
452.203	23007.56
452.409	22907.21
452.615	22862.16
452.821	22110.55
453.027	21463.4
453.233	22980.94
453.44	21852.51
453.646	22397.27
453.852	22413.65
454.058	23128.39
454.264	22229.34
454.47	22446.42
454.676	22260.05
454.882	22810.96
455.088	20701.55
455.294	21148.01
455.5	21524.83
455.705	21660
455.911	21053.8
456.117	20527.47
456.323	20162.93
456.529	19059.08
456.735	19882.36
456.941	19550.59
457.147	18940.3
457.352	18674.06
457.558	18305.43
457.764	18389.39
457.97	17742.24
458.176	17766.81
458.381	17576.35
458.587	16839.08
458.793	16955.82
458.999	15833.53
459.204	17191.33
459.41	16779.69
459.616	15421.89
459.821	15675.84
460.027	15514.05
460.233	14959.05
460.438	14186.96
460.644	14600.65
460.85	13701.59
461.055	13591
461.261	13449.69
461.466	12681.71
461.672	12270.06
461.878	13212.13
462.083	12253.68
462.289	11938.29
462.494	11678.2
462.7	11340.29
462.905	11145.73
463.111	11522.55
463.316	11631.1
463.522	10996.23
463.727	11332.09
463.932	11102.72
464.138	11213.31
464.343	11074.05
464.549	11043.33
464.754	11229.7
464.959	11248.13
465.165	10955.27
465.37	10549.77
465.575	10263.05
465.781	10867.2
465.986	10684.94
466.191	10359.31
466.397	10308.11
466.602	9753.11
466.807	10048.02
467.012	9986.58
467.218	9841.17
467.423	9853.46
467.628	9996.82
467.833	10064.4
468.038	9939.47
468.244	9691.67
468.449	10218
468.654	9738.77
468.859	9593.37
469.064	9579.03
469.269	9218.59
469.474	9269.79
469.679	9509.4
469.885	9359.9
470.09	9509.4
470.295	9179.68
470.5	8958.5
470.705	9292.32
470.91	8942.11
471.115	8933.92
471.32	9032.22
471.525	8727.08
471.73	8718.89
471.935	8682.02
472.139	8469.03
472.344	8526.38
472.549	8473.13
472.754	8466.99
472.959	8090.16
473.164	7895.6
473.369	7809.59
473.574	8004.14
473.778	8135.21
473.983	7983.66
474.188	7905.84
474.393	7479.86
474.598	7821.88
474.802	7348.79
475.007	7483.96
475.212	7522.87
475.417	7367.23
475.621	7270.97
475.826	7367.23
476.031	7273.02
476.235	6933.06
476.44	7154.24
476.645	6928.96
476.849	6986.3
477.054	7008.83
477.259	6873.67
477.463	6529.61
477.668	6445.64
477.872	6718.02
478.077	6648.39
478.282	6457.93
478.486	6464.07
478.691	6261.32
478.895	6294.09
479.1	6408.78
479.304	6343.24
479.509	6124.11
479.713	6244.94
479.918	6036.05
480.122	6097.49
480.326	6269.51
480.531	5980.75
480.735	6011.47
480.94	6031.95
481.144	5972.56
481.348	5786.19
481.553	6052.43
481.757	5894.74
481.961	5833.3
482.166	5825.11
482.37	5751.38
482.574	5730.9
482.778	5694.04
482.983	6124.11
483.187	5861.97
483.391	6034
483.595	5708.37
483.8	5851.73
484.004	5884.5
484.208	5888.59
484.412	5966.42
484.616	5751.38
484.821	5853.78
485.025	5481.05
485.229	5962.32
485.433	5902.93
485.637	5939.79
485.841	5782.1
486.045	5761.62
486.249	5919.31
486.453	5730.9
486.657	5861.97
486.861	5751.38
487.065	5859.92
487.269	5716.56
487.473	5634.64
487.677	5761.62
487.881	5976.66
488.085	5653.08
488.289	5802.58
488.493	5892.69
488.697	5880.4
488.901	5808.72
489.105	6044.24
489.309	5896.78
489.512	5945.94
489.716	5837.39
489.92	5974.61
490.124	5966.42
490.328	6015.57
490.531	5870.16
490.735	6048.33
490.939	5999.18
491.143	6056.53
491.346	6091.34
491.55	6220.36
491.754	6193.74
491.958	6216.27
492.161	6244.94
492.365	6179.4
492.569	6062.67
492.772	6208.08
492.976	6177.36
493.18	6296.14
493.383	6388.3
493.587	6224.46
493.79	6406.73
493.994	6359.63
494.197	6363.72
494.401	6445.64
494.605	6670.92
494.808	6527.56
495.012	6615.62
495.215	6541.89
495.419	6634.05
495.622	6668.87
495.825	6783.56
496.029	6933.06
496.232	6885.95
496.436	6842.95
496.639	7150.14
496.843	7166.53
497.046	7211.58
497.249	7207.48
497.453	7350.84
497.656	7342.65
497.859	7287.36
498.063	7522.87
498.266	7664.18
498.469	7647.8
498.673	7735.86
498.876	7895.6
499.079	7957.04
499.282	7735.86
499.485	8157.74
499.689	8122.93
499.892	8192.56
500.095	8198.7
500.298	8604.2
500.501	8471.08
500.705	8780.32
500.908	8634.92
501.111	8815.14
501.314	8968.74
501.517	9259.55
501.72	9232.93
501.923	9097.76
502.126	9296.41
502.329	9464.35
502.532	9382.43
502.735	9495.07
502.938	9847.32
503.141	9832.98
503.344	10088.98
503.547	9902.61
503.75	10045.97
503.953	10283.53
504.156	10441.23
504.359	10359.31
504.562	10568.2
504.765	10689.03
504.968	10973.7
505.17	10895.88
505.373	11135.49
505.576	11295.23
505.779	11450.88
505.982	11411.96
506.185	11690.49
506.387	11583.99
506.59	11960.82
506.793	11909.62
506.996	12052.98
507.198	12481
507.401	12497.39
507.604	12438
507.807	12802.54
508.009	12964.32
508.212	13140.45
508.415	13287.9
508.617	13404.64
508.82	13488.6
509.022	13504.99
509.225	13597.15
509.428	13930.97
509.63	13851.1
509.833	14039.51
510.035	14522.83
510.238	14299.6
510.44	14619.08
510.643	14584.27
510.845	14772.68
511.048	14830.02
511.25	15114.69
511.453	15276.48
511.655	15747.51
511.858	15647.16
512.06	15690.17
512.262	16023.99
512.465	16140.72
512.667	16472.5
512.87	16372.14
513.072	16290.23
513.274	16832.94
513.477	16925.1
513.679	17037.73
513.881	17148.32
514.084	17486.24
514.286	17625.5
514.488	17627.55
514.69	18047.38
514.893	18055.58
515.095	18094.49
515.297	18416.02
515.499	18817.42
515.701	18887.05
515.904	19028.36
516.106	18985.35
516.308	19118.47
516.51	19622.27
516.712	19388.8
516.914	19902.84
517.116	19984.76
517.318	20035.96
517.52	20179.32
517.722	20443.51
517.925	20681.07
518.127	20873.58
518.329	21051.75
518.531	21043.56
518.733	21662.05
518.935	21637.47
519.136	21711.2
519.338	21776.73
519.54	22161.75
519.742	22260.05
519.944	22468.95
520.146	22714.7
520.348	22815.05
520.55	22933.84
520.752	23083.34
520.954	23501.12
521.155	23394.63
521.357	23712.06
521.559	24105.27
521.761	24222.01
521.963	24275.26
522.164	24426.81
522.366	24437.05
522.568	24836.4
522.77	24973.61
522.971	25202.99
523.173	25010.48
523.375	25501.99
523.576	25338.15
523.778	25323.82
523.98	25764.13
524.181	25944.35
524.383	25868.58
524.584	26280.22
524.786	26214.68
524.988	26392.86
525.189	26509.59
525.391	26704.15
525.592	26937.62
525.794	26802.45
525.995	27025.68
526.197	27021.58
526.398	27230.48
526.6	27465.99
526.801	27355.4
527.003	27654.4
527.204	27439.37
527.406	27709.7
527.607	28045.57
527.808	27975.94
528.01	27590.92
528.211	28354.81
528.412	28403.96
528.614	28203.26
528.815	27967.74
529.016	28655.86
529.218	28027.13
529.419	28543.22
529.62	28477.69
529.822	28682.48
530.023	28336.38
530.224	28694.77
530.425	28627.19
530.626	28418.3
530.828	28616.95
531.029	28952.82
531.23	28932.34
531.431	29124.85
531.632	28989.68
531.833	29225.2
532.035	28885.23
532.236	28942.58
532.437	29331.69
532.638	29198.57
532.839	29280.49
533.04	29198.57
533.241	28965.1
533.442	29606.12
533.643	29554.92
533.844	29147.37
534.045	29509.86
534.246	28696.82
534.447	29255.92
534.648	29292.78
534.849	29206.76
535.05	29114.61
535.251	29190.38
535.451	29157.61
535.652	29432.04
535.853	29004.02
536.054	29366.51
536.255	29227.24
536.456	29219.05
536.657	29886.69
536.857	29190.38
537.058	29376.75
537.259	29501.67
537.46	29348.07
537.66	29249.77
537.861	29436.14
538.062	29174
538.263	29741.28
538.463	29151.47
538.664	29429.99
538.865	29774.05
539.065	29473
539.266	29163.76
539.466	29685.99
539.667	28590.33
539.868	29380.84
540.068	29374.7
540.269	29399.27
540.469	29362.41
540.67	29085.93
540.87	28915.95
541.071	29108.46
541.271	29288.68
541.472	29432.04
541.672	28866.8
541.873	29331.69
542.073	28928.24
542.274	29462.76
542.474	29047.02
542.675	29092.08
542.875	29489.38
543.075	29145.33
543.276	28860.66
543.476	29192.43
543.676	29167.85
543.877	29075.69
544.077	29429.99
544.277	28696.82
544.478	29040.88
544.678	29354.22
544.878	29151.47
545.078	28932.34
545.279	28674.29
545.479	29034.74
545.679	29217
545.879	28893.43
546.079	28711.16
546.28	28991.73
546.48	28604.66
546.68	29092.08
546.88	29200.62
547.08	29260.01
547.28	28662.01
547.48	28729.59
547.68	28954.86
547.88	28596.47
548.081	29108.46
548.281	28852.47
548.481	29075.69
548.681	29100.27
548.881	28922.1
549.081	28719.35
549.28	28604.66
549.48	28842.23
549.68	28739.83
549.88	29257.96
550.08	28764.4
550.28	28821.75
550.48	28981.49
550.68	28993.78
550.88	28799.22
551.08	29057.26
551.279	29090.03
551.479	28438.78
551.679	28670.2
551.879	28838.13
552.079	28838.13
552.278	28768.5
552.478	28877.04
552.678	28686.58
552.878	28827.89
553.077	28504.31
553.277	28469.5
553.477	28788.98
553.676	28702.96
553.876	28453.11
554.076	28289.27
554.275	28594.42
554.475	28338.43
554.674	28485.88
554.874	28655.86
555.074	28014.85
555.273	28471.54
555.473	28467.45
555.672	28211.45
555.872	28348.67
556.071	28514.55
556.271	28293.37
556.47	28231.93
556.67	28195.07
556.869	28195.07
557.068	28053.76
557.268	28129.53
557.467	28102.91
557.667	28051.71
557.866	28281.08
558.065	28080.38
558.265	27789.57
558.464	27834.63
558.663	28369.15
558.863	27633.92
559.062	27885.83
559.261	27638.02
559.461	28090.62
559.66	27789.57
559.859	27859.2
560.058	27715.84
560.258	27711.75
560.457	27437.32
560.656	27949.31
560.855	27359.5
561.054	27552.01
561.253	27517.19
561.453	27425.03
561.652	27580.68
561.851	27691.27
562.05	27062.54
562.249	26894.61
562.448	27748.61
562.647	27326.73
562.846	27099.41
563.045	27330.83
563.244	26478.87
563.443	27558.15
563.642	26962.19
563.841	26798.35
564.04	26855.7
564.239	27269.39
564.438	26966.29
564.637	27007.25
564.836	26876.18
565.035	26536.21
565.234	26872.08
565.432	26648.85
565.631	26566.93
565.83	26650.9
566.029	26276.12
566.228	26390.81
566.427	26274.07
566.625	26280.22
566.824	26231.07
567.023	26294.55
567.222	25968.93
567.42	26286.36
567.619	26372.38
567.818	26241.31
568.016	25872.67
568.215	26124.57
568.414	25874.72
568.612	26059.04
568.811	25770.27
569.01	25686.31
569.208	25278.76
569.407	25723.17
569.605	25686.31
569.804	25540.9
570.002	25491.75
570.201	25676.07
570.4	25481.51
570.598	25334.06
570.797	25141.55
570.995	25395.5
571.193	24557.88
571.392	25276.71
571.59	24717.62
571.789	24994.09
571.987	24766.77
572.186	24842.54
572.384	24342.84
572.582	24811.82
572.781	24955.18
572.979	24224.06
573.177	24492.34
573.376	24459.57
573.574	24590.64
573.772	24463.67
573.971	24135.99
574.169	24363.32
574.367	23849.28
574.565	24207.67
574.763	23742.78
574.962	23918.91
575.16	24052.03
575.358	24158.52
575.556	23658.82
575.754	23865.66
575.952	23591.23
576.151	23791.94
576.349	23554.37
576.547	23482.69
576.745	23568.71
576.943	23621.95
577.141	23159.11
577.339	23484.74
577.537	23134.54
577.735	23228.74
577.933	22788.43
578.131	23238.98
578.329	23081.29
578.527	22978.89
578.725	22776.14
578.923	22958.41
579.121	22573.39
579.319	22477.14
579.516	22903.12
579.714	22626.64
579.912	22792.53
580.11	22425.94
580.308	22716.75
580.506	22333.78
580.704	22055.26
580.901	22567.25
581.099	22096.22
581.297	21956.96
581.495	22018.39
581.692	22114.65
581.89	22088.03
582.088	22141.27
582.285	21854.56
582.483	22038.87
582.681	22030.68
582.878	21703.01
583.076	21399.91
583.274	21815.65
583.471	21303.65
583.669	21580.13
583.866	21569.89
584.064	21363.04
584.262	21590.37
584.459	21399.91
584.657	21383.52
584.854	21381.48
585.052	20865.39
585.249	20982.12
585.447	21010.79
585.644	20998.51
585.841	20910.44
586.039	21023.08
586.236	20586.86
586.434	20795.76
586.631	20699.5
586.828	20765.04
587.026	20613.49
587.223	20584.82
587.42	20351.35
587.618	20492.66
587.815	20259.19
588.012	20070.78
588.21	20306.29
588.407	20310.39
588.604	20035.96
588.801	20121.98
588.999	19917.18
589.196	19925.37
589.393	19978.62
589.59	19888.51
589.787	19751.29
589.984	19769.72
590.182	19417.47
590.379	19497.35
590.576	19378.56
590.773	19503.49
590.97	19329.41
591.167	19372.42
591.364	19239.3
591.561	19112.33
591.758	18860.43
591.955	19323.27
592.152	19245.44
592.349	18796.94
592.546	19022.22
592.743	18966.92
592.94	18743.69
593.137	18758.03
593.334	18940.3
593.531	18395.54
593.727	19108.23
593.924	18612.62
594.121	18166.17
594.318	18661.77
594.515	18227.6
594.712	18778.51
594.908	18092.44
595.105	18540.94
595.302	18069.91
595.499	18026.9
595.696	18424.21
595.892	17963.42
596.089	17940.89
596.286	18157.97
596.482	17918.36
596.679	17799.58
596.876	17983.9
597.072	17625.5
597.269	17777.05
597.466	17523.1
597.662	17367.46
597.859	17631.65
598.055	17476
598.252	17476
598.448	17643.93
598.645	17369.51
598.841	17084.84
599.038	17308.07
599.234	17103.27
599.431	17025.45
599.627	17115.56
599.824	17107.37
600.02	16961.96
600.217	17207.72
600.413	16949.67
600.609	16710.06
600.806	16656.81
601.002	16896.42
601.198	16548.27
601.395	16578.99
601.591	16660.91
601.787	16720.3
601.984	16454.06
602.18	16529.84
602.376	16411.06
602.572	16216.5
602.769	16224.69
602.965	16239.03
603.161	16191.92
603.357	16173.49
603.553	15763.9
603.75	16179.64
603.946	15985.08
604.142	15907.26
604.338	15722.94
604.534	15894.97
604.73	15673.79
604.926	15729.08
605.122	15825.34
605.318	15307.2
605.514	15530.43
605.71	15432.13
605.906	15434.18
606.102	15573.44
606.298	15374.78
606.494	15430.08
606.69	15516.09
606.886	15362.5
607.082	15106.5
607.278	15389.12
607.474	14977.48
607.67	15077.83
607.866	15116.74
608.062	15020.49
608.257	14973.38
608.453	15051.2
608.649	15194.56
608.845	14582.22
609.041	14807.5
609.236	14991.81
609.432	14744.01
609.628	14834.12
609.824	14813.64
610.019	14866.89
610.215	14840.26
610.411	14791.11
610.606	14649.8
610.802	14649.8
610.998	14744.01
611.193	14526.92
611.389	14602.7
611.584	14514.64
611.78	14395.85
611.976	14275.02
612.171	14307.79
612.367	14596.56
612.562	14416.33
612.758	13955.54
612.953	14062.04
613.149	14358.99
613.344	14209.49
613.539	14178.77
613.735	14184.91
613.93	14307.79
614.126	14092.76
614.321	14086.61
614.517	13978.07
614.712	14080.47
614.907	14055.89
615.103	14084.56
615.298	13939.16
615.493	13916.63
615.688	13994.45
615.884	13982.17
616.079	13545.95
616.274	13963.73
616.47	13617.63
616.665	13781.46
616.86	13730.27
617.055	13679.07
617.25	13560.28
617.445	13513.18
617.641	13443.55
617.836	13687.26
618.031	13304.29
618.226	13418.97
618.421	13259.23
618.616	13283.81
618.811	13087.2
619.006	13638.11
619.201	12943.85
619.396	13398.49
619.591	12718.57
619.786	13066.72
619.981	12835.3
620.176	12995.04
620.371	12878.31
620.566	12921.32
620.761	12845.54
620.956	12708.33
621.151	12546.54
621.346	12636.65
621.541	12356.08
621.735	12538.35
621.93	12235.25
622.125	12427.76
622.32	12046.83
622.515	12196.34
622.709	12229.1
622.904	12317.17
623.099	12036.59
623.294	11985.4
623.488	11944.44
623.683	11909.62
623.878	11688.44
624.072	11760.12
624.267	11645.43
624.462	11483.64
624.656	11635.19
624.851	11661.82
625.046	11543.03
625.24	11487.74
625.435	11145.73
625.629	11401.72
625.824	11096.58
626.018	11196.93
626.213	10691.08
626.407	11135.49
626.602	10832.39
626.796	10834.44
626.991	10996.23
627.185	10756.61
627.38	10670.6
627.574	10734.09
627.768	10459.66
627.963	10535.43
628.157	10361.36
628.352	10500.62
628.546	10064.4
628.74	10504.71
628.935	10254.86
629.129	10250.77
629.323	10197.52
629.517	10082.83
629.712	10320.4
629.906	10056.21
630.1	9738.77
630.294	9892.37
630.489	9771.54
630.683	9843.22
630.877	9759.25
631.071	9736.73
631.265	9699.86
631.459	9734.68
631.653	9441.82
631.848	9533.98
632.042	9374.24
632.236	9605.66
632.43	9263.65
632.624	9251.36
632.818	9417.24
633.012	9128.48
633.206	9077.28
633.4	9183.77
633.594	9067.04
633.788	9167.39
633.982	9030.18
634.176	8921.63
634.369	8858.15
634.563	8950.31
634.757	8731.17
634.951	8702.5
635.145	8821.28
635.339	8727.08
635.533	8532.52
635.726	8628.77
635.92	8575.53
636.114	8520.23
636.308	8544.81
636.501	8286.76
636.695	8426.03
636.889	8305.2
637.083	8167.98
637.276	8215.09
637.47	8092.21
637.664	8260.14
637.857	8006.19
638.051	7954.99
638.244	8034.86
638.438	8084.02
638.632	7938.61
638.825	7957.04
639.019	7932.47
639.212	7592.5
639.406	7717.43
639.599	7717.43
639.793	7608.89
639.986	7559.74
640.18	7494.2
640.373	7682.61
640.567	7453.24
640.76	7553.59
640.954	7387.71
641.147	7313.98
641.34	7215.68
641.534	7295.55
641.727	7270.97
641.92	7014.98
642.114	7049.79
642.307	7033.41
642.5	6859.33
642.694	7057.98
642.887	6912.58
643.08	7051.84
643.273	6842.95
643.467	6912.58
643.66	6711.88
643.853	6781.51
644.046	6767.17
644.239	6828.61
644.432	6613.57
644.626	6582.85
644.819	6621.77
645.012	6601.29
645.205	6498.89
645.398	6476.36
645.591	6468.17
645.784	6564.42
645.977	6500.94
646.17	6443.59
646.363	6292.04
646.556	6083.15
646.749	6318.67
646.942	6259.28
647.135	6228.56
647.328	6249.04
647.521	6097.49
647.714	5997.14
647.907	6068.81
648.099	5990.99
648.292	6079.05
648.485	5892.69
648.678	5990.99
648.871	5835.35
649.064	5745.23
649.256	5821.01
649.449	5866.07
649.642	5730.9
649.835	5655.12
650.027	5546.58
650.22	5683.8
650.413	5474.9
650.605	5704.28
650.798	5630.55
650.991	5522.01
651.183	5452.38
651.376	5460.57
651.568	5317.21
651.761	5536.34
651.954	5352.02
652.146	5376.6
652.339	5386.84
652.531	5288.54
652.724	5335.64
652.916	5007.97
653.109	5321.31
653.301	5216.86
653.494	5380.7
653.686	5128.8
653.879	5100.12
654.071	5028.45
654.263	5024.35
654.456	5059.17
654.648	5180
654.84	5050.97
655.033	5012.06
655.225	4905.57
655.417	4807.27
655.61	4850.27
655.802	4770.4
655.994	4715.11
656.186	4917.86
656.379	4842.08
656.571	4889.18
656.763	4530.79
656.955	4571.75
657.148	4487.78
657.34	4629.09
657.532	4706.91
657.724	4557.41
657.916	4676.2
658.108	4475.49
658.3	4567.65
658.492	4448.87
658.684	4405.86
658.876	4416.1
659.068	4407.91
659.26	4336.23
659.452	4379.24
659.644	4350.57
659.836	4414.06
660.028	4377.19
660.22	4235.88
660.412	4299.37
660.604	4209.26
660.796	4098.67
660.988	4037.23
661.18	4176.49
661.372	4098.67
661.563	4049.52
661.755	4065.9
661.947	4045.42
662.139	3922.54
662.331	3902.06
662.522	3932.78
662.714	4129.39
662.906	4016.75
663.097	3830.38
663.289	3895.92
663.481	3730.03
663.673	3811.95
663.864	3672.69
664.056	3680.88
664.247	3715.7
664.439	3783.28
664.631	3650.16
664.822	3664.5
665.014	3775.09
665.205	3623.54
665.397	3689.07
665.588	3590.77
665.78	3658.35
665.971	3533.43
666.163	3512.95
666.354	3627.64
666.546	3560.05
666.737	3558
666.929	3424.89
667.12	3492.47
667.311	3330.68
667.503	3652.21
667.694	3547.76
667.885	3254.9
668.077	3474.04
668.268	3447.41
668.459	3377.78
668.651	3365.5
668.842	3363.45
669.033	3238.52
669.224	3361.4
669.416	3203.71
669.607	3332.73
669.798	3289.72
669.989	3302.01
670.18	3287.67
670.371	3256.95
670.563	3152.51
670.754	3295.86
670.945	3048.06
671.136	3058.3
671.327	3105.4
671.518	3070.59
671.709	2998.91
671.9	3033.72
672.091	3082.88
672.282	3078.78
672.473	3144.31
672.664	3050.11
672.855	3009.15
673.046	3064.44
673.237	3015.29
673.428	2939.52
673.619	2972.29
673.809	2978.43
674	2970.24
674.191	2839.17
674.382	2861.69
674.573	2945.66
674.764	2919.04
674.954	2876.03
675.145	2978.43
675.336	2849.41
675.527	2861.69
675.717	2833.02
675.908	2736.77
676.099	2775.68
676.289	2804.35
676.48	2679.43
676.671	2669.19
676.861	2878.08
677.052	2738.82
677.243	2718.34
677.433	2603.65
677.624	2654.85
677.814	2777.73
678.005	2734.72
678.195	2716.29
678.386	2749.06
678.576	2613.89
678.767	2747.01
678.957	2669.19
679.148	2548.36
679.338	2697.86
679.529	2650.75
679.719	2605.7
679.909	2652.8
680.1	2579.08
680.29	2722.43
680.481	2714.24
680.671	2544.26
680.861	2603.65
681.052	2574.98
681.242	2378.37
681.432	2462.34
681.622	2509.44
681.813	2562.69
682.003	2652.8
682.193	2501.25
682.383	2525.83
682.573	2501.25
682.764	2486.92
682.954	2499.2
683.144	2527.88
683.334	2536.07
683.524	2558.6
683.714	2601.6
683.904	2562.69
684.094	2519.68
684.284	2405
684.474	2577.03
684.664	2499.2
684.854	2394.76
685.044	2374.28
685.234	2337.41
685.424	2454.15
685.614	2417.29
685.804	2441.86
685.994	2488.96
686.184	2460.29
686.374	2433.67
686.564	2398.85
686.753	2454.15
686.943	2402.95
687.133	2411.14
687.323	2282.12
687.513	2501.25
687.702	2290.31
687.892	2433.67
688.082	2394.76
688.272	2361.99
688.461	2296.46
688.651	2361.99
688.841	2359.94
689.03	2257.54
689.22	2372.23
689.41	2294.41
689.599	2185.87
689.789	2343.56
689.979	2306.7
690.168	2286.22
690.358	2194.06
690.547	2333.32
690.737	2284.17
690.926	2290.31
691.116	2210.44
691.305	2304.65
691.495	2169.48
691.684	2087.56
691.874	2312.84
692.063	2284.17
692.252	2241.16
692.442	2128.52
692.631	2192.01
692.82	2210.44
693.01	2269.83
693.199	2171.53
693.388	2198.15
693.578	2081.42
693.767	2099.85
693.956	2044.56
694.146	2105.99
694.335	2120.33
694.524	2132.62
694.713	2077.32
694.902	2142.86
695.092	2038.41
695.281	2017.93
695.47	2093.71
695.659	2112.14
695.848	2085.51
696.037	2062.99
696.226	2157.19
696.415	2089.61
696.604	1993.36
696.793	2130.57
696.982	1921.68
697.171	1970.83
697.36	2089.61
697.549	2007.69
697.738	1981.07
697.927	2067.08
698.116	2009.74
698.305	1995.4
698.494	2105.99
698.683	2071.18
698.872	2071.18
699.061	2005.64
699.25	2003.6
699.438	1956.49
699.627	2026.12
699.816	2042.51
700.005	1921.68
700.193	1979.02
700.382	1944.2
700.571	1923.73
700.76	1948.3
700.948	1987.21
701.137	2050.7
701.326	1972.88
701.514	1960.59
701.703	1923.73
701.892	2007.69
702.08	1995.4
702.269	1956.49
702.457	1958.54
702.646	1936.01
702.834	1993.36
703.023	1886.86
703.212	1880.72
703.4	1866.38
703.589	1970.83
703.777	1895.05
703.965	1788.56
704.154	1880.72
704.342	1821.33
704.531	1852.05
704.719	1923.73
704.907	1909.39
705.096	1886.86
705.284	1913.49
705.472	1931.92
705.661	1852.05
705.849	1895.05
706.037	1684.11
706.226	1884.81
706.414	1815.18
706.602	1811.09
706.79	1825.42
706.979	1858.19
707.167	1776.27
707.355	1776.27
707.543	1763.98
707.731	1874.57
707.919	1948.3
708.107	1768.08
708.296	1708.69
708.484	1741.46
708.672	1907.34
708.86	1690.26
709.048	1677.97
709.236	1827.47
709.424	1788.56
709.612	1776.27
709.8	1751.7
709.988	1786.51
710.176	1825.42
710.364	1827.47
710.551	1850
710.739	1766.03
710.927	1696.4
711.115	1739.41
711.303	1739.41
711.491	1770.13
711.679	1585.81
711.866	1720.98
712.054	1645.2
712.242	1735.31
712.43	1772.18
712.617	1702.54
712.805	1686.16
712.993	1813.13
713.181	1790.61
713.368	1700.5
713.556	1686.16
713.744	1632.91
713.931	1608.34
714.119	1669.78
714.306	1626.77
714.494	1591.95
714.682	1680.02
714.869	1538.71
715.057	1624.72
715.244	1462.93
715.432	1675.92
715.619	1585.81
715.807	1581.71
715.994	1630.87
716.182	1524.37
716.369	1577.62
716.556	1544.85
716.744	1637.01
716.931	1600.15
717.119	1610.39
717.306	1532.56
717.493	1645.2
717.681	1634.96
717.868	1649.3
718.055	1606.29
718.242	1569.43
718.43	1675.92
718.617	1585.81
718.804	1475.22
718.991	1510.04
719.179	1626.77
719.366	1501.84
719.553	1495.7
719.74	1567.38
719.927	1565.33
720.114	1450.64
720.301	1557.14
720.488	1497.75
720.676	1458.84
720.863	1634.96
721.05	1522.32
721.237	1442.45
721.424	1491.6
721.611	1428.12
721.798	1510.04
721.985	1456.79
722.172	1497.75
722.358	1526.42
722.545	1454.74
722.732	1512.08
722.919	1464.98
723.106	1419.92
723.293	1485.46
723.48	1528.47
723.667	1510.04
723.853	1446.55
724.04	1456.79
724.227	1460.88
724.414	1522.32
724.6	1374.87
724.787	1409.69
724.974	1520.28
725.161	1444.5
725.347	1411.73
725.534	1491.6
725.72	1454.74
725.907	1477.27
726.094	1436.31
726.28	1395.35
726.467	1446.55
726.653	1438.36
726.84	1403.54
727.027	1462.93
727.213	1342.1
727.4	1448.6
727.586	1317.53
727.773	1352.34
727.959	1331.86
728.145	1407.64
728.332	1411.73
728.518	1344.15
728.705	1434.26
728.891	1327.77
729.077	1475.22
729.264	1391.25
729.45	1360.53
729.636	1364.63
729.823	1372.82
730.009	1313.43
730.195	1319.57
730.382	1329.81
730.568	1399.45
730.754	1358.49
730.94	1299.09
731.126	1301.14
731.313	1372.82
731.499	1305.24
731.685	1395.35
731.871	1462.93
732.057	1432.21
732.243	1258.14
732.429	1364.63
732.615	1350.29
732.801	1405.59
732.987	1319.57
733.173	1272.47
733.359	1215.13
733.545	1364.63
733.731	1249.94
733.917	1387.16
734.103	1368.73
734.289	1374.87
734.475	1354.39
734.661	1342.1
734.847	1309.33
735.033	1327.77
735.219	1276.57
735.404	1319.57
735.59	1366.68
735.776	1264.28
735.962	1303.19
736.148	1272.47
736.333	1342.1
736.519	1266.33
736.705	1272.47
736.89	1231.51
737.076	1260.18
737.262	1208.98
737.447	1241.75
737.633	1256.09
737.819	1235.61
738.004	1254.04
738.19	1241.75
738.375	1264.28
738.561	1270.42
738.747	1223.32
738.932	1309.33
739.118	1356.44
739.303	1231.51
739.489	1292.95
739.674	1202.84
739.859	1178.26
740.045	1325.72
740.23	1276.57
740.416	1247.9
740.601	1276.57
740.786	1178.26
740.972	1198.74
741.157	1141.4
741.342	1176.22
741.528	1206.94
741.713	1174.17
741.898	1139.35
742.084	1223.32
742.269	1157.78
742.454	1237.66
742.639	1165.98
742.824	1184.41
743.01	1088.15
743.195	1215.13
743.38	1200.79
743.565	1125.02
743.75	1200.79
743.935	1137.31
744.12	1100.44
744.305	1190.55
744.49	1266.33
744.675	1211.03
744.86	1125.02
745.045	1184.41
745.23	1120.92
745.415	1055.39
745.6	1206.94
745.785	1110.68
745.97	1165.98
746.155	1079.96
746.34	1127.07
746.525	1104.54
746.71	1100.44
746.895	1118.87
747.079	1096.35
747.264	1116.83
747.449	1022.62
747.634	1026.71
747.819	1063.58
748.003	1045.15
748.188	991.9
748.373	963.23
748.557	1006.24
748.742	963.23
748.927	1008.28
749.111	940.7
749.296	1086.11
749.481	932.51
749.665	973.47
749.85	965.28
750.034	938.65
750.219	1026.71
750.404	912.03
750.588	903.84
750.773	932.51
750.957	977.56
751.141	977.56
751.326	952.99
751.51	854.69
751.695	1000.09
751.879	864.93
752.064	957.08
752.248	821.92
752.432	881.31
752.617	936.6
752.801	887.45
752.985	940.7
753.17	871.07
753.354	879.26
753.538	883.36
753.722	834.21
753.907	815.77
754.091	780.96
754.275	873.12
754.459	803.49
754.643	801.44
754.828	891.55
755.012	832.16
755.196	735.9
755.38	830.11
755.564	778.91
755.748	846.49
755.932	803.49
756.116	828.06
756.3	733.86
756.484	748.19
756.668	770.72
756.852	731.81
757.036	744.1
757.22	799.39
757.404	746.14
757.588	723.62
757.772	838.3
757.956	692.9
758.14	690.85
758.323	821.92
758.507	760.48
758.691	805.53
758.875	772.77
759.059	670.37
759.242	592.55
759.426	688.8
759.61	725.66
759.794	672.42
759.977	653.98
760.161	709.28
760.345	625.31
760.528	684.7
760.712	715.42
760.895	717.47
761.079	674.46
761.263	717.47
761.446	678.56
761.63	709.28
761.813	723.62
761.997	633.5
762.18	723.62
762.364	668.32
762.547	627.36
762.731	619.17
762.914	641.7
763.098	602.79
763.281	625.31
763.464	690.85
763.648	674.46
763.831	617.12
764.015	623.27
764.198	600.74
764.381	494.24
764.564	668.32
764.748	643.74
764.931	635.55
765.114	670.37
765.297	625.31
765.481	635.55
765.664	551.59
765.847	656.03
766.03	617.12
766.213	582.31
766.397	621.22
766.58	606.88
766.763	649.89
766.946	592.55
767.129	621.22
767.312	561.83
767.495	520.87
767.678	533.15
767.861	574.11
768.044	492.2
768.227	596.64
768.41	570.02
768.593	602.79
768.776	559.78
768.959	590.5
769.142	602.79
769.324	490.15
769.507	510.63
769.69	598.69
769.873	496.29
770.056	541.35
770.239	543.39
770.421	559.78
770.604	551.59
770.787	578.21
770.97	430.76
771.152	481.96
771.335	592.55
771.518	426.66
771.7	494.24
771.883	486.05
772.066	572.07
772.248	576.16
772.431	506.53
772.613	529.06
772.796	465.57
772.978	537.25
773.161	529.06
773.343	467.62
773.526	502.43
773.708	477.86
773.891	477.86
774.073	459.43
774.256	463.52
774.438	488.1
774.621	467.62
774.803	492.2
774.985	432.8
775.168	469.67
775.35	432.8
775.532	422.56
775.715	477.86
775.897	441
776.079	455.33
776.261	397.99
776.444	412.32
776.626	445.09
776.808	379.56
776.99	457.38
777.173	412.32
777.355	445.09
777.537	455.33
777.719	367.27
777.901	379.56
778.083	408.23
778.265	338.6
778.447	397.99
778.629	408.23
778.811	377.51
778.993	357.03
779.175	434.85
779.357	447.14
779.539	385.7
779.721	443.04
779.903	430.76
780.085	408.23
780.267	357.03
780.449	287.4
780.631	393.89
780.812	354.98
780.994	369.32
781.176	336.55
781.358	348.84
781.54	346.79
781.721	338.6
781.903	285.35
782.085	373.41
782.267	357.03
782.448	334.5
782.63	354.98
782.812	350.89
782.993	348.84
783.175	266.92
783.357	268.97
783.538	336.55
783.72	330.41
783.901	275.11
784.083	359.08
784.264	420.52
784.446	375.46
784.627	268.97
784.809	316.07
784.99	363.17
785.172	240.29
785.353	348.84
785.535	309.93
785.716	322.21
785.897	293.54
786.079	244.39
786.26	254.63
786.441	305.83
786.623	295.59
786.804	252.58
786.985	299.69
787.167	311.97
787.348	215.72
787.529	246.44
787.71	258.73
787.891	322.21
788.073	232.1
788.254	338.6
788.435	242.34
788.616	240.29
788.797	289.45
788.978	283.3
789.159	258.73
789.34	178.86
789.522	281.25
789.703	244.39
789.884	297.64
790.065	215.72
790.246	305.83
790.427	230.06
790.607	215.72
790.788	273.06
790.969	244.39
791.15	228.01
791.331	144.04
791.512	234.15
791.693	252.58
791.874	248.49
792.054	209.58
792.235	287.4
792.416	199.34
792.597	223.91
792.778	174.76
792.958	187.05
793.139	219.82
793.32	185
793.5	211.62
793.681	219.82
793.862	219.82
794.042	203.43
794.223	158.38
794.404	277.16
794.584	201.38
794.765	156.33
794.945	117.42
795.126	209.58
795.306	189.1
795.487	119.46
795.667	150.18
795.848	223.91
796.028	176.81
796.209	199.34
796.389	207.53
796.57	150.18
796.75	232.1
796.93	215.72
797.111	248.49
797.291	156.33
797.471	191.14
797.652	287.4
797.832	185
798.012	156.33
798.192	191.14
798.373	178.86
798.553	162.47
798.733	262.82
798.913	178.86
799.093	201.38
799.274	60.07
799.454	144.04
799.634	144.04
799.814	217.77
799.994	162.47
800.174	144.04
800.354	98.99
800.534	152.23
800.714	158.38
800.894	207.53
801.074	197.29
801.254	156.33
801.434	203.43
801.614	211.62
801.794	150.18
801.974	361.13
802.154	152.23
802.334	170.66
802.514	146.09
802.693	166.57
802.873	148.14
803.053	185
803.233	123.56
803.413	156.33
803.592	166.57
803.772	131.75
803.952	101.03
804.131	160.42
804.311	162.47
804.491	201.38
804.67	86.7
804.85	146.09
805.03	185
805.209	137.9
805.389	70.31
805.568	127.66
805.748	109.22
805.928	176.81
806.107	115.37
806.287	150.18
806.466	70.31
806.646	144.04
806.825	154.28
807.004	180.9
807.184	84.65
807.363	119.46
807.543	101.03
807.722	68.27
807.901	139.94
808.081	113.32
808.26	146.09
808.439	144.04
808.619	96.94
808.798	70.31
808.977	144.04
809.156	172.71
809.336	119.46
809.515	158.38
809.694	148.14
809.873	109.22
810.052	107.18
810.231	170.66
810.411	53.93
810.59	213.67
810.769	172.71
810.948	141.99
811.127	109.22
811.306	58.03
811.485	160.42
811.664	148.14
811.843	146.09
812.022	113.32
812.201	70.31
812.38	129.7
812.559	113.32
812.737	131.75
812.916	78.51
813.095	62.12
813.274	105.13
813.453	60.07
813.632	86.7
813.811	78.51
813.989	60.07
814.168	121.51
814.347	103.08
814.526	66.22
814.704	101.03
814.883	90.79
815.062	88.75
815.24	25.26
815.419	49.83
815.598	170.66
815.776	88.75
815.955	68.27
816.133	121.51
816.312	49.83
816.49	47.79
816.669	160.42
816.847	39.59
817.026	101.03
817.204	86.7
817.383	191.14
817.561	29.35
817.74	139.94
817.918	68.27
818.097	90.79
818.275	92.84
818.453	131.75
818.632	96.94
818.81	137.9
818.988	51.88
819.167	162.47
819.345	172.71
819.523	92.84
819.701	37.55
819.879	58.03
820.058	68.27
820.236	-19.8
820.414	94.89
820.592	101.03
820.77	12.97
820.948	84.65
821.127	92.84
821.305	141.99
821.483	129.7
821.661	98.99
821.839	94.89
822.017	37.55
822.195	84.65
822.373	98.99
822.551	105.13
822.729	125.61
822.907	117.42
823.085	64.17
823.262	101.03
823.44	55.98
823.618	12.97
823.796	55.98
823.974	68.27
824.152	43.69
824.329	62.12
824.507	86.7
824.685	66.22
824.863	53.93
825.04	4.78
825.218	111.27
825.396	37.55
825.574	162.47
825.751	39.59
825.929	45.74
826.107	33.45
826.284	62.12
826.462	51.88
826.639	62.12
826.817	98.99
826.994	64.17
827.172	12.97
827.349	80.55
827.527	78.51
827.704	76.46
827.882	84.65
828.059	164.52
828.237	115.37
828.414	80.55
828.591	103.08
828.769	86.7
828.946	49.83
829.124	41.64
829.301	156.33
829.478	62.12
829.655	51.88
829.833	60.07
830.01	119.46
830.187	78.51
830.364	74.41
830.542	60.07
830.719	64.17
830.896	68.27
831.073	-5.46
831.25	101.03
831.427	53.93
831.604	135.85
831.782	84.65
831.959	19.11
832.136	37.55
832.313	45.74
832.49	117.42
832.667	88.75
832.844	84.65
833.021	31.4
833.198	-19.8
833.374	8.87
833.551	72.36
833.728	64.17
833.905	-5.46
834.082	2.73
834.259	60.07
834.436	58.03
834.612	10.92
834.789	70.31
834.966	72.36
835.143	41.64
835.319	-5.46
835.496	111.27
835.673	-32.08
835.85	123.56
836.026	129.7
836.203	76.46
836.38	27.31
836.556	88.75
836.733	29.35
836.909	144.04
837.086	-3.41
837.262	15.02
837.439	55.98
837.616	72.36
837.792	101.03
837.968	115.37
838.145	21.16
838.321	58.03
838.498	80.55
838.674	27.31
838.851	39.59
839.027	88.75
839.203	68.27
839.38	39.59
839.556	68.27
839.732	60.07
839.909	72.36
840.085	70.31
840.261	19.11
840.437	39.59
840.614	21.16
840.79	27.31
840.966	55.98
841.142	45.74
841.318	51.88
841.494	74.41
841.671	19.11
841.847	-7.51
842.023	29.35
842.199	72.36
842.375	19.11
842.551	31.4
842.727	45.74
842.903	4.78
843.079	35.5
843.255	21.16
843.431	47.79
843.607	27.31
843.783	-42.32
843.959	41.64
844.134	12.97
844.31	107.18
844.486	-21.85
844.662	51.88
844.838	78.51
845.013	45.74
845.189	76.46
845.365	66.22
845.541	-1.37
845.716	53.93
845.892	39.59
846.068	43.69
846.244	8.87
846.419	2.73
846.595	27.31
846.77	27.31
846.946	53.93
847.122	72.36
847.297	-17.75
847.473	49.83
847.648	-1.37
847.824	51.88
847.999	-13.65
848.175	62.12
848.35	84.65
848.526	-15.7
848.701	-40.28
848.876	-48.47
849.052	39.59
849.227	-1.37
849.403	33.45
849.578	19.11
849.753	12.97
849.929	39.59
850.104	51.88
850.279	94.89
850.454	43.69
850.63	70.31
850.805	-5.46
850.98	58.03
851.155	6.83
851.33	35.5
851.505	78.51
851.681	45.74
851.856	27.31
852.031	111.27
852.206	64.17
852.381	82.6
852.556	10.92
852.731	-17.75
852.906	-3.41
853.081	43.69
853.256	74.41
853.431	-13.65
853.606	51.88
853.781	17.07
853.956	37.55
854.131	76.46
854.305	15.02
854.48	39.59
854.655	39.59
854.83	-32.08
855.005	51.88
855.18	29.35
855.354	0.68
855.529	21.16
855.704	60.07
855.879	-1.37
856.053	53.93
856.228	-15.7
856.403	41.64
856.577	45.74
856.752	-5.46
856.926	8.87
857.101	31.4
857.276	37.55
857.45	10.92
857.625	39.59
857.799	10.92
857.974	-1.37
858.148	2.73
858.323	35.5
858.497	133.8
858.672	72.36
858.846	21.16
859.02	35.5
859.195	60.07
859.369	72.36
859.543	98.99
859.718	-23.89
859.892	-11.61
860.066	27.31
860.241	33.45
860.415	78.51
860.589	-21.85
860.763	-25.94
860.938	-42.32
861.112	41.64
861.286	0.68
861.46	37.55
861.634	27.31
861.808	25.26
861.982	10.92
862.157	-19.8
862.331	55.98
862.505	-13.65
862.679	21.16
862.853	12.97
863.027	-17.75
863.201	64.17
863.375	58.03
863.549	49.83
863.722	58.03
863.896	-25.94
864.07	-11.61
864.244	-1.37
864.418	55.98
864.592	84.65
864.766	66.22
864.939	68.27
865.113	21.16
865.287	64.17
865.461	-7.51
865.634	47.79
865.808	45.74
865.982	51.88
866.156	109.22
866.329	45.74
866.503	23.21
866.676	47.79
866.85	45.74
867.024	19.11
867.197	76.46
867.371	53.93
867.544	-21.85
867.718	8.87
867.891	107.18
868.065	55.98
868.238	43.69
868.412	-34.13
868.585	-27.99
868.759	135.85
868.932	12.97
869.105	4.78
869.279	33.45
869.452	-23.89
869.625	27.31
869.799	29.35
869.972	53.93
870.145	68.27
870.319	-101.72
870.492	43.69
870.665	45.74
870.838	12.97
871.011	-17.75
871.185	21.16
871.358	15.02
871.531	-27.99
871.704	-30.04
871.877	2.73
872.05	12.97
872.223	-3.41
872.396	19.11
872.569	19.11
872.742	-21.85
872.915	43.69
873.088	25.26
873.261	10.92
873.434	76.46
873.607	17.07
873.78	49.83
873.953	37.55
874.126	37.55
874.299	60.07
874.471	25.26
874.644	23.21
874.817	-15.7
874.99	107.18
875.163	-11.61
875.335	25.26
875.508	35.5
875.681	39.59
875.853	23.21
876.026	-1.37
876.199	25.26
876.371	6.83
876.544	43.69
876.717	58.03
876.889	-30.04
877.062	4.78
877.234	-21.85
877.407	47.79
877.579	10.92
877.752	55.98
877.924	2.73
878.097	49.83
878.269	53.93
878.442	8.87
878.614	21.16
878.786	45.74
878.959	0.68
879.131	17.07
879.303	23.21
879.476	-7.51
879.648	25.26
879.82	60.07
879.993	-11.61
880.165	60.07
880.337	2.73
880.509	47.79
880.681	-23.89
880.854	31.4
881.026	-5.46
881.198	43.69
881.37	35.5
881.542	88.75
881.714	58.03
881.886	-21.85
882.058	4.78
882.23	60.07
882.402	-38.23
882.574	103.08
882.746	-11.61
882.918	-7.51
883.09	2.73
883.262	39.59
883.434	64.17
883.606	6.83
883.778	41.64
883.95	33.45
884.122	-9.56
884.293	39.59
884.465	6.83
884.637	68.27
884.809	10.92
884.98	21.16
885.152	74.41
885.324	115.37
885.496	51.88
885.667	23.21
885.839	-30.04
886.011	35.5
886.182	-36.18
886.354	-13.65
886.525	4.78
886.697	58.03
886.869	23.21
887.04	-23.89
887.212	84.65
887.383	39.59
887.555	8.87
887.726	60.07
887.897	-23.89
888.069	2.73
888.24	72.36
888.412	43.69
888.583	64.17
888.754	-42.32
888.926	37.55
889.097	-32.08
889.268	-3.41
889.44	31.4
889.611	-91.48
889.782	0.68
889.953	-21.85
890.125	33.45
890.296	0.68
890.467	39.59
890.638	74.41
890.809	45.74
890.98	29.35
891.151	19.11
891.323	35.5
891.494	37.55
891.665	53.93
891.836	-5.46
892.007	25.26
892.178	-42.32
892.349	12.97
892.52	45.74
892.691	41.64
892.862	17.07
893.032	49.83
893.203	53.93
893.374	2.73
893.545	-27.99
893.716	35.5
893.887	84.65
894.057	10.92
894.228	-21.85
894.399	-42.32
894.57	31.4
894.74	27.31
894.911	43.69
895.082	-11.61
895.253	15.02
895.423	39.59
895.594	35.5
895.764	35.5
895.935	-42.32
896.106	-27.99
896.276	19.11
896.447	41.64
896.617	17.07
896.788	37.55
896.958	-46.42
897.129	4.78
897.299	-1.37
897.47	39.59
897.64	29.35
897.81	0.68
897.981	-1.37
898.151	-23.89
898.322	96.94
898.492	-19.8
898.662	35.5
898.832	64.17
899.003	-32.08
899.173	70.31
899.343	15.02
899.513	2.73
