Data from USB4F104151__27__12-58-45-628.txt Node

Date: Fri Mar 14 12:58:45 EDT 2025
User: louis
Spectrometer: USB4F10415
Trigger mode: 4
Integration Time (sec): 1.000000E-2
Scans to average: 1
Electric dark correction enabled: true
Nonlinearity correction enabled: false
Boxcar width: 0
XAxis mode: Wavelengths
Number of Pixels in Spectrum: 3648
>>>>>Begin Spectral Data<<<<<
178.204	-75.95
178.424	-75.95
178.644	-75.95
178.864	-14.51
179.084	-49.32
179.304	-34.99
179.524	65.36
179.744	-0.17
179.964	-43.18
180.184	-12.46
180.404	-4.27
180.624	14.17
180.844	-32.94
181.064	30.55
181.283	-4.27
181.503	-16.55
181.723	38.74
181.943	30.55
182.163	36.69
182.383	-28.84
182.602	22.36
182.822	53.08
183.042	8.02
183.262	-24.75
183.482	-0.17
183.701	3.93
183.921	-18.6
184.141	12.12
184.361	-26.79
184.58	10.07
184.8	106.32
185.02	-59.56
185.239	53.08
185.459	61.27
185.679	34.64
185.898	16.21
186.118	57.17
186.338	53.08
186.557	5.97
186.777	77.65
186.997	-28.84
187.216	83.8
187.436	53.08
187.655	34.64
187.875	61.27
188.095	1.88
188.314	61.27
188.534	53.08
188.753	-20.65
188.973	-18.6
189.192	57.17
189.412	-47.27
189.631	-16.55
189.851	1.88
190.07	34.64
190.29	79.7
190.509	-4.27
190.729	-10.41
190.948	94.04
191.168	53.08
191.387	34.64
191.607	32.6
191.826	30.55
192.045	-28.84
192.265	73.56
192.484	5.97
192.704	75.6
192.923	-32.94
193.142	24.4
193.362	81.75
193.581	79.7
193.8	-18.6
194.02	20.31
194.239	28.5
194.458	18.26
194.678	8.02
194.897	-16.55
195.116	14.17
195.335	-26.79
195.555	5.97
195.774	20.31
195.993	55.12
196.212	30.55
196.432	22.36
196.651	12.12
196.87	10.07
197.089	24.4
197.308	79.7
197.528	34.64
197.747	24.4
197.966	1.88
198.185	38.74
198.404	67.41
198.623	34.64
198.842	73.56
199.062	34.64
199.281	-86.19
199.5	-37.03
199.719	-37.03
199.938	-30.89
200.157	38.74
200.376	-2.22
200.595	20.31
200.814	-84.14
201.033	-30.89
201.252	48.98
201.471	69.46
201.69	63.32
201.909	104.28
202.128	30.55
202.347	42.84
202.566	42.84
202.785	36.69
203.004	16.21
203.223	81.75
203.442	48.98
203.661	28.5
203.879	-59.56
204.098	-12.46
204.317	-22.7
204.536	96.08
204.755	8.02
204.974	38.74
205.193	-16.55
205.411	53.08
205.63	-10.41
205.849	53.08
206.068	28.5
206.287	73.56
206.505	5.97
206.724	-39.08
206.943	-16.55
207.162	53.08
207.381	69.46
207.599	-24.75
207.818	38.74
208.037	-8.36
208.255	48.98
208.474	-22.7
208.693	-24.75
208.911	-2.22
209.13	14.17
209.349	12.12
209.567	8.02
209.786	63.32
210.005	34.64
210.223	10.07
210.442	28.5
210.661	44.88
210.879	30.55
211.098	73.56
211.316	12.12
211.535	-6.31
211.753	-22.7
211.972	40.79
212.191	32.6
212.409	28.5
212.628	32.6
212.846	36.69
213.065	-39.08
213.283	-10.41
213.502	14.17
213.72	30.55
213.938	32.6
214.157	-4.27
214.375	53.08
214.594	-30.89
214.812	-4.27
215.031	-28.84
215.249	34.64
215.467	61.27
215.686	40.79
215.904	51.03
216.122	-6.31
216.341	32.6
216.559	83.8
216.778	22.36
216.996	36.69
217.214	-14.51
217.432	-2.22
217.651	36.69
217.869	40.79
218.087	87.89
218.306	-45.23
218.524	30.55
218.742	30.55
218.96	42.84
219.179	-57.51
219.397	12.12
219.615	-26.79
219.833	-39.08
220.051	71.51
220.27	-26.79
220.488	155.47
220.706	-6.31
220.924	-12.46
221.142	3.93
221.36	-20.65
221.578	-18.6
221.796	36.69
222.015	12.12
222.233	61.27
222.451	-6.31
222.669	-45.23
222.887	-8.36
223.105	-26.79
223.323	61.27
223.541	34.64
223.759	110.42
223.977	-8.36
224.195	-2.22
224.413	44.88
224.631	-26.79
224.849	-0.17
225.067	24.4
225.285	40.79
225.503	28.5
225.721	34.64
225.939	91.99
226.157	-8.36
226.375	67.41
226.592	-75.95
226.81	5.97
227.028	44.88
227.246	10.07
227.464	120.66
227.682	34.64
227.9	-43.18
228.117	48.98
228.335	-8.36
228.553	69.46
228.771	38.74
228.989	14.17
229.206	61.27
229.424	5.97
229.642	34.64
229.86	34.64
230.077	-0.17
230.295	-37.03
230.513	67.41
230.731	28.5
230.948	48.98
231.166	-12.46
231.384	36.69
231.601	20.31
231.819	40.79
232.037	53.08
232.254	-4.27
232.472	65.36
232.689	-18.6
232.907	40.79
233.125	10.07
233.342	73.56
233.56	-47.27
233.777	-30.89
233.995	55.12
234.213	112.47
234.43	-24.75
234.648	48.98
234.865	-34.99
235.083	34.64
235.3	46.93
235.518	57.17
235.735	28.5
235.953	55.12
236.17	16.21
236.388	12.12
236.605	24.4
236.822	57.17
237.04	69.46
237.257	-4.27
237.475	14.17
237.692	-4.27
237.909	-6.31
238.127	-8.36
238.344	16.21
238.562	-26.79
238.779	3.93
238.996	16.21
239.214	-8.36
239.431	18.26
239.648	-24.75
239.865	-10.41
240.083	8.02
240.3	67.41
240.517	24.4
240.735	1.88
240.952	85.84
241.169	44.88
241.386	-55.47
241.603	22.36
241.821	-10.41
242.038	69.46
242.255	5.97
242.472	22.36
242.689	12.12
242.907	79.7
243.124	106.32
243.341	-4.27
243.558	28.5
243.775	44.88
243.992	38.74
244.209	16.21
244.426	55.12
244.643	57.17
244.86	-39.08
245.078	-10.41
245.295	57.17
245.512	28.5
245.729	-18.6
245.946	22.36
246.163	40.79
246.38	-4.27
246.597	-2.22
246.814	55.12
247.031	-18.6
247.248	36.69
247.464	-2.22
247.681	-4.27
247.898	46.93
248.115	63.32
248.332	30.55
248.549	42.84
248.766	61.27
248.983	75.6
249.2	42.84
249.417	-18.6
249.633	-0.17
249.85	-59.56
250.067	-45.23
250.284	63.32
250.501	30.55
250.717	-49.32
250.934	-71.85
251.151	16.21
251.368	-10.41
251.585	42.84
251.801	-24.75
252.018	-61.61
252.235	28.5
252.451	-8.36
252.668	28.5
252.885	22.36
253.102	32.6
253.318	-22.7
253.535	28.5
253.752	3.93
253.968	32.6
254.185	28.5
254.401	22.36
254.618	40.79
254.835	-28.84
255.051	-20.65
255.268	-32.94
255.484	44.88
255.701	-10.41
255.917	22.36
256.134	26.45
256.351	18.26
256.567	61.27
256.784	22.36
257	-94.38
257.217	48.98
257.433	18.26
257.65	10.07
257.866	20.31
258.082	22.36
258.299	32.6
258.515	57.17
258.732	26.45
258.948	36.69
259.165	-37.03
259.381	55.12
259.597	-26.79
259.814	67.41
260.03	-28.84
260.246	48.98
260.463	30.55
260.679	24.4
260.895	12.12
261.112	57.17
261.328	16.21
261.544	61.27
261.761	-0.17
261.977	10.07
262.193	3.93
262.409	42.84
262.626	24.4
262.842	36.69
263.058	-2.22
263.274	42.84
263.49	38.74
263.707	28.5
263.923	-47.27
264.139	128.85
264.355	-12.46
264.571	38.74
264.787	-12.46
265.004	20.31
265.22	14.17
265.436	87.89
265.652	73.56
265.868	8.02
266.084	-61.61
266.3	61.27
266.516	-43.18
266.732	16.21
266.948	57.17
267.164	79.7
267.38	-41.13
267.596	-26.79
267.812	-20.65
268.028	42.84
268.244	12.12
268.46	79.7
268.676	1.88
268.892	3.93
269.108	38.74
269.324	81.75
269.54	24.4
269.756	67.41
269.972	38.74
270.188	63.32
270.403	36.69
270.619	18.26
270.835	-28.84
271.051	16.21
271.267	-20.65
271.483	26.45
271.698	38.74
271.914	-67.75
272.13	32.6
272.346	16.21
272.562	32.6
272.777	32.6
272.993	-24.75
273.209	55.12
273.425	40.79
273.64	63.32
273.856	-39.08
274.072	-18.6
274.287	44.88
274.503	53.08
274.719	-34.99
274.934	-26.79
275.15	-69.8
275.366	-6.31
275.581	16.21
275.797	61.27
276.012	34.64
276.228	61.27
276.444	22.36
276.659	32.6
276.875	-43.18
277.09	77.65
277.306	36.69
277.521	36.69
277.737	-4.27
277.952	20.31
278.168	53.08
278.383	53.08
278.599	3.93
278.814	-28.84
279.03	-43.18
279.245	28.5
279.461	34.64
279.676	38.74
279.892	28.5
280.107	-22.7
280.322	10.07
280.538	-10.41
280.753	1.88
280.969	-8.36
281.184	67.41
281.399	18.26
281.615	26.45
281.83	-20.65
282.045	16.21
282.26	12.12
282.476	77.65
282.691	36.69
282.906	55.12
283.122	8.02
283.337	-4.27
283.552	61.27
283.767	83.8
283.983	-6.31
284.198	-6.31
284.413	61.27
284.628	-55.47
284.843	3.93
285.058	48.98
285.274	-10.41
285.489	5.97
285.704	63.32
285.919	14.17
286.134	-37.03
286.349	53.08
286.564	24.4
286.779	34.64
286.995	79.7
287.21	-14.51
287.425	-6.31
287.64	53.08
287.855	59.22
288.07	28.5
288.285	-0.17
288.5	-32.94
288.715	63.32
288.93	-32.94
289.145	42.84
289.36	24.4
289.575	18.26
289.79	44.88
290.004	-0.17
290.219	32.6
290.434	38.74
290.649	46.93
290.864	12.12
291.079	-26.79
291.294	14.17
291.509	34.64
291.724	34.64
291.938	53.08
292.153	48.98
292.368	73.56
292.583	69.46
292.798	-16.55
293.012	-28.84
293.227	-0.17
293.442	67.41
293.657	-30.89
293.871	-47.27
294.086	53.08
294.301	12.12
294.516	-20.65
294.73	-8.36
294.945	51.03
295.16	12.12
295.374	34.64
295.589	40.79
295.804	-57.51
296.018	20.31
296.233	30.55
296.447	8.02
296.662	18.26
296.877	-8.36
297.091	-2.22
297.306	26.45
297.52	12.12
297.735	112.47
297.949	77.65
298.164	53.08
298.378	-10.41
298.593	85.84
298.807	-65.71
299.022	24.4
299.236	44.88
299.451	36.69
299.665	38.74
299.88	126.8
300.094	-65.71
300.309	-37.03
300.523	48.98
300.737	12.12
300.952	44.88
301.166	3.93
301.381	-2.22
301.595	46.93
301.809	-53.42
302.024	22.36
302.238	-4.27
302.452	36.69
302.667	-30.89
302.881	-8.36
303.095	-8.36
303.309	20.31
303.524	65.36
303.738	-65.71
303.952	24.4
304.166	40.79
304.381	32.6
304.595	128.85
304.809	-4.27
305.023	24.4
305.237	61.27
305.452	16.21
305.666	53.08
305.88	20.31
306.094	36.69
306.308	55.12
306.522	10.07
306.736	-32.94
306.95	12.12
307.164	65.36
307.379	-18.6
307.593	69.46
307.807	38.74
308.021	100.18
308.235	38.74
308.449	-53.42
308.663	-39.08
308.877	18.26
309.091	16.21
309.305	100.18
309.519	12.12
309.733	20.31
309.947	-14.51
310.161	59.22
310.374	36.69
310.588	42.84
310.802	16.21
311.016	3.93
311.23	94.04
311.444	18.26
311.658	10.07
311.872	32.6
312.085	32.6
312.299	-18.6
312.513	96.08
312.727	-43.18
312.941	36.69
313.154	28.5
313.368	51.03
313.582	-80.04
313.796	5.97
314.009	63.32
314.223	104.28
314.437	-28.84
314.651	-4.27
314.864	81.75
315.078	44.88
315.292	69.46
315.505	79.7
315.719	55.12
315.933	87.89
316.146	48.98
316.36	12.12
316.573	69.46
316.787	20.31
317.001	71.51
317.214	36.69
317.428	79.7
317.641	-6.31
317.855	-18.6
318.068	26.45
318.282	22.36
318.495	38.74
318.709	-24.75
318.922	20.31
319.136	53.08
319.349	28.5
319.563	-26.79
319.776	-37.03
319.99	-30.89
320.203	14.17
320.417	38.74
320.63	42.84
320.843	36.69
321.057	36.69
321.27	79.7
321.483	-18.6
321.697	63.32
321.91	44.88
322.124	26.45
322.337	77.65
322.55	8.02
322.763	24.4
322.977	18.26
323.19	57.17
323.403	28.5
323.617	48.98
323.83	22.36
324.043	20.31
324.256	-16.55
324.469	67.41
324.683	55.12
324.896	-0.17
325.109	26.45
325.322	53.08
325.535	63.32
325.748	57.17
325.962	14.17
326.175	61.27
326.388	89.94
326.601	51.03
326.814	-2.22
327.027	46.93
327.24	16.21
327.453	-41.13
327.666	-0.17
327.879	61.27
328.092	-2.22
328.305	18.26
328.518	34.64
328.731	-28.84
328.944	40.79
329.157	32.6
329.37	32.6
329.583	-2.22
329.796	32.6
330.009	30.55
330.222	55.12
330.435	-2.22
330.648	-20.65
330.861	26.45
331.073	96.08
331.286	96.08
331.499	14.17
331.712	83.8
331.925	44.88
332.138	-12.46
332.35	61.27
332.563	55.12
332.776	22.36
332.989	53.08
333.202	20.31
333.414	-12.46
333.627	36.69
333.84	59.22
334.053	91.99
334.265	-2.22
334.478	38.74
334.691	57.17
334.903	18.26
335.116	-22.7
335.329	46.93
335.541	38.74
335.754	53.08
335.966	73.56
336.179	53.08
336.392	-53.42
336.604	-30.89
336.817	-49.32
337.029	-14.51
337.242	-16.55
337.454	71.51
337.667	20.31
337.88	-4.27
338.092	69.46
338.305	36.69
338.517	36.69
338.729	16.21
338.942	-37.03
339.154	57.17
339.367	75.6
339.579	-32.94
339.792	-18.6
340.004	8.02
340.217	-20.65
340.429	83.8
340.641	5.97
340.854	12.12
341.066	71.51
341.278	73.56
341.491	22.36
341.703	16.21
341.915	38.74
342.128	63.32
342.34	14.17
342.552	38.74
342.764	48.98
342.977	53.08
343.189	40.79
343.401	-10.41
343.613	26.45
343.826	-2.22
344.038	46.93
344.25	44.88
344.462	-8.36
344.674	30.55
344.886	1.88
345.099	53.08
345.311	24.4
345.523	5.97
345.735	30.55
345.947	38.74
346.159	57.17
346.371	14.17
346.583	32.6
346.795	18.26
347.007	10.07
347.219	51.03
347.431	44.88
347.643	28.5
347.855	48.98
348.067	81.75
348.279	18.26
348.491	40.79
348.703	75.6
348.915	32.6
349.127	-43.18
349.339	28.5
349.551	40.79
349.763	-0.17
349.975	26.45
350.187	16.21
350.399	5.97
350.61	55.12
350.822	10.07
351.034	20.31
351.246	28.5
351.458	36.69
351.669	8.02
351.881	53.08
352.093	61.27
352.305	77.65
352.517	-4.27
352.728	65.36
352.94	40.79
353.152	1.88
353.363	59.22
353.575	-37.03
353.787	22.36
353.999	20.31
354.21	-8.36
354.422	28.5
354.633	48.98
354.845	28.5
355.057	1.88
355.268	48.98
355.48	8.02
355.692	40.79
355.903	-2.22
356.115	38.74
356.326	-61.61
356.538	55.12
356.749	46.93
356.961	24.4
357.172	38.74
357.384	42.84
357.595	46.93
357.807	40.79
358.018	75.6
358.23	5.97
358.441	75.6
358.653	61.27
358.864	67.41
359.075	22.36
359.287	18.26
359.498	40.79
359.709	46.93
359.921	-14.51
360.132	38.74
360.344	1.88
360.555	32.6
360.766	51.03
360.977	28.5
361.189	71.51
361.4	-14.51
361.611	38.74
361.823	77.65
362.034	-49.32
362.245	-30.89
362.456	-61.61
362.667	-10.41
362.879	-24.75
363.09	24.4
363.301	46.93
363.512	63.32
363.723	55.12
363.935	59.22
364.146	30.55
364.357	42.84
364.568	28.5
364.779	34.64
364.99	34.64
365.201	-2.22
365.412	32.6
365.623	-0.17
365.834	24.4
366.045	-30.89
366.256	-39.08
366.467	63.32
366.678	26.45
366.889	61.27
367.1	-20.65
367.311	83.8
367.522	-18.6
367.733	12.12
367.944	63.32
368.155	-0.17
368.366	32.6
368.577	135
368.788	12.12
368.999	-10.41
369.209	44.88
369.42	106.32
369.631	77.65
369.842	-0.17
370.053	-28.84
370.264	-34.99
370.474	108.37
370.685	-10.41
370.896	-16.55
371.107	75.6
371.317	59.22
371.528	69.46
371.739	3.93
371.95	16.21
372.16	65.36
372.371	10.07
372.582	-6.31
372.792	-71.85
373.003	67.41
373.214	44.88
373.424	38.74
373.635	8.02
373.846	63.32
374.056	46.93
374.267	44.88
374.477	12.12
374.688	73.56
374.898	14.17
375.109	69.46
375.319	75.6
375.53	-8.36
375.74	42.84
375.951	79.7
376.161	28.5
376.372	24.4
376.582	46.93
376.793	44.88
377.003	34.64
377.214	46.93
377.424	53.08
377.635	55.12
377.845	55.12
378.055	116.56
378.266	53.08
378.476	3.93
378.686	1.88
378.897	44.88
379.107	53.08
379.317	32.6
379.528	14.17
379.738	44.88
379.948	28.5
380.158	36.69
380.369	-39.08
380.579	87.89
380.789	-4.27
380.999	12.12
381.21	67.41
381.42	65.36
381.63	24.4
381.84	77.65
382.05	104.28
382.261	42.84
382.471	98.13
382.681	81.75
382.891	26.45
383.101	-16.55
383.311	22.36
383.521	48.98
383.731	63.32
383.941	34.64
384.151	5.97
384.361	55.12
384.571	94.04
384.781	3.93
384.991	83.8
385.201	30.55
385.411	34.64
385.621	83.8
385.831	42.84
386.041	-18.6
386.251	40.79
386.461	55.12
386.671	46.93
386.881	75.6
387.091	44.88
387.301	22.36
387.511	42.84
387.72	46.93
387.93	69.46
388.14	28.5
388.35	-12.46
388.56	104.28
388.769	-8.36
388.979	-18.6
389.189	32.6
389.399	46.93
389.609	26.45
389.818	91.99
390.028	36.69
390.238	77.65
390.447	30.55
390.657	38.74
390.867	53.08
391.076	30.55
391.286	-18.6
391.496	28.5
391.705	73.56
391.915	61.27
392.125	42.84
392.334	38.74
392.544	14.17
392.753	96.08
392.963	94.04
393.172	48.98
393.382	59.22
393.591	71.51
393.801	14.17
394.01	79.7
394.22	89.94
394.429	71.51
394.639	18.26
394.848	12.12
395.058	124.76
395.267	40.79
395.477	36.69
395.686	22.36
395.895	81.75
396.105	71.51
396.314	36.69
396.524	73.56
396.733	8.02
396.942	122.71
397.152	24.4
397.361	79.7
397.57	94.04
397.78	38.74
397.989	130.9
398.198	85.84
398.407	46.93
398.617	44.88
398.826	89.94
399.035	71.51
399.244	61.27
399.453	85.84
399.663	-20.65
399.872	61.27
400.081	65.36
400.29	61.27
400.499	8.02
400.708	85.84
400.917	65.36
401.127	-8.36
401.336	26.45
401.545	87.89
401.754	94.04
401.963	126.8
402.172	24.4
402.381	28.5
402.59	59.22
402.799	12.12
403.008	38.74
403.217	46.93
403.426	59.22
403.635	89.94
403.844	116.56
404.053	130.9
404.262	77.65
404.471	73.56
404.68	94.04
404.888	42.84
405.097	89.94
405.306	63.32
405.515	108.37
405.724	139.09
405.933	128.85
406.142	130.9
406.35	91.99
406.559	75.6
406.768	57.17
406.977	89.94
407.185	110.42
407.394	57.17
407.603	124.76
407.812	85.84
408.02	38.74
408.229	135
408.438	28.5
408.646	130.9
408.855	178
409.064	130.9
409.272	128.85
409.481	161.62
409.69	157.52
409.898	110.42
410.107	126.8
410.315	83.8
410.524	106.32
410.733	75.6
410.941	210.77
411.15	173.91
411.358	169.81
411.567	300.88
411.775	159.57
411.984	188.24
412.192	204.63
412.401	143.19
412.609	202.58
412.818	225.11
413.026	206.67
413.234	307.02
413.443	192.34
413.651	307.02
413.86	266.07
414.068	282.45
414.276	276.31
414.485	237.39
414.693	339.79
414.901	343.89
415.11	329.55
415.318	282.45
415.526	366.42
415.734	309.07
415.943	405.33
416.151	452.43
416.359	413.52
416.567	405.33
416.776	431.95
416.984	434
417.192	347.98
417.4	495.44
417.608	558.92
417.817	491.34
418.025	470.86
418.233	560.97
418.441	520.01
418.649	526.16
418.857	665.42
419.065	597.84
419.273	577.36
419.481	622.41
419.689	642.89
419.897	753.48
420.105	669.52
420.313	694.09
420.521	612.17
420.729	720.71
420.937	761.67
421.145	825.16
421.353	974.66
421.561	880.46
421.769	905.03
421.977	933.7
422.185	839.5
422.393	1011.53
422.601	1023.81
422.809	1013.57
423.017	978.76
423.224	1212.23
423.432	1156.93
423.64	1077.06
423.848	1222.47
424.056	1288
424.263	1259.33
424.471	1312.58
424.679	1302.34
424.887	1447.74
425.094	1353.54
425.302	1447.74
425.51	1548.09
425.718	1505.09
425.925	1658.68
426.133	1613.63
426.341	1705.79
426.548	1840.95
426.756	1873.72
426.964	1742.65
427.171	1843
427.379	2021.17
427.586	2086.71
427.794	2113.33
428.001	2219.83
428.209	2225.97
428.417	2240.31
428.624	2354.99
428.832	2348.85
429.039	2404.14
429.247	2316.08
429.454	2545.45
429.662	2764.59
429.869	2586.41
430.076	2819.88
430.284	2682.67
430.491	2889.51
430.699	3034.92
430.906	2916.14
431.114	3014.44
431.321	3049.25
431.528	3161.89
431.736	3426.08
431.943	3419.94
432.15	3362.59
432.358	3417.89
432.565	3698.46
432.772	3661.6
432.979	3852.06
433.187	3874.59
433.394	3858.2
433.601	4149.01
433.808	4251.41
434.016	4112.15
434.223	4427.54
434.43	4615.95
434.637	4364.05
434.844	4896.52
435.052	4884.23
435.259	4873.99
435.466	4994.83
435.673	4980.49
435.88	5216.01
436.087	5562.11
436.294	5332.74
436.501	5476.1
436.708	5474.05
436.915	5902.08
437.122	5934.84
437.329	5861.12
437.537	5904.12
437.743	6061.82
437.95	6121.21
438.157	6553.33
438.364	6608.62
438.571	6684.4
438.778	6737.65
438.985	7343.85
439.192	6854.38
439.399	7325.41
439.606	6987.5
439.813	7419.62
440.02	7765.73
440.227	7694.05
440.433	7739.1
440.64	7943.9
440.847	7902.94
441.054	8214.23
441.261	8709.84
441.467	8459.99
441.674	8736.46
441.881	9047.76
442.088	9004.75
442.294	8957.64
442.501	9207.5
442.708	9328.33
442.914	9600.71
443.121	10145.47
443.328	9934.53
443.534	10563.25
443.741	10313.4
443.948	10225.34
444.154	10956.46
444.361	10880.69
444.568	11026.09
444.774	10976.94
444.981	11042.48
445.187	11325.1
445.394	12033.69
445.6	11671.2
445.807	12975.76
446.013	12541.59
446.22	12517.01
446.426	13139.6
446.633	13053.58
446.839	13737.6
447.046	13069.97
447.252	13631.11
447.459	13928.06
447.665	13635.21
447.871	14405.24
448.078	14960.24
448.284	14548.6
448.491	15087.22
448.697	15443.56
448.903	15691.37
449.11	15820.39
449.316	15482.47
449.522	15812.2
449.728	16086.62
449.935	16184.93
450.141	16430.68
450.347	16856.66
450.553	16311.9
450.76	16471.64
450.966	16954.96
451.172	16920.15
451.378	17280.59
451.584	17002.07
451.791	17325.64
451.997	17516.11
452.203	17473.1
452.409	17722.95
452.615	17421.9
452.821	16803.41
453.027	16660.06
453.233	17583.69
453.44	17323.6
453.646	16916.05
453.852	17360.46
454.058	17548.87
454.264	16981.59
454.47	17356.36
454.676	17088.08
454.882	17608.26
455.088	15965.79
455.294	16256.61
455.5	16741.97
455.705	16678.49
455.911	16062.05
456.117	15826.53
456.323	15408.75
456.529	14407.29
456.735	15271.53
456.941	15087.22
457.147	14513.78
457.352	14198.4
457.558	14179.96
457.764	14061.18
457.97	13811.33
458.176	13567.62
458.381	13604.49
458.587	13063.82
458.793	13051.53
458.999	12185.24
459.204	13215.37
459.41	12822.16
459.616	11962.01
459.821	11851.42
460.027	11878.05
460.233	11531.94
460.438	10913.45
460.644	11148.97
460.85	10679.99
461.055	10510
461.261	10497.72
461.466	9760.45
461.672	9260.74
461.878	10088.12
462.083	9238.22
462.289	9344.71
462.494	9103.05
462.7	8765.14
462.905	8468.18
463.111	8826.57
463.316	8789.71
463.522	8703.7
463.727	8654.55
463.932	8564.43
464.138	8724.18
464.343	8644.31
464.549	8390.36
464.754	8650.45
464.959	8509.14
465.165	8558.29
465.37	8152.79
465.575	7943.9
465.781	8206.04
465.986	8265.43
466.191	7876.32
466.397	7929.56
466.602	7565.03
466.807	7913.18
467.012	7972.57
467.218	7872.22
467.423	7569.12
467.628	7786.21
467.833	8058.59
468.038	7616.23
468.244	7390.95
468.449	7745.25
468.654	7585.51
468.859	7415.52
469.064	7507.68
469.269	7206.63
469.474	7132.9
469.679	7206.63
469.885	7229.16
470.09	7175.91
470.295	7458.53
470.5	6960.88
470.705	6952.68
470.91	6991.59
471.115	6913.77
471.32	7044.84
471.525	6819.57
471.73	6891.24
471.935	6614.77
472.139	6657.78
472.344	6721.26
472.549	6663.92
472.754	6549.23
472.959	6448.88
473.164	6356.72
473.369	6176.5
473.574	6356.72
473.778	6424.31
473.983	6239.99
474.188	6328.05
474.393	5865.21
474.598	5986.04
474.802	5814.01
475.007	5916.41
475.212	5932.79
475.417	5648.13
475.621	5639.94
475.826	5715.71
476.031	5443.33
476.235	5541.63
476.44	5607.17
476.645	5338.88
476.849	5428.99
477.054	5392.13
477.259	5295.88
477.463	5422.85
477.668	5173
477.872	5162.76
478.077	5189.38
478.282	4978.44
478.486	4996.87
478.691	5000.97
478.895	4974.35
479.1	4798.22
479.304	4960.01
479.509	4814.6
479.713	4966.15
479.918	4779.79
480.122	4656.91
480.326	4710.16
480.531	4759.31
480.735	4663.05
480.94	4716.3
481.144	4769.55
481.348	4658.96
481.553	4591.38
481.757	4517.65
481.961	4671.25
482.166	4724.49
482.37	4708.11
482.574	4513.55
482.778	4476.69
482.983	4824.84
483.187	4708.11
483.391	4609.81
483.595	4513.55
483.8	4491.02
484.004	4671.25
484.208	4579.09
484.412	4554.51
484.616	4591.38
484.821	4620.05
485.025	4509.46
485.229	4673.29
485.433	4529.94
485.637	4581.14
485.841	4595.47
486.045	4603.66
486.249	4652.81
486.453	4568.85
486.657	4531.98
486.861	4538.13
487.065	4538.13
487.269	4560.66
487.473	4486.93
487.677	4673.29
487.881	4638.48
488.085	4595.47
488.289	4548.37
488.493	4579.09
488.697	4607.76
488.901	4566.8
489.105	4503.31
489.309	4562.7
489.512	4683.53
489.716	4646.67
489.92	4716.3
490.124	4755.21
490.328	4714.25
490.531	4550.42
490.735	4675.34
490.939	4814.6
491.143	4517.65
491.346	4773.64
491.55	4796.17
491.754	4712.21
491.958	4765.45
492.161	4871.95
492.365	4747.02
492.569	4867.85
492.772	4902.67
492.976	4968.2
493.18	4861.71
493.383	4929.29
493.587	4900.62
493.79	5220.1
493.994	5086.98
494.197	5121.8
494.401	5115.66
494.605	5222.15
494.808	5338.88
495.012	5291.78
495.215	5254.92
495.419	5345.03
495.622	5248.77
495.825	5326.6
496.029	5463.81
496.232	5433.09
496.436	5678.85
496.639	5721.85
496.843	5603.07
497.046	5709.57
497.249	5797.63
497.453	5758.72
497.656	5936.89
497.859	6131.45
498.063	5977.85
498.266	6016.76
498.469	6049.53
498.673	6061.82
498.876	6270.71
499.079	6375.16
499.282	6268.66
499.485	6487.79
499.689	6526.71
499.892	6602.48
500.095	6827.76
500.298	6899.44
500.501	6678.26
500.705	6823.66
500.908	7053.03
501.111	7048.94
501.314	7118.57
501.517	7315.17
501.72	7429.86
501.923	7319.27
502.126	7384.8
502.329	7800.54
502.532	7726.82
502.735	7765.73
502.938	7810.78
503.141	8003.29
503.344	7993.05
503.547	8023.77
503.75	8199.9
503.953	8449.75
504.156	8574.67
504.359	8496.85
504.562	8476.37
504.765	8586.96
504.968	8558.29
505.17	9058
505.373	8957.64
505.576	9170.63
505.779	9121.48
505.982	9252.55
506.185	9346.76
506.387	9629.38
506.59	9572.04
506.793	9731.78
506.996	9809.6
507.198	9916.09
507.401	10002.11
507.604	10231.48
507.807	10239.67
508.009	10337.98
508.212	10643.12
508.415	10770.1
508.617	11032.24
508.82	10823.34
509.022	10770.1
509.225	11171.5
509.428	11247.27
509.63	11228.84
509.833	11404.97
510.035	11679.4
510.238	11665.06
510.44	11755.17
510.643	12144.28
510.845	11962.01
511.048	12244.63
511.25	12322.46
511.453	12654.23
511.655	12889.74
511.858	12668.56
512.06	12889.74
512.262	12957.33
512.465	12836.5
512.667	13250.19
512.87	13538.95
513.072	13581.96
513.274	13645.45
513.477	14065.28
513.679	14114.43
513.881	14442.1
514.084	14335.61
514.286	14382.71
514.488	14390.91
514.69	14823.03
514.893	15066.74
515.095	14964.34
515.297	15410.79
515.499	15345.26
515.701	15406.7
515.904	15629.93
516.106	16088.67
516.308	16078.43
516.51	16201.31
516.712	16088.67
516.914	16522.84
517.116	16803.41
517.318	16709.21
517.52	16827.99
517.722	17016.4
517.925	17323.6
518.127	17331.79
518.329	17518.15
518.531	17192.53
518.733	17819.21
518.935	18208.32
519.136	18175.55
519.338	18509.37
519.54	18535.99
519.742	18685.5
519.944	18574.91
520.146	19000.88
520.348	19344.94
520.55	19351.09
520.752	19433
520.954	19775.02
521.155	19500.59
521.357	19922.47
521.559	20016.68
521.761	20284.96
521.963	20522.52
522.164	20540.96
522.366	20540.96
522.568	20864.53
522.77	20790.81
522.971	21229.07
523.173	21132.82
523.375	21249.55
523.576	21169.68
523.778	21630.48
523.98	21876.23
524.181	21681.67
524.383	21829.13
524.584	22271.49
524.786	22244.87
524.988	22361.6
525.189	22453.76
525.391	22744.57
525.592	22982.13
525.794	22957.56
525.995	22957.56
526.197	22875.64
526.398	22912.5
526.6	23223.79
526.801	23285.23
527.003	23330.29
527.204	23541.23
527.406	23819.75
527.607	23621.1
527.808	23748.07
528.01	23834.09
528.211	23569.9
528.412	24042.98
528.614	24022.5
528.815	24235.49
529.016	24368.61
529.218	24212.96
529.419	24163.81
529.62	24505.82
529.822	24360.42
530.023	24536.54
530.224	24595.93
530.425	24548.83
530.626	24327.65
530.828	24284.64
531.029	25028.06
531.23	24819.16
531.431	24538.59
531.632	24600.03
531.833	24913.37
532.035	25126.36
532.236	24968.66
532.437	25093.59
532.638	24667.61
532.839	25077.21
533.04	25032.15
533.241	24782.3
533.442	25370.07
533.643	25230.8
533.844	25028.06
534.045	25263.57
534.246	24765.92
534.447	25228.76
534.648	25247.19
534.849	25339.35
535.05	24806.87
535.251	25212.37
535.451	25124.31
535.652	25175.51
535.853	25001.43
536.054	25511.38
536.255	25220.56
536.456	25026.01
536.657	25515.47
536.857	25439.7
537.058	24856.03
537.259	25175.51
537.46	25155.03
537.66	24827.35
537.861	25456.08
538.062	24909.27
538.263	25249.24
538.463	25220.56
538.664	25155.03
538.865	25327.06
539.065	25392.59
539.266	25368.02
539.466	25427.41
539.667	24878.55
539.868	25570.77
540.068	25251.28
540.269	25257.43
540.469	25550.29
540.67	24978.9
540.87	25189.84
541.071	25142.74
541.271	25664.97
541.472	25341.39
541.672	24858.07
541.873	25345.49
542.073	24956.38
542.274	25501.14
542.474	25388.5
542.675	25009.62
542.875	25390.55
543.075	25185.75
543.276	25050.58
543.476	25245.14
543.676	24948.18
543.877	25320.91
544.077	25148.89
544.277	25388.5
544.478	25064.92
544.678	25214.42
544.878	25200.08
545.078	25212.37
545.279	24970.71
545.479	25279.96
545.679	25251.28
545.879	25279.96
546.079	25304.53
546.28	24993.24
546.48	24997.34
546.68	25261.52
546.88	25415.12
547.08	25126.36
547.28	25140.69
547.48	25101.78
547.68	24921.56
547.88	24772.06
548.081	24933.85
548.281	25054.68
548.481	24868.31
548.681	25185.75
548.881	24802.78
549.081	25161.17
549.28	24907.23
549.48	24989.14
549.68	25212.37
549.88	25249.24
550.08	25015.77
550.28	25224.66
550.48	24624.61
550.68	25255.38
550.88	24690.14
551.08	25109.97
551.279	25120.21
551.479	24813.02
551.679	25058.77
551.879	25056.73
552.079	25253.33
552.278	24651.23
552.478	24903.13
552.678	24745.44
552.878	25109.97
553.077	24954.33
553.277	24911.32
553.477	25128.41
553.676	24841.69
553.876	25017.82
554.076	24546.78
554.275	24745.44
554.475	24401.38
554.674	24761.82
554.874	24939.99
555.074	24759.77
555.273	24739.29
555.473	24579.55
555.672	24473.06
555.872	24331.75
556.071	24634.85
556.271	24899.03
556.47	24407.52
556.67	24511.97
556.869	24317.41
557.068	24337.89
557.268	24360.42
557.467	24339.94
557.667	24446.43
557.866	24563.17
558.065	24403.42
558.265	24341.99
558.464	24014.31
558.663	24546.78
558.863	23836.14
559.062	24516.06
559.261	24051.17
559.461	24743.39
559.66	24235.49
559.859	24323.55
560.058	23916.01
560.258	24159.72
560.457	24122.85
560.656	23883.24
560.855	23664.11
561.054	23834.09
561.253	23866.86
561.453	23961.06
561.652	23864.81
561.851	23793.13
562.05	24067.56
562.249	23633.39
562.448	23799.27
562.647	23680.49
562.846	23729.64
563.045	23860.71
563.244	23520.75
563.443	23778.79
563.642	23254.51
563.841	23557.61
564.04	23236.08
564.239	23483.89
564.438	23154.16
564.637	23354.86
564.836	23336.43
565.035	22896.12
565.234	22961.65
565.432	23315.95
565.631	22803.96
565.83	23047.67
566.029	22640.12
566.228	22859.26
566.427	22715.9
566.625	22584.83
566.824	22609.4
567.023	22857.21
567.222	22277.63
567.42	22869.5
567.619	22695.42
567.818	22683.13
568.016	22406.66
568.215	22300.16
568.414	22357.5
568.612	22447.61
568.811	22201.86
569.01	22255.11
569.208	21786.12
569.407	22351.36
569.605	21839.37
569.804	22298.11
570.002	21917.19
570.201	22038.02
570.4	21958.15
570.598	21290.51
570.797	21687.82
570.995	21472.78
571.193	21411.34
571.392	21583.37
571.59	21442.06
571.789	21476.88
571.987	21571.08
572.186	21345.81
572.384	21151.25
572.582	21339.66
572.781	21327.38
572.979	20932.12
573.177	21265.94
573.376	21251.6
573.574	20938.26
573.772	20909.59
573.971	20874.77
574.169	20790.81
574.367	20801.05
574.565	20698.65
574.763	20608.54
574.962	20512.28
575.16	20362.78
575.358	20454.94
575.556	20301.34
575.754	20745.75
575.952	20364.83
576.151	20612.63
576.349	20172.32
576.547	20368.93
576.745	19973.67
576.943	20319.78
577.141	19754.54
577.339	19992.1
577.537	20014.63
577.735	19910.18
577.933	19613.23
578.131	19756.58
578.329	19594.79
578.527	19625.51
578.725	19861.03
578.923	19793.45
579.121	19523.12
579.319	19451.44
579.516	19607.08
579.714	19461.68
579.912	19213.87
580.11	19168.82
580.308	19422.76
580.506	19045.94
580.704	18890.29
580.901	19035.7
581.099	19031.6
581.297	19074.61
581.495	18794.04
581.692	18839.09
581.89	18810.42
582.088	19009.08
582.285	18777.65
582.483	18730.55
582.681	18404.92
582.878	18552.38
583.076	18458.17
583.274	18685.5
583.471	18243.13
583.669	18435.64
583.866	18069.06
584.064	18458.17
584.262	18236.99
584.459	18226.75
584.657	18073.15
584.854	18077.25
585.052	17802.82
585.249	17899.08
585.447	18214.46
585.644	17743.43
585.841	17825.35
586.039	18013.76
586.236	17563.21
586.434	17606.22
586.631	17538.63
586.828	17520.2
587.026	17665.61
587.223	17534.54
587.42	17411.66
587.618	17628.74
587.815	17200.72
588.012	17372.75
588.21	17385.04
588.407	17223.25
588.604	17282.64
588.801	16944.72
588.999	17159.76
589.196	16756.31
589.393	17122.9
589.59	17043.03
589.787	16903.76
589.984	16784.98
590.182	16662.1
590.379	16672.34
590.576	16678.49
590.773	16789.08
590.97	16701.01
591.167	16635.48
591.364	16238.17
591.561	16399.96
591.758	16160.35
591.955	16336.48
592.152	16260.7
592.349	16129.63
592.546	15865.44
592.743	16060
592.94	15990.37
593.137	16141.92
593.334	16133.73
593.531	15914.59
593.727	16141.92
593.924	15885.92
594.121	15597.16
594.318	15806.05
594.515	15535.72
594.712	15668.84
594.908	15562.34
595.105	15511.14
595.302	15281.77
595.499	15490.66
595.696	15289.96
595.892	15435.37
596.089	15314.54
596.286	15214.19
596.482	15267.44
596.679	15269.48
596.876	15240.81
597.072	15193.71
597.269	15261.29
597.466	15046.26
597.662	15136.37
597.859	14868.08
598.055	14933.62
598.252	15068.78
598.448	15081.07
598.645	14689.91
598.841	14861.94
599.038	14898.8
599.234	14796.4
599.431	14505.59
599.627	14253.69
599.824	14384.76
600.02	14298.75
600.217	14507.64
600.413	14126.72
600.609	14208.64
600.806	14151.29
601.002	14478.97
601.198	14179.96
601.395	13987.46
601.591	14157.44
601.787	14130.81
601.984	14106.24
602.18	14020.22
602.376	14044.8
602.572	14005.89
602.769	13856.39
602.965	13602.44
603.161	13735.56
603.357	13725.32
603.553	13715.08
603.75	13833.86
603.946	13639.3
604.142	13602.44
604.338	13334.15
604.534	13467.27
604.73	13512.33
604.926	13225.61
605.122	13416.07
605.318	13315.72
605.514	13307.53
605.71	13143.69
605.906	13276.81
606.102	13129.36
606.298	13420.17
606.494	13266.57
606.69	13239.95
606.886	13035.15
607.082	12899.98
607.278	13143.69
607.474	12754.58
607.67	13059.73
607.866	12760.72
608.062	12805.78
608.257	12693.14
608.453	12721.81
608.649	12705.43
608.845	12768.91
609.041	12525.21
609.236	12611.22
609.432	12801.68
609.628	12500.63
609.824	12871.31
610.019	12527.25
610.215	12627.6
610.411	12400.28
610.606	12383.9
610.802	12361.37
610.998	12373.66
611.193	12215.96
611.389	12072.61
611.584	12261.02
611.78	12177.05
611.976	12207.77
612.171	12164.76
612.367	12052.13
612.562	12179.1
612.758	12357.27
612.953	12039.84
613.149	12351.13
613.344	11914.91
613.539	11824.8
613.735	12091.04
613.93	12271.26
614.126	12050.08
614.321	12002.97
614.517	11902.62
614.712	12107.42
614.907	11697.83
615.103	11773.6
615.298	11876
615.493	11966.11
615.688	11660.96
615.884	11841.18
616.079	11525.8
616.274	11720.35
616.47	11603.62
616.665	11796.13
616.86	11634.34
617.055	11286.19
617.25	11687.59
617.445	11617.96
617.641	11308.71
617.836	11407.02
618.031	11196.07
618.226	11392.68
618.421	11187.88
618.616	11153.07
618.811	11249.32
619.006	11288.23
619.201	11034.28
619.396	11388.58
619.591	11054.76
619.786	11050.67
619.981	10950.32
620.176	10915.5
620.371	10673.84
620.566	10663.6
620.761	10768.05
620.956	10819.25
621.151	10684.08
621.346	10747.57
621.541	10442.42
621.735	10497.72
621.93	10499.77
622.125	10495.67
622.32	10383.03
622.515	10389.17
622.709	10215.1
622.904	10225.34
623.099	10036.92
623.294	10133.18
623.488	9989.82
623.683	10034.88
623.878	10026.68
624.072	9955.01
624.267	9850.56
624.462	9809.6
624.656	9592.51
624.851	9580.23
625.046	9641.67
625.24	9602.75
625.435	9541.32
625.629	9557.7
625.824	9459.4
626.018	9479.88
626.213	9336.52
626.407	9166.54
626.602	9176.78
626.796	9125.58
626.991	9098.95
627.185	9074.38
627.38	9197.26
627.574	9037.52
627.768	8863.44
627.963	8765.14
628.157	8621.78
628.352	9068.23
628.546	8752.85
628.74	8781.52
628.935	8707.79
629.129	8771.28
629.323	8722.13
629.517	8564.43
629.712	8640.21
629.906	8650.45
630.1	8277.72
630.294	8287.96
630.489	8390.36
630.683	8427.22
630.877	8398.55
631.071	8097.5
631.265	8273.62
631.459	8044.25
631.653	8044.25
631.848	8206.04
632.042	7859.93
632.236	7984.86
632.43	7759.58
632.624	8013.53
632.818	7894.75
633.012	7696.1
633.206	7780.06
633.4	7773.92
633.594	7755.49
633.788	7659.23
633.982	7687.9
634.176	7548.64
634.369	7452.39
634.563	7513.83
634.757	7515.87
634.951	7390.95
635.145	7436
635.339	7335.65
635.533	7417.57
635.726	7239.4
635.92	7167.72
636.114	7298.79
636.308	7085.8
636.501	7110.38
636.695	7024.36
636.889	6948.59
637.083	6946.54
637.276	6745.84
637.47	6852.33
637.664	6960.88
637.857	6885.1
638.051	6788.85
638.244	6860.52
638.438	6821.61
638.632	6614.77
638.825	6596.34
639.019	6690.54
639.212	6731.5
639.406	6653.68
639.599	6643.44
639.793	6344.44
639.986	6319.86
640.18	6379.25
640.373	6424.31
640.567	6209.27
640.76	6256.37
640.954	6168.31
641.147	6070.01
641.34	6113.02
641.534	6178.55
641.727	6086.39
641.92	6041.34
642.114	5928.7
642.307	5824.25
642.5	6078.2
642.694	6002.43
642.887	5932.79
643.08	5904.12
643.273	5940.99
643.467	5783.29
643.66	5795.58
643.853	5644.03
644.046	5656.32
644.239	5740.29
644.432	5633.79
644.626	5654.27
644.819	5619.46
645.012	5529.34
645.205	5445.38
645.398	5469.95
645.591	5605.12
645.784	5367.56
645.977	5304.07
646.17	5330.69
646.363	5418.75
646.556	5220.1
646.749	5322.5
646.942	5334.79
647.135	5209.86
647.328	5181.19
647.521	5091.08
647.714	5007.11
647.907	5027.59
648.099	5037.83
648.292	5138.18
648.485	4974.35
648.678	4894.47
648.871	4998.92
649.064	4882.19
649.256	4978.44
649.449	4790.03
649.642	4759.31
649.835	4800.27
650.027	4685.58
650.22	4810.51
650.413	4622.09
650.605	4654.86
650.798	4689.68
650.991	4568.85
651.183	4679.44
651.376	4505.36
651.568	4519.7
651.761	4493.07
651.954	4499.22
652.146	4542.22
652.339	4331.28
652.531	4439.83
652.724	4497.17
652.916	4263.7
653.109	4273.94
653.301	4304.66
653.494	4425.49
653.686	4300.56
653.879	4275.99
654.071	4206.36
654.263	4226.84
654.456	4134.68
654.648	4255.51
654.84	4157.21
655.033	4048.66
655.225	4081.43
655.417	3989.27
655.61	3993.37
655.802	4026.14
655.994	4046.62
656.186	4058.9
656.379	4034.33
656.571	3878.68
656.763	3847.96
656.955	4026.14
657.148	3862.3
657.34	3956.5
657.532	3823.39
657.724	3874.59
657.916	3854.11
658.108	3821.34
658.3	3780.38
658.492	3641.12
658.684	3731.23
658.876	3671.84
659.068	3577.63
659.26	3688.22
659.452	3559.2
659.644	3714.84
659.836	3575.58
660.028	3604.25
660.22	3464.99
660.412	3634.97
660.604	3348.26
660.796	3489.57
660.988	3421.99
661.18	3432.22
661.372	3477.28
661.563	3368.74
661.755	3432.22
661.947	3387.17
662.139	3419.94
662.331	3364.64
662.522	3325.73
662.714	3231.52
662.906	3290.92
663.097	3252
663.289	3184.42
663.481	3151.65
663.673	3198.76
663.864	3174.18
664.056	3049.25
664.247	3127.08
664.439	3067.69
664.631	3168.04
664.822	3022.63
665.014	3059.49
665.205	2979.62
665.397	2993.96
665.588	3051.3
665.78	2971.43
665.971	2926.38
666.163	2823.98
666.354	3004.2
666.546	3053.35
666.737	2971.43
666.929	2918.18
667.12	2946.86
667.311	2912.04
667.503	2879.27
667.694	2789.16
667.885	2903.85
668.077	2783.02
668.268	2879.27
668.459	2795.31
668.651	2768.68
668.842	2791.21
669.033	2756.4
669.224	2815.79
669.416	2817.83
669.607	2627.37
669.798	2684.72
669.989	2748.2
670.18	2795.31
670.371	2647.85
670.563	2643.76
670.754	2518.83
670.945	2617.13
671.136	2643.76
671.327	2664.24
671.518	2535.21
671.709	2672.43
671.9	2574.13
672.091	2631.47
672.282	2496.3
672.473	2537.26
672.664	2522.93
672.855	2527.02
673.046	2479.92
673.237	2516.78
673.428	2500.4
673.619	2506.54
673.809	2398
674	2422.58
674.191	2408.24
674.382	2473.78
674.573	2426.67
674.764	2492.21
674.954	2496.3
675.145	2451.25
675.336	2367.28
675.527	2490.16
675.717	2369.33
675.908	2432.82
676.099	2457.39
676.289	2268.98
676.48	2383.66
676.671	2350.9
676.861	2416.43
677.052	2377.52
677.243	2271.03
677.433	2285.36
677.624	2236.21
677.814	2379.57
678.005	2262.83
678.195	2254.64
678.386	2168.63
678.576	2338.61
678.767	2234.16
678.957	2309.94
679.148	2266.93
679.338	2156.34
679.529	2391.86
679.719	2256.69
679.909	2295.6
680.1	2334.51
680.29	2256.69
680.481	2275.12
680.671	2340.66
680.861	2285.36
681.052	2264.88
681.242	2236.21
681.432	2219.83
681.622	2166.58
681.813	2193.2
682.003	2215.73
682.193	2187.06
682.383	2160.44
682.573	2160.44
682.764	2260.79
682.954	2262.83
683.144	2133.81
683.334	2094.9
683.524	2258.74
683.714	2283.31
683.904	2211.64
684.094	2152.24
684.284	2148.15
684.474	2113.33
684.664	2240.31
684.854	2162.48
685.044	2223.92
685.234	2101.05
685.424	2119.48
685.614	2109.24
685.804	2152.24
685.994	2092.85
686.184	2092.85
686.374	2178.87
686.564	2111.29
686.753	2090.81
686.943	2144.05
687.133	2099
687.323	2150.2
687.513	2107.19
687.702	2154.29
687.892	2082.61
688.082	2055.99
688.272	2105.14
688.461	2103.09
688.651	2176.82
688.841	2092.85
689.03	2060.09
689.22	2002.74
689.41	2064.18
689.599	2152.24
689.789	2084.66
689.979	1972.02
690.168	2070.33
690.358	1967.93
690.547	2096.95
690.737	2084.66
690.926	2035.51
691.116	2158.39
691.305	2113.33
691.495	1906.49
691.684	1963.83
691.874	2021.17
692.063	1972.02
692.252	2021.17
692.442	1974.07
692.631	1967.93
692.82	1953.59
693.01	2105.14
693.199	1935.16
693.388	1978.17
693.578	1972.02
693.767	1879.86
693.956	1937.21
694.146	1931.06
694.335	1916.73
694.524	1955.64
694.713	1965.88
694.902	1836.86
695.092	1836.86
695.281	1898.3
695.47	1957.69
695.659	1838.91
695.848	1926.97
696.037	1861.43
696.226	1806.14
696.415	1904.44
696.604	1812.28
696.793	1822.52
696.982	1804.09
697.171	1904.44
697.36	1855.29
697.549	1937.21
697.738	1853.24
697.927	1918.78
698.116	1871.67
698.305	1865.53
698.494	1814.33
698.683	1771.32
698.872	1980.22
699.061	1840.95
699.25	1797.95
699.438	1875.77
699.627	1875.77
699.816	1875.77
700.005	1810.23
700.193	1863.48
700.382	1824.57
700.571	1787.71
700.76	1789.75
700.948	1849.15
701.137	1851.19
701.326	1822.52
701.514	1810.23
701.703	1734.46
701.892	1730.36
702.08	1814.33
702.269	1713.98
702.457	1740.6
702.646	1824.57
702.834	1840.95
703.023	1707.84
703.212	1734.46
703.4	1718.08
703.589	1673.02
703.777	1750.84
703.965	1724.22
704.154	1871.67
704.342	1685.31
704.531	1806.14
704.719	1732.41
704.907	1797.95
705.096	1775.42
705.284	1732.41
705.472	1720.12
705.661	1722.17
705.849	1775.42
706.037	1752.89
706.226	1724.22
706.414	1679.16
706.602	1611.58
706.79	1675.07
706.979	1679.16
707.167	1597.24
707.355	1599.29
707.543	1652.54
707.731	1746.75
707.919	1720.12
708.107	1603.39
708.296	1591.1
708.484	1584.96
708.672	1621.82
708.86	1568.57
709.048	1640.25
709.236	1603.39
709.424	1535.81
709.612	1627.96
709.8	1660.73
709.988	1607.48
710.176	1644.35
710.364	1627.96
710.551	1638.2
710.739	1632.06
710.927	1607.48
711.115	1568.57
711.303	1572.67
711.491	1552.19
711.679	1521.47
711.866	1660.73
712.054	1533.76
712.242	1625.92
712.43	1503.04
712.617	1564.48
712.805	1519.42
712.993	1470.27
713.181	1480.51
713.368	1511.23
713.556	1587.01
713.744	1576.77
713.931	1584.96
714.119	1507.13
714.306	1431.36
714.494	1453.89
714.682	1513.28
714.869	1515.33
715.057	1398.59
715.244	1470.27
715.432	1562.43
715.619	1496.89
715.807	1451.84
715.994	1488.7
716.182	1488.7
716.369	1421.12
716.556	1519.42
716.744	1529.66
716.931	1396.54
717.119	1564.48
717.306	1474.37
717.493	1527.61
717.681	1498.94
717.868	1505.09
718.055	1414.98
718.242	1414.98
718.43	1474.37
718.617	1513.28
718.804	1449.79
718.991	1466.17
719.179	1457.98
719.366	1490.75
719.553	1486.65
719.74	1472.32
719.927	1392.45
720.114	1398.59
720.301	1390.4
720.488	1359.68
720.676	1421.12
720.863	1326.91
721.05	1367.87
721.237	1355.58
721.424	1410.88
721.611	1412.93
721.798	1357.63
721.985	1328.96
722.172	1343.3
722.358	1365.82
722.545	1439.55
722.732	1257.28
722.919	1460.03
723.106	1425.22
723.293	1322.82
723.48	1371.97
723.667	1507.13
723.853	1421.12
724.04	1398.59
724.227	1355.58
724.414	1273.67
724.6	1382.21
724.787	1328.96
724.974	1406.78
725.161	1306.43
725.347	1351.49
725.534	1404.74
725.72	1400.64
725.907	1333.06
726.094	1306.43
726.28	1312.58
726.467	1396.54
726.653	1306.43
726.84	1296.19
727.027	1308.48
727.213	1292.1
727.4	1412.93
727.586	1398.59
727.773	1392.45
727.959	1388.35
728.145	1451.84
728.332	1378.11
728.518	1337.15
728.705	1380.16
728.891	1351.49
729.077	1322.82
729.264	1263.43
729.45	1294.15
729.636	1363.78
729.823	1269.57
730.009	1247.04
730.195	1363.78
730.382	1302.34
730.568	1210.18
730.754	1308.48
730.94	1296.19
731.126	1390.4
731.313	1300.29
731.499	1343.3
731.685	1314.63
731.871	1306.43
732.057	1285.95
732.243	1349.44
732.429	1320.77
732.615	1308.48
732.801	1337.15
732.987	1224.51
733.173	1273.67
733.359	1197.89
733.545	1185.6
733.731	1283.91
733.917	1314.63
734.103	1285.95
734.289	1298.24
734.475	1285.95
734.661	1242.95
734.847	1349.44
735.033	1234.75
735.219	1226.56
735.404	1232.71
735.59	1146.69
735.776	1232.71
735.962	1253.19
736.148	1214.27
736.333	1302.34
736.519	1290.05
736.705	1206.08
736.89	1191.75
737.076	1201.99
737.262	1310.53
737.447	1212.23
737.633	1199.94
737.819	1281.86
738.004	1249.09
738.19	1208.13
738.375	1224.51
738.561	1255.23
738.747	1210.18
738.932	1195.84
739.118	1224.51
739.303	1238.85
739.489	1228.61
739.674	1072.96
739.859	1193.8
740.045	1218.37
740.23	1240.9
740.416	1158.98
740.601	1220.42
740.786	1142.6
740.972	1173.32
741.157	1234.75
741.342	1163.08
741.528	1171.27
741.713	1130.31
741.898	1161.03
742.084	1179.46
742.269	1154.88
742.454	1136.45
742.639	1118.02
742.824	1097.54
743.01	1095.49
743.195	1142.6
743.38	1021.77
743.565	1113.92
743.75	1183.56
743.935	1128.26
744.12	1093.44
744.305	1175.36
744.49	1167.17
744.675	962.37
744.86	1140.55
745.045	1009.48
745.23	1085.25
745.415	1058.63
745.6	1027.91
745.785	1042.25
745.97	1130.31
746.155	1054.53
746.34	1062.73
746.525	1027.91
746.71	1015.62
746.895	1013.57
747.079	943.94
747.264	972.61
747.449	982.85
747.634	1066.82
747.819	995.14
748.003	945.99
748.188	1042.25
748.373	1038.15
748.557	970.57
748.742	1013.57
748.927	909.13
749.111	999.24
749.296	976.71
749.481	966.47
749.665	937.8
749.85	950.09
750.034	939.85
750.219	941.89
750.404	905.03
750.588	886.6
750.773	898.89
750.957	986.95
751.141	882.5
751.326	913.22
751.51	905.03
751.695	937.8
751.879	827.21
752.064	980.81
752.248	921.42
752.432	882.5
752.617	896.84
752.801	956.23
752.985	888.65
753.17	866.12
753.354	931.66
753.538	864.07
753.722	749.39
753.907	833.35
754.091	876.36
754.275	778.06
754.459	755.53
754.643	835.4
754.828	814.92
755.012	741.19
755.196	831.3
755.38	743.24
755.564	769.87
755.748	771.91
755.932	722.76
756.116	737.1
756.3	741.19
756.484	794.44
756.668	730.95
756.852	681.8
757.036	708.43
757.22	663.37
757.404	728.91
757.588	716.62
757.772	720.71
757.956	710.47
758.14	747.34
758.323	755.53
758.507	733
758.691	626.51
758.875	687.95
759.059	706.38
759.242	685.9
759.426	644.94
759.61	753.48
759.794	673.61
759.977	653.13
760.161	673.61
760.345	724.81
760.528	679.75
760.712	716.62
760.895	685.9
761.079	659.28
761.263	593.74
761.446	651.08
761.63	626.51
761.813	692.04
761.997	618.32
762.18	665.42
762.364	655.18
762.547	614.22
762.731	675.66
762.914	618.32
763.098	534.35
763.281	610.12
763.464	599.88
763.648	655.18
763.831	610.12
764.015	651.08
764.198	569.16
764.381	628.56
764.564	628.56
764.748	610.12
764.931	620.36
765.114	575.31
765.297	550.73
765.481	587.6
765.664	630.6
765.847	479.05
766.03	579.4
766.213	532.3
766.397	608.08
766.58	536.4
766.763	595.79
766.946	501.58
767.129	522.06
767.312	485.2
767.495	560.97
767.678	546.64
767.861	597.84
768.044	511.82
768.227	571.21
768.41	585.55
768.593	491.34
768.776	581.45
768.959	620.36
769.142	530.25
769.324	567.12
769.507	468.81
769.69	434
769.873	493.39
770.056	485.2
770.239	540.49
770.421	620.36
770.604	536.4
770.787	485.2
770.97	485.2
771.152	515.92
771.335	397.14
771.518	431.95
771.7	481.1
771.883	503.63
772.066	477.01
772.248	429.9
772.431	524.11
772.613	503.63
772.796	487.25
772.978	472.91
773.161	450.38
773.343	386.9
773.526	477.01
773.708	429.9
773.891	513.87
774.073	438.09
774.256	343.89
774.438	440.14
774.621	366.42
774.803	421.71
774.985	429.9
775.168	403.28
775.35	421.71
775.532	503.63
775.715	425.81
775.897	374.61
776.079	401.23
776.261	493.39
776.444	444.24
776.626	419.66
776.808	427.85
776.99	358.22
777.173	399.18
777.355	417.61
777.537	382.8
777.719	390.99
777.901	376.66
778.083	333.65
778.265	282.45
778.447	296.78
778.629	378.7
778.811	399.18
778.993	358.22
779.175	282.45
779.357	337.74
779.539	290.64
779.721	368.46
779.903	323.41
780.085	364.37
780.267	333.65
780.449	311.12
780.631	360.27
780.812	317.26
780.994	315.22
781.176	300.88
781.358	325.46
781.54	323.41
781.721	354.13
781.903	374.61
782.085	331.6
782.267	315.22
782.448	284.5
782.63	354.13
782.812	278.35
782.993	335.7
783.175	296.78
783.357	327.5
783.538	276.31
783.72	307.02
783.901	401.23
784.083	329.55
784.264	323.41
784.446	307.02
784.627	345.94
784.809	229.2
784.99	247.63
785.172	251.73
785.353	241.49
785.535	282.45
785.716	317.26
785.897	249.68
786.079	233.3
786.26	227.15
786.441	261.97
786.623	235.35
786.804	335.7
786.985	233.3
787.167	264.02
787.348	212.82
787.529	284.5
787.71	280.4
787.891	241.49
788.073	249.68
788.254	216.91
788.435	288.59
788.616	292.69
788.797	233.3
788.978	241.49
789.159	243.54
789.34	198.48
789.522	186.19
789.703	196.43
789.884	253.78
790.065	259.92
790.246	196.43
790.427	200.53
790.607	223.06
790.788	253.78
790.969	210.77
791.15	208.72
791.331	247.63
791.512	214.87
791.693	196.43
791.874	188.24
792.054	167.76
792.235	294.74
792.416	137.04
792.597	171.86
792.778	221.01
792.958	210.77
793.139	243.54
793.32	198.48
793.5	188.24
793.681	264.02
793.862	210.77
794.042	194.39
794.223	200.53
794.404	96.08
794.584	147.28
794.765	182.1
794.945	116.56
795.126	194.39
795.306	178
795.487	186.19
795.667	124.76
795.848	126.8
796.028	137.04
796.209	241.49
796.389	126.8
796.57	249.68
796.75	132.95
796.93	171.86
797.111	194.39
797.291	167.76
797.471	169.81
797.652	159.57
797.832	135
798.012	182.1
798.192	132.95
798.373	184.15
798.553	124.76
798.733	208.72
798.913	143.19
799.093	53.08
799.274	184.15
799.454	153.43
799.634	126.8
799.814	188.24
799.994	114.52
800.174	116.56
800.354	212.82
800.534	153.43
800.714	102.23
800.894	151.38
801.074	143.19
801.254	120.66
801.434	100.18
801.614	173.91
801.794	137.04
801.974	370.51
802.154	118.61
802.334	77.65
802.514	135
802.693	159.57
802.873	132.95
803.053	85.84
803.233	59.22
803.413	173.91
803.592	96.08
803.772	151.38
803.952	91.99
804.131	122.71
804.311	155.47
804.491	135
804.67	100.18
804.85	102.23
805.03	116.56
805.209	141.14
805.389	126.8
805.568	87.89
805.748	190.29
805.928	126.8
806.107	180.05
806.287	110.42
806.466	104.28
806.646	126.8
806.825	116.56
807.004	137.04
807.184	71.51
807.363	135
807.543	145.24
807.722	96.08
807.901	159.57
808.081	155.47
808.26	73.56
808.439	149.33
808.619	30.55
808.798	116.56
808.977	143.19
809.156	98.13
809.336	51.03
809.515	26.45
809.694	180.05
809.873	108.37
810.052	94.04
810.231	139.09
810.411	135
810.59	184.15
810.769	112.47
810.948	112.47
811.127	77.65
811.306	94.04
811.485	67.41
811.664	102.23
811.843	77.65
812.022	55.12
812.201	118.61
812.38	108.37
812.559	100.18
812.737	145.24
812.916	153.43
813.095	94.04
813.274	28.5
813.453	135
813.632	102.23
813.811	102.23
813.989	126.8
814.168	128.85
814.347	104.28
814.526	145.24
814.704	132.95
814.883	106.32
815.062	67.41
815.24	114.52
815.419	8.02
815.598	98.13
815.776	75.6
815.955	30.55
816.133	61.27
816.312	163.67
816.49	-4.27
816.669	104.28
816.847	130.9
817.026	102.23
817.204	48.98
817.383	98.13
817.561	89.94
817.74	118.61
817.918	98.13
818.097	141.14
818.275	51.03
818.453	143.19
818.632	57.17
818.81	75.6
818.988	71.51
819.167	89.94
819.345	5.97
819.523	59.22
819.701	42.84
819.879	73.56
820.058	81.75
820.236	53.08
820.414	28.5
820.592	65.36
820.77	83.8
820.948	18.26
821.127	42.84
821.305	96.08
821.483	65.36
821.661	53.08
821.839	44.88
822.017	120.66
822.195	71.51
822.373	59.22
822.551	128.85
822.729	87.89
822.907	14.17
823.085	104.28
823.262	87.89
823.44	114.52
823.618	118.61
823.796	98.13
823.974	30.55
824.152	73.56
824.329	24.4
824.507	108.37
824.685	44.88
824.863	94.04
825.04	34.64
825.218	79.7
825.396	87.89
825.574	65.36
825.751	87.89
825.929	46.93
826.107	67.41
826.284	42.84
826.462	73.56
826.639	44.88
826.817	73.56
826.994	69.46
827.172	53.08
827.349	96.08
827.527	28.5
827.704	69.46
827.882	69.46
828.059	20.31
828.237	34.64
828.414	100.18
828.591	-26.79
828.769	98.13
828.946	46.93
829.124	44.88
829.301	48.98
829.478	48.98
829.655	18.26
829.833	59.22
830.01	124.76
830.187	81.75
830.364	34.64
830.542	87.89
830.719	46.93
830.896	102.23
831.073	65.36
831.25	48.98
831.427	94.04
831.604	30.55
831.782	61.27
831.959	-2.22
832.136	12.12
832.313	87.89
832.49	32.6
832.667	120.66
832.844	40.79
833.021	110.42
833.198	40.79
833.374	3.93
833.551	135
833.728	48.98
833.905	32.6
834.082	61.27
834.259	108.37
834.436	22.36
834.612	38.74
834.789	71.51
834.966	38.74
835.143	81.75
835.319	132.95
835.496	18.26
835.673	65.36
835.85	12.12
836.026	28.5
836.203	77.65
836.38	36.69
836.556	94.04
836.733	10.07
836.909	89.94
837.086	40.79
837.262	26.45
837.439	75.6
837.616	79.7
837.792	108.37
837.968	118.61
838.145	16.21
838.321	59.22
838.498	51.03
838.674	81.75
838.851	36.69
839.027	-6.31
839.203	-12.46
839.38	5.97
839.556	67.41
839.732	67.41
839.909	51.03
840.085	69.46
840.261	24.4
840.437	69.46
840.614	10.07
840.79	59.22
840.966	57.17
841.142	61.27
841.318	-26.79
841.494	44.88
841.671	28.5
841.847	3.93
842.023	-2.22
842.199	73.56
842.375	34.64
842.551	-8.36
842.727	-8.36
842.903	75.6
843.079	34.64
843.255	-4.27
843.431	-26.79
843.607	77.65
843.783	-12.46
843.959	-16.55
844.134	46.93
844.31	10.07
844.486	-20.65
844.662	16.21
844.838	22.36
845.013	96.08
845.189	3.93
845.365	46.93
845.541	53.08
845.716	42.84
845.892	8.02
846.068	22.36
846.244	-28.84
846.419	77.65
846.595	57.17
846.77	-22.7
846.946	55.12
847.122	38.74
847.297	36.69
847.473	77.65
847.648	-18.6
847.824	30.55
847.999	-22.7
848.175	-30.89
848.35	87.89
848.526	24.4
848.701	22.36
848.876	61.27
849.052	-18.6
849.227	87.89
849.403	55.12
849.578	20.31
849.753	69.46
849.929	79.7
850.104	57.17
850.279	87.89
850.454	-28.84
850.63	-2.22
850.805	61.27
850.98	57.17
851.155	-43.18
851.33	5.97
851.505	10.07
851.681	-0.17
851.856	81.75
852.031	53.08
852.206	85.84
852.381	63.32
852.556	63.32
852.731	32.6
852.906	16.21
853.081	38.74
853.256	8.02
853.431	-10.41
853.606	-22.7
853.781	26.45
853.956	85.84
854.131	69.46
854.305	20.31
854.48	14.17
854.655	36.69
854.83	32.6
855.005	18.26
855.18	57.17
855.354	8.02
855.529	61.27
855.704	55.12
855.879	18.26
856.053	71.51
856.228	8.02
856.403	5.97
856.577	67.41
856.752	3.93
856.926	69.46
857.101	59.22
857.276	51.03
857.45	143.19
857.625	69.46
857.799	12.12
857.974	-8.36
858.148	44.88
858.323	-28.84
858.497	46.93
858.672	12.12
858.846	-53.42
859.02	102.23
859.195	5.97
859.369	8.02
859.543	-10.41
859.718	28.5
859.892	32.6
860.066	24.4
860.241	-51.37
860.415	63.32
860.589	12.12
860.763	44.88
860.938	53.08
861.112	63.32
861.286	8.02
861.46	53.08
861.634	-24.75
861.808	26.45
861.982	-24.75
862.157	73.56
862.331	22.36
862.505	53.08
862.679	-12.46
862.853	77.65
863.027	3.93
863.201	-18.6
863.375	12.12
863.549	44.88
863.722	59.22
863.896	-14.51
864.07	53.08
864.244	65.36
864.418	79.7
864.592	112.47
864.766	28.5
864.939	38.74
865.113	32.6
865.287	-20.65
865.461	-18.6
865.634	53.08
865.808	-77.99
865.982	53.08
866.156	-73.9
866.329	-37.03
866.503	59.22
866.676	18.26
866.85	44.88
867.024	36.69
867.197	120.66
867.371	-61.61
867.544	10.07
867.718	3.93
867.891	10.07
868.065	-26.79
868.238	34.64
868.412	32.6
868.585	20.31
868.759	100.18
868.932	44.88
869.105	40.79
869.279	46.93
869.452	65.36
869.625	53.08
869.799	-4.27
869.972	10.07
870.145	46.93
870.319	26.45
870.492	36.69
870.665	-18.6
870.838	36.69
871.011	-39.08
871.185	3.93
871.358	1.88
871.531	-51.37
871.704	36.69
871.877	48.98
872.05	28.5
872.223	61.27
872.396	24.4
872.569	-34.99
872.742	-18.6
872.915	65.36
873.088	-55.47
873.261	71.51
873.434	24.4
873.607	71.51
873.78	-28.84
873.953	10.07
874.126	-10.41
874.299	24.4
874.471	18.26
874.644	-12.46
874.817	55.12
874.99	22.36
875.163	-8.36
875.335	24.4
875.508	14.17
875.681	32.6
875.853	5.97
876.026	55.12
876.199	38.74
876.371	42.84
876.544	-39.08
876.717	91.99
876.889	-22.7
877.062	5.97
877.234	12.12
877.407	51.03
877.579	44.88
877.752	46.93
877.924	-0.17
878.097	32.6
878.269	26.45
878.442	32.6
878.614	14.17
878.786	44.88
878.959	38.74
879.131	3.93
879.303	40.79
879.476	40.79
879.648	10.07
879.82	53.08
879.993	57.17
880.165	87.89
880.337	65.36
880.509	63.32
880.681	12.12
880.854	-28.84
881.026	5.97
881.198	22.36
881.37	26.45
881.542	22.36
881.714	-16.55
881.886	-55.47
882.058	-41.13
882.23	106.32
882.402	-0.17
882.574	-8.36
882.746	-8.36
882.918	16.21
883.09	22.36
883.262	-24.75
883.434	22.36
883.606	-26.79
883.778	-16.55
883.95	63.32
884.122	51.03
884.293	-65.71
884.465	40.79
884.637	24.4
884.809	-20.65
884.98	28.5
885.152	8.02
885.324	79.7
885.496	-10.41
885.667	61.27
885.839	5.97
886.011	28.5
886.182	-0.17
886.354	126.8
886.525	24.4
886.697	3.93
886.869	-6.31
887.04	-2.22
887.212	-0.17
887.383	38.74
887.555	-51.37
887.726	63.32
887.897	98.13
888.069	-14.51
888.24	30.55
888.412	36.69
888.583	-55.47
888.754	55.12
888.926	-51.37
889.097	-8.36
889.268	55.12
889.44	5.97
889.611	-0.17
889.782	-22.7
889.953	-26.79
890.125	89.94
890.296	-0.17
890.467	44.88
890.638	87.89
890.809	65.36
890.98	-57.51
891.151	28.5
891.323	16.21
891.494	14.17
891.665	38.74
891.836	30.55
892.007	-16.55
892.178	12.12
892.349	20.31
892.52	-37.03
892.691	-10.41
892.862	-24.75
893.032	-14.51
893.203	-8.36
893.374	14.17
893.545	-39.08
893.716	-28.84
893.887	51.03
894.057	-32.94
894.228	-41.13
894.399	-20.65
894.57	-8.36
894.74	-32.94
894.911	20.31
895.082	-4.27
895.253	61.27
895.423	48.98
895.594	63.32
895.764	-28.84
895.935	53.08
896.106	-80.04
896.276	-0.17
896.447	-43.18
896.617	-37.03
896.788	20.31
896.958	44.88
897.129	1.88
897.299	53.08
897.47	18.26
897.64	51.03
897.81	61.27
897.981	12.12
898.151	22.36
898.322	-53.42
898.492	-24.75
898.662	-34.99
898.832	42.84
899.003	61.27
899.173	79.7
899.343	-45.23
899.513	-20.65
