Data from USB4F104151__64__12-59-28-083.txt Node

Date: Fri Mar 14 12:59:28 EDT 2025
User: louis
Spectrometer: USB4F10415
Trigger mode: 4
Integration Time (sec): 1.000000E-2
Scans to average: 1
Electric dark correction enabled: true
Nonlinearity correction enabled: false
Boxcar width: 0
XAxis mode: Wavelengths
Number of Pixels in Spectrum: 3648
>>>>>Begin Spectral Data<<<<<
178.204	-61.61
178.424	-61.61
178.644	-61.61
178.864	-86.19
179.084	38.74
179.304	34.64
179.524	-0.17
179.744	18.26
179.964	36.69
180.184	1.88
180.404	20.31
180.624	-16.55
180.844	24.4
181.064	-22.7
181.283	-30.89
181.503	-65.71
181.723	-0.17
181.943	12.12
182.163	-4.27
182.383	-22.7
182.602	75.6
182.822	20.31
183.042	-59.56
183.262	-0.17
183.482	1.88
183.701	-16.55
183.921	44.88
184.141	-10.41
184.361	83.8
184.58	32.6
184.8	-6.31
185.02	-63.66
185.239	89.94
185.459	-6.31
185.679	-0.17
185.898	-8.36
186.118	-39.08
186.338	-47.27
186.557	53.08
186.777	-20.65
186.997	18.26
187.216	3.93
187.436	34.64
187.655	-26.79
187.875	40.79
188.095	38.74
188.314	14.17
188.534	-12.46
188.753	-37.03
188.973	26.45
189.192	-2.22
189.412	-4.27
189.631	-63.66
189.851	1.88
190.07	51.03
190.29	-73.9
190.509	61.27
190.729	-0.17
190.948	81.75
191.168	5.97
191.387	-14.51
191.607	61.27
191.826	-8.36
192.045	10.07
192.265	-73.9
192.484	-12.46
192.704	-20.65
192.923	1.88
193.142	-0.17
193.362	-22.7
193.581	59.22
193.8	20.31
194.02	87.89
194.239	-53.42
194.458	-26.79
194.678	16.21
194.897	20.31
195.116	-12.46
195.335	-0.17
195.555	-28.84
195.774	-8.36
195.993	8.02
196.212	-41.13
196.432	22.36
196.651	-28.84
196.87	18.26
197.089	1.88
197.308	-6.31
197.528	-14.51
197.747	-4.27
197.966	48.98
198.185	-18.6
198.404	26.45
198.623	14.17
198.842	-20.65
199.062	65.36
199.281	-53.42
199.5	-55.47
199.719	71.51
199.938	91.99
200.157	32.6
200.376	-39.08
200.595	-0.17
200.814	-51.37
201.033	-0.17
201.252	44.88
201.471	65.36
201.69	20.31
201.909	-12.46
202.128	59.22
202.347	3.93
202.566	26.45
202.785	22.36
203.004	83.8
203.223	-0.17
203.442	-2.22
203.661	-14.51
203.879	-18.6
204.098	36.69
204.317	10.07
204.536	57.17
204.755	-37.03
204.974	42.84
205.193	-43.18
205.411	73.56
205.63	-22.7
205.849	-26.79
206.068	-2.22
206.287	38.74
206.505	48.98
206.724	26.45
206.943	-28.84
207.162	18.26
207.381	51.03
207.599	-0.17
207.818	16.21
208.037	-47.27
208.255	83.8
208.474	61.27
208.693	-2.22
208.911	48.98
209.13	3.93
209.349	3.93
209.567	-47.27
209.786	51.03
210.005	40.79
210.223	-32.94
210.442	-37.03
210.661	-4.27
210.879	-18.6
211.098	14.17
211.316	-2.22
211.535	-22.7
211.753	14.17
211.972	65.36
212.191	55.12
212.409	16.21
212.628	16.21
212.846	40.79
213.065	98.13
213.283	-30.89
213.502	30.55
213.72	-51.37
213.938	5.97
214.157	30.55
214.375	-20.65
214.594	-4.27
214.812	34.64
215.031	-4.27
215.249	5.97
215.467	61.27
215.686	-6.31
215.904	42.84
216.122	-4.27
216.341	-6.31
216.559	22.36
216.778	3.93
216.996	51.03
217.214	24.4
217.432	18.26
217.651	-26.79
217.869	-65.71
218.087	-4.27
218.306	30.55
218.524	-47.27
218.742	30.55
218.96	10.07
219.179	-24.75
219.397	28.5
219.615	67.41
219.833	-28.84
220.051	-12.46
220.27	16.21
220.488	30.55
220.706	28.5
220.924	89.94
221.142	48.98
221.36	26.45
221.578	-39.08
221.796	24.4
222.015	16.21
222.233	-20.65
222.451	28.5
222.669	-20.65
222.887	1.88
223.105	8.02
223.323	20.31
223.541	1.88
223.759	32.6
223.977	1.88
224.195	8.02
224.413	61.27
224.631	-0.17
224.849	1.88
225.067	57.17
225.285	42.84
225.503	8.02
225.721	-30.89
225.939	-41.13
226.157	-6.31
226.375	59.22
226.592	-18.6
226.81	-47.27
227.028	-14.51
227.246	-12.46
227.464	-28.84
227.682	34.64
227.9	-30.89
228.117	22.36
228.335	-22.7
228.553	12.12
228.771	-2.22
228.989	32.6
229.206	20.31
229.424	3.93
229.642	-47.27
229.86	48.98
230.077	-34.99
230.295	12.12
230.513	-12.46
230.731	26.45
230.948	-24.75
231.166	3.93
231.384	-43.18
231.601	-0.17
231.819	28.5
232.037	1.88
232.254	14.17
232.472	-14.51
232.689	73.56
232.907	5.97
233.125	-45.23
233.342	10.07
233.56	1.88
233.777	-41.13
233.995	16.21
234.213	-30.89
234.43	91.99
234.648	53.08
234.865	-10.41
235.083	30.55
235.3	44.88
235.518	1.88
235.735	-26.79
235.953	-12.46
236.17	-28.84
236.388	-16.55
236.605	-14.51
236.822	48.98
237.04	-39.08
237.257	-16.55
237.475	1.88
237.692	-49.32
237.909	59.22
238.127	-4.27
238.344	38.74
238.562	-16.55
238.779	26.45
238.996	-55.47
239.214	-10.41
239.431	18.26
239.648	-26.79
239.865	32.6
240.083	-14.51
240.3	38.74
240.517	48.98
240.735	-10.41
240.952	34.64
241.169	57.17
241.386	36.69
241.603	53.08
241.821	69.46
242.038	-28.84
242.255	-24.75
242.472	34.64
242.689	-2.22
242.907	48.98
243.124	-49.32
243.341	-8.36
243.558	-20.65
243.775	36.69
243.992	10.07
244.209	57.17
244.426	24.4
244.643	-14.51
244.86	-0.17
245.078	24.4
245.295	-47.27
245.512	-24.75
245.729	-18.6
245.946	-2.22
246.163	-12.46
246.38	38.74
246.597	16.21
246.814	20.31
247.031	-14.51
247.248	-57.51
247.464	67.41
247.681	-6.31
247.898	1.88
248.115	-24.75
248.332	14.17
248.549	75.6
248.766	34.64
248.983	-24.75
249.2	5.97
249.417	16.21
249.633	-59.56
249.85	10.07
250.067	-47.27
250.284	22.36
250.501	-2.22
250.717	5.97
250.934	12.12
251.151	-49.32
251.368	8.02
251.585	-4.27
251.801	3.93
252.018	57.17
252.235	-16.55
252.451	24.4
252.668	-82.09
252.885	18.26
253.102	12.12
253.318	8.02
253.535	18.26
253.752	-8.36
253.968	32.6
254.185	-30.89
254.401	32.6
254.618	-6.31
254.835	1.88
255.051	71.51
255.268	32.6
255.484	59.22
255.701	55.12
255.917	71.51
256.134	-8.36
256.351	18.26
256.567	-4.27
256.784	26.45
257	-10.41
257.217	32.6
257.433	42.84
257.65	-24.75
257.866	59.22
258.082	-32.94
258.299	10.07
258.515	-41.13
258.732	30.55
258.948	-43.18
259.165	-34.99
259.381	14.17
259.597	38.74
259.814	10.07
260.03	-14.51
260.246	-20.65
260.463	-22.7
260.679	71.51
260.895	-45.23
261.112	-8.36
261.328	24.4
261.544	-47.27
261.761	-34.99
261.977	12.12
262.193	-16.55
262.409	16.21
262.626	-57.51
262.842	-32.94
263.058	12.12
263.274	44.88
263.49	12.12
263.707	81.75
263.923	18.26
264.139	5.97
264.355	-10.41
264.571	40.79
264.787	-37.03
265.004	-30.89
265.22	38.74
265.436	14.17
265.652	42.84
265.868	-20.65
266.084	-71.85
266.3	44.88
266.516	3.93
266.732	34.64
266.948	-2.22
267.164	-10.41
267.38	-2.22
267.596	-57.51
267.812	59.22
268.028	-39.08
268.244	59.22
268.46	-0.17
268.676	14.17
268.892	65.36
269.108	1.88
269.324	10.07
269.54	-2.22
269.756	1.88
269.972	-32.94
270.188	10.07
270.403	10.07
270.619	16.21
270.835	8.02
271.051	-0.17
271.267	-67.75
271.483	3.93
271.698	-22.7
271.914	71.51
272.13	-10.41
272.346	61.27
272.562	3.93
272.777	-24.75
272.993	-2.22
273.209	36.69
273.425	10.07
273.64	-8.36
273.856	30.55
274.072	5.97
274.287	24.4
274.503	-20.65
274.719	-8.36
274.934	1.88
275.15	-16.55
275.366	5.97
275.581	-53.42
275.797	-63.66
276.012	16.21
276.228	-22.7
276.444	-14.51
276.659	46.93
276.875	-6.31
277.09	-24.75
277.306	30.55
277.521	-16.55
277.737	-20.65
277.952	-16.55
278.168	-18.6
278.383	18.26
278.599	-53.42
278.814	-8.36
279.03	-47.27
279.245	44.88
279.461	3.93
279.676	28.5
279.892	3.93
280.107	16.21
280.322	44.88
280.538	73.56
280.753	36.69
280.969	44.88
281.184	-24.75
281.399	44.88
281.615	48.98
281.83	-0.17
282.045	20.31
282.26	-47.27
282.476	42.84
282.691	3.93
282.906	12.12
283.122	51.03
283.337	61.27
283.552	18.26
283.767	-53.42
283.983	57.17
284.198	32.6
284.413	51.03
284.628	-4.27
284.843	42.84
285.058	-0.17
285.274	-0.17
285.489	3.93
285.704	-26.79
285.919	-0.17
286.134	69.46
286.349	-16.55
286.564	-24.75
286.779	48.98
286.995	-45.23
287.21	-6.31
287.425	-41.13
287.64	32.6
287.855	-14.51
288.07	24.4
288.285	-26.79
288.5	-22.7
288.715	-4.27
288.93	32.6
289.145	42.84
289.36	5.97
289.575	-39.08
289.79	30.55
290.004	71.51
290.219	-14.51
290.434	5.97
290.649	44.88
290.864	32.6
291.079	-16.55
291.294	40.79
291.509	57.17
291.724	32.6
291.938	24.4
292.153	18.26
292.368	20.31
292.583	-4.27
292.798	14.17
293.012	-12.46
293.227	79.7
293.442	-39.08
293.657	-8.36
293.871	51.03
294.086	34.64
294.301	-2.22
294.516	-2.22
294.73	28.5
294.945	-51.37
295.16	48.98
295.374	-4.27
295.589	32.6
295.804	-45.23
296.018	26.45
296.233	46.93
296.447	42.84
296.662	-18.6
296.877	69.46
297.091	1.88
297.306	16.21
297.52	-28.84
297.735	-22.7
297.949	3.93
298.164	20.31
298.378	-26.79
298.593	1.88
298.807	-26.79
299.022	-57.51
299.236	24.4
299.451	18.26
299.665	-18.6
299.88	-88.23
300.094	-6.31
300.309	44.88
300.523	34.64
300.737	-24.75
300.952	3.93
301.166	3.93
301.381	10.07
301.595	46.93
301.809	-2.22
302.024	51.03
302.238	26.45
302.452	18.26
302.667	44.88
302.881	51.03
303.095	12.12
303.309	1.88
303.524	-26.79
303.738	-12.46
303.952	-65.71
304.166	16.21
304.381	5.97
304.595	73.56
304.809	40.79
305.023	28.5
305.237	16.21
305.452	-14.51
305.666	-2.22
305.88	-34.99
306.094	57.17
306.308	5.97
306.522	-57.51
306.736	-16.55
306.95	26.45
307.164	-61.61
307.379	14.17
307.593	10.07
307.807	8.02
308.021	75.6
308.235	-39.08
308.449	-37.03
308.663	-61.61
308.877	26.45
309.091	12.12
309.305	32.6
309.519	5.97
309.733	34.64
309.947	1.88
310.161	16.21
310.374	36.69
310.588	59.22
310.802	18.26
311.016	-32.94
311.23	-4.27
311.444	-53.42
311.658	53.08
311.872	28.5
312.085	1.88
312.299	-55.47
312.513	38.74
312.727	44.88
312.941	18.26
313.154	3.93
313.368	26.45
313.582	42.84
313.796	-53.42
314.009	16.21
314.223	55.12
314.437	-6.31
314.651	48.98
314.864	-24.75
315.078	38.74
315.292	8.02
315.505	-2.22
315.719	-47.27
315.933	-6.31
316.146	12.12
316.36	-26.79
316.573	30.55
316.787	-34.99
317.001	42.84
317.214	-10.41
317.428	53.08
317.641	-34.99
317.855	77.65
318.068	59.22
318.282	40.79
318.495	159.57
318.709	71.51
318.922	-24.75
319.136	61.27
319.349	-8.36
319.563	-16.55
319.776	18.26
319.99	24.4
320.203	34.64
320.417	83.8
320.63	51.03
320.843	38.74
321.057	32.6
321.27	-41.13
321.483	-8.36
321.697	18.26
321.91	10.07
322.124	63.32
322.337	53.08
322.55	-86.19
322.763	10.07
322.977	16.21
323.19	-6.31
323.403	-28.84
323.617	-20.65
323.83	-18.6
324.043	10.07
324.256	34.64
324.469	18.26
324.683	28.5
324.896	38.74
325.109	-37.03
325.322	-12.46
325.535	65.36
325.748	-4.27
325.962	20.31
326.175	-24.75
326.388	1.88
326.601	16.21
326.814	-4.27
327.027	67.41
327.24	-0.17
327.453	20.31
327.666	28.5
327.879	1.88
328.092	12.12
328.305	81.75
328.518	1.88
328.731	28.5
328.944	-16.55
329.157	8.02
329.37	-4.27
329.583	-14.51
329.796	3.93
330.009	-12.46
330.222	8.02
330.435	79.7
330.648	26.45
330.861	40.79
331.073	-22.7
331.286	91.99
331.499	28.5
331.712	-51.37
331.925	-12.46
332.138	40.79
332.35	57.17
332.563	5.97
332.776	8.02
332.989	10.07
333.202	36.69
333.414	-4.27
333.627	46.93
333.84	-12.46
334.053	-4.27
334.265	-32.94
334.478	65.36
334.691	12.12
334.903	28.5
335.116	-53.42
335.329	73.56
335.541	3.93
335.754	20.31
335.966	-2.22
336.179	-6.31
336.392	-49.32
336.604	-41.13
336.817	-16.55
337.029	63.32
337.242	-30.89
337.454	-20.65
337.667	-16.55
337.88	85.84
338.092	-24.75
338.305	83.8
338.517	16.21
338.729	12.12
338.942	16.21
339.154	-4.27
339.367	1.88
339.579	-2.22
339.792	87.89
340.004	44.88
340.217	24.4
340.429	3.93
340.641	-6.31
340.854	48.98
341.066	-32.94
341.278	20.31
341.491	22.36
341.703	-20.65
341.915	36.69
342.128	-30.89
342.34	8.02
342.552	81.75
342.764	14.17
342.977	34.64
343.189	-32.94
343.401	-0.17
343.613	-41.13
343.826	12.12
344.038	-8.36
344.25	34.64
344.462	59.22
344.674	-6.31
344.886	-51.37
345.099	91.99
345.311	28.5
345.523	40.79
345.735	10.07
345.947	-4.27
346.159	-41.13
346.371	55.12
346.583	-0.17
346.795	46.93
347.007	-2.22
347.219	28.5
347.431	-20.65
347.643	67.41
347.855	48.98
348.067	10.07
348.279	-20.65
348.491	1.88
348.703	-43.18
348.915	28.5
349.127	-24.75
349.339	42.84
349.551	24.4
349.763	38.74
349.975	18.26
350.187	-24.75
350.399	-14.51
350.61	20.31
350.822	42.84
351.034	16.21
351.246	14.17
351.458	-24.75
351.669	32.6
351.881	44.88
352.093	22.36
352.305	-30.89
352.517	14.17
352.728	61.27
352.94	51.03
353.152	-28.84
353.363	8.02
353.575	28.5
353.787	26.45
353.999	67.41
354.21	-22.7
354.422	-12.46
354.633	-0.17
354.845	8.02
355.057	44.88
355.268	14.17
355.48	61.27
355.692	-39.08
355.903	73.56
356.115	46.93
356.326	-14.51
356.538	-37.03
356.749	10.07
356.961	8.02
357.172	-28.84
357.384	38.74
357.595	-32.94
357.807	3.93
358.018	34.64
358.23	16.21
358.441	73.56
358.653	51.03
358.864	55.12
359.075	-22.7
359.287	-73.9
359.498	53.08
359.709	30.55
359.921	-0.17
360.132	-49.32
360.344	-67.75
360.555	26.45
360.766	44.88
360.977	16.21
361.189	-26.79
361.4	28.5
361.611	-18.6
361.823	38.74
362.034	44.88
362.245	34.64
362.456	30.55
362.667	3.93
362.879	-2.22
363.09	53.08
363.301	34.64
363.512	-8.36
363.723	-16.55
363.935	12.12
364.146	65.36
364.357	18.26
364.568	1.88
364.779	12.12
364.99	28.5
365.201	38.74
365.412	-45.23
365.623	14.17
365.834	51.03
366.045	14.17
366.256	73.56
366.467	-20.65
366.678	-63.66
366.889	8.02
367.1	75.6
367.311	20.31
367.522	30.55
367.733	18.26
367.944	24.4
368.155	8.02
368.366	57.17
368.577	51.03
368.788	36.69
368.999	40.79
369.209	87.89
369.42	34.64
369.631	73.56
369.842	-20.65
370.053	38.74
370.264	-28.84
370.474	28.5
370.685	12.12
370.896	12.12
371.107	32.6
371.317	20.31
371.528	-45.23
371.739	8.02
371.95	42.84
372.16	-34.99
372.371	-34.99
372.582	-8.36
372.792	-39.08
373.003	18.26
373.214	-14.51
373.424	34.64
373.635	24.4
373.846	18.26
374.056	46.93
374.267	12.12
374.477	-14.51
374.688	16.21
374.898	65.36
375.109	57.17
375.319	-14.51
375.53	79.7
375.74	-24.75
375.951	-65.71
376.161	83.8
376.372	5.97
376.582	-10.41
376.793	57.17
377.003	42.84
377.214	-22.7
377.424	-16.55
377.635	-4.27
377.845	26.45
378.055	38.74
378.266	-67.75
378.476	10.07
378.686	40.79
378.897	-20.65
379.107	63.32
379.317	59.22
379.528	87.89
379.738	96.08
379.948	-8.36
380.158	-0.17
380.369	26.45
380.579	48.98
380.789	63.32
380.999	26.45
381.21	-2.22
381.42	59.22
381.63	69.46
381.84	20.31
382.05	12.12
382.261	89.94
382.471	-2.22
382.681	51.03
382.891	51.03
383.101	-28.84
383.311	-16.55
383.521	18.26
383.731	18.26
383.941	63.32
384.151	108.37
384.361	46.93
384.571	110.42
384.781	96.08
384.991	53.08
385.201	48.98
385.411	-14.51
385.621	20.31
385.831	8.02
386.041	40.79
386.251	48.98
386.461	-0.17
386.671	38.74
386.881	22.36
387.091	12.12
387.301	81.75
387.511	12.12
387.72	48.98
387.93	30.55
388.14	28.5
388.35	38.74
388.56	12.12
388.769	8.02
388.979	-55.47
389.189	-32.94
389.399	57.17
389.609	44.88
389.818	-24.75
390.028	34.64
390.238	1.88
390.447	-16.55
390.657	63.32
390.867	-20.65
391.076	61.27
391.286	-10.41
391.496	-0.17
391.705	12.12
391.915	1.88
392.125	-37.03
392.334	8.02
392.544	44.88
392.753	98.13
392.963	77.65
393.172	16.21
393.382	65.36
393.591	106.32
393.801	48.98
394.01	59.22
394.22	73.56
394.429	53.08
394.639	-77.99
394.848	40.79
395.058	71.51
395.267	3.93
395.477	-24.75
395.686	55.12
395.895	94.04
396.105	5.97
396.314	30.55
396.524	-12.46
396.733	-18.6
396.942	100.18
397.152	20.31
397.361	42.84
397.57	77.65
397.78	126.8
397.989	94.04
398.198	32.6
398.407	89.94
398.617	42.84
398.826	104.28
399.035	34.64
399.244	59.22
399.453	-2.22
399.663	63.32
399.872	104.28
400.081	44.88
400.29	48.98
400.499	75.6
400.708	26.45
400.917	108.37
401.127	26.45
401.336	46.93
401.545	81.75
401.754	44.88
401.963	26.45
402.172	75.6
402.381	59.22
402.59	44.88
402.799	16.21
403.008	-0.17
403.217	77.65
403.426	36.69
403.635	91.99
403.844	83.8
404.053	55.12
404.262	51.03
404.471	149.33
404.68	75.6
404.888	40.79
405.097	83.8
405.306	91.99
405.515	34.64
405.724	3.93
405.933	67.41
406.142	126.8
406.35	128.85
406.559	124.76
406.768	91.99
406.977	137.04
407.185	87.89
407.394	114.52
407.603	8.02
407.812	153.43
408.02	89.94
408.229	149.33
408.438	163.67
408.646	145.24
408.855	143.19
409.064	141.14
409.272	139.09
409.481	122.71
409.69	118.61
409.898	212.82
410.107	145.24
410.315	180.05
410.524	147.28
410.733	94.04
410.941	91.99
411.15	247.63
411.358	190.29
411.567	194.39
411.775	253.78
411.984	227.15
412.192	190.29
412.401	180.05
412.609	274.26
412.818	245.59
413.026	264.02
413.234	304.98
413.443	362.32
413.651	272.21
413.86	259.92
414.068	378.7
414.276	343.89
414.485	397.14
414.693	345.94
414.901	421.71
415.11	401.23
415.318	446.29
415.526	388.94
415.734	411.47
415.943	444.24
416.151	499.53
416.359	477.01
416.567	472.91
416.776	526.16
416.984	485.2
417.192	528.21
417.4	532.3
417.608	646.99
417.817	630.6
418.025	634.7
418.233	689.99
418.441	749.39
418.649	552.78
418.857	665.42
419.065	730.95
419.273	696.14
419.481	749.39
419.689	769.87
419.897	941.89
420.105	880.46
420.313	970.57
420.521	1027.91
420.729	935.75
420.937	931.66
421.145	1009.48
421.353	993.09
421.561	1113.92
421.769	1177.41
421.977	1099.59
422.185	1111.88
422.393	1292.1
422.601	1324.87
422.809	1429.31
423.017	1380.16
423.224	1417.02
423.432	1396.54
423.64	1445.7
423.848	1560.38
424.056	1576.77
424.263	1546.05
424.471	1689.4
424.679	1683.26
424.887	1638.2
425.094	1812.28
425.302	1838.91
425.51	1859.38
425.718	1918.78
425.925	1961.78
426.133	2037.56
426.341	2156.34
426.548	2283.31
426.756	2258.74
426.964	2271.03
427.171	2342.71
427.379	2484.02
427.586	2461.49
427.794	2596.65
428.001	2604.85
428.209	2811.69
428.417	2756.4
428.624	2938.66
428.832	2981.67
429.039	3004.2
429.247	2971.43
429.454	3235.62
429.662	3393.31
429.869	3321.63
430.076	3606.3
430.284	3311.39
430.491	3522.34
430.699	3680.03
430.906	3784.48
431.114	3790.62
431.321	3942.17
431.528	3927.83
431.736	4343.57
431.943	4382.48
432.15	4364.05
432.358	4345.62
432.565	4591.38
432.772	4597.52
432.979	4693.77
433.187	5078.79
433.394	4898.57
433.601	5099.27
433.808	5256.97
434.016	5224.2
434.223	5662.46
434.43	5709.57
434.637	5760.77
434.844	6037.24
435.052	6110.97
435.259	5981.95
435.466	6217.46
435.673	6182.65
435.88	6520.56
436.087	6897.39
436.294	6948.59
436.501	6639.34
436.708	6831.85
436.915	6969.07
437.122	7356.13
437.329	7280.36
437.537	7642.85
437.743	7814.88
437.95	7618.27
438.157	8175.32
438.364	8378.07
438.571	8083.16
438.778	8335.06
438.985	9184.97
439.192	8816.33
439.399	9148.11
439.606	8888.01
439.813	9397.96
440.02	10024.64
440.227	9854.65
440.433	9649.86
440.64	10032.83
440.847	10090.17
441.054	10286.78
441.261	10999.47
441.467	10700.47
441.674	11024.05
441.881	11402.92
442.088	11425.45
442.294	11259.56
442.501	11513.51
442.708	11894.43
442.914	12185.24
443.121	12682.9
443.328	12795.54
443.534	13416.07
443.741	12648.08
443.948	12899.98
444.154	13721.22
444.361	13551.24
444.568	13901.44
444.774	13581.96
444.981	13876.87
445.187	14349.95
445.394	15036.02
445.6	14823.03
445.807	16483.93
446.013	15648.36
446.22	16115.3
446.426	16666.2
446.633	16762.45
446.839	17030.74
447.046	16627.29
447.252	17442.38
447.459	17802.82
447.665	17522.25
447.871	18353.73
448.078	19277.36
448.284	18263.61
448.491	18904.63
448.697	19142.19
448.903	19832.36
449.11	19858.98
449.316	19840.55
449.522	19961.38
449.728	20489.76
449.935	20796.95
450.141	20796.95
450.347	21296.66
450.553	20614.68
450.76	20663.83
450.966	21677.58
451.172	21341.71
451.378	21915.14
451.584	21540.36
451.791	21839.37
451.997	22214.15
452.203	22504.96
452.409	22244.87
452.615	22224.39
452.821	21636.62
453.027	21423.63
453.233	22377.98
453.44	21665.29
453.646	21757.45
453.852	21970.44
454.058	22068.74
454.264	21358.1
454.47	22216.19
454.676	21282.32
454.882	22451.71
455.088	20405.79
455.294	20717.08
455.5	21061.14
455.705	21302.8
455.911	20434.46
456.117	20129.31
456.323	19787.3
456.529	18929.2
456.735	19885.61
456.941	19115.57
457.147	18898.48
457.352	18265.66
457.558	18089.54
457.764	18171.46
457.97	17905.22
458.176	17292.88
458.381	17481.29
458.587	16406.11
458.793	16447.07
458.999	15486.57
459.204	16801.36
459.41	16404.06
459.616	15040.11
459.821	15150.7
460.027	15384.17
460.233	14882.42
460.438	14075.52
460.644	14425.72
460.85	13737.6
461.055	13610.63
461.261	13387.4
461.466	12596.89
461.672	12261.02
461.878	13010.57
462.083	11984.54
462.289	11591.33
462.494	11730.59
462.7	11263.66
462.905	10821.3
463.111	11263.66
463.316	11226.79
463.522	11116.2
463.727	11132.59
463.932	11024.05
464.138	10938.03
464.343	10966.7
464.549	10704.56
464.754	10921.65
464.959	11099.82
465.165	10913.45
465.37	10417.85
465.575	10131.13
465.781	10639.03
465.986	10692.27
466.191	10530.48
466.397	9868.99
466.602	9684.67
466.807	9883.33
467.012	10026.68
467.218	9723.58
467.423	9580.23
467.628	9844.42
467.833	10206.91
468.038	9750.21
468.244	9647.81
468.449	9868.99
468.654	9639.62
468.859	9588.42
469.064	9338.57
469.269	9094.86
469.474	9238.22
469.679	9395.91
469.885	9248.46
470.09	9240.26
470.295	9107.15
470.5	8855.25
470.705	8937.16
470.91	8775.38
471.115	8560.34
471.32	8830.67
471.525	8842.96
471.73	8505.04
471.935	8531.67
472.139	8425.17
472.344	8384.21
472.549	8290.01
472.754	8232.66
472.959	8072.92
473.164	7741.15
473.369	7808.73
473.574	7915.23
473.778	7853.79
473.983	7806.69
474.188	7993.05
474.393	7653.09
474.598	7524.07
474.802	7489.25
475.007	7472.87
475.212	7499.49
475.417	7241.45
475.621	7153.38
475.826	7231.21
476.031	7306.98
476.235	7018.22
476.44	7100.14
476.645	6766.32
476.849	6821.61
477.054	6811.37
477.259	6694.64
477.463	6645.49
477.668	6616.82
477.872	6672.11
478.077	6463.22
478.282	6348.53
478.486	6477.55
478.691	6293.24
478.895	6278.9
479.1	6317.81
479.304	6418.16
479.509	6170.36
479.713	6225.65
479.918	5988.09
480.122	6010.62
480.326	5928.7
480.531	6080.25
480.735	5990.14
480.94	6016.76
481.144	5930.75
481.348	5869.31
481.553	5912.32
481.757	5920.51
481.961	5986.04
482.166	5963.51
482.37	5637.89
482.574	5746.43
482.778	5734.14
482.983	5973.75
483.187	5797.63
483.391	5922.55
483.595	5807.87
483.8	5639.94
484.004	5852.92
484.208	5859.07
484.412	5736.19
484.616	5897.98
484.821	5945.08
485.025	5719.81
485.229	5838.59
485.433	5861.12
485.637	5754.62
485.841	5895.93
486.045	5676.8
486.249	5799.68
486.453	5736.19
486.657	5639.94
486.861	5959.42
487.065	5803.77
487.269	5639.94
487.473	5750.53
487.677	5865.21
487.881	5768.96
488.085	5861.12
488.289	5795.58
488.493	5865.21
488.697	5990.14
488.901	5949.18
489.105	6000.38
489.309	5836.54
489.512	6045.43
489.716	5926.65
489.92	5940.99
490.124	5863.16
490.328	6135.54
490.531	6008.57
490.735	5957.37
490.939	6188.79
491.143	5924.6
491.346	6029.05
491.55	6266.61
491.754	6182.65
491.958	6194.93
492.161	6149.88
492.365	6266.61
492.569	6297.33
492.772	6151.93
492.976	6192.89
493.18	6465.27
493.383	6461.17
493.587	6477.55
493.79	6430.45
493.994	6569.71
494.197	6512.37
494.401	6776.56
494.605	6665.97
494.808	6674.16
495.012	6887.15
495.215	6770.41
495.419	6829.81
495.622	6866.67
495.825	6905.58
496.029	6831.85
496.232	7046.89
496.436	7087.85
496.639	7202.54
496.843	7251.69
497.046	7313.13
497.249	7356.13
497.453	7487.2
497.656	7714.53
497.859	7495.39
498.063	7597.79
498.266	7798.49
498.469	7829.21
498.673	7896.8
498.876	7984.86
499.079	8226.52
499.282	8201.94
499.485	8509.14
499.689	8388.31
499.892	8644.31
500.095	8521.43
500.298	8722.13
500.501	8785.62
500.705	9113.29
500.908	9133.77
501.111	9268.94
501.314	9264.84
501.517	9455.3
501.72	9500.36
501.923	9455.3
502.126	9664.19
502.329	9952.96
502.532	9934.53
502.735	9967.29
502.938	10157.75
503.141	10127.03
503.344	10460.85
503.547	10340.02
503.75	10485.43
503.953	10753.71
504.156	10901.17
504.359	10897.07
504.562	11138.73
504.765	11380.39
504.968	11450.02
505.17	11595.43
505.373	11583.14
505.576	11849.38
505.779	12168.86
505.982	11957.92
506.185	12318.36
506.387	12304.03
506.59	12662.42
506.793	12811.92
506.996	12836.5
507.198	13088.4
507.401	13131.4
507.604	13366.92
507.807	13717.12
508.009	13792.9
508.212	13854.34
508.415	14012.03
508.617	14278.27
508.82	14278.27
509.022	14204.54
509.225	14806.64
509.428	14882.42
509.63	14952.05
509.833	15099.5
510.035	15345.26
510.238	15324.78
510.44	15793.76
510.643	15902.31
510.845	16170.59
511.048	15883.87
511.25	16254.56
511.453	16451.16
511.655	16987.73
511.858	16756.31
512.06	17034.83
512.262	17165.9
512.465	17514.06
512.667	17653.32
512.87	17589.83
513.072	17671.75
513.274	18331.2
513.477	18292.29
513.679	18478.65
513.881	18804.28
514.084	19129.91
514.286	19017.27
514.488	19058.23
514.69	19826.21
514.893	19674.67
515.095	19861.03
515.297	20325.92
515.499	20350.49
515.701	20678.17
515.904	20837.91
516.106	20659.74
516.308	21044.76
516.51	21693.96
516.712	21476.88
516.914	21734.92
517.116	22183.43
517.318	22060.55
517.52	22425.09
517.722	22461.95
517.925	22689.28
518.127	23209.46
518.329	23315.95
518.531	23268.85
518.733	23682.54
518.935	23692.78
519.136	23795.18
519.338	24722.91
519.54	24329.7
519.742	24749.53
519.944	24800.73
520.146	25288.15
520.348	25370.07
520.55	25644.49
520.752	25730.51
520.954	25937.35
521.155	26086.86
521.357	26361.28
521.559	26566.08
521.761	27225.53
521.963	26887.61
522.164	27387.32
522.366	27090.36
522.568	27872.68
522.77	27807.15
522.971	28081.58
523.173	28222.89
523.375	28308.9
523.576	28224.93
523.778	28571.04
523.98	29025.69
524.181	28777.89
524.383	29392.28
524.584	29572.5
524.786	29336.98
524.988	29515.15
525.189	29922.7
525.391	30059.91
525.592	30520.71
525.794	30330.25
525.995	30614.91
526.197	30745.98
526.398	30776.7
526.6	30711.17
526.801	31018.36
527.003	31364.47
527.204	31278.46
527.406	31628.66
527.607	31237.5
527.808	32101.74
528.01	31321.46
528.211	31647.09
528.412	32302.44
528.614	32075.12
528.815	32130.41
529.016	32550.24
529.218	32347.5
529.419	32247.15
529.62	32423.27
529.822	32351.59
530.023	32580.96
530.224	32542.05
530.425	32554.34
530.626	32228.71
530.828	32300.39
531.029	33064.28
531.23	32806.24
531.431	32351.59
531.632	32988.51
531.833	32968.03
532.035	33082.72
532.236	33174.88
532.437	33344.86
532.638	33316.18
532.839	33135.96
533.04	33342.81
533.241	33211.74
533.442	33482.07
533.643	33375.58
533.844	33004.89
534.045	33383.77
534.246	33402.2
534.447	33553.75
534.648	33484.12
534.849	33406.3
535.05	33488.21
535.251	33693.01
535.451	33615.19
535.652	33666.39
535.853	33385.82
536.054	33410.39
536.255	33965.39
536.456	33607
536.657	34082.13
536.857	33236.31
537.058	33369.43
537.259	34026.83
537.46	33656.15
537.66	33617.24
537.861	33690.96
538.062	33623.38
538.263	34039.12
538.463	33668.44
538.664	33480.02
538.865	33828.18
539.065	33686.87
539.266	33381.72
539.466	33867.09
539.667	33365.34
539.868	34159.95
540.068	33709.39
540.269	33596.76
540.469	34217.29
540.67	33488.21
540.87	33563.99
541.071	33668.44
541.271	33412.44
541.472	33776.98
541.672	33740.11
541.873	33074.52
542.073	33201.5
542.274	33955.15
542.474	33668.44
542.675	33217.88
542.875	33961.3
543.075	33717.59
543.276	33125.72
543.476	34108.75
543.676	33260.89
543.877	33434.97
544.077	33602.9
544.277	33557.85
544.478	33148.25
544.678	34028.88
544.878	33848.66
545.078	33580.37
545.279	33475.93
545.479	33236.31
545.679	33611.09
545.879	33783.12
546.079	33738.07
546.28	33105.24
546.48	33154.4
546.68	33650
546.88	33381.72
547.08	33752.4
547.28	33031.52
547.48	32929.12
547.68	33721.68
547.88	33320.28
548.081	33410.39
548.281	33252.7
548.481	33469.78
548.681	33482.07
548.881	33230.17
549.081	33404.25
549.28	33346.9
549.48	33437.02
549.68	33099.1
549.88	33637.72
550.08	33318.23
550.28	33258.84
550.48	32855.39
550.68	33690.96
550.88	33363.29
551.08	33779.03
551.279	33445.21
551.479	33396.06
551.679	33158.49
551.879	33115.48
552.079	33348.95
552.278	33369.43
552.478	33201.5
552.678	32931.17
552.878	33351
553.077	33658.2
553.277	33176.92
553.477	33688.92
553.676	32720.23
553.876	33107.29
554.076	33391.96
554.275	32953.69
554.475	33178.97
554.674	33342.81
554.874	33103.2
555.074	33140.06
555.273	33056.09
555.473	33045.85
555.672	32949.6
555.872	33123.68
556.071	32910.69
556.271	33019.23
556.47	32654.69
556.67	32816.48
556.869	32791.9
557.068	32558.44
557.268	32621.92
557.467	32894.3
557.667	32656.74
557.866	32589.16
558.065	32752.99
558.265	32343.4
558.464	32353.64
558.663	32716.13
558.863	32277.86
559.062	32863.58
559.261	31978.86
559.461	32576.87
559.66	31759.73
559.859	32544.1
560.058	31903.09
560.258	31931.76
560.457	31776.11
560.656	32372.07
560.855	32142.7
561.054	31804.78
561.253	31690.1
561.453	31942
561.652	31851.89
561.851	32097.64
562.05	31767.92
562.249	31571.32
562.448	31843.7
562.647	31450.49
562.846	31546.74
563.045	31518.07
563.244	31214.97
563.443	31382.9
563.642	31219.06
563.841	31507.83
564.04	31317.37
564.239	31649.14
564.438	31067.52
564.637	30938.49
564.836	31251.83
565.035	30748.03
565.234	31102.33
565.432	30989.69
565.631	30971.26
565.83	30756.22
566.029	30750.08
566.228	30655.87
566.427	30444.93
566.625	30485.89
566.824	30246.28
567.023	30440.84
567.222	30283.14
567.42	30619.01
567.619	30260.62
567.818	30057.87
568.016	30190.98
568.215	30350.73
568.414	30025.1
568.612	30158.22
568.811	29863.31
569.01	30000.52
569.208	29345.17
569.407	29781.39
569.605	29363.61
569.804	29998.48
570.002	29449.62
570.201	29404.56
570.4	29203.86
570.598	29023.64
570.797	28792.22
570.995	28847.52
571.193	28730.78
571.392	29152.66
571.59	28603.81
571.789	28730.78
571.987	28788.13
572.186	28497.31
572.384	28593.57
572.582	28540.32
572.781	28935.58
572.979	28364.2
573.177	28493.22
573.376	28708.26
573.574	27983.27
573.772	28210.6
573.971	27934.12
574.169	27813.29
574.367	27778.48
574.565	27862.44
574.763	27565.49
574.962	27438.51
575.16	27332.02
575.358	27583.92
575.556	27200.95
575.754	27737.52
575.952	27133.37
576.151	27643.31
576.349	26803.64
576.547	27016.63
576.745	27055.54
576.943	27002.3
577.141	26660.29
577.339	26922.43
577.537	26840.51
577.735	26500.54
577.933	26516.93
578.131	26645.95
578.329	26361.28
578.527	26052.04
578.725	26383.81
578.923	26457.54
579.121	26314.18
579.319	26002.89
579.516	26234.31
579.714	26074.57
579.912	25896.39
580.11	25900.49
580.308	25638.35
580.506	25769.42
580.704	25552.34
580.901	25445.84
581.099	25589.2
581.297	25109.97
581.495	25128.41
581.692	25601.49
581.89	24985.05
582.088	25695.69
582.285	25191.89
582.483	25308.63
582.681	25103.83
582.878	25015.77
583.076	24671.71
583.274	24892.89
583.471	24395.23
583.669	24870.36
583.866	24384.99
584.064	24520.16
584.262	24374.75
584.459	24542.69
584.657	24370.66
584.854	24493.54
585.052	23834.09
585.249	24339.94
585.447	23934.44
585.644	23748.07
585.841	24129
586.039	23852.52
586.236	23700.97
586.434	23207.41
586.631	23674.35
586.828	23510.51
587.026	23512.56
587.223	23234.03
587.42	23686.64
587.618	23207.41
587.815	23068.15
588.012	23098.87
588.21	23225.84
588.407	23338.48
588.604	22830.58
588.801	23043.57
588.999	22748.67
589.196	23021.05
589.393	22992.37
589.59	22754.81
589.787	22224.39
589.984	22593.02
590.182	22355.46
590.379	22347.26
590.576	22396.42
590.773	22328.83
590.97	22160.9
591.167	22126.08
591.364	21816.84
591.561	21988.87
591.758	21683.72
591.955	21831.18
592.152	21976.58
592.349	21513.74
592.546	21872.14
592.743	22001.16
592.94	21280.27
593.137	21612.04
593.334	21720.59
593.531	21218.83
593.727	21454.35
593.924	21472.78
594.121	21210.64
594.318	21216.79
594.515	21126.67
594.712	21112.34
594.908	20768.28
595.105	21255.7
595.302	20747.8
595.499	20751.9
595.696	21032.47
595.892	20381.21
596.089	20829.72
596.286	20807.19
596.482	20581.92
596.679	20254.24
596.876	20284.96
597.072	20045.35
597.269	20362.78
597.466	20104.74
597.662	20164.13
597.859	20198.95
598.055	20278.82
598.252	19936.81
598.448	19836.45
598.645	19881.51
598.841	19928.61
599.038	19627.56
599.234	19691.05
599.431	19564.07
599.627	19355.18
599.824	19652.14
600.02	19519.02
600.217	19441.2
600.413	19260.98
600.609	19260.98
600.806	19166.77
601.002	19252.78
601.198	18966.07
601.395	18882.1
601.591	18861.62
601.787	18732.6
601.984	18853.43
602.18	18918.96
602.376	18708.02
602.572	18638.39
602.769	18822.71
602.965	18468.41
603.161	18607.67
603.357	18318.91
603.553	18402.88
603.75	18370.11
603.946	18298.43
604.142	18263.61
604.338	17894.98
604.534	18386.49
604.73	18048.58
604.926	17960.52
605.122	17862.21
605.318	17823.3
605.514	17634.89
605.71	17720.9
605.906	17686.09
606.102	17526.35
606.298	17641.03
606.494	17636.94
606.69	17550.92
606.886	17626.7
607.082	17122.9
607.278	17651.27
607.474	17194.57
607.67	17403.47
607.866	17188.43
608.062	17358.41
608.257	17239.63
608.453	16926.29
608.649	17245.77
608.845	16797.27
609.041	16928.34
609.236	17016.4
609.432	17116.75
609.628	16799.32
609.824	16627.29
610.019	17043.03
610.215	16701.01
610.411	16641.62
610.606	16512.6
610.802	16672.34
610.998	16768.6
611.193	16563.8
611.389	16500.31
611.584	16436.83
611.78	16168.54
611.976	16121.44
612.171	16465.5
612.367	16219.74
612.562	15984.23
612.758	16193.12
612.953	16082.53
613.149	16248.41
613.344	16051.81
613.539	16402.01
613.735	15898.21
613.93	16170.59
614.126	15836.77
614.321	16197.21
614.517	15978.08
614.712	15861.35
614.907	15875.68
615.103	15885.92
615.298	15887.97
615.493	15836.77
615.688	15513.19
615.884	15720.04
616.079	15341.16
616.274	15505
616.47	15568.49
616.665	15650.41
616.86	15502.95
617.055	15605.35
617.25	15343.21
617.445	15654.5
617.641	15206
617.836	15394.41
618.031	15119.98
618.226	15455.85
618.421	15191.66
618.616	15236.72
618.811	15007.34
619.006	15038.06
619.201	14706.29
619.396	14614.13
619.591	14884.47
619.786	14743.16
619.981	14556.79
620.176	14526.07
620.371	14509.69
620.566	14589.56
620.761	14513.78
620.956	14458.49
621.151	14339.71
621.346	14028.42
621.541	14096
621.735	14270.08
621.93	13899.39
622.125	13956.74
622.32	13803.14
622.515	13907.59
622.709	13819.52
622.904	13655.68
623.099	13426.31
623.294	13612.68
623.488	13538.95
623.683	13430.41
623.878	13188.75
624.072	13121.17
624.267	13147.79
624.462	12824.21
624.656	12834.45
624.851	13155.98
625.046	12906.13
625.24	12965.52
625.435	12678.8
625.629	12682.9
625.824	12748.43
626.018	12555.93
626.213	12240.54
626.407	12441.24
626.602	12263.07
626.796	12492.44
626.991	12324.51
627.185	12392.09
627.38	12091.04
627.574	12068.51
627.768	11886.24
627.963	11939.49
628.157	11746.98
628.352	11794.08
628.546	11847.33
628.74	11779.75
628.935	11617.96
629.129	11452.07
629.323	11413.16
629.517	11402.92
629.712	11513.51
629.906	11261.61
630.1	11232.94
630.294	11126.44
630.489	11208.36
630.683	11177.64
630.877	11034.28
631.071	11030.19
631.265	10950.32
631.459	10866.35
631.653	10661.55
631.848	10845.87
632.042	10657.46
632.236	10806.96
632.43	10630.84
632.624	10600.12
632.818	10346.17
633.012	10444.47
633.206	10372.79
633.4	10456.76
633.594	10299.06
633.788	10208.95
633.982	10057.4
634.176	10254.01
634.369	10051.26
634.563	9883.33
634.757	9993.92
634.951	10022.59
635.145	9840.32
635.339	9891.52
635.533	9744.06
635.726	9811.65
635.92	9668.29
636.114	9641.67
636.308	9596.61
636.501	9701.06
636.695	9594.56
636.889	9531.08
637.083	9326.28
637.276	9375.43
637.47	9043.66
637.664	9156.3
637.857	9225.93
638.051	9158.35
638.244	8902.35
638.438	8885.97
638.632	8971.98
638.825	8947.4
639.019	8904.4
639.212	8922.83
639.406	8877.77
639.599	8537.81
639.793	8806.09
639.986	8769.23
640.18	8654.55
640.373	8634.07
640.567	8281.81
640.76	8277.72
640.954	8406.74
641.147	8316.63
641.34	8398.55
641.534	8040.15
641.727	8312.53
641.92	8134.36
642.114	8138.46
642.307	8171.22
642.5	7917.28
642.694	8007.39
642.887	7773.92
643.08	7786.21
643.273	7755.49
643.467	7855.84
643.66	7610.08
643.853	7612.13
644.046	7577.31
644.239	7536.35
644.432	7603.94
644.626	7442.15
644.819	7487.2
645.012	7349.99
645.205	7536.35
645.398	7202.54
645.591	7319.27
645.784	7198.44
645.977	7137
646.17	7313.13
646.363	6975.21
646.556	6809.33
646.749	6979.31
646.942	7100.14
647.135	6856.43
647.328	6833.9
647.521	7059.18
647.714	6653.68
647.907	6799.09
648.099	6784.75
648.292	6629.1
648.485	6479.6
648.678	6446.83
648.871	6500.08
649.064	6379.25
649.256	6379.25
649.449	6328.05
649.642	6407.92
649.835	6280.95
650.027	6348.53
650.22	6221.56
650.413	6196.98
650.605	6252.28
650.798	6338.29
650.991	6194.93
651.183	6252.28
651.376	5973.75
651.568	5990.14
651.761	6027
651.954	5742.33
652.146	5867.26
652.339	5932.79
652.531	5959.42
652.724	5768.96
652.916	5797.63
653.109	5658.37
653.301	5736.19
653.494	5697.28
653.686	5678.85
653.879	5787.39
654.071	5611.26
654.263	5596.93
654.456	5613.31
654.648	5666.56
654.84	5457.67
655.033	5502.72
655.225	5406.47
655.417	5459.71
655.61	5465.86
655.802	5474.05
655.994	5365.51
656.186	5379.84
656.379	5277.44
656.571	5127.94
656.763	5218.05
656.955	5033.74
657.148	5263.11
657.34	5072.65
657.532	5115.66
657.724	4861.71
657.916	5023.5
658.108	5054.22
658.3	4964.11
658.492	5025.54
658.684	4894.47
658.876	4964.11
659.068	4892.43
659.26	4869.9
659.452	4794.12
659.644	4777.74
659.836	4714.25
660.028	4865.8
660.22	4783.88
660.412	4755.21
660.604	4581.14
660.796	4589.33
660.988	4642.57
661.18	4568.85
661.372	4495.12
661.563	4448.02
661.755	4394.77
661.947	4421.39
662.139	4396.82
662.331	4488.98
662.522	4230.93
662.714	4304.66
662.906	4474.64
663.097	4331.28
663.289	4351.76
663.481	4177.69
663.673	4218.64
663.864	4089.62
664.056	4169.49
664.247	4175.64
664.439	4280.08
664.631	4163.35
664.822	4226.84
665.014	4048.66
665.205	4028.18
665.397	4181.78
665.588	3936.03
665.78	3913.5
665.971	4075.29
666.163	3950.36
666.354	4083.48
666.546	3815.2
666.737	3927.83
666.929	3716.89
667.12	3817.24
667.311	3753.76
667.503	3788.57
667.694	3731.23
667.885	3602.21
668.077	3747.61
668.268	3686.17
668.459	3649.31
668.651	3727.13
668.842	3696.41
669.033	3577.63
669.224	3608.35
669.416	3600.16
669.607	3618.59
669.798	3544.86
669.989	3553.06
670.18	3528.48
670.371	3409.7
670.563	3479.33
670.754	3440.42
670.945	3350.31
671.136	3532.58
671.327	3383.07
671.518	3458.85
671.709	3481.38
671.9	3458.85
672.091	3424.03
672.282	3288.87
672.473	3348.26
672.664	3407.65
672.855	3260.2
673.046	3342.11
673.237	3305.25
673.428	3276.58
673.619	3483.42
673.809	3215.14
674	3225.38
674.191	3241.76
674.382	3190.56
674.573	3231.52
674.764	3139.37
674.954	3338.02
675.145	3280.68
675.336	3147.56
675.527	3092.26
675.717	3129.13
675.908	3237.67
676.099	3018.54
676.289	3100.45
676.48	3176.23
676.671	3065.64
676.861	3161.89
677.052	3112.74
677.243	3020.58
677.433	3026.73
677.624	2961.19
677.814	3004.2
678.005	3041.06
678.195	3129.13
678.386	3014.44
678.576	3000.1
678.767	2899.75
678.957	2924.33
679.148	2989.86
679.338	3086.12
679.529	2940.71
679.719	3079.97
679.909	3100.45
680.1	2989.86
680.29	3000.1
680.481	2967.34
680.671	3079.97
680.861	2875.18
681.052	2963.24
681.242	2998.06
681.432	2965.29
681.622	2901.8
681.813	2830.12
682.003	2957.1
682.193	3002.15
682.383	3006.25
682.573	2973.48
682.764	2930.47
682.954	2912.04
683.144	2875.18
683.334	2946.86
683.524	2930.47
683.714	2907.94
683.904	2848.55
684.094	2858.79
684.284	2877.23
684.474	2940.71
684.664	2877.23
684.854	2889.51
685.044	2799.4
685.234	2860.84
685.424	3002.15
685.614	2871.08
685.804	2828.07
685.994	2895.66
686.184	2967.34
686.374	2895.66
686.564	2803.5
686.753	2985.77
686.943	2836.27
687.133	2809.64
687.323	2844.46
687.513	2885.42
687.702	2809.64
687.892	2823.98
688.082	2754.35
688.272	2938.66
688.461	2789.16
688.651	2719.53
688.841	2893.61
689.03	2756.4
689.22	2750.25
689.41	2737.96
689.599	2832.17
689.789	2823.98
689.979	2635.57
690.168	2733.87
690.358	2733.87
690.547	2737.96
690.737	2658.09
690.926	2594.61
691.116	2629.42
691.305	2809.64
691.495	2608.94
691.684	2643.76
691.874	2789.16
692.063	2545.45
692.252	2737.96
692.442	2729.77
692.631	2791.21
692.82	2668.33
693.01	2694.96
693.199	2635.57
693.388	2588.46
693.578	2680.62
693.767	2512.69
693.956	2598.7
694.146	2613.04
694.335	2596.65
694.524	2625.33
694.713	2676.52
694.902	2729.77
695.092	2647.85
695.281	2600.75
695.47	2561.84
695.659	2529.07
695.848	2649.9
696.037	2602.8
696.226	2527.02
696.415	2563.89
696.604	2557.74
696.793	2596.65
696.982	2484.02
697.171	2541.36
697.36	2537.26
697.549	2481.97
697.738	2471.73
697.927	2539.31
698.116	2561.84
698.305	2477.87
698.494	2455.34
698.683	2660.14
698.872	2498.35
699.061	2475.82
699.25	2522.93
699.438	2389.81
699.627	2527.02
699.816	2332.47
700.005	2502.45
700.193	2398
700.382	2520.88
700.571	2441.01
700.76	2445.1
700.948	2547.5
701.137	2477.87
701.326	2387.76
701.514	2500.4
701.703	2465.58
701.892	2387.76
702.08	2465.58
702.269	2348.85
702.457	2230.07
702.646	2359.09
702.834	2256.69
703.023	2271.03
703.212	2352.95
703.4	2398
703.589	2379.57
703.777	2346.8
703.965	2369.33
704.154	2301.75
704.342	2318.13
704.531	2326.32
704.719	2334.51
704.907	2443.06
705.096	2279.22
705.284	2295.6
705.472	2334.51
705.661	2283.31
705.849	2328.37
706.037	2309.94
706.226	2334.51
706.414	2156.34
706.602	2164.53
706.79	2242.36
706.979	2301.75
707.167	2279.22
707.355	2246.45
707.543	2113.33
707.731	2252.59
707.919	2234.16
708.107	2346.8
708.296	2076.47
708.484	2238.26
708.672	2189.11
708.86	2154.29
709.048	2217.78
709.236	2101.05
709.424	2099
709.612	2264.88
709.8	2139.96
709.988	2023.22
710.176	2287.41
710.364	2244.4
710.551	2115.38
710.739	2191.16
710.927	2164.53
711.115	2037.56
711.303	2080.57
711.491	2125.62
711.679	2088.76
711.866	2215.73
712.054	2099
712.242	2103.09
712.43	1994.55
712.617	1959.74
712.805	2033.46
712.993	2170.68
713.181	2062.13
713.368	2072.37
713.556	2195.25
713.744	1957.69
713.931	2066.23
714.119	2021.17
714.306	2031.41
714.494	2019.13
714.682	1969.98
714.869	2072.37
715.057	2043.7
715.244	1949.5
715.432	2021.17
715.619	2072.37
715.807	1912.63
715.994	1961.78
716.182	1982.26
716.369	1943.35
716.556	1990.45
716.744	1961.78
716.931	1988.41
717.119	1963.83
717.306	1951.54
717.493	1922.87
717.681	1906.49
717.868	1929.02
718.055	1974.07
718.242	1924.92
718.43	1982.26
718.617	1879.86
718.804	1857.34
718.991	1853.24
719.179	1894.2
719.366	1787.71
719.553	1820.47
719.74	1830.71
719.927	1804.09
720.114	1830.71
720.301	1861.43
720.488	1726.27
720.676	1830.71
720.863	1806.14
721.05	1761.08
721.237	1773.37
721.424	1853.24
721.611	1838.91
721.798	1761.08
721.985	1793.85
722.172	1742.65
722.358	1843
722.545	1818.43
722.732	1826.62
722.919	1838.91
723.106	1834.81
723.293	1750.84
723.48	1705.79
723.667	1802.04
723.853	1773.37
724.04	1820.47
724.227	1699.64
724.414	1728.31
724.6	1687.36
724.787	1763.13
724.974	1668.92
725.161	1582.91
725.347	1685.31
725.534	1781.56
725.72	1683.26
725.907	1748.79
726.094	1720.12
726.28	1763.13
726.467	1732.41
726.653	1724.22
726.84	1687.36
727.027	1664.83
727.213	1652.54
727.4	1693.5
727.586	1623.87
727.773	1564.48
727.959	1605.44
728.145	1687.36
728.332	1705.79
728.518	1724.22
728.705	1793.85
728.891	1572.67
729.077	1646.4
729.264	1689.4
729.45	1605.44
729.636	1630.01
729.823	1677.12
730.009	1670.97
730.195	1615.68
730.382	1630.01
730.568	1670.97
730.754	1607.48
730.94	1634.11
731.126	1603.39
731.313	1535.81
731.499	1580.86
731.685	1500.99
731.871	1533.76
732.057	1632.06
732.243	1587.01
732.429	1513.28
732.615	1634.11
732.801	1582.91
732.987	1642.3
733.173	1607.48
733.359	1564.48
733.545	1654.59
733.731	1630.01
733.917	1472.32
734.103	1564.48
734.289	1570.62
734.475	1578.81
734.661	1468.22
734.847	1470.27
735.033	1556.29
735.219	1539.9
735.404	1535.81
735.59	1566.53
735.776	1560.38
735.962	1517.37
736.148	1568.57
736.333	1505.09
736.519	1466.17
736.705	1523.52
736.89	1378.11
737.076	1425.22
737.262	1410.88
737.447	1435.46
737.633	1480.51
737.819	1531.71
738.004	1578.81
738.19	1400.64
738.375	1408.83
738.561	1435.46
738.747	1474.37
738.932	1433.41
739.118	1490.75
739.303	1345.34
739.489	1490.75
739.674	1328.96
739.859	1421.12
740.045	1451.84
740.23	1408.83
740.416	1398.59
740.601	1460.03
740.786	1412.93
740.972	1322.82
741.157	1365.82
741.342	1228.61
741.528	1382.21
741.713	1421.12
741.898	1400.64
742.084	1423.17
742.269	1337.15
742.454	1449.79
742.639	1257.28
742.824	1310.53
743.01	1316.67
743.195	1331.01
743.38	1384.26
743.565	1281.86
743.75	1357.63
743.935	1236.8
744.12	1310.53
744.305	1318.72
744.49	1283.91
744.675	1197.89
744.86	1283.91
745.045	1195.84
745.23	1281.86
745.415	1265.47
745.6	1296.19
745.785	1261.38
745.97	1263.43
746.155	1263.43
746.34	1312.58
746.525	1265.47
746.71	1171.27
746.895	1206.08
747.079	1224.51
747.264	1220.42
747.449	1095.49
747.634	1216.32
747.819	1206.08
748.003	1130.31
748.188	1204.03
748.373	1109.83
748.557	1130.31
748.742	1148.74
748.927	1034.05
749.111	1193.8
749.296	1083.2
749.481	1099.59
749.665	1124.16
749.85	1001.29
750.034	1124.16
750.219	1056.58
750.404	1050.44
750.588	1072.96
750.773	1052.49
750.957	964.42
751.141	952.13
751.326	1126.21
751.51	1054.53
751.695	1017.67
751.879	892.74
752.064	1093.44
752.248	1023.81
752.432	1056.58
752.617	980.81
752.801	933.7
752.985	991.05
753.17	1009.48
753.354	968.52
753.538	1025.86
753.722	878.41
753.907	997.19
754.091	929.61
754.275	968.52
754.459	964.42
754.643	884.55
754.828	905.03
755.012	950.09
755.196	954.18
755.38	821.06
755.564	888.65
755.748	837.45
755.932	806.73
756.116	843.59
756.3	909.13
756.484	864.07
756.668	765.77
756.852	837.45
757.036	886.6
757.22	790.35
757.404	814.92
757.588	730.95
757.772	923.46
757.956	851.78
758.14	784.2
758.323	755.53
758.507	778.06
758.691	769.87
758.875	800.59
759.059	780.11
759.242	825.16
759.426	714.57
759.61	663.37
759.794	714.57
759.977	819.02
760.161	646.99
760.345	739.15
760.528	712.52
760.712	708.43
760.895	710.47
761.079	776.01
761.263	802.63
761.446	724.81
761.63	716.62
761.813	743.24
761.997	720.71
762.18	728.91
762.364	737.1
762.547	653.13
762.731	771.91
762.914	689.99
763.098	669.52
763.281	569.16
763.464	776.01
763.648	661.32
763.831	671.56
764.015	698.19
764.198	640.84
764.381	671.56
764.564	591.69
764.748	634.7
764.931	671.56
765.114	608.08
765.297	616.27
765.481	614.22
765.664	657.23
765.847	681.8
766.03	679.75
766.213	603.98
766.397	606.03
766.58	616.27
766.763	606.03
766.946	620.36
767.129	675.66
767.312	591.69
767.495	632.65
767.678	597.84
767.861	657.23
768.044	567.12
768.227	548.68
768.41	597.84
768.593	556.88
768.776	589.64
768.959	655.18
769.142	661.32
769.324	550.73
769.507	593.74
769.69	589.64
769.873	558.92
770.056	632.65
770.239	579.4
770.421	628.56
770.604	587.6
770.787	599.88
770.97	479.05
771.152	558.92
771.335	583.5
771.518	526.16
771.7	536.4
771.883	591.69
772.066	581.45
772.248	495.44
772.431	493.39
772.613	452.43
772.796	520.01
772.978	528.21
773.161	554.83
773.343	540.49
773.526	583.5
773.708	466.77
773.891	548.68
774.073	479.05
774.256	446.29
774.438	544.59
774.621	444.24
774.803	466.77
774.985	493.39
775.168	534.35
775.35	495.44
775.532	474.96
775.715	425.81
775.897	528.21
776.079	434
776.261	415.57
776.444	497.49
776.626	468.81
776.808	417.61
776.99	499.53
777.173	479.05
777.355	515.92
777.537	462.67
777.719	507.73
777.901	425.81
778.083	390.99
778.265	501.58
778.447	393.04
778.629	393.04
778.811	434
778.993	386.9
779.175	372.56
779.357	401.23
779.539	368.46
779.721	362.32
779.903	345.94
780.085	354.13
780.267	321.36
780.449	358.22
780.631	452.43
780.812	401.23
780.994	395.09
781.176	374.61
781.358	393.04
781.54	323.41
781.721	388.94
781.903	354.13
782.085	393.04
782.267	411.47
782.448	339.79
782.63	388.94
782.812	372.56
782.993	380.75
783.175	448.33
783.357	311.12
783.538	358.22
783.72	307.02
783.901	397.14
784.083	395.09
784.264	356.18
784.446	272.21
784.627	329.55
784.809	393.04
784.99	329.55
785.172	284.5
785.353	231.25
785.535	401.23
785.716	304.98
785.897	302.93
786.079	368.46
786.26	341.84
786.441	356.18
786.623	253.78
786.804	311.12
786.985	360.27
787.167	372.56
787.348	202.58
787.529	241.49
787.71	216.91
787.891	302.93
788.073	245.59
788.254	241.49
788.435	311.12
788.616	321.36
788.797	225.11
788.978	284.5
789.159	292.69
789.34	323.41
789.522	190.29
789.703	280.4
789.884	270.16
790.065	345.94
790.246	257.87
790.427	286.54
790.607	266.07
790.788	311.12
790.969	202.58
791.15	280.4
791.331	227.15
791.512	190.29
791.693	198.48
791.874	302.93
792.054	137.04
792.235	321.36
792.416	212.82
792.597	266.07
792.778	261.97
792.958	204.63
793.139	204.63
793.32	239.44
793.5	161.62
793.681	227.15
793.862	198.48
794.042	180.05
794.223	143.19
794.404	180.05
794.584	159.57
794.765	143.19
794.945	167.76
795.126	206.67
795.306	206.67
795.487	221.01
795.667	261.97
795.848	122.71
796.028	190.29
796.209	171.86
796.389	204.63
796.57	165.71
796.75	120.66
796.93	231.25
797.111	212.82
797.291	155.47
797.471	128.85
797.652	188.24
797.832	139.09
798.012	124.76
798.192	128.85
798.373	180.05
798.553	182.1
798.733	180.05
798.913	188.24
799.093	184.15
799.274	284.5
799.454	149.33
799.634	151.38
799.814	194.39
799.994	126.8
800.174	245.59
800.354	122.71
800.534	171.86
800.714	112.47
800.894	165.71
801.074	106.32
801.254	192.34
801.434	204.63
801.614	132.95
801.794	163.67
801.974	360.27
802.154	147.28
802.334	212.82
802.514	167.76
802.693	206.67
802.873	100.18
803.053	184.15
803.233	169.81
803.413	155.47
803.592	159.57
803.772	89.94
803.952	110.42
804.131	143.19
804.311	79.7
804.491	85.84
804.67	116.56
804.85	165.71
805.03	124.76
805.209	147.28
805.389	145.24
805.568	147.28
805.748	69.46
805.928	171.86
806.107	96.08
806.287	196.43
806.466	143.19
806.646	147.28
806.825	102.23
807.004	130.9
807.184	102.23
807.363	149.33
807.543	57.17
807.722	167.76
807.901	102.23
808.081	130.9
808.26	118.61
808.439	161.62
808.619	102.23
808.798	114.52
808.977	141.14
809.156	112.47
809.336	102.23
809.515	116.56
809.694	81.75
809.873	91.99
810.052	55.12
810.231	124.76
810.411	135
810.59	139.09
810.769	118.61
810.948	73.56
811.127	75.6
811.306	124.76
811.485	40.79
811.664	106.32
811.843	128.85
812.022	16.21
812.201	96.08
812.38	110.42
812.559	118.61
812.737	126.8
812.916	26.45
813.095	126.8
813.274	100.18
813.453	116.56
813.632	102.23
813.811	83.8
813.989	55.12
814.168	34.64
814.347	16.21
814.526	46.93
814.704	135
814.883	83.8
815.062	102.23
815.24	130.9
815.419	89.94
815.598	85.84
815.776	73.56
815.955	173.91
816.133	67.41
816.312	44.88
816.49	53.08
816.669	32.6
816.847	75.6
817.026	112.47
817.204	46.93
817.383	-8.36
817.561	96.08
817.74	108.37
817.918	63.32
818.097	73.56
818.275	85.84
818.453	120.66
818.632	83.8
818.81	55.12
818.988	40.79
819.167	122.71
819.345	106.32
819.523	26.45
819.701	48.98
819.879	114.52
820.058	51.03
820.236	106.32
820.414	51.03
820.592	57.17
820.77	77.65
820.948	135
821.127	67.41
821.305	79.7
821.483	81.75
821.661	-14.51
821.839	83.8
822.017	91.99
822.195	73.56
822.373	81.75
822.551	-0.17
822.729	163.67
822.907	61.27
823.085	81.75
823.262	87.89
823.44	124.76
823.618	5.97
823.796	34.64
823.974	75.6
824.152	51.03
824.329	44.88
824.507	122.71
824.685	8.02
824.863	30.55
825.04	89.94
825.218	67.41
825.396	94.04
825.574	30.55
825.751	100.18
825.929	67.41
826.107	16.21
826.284	94.04
826.462	32.6
826.639	40.79
826.817	48.98
826.994	73.56
827.172	36.69
827.349	26.45
827.527	32.6
827.704	53.08
827.882	3.93
828.059	83.8
828.237	22.36
828.414	89.94
828.591	5.97
828.769	83.8
828.946	24.4
829.124	63.32
829.301	94.04
829.478	-10.41
829.655	38.74
829.833	-14.51
830.01	61.27
830.187	3.93
830.364	57.17
830.542	114.52
830.719	1.88
830.896	51.03
831.073	28.5
831.25	-30.89
831.427	-32.94
831.604	83.8
831.782	48.98
831.959	42.84
832.136	26.45
832.313	-0.17
832.49	18.26
832.667	65.36
832.844	-14.51
833.021	57.17
833.198	10.07
833.374	34.64
833.551	42.84
833.728	30.55
833.905	-0.17
834.082	40.79
834.259	-8.36
834.436	81.75
834.612	-118.95
834.789	48.98
834.966	48.98
835.143	108.37
835.319	40.79
835.496	65.36
835.673	48.98
835.85	59.22
836.026	110.42
836.203	20.31
836.38	32.6
836.556	44.88
836.733	40.79
836.909	-2.22
837.086	32.6
837.262	-20.65
837.439	5.97
837.616	38.74
837.792	3.93
837.968	16.21
838.145	-0.17
838.321	65.36
838.498	32.6
838.674	16.21
838.851	55.12
839.027	-4.27
839.203	79.7
839.38	28.5
839.556	-20.65
839.732	3.93
839.909	1.88
840.085	12.12
840.261	-12.46
840.437	16.21
840.614	-16.55
840.79	30.55
840.966	44.88
841.142	79.7
841.318	34.64
841.494	108.37
841.671	-12.46
841.847	3.93
842.023	-2.22
842.199	73.56
842.375	18.26
842.551	44.88
842.727	57.17
842.903	1.88
843.079	-14.51
843.255	-24.75
843.431	-24.75
843.607	67.41
843.783	8.02
843.959	8.02
844.134	32.6
844.31	73.56
844.486	-12.46
844.662	24.4
844.838	42.84
845.013	34.64
845.189	28.5
845.365	130.9
845.541	-6.31
845.716	18.26
845.892	-22.7
846.068	-30.89
846.244	24.4
846.419	24.4
846.595	12.12
846.77	-16.55
846.946	53.08
847.122	-0.17
847.297	38.74
847.473	-2.22
847.648	12.12
847.824	83.8
847.999	22.36
848.175	53.08
848.35	-22.7
848.526	1.88
848.701	-49.32
848.876	22.36
849.052	85.84
849.227	18.26
849.403	-18.6
849.578	40.79
849.753	-4.27
849.929	48.98
850.104	-20.65
850.279	16.21
850.454	1.88
850.63	-8.36
850.805	-55.47
850.98	36.69
851.155	-28.84
851.33	32.6
851.505	-14.51
851.681	32.6
851.856	14.17
852.031	-32.94
852.206	77.65
852.381	65.36
852.556	-8.36
852.731	34.64
852.906	38.74
853.081	-0.17
853.256	3.93
853.431	20.31
853.606	-37.03
853.781	57.17
853.956	26.45
854.131	10.07
854.305	51.03
854.48	42.84
854.655	20.31
854.83	-26.79
855.005	14.17
855.18	38.74
855.354	-24.75
855.529	5.97
855.704	77.65
855.879	32.6
856.053	22.36
856.228	18.26
856.403	-20.65
856.577	36.69
856.752	16.21
856.926	-30.89
857.101	-16.55
857.276	-4.27
857.45	5.97
857.625	26.45
857.799	-6.31
857.974	18.26
858.148	18.26
858.323	-24.75
858.497	3.93
858.672	1.88
858.846	-53.42
859.02	79.7
859.195	28.5
859.369	30.55
859.543	42.84
859.718	65.36
859.892	22.36
860.066	-51.37
860.241	8.02
860.415	16.21
860.589	-43.18
860.763	-12.46
860.938	-41.13
861.112	-22.7
861.286	-77.99
861.46	3.93
861.634	-6.31
861.808	65.36
861.982	-92.33
862.157	16.21
862.331	26.45
862.505	1.88
862.679	-55.47
862.853	16.21
863.027	-28.84
863.201	46.93
863.375	-18.6
863.549	59.22
863.722	-16.55
863.896	-24.75
864.07	5.97
864.244	-20.65
864.418	-16.55
864.592	36.69
864.766	-6.31
864.939	51.03
865.113	-14.51
865.287	5.97
865.461	-26.79
865.634	16.21
865.808	32.6
865.982	3.93
866.156	-24.75
866.329	-47.27
866.503	14.17
866.676	40.79
866.85	-16.55
867.024	16.21
867.197	3.93
867.371	20.31
867.544	32.6
867.718	-18.6
867.891	-20.65
868.065	8.02
868.238	79.7
868.412	-34.99
868.585	-10.41
868.759	-45.23
868.932	20.31
869.105	-2.22
869.279	-65.71
869.452	34.64
869.625	30.55
869.799	36.69
869.972	-0.17
870.145	-16.55
870.319	3.93
870.492	51.03
870.665	-86.19
870.838	-59.56
871.011	20.31
871.185	-14.51
871.358	1.88
871.531	3.93
871.704	-14.51
871.877	42.84
872.05	-16.55
872.223	26.45
872.396	5.97
872.569	-14.51
872.742	-24.75
872.915	-22.7
873.088	-30.89
873.261	-12.46
873.434	1.88
873.607	-20.65
873.78	24.4
873.953	5.97
874.126	30.55
874.299	26.45
874.471	106.32
874.644	3.93
874.817	65.36
874.99	-34.99
875.163	22.36
875.335	-24.75
875.508	-55.47
875.681	-18.6
875.853	20.31
876.026	14.17
876.199	-53.42
876.371	-22.7
876.544	-4.27
876.717	-26.79
876.889	-6.31
877.062	51.03
877.234	18.26
877.407	63.32
877.579	87.89
877.752	79.7
877.924	30.55
878.097	-14.51
878.269	-4.27
878.442	40.79
878.614	-14.51
878.786	-0.17
878.959	-14.51
879.131	-0.17
879.303	-43.18
879.476	-16.55
879.648	14.17
879.82	83.8
879.993	48.98
880.165	-69.8
880.337	-30.89
880.509	-24.75
880.681	-14.51
880.854	12.12
881.026	55.12
881.198	36.69
881.37	-28.84
881.542	26.45
881.714	-8.36
881.886	73.56
882.058	28.5
882.23	46.93
882.402	22.36
882.574	51.03
882.746	-24.75
882.918	26.45
883.09	-82.09
883.262	-0.17
883.434	30.55
883.606	-47.27
883.778	-55.47
883.95	100.18
884.122	-12.46
884.293	-4.27
884.465	-59.56
884.637	-57.51
884.809	-45.23
884.98	24.4
885.152	-26.79
885.324	18.26
885.496	-10.41
885.667	-18.6
885.839	-47.27
886.011	59.22
886.182	30.55
886.354	46.93
886.525	-0.17
886.697	-6.31
886.869	-16.55
887.04	22.36
887.212	-45.23
887.383	-24.75
887.555	34.64
887.726	-41.13
887.897	20.31
888.069	-69.8
888.24	-12.46
888.412	-22.7
888.583	26.45
888.754	-14.51
888.926	42.84
889.097	48.98
889.268	-67.75
889.44	-8.36
889.611	-53.42
889.782	-14.51
889.953	3.93
890.125	16.21
890.296	-14.51
890.467	-14.51
890.638	-90.28
890.809	51.03
890.98	5.97
891.151	-41.13
891.323	3.93
891.494	-49.32
891.665	-26.79
891.836	-69.8
892.007	-10.41
892.178	24.4
892.349	-67.75
892.52	26.45
892.691	-26.79
892.862	-16.55
893.032	-77.99
893.203	-6.31
893.374	20.31
893.545	-2.22
893.716	-8.36
893.887	-6.31
894.057	-24.75
894.228	-8.36
894.399	-32.94
894.57	18.26
894.74	24.4
894.911	36.69
895.082	-26.79
895.253	26.45
895.423	-34.99
895.594	34.64
895.764	14.17
895.935	-10.41
896.106	38.74
896.276	-43.18
896.447	-37.03
896.617	-4.27
896.788	8.02
896.958	32.6
897.129	-55.47
897.299	-32.94
897.47	48.98
897.64	-18.6
897.81	-55.47
897.981	-16.55
898.151	-55.47
898.322	-24.75
898.492	-16.55
898.662	-2.22
898.832	-12.46
899.003	16.21
899.173	16.21
899.343	-16.55
899.513	-16.55
