Data from USB4F104151__61__12-59-22-943.txt Node

Date: Fri Mar 14 12:59:22 EDT 2025
User: louis
Spectrometer: USB4F10415
Trigger mode: 4
Integration Time (sec): 1.000000E-2
Scans to average: 1
Electric dark correction enabled: true
Nonlinearity correction enabled: false
Boxcar width: 0
XAxis mode: Wavelengths
Number of Pixels in Spectrum: 3648
>>>>>Begin Spectral Data<<<<<
178.204	-27.65
178.424	-27.65
178.644	-27.65
178.864	-23.55
179.084	52.22
179.304	-21.5
179.524	39.94
179.744	-1.02
179.964	7.17
180.184	-44.03
180.404	44.03
180.624	39.94
180.844	7.17
181.064	17.41
181.283	21.5
181.503	-60.42
181.723	-50.18
181.943	-1.02
182.163	-21.5
182.383	3.07
182.602	27.65
182.822	84.99
183.042	27.65
183.262	-25.6
183.482	-11.26
183.701	-13.31
183.921	70.65
184.141	-27.65
184.361	58.37
184.58	50.18
184.8	64.51
185.02	9.22
185.239	54.27
185.459	82.94
185.679	66.56
185.898	5.12
186.118	103.42
186.338	48.13
186.557	58.37
186.777	-19.46
186.997	44.03
187.216	60.42
187.436	58.37
187.655	21.5
187.875	13.31
188.095	-9.22
188.314	58.37
188.534	-107.52
188.753	-70.65
188.973	50.18
189.192	27.65
189.412	140.29
189.631	64.51
189.851	48.13
190.07	66.56
190.29	21.5
190.509	89.09
190.729	35.84
190.948	3.07
191.168	60.42
191.387	-44.03
191.607	56.32
191.826	23.55
192.045	50.18
192.265	78.85
192.484	3.07
192.704	-1.02
192.923	-21.5
193.142	72.7
193.362	46.08
193.581	-25.6
193.8	23.55
194.02	95.23
194.239	58.37
194.458	5.12
194.678	19.46
194.897	107.52
195.116	5.12
195.335	-7.17
195.555	21.5
195.774	48.13
195.993	15.36
196.212	74.75
196.432	39.94
196.651	15.36
196.87	31.74
197.089	125.95
197.308	11.26
197.528	44.03
197.747	-7.17
197.966	44.03
198.185	58.37
198.404	9.22
198.623	15.36
198.842	41.98
199.062	-3.07
199.281	99.33
199.5	5.12
199.719	33.79
199.938	50.18
200.157	74.75
200.376	11.26
200.595	13.31
200.814	-25.6
201.033	-3.07
201.252	39.94
201.471	80.89
201.69	72.7
201.909	62.46
202.128	48.13
202.347	74.75
202.566	-56.32
202.785	-21.5
203.004	13.31
203.223	89.09
203.442	15.36
203.661	50.18
203.879	3.07
204.098	29.7
204.317	21.5
204.536	9.22
204.755	66.56
204.974	99.33
205.193	54.27
205.411	21.5
205.63	35.84
205.849	48.13
206.068	-23.55
206.287	66.56
206.505	54.27
206.724	25.6
206.943	35.84
207.162	33.79
207.381	23.55
207.599	25.6
207.818	25.6
208.037	-7.17
208.255	87.04
208.474	5.12
208.693	-44.03
208.911	33.79
209.13	29.7
209.349	70.65
209.567	13.31
209.786	21.5
210.005	-1.02
210.223	70.65
210.442	29.7
210.661	31.74
210.879	54.27
211.098	39.94
211.316	97.28
211.535	44.03
211.753	76.8
211.972	39.94
212.191	23.55
212.409	44.03
212.628	9.22
212.846	44.03
213.065	-25.6
213.283	39.94
213.502	25.6
213.72	52.22
213.938	64.51
214.157	-31.74
214.375	41.98
214.594	70.65
214.812	25.6
215.031	103.42
215.249	76.8
215.467	29.7
215.686	54.27
215.904	-13.31
216.122	64.51
216.341	78.85
216.559	15.36
216.778	-9.22
216.996	-3.07
217.214	29.7
217.432	-19.46
217.651	62.46
217.869	11.26
218.087	89.09
218.306	-5.12
218.524	54.27
218.742	21.5
218.96	54.27
219.179	54.27
219.397	39.94
219.615	58.37
219.833	-3.07
220.051	-1.02
220.27	-9.22
220.488	25.6
220.706	54.27
220.924	74.75
221.142	19.46
221.36	97.28
221.578	-21.5
221.796	68.61
222.015	44.03
222.233	-7.17
222.451	113.66
222.669	54.27
222.887	-3.07
223.105	-31.74
223.323	9.22
223.541	58.37
223.759	13.31
223.977	50.18
224.195	-5.12
224.413	7.17
224.631	52.22
224.849	84.99
225.067	44.03
225.285	-21.5
225.503	140.29
225.721	11.26
225.939	62.46
226.157	-11.26
226.375	21.5
226.592	15.36
226.81	48.13
227.028	19.46
227.246	95.23
227.464	48.13
227.682	15.36
227.9	-19.46
228.117	-35.84
228.335	60.42
228.553	91.13
228.771	70.65
228.989	72.7
229.206	46.08
229.424	72.7
229.642	-21.5
229.86	48.13
230.077	19.46
230.295	7.17
230.513	119.81
230.731	5.12
230.948	50.18
231.166	21.5
231.384	9.22
231.601	1.02
231.819	44.03
232.037	1.02
232.254	78.85
232.472	-5.12
232.689	9.22
232.907	33.79
233.125	29.7
233.342	56.32
233.56	5.12
233.777	-25.6
233.995	70.65
234.213	50.18
234.43	78.85
234.648	37.89
234.865	-23.55
235.083	25.6
235.3	87.04
235.518	15.36
235.735	78.85
235.953	91.13
236.17	60.42
236.388	19.46
236.605	62.46
236.822	33.79
237.04	66.56
237.257	76.8
237.475	46.08
237.692	33.79
237.909	25.6
238.127	15.36
238.344	-9.22
238.562	-7.17
238.779	-3.07
238.996	-21.5
239.214	7.17
239.431	-7.17
239.648	50.18
239.865	119.81
240.083	56.32
240.3	9.22
240.517	-13.31
240.735	41.98
240.952	33.79
241.169	1.02
241.386	72.7
241.603	68.61
241.821	9.22
242.038	27.65
242.255	113.66
242.472	9.22
242.689	39.94
242.907	39.94
243.124	21.5
243.341	23.55
243.558	-66.56
243.775	-39.94
243.992	-23.55
244.209	5.12
244.426	1.02
244.643	68.61
244.86	17.41
245.078	-7.17
245.295	64.51
245.512	17.41
245.729	39.94
245.946	74.75
246.163	15.36
246.38	58.37
246.597	-9.22
246.814	-31.74
247.031	17.41
247.248	62.46
247.464	29.7
247.681	78.85
247.898	82.94
248.115	-11.26
248.332	50.18
248.549	48.13
248.766	31.74
248.983	31.74
249.2	-17.41
249.417	46.08
249.633	25.6
249.85	123.9
250.067	84.99
250.284	50.18
250.501	25.6
250.717	66.56
250.934	31.74
251.151	70.65
251.368	5.12
251.585	13.31
251.801	11.26
252.018	54.27
252.235	39.94
252.451	7.17
252.668	62.46
252.885	41.98
253.102	27.65
253.318	29.7
253.535	66.56
253.752	-5.12
253.968	72.7
254.185	46.08
254.401	13.31
254.618	82.94
254.835	-17.41
255.051	-7.17
255.268	50.18
255.484	31.74
255.701	62.46
255.917	56.32
256.134	41.98
256.351	70.65
256.567	1.02
256.784	89.09
257	-1.02
257.217	29.7
257.433	39.94
257.65	46.08
257.866	41.98
258.082	46.08
258.299	56.32
258.515	87.04
258.732	11.26
258.948	29.7
259.165	-41.98
259.381	35.84
259.597	-7.17
259.814	41.98
260.03	58.37
260.246	7.17
260.463	23.55
260.679	19.46
260.895	39.94
261.112	87.04
261.328	68.61
261.544	46.08
261.761	82.94
261.977	56.32
262.193	50.18
262.409	52.22
262.626	54.27
262.842	-25.6
263.058	37.89
263.274	70.65
263.49	95.23
263.707	41.98
263.923	48.13
264.139	39.94
264.355	25.6
264.571	89.09
264.787	19.46
265.004	-15.36
265.22	56.32
265.436	23.55
265.652	80.89
265.868	48.13
266.084	54.27
266.3	33.79
266.516	21.5
266.732	33.79
266.948	37.89
267.164	89.09
267.38	60.42
267.596	91.13
267.812	74.75
268.028	37.89
268.244	31.74
268.46	15.36
268.676	-25.6
268.892	95.23
269.108	-15.36
269.324	41.98
269.54	21.5
269.756	80.89
269.972	-7.17
270.188	109.57
270.403	80.89
270.619	97.28
270.835	54.27
271.051	52.22
271.267	82.94
271.483	72.7
271.698	23.55
271.914	56.32
272.13	1.02
272.346	91.13
272.562	7.17
272.777	97.28
272.993	-3.07
273.209	11.26
273.425	80.89
273.64	54.27
273.856	48.13
274.072	-5.12
274.287	48.13
274.503	13.31
274.719	27.65
274.934	44.03
275.15	89.09
275.366	46.08
275.581	-1.02
275.797	76.8
276.012	25.6
276.228	56.32
276.444	46.08
276.659	19.46
276.875	-15.36
277.09	78.85
277.306	15.36
277.521	62.46
277.737	35.84
277.952	37.89
278.168	21.5
278.383	9.22
278.599	17.41
278.814	60.42
279.03	44.03
279.245	82.94
279.461	123.9
279.676	37.89
279.892	-23.55
280.107	37.89
280.322	46.08
280.538	48.13
280.753	21.5
280.969	21.5
281.184	-1.02
281.399	105.47
281.615	-7.17
281.83	25.6
282.045	52.22
282.26	76.8
282.476	78.85
282.691	29.7
282.906	-5.12
283.122	29.7
283.337	-7.17
283.552	9.22
283.767	9.22
283.983	48.13
284.198	119.81
284.413	62.46
284.628	64.51
284.843	-3.07
285.058	33.79
285.274	103.42
285.489	41.98
285.704	89.09
285.919	41.98
286.134	37.89
286.349	7.17
286.564	35.84
286.779	37.89
286.995	41.98
287.21	84.99
287.425	29.7
287.64	9.22
287.855	37.89
288.07	19.46
288.285	-1.02
288.5	7.17
288.715	35.84
288.93	7.17
289.145	54.27
289.36	50.18
289.575	78.85
289.79	-21.5
290.004	33.79
290.219	37.89
290.434	70.65
290.649	17.41
290.864	46.08
291.079	115.71
291.294	46.08
291.509	5.12
291.724	-17.41
291.938	56.32
292.153	5.12
292.368	-19.46
292.583	70.65
292.798	1.02
293.012	70.65
293.227	17.41
293.442	97.28
293.657	97.28
293.871	72.7
294.086	21.5
294.301	21.5
294.516	23.55
294.73	13.31
294.945	78.85
295.16	52.22
295.374	109.57
295.589	105.47
295.804	62.46
296.018	95.23
296.233	74.75
296.447	33.79
296.662	21.5
296.877	31.74
297.091	74.75
297.306	48.13
297.52	5.12
297.735	23.55
297.949	-7.17
298.164	95.23
298.378	11.26
298.593	37.89
298.807	-9.22
299.022	103.42
299.236	-3.07
299.451	17.41
299.665	27.65
299.88	50.18
300.094	-3.07
300.309	58.37
300.523	-3.07
300.737	1.02
300.952	50.18
301.166	66.56
301.381	-31.74
301.595	33.79
301.809	115.71
302.024	-9.22
302.238	23.55
302.452	68.61
302.667	-19.46
302.881	27.65
303.095	95.23
303.309	91.13
303.524	13.31
303.738	103.42
303.952	-3.07
304.166	48.13
304.381	-82.94
304.595	31.74
304.809	50.18
305.023	37.89
305.237	33.79
305.452	70.65
305.666	15.36
305.88	54.27
306.094	33.79
306.308	1.02
306.522	62.46
306.736	76.8
306.95	113.66
307.164	58.37
307.379	46.08
307.593	25.6
307.807	1.02
308.021	70.65
308.235	33.79
308.449	13.31
308.663	-27.65
308.877	156.67
309.091	82.94
309.305	37.89
309.519	39.94
309.733	56.32
309.947	-3.07
310.161	35.84
310.374	64.51
310.588	60.42
310.802	74.75
311.016	58.37
311.23	66.56
311.444	46.08
311.658	-37.89
311.872	166.91
312.085	48.13
312.299	31.74
312.513	19.46
312.727	87.04
312.941	-9.22
313.154	41.98
313.368	29.7
313.582	5.12
313.796	13.31
314.009	9.22
314.223	62.46
314.437	82.94
314.651	7.17
314.864	105.47
315.078	-1.02
315.292	62.46
315.505	50.18
315.719	78.85
315.933	29.7
316.146	-23.55
316.36	1.02
316.573	70.65
316.787	-27.65
317.001	19.46
317.214	-9.22
317.428	35.84
317.641	46.08
317.855	64.51
318.068	41.98
318.282	87.04
318.495	64.51
318.709	21.5
318.922	41.98
319.136	33.79
319.349	11.26
319.563	103.42
319.776	15.36
319.99	97.28
320.203	37.89
320.417	48.13
320.63	33.79
320.843	64.51
321.057	58.37
321.27	84.99
321.483	62.46
321.697	62.46
321.91	-27.65
322.124	66.56
322.337	37.89
322.55	23.55
322.763	13.31
322.977	64.51
323.19	-23.55
323.403	78.85
323.617	78.85
323.83	21.5
324.043	11.26
324.256	52.22
324.469	39.94
324.683	128
324.896	9.22
325.109	33.79
325.322	21.5
325.535	29.7
325.748	78.85
325.962	48.13
326.175	70.65
326.388	119.81
326.601	-15.36
326.814	95.23
327.027	76.8
327.24	72.7
327.453	62.46
327.666	105.47
327.879	-1.02
328.092	-3.07
328.305	11.26
328.518	17.41
328.731	37.89
328.944	91.13
329.157	37.89
329.37	39.94
329.583	64.51
329.796	80.89
330.009	7.17
330.222	1.02
330.435	64.51
330.648	41.98
330.861	46.08
331.073	29.7
331.286	78.85
331.499	54.27
331.712	35.84
331.925	35.84
332.138	44.03
332.35	52.22
332.563	84.99
332.776	15.36
332.989	29.7
333.202	33.79
333.414	56.32
333.627	44.03
333.84	-13.31
334.053	117.76
334.265	21.5
334.478	25.6
334.691	21.5
334.903	39.94
335.116	11.26
335.329	31.74
335.541	66.56
335.754	25.6
335.966	-11.26
336.179	1.02
336.392	99.33
336.604	62.46
336.817	58.37
337.029	-11.26
337.242	7.17
337.454	-35.84
337.667	76.8
337.88	101.37
338.092	41.98
338.305	-7.17
338.517	39.94
338.729	62.46
338.942	11.26
339.154	-91.13
339.367	48.13
339.579	78.85
339.792	-7.17
340.004	27.65
340.217	37.89
340.429	33.79
340.641	54.27
340.854	68.61
341.066	-21.5
341.278	76.8
341.491	44.03
341.703	54.27
341.915	-25.6
342.128	70.65
342.34	29.7
342.552	25.6
342.764	31.74
342.977	46.08
343.189	25.6
343.401	54.27
343.613	64.51
343.826	52.22
344.038	21.5
344.25	119.81
344.462	15.36
344.674	142.33
344.886	21.5
345.099	-17.41
345.311	82.94
345.523	41.98
345.735	44.03
345.947	48.13
346.159	29.7
346.371	29.7
346.583	17.41
346.795	62.46
347.007	84.99
347.219	48.13
347.431	21.5
347.643	33.79
347.855	46.08
348.067	66.56
348.279	107.52
348.491	44.03
348.703	-35.84
348.915	107.52
349.127	-15.36
349.339	58.37
349.551	46.08
349.763	70.65
349.975	44.03
350.187	76.8
350.399	62.46
350.61	87.04
350.822	11.26
351.034	-21.5
351.246	41.98
351.458	80.89
351.669	15.36
351.881	84.99
352.093	103.42
352.305	128
352.517	-7.17
352.728	56.32
352.94	46.08
353.152	41.98
353.363	29.7
353.575	60.42
353.787	109.57
353.999	33.79
354.21	62.46
354.422	95.23
354.633	-17.41
354.845	64.51
355.057	11.26
355.268	128
355.48	76.8
355.692	3.07
355.903	58.37
356.115	91.13
356.326	-23.55
356.538	72.7
356.749	19.46
356.961	70.65
357.172	-1.02
357.384	31.74
357.595	-9.22
357.807	-3.07
358.018	39.94
358.23	48.13
358.441	99.33
358.653	21.5
358.864	74.75
359.075	74.75
359.287	48.13
359.498	80.89
359.709	23.55
359.921	25.6
360.132	60.42
360.344	87.04
360.555	64.51
360.766	41.98
360.977	134.14
361.189	60.42
361.4	-41.98
361.611	44.03
361.823	-21.5
362.034	-1.02
362.245	50.18
362.456	54.27
362.667	58.37
362.879	11.26
363.09	50.18
363.301	105.47
363.512	-23.55
363.723	78.85
363.935	60.42
364.146	58.37
364.357	46.08
364.568	19.46
364.779	17.41
364.99	15.36
365.201	136.19
365.412	103.42
365.623	31.74
365.834	146.43
366.045	23.55
366.256	37.89
366.467	58.37
366.678	17.41
366.889	62.46
367.1	23.55
367.311	66.56
367.522	113.66
367.733	95.23
367.944	62.46
368.155	89.09
368.366	89.09
368.577	107.52
368.788	128
368.999	29.7
369.209	25.6
369.42	5.12
369.631	89.09
369.842	62.46
370.053	19.46
370.264	78.85
370.474	48.13
370.685	-33.79
370.896	13.31
371.107	-3.07
371.317	13.31
371.528	-1.02
371.739	46.08
371.95	87.04
372.16	58.37
372.371	68.61
372.582	33.79
372.792	97.28
373.003	31.74
373.214	-44.03
373.424	54.27
373.635	-19.46
373.846	76.8
374.056	23.55
374.267	64.51
374.477	74.75
374.688	46.08
374.898	-19.46
375.109	46.08
375.319	-5.12
375.53	105.47
375.74	64.51
375.951	35.84
376.161	50.18
376.372	13.31
376.582	25.6
376.793	35.84
377.003	41.98
377.214	31.74
377.424	54.27
377.635	5.12
377.845	48.13
378.055	78.85
378.266	11.26
378.476	33.79
378.686	35.84
378.897	62.46
379.107	25.6
379.317	99.33
379.528	1.02
379.738	99.33
379.948	78.85
380.158	72.7
380.369	72.7
380.579	70.65
380.789	44.03
380.999	27.65
381.21	37.89
381.42	101.37
381.63	76.8
381.84	58.37
382.05	37.89
382.261	-44.03
382.471	136.19
382.681	97.28
382.891	97.28
383.101	74.75
383.311	66.56
383.521	-33.79
383.731	70.65
383.941	48.13
384.151	68.61
384.361	152.57
384.571	97.28
384.781	39.94
384.991	-39.94
385.201	95.23
385.411	44.03
385.621	60.42
385.831	35.84
386.041	39.94
386.251	111.61
386.461	115.71
386.671	19.46
386.881	56.32
387.091	-35.84
387.301	46.08
387.511	9.22
387.72	21.5
387.93	54.27
388.14	58.37
388.35	60.42
388.56	89.09
388.769	44.03
388.979	95.23
389.189	-17.41
389.399	15.36
389.609	56.32
389.818	111.61
390.028	37.89
390.238	111.61
390.447	113.66
390.657	97.28
390.867	44.03
391.076	19.46
391.286	37.89
391.496	29.7
391.705	111.61
391.915	25.6
392.125	23.55
392.334	-19.46
392.544	44.03
392.753	128
392.963	70.65
393.172	140.29
393.382	56.32
393.591	60.42
393.801	113.66
394.01	46.08
394.22	56.32
394.429	50.18
394.639	68.61
394.848	101.37
395.058	78.85
395.267	66.56
395.477	54.27
395.686	123.9
395.895	80.89
396.105	105.47
396.314	82.94
396.524	54.27
396.733	35.84
396.942	91.13
397.152	1.02
397.361	101.37
397.57	76.8
397.78	144.38
397.989	105.47
398.198	121.85
398.407	175.1
398.617	64.51
398.826	78.85
399.035	48.13
399.244	66.56
399.453	101.37
399.663	19.46
399.872	60.42
400.081	87.04
400.29	82.94
400.499	113.66
400.708	142.33
400.917	50.18
401.127	74.75
401.336	27.65
401.545	95.23
401.754	130.05
401.963	107.52
402.172	130.05
402.381	99.33
402.59	78.85
402.799	95.23
403.008	138.24
403.217	78.85
403.426	37.89
403.635	97.28
403.844	82.94
404.053	48.13
404.262	89.09
404.471	146.43
404.68	87.04
404.888	89.09
405.097	142.33
405.306	109.57
405.515	121.85
405.724	115.71
405.933	168.96
406.142	95.23
406.35	132.09
406.559	82.94
406.768	113.66
406.977	156.67
407.185	117.76
407.394	93.18
407.603	117.76
407.812	142.33
408.02	156.67
408.229	189.44
408.438	31.74
408.646	158.72
408.855	150.53
409.064	238.59
409.272	220.16
409.481	211.96
409.69	193.53
409.898	230.4
410.107	244.73
410.315	175.1
410.524	218.11
410.733	201.72
410.941	224.25
411.15	216.06
411.358	281.6
411.567	248.83
411.775	271.36
411.984	250.88
412.192	205.82
412.401	263.16
412.609	273.4
412.818	287.74
413.026	248.83
413.234	375.8
413.443	332.79
413.651	330.75
413.86	402.43
414.068	330.75
414.276	406.52
414.485	365.56
414.693	367.61
414.901	422.91
415.11	429.05
415.318	349.18
415.526	541.69
415.734	427
415.943	400.38
416.151	429.05
416.359	517.11
416.567	549.88
416.776	482.3
416.984	613.37
417.192	625.65
417.4	670.71
417.608	633.85
417.817	646.13
418.025	613.37
418.233	652.28
418.441	642.04
418.649	642.04
418.857	736.24
419.065	742.39
419.273	748.53
419.481	801.78
419.689	848.88
419.897	850.93
420.105	814.07
420.313	816.12
420.521	891.89
420.729	1031.15
420.937	1016.82
421.145	984.05
421.353	1072.11
421.561	1131.5
421.769	1147.89
421.977	1139.69
422.185	1160.17
422.393	1221.61
422.601	1303.53
422.809	1362.92
423.017	1270.76
423.224	1309.68
423.432	1356.78
423.64	1522.66
423.848	1393.64
424.056	1528.81
424.263	1678.31
424.471	1489.9
424.679	1641.45
424.887	1741.8
425.094	1838.05
425.302	1823.72
425.51	1919.97
425.718	1846.24
425.925	1930.21
426.133	1999.84
426.341	2130.91
426.548	2214.88
426.756	2188.25
426.964	2300.89
427.171	2470.87
427.379	2378.72
427.586	2472.92
427.794	2591.7
428.001	2603.99
428.209	2780.12
428.417	2708.44
428.624	2933.72
428.832	2980.82
429.039	2900.95
429.247	2986.96
429.454	3249.1
429.662	3357.64
429.869	3226.57
430.076	3455.95
430.284	3421.13
430.491	3345.36
430.699	3638.22
430.906	3634.12
431.114	3711.94
431.321	3910.6
431.528	3863.49
431.736	4076.48
431.943	4350.91
432.15	4146.11
432.358	4359.1
432.565	4488.12
432.772	4408.25
432.979	4807.61
433.187	4791.22
433.394	4770.74
433.601	5184.43
433.808	5108.66
434.016	5094.32
434.223	5389.23
434.43	5600.17
434.637	5532.59
434.844	5962.66
435.052	5933.99
435.259	5868.45
435.466	5903.27
435.673	5933.99
435.88	6300.58
436.087	6724.51
436.294	6665.11
436.501	6587.29
436.708	6517.66
436.915	6931.35
437.122	7238.55
437.329	7170.96
437.537	7560.08
437.743	7689.1
437.95	7502.73
438.157	7949.19
438.364	8215.43
438.571	8180.61
438.778	8184.71
438.985	9048.95
439.192	8594.3
439.399	8715.13
439.606	8616.83
439.813	9425.78
440.02	9837.42
440.227	9745.26
440.433	9436.02
440.64	9831.27
440.847	9818.99
441.054	9866.09
441.261	10427.23
441.467	10503.01
441.674	10738.52
441.881	11258.71
442.088	11137.88
442.294	11297.62
442.501	11387.73
442.708	11434.83
442.914	12022.6
443.121	12784.44
443.328	12464.96
443.534	13187.89
443.741	12661.57
443.948	12706.62
444.154	13525.81
444.361	13400.88
444.568	13294.39
444.774	13726.51
444.981	13886.25
445.187	14123.82
445.394	14580.51
445.6	14408.48
445.807	15962.89
446.013	15299.35
446.22	15579.92
446.426	16173.83
446.633	16372.49
446.839	16913.15
447.046	16104.2
447.252	17244.92
447.459	17222.39
447.665	16986.88
447.871	17914.61
448.078	18801.38
448.284	17752.82
448.491	18234.09
448.697	18985.69
448.903	19092.19
449.11	19299.03
449.316	18930.4
449.522	19587.8
449.728	19880.66
449.935	20218.57
450.141	20142.8
450.347	20878.02
450.553	20159.18
450.76	20333.26
450.966	21142.21
451.172	20853.44
451.378	21074.62
451.584	20832.96
451.791	21564.09
451.997	21174.97
452.203	21957.3
452.409	21805.75
452.615	21613.24
452.821	21287.61
453.027	20937.41
453.233	21736.12
453.44	21033.66
453.646	21273.28
453.852	21533.37
454.058	21721.78
454.264	21076.67
454.47	21437.11
454.676	21084.86
454.882	21969.58
455.088	19708.63
455.294	19950.29
455.5	20452.04
455.705	20865.73
455.911	20013.77
456.117	19585.75
456.323	19165.92
456.529	18193.13
456.735	18795.23
456.941	18610.92
457.147	18125.55
457.352	17750.77
457.558	17926.89
457.764	17244.92
457.97	17259.26
458.176	16943.87
458.381	17281.78
458.587	15903.5
458.793	16161.55
458.999	15346.45
459.204	16286.47
459.41	15543.06
459.616	14650.14
459.821	14586.66
460.027	14707.49
460.233	14324.52
460.438	13878.06
460.644	13951.79
460.85	13153.08
461.055	13148.98
461.261	13085.5
461.466	12012.36
461.672	11840.33
461.878	12544.83
462.083	11699.02
462.289	11690.83
462.494	11420.5
462.7	10918.75
462.905	10779.48
463.111	10885.98
463.316	10773.34
463.522	10748.76
463.727	10840.92
463.932	10527.58
464.138	10541.92
464.343	10494.82
464.549	10339.17
464.754	10668.89
464.959	10595.17
465.165	10472.29
465.37	10122.09
465.575	9888.62
465.781	10259.3
465.986	10357.6
466.191	9837.42
466.397	9808.75
466.602	9376.62
466.807	9841.51
467.012	9751.4
467.218	9534.32
467.423	9558.89
467.628	9649
467.833	10025.83
468.038	9472.88
468.244	9202.55
468.449	9669.48
468.654	9423.73
468.859	9266.03
469.064	9345.91
469.269	9038.71
469.474	9010.04
469.679	9177.97
469.885	8827.77
470.09	8944.5
470.295	8917.88
470.5	8625.02
470.705	8819.58
470.91	8424.32
471.115	8573.82
471.32	8510.33
471.525	8633.21
471.73	8346.5
471.935	8346.5
472.139	8223.62
472.344	8262.53
472.549	8076.16
472.754	8231.81
472.959	7803.78
473.164	7674.76
473.369	7596.94
473.574	7754.63
473.778	7687.05
473.983	7590.8
474.188	7715.72
474.393	7361.42
474.598	7398.29
474.802	7355.28
475.007	7222.16
475.212	7345.04
475.417	6960.02
475.621	6982.55
475.826	7005.08
476.031	6906.77
476.235	6695.83
476.44	6890.39
476.645	6609.82
476.849	6835.1
477.054	6654.87
477.259	6583.2
477.463	6609.82
477.668	6509.47
477.872	6486.94
478.077	6368.16
478.282	6259.62
478.486	6224.8
478.691	6235.04
478.895	6280.1
479.1	6251.42
479.304	6124.45
479.509	6034.34
479.713	6151.07
479.918	5948.33
480.122	6079.4
480.326	5977
480.531	5778.34
480.735	5852.07
480.94	5931.94
481.144	5809.06
481.348	5737.38
481.553	5690.28
481.757	5577.64
481.961	5749.67
482.166	5694.38
482.37	5813.16
482.574	5604.27
482.778	5688.23
482.983	5723.05
483.187	5837.73
483.391	5739.43
483.595	5561.26
483.8	5536.68
484.004	5759.91
484.208	5737.38
484.412	5653.42
484.616	5788.58
484.821	5815.21
485.025	5698.47
485.229	5741.48
485.433	5798.82
485.637	5653.42
485.841	5518.25
486.045	5626.79
486.249	5594.03
486.453	5632.94
486.657	5714.86
486.861	5809.06
487.065	5536.68
487.269	5755.82
487.473	5559.21
487.677	5729.19
487.881	5770.15
488.085	5585.83
488.289	5776.3
488.493	5778.34
488.697	5821.35
488.901	5768.1
489.105	5837.73
489.309	5677.99
489.512	5815.21
489.716	5868.45
489.92	5733.29
490.124	5698.47
490.328	6063.01
490.531	5727.14
490.735	5827.5
490.939	5970.85
491.143	5784.49
491.346	5964.71
491.55	5952.42
491.754	6081.44
491.958	5933.99
492.161	6022.05
492.365	6097.83
492.569	6187.94
492.772	6052.77
492.976	6144.93
493.18	6020
493.383	6343.58
493.587	6220.71
493.79	6321.06
493.994	6349.73
494.197	6347.68
494.401	6450.08
494.605	6345.63
494.808	6648.73
495.012	6615.96
495.215	6656.92
495.419	6634.39
495.622	6556.57
495.825	6812.57
496.029	6753.18
496.232	6751.13
496.436	6892.44
496.639	7195.54
496.843	6894.49
497.046	7197.59
497.249	7295.89
497.453	7193.49
497.656	7396.24
497.859	7396.24
498.063	7396.24
498.266	7572.36
498.469	7488.4
498.673	7609.23
498.876	7572.36
499.079	7959.43
499.282	7918.47
499.485	8051.59
499.689	8000.39
499.892	8270.72
500.095	8436.61
500.298	8645.5
500.501	8299.39
500.705	8674.17
500.908	8868.73
501.111	8895.35
501.314	8899.45
501.517	8991.61
501.72	9184.12
501.923	9223.03
502.126	9388.91
502.329	9591.66
502.532	9712.49
502.735	9681.77
502.938	9870.19
503.141	9812.84
503.344	9976.68
503.547	10189.67
503.75	10421.09
503.953	10402.66
504.156	10474.34
504.359	10754.91
504.562	10859.35
504.765	11219.8
504.968	11127.64
505.17	11148.12
505.373	11320.15
505.576	11486.03
505.779	11633.49
505.982	11721.55
506.185	12073.8
506.387	12192.58
506.59	12102.47
506.793	12352.32
506.996	12262.21
507.198	12802.88
507.401	12723.01
507.604	12913.47
507.807	13155.13
508.009	13253.43
508.212	13202.23
508.415	13536.05
508.617	13488.95
508.82	13689.65
509.022	13775.66
509.225	14439.2
509.428	14476.07
509.63	14289.7
509.833	14299.94
510.035	14639.9
510.238	14977.82
510.44	15143.7
510.643	15026.97
510.845	15426.32
511.048	15270.68
511.25	15631.12
511.453	15518.48
511.655	16417.54
511.858	16220.94
512.06	16294.66
512.262	16651.01
512.465	16655.11
512.667	16896.77
512.87	17226.49
513.072	16964.35
513.274	17623.8
513.477	17752.82
513.679	17638.13
513.881	18123.5
514.084	18133.74
514.286	18277.1
514.488	18383.59
514.69	18875.1
514.893	19157.72
515.095	19178.2
515.297	19280.6
515.499	19600.08
515.701	19538.65
515.904	20075.21
516.106	19958.48
516.308	20452.04
516.51	20380.36
516.712	20726.47
516.914	20908.74
517.116	21004.99
517.318	21281.47
517.52	21533.37
517.722	21715.64
517.925	21684.92
518.127	21852.85
518.329	22151.85
518.531	22287.02
518.733	22643.37
518.935	22870.69
519.136	22885.03
519.338	23429.79
519.54	23567
519.742	23718.55
519.944	23585.43
520.146	24091.28
520.348	24425.1
520.55	24308.37
520.752	24593.03
520.954	25289.34
521.155	25094.79
521.357	25645.69
521.559	25578.11
521.761	25909.88
521.963	25858.68
522.164	26147.44
522.366	26385.01
522.568	26417.77
522.77	26468.97
522.971	27124.32
523.173	26786.41
523.375	27251.3
523.576	27361.89
523.778	27124.32
523.98	27814.49
524.181	27679.32
524.383	27908.69
524.584	28256.85
524.786	28398.16
524.988	28166.74
525.189	28502.61
525.391	28959.3
525.592	28924.49
525.794	29123.14
525.995	29110.85
526.197	29229.63
526.398	29510.21
526.6	29487.68
526.801	29772.35
527.003	30009.91
527.204	29952.57
527.406	29866.55
527.607	30249.52
527.808	30345.78
528.01	29835.83
528.211	30491.18
528.412	31119.91
528.614	30835.24
528.815	30753.32
529.016	31062.57
529.218	30974.5
529.419	30872.1
529.62	31111.72
529.822	30994.98
530.023	31017.51
530.224	31013.41
530.425	31353.38
530.626	31093.29
530.828	31144.48
531.029	31867.42
531.23	31412.77
531.431	31572.51
531.632	31191.59
531.833	31875.61
532.035	31724.06
532.236	31834.65
532.437	31842.84
532.638	31453.73
532.839	31969.82
533.04	31906.33
533.241	31584.8
533.442	32039.45
533.643	32209.43
533.844	31824.41
534.045	31754.78
534.246	31808.03
534.447	32240.15
534.648	32178.71
534.849	32246.29
535.05	31769.12
535.251	32225.81
535.451	32408.08
535.652	32092.69
535.853	32197.14
536.054	32135.7
536.255	32387.6
536.456	32035.35
536.657	32371.22
536.857	31912.47
537.058	32217.62
537.259	31959.58
537.46	32477.71
537.66	32039.45
537.861	32125.46
538.062	32260.63
538.263	32315.92
538.463	32051.73
538.664	32143.89
538.865	32475.66
539.065	32449.04
539.266	31730.2
539.466	32416.27
539.667	31949.34
539.868	32602.64
540.068	32252.44
540.269	32141.85
540.469	32543.25
540.67	32221.72
540.87	32526.86
541.071	31912.47
541.271	32107.03
541.472	31994.39
541.672	32004.63
541.873	32147.99
542.073	31834.65
542.274	32297.49
542.474	31984.15
542.675	31990.3
542.875	32549.39
543.075	32094.74
543.276	31592.99
543.476	32670.22
543.676	32029.21
543.877	32234
544.077	32326.16
544.277	32225.81
544.478	32152.09
544.678	32291.35
544.878	32127.51
545.078	32051.73
545.279	32006.68
545.479	32313.87
545.679	31996.44
545.879	32174.61
546.079	32350.74
546.28	32168.47
546.48	31990.3
546.68	32043.54
546.88	32420.37
547.08	32055.83
547.28	31875.61
547.48	31693.34
547.68	32094.74
547.88	31822.36
548.081	32350.74
548.281	31728.16
548.481	32203.28
548.681	32090.65
548.881	31814.17
549.081	31984.15
549.28	31760.92
549.48	32324.11
549.68	31648.29
549.88	32201.24
550.08	32086.55
550.28	32066.07
550.48	32102.93
550.68	32023.06
550.88	31945.24
551.08	31709.72
551.279	32203.28
551.479	31793.69
551.679	32258.58
551.879	32082.45
552.079	31887.9
552.278	31982.1
552.478	31736.35
552.678	31719.96
552.878	32102.93
553.077	31750.68
553.277	31660.57
553.477	32002.58
553.676	31697.44
553.876	31871.51
554.076	31689.24
554.275	31547.93
554.475	31478.3
554.674	31896.09
554.874	31562.27
555.074	31595.04
555.273	31386.15
555.473	31629.85
555.672	31400.48
555.872	31613.47
556.071	31822.36
556.271	31484.45
556.47	31502.88
556.67	31277.6
556.869	31388.19
557.068	31461.92
557.268	31275.55
557.467	31193.64
557.667	31351.33
557.866	31081
558.065	31347.23
558.265	31158.82
558.464	31154.72
558.663	31259.17
558.863	30597.68
559.062	31445.54
559.261	31222.31
559.461	31238.69
559.66	30575.15
559.859	30902.82
560.058	30880.3
560.258	30839.34
560.457	30452.27
560.656	30702.12
560.855	30714.41
561.054	30376.5
561.253	30655.02
561.453	30517.81
561.652	30714.41
561.851	30401.07
562.05	30036.53
562.249	30100.02
562.448	30356.02
562.647	30550.57
562.846	30138.93
563.045	30057.01
563.244	29973.05
563.443	30200.37
563.642	29735.48
563.841	29981.24
564.04	29727.29
564.239	30175.8
564.438	29672
564.637	30175.8
564.836	29880.89
565.035	29407.81
565.234	29727.29
565.432	29473.34
565.631	29327.94
565.83	29569.6
566.029	29442.62
566.228	29370.94
566.427	29473.34
566.625	29065.8
566.824	28430.93
567.023	29366.85
567.222	28736.07
567.42	29231.68
567.619	29180.48
567.818	28750.41
568.016	29047.36
568.215	29084.23
568.414	28351.06
568.612	28957.25
568.811	28752.46
569.01	28627.53
569.208	28041.81
569.407	28379.73
569.605	28062.29
569.804	28385.87
570.002	28013.14
570.201	28303.95
570.4	27906.65
570.598	27994.71
570.797	27707.99
570.995	27925.08
571.193	27349.6
571.392	28004.95
571.59	27683.42
571.789	27257.44
571.987	27626.07
572.186	27697.75
572.384	27318.88
572.582	27208.29
572.781	27484.76
572.979	27046.5
573.177	27185.76
573.376	27165.28
573.574	26755.69
573.772	27155.04
573.971	26735.21
574.169	27163.23
574.367	26495.6
574.565	26385.01
574.763	26632.81
574.962	26673.77
575.16	26577.51
575.358	26575.47
575.556	25887.35
575.754	26430.06
575.952	26202.74
576.151	26204.78
576.349	25893.49
576.547	25891.44
576.745	25963.12
576.943	25873.01
577.141	25457.28
577.339	25731.7
577.537	25371.26
577.735	25393.79
577.933	25315.97
578.131	25459.32
578.329	25395.84
578.527	24978.05
578.725	25332.35
578.923	25209.47
579.121	25148.03
579.319	24857.22
579.516	25342.59
579.714	24980.1
579.912	25021.06
580.11	24904.32
580.308	24830.6
580.506	24390.28
580.704	24234.64
580.901	24435.34
581.099	24640.14
581.297	24162.96
581.495	23988.88
581.692	24330.89
581.89	24234.64
582.088	24232.59
582.285	23831.19
582.483	23855.76
582.681	23894.68
582.878	23990.93
583.076	23636.63
583.274	23990.93
583.471	23517.85
583.669	23720.6
583.866	23593.62
584.064	23442.07
584.262	23409.31
584.459	23437.98
584.657	23540.38
584.854	23341.72
585.052	23048.86
585.249	22985.38
585.447	23147.17
585.644	22696.61
585.841	22954.66
586.039	23231.13
586.236	22852.26
586.434	22614.69
586.631	22813.35
586.828	22780.58
587.026	22739.62
587.223	22549.16
587.42	22381.23
587.618	22457
587.815	22055.6
588.012	22143.66
588.21	22153.9
588.407	22452.91
588.604	21988.02
588.801	22176.43
588.999	22051.5
589.196	22049.46
589.393	22084.27
589.59	21813.94
589.787	21693.11
589.984	21324.47
590.182	21303.99
590.379	21410.49
590.576	21314.23
590.773	21580.47
590.97	21226.17
591.167	21314.23
591.364	20925.12
591.561	21256.89
591.758	20923.07
591.955	20689.6
592.152	20900.55
592.349	20888.26
592.546	20994.75
592.743	20902.59
592.94	20486.86
593.137	20626.12
593.334	20579.01
593.531	20394.7
593.727	20769.48
593.924	20482.76
594.121	20124.36
594.318	20447.94
594.515	20021.97
594.712	20660.93
594.908	19927.76
595.105	20200.14
595.302	19856.08
595.499	19985.1
595.696	19835.6
595.892	19641.04
596.089	19933.9
596.286	20081.36
596.482	19466.97
596.679	19593.94
596.876	19632.85
597.072	19571.41
597.269	19436.25
597.466	19421.91
597.662	19471.06
597.859	19303.13
598.055	18959.07
598.252	19329.75
598.448	19127
598.645	19032.8
598.841	18922.21
599.038	18844.38
599.234	18952.93
599.431	18864.86
599.627	18823.9
599.824	18901.73
600.02	18811.62
600.217	18823.9
600.413	18612.96
600.609	18365.16
600.806	18512.61
601.002	18488.04
601.198	18234.09
601.395	18393.83
601.591	18195.18
601.787	18227.95
601.984	18045.68
602.18	18252.52
602.376	17941.23
602.572	18125.55
602.769	17969.9
602.965	17648.37
603.161	17742.58
603.357	17718
603.553	17537.78
603.75	17703.67
603.946	17554.16
604.142	17361.66
604.338	17257.21
604.534	17603.32
604.73	17312.5
604.926	17128.19
605.122	17163
605.318	17160.95
605.514	17015.55
605.71	17285.88
605.906	17109.75
606.102	17015.55
606.298	17132.28
606.494	16829.18
606.69	17015.55
606.886	16952.06
607.082	16808.7
607.278	16872.19
607.474	16577.28
607.67	16651.01
607.866	16536.32
608.062	16759.55
608.257	16534.28
608.453	16358.15
608.649	16530.18
608.845	16423.69
609.041	16036.62
609.236	16405.25
609.432	16216.84
609.628	16122.63
609.824	16192.26
610.019	16136.97
610.215	15997.71
610.411	16089.87
610.606	15932.17
610.802	15919.89
610.998	15897.36
611.193	15983.37
611.389	15938.32
611.584	15772.43
611.78	15790.86
611.976	15782.67
612.171	15821.58
612.367	15710.99
612.562	15504.15
612.758	15409.94
612.953	15467.28
613.149	15792.91
613.344	15631.12
613.539	15686.42
613.735	15364.89
613.93	15436.56
614.126	15250.2
614.321	15502.1
614.517	15242.01
614.712	15301.4
614.907	15393.56
615.103	15248.15
615.298	15344.41
615.493	15360.79
615.688	14889.76
615.884	15280.92
616.079	14943
616.274	15317.78
616.47	14947.1
616.665	14910.24
616.86	14764.83
617.055	15049.5
617.25	14717.73
617.445	14859.04
617.641	14486.31
617.836	14856.99
618.031	14590.75
618.226	14793.5
618.421	14594.85
618.616	14592.8
618.811	14471.97
619.006	14674.72
619.201	14383.91
619.396	14461.73
619.591	14261.03
619.786	14400.29
619.981	13869.87
620.176	14150.44
620.371	13980.46
620.566	14236.45
620.761	13941.55
620.956	14029.61
621.151	13890.35
621.346	13867.82
621.541	13699.89
621.735	13665.07
621.93	13495.09
622.125	13517.62
622.32	13198.13
622.515	13413.17
622.709	13099.83
622.904	13302.58
623.099	13335.35
623.294	13216.57
623.488	13046.58
623.683	12888.89
623.878	12870.46
624.072	12964.67
624.267	12813.12
624.462	12843.84
624.656	12653.37
624.851	12583.74
625.046	12520.26
625.24	12546.88
625.435	12317.51
625.629	12350.28
625.824	12147.53
626.018	12071.75
626.213	11873.1
626.407	12403.52
626.602	11778.89
626.796	11940.68
626.991	11934.54
627.185	11760.46
627.38	11850.57
627.574	11713.36
627.768	11453.27
627.963	11434.83
628.157	11246.42
628.352	11322.2
628.546	11277.14
628.74	11418.45
628.935	11086.68
629.129	11377.49
629.323	10873.69
629.517	11000.66
629.712	11029.34
629.906	10845.02
630.1	10883.93
630.294	10550.11
630.489	10777.44
630.683	10937.18
630.877	10566.49
631.071	10484.58
631.265	10627.93
631.459	10474.34
631.653	10720.09
631.848	10376.03
632.042	10312.55
632.236	10312.55
632.43	10158.95
632.624	10306.4
632.818	10206.05
633.012	10040.17
633.206	10009.45
633.4	9851.75
633.594	9831.27
633.788	9831.27
633.982	9884.52
634.176	9616.24
634.369	9681.77
634.563	9689.96
634.757	9569.13
634.951	9497.46
635.145	9413.49
635.339	9612.14
635.533	9436.02
635.726	9548.65
635.92	9253.75
636.114	9253.75
636.308	9186.16
636.501	9460.59
636.695	8995.7
636.889	8985.46
637.083	8876.92
637.276	8993.65
637.47	8956.79
637.664	8809.34
637.857	8706.94
638.051	8835.96
638.244	8629.12
638.438	8739.71
638.632	8614.78
638.825	8588.16
639.019	8383.36
639.212	8706.94
639.406	8485.76
639.599	8450.94
639.793	8389.5
639.986	8383.36
640.18	8354.69
640.373	8272.77
640.567	8141.7
640.76	8061.83
640.954	8180.61
641.147	7992.2
641.34	8041.35
641.534	8012.68
641.727	7900.04
641.92	7916.42
642.114	7844.74
642.307	7771.02
642.5	7732.11
642.694	7707.53
642.887	7582.6
643.08	7598.99
643.273	7555.98
643.467	7566.22
643.66	7459.73
643.853	7400.34
644.046	7295.89
644.239	7338.9
644.432	7295.89
644.626	7236.5
644.819	7103.38
645.012	7312.27
645.205	7107.48
645.398	7154.58
645.591	6970.26
645.784	6906.77
645.977	6863.77
646.17	6874.01
646.363	6837.14
646.556	6790.04
646.749	6845.34
646.942	6847.38
647.135	6546.33
647.328	6640.54
647.521	6546.33
647.714	6503.32
647.907	6507.42
648.099	6382.49
648.292	6552.48
648.485	6456.22
648.678	6445.98
648.871	6491.04
649.064	6396.83
649.256	6251.42
649.449	6144.93
649.642	6232.99
649.835	6194.08
650.027	6230.94
650.22	6005.67
650.413	6163.36
650.605	6093.73
650.798	5972.9
650.991	5862.31
651.183	6155.17
651.376	5903.27
651.568	6003.62
651.761	5858.21
651.954	5858.21
652.146	6015.91
652.339	5749.67
652.531	5663.66
652.724	5653.42
652.916	5624.75
653.109	5686.19
653.301	5653.42
653.494	5655.47
653.686	5557.16
653.879	5634.99
654.071	5321.65
654.263	5360.56
654.456	5518.25
654.648	5555.12
654.84	5274.54
655.033	5155.76
655.225	5254.06
655.417	5153.71
655.61	5176.24
655.802	5276.59
655.994	5235.63
656.186	5305.26
656.379	5047.22
656.571	5069.75
656.763	5133.23
656.955	4979.64
657.148	5030.84
657.34	4977.59
657.532	5016.5
657.724	4860.85
657.916	5008.31
658.108	4879.29
658.3	4905.91
658.492	4879.29
658.684	4801.46
658.876	4733.88
659.068	4692.92
659.26	4621.24
659.452	4858.81
659.644	4608.95
659.836	4721.59
660.028	4637.63
660.22	4635.58
660.412	4469.69
660.604	4582.33
660.796	4570.04
660.988	4508.6
661.18	4465.6
661.372	4400.06
661.563	4473.79
661.755	4248.51
661.947	4359.1
662.139	4307.9
662.331	4250.56
662.522	4217.79
662.714	4111.3
662.906	4230.08
663.097	4248.51
663.289	4148.16
663.481	4076.48
663.673	4135.87
663.864	4166.59
664.056	4117.44
664.247	3967.94
664.439	3974.08
664.631	4025.28
664.822	3832.77
665.014	3906.5
665.205	3761.09
665.397	3855.3
665.588	3980.23
665.78	3705.8
665.971	3845.06
666.163	3875.78
666.354	3830.73
666.546	3916.74
666.737	3744.71
666.929	3748.81
667.12	3908.55
667.311	3722.18
667.503	3666.89
667.694	3703.75
667.885	3615.69
668.077	3693.51
668.268	3683.27
668.459	3509.19
668.651	3578.83
668.842	3603.4
669.033	3519.43
669.224	3593.16
669.416	3580.87
669.607	3519.43
669.798	3539.91
669.989	3578.83
670.18	3341.26
670.371	3462.09
670.563	3388.36
670.754	3400.65
670.945	3425.23
671.136	3374.03
671.327	3335.12
671.518	3265.49
671.709	3390.41
671.9	3290.06
672.091	3242.96
672.282	3316.69
672.473	3245.01
672.664	3345.36
672.855	3449.8
673.046	3339.21
673.237	3224.53
673.428	3304.4
673.619	3210.19
673.809	3339.21
674	3269.58
674.191	3191.76
674.382	3089.36
674.573	3097.55
674.764	3089.36
674.954	3072.98
675.145	3150.8
675.336	3218.38
675.527	3142.61
675.717	3146.7
675.908	2962.39
676.099	3066.83
676.289	3146.7
676.48	3097.55
676.671	3077.07
676.861	3085.26
677.052	3021.78
677.243	3027.92
677.433	2986.96
677.624	3013.59
677.814	2905.04
678.005	3009.49
678.195	2999.25
678.386	2952.15
678.576	2927.57
678.767	2964.43
678.957	2866.13
679.148	2925.52
679.338	3032.02
679.529	2749.4
679.719	3054.55
679.909	2927.57
680.1	2915.28
680.29	2995.15
680.481	2958.29
680.671	2874.32
680.861	2907.09
681.052	2859.99
681.242	2823.12
681.432	2882.52
681.622	2745.3
681.813	2884.56
682.003	2890.71
682.193	2874.32
682.383	2808.79
682.573	2946
682.764	2868.18
682.954	2862.04
683.144	2776.02
683.334	2780.12
683.524	2857.94
683.714	2782.17
683.904	2833.36
684.094	2929.62
684.284	2976.72
684.474	2806.74
684.664	2857.94
684.854	2790.36
685.044	2808.79
685.234	2849.75
685.424	2759.64
685.614	2886.61
685.804	2907.09
685.994	2741.21
686.184	2835.41
686.374	2843.6
686.564	2759.64
686.753	2745.3
686.943	2692.05
687.133	2855.89
687.323	2765.78
687.513	2749.4
687.702	2683.86
687.892	2647
688.082	2741.21
688.272	2696.15
688.461	2708.44
688.651	2681.82
688.841	2694.1
689.03	2659.29
689.22	2624.47
689.41	2722.77
689.599	2634.71
689.789	2712.53
689.979	2687.96
690.168	2606.04
690.358	2696.15
690.547	2649.05
690.737	2687.96
690.926	2636.76
691.116	2632.66
691.305	2675.67
691.495	2565.08
691.684	2679.77
691.874	2577.37
692.063	2544.6
692.252	2577.37
692.442	2528.22
692.631	2589.66
692.82	2520.03
693.01	2524.12
693.199	2517.98
693.388	2585.56
693.578	2495.45
693.767	2530.27
693.956	2560.98
694.146	2431.96
694.335	2517.98
694.524	2425.82
694.713	2560.98
694.902	2477.02
695.092	2511.83
695.281	2495.45
695.47	2472.92
695.659	2517.98
695.848	2501.59
696.037	2491.35
696.226	2538.46
696.415	2468.83
696.604	2507.74
696.793	2321.37
696.982	2411.48
697.171	2493.4
697.36	2491.35
697.549	2515.93
697.738	2391
697.927	2452.44
698.116	2462.68
698.305	2491.35
698.494	2503.64
698.683	2493.4
698.872	2499.55
699.061	2440.15
699.25	2345.95
699.438	2407.39
699.627	2388.96
699.816	2374.62
700.005	2266.08
700.193	2331.61
700.382	2388.96
700.571	2274.27
700.76	2366.43
700.948	2550.75
701.137	2323.42
701.326	2288.61
701.514	2391
701.703	2370.52
701.892	2243.55
702.08	2274.27
702.269	2429.91
702.457	2327.52
702.646	2333.66
702.834	2313.18
703.023	2296.8
703.212	2266.08
703.4	2284.51
703.589	2216.93
703.777	2141.15
703.965	2296.8
704.154	2210.78
704.342	2423.77
704.531	2194.4
704.719	2169.82
704.907	2180.06
705.096	2204.64
705.284	2145.25
705.472	2108.38
705.661	2188.25
705.849	2397.15
706.037	2137.06
706.226	2069.47
706.414	2225.12
706.602	2249.69
706.79	2122.72
706.979	2225.12
707.167	2163.68
707.355	2180.06
707.543	2274.27
707.731	2159.58
707.919	2089.95
708.107	2145.25
708.296	2192.35
708.484	2048.99
708.672	2180.06
708.86	2223.07
709.048	2124.77
709.236	2096.1
709.424	2120.67
709.612	2126.82
709.8	2020.32
709.988	2061.28
710.176	2128.86
710.364	2151.39
710.551	2081.76
710.739	1944.55
710.927	2040.8
711.115	2044.9
711.303	2081.76
711.491	1958.88
711.679	2145.25
711.866	2032.61
712.054	2038.75
712.242	1993.7
712.43	2032.61
712.617	2104.29
712.805	2038.75
712.993	1962.98
713.181	1917.92
713.368	1989.6
713.556	1934.31
713.744	1997.79
713.931	2008.03
714.119	1901.54
714.306	1879.01
714.494	1942.5
714.682	2038.75
714.869	1876.96
715.057	2065.38
715.244	1848.29
715.432	1958.88
715.619	1911.78
715.807	1924.07
715.994	2048.99
716.182	1924.07
716.369	1936.35
716.556	1905.63
716.744	1872.87
716.931	1862.63
717.119	1862.63
717.306	1967.07
717.493	1895.4
717.681	1885.16
717.868	1833.96
718.055	1946.59
718.242	1887.2
718.43	1778.66
718.617	1790.95
718.804	1745.89
718.991	1815.52
719.179	1797.09
719.366	1862.63
719.553	1846.24
719.74	1858.53
719.927	1807.33
720.114	1856.48
720.301	1723.37
720.488	1801.19
720.676	1793
720.863	1766.37
721.05	1749.99
721.237	1772.52
721.424	1913.83
721.611	1737.7
721.798	1799.14
721.985	1756.13
722.172	1760.23
722.358	1668.07
722.545	1772.52
722.732	1678.31
722.919	1788.9
723.106	1768.42
723.293	1733.61
723.48	1762.28
723.667	1709.03
723.853	1674.21
724.04	1694.69
724.227	1790.95
724.414	1627.11
724.6	1610.73
724.787	1778.66
724.974	1709.03
725.161	1655.78
725.347	1620.97
725.534	1766.37
725.72	1590.25
725.907	1696.74
726.094	1657.83
726.28	1680.36
726.467	1743.85
726.653	1795.04
726.84	1651.69
727.027	1797.09
727.213	1612.78
727.4	1604.58
727.586	1717.22
727.773	1541.1
727.959	1598.44
728.145	1594.34
728.332	1684.45
728.518	1520.62
728.705	1655.78
728.891	1635.3
729.077	1629.16
729.264	1543.14
729.45	1504.23
729.636	1612.78
729.823	1657.83
730.009	1569.77
730.195	1502.19
730.382	1604.58
730.568	1596.39
730.754	1520.62
730.94	1467.37
731.126	1594.34
731.313	1563.62
731.499	1563.62
731.685	1573.86
731.871	1559.53
732.057	1590.25
732.243	1584.1
732.429	1528.81
732.615	1559.53
732.801	1502.19
732.987	1551.34
733.173	1530.86
733.359	1557.48
733.545	1491.95
733.731	1457.13
733.917	1598.44
734.103	1481.71
734.289	1516.52
734.475	1512.42
734.661	1448.94
734.847	1508.33
735.033	1526.76
735.219	1375.21
735.404	1520.62
735.59	1539.05
735.776	1498.09
735.962	1518.57
736.148	1522.66
736.333	1516.52
736.519	1557.48
736.705	1469.42
736.89	1422.31
737.076	1528.81
737.262	1395.69
737.447	1524.71
737.633	1420.27
737.819	1463.27
738.004	1516.52
738.19	1379.31
738.375	1383.4
738.561	1444.84
738.747	1354.73
738.932	1266.67
739.118	1446.89
739.303	1393.64
739.489	1405.93
739.674	1403.88
739.859	1377.26
740.045	1483.75
740.23	1352.68
740.416	1324.01
740.601	1414.12
740.786	1317.87
740.972	1391.59
741.157	1256.43
741.342	1338.35
741.528	1307.63
741.713	1348.59
741.898	1448.94
742.084	1375.21
742.269	1278.96
742.454	1348.59
742.639	1326.06
742.824	1328.11
743.01	1240.05
743.195	1330.16
743.38	1289.2
743.565	1364.97
743.75	1303.53
743.935	1336.3
744.12	1270.76
744.305	1285.1
744.49	1260.52
744.675	1260.52
744.86	1303.53
745.045	1192.94
745.23	1303.53
745.415	1197.04
745.6	1338.35
745.785	1209.33
745.97	1321.96
746.155	1215.47
746.34	1336.3
746.525	1233.9
746.71	1201.13
746.895	1172.46
747.079	1209.33
747.264	1242.09
747.449	1166.32
747.634	1258.48
747.819	1158.13
748.003	1147.89
748.188	1082.35
748.373	1102.83
748.557	1160.17
748.742	1121.26
748.927	1115.12
749.111	1168.37
749.296	1053.68
749.481	1199.09
749.665	1172.46
749.85	1055.73
750.034	1000.43
750.219	1102.83
750.404	1102.83
750.588	1133.55
750.773	1072.11
750.957	1022.96
751.141	1108.98
751.326	1020.91
751.51	1010.67
751.695	1033.2
751.879	1004.53
752.064	1059.82
752.248	1020.91
752.432	1037.3
752.617	982
752.801	1037.3
752.985	955.38
753.17	1018.86
753.354	951.28
753.538	1020.91
753.722	1012.72
753.907	938.99
754.091	982
754.275	975.86
754.459	883.7
754.643	844.79
754.828	920.56
755.012	904.18
755.196	846.84
755.38	967.67
755.564	971.76
755.748	828.4
755.932	918.51
756.116	895.99
756.3	824.31
756.484	842.74
756.668	893.94
756.852	838.64
757.036	871.41
757.22	820.21
757.404	885.75
757.588	834.55
757.772	801.78
757.956	744.44
758.14	785.4
758.323	807.92
758.507	795.64
758.691	797.68
758.875	855.03
759.059	840.69
759.242	832.5
759.426	863.22
759.61	713.72
759.794	719.86
759.977	742.39
760.161	799.73
760.345	721.91
760.528	758.77
760.712	711.67
760.895	738.29
761.079	713.72
761.263	715.77
761.446	732.15
761.63	750.58
761.813	756.72
761.997	779.25
762.18	754.68
762.364	748.53
762.547	758.77
762.731	678.9
762.914	703.48
763.098	760.82
763.281	674.81
763.464	631.8
763.648	687.09
763.831	693.24
764.015	631.8
764.198	639.99
764.381	687.09
764.564	672.76
764.748	705.53
764.931	652.28
765.114	703.48
765.297	736.24
765.481	568.31
765.664	664.57
765.847	691.19
766.03	629.75
766.213	519.16
766.397	670.71
766.58	635.89
766.763	687.09
766.946	658.42
767.129	607.22
767.312	685.05
767.495	611.32
767.678	578.55
767.861	658.42
768.044	615.41
768.227	594.93
768.41	609.27
768.593	605.17
768.776	605.17
768.959	578.55
769.142	615.41
769.324	607.22
769.507	625.65
769.69	592.89
769.873	603.13
770.056	553.98
770.239	601.08
770.421	652.28
770.604	551.93
770.787	599.03
770.97	556.02
771.152	599.03
771.335	658.42
771.518	545.78
771.7	521.21
771.883	623.61
772.066	619.51
772.248	523.26
772.431	549.88
772.613	480.25
772.796	541.69
772.978	547.83
773.161	553.98
773.343	560.12
773.526	560.12
773.708	545.78
773.891	490.49
774.073	594.93
774.256	566.26
774.438	578.55
774.621	496.63
774.803	506.87
774.985	537.59
775.168	558.07
775.35	500.73
775.532	506.87
775.715	494.58
775.897	508.92
776.079	504.82
776.261	513.02
776.444	494.58
776.626	422.91
776.808	443.39
776.99	357.37
777.173	418.81
777.355	490.49
777.537	564.22
777.719	449.53
777.901	451.58
778.083	529.4
778.265	431.1
778.447	412.67
778.629	406.52
778.811	400.38
778.993	467.96
779.175	431.1
779.357	455.67
779.539	482.3
779.721	367.61
779.903	414.71
780.085	474.1
780.267	418.81
780.449	326.65
780.631	388.09
780.812	349.18
780.994	320.51
781.176	465.91
781.358	353.27
781.54	388.09
781.721	443.39
781.903	351.23
782.085	330.75
782.267	345.08
782.448	398.33
782.63	357.37
782.812	359.42
782.993	340.99
783.175	429.05
783.357	312.32
783.538	379.9
783.72	343.03
783.901	332.79
784.083	357.37
784.264	369.66
784.446	375.8
784.627	373.75
784.809	332.79
784.99	359.42
785.172	277.5
785.353	287.74
785.535	338.94
785.716	246.78
785.897	320.51
786.079	318.46
786.26	427
786.441	316.41
786.623	304.12
786.804	328.7
786.985	345.08
787.167	310.27
787.348	275.45
787.529	263.16
787.71	314.36
787.891	332.79
788.073	269.31
788.254	351.23
788.435	265.21
788.616	326.65
788.797	279.55
788.978	261.12
789.159	181.25
789.34	304.12
789.522	332.79
789.703	310.27
789.884	242.68
790.065	254.97
790.246	295.93
790.427	283.64
790.607	277.5
790.788	291.84
790.969	246.78
791.15	211.96
791.331	168.96
791.512	261.12
791.693	232.44
791.874	191.49
792.054	283.64
792.235	302.08
792.416	244.73
792.597	279.55
792.778	283.64
792.958	177.15
793.139	181.25
793.32	201.72
793.5	254.97
793.681	287.74
793.862	279.55
794.042	238.59
794.223	164.86
794.404	201.72
794.584	185.34
794.765	259.07
794.945	273.4
795.126	285.69
795.306	220.16
795.487	166.91
795.667	181.25
795.848	220.16
796.028	244.73
796.209	205.82
796.389	144.38
796.57	308.22
796.75	205.82
796.93	240.64
797.111	201.72
797.291	128
797.471	220.16
797.652	228.35
797.832	185.34
798.012	185.34
798.192	111.61
798.373	197.63
798.553	138.24
798.733	171.01
798.913	248.83
799.093	146.43
799.274	220.16
799.454	234.49
799.634	211.96
799.814	203.77
799.994	152.57
800.174	181.25
800.354	173.05
800.534	136.19
800.714	216.06
800.894	205.82
801.074	189.44
801.254	117.76
801.434	197.63
801.614	181.25
801.794	156.67
801.974	320.51
802.154	193.53
802.334	115.71
802.514	228.35
802.693	185.34
802.873	187.39
803.053	199.68
803.233	113.66
803.413	185.34
803.592	123.9
803.772	136.19
803.952	214.01
804.131	185.34
804.311	177.15
804.491	136.19
804.67	146.43
804.85	177.15
805.03	218.11
805.209	179.2
805.389	136.19
805.568	152.57
805.748	87.04
805.928	201.72
806.107	189.44
806.287	144.38
806.466	119.81
806.646	160.77
806.825	144.38
807.004	128
807.184	134.14
807.363	238.59
807.543	179.2
807.722	91.13
807.901	105.47
808.081	109.57
808.26	136.19
808.439	132.09
808.619	128
808.798	123.9
808.977	132.09
809.156	93.18
809.336	156.67
809.515	70.65
809.694	177.15
809.873	80.89
810.052	173.05
810.231	152.57
810.411	117.76
810.59	154.62
810.769	74.75
810.948	142.33
811.127	37.89
811.306	72.7
811.485	107.52
811.664	148.48
811.843	123.9
812.022	162.81
812.201	134.14
812.38	201.72
812.559	146.43
812.737	154.62
812.916	105.47
813.095	78.85
813.274	162.81
813.453	136.19
813.632	150.53
813.811	134.14
813.989	33.79
814.168	148.48
814.347	87.04
814.526	101.37
814.704	154.62
814.883	156.67
815.062	54.27
815.24	144.38
815.419	121.85
815.598	87.04
815.776	74.75
815.955	173.05
816.133	95.23
816.312	54.27
816.49	80.89
816.669	132.09
816.847	89.09
817.026	111.61
817.204	93.18
817.383	134.14
817.561	119.81
817.74	87.04
817.918	138.24
818.097	173.05
818.275	60.42
818.453	134.14
818.632	35.84
818.81	82.94
818.988	66.56
819.167	52.22
819.345	37.89
819.523	105.47
819.701	128
819.879	87.04
820.058	3.07
820.236	119.81
820.414	152.57
820.592	31.74
820.77	107.52
820.948	15.36
821.127	80.89
821.305	99.33
821.483	87.04
821.661	148.48
821.839	48.13
822.017	87.04
822.195	128
822.373	121.85
822.551	103.42
822.729	119.81
822.907	7.17
823.085	123.9
823.262	62.46
823.44	70.65
823.618	128
823.796	97.28
823.974	128
824.152	50.18
824.329	148.48
824.507	121.85
824.685	125.95
824.863	117.76
825.04	66.56
825.218	95.23
825.396	91.13
825.574	19.46
825.751	62.46
825.929	56.32
826.107	54.27
826.284	111.61
826.462	66.56
826.639	105.47
826.817	97.28
826.994	46.08
827.172	78.85
827.349	160.77
827.527	54.27
827.704	101.37
827.882	58.37
828.059	144.38
828.237	119.81
828.414	35.84
828.591	56.32
828.769	70.65
828.946	80.89
829.124	56.32
829.301	84.99
829.478	97.28
829.655	125.95
829.833	107.52
830.01	62.46
830.187	-11.26
830.364	99.33
830.542	78.85
830.719	44.03
830.896	68.61
831.073	74.75
831.25	154.62
831.427	103.42
831.604	52.22
831.782	78.85
831.959	27.65
832.136	84.99
832.313	54.27
832.49	52.22
832.667	82.94
832.844	84.99
833.021	80.89
833.198	19.46
833.374	74.75
833.551	78.85
833.728	44.03
833.905	97.28
834.082	29.7
834.259	70.65
834.436	39.94
834.612	19.46
834.789	39.94
834.966	5.12
835.143	119.81
835.319	1.02
835.496	72.7
835.673	99.33
835.85	140.29
836.026	74.75
836.203	70.65
836.38	44.03
836.556	46.08
836.733	1.02
836.909	89.09
837.086	60.42
837.262	62.46
837.439	123.9
837.616	78.85
837.792	70.65
837.968	31.74
838.145	76.8
838.321	91.13
838.498	119.81
838.674	48.13
838.851	56.32
839.027	37.89
839.203	64.51
839.38	46.08
839.556	1.02
839.732	84.99
839.909	58.37
840.085	103.42
840.261	56.32
840.437	66.56
840.614	50.18
840.79	33.79
840.966	13.31
841.142	103.42
841.318	35.84
841.494	39.94
841.671	33.79
841.847	27.65
842.023	111.61
842.199	7.17
842.375	109.57
842.551	29.7
842.727	44.03
842.903	76.8
843.079	5.12
843.255	101.37
843.431	58.37
843.607	39.94
843.783	11.26
843.959	56.32
844.134	109.57
844.31	95.23
844.486	15.36
844.662	7.17
844.838	62.46
845.013	91.13
845.189	41.98
845.365	74.75
845.541	74.75
845.716	164.86
845.892	-9.22
846.068	1.02
846.244	15.36
846.419	115.71
846.595	33.79
846.77	62.46
846.946	21.5
847.122	35.84
847.297	99.33
847.473	31.74
847.648	46.08
847.824	54.27
847.999	52.22
848.175	-41.98
848.35	13.31
848.526	-1.02
848.701	87.04
848.876	21.5
849.052	78.85
849.227	89.09
849.403	107.52
849.578	66.56
849.753	23.55
849.929	37.89
850.104	64.51
850.279	-11.26
850.454	-27.65
850.63	89.09
850.805	44.03
850.98	-23.55
851.155	-1.02
851.33	113.66
851.505	68.61
851.681	23.55
851.856	44.03
852.031	62.46
852.206	35.84
852.381	87.04
852.556	9.22
852.731	41.98
852.906	68.61
853.081	31.74
853.256	76.8
853.431	80.89
853.606	31.74
853.781	31.74
853.956	89.09
854.131	9.22
854.305	3.07
854.48	33.79
854.655	64.51
854.83	76.8
855.005	60.42
855.18	56.32
855.354	35.84
855.529	72.7
855.704	23.55
855.879	123.9
856.053	41.98
856.228	54.27
856.403	37.89
856.577	37.89
856.752	27.65
856.926	37.89
857.101	39.94
857.276	13.31
857.45	66.56
857.625	27.65
857.799	-7.17
857.974	23.55
858.148	60.42
858.323	125.95
858.497	3.07
858.672	5.12
858.846	46.08
859.02	19.46
859.195	21.5
859.369	64.51
859.543	78.85
859.718	21.5
859.892	97.28
860.066	103.42
860.241	97.28
860.415	-60.42
860.589	3.07
860.763	91.13
860.938	25.6
861.112	70.65
861.286	13.31
861.46	39.94
861.634	5.12
861.808	41.98
861.982	87.04
862.157	56.32
862.331	-27.65
862.505	-39.94
862.679	29.7
862.853	70.65
863.027	46.08
863.201	87.04
863.375	66.56
863.549	50.18
863.722	31.74
863.896	113.66
864.07	62.46
864.244	21.5
864.418	-33.79
864.592	52.22
864.766	19.46
864.939	19.46
865.113	66.56
865.287	46.08
865.461	13.31
865.634	74.75
865.808	-27.65
865.982	23.55
866.156	3.07
866.329	31.74
866.503	7.17
866.676	25.6
866.85	11.26
867.024	46.08
867.197	125.95
867.371	21.5
867.544	-19.46
867.718	21.5
867.891	66.56
868.065	31.74
868.238	-5.12
868.412	33.79
868.585	66.56
868.759	-44.03
868.932	46.08
869.105	21.5
869.279	78.85
869.452	31.74
869.625	-19.46
869.799	37.89
869.972	-19.46
870.145	-3.07
870.319	-37.89
870.492	37.89
870.665	11.26
870.838	46.08
871.011	-50.18
871.185	5.12
871.358	35.84
871.531	78.85
871.704	37.89
871.877	-23.55
872.05	-9.22
872.223	-15.36
872.396	33.79
872.569	29.7
872.742	19.46
872.915	60.42
873.088	1.02
873.261	5.12
873.434	-1.02
873.607	54.27
873.78	7.17
873.953	41.98
874.126	56.32
874.299	37.89
874.471	58.37
874.644	17.41
874.817	-1.02
874.99	84.99
875.163	-7.17
875.335	70.65
875.508	62.46
875.681	50.18
875.853	5.12
876.026	19.46
876.199	58.37
876.371	7.17
876.544	105.47
876.717	17.41
876.889	17.41
877.062	52.22
877.234	48.13
877.407	119.81
877.579	68.61
877.752	-44.03
877.924	62.46
878.097	13.31
878.269	21.5
878.442	70.65
878.614	13.31
878.786	84.99
878.959	21.5
879.131	46.08
879.303	27.65
879.476	50.18
879.648	-23.55
879.82	66.56
879.993	29.7
880.165	56.32
880.337	33.79
880.509	62.46
880.681	-37.89
880.854	54.27
881.026	5.12
881.198	95.23
881.37	-9.22
881.542	48.13
881.714	93.18
881.886	17.41
882.058	-29.7
882.23	-25.6
882.402	25.6
882.574	11.26
882.746	60.42
882.918	-15.36
883.09	-33.79
883.262	27.65
883.434	17.41
883.606	82.94
883.778	23.55
883.95	80.89
884.122	7.17
884.293	50.18
884.465	58.37
884.637	17.41
884.809	-13.31
884.98	37.89
885.152	48.13
885.324	46.08
885.496	27.65
885.667	48.13
885.839	-19.46
886.011	5.12
886.182	1.02
886.354	-33.79
886.525	15.36
886.697	60.42
886.869	-27.65
887.04	68.61
887.212	-5.12
887.383	-21.5
887.555	-19.46
887.726	46.08
887.897	-29.7
888.069	-7.17
888.24	1.02
888.412	29.7
888.583	-15.36
888.754	46.08
888.926	35.84
889.097	46.08
889.268	-11.26
889.44	9.22
889.611	19.46
889.782	52.22
889.953	-31.74
890.125	76.8
890.296	109.57
890.467	-33.79
890.638	9.22
890.809	5.12
890.98	-33.79
891.151	52.22
891.323	35.84
891.494	91.13
891.665	13.31
891.836	62.46
892.007	15.36
892.178	56.32
892.349	39.94
892.52	19.46
892.691	33.79
892.862	-70.65
893.032	-27.65
893.203	-11.26
893.374	-15.36
893.545	15.36
893.716	33.79
893.887	48.13
894.057	31.74
894.228	56.32
894.399	29.7
894.57	21.5
894.74	-1.02
894.911	-15.36
895.082	9.22
895.253	128
895.423	97.28
895.594	19.46
895.764	93.18
895.935	78.85
896.106	-7.17
896.276	-19.46
896.447	17.41
896.617	-11.26
896.788	-29.7
896.958	29.7
897.129	37.89
897.299	70.65
897.47	52.22
897.64	21.5
897.81	-39.94
897.981	13.31
898.151	-27.65
898.322	41.98
898.492	56.32
898.662	5.12
898.832	-13.31
899.003	25.6
899.173	5.12
899.343	56.32
899.513	25.6
