Data from USB4F104151__85__12-59-55-320.txt Node

Date: Fri Mar 14 12:59:55 EDT 2025
User: louis
Spectrometer: USB4F10415
Trigger mode: 4
Integration Time (sec): 1.000000E-2
Scans to average: 1
Electric dark correction enabled: true
Nonlinearity correction enabled: false
Boxcar width: 0
XAxis mode: Wavelengths
Number of Pixels in Spectrum: 3648
>>>>>Begin Spectral Data<<<<<
178.204	-11.26
178.424	-11.26
178.644	-11.26
178.864	-33.79
179.084	-89.09
179.304	3.07
179.524	25.6
179.744	-17.41
179.964	-13.31
180.184	17.41
180.404	27.65
180.624	3.07
180.844	-60.42
181.064	-35.84
181.283	50.18
181.503	21.5
181.723	-21.5
181.943	-68.61
182.163	25.6
182.383	5.12
182.602	21.5
182.822	62.46
183.042	27.65
183.262	11.26
183.482	-7.17
183.701	17.41
183.921	-17.41
184.141	-9.22
184.361	48.13
184.58	23.55
184.8	-15.36
185.02	-91.13
185.239	84.99
185.459	-23.55
185.679	15.36
185.898	-3.07
186.118	13.31
186.338	52.22
186.557	11.26
186.777	-78.85
186.997	35.84
187.216	-52.22
187.436	33.79
187.655	84.99
187.875	33.79
188.095	-15.36
188.314	23.55
188.534	17.41
188.753	17.41
188.973	58.37
189.192	-23.55
189.412	-39.94
189.631	-37.89
189.851	15.36
190.07	29.7
190.29	9.22
190.509	-33.79
190.729	-3.07
190.948	-37.89
191.168	58.37
191.387	-21.5
191.607	-11.26
191.826	-5.12
192.045	50.18
192.265	21.5
192.484	-9.22
192.704	-29.7
192.923	-93.18
193.142	82.94
193.362	33.79
193.581	3.07
193.8	50.18
194.02	19.46
194.239	13.31
194.458	-80.89
194.678	7.17
194.897	56.32
195.116	19.46
195.335	-91.13
195.555	19.46
195.774	-17.41
195.993	15.36
196.212	44.03
196.432	41.98
196.651	23.55
196.87	66.56
197.089	25.6
197.308	50.18
197.528	-27.65
197.747	-13.31
197.966	-48.13
198.185	60.42
198.404	103.42
198.623	25.6
198.842	-19.46
199.062	1.02
199.281	-17.41
199.5	-33.79
199.719	9.22
199.938	5.12
200.157	-37.89
200.376	-21.5
200.595	-35.84
200.814	-52.22
201.033	68.61
201.252	-5.12
201.471	80.89
201.69	44.03
201.909	21.5
202.128	11.26
202.347	29.7
202.566	-50.18
202.785	-56.32
203.004	7.17
203.223	87.04
203.442	-3.07
203.661	52.22
203.879	-9.22
204.098	-21.5
204.317	-70.65
204.536	50.18
204.755	-58.37
204.974	107.52
205.193	-39.94
205.411	-27.65
205.63	-9.22
205.849	44.03
206.068	13.31
206.287	54.27
206.505	-56.32
206.724	-39.94
206.943	-13.31
207.162	19.46
207.381	-15.36
207.599	11.26
207.818	5.12
208.037	-7.17
208.255	31.74
208.474	62.46
208.693	17.41
208.911	11.26
209.13	13.31
209.349	62.46
209.567	-48.13
209.786	113.66
210.005	15.36
210.223	-35.84
210.442	33.79
210.661	31.74
210.879	46.08
211.098	68.61
211.316	52.22
211.535	52.22
211.753	62.46
211.972	23.55
212.191	39.94
212.409	35.84
212.628	-7.17
212.846	64.51
213.065	11.26
213.283	-9.22
213.502	25.6
213.72	9.22
213.938	7.17
214.157	-15.36
214.375	-27.65
214.594	29.7
214.812	70.65
215.031	27.65
215.249	-1.02
215.467	19.46
215.686	-31.74
215.904	-17.41
216.122	1.02
216.341	5.12
216.559	27.65
216.778	25.6
216.996	62.46
217.214	27.65
217.432	-39.94
217.651	-11.26
217.869	78.85
218.087	9.22
218.306	54.27
218.524	1.02
218.742	50.18
218.96	-46.08
219.179	-76.8
219.397	17.41
219.615	33.79
219.833	-31.74
220.051	-11.26
220.27	70.65
220.488	27.65
220.706	11.26
220.924	-9.22
221.142	-9.22
221.36	48.13
221.578	25.6
221.796	-21.5
222.015	21.5
222.233	1.02
222.451	25.6
222.669	31.74
222.887	52.22
223.105	41.98
223.323	19.46
223.541	-56.32
223.759	17.41
223.977	50.18
224.195	54.27
224.413	-39.94
224.631	29.7
224.849	29.7
225.067	50.18
225.285	17.41
225.503	31.74
225.721	-5.12
225.939	35.84
226.157	-15.36
226.375	60.42
226.592	-1.02
226.81	-50.18
227.028	21.5
227.246	58.37
227.464	-7.17
227.682	56.32
227.9	19.46
228.117	15.36
228.335	-13.31
228.553	84.99
228.771	52.22
228.989	9.22
229.206	-68.61
229.424	-15.36
229.642	115.71
229.86	-66.56
230.077	-17.41
230.295	78.85
230.513	3.07
230.731	17.41
230.948	-44.03
231.166	27.65
231.384	25.6
231.601	-15.36
231.819	68.61
232.037	41.98
232.254	-35.84
232.472	9.22
232.689	39.94
232.907	68.61
233.125	37.89
233.342	58.37
233.56	-3.07
233.777	19.46
233.995	41.98
234.213	58.37
234.43	23.55
234.648	-37.89
234.865	-5.12
235.083	-68.61
235.3	13.31
235.518	33.79
235.735	27.65
235.953	-11.26
236.17	25.6
236.388	3.07
236.605	19.46
236.822	29.7
237.04	3.07
237.257	25.6
237.475	29.7
237.692	-17.41
237.909	27.65
238.127	41.98
238.344	15.36
238.562	23.55
238.779	5.12
238.996	19.46
239.214	-31.74
239.431	89.09
239.648	-1.02
239.865	41.98
240.083	13.31
240.3	11.26
240.517	66.56
240.735	-23.55
240.952	17.41
241.169	-7.17
241.386	-15.36
241.603	-5.12
241.821	-15.36
242.038	52.22
242.255	-54.27
242.472	29.7
242.689	70.65
242.907	35.84
243.124	-21.5
243.341	76.8
243.558	-3.07
243.775	11.26
243.992	37.89
244.209	21.5
244.426	62.46
244.643	33.79
244.86	-21.5
245.078	66.56
245.295	23.55
245.512	82.94
245.729	52.22
245.946	-5.12
246.163	7.17
246.38	13.31
246.597	27.65
246.814	-29.7
247.031	27.65
247.248	15.36
247.464	27.65
247.681	29.7
247.898	41.98
248.115	-5.12
248.332	54.27
248.549	56.32
248.766	103.42
248.983	-21.5
249.2	-48.13
249.417	1.02
249.633	33.79
249.85	-1.02
250.067	17.41
250.284	62.46
250.501	66.56
250.717	60.42
250.934	-15.36
251.151	-13.31
251.368	76.8
251.585	33.79
251.801	58.37
252.018	35.84
252.235	-3.07
252.451	-1.02
252.668	1.02
252.885	78.85
253.102	21.5
253.318	-21.5
253.535	58.37
253.752	-23.55
253.968	9.22
254.185	9.22
254.401	-17.41
254.618	5.12
254.835	11.26
255.051	-41.98
255.268	58.37
255.484	37.89
255.701	41.98
255.917	-13.31
256.134	66.56
256.351	80.89
256.567	74.75
256.784	1.02
257	19.46
257.217	58.37
257.433	11.26
257.65	37.89
257.866	27.65
258.082	-46.08
258.299	-5.12
258.515	41.98
258.732	41.98
258.948	74.75
259.165	35.84
259.381	87.04
259.597	23.55
259.814	-46.08
260.03	80.89
260.246	-39.94
260.463	54.27
260.679	7.17
260.895	-39.94
261.112	17.41
261.328	37.89
261.544	33.79
261.761	76.8
261.977	-50.18
262.193	99.33
262.409	-39.94
262.626	-9.22
262.842	64.51
263.058	19.46
263.274	-37.89
263.49	72.7
263.707	62.46
263.923	31.74
264.139	-70.65
264.355	58.37
264.571	91.13
264.787	54.27
265.004	-17.41
265.22	64.51
265.436	21.5
265.652	41.98
265.868	60.42
266.084	-17.41
266.3	-29.7
266.516	-31.74
266.732	-23.55
266.948	-25.6
267.164	-3.07
267.38	17.41
267.596	1.02
267.812	-11.26
268.028	82.94
268.244	-9.22
268.46	25.6
268.676	60.42
268.892	-52.22
269.108	-23.55
269.324	-3.07
269.54	-5.12
269.756	5.12
269.972	35.84
270.188	1.02
270.403	-9.22
270.619	-48.13
270.835	21.5
271.051	39.94
271.267	-7.17
271.483	33.79
271.698	5.12
271.914	41.98
272.13	1.02
272.346	54.27
272.562	11.26
272.777	25.6
272.993	-31.74
273.209	17.41
273.425	-1.02
273.64	-37.89
273.856	-27.65
274.072	-7.17
274.287	33.79
274.503	-25.6
274.719	-15.36
274.934	13.31
275.15	-46.08
275.366	-15.36
275.581	-3.07
275.797	29.7
276.012	-29.7
276.228	60.42
276.444	64.51
276.659	-1.02
276.875	-15.36
277.09	-68.61
277.306	52.22
277.521	66.56
277.737	70.65
277.952	35.84
278.168	46.08
278.383	68.61
278.599	25.6
278.814	107.52
279.03	62.46
279.245	-25.6
279.461	23.55
279.676	9.22
279.892	-5.12
280.107	39.94
280.322	5.12
280.538	33.79
280.753	78.85
280.969	78.85
281.184	1.02
281.399	-15.36
281.615	5.12
281.83	66.56
282.045	56.32
282.26	23.55
282.476	-13.31
282.691	11.26
282.906	5.12
283.122	103.42
283.337	19.46
283.552	56.32
283.767	39.94
283.983	19.46
284.198	-13.31
284.413	70.65
284.628	-39.94
284.843	9.22
285.058	-3.07
285.274	-11.26
285.489	-13.31
285.704	11.26
285.919	37.89
286.134	33.79
286.349	-58.37
286.564	50.18
286.779	95.23
286.995	9.22
287.21	27.65
287.425	44.03
287.64	35.84
287.855	-9.22
288.07	-19.46
288.285	-21.5
288.5	54.27
288.715	-9.22
288.93	31.74
289.145	3.07
289.36	66.56
289.575	33.79
289.79	50.18
290.004	39.94
290.219	-13.31
290.434	62.46
290.649	7.17
290.864	17.41
291.079	-23.55
291.294	-1.02
291.509	-1.02
291.724	19.46
291.938	9.22
292.153	-19.46
292.368	11.26
292.583	-1.02
292.798	35.84
293.012	-15.36
293.227	-11.26
293.442	17.41
293.657	-19.46
293.871	-48.13
294.086	35.84
294.301	17.41
294.516	-62.46
294.73	9.22
294.945	3.07
295.16	5.12
295.374	54.27
295.589	29.7
295.804	-50.18
296.018	-15.36
296.233	80.89
296.447	-3.07
296.662	35.84
296.877	-41.98
297.091	11.26
297.306	17.41
297.52	-64.51
297.735	21.5
297.949	46.08
298.164	23.55
298.378	7.17
298.593	35.84
298.807	11.26
299.022	-13.31
299.236	60.42
299.451	19.46
299.665	17.41
299.88	-7.17
300.094	21.5
300.309	21.5
300.523	-7.17
300.737	5.12
300.952	35.84
301.166	-7.17
301.381	33.79
301.595	-15.36
301.809	-41.98
302.024	50.18
302.238	64.51
302.452	27.65
302.667	41.98
302.881	35.84
303.095	35.84
303.309	64.51
303.524	13.31
303.738	-17.41
303.952	27.65
304.166	74.75
304.381	-23.55
304.595	-23.55
304.809	25.6
305.023	44.03
305.237	70.65
305.452	1.02
305.666	46.08
305.88	41.98
306.094	-27.65
306.308	50.18
306.522	-27.65
306.736	-15.36
306.95	19.46
307.164	-87.04
307.379	72.7
307.593	56.32
307.807	52.22
308.021	66.56
308.235	48.13
308.449	56.32
308.663	-46.08
308.877	35.84
309.091	41.98
309.305	9.22
309.519	-56.32
309.733	58.37
309.947	33.79
310.161	64.51
310.374	5.12
310.588	60.42
310.802	-7.17
311.016	35.84
311.23	29.7
311.444	62.46
311.658	-54.27
311.872	52.22
312.085	-11.26
312.299	7.17
312.513	31.74
312.727	50.18
312.941	-44.03
313.154	29.7
313.368	54.27
313.582	-13.31
313.796	-5.12
314.009	50.18
314.223	-1.02
314.437	39.94
314.651	-46.08
314.864	72.7
315.078	27.65
315.292	1.02
315.505	33.79
315.719	37.89
315.933	48.13
316.146	-27.65
316.36	-25.6
316.573	11.26
316.787	-13.31
317.001	33.79
317.214	-33.79
317.428	44.03
317.641	11.26
317.855	50.18
318.068	-21.5
318.282	46.08
318.495	25.6
318.709	31.74
318.922	3.07
319.136	31.74
319.349	-7.17
319.563	-19.46
319.776	56.32
319.99	-54.27
320.203	44.03
320.417	48.13
320.63	21.5
320.843	64.51
321.057	27.65
321.27	46.08
321.483	-37.89
321.697	66.56
321.91	50.18
322.124	-48.13
322.337	-19.46
322.55	5.12
322.763	9.22
322.977	11.26
323.19	-33.79
323.403	58.37
323.617	-64.51
323.83	15.36
324.043	91.13
324.256	-52.22
324.469	1.02
324.683	44.03
324.896	-44.03
325.109	31.74
325.322	-11.26
325.535	-3.07
325.748	72.7
325.962	29.7
326.175	23.55
326.388	76.8
326.601	107.52
326.814	13.31
327.027	-21.5
327.24	50.18
327.453	50.18
327.666	48.13
327.879	60.42
328.092	48.13
328.305	46.08
328.518	13.31
328.731	82.94
328.944	50.18
329.157	-3.07
329.37	-48.13
329.583	23.55
329.796	-13.31
330.009	5.12
330.222	121.85
330.435	17.41
330.648	50.18
330.861	9.22
331.073	-27.65
331.286	78.85
331.499	-5.12
331.712	1.02
331.925	17.41
332.138	39.94
332.35	58.37
332.563	44.03
332.776	33.79
332.989	29.7
333.202	68.61
333.414	48.13
333.627	56.32
333.84	7.17
334.053	1.02
334.265	56.32
334.478	-9.22
334.691	68.61
334.903	-13.31
335.116	13.31
335.329	66.56
335.541	37.89
335.754	33.79
335.966	19.46
336.179	97.28
336.392	9.22
336.604	72.7
336.817	60.42
337.029	-39.94
337.242	17.41
337.454	58.37
337.667	31.74
337.88	23.55
338.092	80.89
338.305	-70.65
338.517	21.5
338.729	46.08
338.942	-19.46
339.154	-93.18
339.367	78.85
339.579	15.36
339.792	76.8
340.004	76.8
340.217	15.36
340.429	15.36
340.641	-48.13
340.854	5.12
341.066	-50.18
341.278	11.26
341.491	17.41
341.703	-13.31
341.915	68.61
342.128	66.56
342.34	-35.84
342.552	5.12
342.764	25.6
342.977	21.5
343.189	58.37
343.401	91.13
343.613	-3.07
343.826	60.42
344.038	-13.31
344.25	84.99
344.462	93.18
344.674	-1.02
344.886	29.7
345.099	46.08
345.311	19.46
345.523	46.08
345.735	44.03
345.947	95.23
346.159	-17.41
346.371	19.46
346.583	1.02
346.795	101.37
347.007	-15.36
347.219	17.41
347.431	3.07
347.643	54.27
347.855	50.18
348.067	9.22
348.279	11.26
348.491	44.03
348.703	29.7
348.915	84.99
349.127	39.94
349.339	-17.41
349.551	9.22
349.763	37.89
349.975	3.07
350.187	25.6
350.399	-25.6
350.61	44.03
350.822	-21.5
351.034	-7.17
351.246	-33.79
351.458	1.02
351.669	7.17
351.881	82.94
352.093	74.75
352.305	48.13
352.517	44.03
352.728	89.09
352.94	-5.12
353.152	-17.41
353.363	-52.22
353.575	7.17
353.787	29.7
353.999	29.7
354.21	134.14
354.422	-39.94
354.633	58.37
354.845	50.18
355.057	-23.55
355.268	-3.07
355.48	-54.27
355.692	37.89
355.903	64.51
356.115	-48.13
356.326	-17.41
356.538	19.46
356.749	25.6
356.961	25.6
357.172	19.46
357.384	60.42
357.595	-5.12
357.807	21.5
358.018	27.65
358.23	3.07
358.441	29.7
358.653	64.51
358.864	82.94
359.075	21.5
359.287	54.27
359.498	1.02
359.709	25.6
359.921	37.89
360.132	-1.02
360.344	1.02
360.555	-3.07
360.766	70.65
360.977	29.7
361.189	46.08
361.4	50.18
361.611	46.08
361.823	41.98
362.034	91.13
362.245	27.65
362.456	33.79
362.667	52.22
362.879	84.99
363.09	27.65
363.301	-15.36
363.512	-17.41
363.723	27.65
363.935	-11.26
364.146	99.33
364.357	11.26
364.568	15.36
364.779	31.74
364.99	58.37
365.201	13.31
365.412	-1.02
365.623	56.32
365.834	68.61
366.045	25.6
366.256	93.18
366.467	15.36
366.678	48.13
366.889	11.26
367.1	5.12
367.311	5.12
367.522	37.89
367.733	64.51
367.944	11.26
368.155	17.41
368.366	9.22
368.577	-52.22
368.788	41.98
368.999	103.42
369.209	46.08
369.42	13.31
369.631	3.07
369.842	62.46
370.053	33.79
370.264	37.89
370.474	41.98
370.685	35.84
370.896	89.09
371.107	25.6
371.317	84.99
371.528	-48.13
371.739	87.04
371.95	17.41
372.16	33.79
372.371	-15.36
372.582	103.42
372.792	5.12
373.003	93.18
373.214	-17.41
373.424	25.6
373.635	-64.51
373.846	44.03
374.056	52.22
374.267	33.79
374.477	103.42
374.688	58.37
374.898	27.65
375.109	91.13
375.319	52.22
375.53	33.79
375.74	-3.07
375.951	-1.02
376.161	9.22
376.372	82.94
376.582	70.65
376.793	19.46
377.003	50.18
377.214	17.41
377.424	11.26
377.635	29.7
377.845	-58.37
378.055	-9.22
378.266	-3.07
378.476	27.65
378.686	13.31
378.897	58.37
379.107	70.65
379.317	15.36
379.528	23.55
379.738	44.03
379.948	70.65
380.158	39.94
380.369	46.08
380.579	7.17
380.789	33.79
380.999	-15.36
381.21	21.5
381.42	93.18
381.63	58.37
381.84	78.85
382.05	33.79
382.261	48.13
382.471	35.84
382.681	33.79
382.891	62.46
383.101	23.55
383.311	9.22
383.521	27.65
383.731	25.6
383.941	76.8
384.151	76.8
384.361	23.55
384.571	82.94
384.781	3.07
384.991	5.12
385.201	89.09
385.411	95.23
385.621	35.84
385.831	52.22
386.041	25.6
386.251	19.46
386.461	11.26
386.671	27.65
386.881	25.6
387.091	19.46
387.301	11.26
387.511	70.65
387.72	78.85
387.93	56.32
388.14	72.7
388.35	-9.22
388.56	54.27
388.769	46.08
388.979	58.37
389.189	62.46
389.399	91.13
389.609	31.74
389.818	25.6
390.028	109.57
390.238	52.22
390.447	-23.55
390.657	66.56
390.867	11.26
391.076	29.7
391.286	-7.17
391.496	-7.17
391.705	105.47
391.915	13.31
392.125	-13.31
392.334	17.41
392.544	17.41
392.753	33.79
392.963	-19.46
393.172	58.37
393.382	-29.7
393.591	99.33
393.801	50.18
394.01	44.03
394.22	31.74
394.429	76.8
394.639	-17.41
394.848	99.33
395.058	31.74
395.267	27.65
395.477	3.07
395.686	60.42
395.895	78.85
396.105	54.27
396.314	109.57
396.524	68.61
396.733	37.89
396.942	80.89
397.152	74.75
397.361	27.65
397.57	-15.36
397.78	52.22
397.989	82.94
398.198	111.61
398.407	9.22
398.617	58.37
398.826	25.6
399.035	25.6
399.244	66.56
399.453	70.65
399.663	39.94
399.872	-33.79
400.081	46.08
400.29	144.38
400.499	99.33
400.708	84.99
400.917	-23.55
401.127	11.26
401.336	13.31
401.545	107.52
401.754	39.94
401.963	15.36
402.172	62.46
402.381	91.13
402.59	70.65
402.799	74.75
403.008	60.42
403.217	52.22
403.426	7.17
403.635	27.65
403.844	78.85
404.053	117.76
404.262	111.61
404.471	62.46
404.68	105.47
404.888	91.13
405.097	95.23
405.306	89.09
405.515	-3.07
405.724	136.19
405.933	105.47
406.142	125.95
406.35	91.13
406.559	76.8
406.768	29.7
406.977	56.32
407.185	46.08
407.394	154.62
407.603	132.09
407.812	216.06
408.02	142.33
408.229	64.51
408.438	58.37
408.646	99.33
408.855	87.04
409.064	97.28
409.272	91.13
409.481	111.61
409.69	95.23
409.898	93.18
410.107	93.18
410.315	140.29
410.524	82.94
410.733	152.57
410.941	101.37
411.15	205.82
411.358	189.44
411.567	168.96
411.775	185.34
411.984	216.06
412.192	187.39
412.401	154.62
412.609	214.01
412.818	257.02
413.026	242.68
413.234	187.39
413.443	187.39
413.651	293.88
413.86	265.21
414.068	248.83
414.276	345.08
414.485	310.27
414.693	316.41
414.901	386.04
415.11	308.22
415.318	269.31
415.526	295.93
415.734	371.71
415.943	359.42
416.151	457.72
416.359	455.67
416.567	447.48
416.776	359.42
416.984	418.81
417.192	484.34
417.4	480.25
417.608	500.73
417.817	482.3
418.025	492.54
418.233	541.69
418.441	584.7
418.649	586.74
418.857	517.11
419.065	551.93
419.273	594.93
419.481	662.52
419.689	543.74
419.897	685.05
420.105	656.37
420.313	723.96
420.521	736.24
420.729	812.02
420.937	869.36
421.145	746.48
421.353	865.27
421.561	852.98
421.769	971.76
421.977	973.81
422.185	891.89
422.393	1025.01
422.601	1025.01
422.809	1092.59
423.017	1020.91
423.224	1258.48
423.432	1145.84
423.64	1100.78
423.848	1299.44
424.056	1278.96
424.263	1328.11
424.471	1319.92
424.679	1442.79
424.887	1446.89
425.094	1444.84
425.302	1469.42
425.51	1670.12
425.718	1584.1
425.925	1633.26
426.133	1700.84
426.341	1745.89
426.548	1739.75
426.756	1823.72
426.964	1887.2
427.171	1981.41
427.379	2094.05
427.586	2030.56
427.794	2216.93
428.001	2325.47
428.209	2331.61
428.417	2259.93
428.624	2378.72
428.832	2534.36
429.039	2462.68
429.247	2335.71
429.454	2712.53
429.662	2757.59
429.869	2759.64
430.076	3005.39
430.284	2788.31
430.491	2780.12
430.699	2980.82
430.906	2892.76
431.114	2991.06
431.321	3285.97
431.528	3310.54
431.736	3474.38
431.943	3548.11
432.15	3513.29
432.358	3601.35
432.565	3713.99
432.772	3767.24
432.979	3877.83
433.187	3974.08
433.394	4066.24
433.601	4355.01
433.808	4279.23
434.016	4344.77
434.223	4436.92
434.43	4795.32
434.637	4602.81
434.844	4950.96
435.052	5274.54
435.259	4926.39
435.466	5084.08
435.673	4981.68
435.88	5333.93
436.087	5612.46
436.294	5610.41
436.501	5342.13
436.708	5548.97
436.915	5723.05
437.122	6161.31
437.329	6001.57
437.537	6251.42
437.743	6359.97
437.95	6239.14
438.157	6491.04
438.364	6814.62
438.571	6751.13
438.778	7000.98
438.985	7521.17
439.192	7039.89
439.399	7418.77
439.606	7199.63
439.813	7699.34
440.02	8110.98
440.227	8113.03
440.433	7725.96
440.64	8192.9
440.847	7934.85
441.054	8223.62
441.261	8881.02
441.467	8860.54
441.674	8903.54
441.881	9352.05
442.088	9239.41
442.294	9126.77
442.501	9386.86
442.708	9591.66
442.914	10099.56
443.121	10351.46
443.328	10013.54
443.534	11043.67
443.741	10638.17
443.948	10576.73
444.154	11234.13
444.361	10988.38
444.568	11207.51
444.774	11058.01
444.981	11395.92
445.187	11678.54
445.394	12413.76
445.6	11799.37
445.807	13261.62
446.013	12526.4
446.22	12811.07
446.426	13431.6
446.633	13679.41
446.839	14117.67
447.046	13581.1
447.252	14181.16
447.459	14086.95
447.665	14107.43
447.871	14865.18
448.078	15516.44
448.284	14654.24
448.491	15096.6
448.697	15592.21
448.903	15979.28
449.11	16124.68
449.316	16128.78
449.522	16063.24
449.728	17017.6
449.935	16898.81
450.141	16753.41
450.347	17406.71
450.553	16696.07
450.76	16960.25
450.966	17756.91
451.172	17144.57
451.378	17572.6
451.584	17259.26
451.791	17984.24
451.997	17683.19
452.203	18260.71
452.409	18328.3
452.615	17912.56
452.821	17441.53
453.027	17210.11
453.233	18244.33
453.44	17451.77
453.646	17705.71
453.852	17726.19
454.058	18189.03
454.264	17462.01
454.47	17890.03
454.676	17482.49
454.882	18131.69
455.088	16435.97
455.294	16734.98
455.5	17056.51
455.705	17025.79
455.911	16483.08
456.117	16288.52
456.323	16083.72
456.529	15229.72
456.735	15766.29
456.941	15657.75
457.147	15272.73
457.352	14666.53
457.558	14682.91
457.764	14431.01
457.97	14263.08
458.176	14082.86
458.381	14125.86
458.587	13456.18
458.793	13478.71
458.999	12464.96
459.204	13527.86
459.41	13116.22
459.616	12510.02
459.821	12421.95
460.027	12229.45
460.233	12163.91
460.438	11379.54
460.644	11610.96
460.85	11068.25
461.055	10859.35
461.261	10918.75
461.466	9929.58
461.672	9759.6
461.878	10320.74
462.083	9700.2
462.289	9522.03
462.494	9425.78
462.7	8993.65
462.905	9016.18
463.111	9173.88
463.316	9020.28
463.522	8860.54
463.727	9208.69
463.932	8975.22
464.138	8874.87
464.343	8952.7
464.549	8559.49
464.754	9061.24
464.959	8858.49
465.165	8852.34
465.37	8463.23
465.575	8338.3
465.781	8684.41
465.986	8610.68
466.191	8350.59
466.397	8158.08
466.602	7777.16
466.807	8135.56
467.012	8070.02
467.218	7963.53
467.423	7814.02
467.628	7887.75
467.833	8176.52
468.038	8006.53
468.244	7689.1
468.449	8047.49
468.654	7936.9
468.859	7865.22
469.064	7648.14
469.269	7547.79
469.474	7527.31
469.679	7525.26
469.885	7383.95
470.09	7590.8
470.295	7406.48
470.5	7443.34
470.705	7369.62
470.91	7119.76
471.115	7173.01
471.32	7164.82
471.525	7299.98
471.73	7115.67
471.935	7136.15
472.139	6837.14
472.344	6896.53
472.549	6710.17
472.754	6751.13
472.959	6540.19
473.164	6433.69
473.369	6288.29
473.574	6634.39
473.778	6624.15
473.983	6579.1
474.188	6437.79
474.393	6200.23
474.598	6210.47
474.802	6310.82
475.007	6110.11
475.212	6171.55
475.417	5847.97
475.621	5948.33
475.826	5917.61
476.031	5714.86
476.235	5661.61
476.44	5731.24
476.645	5602.22
476.849	5598.12
477.054	5565.36
477.259	5542.83
477.463	5559.21
477.668	5237.68
477.872	5489.58
478.077	5270.45
478.282	5239.73
478.486	5280.69
478.691	5217.2
478.895	5145.52
479.1	5012.4
479.304	5161.91
479.509	4936.63
479.713	5102.51
479.918	4916.15
480.122	4916.15
480.326	4989.88
480.531	5051.31
480.735	4844.47
480.94	4940.72
481.144	4961.2
481.348	4879.29
481.553	4899.77
481.757	4858.81
481.961	4842.42
482.166	4983.73
482.37	4965.3
482.574	4735.93
482.778	4785.08
482.983	4688.82
483.187	4875.19
483.391	4850.61
483.595	4684.73
483.8	4725.69
484.004	4912.05
484.208	4844.47
484.412	4793.27
484.616	4823.99
484.821	4793.27
485.025	4678.58
485.229	4830.13
485.433	4746.17
485.637	4733.88
485.841	4897.72
486.045	4916.15
486.249	4856.76
486.453	4828.09
486.657	4883.38
486.861	4840.37
487.065	4686.78
487.269	4858.81
487.473	4674.49
487.677	4817.85
487.881	4817.85
488.085	4760.5
488.289	4809.65
488.493	4850.61
488.697	4871.09
488.901	4887.48
489.105	4838.33
489.309	4791.22
489.512	4748.22
489.716	4910.01
489.92	4897.72
490.124	4957.11
490.328	5082.03
490.531	5012.4
490.735	5006.26
490.939	5039.03
491.143	4998.07
491.346	4991.92
491.55	5131.19
491.754	5221.3
491.958	5209.01
492.161	5153.71
492.365	5067.7
492.569	5088.18
492.772	5129.14
492.976	5227.44
493.18	5297.07
493.383	5102.51
493.587	5262.26
493.79	5352.37
493.994	5354.41
494.197	5505.96
494.401	5393.33
494.605	5456.81
494.808	5538.73
495.012	5516.2
495.215	5704.62
495.419	5634.99
495.622	5559.21
495.825	5792.68
496.029	5774.25
496.232	5825.45
496.436	5893.03
496.639	5876.65
496.843	5764.01
497.046	6093.73
497.249	6134.69
497.453	6251.42
497.656	6208.42
497.859	6292.38
498.063	6499.23
498.266	6427.55
498.469	6466.46
498.673	6583.2
498.876	6658.97
499.079	6548.38
499.282	6714.27
499.485	7031.7
499.689	6845.34
499.892	7015.32
500.095	7197.59
500.298	7230.35
500.501	7160.72
500.705	7330.7
500.908	7461.77
501.111	7525.26
501.314	7670.67
501.517	7695.24
501.72	7781.26
501.923	7830.41
502.126	7891.85
502.329	8186.76
502.532	8131.46
502.735	8151.94
502.938	8549.25
503.141	8481.66
503.344	8547.2
503.547	8643.45
503.75	8811.39
503.953	8807.29
504.156	9102.2
504.359	9085.81
504.562	9165.68
504.765	9544.56
504.968	9251.7
505.17	9614.19
505.373	9606
505.576	9843.56
505.779	9935.72
505.982	9882.47
506.185	10165.09
506.387	10273.64
506.59	10285.92
506.793	10648.41
506.996	10525.54
507.198	10742.62
507.401	10961.75
507.604	11080.53
507.807	11144.02
508.009	11314
508.212	11377.49
508.415	11481.94
508.617	11623.25
508.82	11846.48
509.022	11701.07
509.225	11971.4
509.428	12270.4
509.63	12270.4
509.833	12315.46
510.035	12743.49
510.238	12346.18
510.44	12581.7
510.643	12905.28
510.845	13349.68
511.048	13116.22
511.25	13398.84
511.453	13562.67
511.655	13964.07
511.858	13792.05
512.06	14023.47
512.262	14029.61
512.465	14095.14
512.667	14263.08
512.87	14474.02
513.072	14629.66
513.274	14908.19
513.477	15166.23
513.679	15133.47
513.881	15489.81
514.084	15522.58
514.286	15543.06
514.488	15696.66
514.69	16163.59
514.893	16401.16
515.095	16132.87
515.297	16423.69
515.499	16765.7
515.701	16894.72
515.904	17156.86
516.106	17189.63
516.308	17042.17
516.51	17339.13
516.712	17658.61
516.914	17730.29
517.116	17974
517.318	18109.16
517.52	18309.86
517.722	18121.45
517.925	18871.01
518.127	18860.77
518.329	18881.25
518.531	19075.8
518.733	19577.56
518.935	19735.25
519.136	19514.07
519.338	19970.77
519.54	20124.36
519.742	20161.23
519.944	20163.28
520.146	20628.17
520.348	20488.9
520.55	20742.85
520.752	20914.88
520.954	21494.46
521.155	21256.89
521.357	21568.18
521.559	21766.84
521.761	21893.81
521.963	21899.95
522.164	21979.82
522.366	22225.58
522.568	22569.64
522.77	22590.12
522.971	23378.59
523.173	22801.06
523.375	23188.13
523.576	23130.78
523.778	23253.66
523.98	23448.22
524.181	23646.87
524.383	23634.58
524.584	24081.04
524.786	23986.83
524.988	23884.44
525.189	24099.47
525.391	24414.86
525.592	24353.42
525.794	24531.59
525.995	24683.14
526.197	24937.09
526.398	25059.97
526.6	24951.43
526.801	25113.22
527.003	25442.94
527.204	25303.68
527.406	25412.22
527.607	25508.47
527.808	25660.02
528.01	25567.87
528.211	25549.43
528.412	25981.56
528.614	26143.35
528.815	25836.15
529.016	26575.47
529.218	26225.26
529.419	26286.7
529.62	26395.25
529.822	25913.97
530.023	26077.81
530.224	26149.49
530.425	26358.38
530.626	26319.47
530.828	26331.76
531.029	26853.99
531.23	26397.29
531.431	26407.53
531.632	26595.95
531.833	26935.91
532.035	26802.79
532.236	26720.87
532.437	26655.34
532.638	26765.93
532.839	27069.03
533.04	26909.29
533.241	26575.47
533.442	27228.77
533.643	26919.53
533.844	26759.78
534.045	27157.09
534.246	26907.24
534.447	27128.42
534.648	27038.31
534.849	27261.54
535.05	27034.21
535.251	27157.09
535.451	26950.24
535.652	27345.5
535.853	26958.44
536.054	27437.66
536.255	27439.71
536.456	26714.73
536.657	27015.78
536.857	27388.51
537.058	27146.85
537.259	27296.35
537.46	27322.98
537.66	27216.48
537.861	27050.6
538.062	27044.45
538.263	27107.94
538.463	27267.68
538.664	27124.32
538.865	27310.69
539.065	27415.13
539.266	27353.69
539.466	27329.12
539.667	26765.93
539.868	27267.68
540.068	27355.74
540.269	26946.15
540.469	27306.59
540.67	27427.42
540.87	26950.24
541.071	26921.57
541.271	27157.09
541.472	27441.76
541.672	27204.19
541.873	27032.16
542.073	27009.64
542.274	27499.1
542.474	27318.88
542.675	27003.49
542.875	27396.7
543.075	27445.85
543.276	26915.43
543.476	27277.92
543.676	27306.59
543.877	27120.23
544.077	27054.69
544.277	27277.92
544.478	27003.49
544.678	27066.98
544.878	26808.93
545.078	26995.3
545.279	27091.55
545.479	27175.52
545.679	27036.26
545.879	26993.25
546.079	27152.99
546.28	27054.69
546.48	26823.27
546.68	26956.39
546.88	27124.32
547.08	27157.09
547.28	26933.86
547.48	27058.79
547.68	27097.7
547.88	26952.29
548.081	27443.81
548.281	27179.62
548.481	26837.61
548.681	27296.35
548.881	26931.81
549.081	26956.39
549.28	27038.31
549.48	26858.09
549.68	26839.65
549.88	27087.46
550.08	26829.41
550.28	27163.23
550.48	26974.82
550.68	26970.72
550.88	26808.93
551.08	26817.13
551.279	27044.45
551.479	26940
551.679	26688.1
551.879	26585.71
552.079	26858.09
552.278	26587.75
552.478	26901.09
552.678	26800.74
552.878	27089.51
553.077	27032.16
553.277	26770.02
553.477	27126.37
553.676	26882.66
553.876	26800.74
554.076	26593.9
554.275	26563.18
554.475	26407.53
554.674	26884.71
554.874	26301.04
555.074	26296.94
555.273	26808.93
555.473	26829.41
555.672	26688.1
555.872	26458.73
556.071	26751.59
556.271	26835.56
556.47	26624.62
556.67	26344.05
556.869	26266.22
557.068	26718.82
557.268	26327.66
557.467	26411.63
557.667	26413.68
557.866	26315.37
558.065	26120.82
558.265	26190.45
558.464	26182.26
558.663	26518.12
558.863	26075.76
559.062	26184.3
559.261	26008.18
559.461	26350.19
559.66	25948.79
559.859	26454.64
560.058	25815.67
560.258	26255.98
560.457	25512.57
560.656	26067.57
560.855	25713.27
561.054	25944.69
561.253	25766.52
561.453	25780.85
561.652	25889.4
561.851	25657.98
562.05	25571.96
562.249	25537.15
562.448	25494.14
562.647	25705.08
562.846	25305.73
563.045	25363.07
563.244	25375.36
563.443	25997.94
563.642	25143.94
563.841	25242.24
564.04	25352.83
564.239	25813.62
564.438	25160.32
564.637	25096.83
564.836	25371.26
565.035	25399.93
565.234	25488
565.432	25217.66
565.631	24801.93
565.83	25152.13
566.029	24875.65
566.228	25047.68
566.427	24728.2
566.625	24746.63
566.824	24504.97
567.023	24969.86
567.222	24437.39
567.42	24646.28
567.619	24683.14
567.818	24517.26
568.016	24515.21
568.215	24636.04
568.414	24554.12
568.612	24552.07
568.811	24124.05
569.01	24316.56
569.208	24007.31
569.407	24187.53
569.605	23868.05
569.804	24449.67
570.002	23896.72
570.201	24078.99
570.4	23687.83
570.598	23669.4
570.797	23634.58
570.995	23810.71
571.193	23374.49
571.392	23614.1
571.59	23442.07
571.789	23429.79
571.987	23390.88
572.186	23407.26
572.384	23325.34
572.582	23485.08
572.781	23241.37
572.979	22954.66
573.177	23020.19
573.376	23095.97
573.574	23138.97
573.772	22954.66
573.971	22778.53
574.169	22979.23
574.367	22749.86
574.565	22739.62
574.763	22688.42
574.962	22370.99
575.16	22502.06
575.358	22479.53
575.556	22160.05
575.754	22796.96
575.952	22450.86
576.151	22268.59
576.349	22332.08
576.547	21983.92
576.745	22268.59
576.943	22069.94
577.141	22139.57
577.339	21809.84
577.537	21902
577.735	21883.57
577.933	21813.94
578.131	21807.8
578.329	21613.24
578.527	21484.22
578.725	21572.28
578.923	21779.12
579.121	21332.67
579.319	21488.31
579.516	21471.93
579.714	21625.53
579.912	21521.08
580.11	21158.59
580.308	21172.92
580.506	20849.35
580.704	20626.12
580.901	21117.63
581.099	21342.91
581.297	20789.95
581.495	20562.63
581.692	20703.94
581.89	20404.94
582.088	20994.75
582.285	20527.81
582.483	20812.48
582.681	20658.88
582.878	20468.42
583.076	20241.1
583.274	20243.15
583.471	20288.2
583.669	20413.13
583.866	20169.42
584.064	20298.44
584.262	19960.53
584.459	20290.25
584.657	20167.37
584.854	20142.8
585.052	19653.33
585.249	20124.36
585.447	19557.08
585.644	19776.21
585.841	19630.8
586.039	19704.53
586.236	19462.87
586.434	19475.16
586.631	19329.75
586.828	19729.11
587.026	19370.71
587.223	19370.71
587.42	19202.78
587.618	19305.18
587.815	19024.61
588.012	18887.39
588.21	19200.73
588.407	18944.73
588.604	19124.96
588.801	18782.95
588.999	18791.14
589.196	19057.37
589.393	18916.06
589.59	18547.43
589.787	18701.03
589.984	18684.64
590.182	18393.83
590.379	18680.55
590.576	18520.81
590.773	18418.41
590.97	18289.38
591.167	18455.27
591.364	17842.93
591.561	18184.94
591.758	18115.31
591.955	18094.83
592.152	17857.26
592.349	18029.29
592.546	18184.94
592.743	18023.15
592.94	17787.63
593.137	17720.05
593.334	17769.2
593.531	17619.7
593.727	17656.56
593.924	17437.43
594.121	17502.96
594.318	17672.95
594.515	17236.73
594.712	17439.48
594.908	17242.87
595.105	17345.27
595.302	17140.47
595.499	17181.43
595.696	17185.53
595.892	17165.05
596.089	17085.18
596.286	17343.22
596.482	16837.38
596.679	16790.27
596.876	16861.95
597.072	16980.73
597.269	16585.47
597.466	16820.99
597.662	16683.78
597.859	16691.97
598.055	16605.95
598.252	16302.86
598.448	16521.99
598.645	16450.31
598.841	16190.22
599.038	16405.25
599.234	16352.01
599.431	16147.21
599.627	16061.19
599.824	16214.79
600.02	16067.34
600.217	16055.05
600.413	15901.45
600.609	16030.48
600.806	15835.92
601.002	15942.41
601.198	16028.43
601.395	15586.07
601.591	15631.12
601.787	15639.31
601.984	15643.41
602.18	15858.45
602.376	15528.72
602.572	15301.4
602.769	15481.62
602.965	15532.82
603.161	15401.75
603.357	15160.09
603.553	15184.66
603.75	15155.99
603.946	15248.15
604.142	15233.82
604.338	14936.86
604.534	15049.5
604.73	14975.77
604.926	14873.37
605.122	14916.38
605.318	14934.81
605.514	14791.45
605.71	14598.95
605.906	14676.77
606.102	14754.59
606.298	14748.45
606.494	14619.42
606.69	14517.03
606.886	14842.65
607.082	14353.19
607.278	14617.38
607.474	14398.24
607.67	14381.86
607.866	14222.12
608.062	14461.73
608.257	14093.1
608.453	14316.33
608.649	14287.65
608.845	14199.59
609.041	14295.85
609.236	14119.72
609.432	14060.33
609.628	14240.55
609.824	14078.76
610.019	13912.88
610.215	13937.45
610.411	14041.9
610.606	13759.28
610.802	13689.65
610.998	13972.27
611.193	13931.31
611.389	13822.77
611.584	13624.11
611.78	13751.09
611.976	13665.07
612.171	13765.42
612.367	13775.66
612.562	13763.37
612.758	13202.23
612.953	13321.01
613.149	13447.99
613.344	13105.98
613.539	13726.51
613.735	13361.97
613.93	13548.34
614.126	13392.69
614.321	13390.64
614.517	13366.07
614.712	13239.09
614.907	13429.56
615.103	13359.92
615.298	13261.62
615.493	13099.83
615.688	13073.21
615.884	13404.98
616.079	13202.23
616.274	13050.68
616.47	13069.11
616.665	13069.11
616.86	12931.9
617.055	12811.07
617.25	12897.08
617.445	12997.43
617.641	12733.25
617.836	12948.28
618.031	12598.08
618.226	12766.01
618.421	12630.85
618.616	12544.83
618.811	12354.37
619.006	12751.68
619.201	12243.78
619.396	12460.87
619.591	12284.74
619.786	12471.11
619.981	12182.34
620.176	12262.21
620.371	12378.95
620.566	12196.68
620.761	12116.81
620.956	12016.46
621.151	11901.77
621.346	12041.03
621.541	11666.25
621.735	11957.07
621.93	11682.64
622.125	11598.67
622.32	11338.58
622.515	11940.68
622.709	11578.19
622.904	11346.77
623.099	11363.15
623.294	11471.7
623.488	11348.82
623.683	11354.96
623.878	11189.08
624.072	11047.77
624.267	11082.58
624.462	11279.19
624.656	11127.64
624.851	10900.31
625.046	10904.41
625.24	10873.69
625.435	10705.76
625.629	10716
625.824	10599.26
626.018	10640.22
626.213	10312.55
626.407	10611.55
626.602	10279.78
626.796	10333.03
626.991	10279.78
627.185	10083.17
627.38	9939.82
627.574	9972.58
627.768	10117.99
627.963	9876.33
628.157	9945.96
628.352	9857.9
628.546	9761.64
628.74	9839.47
628.935	9800.55
629.129	9700.2
629.323	9608.05
629.517	9702.25
629.712	9347.95
629.906	9485.17
630.1	9323.38
630.294	9259.89
630.489	9298.8
630.683	9440.11
630.877	9163.64
631.071	9216.88
631.265	9313.14
631.459	9057.14
631.653	9003.89
631.848	9163.64
632.042	8971.13
632.236	9010.04
632.43	8883.06
632.624	8958.84
632.818	8792.95
633.012	8690.56
633.206	8795
633.4	8745.85
633.594	8528.77
633.788	8588.16
633.982	8600.44
634.176	8506.24
634.369	8307.59
634.563	8483.71
634.757	8307.59
634.951	8514.43
635.145	8266.63
635.339	8323.97
635.533	8334.21
635.726	8115.08
635.92	8174.47
636.114	7936.9
636.308	8067.97
636.501	8061.83
636.695	7979.91
636.889	7873.42
637.083	7730.06
637.276	7781.26
637.47	7676.81
637.664	7680.91
637.857	7732.11
638.051	7732.11
638.244	7617.42
638.438	7586.7
638.632	7302.03
638.825	7441.29
639.019	7523.21
639.212	7394.19
639.406	7431.05
639.599	7369.62
639.793	7338.9
639.986	7154.58
640.18	7265.17
640.373	7132.05
640.567	7261.07
640.76	7056.28
640.954	7013.27
641.147	6859.67
641.34	6880.15
641.534	6831
641.727	6923.16
641.92	6736.79
642.114	6769.56
642.307	6835.1
642.5	6765.46
642.694	6757.27
642.887	6710.17
643.08	6720.41
643.273	6695.83
643.467	6534.04
643.66	6452.13
643.853	6558.62
644.046	6329.25
644.239	6353.82
644.432	6425.5
644.626	6480.8
644.819	6353.82
645.012	6314.91
645.205	6273.95
645.398	6142.88
645.591	6089.64
645.784	6175.65
645.977	5913.51
646.17	6042.53
646.363	6153.12
646.556	5954.47
646.749	5970.85
646.942	5966.76
647.135	5751.72
647.328	5809.06
647.521	5866.41
647.714	5813.16
647.907	5727.14
648.099	5634.99
648.292	5622.7
648.485	5647.27
648.678	5614.51
648.871	5630.89
649.064	5503.92
649.256	5438.38
649.449	5372.85
649.642	5565.36
649.835	5311.41
650.027	5415.85
650.22	5387.18
650.413	5325.74
650.605	5340.08
650.798	5141.43
650.991	5358.51
651.183	5383.09
651.376	5131.19
651.568	5178.29
651.761	5102.51
651.954	5006.26
652.146	5008.31
652.339	5135.28
652.531	4981.68
652.724	4944.82
652.916	4867
653.109	4957.11
653.301	4944.82
653.494	5079.99
653.686	4823.99
653.879	4836.28
654.071	4840.37
654.263	4852.66
654.456	4817.85
654.648	4852.66
654.84	4674.49
655.033	4639.67
655.225	4699.06
655.417	4602.81
655.61	4582.33
655.802	4539.32
655.994	4463.55
656.186	4539.32
656.379	4449.21
656.571	4500.41
656.763	4549.56
656.955	4309.95
657.148	4402.11
657.34	4303.81
657.532	4318.14
657.724	4445.12
657.916	4293.57
658.108	4318.14
658.3	4217.79
658.492	4213.7
658.684	4056
658.876	4103.11
659.068	4072.39
659.26	4072.39
659.452	4103.11
659.644	4144.06
659.836	4041.67
660.028	3961.8
660.22	3912.64
660.412	4006.85
660.604	4015.04
660.796	3890.12
660.988	3951.56
661.18	3853.25
661.372	3867.59
661.563	3804.1
661.755	3845.06
661.947	3691.46
662.139	3818.44
662.331	3709.9
662.522	3863.49
662.714	3703.75
662.906	3699.66
663.097	3746.76
663.289	3691.46
663.481	3728.33
663.673	3582.92
663.864	3642.31
664.056	3490.76
664.247	3566.54
664.439	3541.96
664.631	3517.39
664.822	3429.32
665.014	3494.86
665.205	3439.56
665.397	3425.23
665.588	3523.53
665.78	3326.93
665.971	3367.88
666.163	3408.84
666.354	3412.94
666.546	3345.36
666.737	3212.24
666.929	3380.17
667.12	3306.45
667.311	3093.46
667.503	3242.96
667.694	3220.43
667.885	3236.81
668.077	3216.33
668.268	3183.57
668.459	3128.27
668.651	3277.77
668.842	3169.23
669.033	3204.05
669.224	3007.44
669.416	3140.56
669.607	3085.26
669.798	3077.07
669.989	3027.92
670.18	2991.06
670.371	3003.35
670.563	3222.48
670.754	3017.68
670.945	2991.06
671.136	2941.91
671.327	2835.41
671.518	2927.57
671.709	2978.77
671.9	2825.17
672.091	2886.61
672.282	2794.45
672.473	2853.84
672.664	2884.56
672.855	2737.11
673.046	2964.43
673.237	2806.74
673.428	2927.57
673.619	2851.8
673.809	2778.07
674	2831.32
674.191	2735.06
674.382	2776.02
674.573	2669.53
674.764	2640.86
674.954	2737.11
675.145	2712.53
675.336	2710.49
675.527	2685.91
675.717	2728.92
675.908	2548.7
676.099	2524.12
676.289	2491.35
676.48	2522.07
676.671	2608.09
676.861	2708.44
677.052	2558.94
677.243	2634.71
677.433	2669.53
677.624	2550.75
677.814	2501.59
678.005	2610.14
678.195	2616.28
678.386	2577.37
678.576	2577.37
678.767	2520.03
678.957	2579.42
679.148	2485.21
679.338	2497.5
679.529	2497.5
679.719	2462.68
679.909	2573.27
680.1	2556.89
680.29	2438.11
680.481	2501.59
680.671	2509.79
680.861	2599.9
681.052	2493.4
681.242	2401.24
681.432	2380.76
681.622	2540.51
681.813	2348
682.003	2397.15
682.193	2495.45
682.383	2362.33
682.573	2434.01
682.764	2407.39
682.954	2450.39
683.144	2329.56
683.334	2393.05
683.524	2411.48
683.714	2331.61
683.904	2532.31
684.094	2472.92
684.284	2466.78
684.474	2319.32
684.664	2456.54
684.854	2292.7
685.044	2429.91
685.234	2386.91
685.424	2327.52
685.614	2288.61
685.804	2278.37
685.994	2360.28
686.184	2339.8
686.374	2175.97
686.564	2391
686.753	2225.12
686.943	2313.18
687.133	2391
687.323	2341.85
687.513	2386.91
687.702	2208.73
687.892	2335.71
688.082	2274.27
688.272	2362.33
688.461	2386.91
688.651	2311.13
688.841	2231.26
689.03	2339.8
689.22	2245.6
689.41	2178.01
689.599	2290.65
689.789	2216.93
689.979	2237.41
690.168	2161.63
690.358	2182.11
690.547	2235.36
690.737	2159.58
690.926	2366.43
691.116	2171.87
691.305	2208.73
691.495	2167.77
691.684	2239.45
691.874	2190.3
692.063	2157.54
692.252	2227.17
692.442	2184.16
692.631	2155.49
692.82	2151.39
693.01	2075.62
693.199	1991.65
693.388	2106.34
693.578	2110.43
693.767	2165.73
693.956	2040.8
694.146	2124.77
694.335	2063.33
694.524	2145.25
694.713	2122.72
694.902	2014.18
695.092	2073.57
695.281	2026.47
695.47	2089.95
695.659	2032.61
695.848	2008.03
696.037	2032.61
696.226	2216.93
696.415	2178.01
696.604	2159.58
696.793	2008.03
696.982	2014.18
697.171	2005.99
697.36	2112.48
697.549	2081.76
697.738	2114.53
697.927	2003.94
698.116	2014.18
698.305	1967.07
698.494	2130.91
698.683	1942.5
698.872	2034.66
699.061	2030.56
699.25	1856.48
699.438	1960.93
699.627	1993.7
699.816	1952.74
700.005	2010.08
700.193	2046.94
700.382	1952.74
700.571	1993.7
700.76	1895.4
700.948	2024.42
701.137	1840.1
701.326	1924.07
701.514	1831.91
701.703	1854.44
701.892	1956.83
702.08	1911.78
702.269	2016.23
702.457	1893.35
702.646	2020.32
702.834	1950.69
703.023	1938.4
703.212	1885.16
703.4	2008.03
703.589	1797.09
703.777	1899.49
703.965	1934.31
704.154	1876.96
704.342	1784.8
704.531	1913.83
704.719	1934.31
704.907	1848.29
705.096	1762.28
705.284	1844.2
705.472	1954.79
705.661	1975.27
705.849	1928.16
706.037	1860.58
706.226	1758.18
706.414	1911.78
706.602	1803.24
706.79	1848.29
706.979	1723.37
707.167	1840.1
707.355	1690.6
707.543	1840.1
707.731	1725.41
707.919	1737.7
708.107	1704.93
708.296	1729.51
708.484	1807.33
708.672	1754.09
708.86	1756.13
709.048	1811.43
709.236	1733.61
709.424	1786.85
709.612	1739.75
709.8	1801.19
709.988	1721.32
710.176	1713.13
710.364	1725.41
710.551	1721.32
710.739	1696.74
710.927	1571.82
711.115	1688.55
711.303	1852.39
711.491	1647.59
711.679	1719.27
711.866	1668.07
712.054	1639.4
712.242	1524.71
712.43	1633.26
712.617	1623.02
712.805	1747.94
712.993	1688.55
713.181	1723.37
713.368	1713.13
713.556	1647.59
713.744	1649.64
713.931	1647.59
714.119	1612.78
714.306	1537
714.494	1653.73
714.682	1526.76
714.869	1706.98
715.057	1561.58
715.244	1563.62
715.432	1663.97
715.619	1663.97
715.807	1530.86
715.994	1627.11
716.182	1596.39
716.369	1543.14
716.556	1508.33
716.744	1549.29
716.931	1577.96
717.119	1635.3
717.306	1453.03
717.493	1565.67
717.681	1526.76
717.868	1475.56
718.055	1530.86
718.242	1487.85
718.43	1555.43
718.617	1477.61
718.804	1594.34
718.991	1522.66
719.179	1504.23
719.366	1594.34
719.553	1428.46
719.74	1397.74
719.927	1510.38
720.114	1450.99
720.301	1369.07
720.488	1450.99
720.676	1459.18
720.863	1434.6
721.05	1477.61
721.237	1403.88
721.424	1344.49
721.611	1493.99
721.798	1432.55
721.985	1418.22
722.172	1418.22
722.358	1571.82
722.545	1371.12
722.732	1332.2
722.919	1377.26
723.106	1405.93
723.293	1500.14
723.48	1336.3
723.667	1473.51
723.853	1369.07
724.04	1438.7
724.227	1328.11
724.414	1367.02
724.6	1303.53
724.787	1330.16
724.974	1424.36
725.161	1240.05
725.347	1262.57
725.534	1250.28
725.72	1303.53
725.907	1299.44
726.094	1354.73
726.28	1289.2
726.467	1362.92
726.653	1373.16
726.84	1319.92
727.027	1315.82
727.213	1336.3
727.4	1487.85
727.586	1299.44
727.773	1278.96
727.959	1211.37
728.145	1264.62
728.332	1227.76
728.518	1242.09
728.705	1313.77
728.891	1285.1
729.077	1229.81
729.264	1258.48
729.45	1309.68
729.636	1281
729.823	1252.33
730.009	1260.52
730.195	1330.16
730.382	1276.91
730.568	1295.34
730.754	1305.58
730.94	1207.28
731.126	1313.77
731.313	1211.37
731.499	1264.62
731.685	1291.24
731.871	1225.71
732.057	1272.81
732.243	1219.57
732.429	1215.47
732.615	1305.58
732.801	1278.96
732.987	1287.15
733.173	1227.76
733.359	1283.05
733.545	1246.19
733.731	1219.57
733.917	1207.28
734.103	1203.18
734.289	1270.76
734.475	1219.57
734.661	1270.76
734.847	1213.42
735.033	1203.18
735.219	1231.85
735.404	1246.19
735.59	1291.24
735.776	1240.05
735.962	1106.93
736.148	1178.61
736.333	1192.94
736.519	1192.94
736.705	1156.08
736.89	1164.27
737.076	1131.5
737.262	1141.74
737.447	1272.81
737.633	1238
737.819	1084.4
738.004	1184.75
738.19	1211.37
738.375	1084.4
738.561	1297.39
738.747	1129.45
738.932	1151.98
739.118	1156.08
739.303	1135.6
739.489	1102.83
739.674	1119.21
739.859	1127.41
740.045	1117.17
740.23	1143.79
740.416	1154.03
740.601	1147.89
740.786	1092.59
740.972	1055.73
741.157	1125.36
741.342	1076.21
741.528	1123.31
741.713	1127.41
741.898	1100.78
742.084	1121.26
742.269	1090.54
742.454	1076.21
742.639	1121.26
742.824	1106.93
743.01	1070.06
743.195	1219.57
743.38	1082.35
743.565	1022.96
743.75	1049.58
743.935	986.1
744.12	1063.92
744.305	1068.02
744.49	1041.39
744.675	1082.35
744.86	1111.02
745.045	930.8
745.23	1037.3
745.415	986.1
745.6	992.24
745.785	994.29
745.97	1043.44
746.155	908.27
746.34	992.24
746.525	953.33
746.71	990.19
746.895	979.95
747.079	908.27
747.264	930.8
747.449	918.51
747.634	961.52
747.819	1000.43
748.003	963.57
748.188	959.47
748.373	963.57
748.557	855.03
748.742	990.19
748.927	877.55
749.111	852.98
749.296	971.76
749.481	947.19
749.665	918.51
749.85	938.99
750.034	848.88
750.219	936.95
750.404	809.97
750.588	893.94
750.773	799.73
750.957	855.03
751.141	908.27
751.326	803.83
751.51	818.16
751.695	861.17
751.879	809.97
752.064	816.12
752.248	807.92
752.432	787.44
752.617	809.97
752.801	773.11
752.985	838.64
753.17	941.04
753.354	871.41
753.538	805.88
753.722	787.44
753.907	838.64
754.091	746.48
754.275	756.72
754.459	687.09
754.643	824.31
754.828	703.48
755.012	717.81
755.196	678.9
755.38	807.92
755.564	754.68
755.748	691.19
755.932	717.81
756.116	658.42
756.3	664.57
756.484	656.37
756.668	642.04
756.852	656.37
757.036	703.48
757.22	719.86
757.404	623.61
757.588	646.13
757.772	666.61
757.956	670.71
758.14	683
758.323	603.13
758.507	668.66
758.691	623.61
758.875	580.6
759.059	662.52
759.242	660.47
759.426	617.46
759.61	566.26
759.794	615.41
759.977	576.5
760.161	603.13
760.345	578.55
760.528	611.32
760.712	625.65
760.895	568.31
761.079	500.73
761.263	615.41
761.446	580.6
761.63	541.69
761.813	689.14
761.997	513.02
762.18	545.78
762.364	508.92
762.547	592.89
762.731	553.98
762.914	623.61
763.098	582.65
763.281	560.12
763.464	613.37
763.648	572.41
763.831	615.41
764.015	564.22
764.198	539.64
764.381	574.46
764.564	531.45
764.748	558.07
764.931	568.31
765.114	508.92
765.297	527.35
765.481	519.16
765.664	592.89
765.847	582.65
766.03	527.35
766.213	601.08
766.397	519.16
766.58	533.5
766.763	500.73
766.946	531.45
767.129	535.54
767.312	535.54
767.495	541.69
767.678	564.22
767.861	484.34
768.044	494.58
768.227	472.06
768.41	447.48
768.593	480.25
768.776	418.81
768.959	463.86
769.142	494.58
769.324	547.83
769.507	502.78
769.69	453.63
769.873	508.92
770.056	535.54
770.239	461.82
770.421	470.01
770.604	480.25
770.787	472.06
770.97	396.28
771.152	445.43
771.335	418.81
771.518	416.76
771.7	459.77
771.883	476.15
772.066	502.78
772.248	476.15
772.431	457.72
772.613	408.57
772.796	373.75
772.978	492.54
773.161	420.86
773.343	463.86
773.526	445.43
773.708	484.34
773.891	416.76
774.073	394.23
774.256	392.19
774.438	453.63
774.621	414.71
774.803	429.05
774.985	443.39
775.168	357.37
775.35	457.72
775.532	373.75
775.715	363.51
775.897	369.66
776.079	369.66
776.261	388.09
776.444	332.79
776.626	484.34
776.808	287.74
776.99	359.42
777.173	435.19
777.355	322.56
777.537	412.67
777.719	390.14
777.901	318.46
778.083	390.14
778.265	427
778.447	332.79
778.629	355.32
778.811	265.21
778.993	371.71
779.175	369.66
779.357	386.04
779.539	322.56
779.721	328.7
779.903	424.95
780.085	414.71
780.267	340.99
780.449	328.7
780.631	275.45
780.812	326.65
780.994	261.12
781.176	308.22
781.358	265.21
781.54	338.94
781.721	291.84
781.903	400.38
782.085	324.6
782.267	279.55
782.448	265.21
782.63	265.21
782.812	328.7
782.993	287.74
783.175	168.96
783.357	234.49
783.538	279.55
783.72	287.74
783.901	267.26
784.083	279.55
784.264	244.73
784.446	244.73
784.627	287.74
784.809	238.59
784.99	281.6
785.172	293.88
785.353	263.16
785.535	244.73
785.716	279.55
785.897	261.12
786.079	289.79
786.26	240.64
786.441	271.36
786.623	269.31
786.804	265.21
786.985	236.54
787.167	203.77
787.348	218.11
787.529	240.64
787.71	230.4
787.891	242.68
788.073	248.83
788.254	175.1
788.435	240.64
788.616	230.4
788.797	228.35
788.978	175.1
789.159	175.1
789.34	222.2
789.522	193.53
789.703	125.95
789.884	119.81
790.065	181.25
790.246	144.38
790.427	224.25
790.607	97.28
790.788	216.06
790.969	158.72
791.15	158.72
791.331	216.06
791.512	189.44
791.693	181.25
791.874	101.37
792.054	230.4
792.235	226.3
792.416	205.82
792.597	166.91
792.778	214.01
792.958	136.19
793.139	173.05
793.32	117.76
793.5	166.91
793.681	203.77
793.862	209.92
794.042	173.05
794.223	117.76
794.404	168.96
794.584	103.42
794.765	156.67
794.945	181.25
795.126	183.29
795.306	117.76
795.487	107.52
795.667	150.53
795.848	171.01
796.028	156.67
796.209	199.68
796.389	177.15
796.57	181.25
796.75	177.15
796.93	148.48
797.111	132.09
797.291	132.09
797.471	115.71
797.652	144.38
797.832	119.81
798.012	148.48
798.192	115.71
798.373	140.29
798.553	152.57
798.733	74.75
798.913	209.92
799.093	91.13
799.274	156.67
799.454	160.77
799.634	95.23
799.814	189.44
799.994	87.04
800.174	152.57
800.354	146.43
800.534	160.77
800.714	187.39
800.894	128
801.074	72.7
801.254	220.16
801.434	146.43
801.614	166.91
801.794	99.33
801.974	324.6
802.154	113.66
802.334	160.77
802.514	107.52
802.693	111.61
802.873	80.89
803.053	224.25
803.233	101.37
803.413	164.86
803.592	142.33
803.772	109.57
803.952	101.37
804.131	80.89
804.311	125.95
804.491	109.57
804.67	103.42
804.85	152.57
805.03	166.91
805.209	101.37
805.389	60.42
805.568	146.43
805.748	148.48
805.928	78.85
806.107	107.52
806.287	148.48
806.466	119.81
806.646	109.57
806.825	74.75
807.004	123.9
807.184	70.65
807.363	60.42
807.543	121.85
807.722	123.9
807.901	171.01
808.081	46.08
808.26	76.8
808.439	58.37
808.619	121.85
808.798	113.66
808.977	105.47
809.156	166.91
809.336	140.29
809.515	142.33
809.694	105.47
809.873	103.42
810.052	52.22
810.231	80.89
810.411	99.33
810.59	136.19
810.769	50.18
810.948	95.23
811.127	54.27
811.306	140.29
811.485	87.04
811.664	84.99
811.843	39.94
812.022	99.33
812.201	123.9
812.38	46.08
812.559	84.99
812.737	29.7
812.916	44.03
813.095	101.37
813.274	56.32
813.453	173.05
813.632	97.28
813.811	66.56
813.989	111.61
814.168	103.42
814.347	54.27
814.526	15.36
814.704	64.51
814.883	64.51
815.062	62.46
815.24	62.46
815.419	33.79
815.598	117.76
815.776	68.61
815.955	54.27
816.133	64.51
816.312	109.57
816.49	41.98
816.669	25.6
816.847	50.18
817.026	97.28
817.204	87.04
817.383	103.42
817.561	82.94
817.74	25.6
817.918	74.75
818.097	105.47
818.275	95.23
818.453	89.09
818.632	95.23
818.81	52.22
818.988	168.96
819.167	41.98
819.345	101.37
819.523	11.26
819.701	9.22
819.879	44.03
820.058	78.85
820.236	33.79
820.414	107.52
820.592	191.49
820.77	35.84
820.948	21.5
821.127	76.8
821.305	70.65
821.483	70.65
821.661	74.75
821.839	35.84
822.017	44.03
822.195	62.46
822.373	76.8
822.551	146.43
822.729	58.37
822.907	74.75
823.085	66.56
823.262	50.18
823.44	35.84
823.618	13.31
823.796	9.22
823.974	-23.55
824.152	68.61
824.329	48.13
824.507	107.52
824.685	-15.36
824.863	91.13
825.04	46.08
825.218	-19.46
825.396	60.42
825.574	64.51
825.751	13.31
825.929	60.42
826.107	1.02
826.284	84.99
826.462	31.74
826.639	39.94
826.817	25.6
826.994	-5.12
827.172	54.27
827.349	50.18
827.527	72.7
827.704	46.08
827.882	33.79
828.059	97.28
828.237	25.6
828.414	125.95
828.591	-31.74
828.769	99.33
828.946	3.07
829.124	-1.02
829.301	7.17
829.478	50.18
829.655	76.8
829.833	15.36
830.01	-5.12
830.187	74.75
830.364	29.7
830.542	11.26
830.719	-11.26
830.896	68.61
831.073	60.42
831.25	11.26
831.427	56.32
831.604	64.51
831.782	1.02
831.959	95.23
832.136	21.5
832.313	17.41
832.49	33.79
832.667	50.18
832.844	37.89
833.021	48.13
833.198	99.33
833.374	41.98
833.551	-37.89
833.728	68.61
833.905	-11.26
834.082	-7.17
834.259	93.18
834.436	13.31
834.612	-15.36
834.789	-9.22
834.966	46.08
835.143	121.85
835.319	31.74
835.496	13.31
835.673	74.75
835.85	52.22
836.026	41.98
836.203	23.55
836.38	146.43
836.556	50.18
836.733	-31.74
836.909	56.32
837.086	54.27
837.262	44.03
837.439	9.22
837.616	37.89
837.792	44.03
837.968	39.94
838.145	25.6
838.321	17.41
838.498	58.37
838.674	58.37
838.851	-21.5
839.027	50.18
839.203	68.61
839.38	23.55
839.556	74.75
839.732	9.22
839.909	39.94
840.085	21.5
840.261	-44.03
840.437	103.42
840.614	7.17
840.79	-29.7
840.966	37.89
841.142	52.22
841.318	1.02
841.494	-1.02
841.671	48.13
841.847	105.47
842.023	7.17
842.199	70.65
842.375	21.5
842.551	50.18
842.727	-39.94
842.903	58.37
843.079	15.36
843.255	11.26
843.431	62.46
843.607	128
843.783	-62.46
843.959	9.22
844.134	50.18
844.31	68.61
844.486	3.07
844.662	33.79
844.838	46.08
845.013	9.22
845.189	33.79
845.365	84.99
845.541	58.37
845.716	66.56
845.892	-1.02
846.068	76.8
846.244	-5.12
846.419	29.7
846.595	93.18
846.77	31.74
846.946	-17.41
847.122	13.31
847.297	62.46
847.473	136.19
847.648	-89.09
847.824	-25.6
847.999	23.55
848.175	1.02
848.35	13.31
848.526	52.22
848.701	97.28
848.876	25.6
849.052	-21.5
849.227	50.18
849.403	-7.17
849.578	37.89
849.753	7.17
849.929	31.74
850.104	9.22
850.279	121.85
850.454	76.8
850.63	56.32
850.805	58.37
850.98	93.18
851.155	46.08
851.33	-3.07
851.505	41.98
851.681	107.52
851.856	27.65
852.031	44.03
852.206	-3.07
852.381	7.17
852.556	60.42
852.731	-5.12
852.906	80.89
853.081	13.31
853.256	60.42
853.431	-5.12
853.606	17.41
853.781	21.5
853.956	-37.89
854.131	50.18
854.305	31.74
854.48	-3.07
854.655	-52.22
854.83	27.65
855.005	-29.7
855.18	7.17
855.354	1.02
855.529	-50.18
855.704	50.18
855.879	78.85
856.053	-7.17
856.228	35.84
856.403	-21.5
856.577	54.27
856.752	-72.7
856.926	19.46
857.101	7.17
857.276	58.37
857.45	-3.07
857.625	27.65
857.799	-56.32
857.974	-9.22
858.148	29.7
858.323	21.5
858.497	-23.55
858.672	-25.6
858.846	35.84
859.02	-21.5
859.195	37.89
859.369	44.03
859.543	93.18
859.718	19.46
859.892	74.75
860.066	52.22
860.241	50.18
860.415	44.03
860.589	33.79
860.763	66.56
860.938	68.61
861.112	7.17
861.286	11.26
861.46	11.26
861.634	-7.17
861.808	29.7
861.982	-21.5
862.157	-1.02
862.331	-29.7
862.505	25.6
862.679	21.5
862.853	27.65
863.027	-21.5
863.201	-37.89
863.375	7.17
863.549	-7.17
863.722	23.55
863.896	74.75
864.07	-48.13
864.244	41.98
864.418	7.17
864.592	31.74
864.766	3.07
864.939	-21.5
865.113	-23.55
865.287	17.41
865.461	-7.17
865.634	15.36
865.808	21.5
865.982	60.42
866.156	76.8
866.329	31.74
866.503	64.51
866.676	23.55
866.85	31.74
867.024	82.94
867.197	66.56
867.371	62.46
867.544	-54.27
867.718	-1.02
867.891	-54.27
868.065	13.31
868.238	-39.94
868.412	-13.31
868.585	-41.98
868.759	-41.98
868.932	-80.89
869.105	82.94
869.279	-58.37
869.452	-27.65
869.625	54.27
869.799	39.94
869.972	15.36
870.145	33.79
870.319	9.22
870.492	-15.36
870.665	-27.65
870.838	50.18
871.011	29.7
871.185	13.31
871.358	15.36
871.531	-33.79
871.704	-78.85
871.877	74.75
872.05	19.46
872.223	58.37
872.396	5.12
872.569	-21.5
872.742	-15.36
872.915	54.27
873.088	27.65
873.261	89.09
873.434	72.7
873.607	52.22
873.78	15.36
873.953	17.41
874.126	41.98
874.299	7.17
874.471	-56.32
874.644	76.8
874.817	62.46
874.99	41.98
875.163	13.31
875.335	-29.7
875.508	27.65
875.681	15.36
875.853	11.26
876.026	-44.03
876.199	7.17
876.371	-21.5
876.544	-25.6
876.717	3.07
876.889	-25.6
877.062	66.56
877.234	-7.17
877.407	25.6
877.579	9.22
877.752	72.7
877.924	-1.02
878.097	-7.17
878.269	-25.6
878.442	-15.36
878.614	-17.41
878.786	70.65
878.959	-44.03
879.131	17.41
879.303	52.22
879.476	9.22
879.648	-29.7
879.82	-21.5
879.993	-37.89
880.165	-9.22
880.337	-35.84
880.509	9.22
880.681	9.22
880.854	46.08
881.026	-27.65
881.198	19.46
881.37	-23.55
881.542	-50.18
881.714	48.13
881.886	9.22
882.058	31.74
882.23	-5.12
882.402	-15.36
882.574	35.84
882.746	-31.74
882.918	44.03
883.09	-5.12
883.262	23.55
883.434	19.46
883.606	25.6
883.778	-80.89
883.95	35.84
884.122	29.7
884.293	58.37
884.465	-5.12
884.637	11.26
884.809	41.98
884.98	17.41
885.152	-25.6
885.324	19.46
885.496	-9.22
885.667	41.98
885.839	-72.7
886.011	41.98
886.182	19.46
886.354	21.5
886.525	-1.02
886.697	37.89
886.869	5.12
887.04	39.94
887.212	13.31
887.383	25.6
887.555	27.65
887.726	52.22
887.897	-41.98
888.069	82.94
888.24	-5.12
888.412	48.13
888.583	-35.84
888.754	33.79
888.926	-37.89
889.097	-52.22
889.268	68.61
889.44	-39.94
889.611	-19.46
889.782	-9.22
889.953	-54.27
890.125	11.26
890.296	-37.89
890.467	17.41
890.638	9.22
890.809	-31.74
890.98	-3.07
891.151	19.46
891.323	50.18
891.494	-29.7
891.665	7.17
891.836	-15.36
892.007	-39.94
892.178	27.65
892.349	-15.36
892.52	9.22
892.691	39.94
892.862	-25.6
893.032	-17.41
893.203	17.41
893.374	27.65
893.545	-31.74
893.716	7.17
893.887	52.22
894.057	56.32
894.228	52.22
894.399	-5.12
894.57	82.94
894.74	9.22
894.911	-39.94
895.082	78.85
895.253	23.55
895.423	-9.22
895.594	-44.03
895.764	39.94
895.935	-95.23
896.106	-11.26
896.276	1.02
896.447	9.22
896.617	62.46
896.788	35.84
896.958	-13.31
897.129	44.03
897.299	-46.08
897.47	-25.6
897.64	9.22
897.81	31.74
897.981	76.8
898.151	-35.84
898.322	56.32
898.492	13.31
898.662	11.26
898.832	68.61
899.003	-44.03
899.173	33.79
899.343	-44.03
899.513	-31.74
