Data from USB4F104151__104__13-00-27-037.txt Node

Date: Fri Mar 14 13:00:27 EDT 2025
User: louis
Spectrometer: USB4F10415
Trigger mode: 4
Integration Time (sec): 1.000000E-2
Scans to average: 1
Electric dark correction enabled: true
Nonlinearity correction enabled: false
Boxcar width: 0
XAxis mode: Wavelengths
Number of Pixels in Spectrum: 3648
>>>>>Begin Spectral Data<<<<<
178.204	-87.38
178.424	-87.38
178.644	-87.38
178.864	17.07
179.084	-34.13
179.304	-9.56
179.524	-25.94
179.744	35.5
179.964	-27.99
180.184	-36.18
180.404	33.45
180.624	-21.85
180.844	-32.08
181.064	-19.8
181.283	-25.94
181.503	60.07
181.723	70.31
181.943	-13.65
182.163	41.64
182.383	-7.51
182.602	33.45
182.822	25.26
183.042	-46.42
183.262	33.45
183.482	-40.28
183.701	41.64
183.921	-48.47
184.141	33.45
184.361	27.31
184.58	70.31
184.8	-1.37
185.02	23.21
185.239	64.17
185.459	76.46
185.679	62.12
185.898	6.83
186.118	31.4
186.338	43.69
186.557	39.59
186.777	-11.61
186.997	47.79
187.216	39.59
187.436	31.4
187.655	-19.8
187.875	68.27
188.095	15.02
188.314	55.98
188.534	72.36
188.753	-5.46
188.973	64.17
189.192	-27.99
189.412	-9.56
189.631	41.64
189.851	51.88
190.07	60.07
190.29	-75.09
190.509	51.88
190.729	33.45
190.948	51.88
191.168	88.75
191.387	-23.89
191.607	90.79
191.826	19.11
192.045	55.98
192.265	41.64
192.484	33.45
192.704	80.55
192.923	-15.7
193.142	49.83
193.362	2.73
193.581	64.17
193.8	6.83
194.02	25.26
194.239	-1.37
194.458	15.02
194.678	-40.28
194.897	-1.37
195.116	72.36
195.335	8.87
195.555	-52.56
195.774	6.83
195.993	55.98
196.212	15.02
196.432	-15.7
196.651	-40.28
196.87	-1.37
197.089	45.74
197.308	94.89
197.528	15.02
197.747	-17.75
197.966	-25.94
198.185	74.41
198.404	-64.85
198.623	-17.75
198.842	31.4
199.062	-27.99
199.281	37.55
199.5	4.78
199.719	49.83
199.938	53.93
200.157	31.4
200.376	-34.13
200.595	21.16
200.814	60.07
201.033	-17.75
201.252	-48.47
201.471	8.87
201.69	4.78
201.909	62.12
202.128	-32.08
202.347	25.26
202.566	-13.65
202.785	12.97
203.004	23.21
203.223	6.83
203.442	4.78
203.661	-32.08
203.879	29.35
204.098	-23.89
204.317	-19.8
204.536	58.03
204.755	41.64
204.974	8.87
205.193	37.55
205.411	119.46
205.63	19.11
205.849	0.68
206.068	17.07
206.287	31.4
206.505	-46.42
206.724	-75.09
206.943	29.35
207.162	29.35
207.381	12.97
207.599	6.83
207.818	33.45
208.037	29.35
208.255	-34.13
208.474	68.27
208.693	-42.32
208.911	76.46
209.13	-15.7
209.349	8.87
209.567	53.93
209.786	70.31
210.005	60.07
210.223	-19.8
210.442	62.12
210.661	51.88
210.879	8.87
211.098	-1.37
211.316	2.73
211.535	-11.61
211.753	47.79
211.972	27.31
212.191	51.88
212.409	72.36
212.628	33.45
212.846	-34.13
213.065	19.11
213.283	55.98
213.502	2.73
213.72	37.55
213.938	-34.13
214.157	6.83
214.375	25.26
214.594	43.69
214.812	37.55
215.031	90.79
215.249	58.03
215.467	37.55
215.686	25.26
215.904	-9.56
216.122	27.31
216.341	64.17
216.559	47.79
216.778	43.69
216.996	35.5
217.214	8.87
217.432	35.5
217.651	-42.32
217.869	-1.37
218.087	17.07
218.306	19.11
218.524	-5.46
218.742	-9.56
218.96	43.69
219.179	-25.94
219.397	8.87
219.615	39.59
219.833	12.97
220.051	-5.46
220.27	39.59
220.488	25.26
220.706	8.87
220.924	15.02
221.142	-25.94
221.36	51.88
221.578	-36.18
221.796	64.17
222.015	25.26
222.233	70.31
222.451	37.55
222.669	-19.8
222.887	8.87
223.105	58.03
223.323	72.36
223.541	-13.65
223.759	-15.7
223.977	39.59
224.195	103.08
224.413	45.74
224.631	23.21
224.849	-34.13
225.067	35.5
225.285	17.07
225.503	60.07
225.721	-60.76
225.939	10.92
226.157	39.59
226.375	78.51
226.592	47.79
226.81	29.35
227.028	80.55
227.246	35.5
227.464	-48.47
227.682	55.98
227.9	45.74
228.117	-17.75
228.335	45.74
228.553	62.12
228.771	27.31
228.989	35.5
229.206	2.73
229.424	-25.94
229.642	68.27
229.86	0.68
230.077	41.64
230.295	23.21
230.513	-9.56
230.731	-15.7
230.948	-11.61
231.166	58.03
231.384	23.21
231.601	27.31
231.819	43.69
232.037	-11.61
232.254	21.16
232.472	23.21
232.689	21.16
232.907	53.93
233.125	6.83
233.342	58.03
233.56	70.31
233.777	-5.46
233.995	-44.37
234.213	35.5
234.43	49.83
234.648	33.45
234.865	4.78
235.083	-13.65
235.3	0.68
235.518	0.68
235.735	31.4
235.953	74.41
236.17	-1.37
236.388	31.4
236.605	43.69
236.822	90.79
237.04	55.98
237.257	-1.37
237.475	41.64
237.692	-5.46
237.909	25.26
238.127	31.4
238.344	39.59
238.562	55.98
238.779	35.5
238.996	49.83
239.214	-23.89
239.431	123.56
239.648	43.69
239.865	-1.37
240.083	12.97
240.3	35.5
240.517	-21.85
240.735	33.45
240.952	-23.89
241.169	8.87
241.386	-1.37
241.603	31.4
241.821	25.26
242.038	8.87
242.255	-62.8
242.472	-23.89
242.689	6.83
242.907	33.45
243.124	-1.37
243.341	66.22
243.558	25.26
243.775	-1.37
243.992	31.4
244.209	15.02
244.426	37.55
244.643	51.88
244.86	25.26
245.078	0.68
245.295	60.07
245.512	25.26
245.729	58.03
245.946	-56.66
246.163	-9.56
246.38	33.45
246.597	64.17
246.814	27.31
247.031	58.03
247.248	6.83
247.464	74.41
247.681	60.07
247.898	0.68
248.115	19.11
248.332	0.68
248.549	-25.94
248.766	66.22
248.983	88.75
249.2	23.21
249.417	0.68
249.633	29.35
249.85	4.78
250.067	-21.85
250.284	27.31
250.501	35.5
250.717	-13.65
250.934	-25.94
251.151	60.07
251.368	25.26
251.585	-19.8
251.801	-21.85
252.018	0.68
252.235	41.64
252.451	-1.37
252.668	29.35
252.885	62.12
253.102	-27.99
253.318	-15.7
253.535	8.87
253.752	72.36
253.968	-9.56
254.185	49.83
254.401	-7.51
254.618	53.93
254.835	27.31
255.051	68.27
255.268	-1.37
255.484	58.03
255.701	-21.85
255.917	43.69
256.134	-5.46
256.351	92.84
256.567	-9.56
256.784	92.84
257	23.21
257.217	-5.46
257.433	55.98
257.65	-21.85
257.866	78.51
258.082	27.31
258.299	66.22
258.515	23.21
258.732	-7.51
258.948	-56.66
259.165	-42.32
259.381	-3.41
259.597	23.21
259.814	107.18
260.03	92.84
260.246	17.07
260.463	6.83
260.679	64.17
260.895	12.97
261.112	23.21
261.328	64.17
261.544	43.69
261.761	101.03
261.977	-11.61
262.193	-13.65
262.409	35.5
262.626	49.83
262.842	-30.04
263.058	37.55
263.274	-21.85
263.49	31.4
263.707	86.7
263.923	12.97
264.139	31.4
264.355	-3.41
264.571	-7.51
264.787	-40.28
265.004	43.69
265.22	68.27
265.436	80.55
265.652	74.41
265.868	-38.23
266.084	35.5
266.3	31.4
266.516	12.97
266.732	-19.8
266.948	33.45
267.164	53.93
267.38	53.93
267.596	62.12
267.812	-25.94
268.028	33.45
268.244	12.97
268.46	15.02
268.676	-3.41
268.892	12.97
269.108	-15.7
269.324	-19.8
269.54	-34.13
269.756	12.97
269.972	39.59
270.188	-19.8
270.403	43.69
270.619	-1.37
270.835	80.55
271.051	2.73
271.267	-9.56
271.483	6.83
271.698	17.07
271.914	10.92
272.13	105.13
272.346	64.17
272.562	84.65
272.777	17.07
272.993	53.93
273.209	45.74
273.425	-9.56
273.64	33.45
273.856	72.36
274.072	-1.37
274.287	-58.71
274.503	39.59
274.719	-17.75
274.934	-46.42
275.15	-91.48
275.366	-15.7
275.581	47.79
275.797	-15.7
276.012	-40.28
276.228	33.45
276.444	92.84
276.659	90.79
276.875	64.17
277.09	37.55
277.306	2.73
277.521	62.12
277.737	-23.89
277.952	76.46
278.168	10.92
278.383	62.12
278.599	-32.08
278.814	86.7
279.03	41.64
279.245	60.07
279.461	31.4
279.676	-44.37
279.892	37.55
280.107	25.26
280.322	39.59
280.538	10.92
280.753	-36.18
280.969	-9.56
281.184	51.88
281.399	-15.7
281.615	-32.08
281.83	37.55
282.045	6.83
282.26	43.69
282.476	-11.61
282.691	10.92
282.906	53.93
283.122	19.11
283.337	6.83
283.552	-15.7
283.767	-42.32
283.983	-1.37
284.198	35.5
284.413	101.03
284.628	-13.65
284.843	-1.37
285.058	-9.56
285.274	-54.61
285.489	12.97
285.704	0.68
285.919	43.69
286.134	55.98
286.349	21.16
286.564	88.75
286.779	55.98
286.995	33.45
287.21	58.03
287.425	6.83
287.64	-38.23
287.855	35.5
288.07	10.92
288.285	74.41
288.5	41.64
288.715	47.79
288.93	31.4
289.145	0.68
289.36	33.45
289.575	10.92
289.79	17.07
290.004	-9.56
290.219	72.36
290.434	72.36
290.649	6.83
290.864	27.31
291.079	80.55
291.294	-32.08
291.509	12.97
291.724	0.68
291.938	55.98
292.153	76.46
292.368	-54.61
292.583	27.31
292.798	62.12
293.012	-9.56
293.227	80.55
293.442	37.55
293.657	45.74
293.871	68.27
294.086	25.26
294.301	64.17
294.516	53.93
294.73	33.45
294.945	-1.37
295.16	39.59
295.374	19.11
295.589	15.02
295.804	33.45
296.018	33.45
296.233	10.92
296.447	101.03
296.662	37.55
296.877	47.79
297.091	92.84
297.306	-30.04
297.52	29.35
297.735	33.45
297.949	21.16
298.164	39.59
298.378	-1.37
298.593	-19.8
298.807	58.03
299.022	-3.41
299.236	78.51
299.451	41.64
299.665	10.92
299.88	45.74
300.094	8.87
300.309	47.79
300.523	6.83
300.737	-58.71
300.952	33.45
301.166	15.02
301.381	-17.75
301.595	41.64
301.809	-62.8
302.024	45.74
302.238	-62.8
302.452	55.98
302.667	76.46
302.881	21.16
303.095	-7.51
303.309	23.21
303.524	53.93
303.738	31.4
303.952	21.16
304.166	37.55
304.381	-21.85
304.595	76.46
304.809	19.11
305.023	-9.56
305.237	-58.71
305.452	58.03
305.666	-17.75
305.88	33.45
306.094	12.97
306.308	72.36
306.522	-1.37
306.736	17.07
306.95	27.31
307.164	51.88
307.379	27.31
307.593	-13.65
307.807	33.45
308.021	-5.46
308.235	-25.94
308.449	66.22
308.663	60.07
308.877	80.55
309.091	98.99
309.305	49.83
309.519	39.59
309.733	-3.41
309.947	-9.56
310.161	43.69
310.374	0.68
310.588	31.4
310.802	37.55
311.016	66.22
311.23	23.21
311.444	25.26
311.658	64.17
311.872	90.79
312.085	37.55
312.299	49.83
312.513	-32.08
312.727	90.79
312.941	19.11
313.154	23.21
313.368	105.13
313.582	60.07
313.796	41.64
314.009	39.59
314.223	25.26
314.437	8.87
314.651	6.83
314.864	25.26
315.078	-15.7
315.292	70.31
315.505	51.88
315.719	35.5
315.933	55.98
316.146	-5.46
316.36	0.68
316.573	39.59
316.787	111.27
317.001	25.26
317.214	19.11
317.428	19.11
317.641	27.31
317.855	58.03
318.068	60.07
318.282	96.94
318.495	49.83
318.709	41.64
318.922	10.92
319.136	31.4
319.349	31.4
319.563	45.74
319.776	27.31
319.99	47.79
320.203	31.4
320.417	101.03
320.63	78.51
320.843	49.83
321.057	21.16
321.27	64.17
321.483	51.88
321.697	43.69
321.91	-5.46
322.124	-13.65
322.337	29.35
322.55	29.35
322.763	58.03
322.977	55.98
323.19	-7.51
323.403	19.11
323.617	10.92
323.83	101.03
324.043	-50.52
324.256	37.55
324.469	27.31
324.683	31.4
324.896	21.16
325.109	35.5
325.322	105.13
325.535	45.74
325.748	43.69
325.962	19.11
326.175	29.35
326.388	-32.08
326.601	86.7
326.814	-7.51
327.027	21.16
327.24	17.07
327.453	-5.46
327.666	-13.65
327.879	53.93
328.092	10.92
328.305	21.16
328.518	64.17
328.731	-64.85
328.944	41.64
329.157	21.16
329.37	-23.89
329.583	0.68
329.796	-7.51
330.009	53.93
330.222	84.65
330.435	-5.46
330.648	-9.56
330.861	72.36
331.073	64.17
331.286	27.31
331.499	-15.7
331.712	-19.8
331.925	105.13
332.138	-9.56
332.35	51.88
332.563	60.07
332.776	2.73
332.989	55.98
333.202	41.64
333.414	25.26
333.627	78.51
333.84	-9.56
334.053	-34.13
334.265	19.11
334.478	47.79
334.691	27.31
334.903	-17.75
335.116	15.02
335.329	92.84
335.541	37.55
335.754	62.12
335.966	49.83
336.179	-5.46
336.392	37.55
336.604	49.83
336.817	96.94
337.029	25.26
337.242	2.73
337.454	12.97
337.667	39.59
337.88	33.45
338.092	29.35
338.305	62.12
338.517	8.87
338.729	33.45
338.942	86.7
339.154	33.45
339.367	0.68
339.579	47.79
339.792	101.03
340.004	-52.56
340.217	115.37
340.429	55.98
340.641	64.17
340.854	51.88
341.066	49.83
341.278	60.07
341.491	-23.89
341.703	62.12
341.915	84.65
342.128	55.98
342.34	-30.04
342.552	84.65
342.764	19.11
342.977	-23.89
343.189	15.02
343.401	82.6
343.613	45.74
343.826	88.75
344.038	82.6
344.25	15.02
344.462	31.4
344.674	43.69
344.886	-23.89
345.099	23.21
345.311	31.4
345.523	76.46
345.735	8.87
345.947	21.16
346.159	80.55
346.371	47.79
346.583	4.78
346.795	86.7
347.007	17.07
347.219	0.68
347.431	6.83
347.643	105.13
347.855	-60.76
348.067	29.35
348.279	-15.7
348.491	72.36
348.703	2.73
348.915	19.11
349.127	25.26
349.339	131.75
349.551	39.59
349.763	98.99
349.975	23.21
350.187	27.31
350.399	2.73
350.61	31.4
350.822	47.79
351.034	27.31
351.246	8.87
351.458	45.74
351.669	23.21
351.881	31.4
352.093	27.31
352.305	121.51
352.517	33.45
352.728	76.46
352.94	8.87
353.152	6.83
353.363	2.73
353.575	86.7
353.787	33.45
353.999	27.31
354.21	60.07
354.422	74.41
354.633	49.83
354.845	10.92
355.057	39.59
355.268	19.11
355.48	72.36
355.692	80.55
355.903	8.87
356.115	-3.41
356.326	6.83
356.538	135.85
356.749	27.31
356.961	-21.85
357.172	27.31
357.384	103.08
357.595	82.6
357.807	6.83
358.018	70.31
358.23	64.17
358.441	43.69
358.653	-23.89
358.864	49.83
359.075	39.59
359.287	-38.23
359.498	23.21
359.709	96.94
359.921	41.64
360.132	55.98
360.344	60.07
360.555	72.36
360.766	10.92
360.977	64.17
361.189	4.78
361.4	39.59
361.611	88.75
361.823	19.11
362.034	15.02
362.245	10.92
362.456	68.27
362.667	39.59
362.879	58.03
363.09	37.55
363.301	49.83
363.512	8.87
363.723	-27.99
363.935	90.79
364.146	64.17
364.357	-11.61
364.568	25.26
364.779	49.83
364.99	37.55
365.201	-7.51
365.412	-11.61
365.623	39.59
365.834	76.46
366.045	66.22
366.256	55.98
366.467	-1.37
366.678	39.59
366.889	64.17
367.1	27.31
367.311	-1.37
367.522	19.11
367.733	31.4
367.944	74.41
368.155	35.5
368.366	25.26
368.577	6.83
368.788	49.83
368.999	-19.8
369.209	43.69
369.42	111.27
369.631	72.36
369.842	31.4
370.053	39.59
370.264	60.07
370.474	39.59
370.685	37.55
370.896	66.22
371.107	80.55
371.317	64.17
371.528	51.88
371.739	33.45
371.95	105.13
372.16	-54.61
372.371	39.59
372.582	29.35
372.792	90.79
373.003	8.87
373.214	31.4
373.424	66.22
373.635	12.97
373.846	88.75
374.056	2.73
374.267	-1.37
374.477	35.5
374.688	43.69
374.898	41.64
375.109	-38.23
375.319	68.27
375.53	49.83
375.74	103.08
375.951	55.98
376.161	17.07
376.372	88.75
376.582	33.45
376.793	64.17
377.003	12.97
377.214	55.98
377.424	15.02
377.635	35.5
377.845	19.11
378.055	-13.65
378.266	45.74
378.476	31.4
378.686	0.68
378.897	74.41
379.107	33.45
379.317	35.5
379.528	-19.8
379.738	82.6
379.948	29.35
380.158	15.02
380.369	39.59
380.579	10.92
380.789	80.55
380.999	6.83
381.21	2.73
381.42	29.35
381.63	47.79
381.84	49.83
382.05	29.35
382.261	80.55
382.471	64.17
382.681	23.21
382.891	51.88
383.101	39.59
383.311	70.31
383.521	74.41
383.731	53.93
383.941	64.17
384.151	41.64
384.361	62.12
384.571	35.5
384.781	43.69
384.991	15.02
385.201	94.89
385.411	101.03
385.621	141.99
385.831	80.55
386.041	33.45
386.251	35.5
386.461	70.31
386.671	62.12
386.881	23.21
387.091	45.74
387.301	70.31
387.511	8.87
387.72	-15.7
387.93	6.83
388.14	35.5
388.35	33.45
388.56	66.22
388.769	105.13
388.979	111.27
389.189	10.92
389.399	-23.89
389.609	25.26
389.818	-56.66
390.028	-15.7
390.238	80.55
390.447	45.74
390.657	35.5
390.867	4.78
391.076	80.55
391.286	146.09
391.496	-25.94
391.705	19.11
391.915	72.36
392.125	105.13
392.334	25.26
392.544	53.93
392.753	15.02
392.963	49.83
393.172	105.13
393.382	12.97
393.591	80.55
393.801	109.22
394.01	10.92
394.22	74.41
394.429	90.79
394.639	33.45
394.848	-34.13
395.058	35.5
395.267	92.84
395.477	94.89
395.686	90.79
395.895	25.26
396.105	123.56
396.314	35.5
396.524	88.75
396.733	82.6
396.942	111.27
397.152	53.93
397.361	146.09
397.57	27.31
397.78	60.07
397.989	72.36
398.198	125.61
398.407	109.22
398.617	49.83
398.826	49.83
399.035	55.98
399.244	68.27
399.453	72.36
399.663	33.45
399.872	6.83
400.081	55.98
400.29	66.22
400.499	17.07
400.708	154.28
400.917	82.6
401.127	101.03
401.336	27.31
401.545	98.99
401.754	80.55
401.963	115.37
402.172	103.08
402.381	109.22
402.59	49.83
402.799	60.07
403.008	121.51
403.217	115.37
403.426	127.66
403.635	146.09
403.844	29.35
404.053	90.79
404.262	43.69
404.471	109.22
404.68	72.36
404.888	156.33
405.097	90.79
405.306	109.22
405.515	86.7
405.724	137.9
405.933	70.31
406.142	80.55
406.35	90.79
406.559	105.13
406.768	129.7
406.977	84.65
407.185	66.22
407.394	96.94
407.603	117.42
407.812	148.14
408.02	185
408.229	109.22
408.438	168.62
408.646	139.94
408.855	144.04
409.064	94.89
409.272	193.19
409.481	266.92
409.69	139.94
409.898	219.82
410.107	144.04
410.315	205.48
410.524	225.96
410.733	207.53
410.941	168.62
411.15	174.76
411.358	223.91
411.567	303.78
411.775	268.97
411.984	297.64
412.192	307.88
412.401	230.06
412.609	301.73
412.818	348.84
413.026	262.82
413.234	332.45
413.443	291.49
413.651	260.77
413.86	291.49
414.068	424.61
414.276	336.55
414.485	383.65
414.693	404.13
414.901	408.23
415.11	361.13
415.318	441
415.526	457.38
415.734	510.63
415.943	475.81
416.151	506.53
416.359	588.45
416.567	539.3
416.776	557.73
416.984	570.02
417.192	561.83
417.4	602.79
417.608	651.94
417.817	633.5
418.025	637.6
418.233	660.13
418.441	705.18
418.649	719.52
418.857	711.33
419.065	850.59
419.273	848.54
419.481	952.99
419.689	916.12
419.897	901.79
420.105	846.49
420.313	952.99
420.521	946.84
420.729	963.23
420.937	1055.39
421.145	1090.2
421.353	1122.97
421.561	1165.98
421.769	1198.74
421.977	1243.8
422.185	1215.13
422.393	1407.64
422.601	1389.21
422.809	1413.78
423.017	1362.58
423.224	1518.23
423.432	1567.38
423.64	1589.91
423.848	1671.83
424.056	1637.01
424.263	1802.9
424.471	1655.44
424.679	1755.79
424.887	1804.94
425.094	1960.59
425.302	2022.03
425.51	2075.27
425.718	2022.03
425.925	2140.81
426.133	2173.58
426.341	2398.85
426.548	2419.33
426.756	2423.43
426.964	2427.53
427.171	2607.75
427.379	2660.99
427.586	2665.09
427.794	2859.65
428.001	2976.38
428.209	2957.95
428.417	2970.24
428.624	3082.88
428.832	3072.64
429.039	3097.21
429.247	3209.85
429.454	3480.18
429.662	3678.83
429.869	3418.74
430.076	3635.83
430.284	3523.19
430.491	3637.88
430.699	4026.99
430.906	3846.77
431.114	3902.06
431.321	4201.07
431.528	4196.97
431.736	4399.72
431.943	4635.24
432.15	4629.09
432.358	4477.54
432.565	4893.28
432.772	4915.81
432.979	5106.27
433.187	5253.72
433.394	5157.47
433.601	5577.3
433.808	5610.07
434.016	5601.88
434.223	5816.91
434.43	6072.91
434.637	6060.62
434.844	6183.5
435.052	6619.72
435.259	6425.16
435.466	6634.05
435.673	6505.03
435.88	6928.96
436.087	7270.97
436.294	7287.36
436.501	7047.74
436.708	7223.87
436.915	7789.11
437.122	8067.63
437.329	7608.89
437.537	8077.87
437.743	8436.27
437.95	8127.02
438.157	8559.14
438.364	8768.04
438.571	8639.01
438.778	8731.17
438.985	9677.34
439.192	9339.42
439.399	9773.59
439.606	9521.69
439.813	10007.06
440.02	10492.43
440.227	10496.52
440.433	10359.31
440.64	10756.61
440.847	10582.54
441.054	10830.34
441.261	11389.44
441.467	11434.49
441.674	11557.37
441.881	12261.87
442.088	12050.93
442.294	12003.83
442.501	12169.71
442.708	12653.03
442.914	13052.39
443.121	13457.89
443.328	13449.69
443.534	14035.41
443.741	13588.96
443.948	13734.36
444.154	14481.87
444.361	14559.69
444.568	14901.7
444.774	14725.58
444.981	14883.27
445.187	15235.52
445.394	15933.88
445.6	15540.67
445.807	17224.1
446.013	16599.47
446.22	16789.93
446.426	17533.34
446.633	17637.79
446.839	18508.18
447.046	17623.45
447.252	18397.59
447.459	18794.89
447.665	18506.13
447.871	19483.01
448.078	20142.46
448.284	19427.71
448.491	19497.35
448.697	20646.26
448.903	20906.35
449.11	21100.9
449.316	20730.22
449.522	21061.99
449.728	21653.86
449.935	21713.25
450.141	21666.14
450.347	22251.86
450.553	21623.14
450.76	21850.46
450.966	22899.02
451.172	22380.89
451.378	22948.17
451.584	22696.27
451.791	23363.91
451.997	22876.49
452.203	23611.71
452.409	23359.81
452.615	23552.32
452.821	22565.2
453.027	22376.79
453.233	23421.25
453.44	22770
453.646	22841.68
453.852	22985.04
454.058	23275.85
454.264	22567.25
454.47	23224.65
454.676	22493.52
454.882	23343.43
455.088	21293.41
455.294	21539.17
455.5	22145.37
455.705	22448.47
455.911	21092.71
456.117	20883.82
456.323	20658.54
456.529	19468.67
456.735	20564.34
456.941	20007.29
457.147	19620.22
457.352	19011.98
457.558	18663.82
457.764	18983.31
457.97	18641.29
458.176	18006.42
458.381	18237.84
458.587	17123.75
458.793	17373.6
458.999	16245.17
459.204	17703.32
459.41	17013.16
459.616	15997.37
459.821	15854.01
460.027	15909.3
460.233	15610.3
460.438	14561.74
460.644	14903.75
460.85	14334.42
461.055	14072.28
461.261	14277.07
461.466	12863.97
461.672	12573.16
461.878	13390.3
462.083	12462.57
462.289	12249.58
462.494	12149.23
462.7	11469.31
462.905	11428.35
463.111	11700.73
463.316	11794.93
463.522	11426.3
463.727	11555.32
463.932	11540.99
464.138	11467.26
464.343	11452.92
464.549	11158.02
464.754	11547.13
464.959	11368.96
465.165	11338.24
465.37	10873.35
465.575	10557.96
465.781	10992.13
465.986	10985.99
466.191	10514.95
466.397	10465.8
466.602	10015.25
466.807	10459.66
467.012	10484.23
467.218	10160.66
467.423	10398.22
467.628	10232.33
467.833	10682.89
468.038	10435.08
468.244	10156.56
468.449	10457.61
468.654	10107.41
468.859	9775.64
469.064	10035.73
469.269	9415.19
469.474	9601.56
469.679	9757.21
469.885	9423.39
470.09	9753.11
470.295	9536.03
470.5	9237.02
470.705	9437.72
470.91	9275.93
471.115	9091.62
471.32	9099.81
471.525	9015.84
471.73	8901.15
471.935	8866.34
472.139	8743.46
472.344	8651.3
472.549	8747.56
472.754	8649.25
472.959	8391.21
473.164	8098.35
473.369	8002.1
473.574	8507.94
473.778	8225.33
473.983	8303.15
474.188	8055.34
474.393	7948.85
474.598	7873.07
474.802	7701.05
475.007	7858.74
475.212	7838.26
475.417	7479.86
475.621	7561.78
475.826	7506.49
476.031	7338.55
476.235	7365.18
476.44	7361.08
476.645	7246.4
476.849	7068.22
477.054	7225.92
477.259	7178.81
477.463	6894.15
477.668	6840.9
477.872	7139.9
478.077	6750.79
478.282	6502.98
478.486	6617.67
478.691	6484.55
478.895	6464.07
479.1	6373.96
479.304	6474.31
479.509	6214.22
479.713	6480.46
479.918	6357.58
480.122	6246.99
480.326	6154.83
480.531	6294.09
480.735	6130.25
480.94	6158.92
481.144	6357.58
481.348	6228.56
481.553	6054.48
481.757	6074.96
481.961	6126.16
482.166	6240.84
482.37	5990.99
482.574	5921.36
482.778	6085.2
482.983	6060.62
483.187	5933.65
483.391	6152.78
483.595	5939.79
483.8	5962.32
484.004	6052.43
484.208	6126.16
484.412	5933.65
484.616	6197.84
484.821	5964.37
485.025	5909.07
485.229	5925.46
485.433	6009.42
485.637	6083.15
485.841	5894.74
486.045	5921.36
486.249	6046.29
486.453	6132.3
486.657	6048.33
486.861	5857.87
487.065	5913.17
487.269	6054.48
487.473	5997.14
487.677	6103.63
487.881	6095.44
488.085	6017.61
488.289	6244.94
488.493	6027.85
488.697	6064.72
488.901	6117.97
489.105	6109.77
489.309	6060.62
489.512	6169.16
489.716	6117.97
489.92	6175.31
490.124	6152.78
490.328	6165.07
490.531	5980.75
490.735	6187.6
490.939	6300.23
491.143	6216.27
491.346	6345.29
491.55	6441.54
491.754	6242.89
491.958	6423.11
492.161	6289.99
492.365	6498.89
492.569	6404.68
492.772	6449.74
492.976	6468.17
493.18	6584.9
493.383	6658.63
493.587	6507.08
493.79	6617.67
493.994	6457.93
494.197	6662.72
494.401	6765.12
494.605	6810.18
494.808	6814.27
495.012	6828.61
495.215	7027.26
495.419	7012.93
495.622	6939.2
495.825	7105.09
496.029	7176.77
496.232	7164.48
496.436	7090.75
496.639	7541.3
496.843	7543.35
497.046	7486.01
497.249	7543.35
497.453	7459.38
497.656	7602.74
497.859	7518.78
498.063	7684.66
498.266	8053.3
498.469	8028.72
498.673	7971.38
498.876	8104.49
499.079	8292.91
499.282	8200.75
499.485	8464.94
499.689	8477.23
499.892	8608.3
500.095	8702.5
500.298	9191.97
500.501	8839.72
500.705	9046.56
500.908	9157.15
501.111	9212.45
501.314	9296.41
501.517	9435.67
501.72	9706.01
501.923	9454.11
502.126	9867.8
502.329	9896.47
502.532	9945.62
502.735	10033.68
502.938	10273.29
503.141	10275.34
503.344	10576.39
503.547	10459.66
503.75	10684.94
503.953	10928.64
504.156	10789.38
504.359	10824.2
504.562	11104.77
504.765	11399.68
504.968	11518.46
505.17	11598.33
505.373	11631.1
505.576	11823.61
505.779	11903.48
505.982	11993.59
506.185	12278.26
506.387	12337.65
506.59	12460.52
506.793	12575.21
506.996	12614.12
507.198	12962.28
507.401	12923.37
507.604	13191.65
507.807	13521.37
508.009	13421.02
508.212	13760.98
508.415	13996.5
508.617	14039.51
508.82	13980.12
509.022	14062.04
509.225	14488.01
509.428	14576.08
509.63	14758.35
509.833	14707.15
510.035	15071.68
510.238	15104.45
510.44	15163.84
510.643	15575.49
510.845	15755.71
511.048	15532.48
511.25	16060.85
511.453	16064.95
511.655	16685.48
511.858	16581.04
512.06	16720.3
512.262	16689.58
512.465	16892.33
512.667	17334.69
512.87	17181.09
513.072	17488.29
513.274	17791.39
513.477	17992.09
513.679	18141.59
513.881	18301.33
514.084	18416.02
514.286	18405.78
514.488	18563.47
514.69	19308.93
514.893	19110.28
515.095	19020.17
515.297	19421.57
515.499	19767.68
515.701	19931.51
515.904	20046.2
516.106	20187.51
516.308	20580.72
516.51	20750.7
516.712	20924.78
516.914	21125.48
517.116	21324.13
517.318	21197.16
517.52	21639.52
517.722	21768.54
517.925	22126.94
518.127	22227.29
518.329	22348.12
518.531	22417.75
518.733	22788.43
518.935	23019.85
519.136	22993.23
519.338	23417.16
519.54	23314.76
519.742	23652.67
519.944	23775.55
520.146	24459.57
520.348	24236.34
520.55	24461.62
520.752	24596.79
520.954	25172.27
521.155	24920.37
521.357	25332.01
521.559	25649.44
521.761	25710.88
521.963	25491.75
522.164	26077.47
522.366	26118.43
522.568	26329.37
522.77	26392.86
522.971	26779.92
523.173	26880.27
523.375	27091.21
523.576	27107.6
523.778	27017.49
523.98	27642.12
524.181	27529.48
524.383	27619.59
524.584	28219.64
524.786	28193.02
524.988	27754.76
525.189	28203.26
525.391	28741.88
525.592	28594.42
525.794	28786.93
525.995	28836.08
526.197	28459.26
526.398	28944.62
526.6	29231.34
526.801	29133.04
527.003	29329.64
527.204	29395.18
527.406	29968.61
527.607	29604.07
527.808	29790.44
528.01	29370.6
528.211	29831.4
528.412	30675.16
528.614	30501.08
528.815	30423.26
529.016	30513.37
529.218	30421.21
529.419	30503.13
529.62	30922.96
529.822	30734.55
530.023	30519.51
530.224	30845.14
530.425	30709.97
530.626	30435.55
530.828	30922.96
531.029	31441.1
531.23	31105.23
531.431	30806.23
531.632	31152.34
531.833	31228.11
532.035	30982.35
532.236	30879.96
532.437	31371.47
532.638	31172.81
532.839	31234.25
533.04	31400.14
533.241	30890.2
533.442	31566.02
533.643	31402.19
533.844	31606.98
534.045	31498.44
534.246	31377.61
534.447	31793.35
534.648	31498.44
534.849	31355.08
535.05	31195.34
535.251	31447.24
535.451	31627.46
535.652	31891.65
535.853	32041.15
536.054	31643.85
536.255	31643.85
536.456	31215.82
536.657	31348.94
536.857	31750.34
537.058	31414.48
537.259	31574.22
537.46	31668.42
537.66	31494.35
537.861	31588.55
538.062	31563.98
538.263	31883.46
538.463	31437
538.664	31172.81
538.865	31682.76
539.065	31619.27
539.266	31056.08
539.466	31695.05
539.667	31326.41
539.868	31717.57
540.068	31600.84
540.269	31586.5
540.469	31402.19
540.67	31467.72
540.87	31713.48
541.071	31350.99
541.271	31381.71
541.472	32100.54
541.672	31600.84
541.873	31168.72
542.073	31201.49
542.274	31774.92
542.474	31375.56
542.675	30890.2
542.875	31707.33
543.075	31533.26
543.276	31240.4
543.476	31531.21
543.676	31072.46
543.877	31221.97
544.077	31473.87
544.277	31494.35
544.478	31334.6
544.678	31514.83
544.878	31703.24
545.078	31252.69
545.279	31336.65
545.479	31289.55
545.679	31164.62
545.879	31029.46
546.079	31398.09
546.28	31209.68
546.48	31162.58
546.68	31357.13
546.88	31199.44
547.08	31090.9
547.28	31228.11
547.48	31312.08
547.68	31090.9
547.88	31305.93
548.081	31011.03
548.281	31350.99
548.481	30816.47
548.681	31377.61
548.881	31101.14
549.081	31070.42
549.28	31049.94
549.48	31275.21
549.68	31385.8
549.88	31488.2
550.08	31099.09
550.28	31232.21
550.48	31035.6
550.68	31459.53
550.88	31021.27
551.08	31283.41
551.279	31551.69
551.479	30961.87
551.679	30845.14
551.879	31150.29
552.079	31371.47
552.278	31365.32
552.478	30793.94
552.678	30941.39
552.878	31275.21
553.077	31107.28
553.277	30664.92
553.477	31195.34
553.676	30691.54
553.876	30660.82
554.076	30820.56
554.275	30783.7
554.475	30963.92
554.674	30705.88
554.874	31006.93
555.074	30576.86
555.273	30789.84
555.473	31017.17
555.672	30494.94
555.872	30947.54
556.071	30634.2
556.271	30699.73
556.47	30464.22
556.67	30331.1
556.869	30316.76
557.068	30877.91
557.268	30417.11
557.467	30564.57
557.667	30404.83
557.866	30224.61
558.065	30259.42
558.265	30163.17
558.464	29982.95
558.663	30509.27
558.863	29858.02
559.062	30730.45
559.261	30040.29
559.461	30347.48
559.66	29782.24
559.859	29989.09
560.058	29888.74
560.258	30312.67
560.457	29712.61
560.656	29974.75
560.855	29855.97
561.054	29849.83
561.253	29626.6
561.453	29808.87
561.652	29485.29
561.851	29780.2
562.05	29581.54
562.249	29329.64
562.448	29501.67
562.647	29464.81
562.846	29231.34
563.045	29581.54
563.244	28825.84
563.443	29561.06
563.642	29067.5
563.841	29206.76
564.04	29063.41
564.239	29475.05
564.438	29067.5
564.637	28803.32
564.836	28858.61
565.035	28623.09
565.234	29133.04
565.432	28879.09
565.631	28514.55
565.83	28649.72
566.029	28729.59
566.228	28631.29
566.427	28412.15
566.625	28297.47
566.824	27990.27
567.023	28588.28
567.222	27711.75
567.42	28309.75
567.619	28170.49
567.818	28309.75
568.016	27994.37
568.215	28172.54
568.414	28082.43
568.612	28049.66
568.811	27824.39
569.01	27758.85
569.208	27384.07
569.407	27998.46
569.605	27148.56
569.804	27560.2
570.002	27140.36
570.201	27572.49
570.4	27416.84
570.598	26964.24
570.797	27328.78
570.995	27121.93
571.193	26915.09
571.392	27277.58
571.59	26999.05
571.789	27121.93
571.987	26622.23
572.186	26728.72
572.384	26743.06
572.582	26751.25
572.781	26624.28
572.979	26134.81
573.177	26464.53
573.376	26464.53
573.574	26540.31
573.772	26272.03
573.971	26116.38
574.169	25848.1
574.367	26073.37
574.565	25936.16
574.763	25985.31
574.962	25989.41
575.16	25610.53
575.358	25995.55
575.556	25047.34
575.754	25745.7
575.952	25751.84
576.151	25727.27
576.349	25336.1
576.547	25368.87
576.745	25526.57
576.943	25237.8
577.141	25069.87
577.339	25334.06
577.537	25225.51
577.735	24854.83
577.933	24795.44
578.131	24975.66
578.329	24699.19
578.527	24604.98
578.725	24789.3
578.923	24992.05
579.121	24484.15
579.319	24385.85
579.516	24469.81
579.714	24647.99
579.912	24432.95
580.11	24092.99
580.308	24082.75
580.506	23927.1
580.704	23757.12
580.901	24127.8
581.099	23959.87
581.297	23810.37
581.495	23648.58
581.692	23814.46
581.89	23765.31
582.088	23914.81
582.285	23576.9
582.483	23560.52
582.681	23701.83
582.878	23228.74
583.076	23171.4
583.274	23607.62
583.471	22868.3
583.669	23155.02
583.866	22927.69
584.064	23466.31
584.262	22788.43
584.459	22993.23
584.657	23007.56
584.854	22950.22
585.052	22710.61
585.249	22810.96
585.447	22659.41
585.644	22522.19
585.841	22471
586.039	22835.53
586.236	22266.2
586.434	22403.41
586.631	22106.46
586.828	22153.56
587.026	22245.72
587.223	21993.82
587.42	22112.6
587.618	21838.17
587.815	21815.65
588.012	21616.99
588.21	21936.48
588.407	21637.47
588.604	21524.83
588.801	21477.73
588.999	21842.27
589.196	21698.91
589.393	21678.43
589.59	21225.83
589.787	21219.69
589.984	21074.28
590.182	20861.29
590.379	21209.45
590.576	20859.24
590.773	20998.51
590.97	20654.45
591.167	20910.44
591.364	20660.59
591.561	20740.46
591.758	20406.64
591.955	20402.55
592.152	20744.56
592.349	20371.83
592.546	20732.27
592.743	20402.55
592.94	19962.23
593.137	20308.34
593.334	20453.75
593.531	19878.27
593.727	20261.24
593.924	19837.31
594.121	19806.59
594.318	20134.26
594.515	19620.22
594.712	19798.4
594.908	19820.92
595.105	19843.45
595.302	19659.13
595.499	19657.09
595.696	19509.63
595.892	19233.16
596.089	19423.62
596.286	19337.6
596.482	19497.35
596.679	19472.77
596.876	19300.74
597.072	19071.37
597.269	19202.44
597.466	18901.39
597.662	19097.99
597.859	18932.11
598.055	19130.76
598.252	18909.58
598.448	18807.18
598.645	18936.2
598.841	18403.73
599.038	18438.55
599.234	18516.37
599.431	18327.95
599.627	18284.95
599.824	18459.03
600.02	18323.86
600.217	18268.56
600.413	18145.69
600.609	18258.32
600.806	18235.8
601.002	18129.3
601.198	17834.39
601.395	17961.37
601.591	17688.99
601.787	17934.74
601.984	17742.24
602.18	17910.17
602.376	17625.5
602.572	17521.06
602.769	17553.82
602.965	17533.34
603.161	17746.33
603.357	17738.14
603.553	17265.06
603.75	17152.42
603.946	17123.75
604.142	17592.73
604.338	16914.86
604.534	17007.02
604.73	16892.33
604.926	16925.1
605.122	17043.88
605.318	16753.07
605.514	16632.24
605.71	16906.66
605.906	16781.74
606.102	16609.71
606.298	16619.95
606.494	16734.64
606.69	16724.4
606.886	16431.54
607.082	16370.1
607.278	16488.88
607.474	16220.6
607.67	16339.38
607.866	16126.39
608.062	16392.62
608.257	16273.84
608.453	16329.14
608.649	16226.74
608.845	16196.02
609.041	16103.86
609.236	15989.17
609.432	15952.31
609.628	16148.92
609.824	15911.35
610.019	15765.95
610.215	16153.01
610.411	15782.33
610.606	15641.02
610.802	15778.23
610.998	15747.51
611.193	15845.82
611.389	15653.31
611.584	15430.08
611.78	15411.65
611.976	15415.74
612.171	15368.64
612.367	15215.04
612.562	15382.98
612.758	15137.22
612.953	15221.19
613.149	15391.17
613.344	15172.04
613.539	15657.4
613.735	15077.83
613.93	15176.13
614.126	15038.92
614.321	15188.42
614.517	15202.75
614.712	15102.4
614.907	14954.95
615.103	15176.13
615.298	14942.66
615.493	15120.84
615.688	14805.45
615.884	15176.13
616.079	14651.85
616.274	15221.19
616.47	14823.88
616.665	14696.91
616.86	14866.89
617.055	14893.51
617.25	14447.05
617.445	14668.23
617.641	14342.61
617.836	14580.17
618.031	14475.73
618.226	14492.11
618.421	14350.8
618.616	14526.92
618.811	13982.17
619.006	14238.16
619.201	14029.27
619.396	14244.31
619.591	13810.14
619.786	14254.55
619.981	13982.17
620.176	14016.98
620.371	13746.65
620.566	14086.61
620.761	13713.88
620.956	13830.62
621.151	13742.55
621.346	13726.17
621.541	13425.12
621.735	13517.28
621.93	13218.27
622.125	13175.27
622.32	13066.72
622.515	13081.06
622.709	13005.28
622.904	12962.28
623.099	13031.91
623.294	12978.66
623.488	12681.71
623.683	12710.38
623.878	12614.12
624.072	12827.11
624.267	12571.11
624.462	12569.07
624.656	12468.72
624.851	12427.76
625.046	12229.1
625.24	12216.82
625.435	12106.23
625.629	11999.73
625.824	11887.09
626.018	12005.88
626.213	11768.31
626.407	11907.57
626.602	11772.41
626.796	11758.07
626.991	11672.06
627.185	11420.16
627.38	11469.31
627.574	11293.18
627.768	11244.03
627.963	11346.43
628.157	11260.41
628.352	11223.55
628.546	11102.72
628.74	11364.86
628.935	11033.09
629.129	10957.32
629.323	10906.12
629.517	10820.1
629.712	10885.64
629.906	10678.79
630.1	10580.49
630.294	10627.59
630.489	10580.49
630.683	10678.79
630.877	10347.02
631.071	10381.84
631.265	10433.04
631.459	10453.52
631.653	10299.92
631.848	10154.51
632.042	10037.78
632.236	10193.42
632.43	10064.4
632.624	9853.46
632.818	9867.8
633.012	9955.86
633.206	9863.7
633.4	9927.19
633.594	9574.94
633.788	9775.64
633.982	9892.37
634.176	9619.99
634.369	9630.23
634.563	9445.91
634.757	9280.03
634.951	9609.75
635.145	9333.28
635.339	9251.36
635.533	9144.86
635.726	9087.52
635.92	9126.43
636.114	9046.56
636.308	9204.25
636.501	9132.58
636.695	9091.62
636.889	9038.37
637.083	9132.58
637.276	8798.76
637.47	8774.18
637.664	8991.27
637.857	8790.56
638.051	8757.8
638.244	8542.76
638.438	8616.49
638.632	8553
638.825	8313.39
639.019	8655.4
639.212	8466.99
639.406	8464.94
639.599	8264.24
639.793	8288.81
639.986	8004.14
640.18	8301.1
640.373	8317.48
640.567	8081.97
640.76	8024.62
640.954	8086.06
641.147	7725.62
641.34	7797.3
641.534	7832.12
641.727	7789.11
641.92	7868.98
642.114	7768.63
642.307	7696.95
642.5	7666.23
642.694	7361.08
642.887	7639.61
643.08	7440.95
643.273	7436.86
643.467	7340.6
643.66	7160.38
643.853	7258.68
644.046	7285.31
644.239	7363.13
644.432	7150.14
644.626	7078.46
644.819	7000.64
645.012	7148.09
645.205	6904.39
645.398	7144
645.591	6787.65
645.784	6904.39
645.977	6976.06
646.17	6873.67
646.363	6744.64
646.556	6636.1
646.749	6750.79
646.942	6683.2
647.135	6693.44
647.328	6593.09
647.521	6398.54
647.714	6484.55
647.907	6539.85
648.099	6363.72
648.292	6378.06
648.485	6273.61
648.678	6302.28
648.871	6322.76
649.064	6210.12
649.256	6210.12
649.449	6140.49
649.642	6197.84
649.835	6126.16
650.027	6101.58
650.22	6120.01
650.413	6103.63
650.605	6160.97
650.798	5982.8
650.991	5790.29
651.183	5755.47
651.376	5870.16
651.568	5839.44
651.761	5839.44
651.954	5861.97
652.146	5771.86
652.339	5810.77
652.531	5757.52
652.724	5560.92
652.916	5558.87
653.109	5653.08
653.301	5438.04
653.494	5546.58
653.686	5425.75
653.879	5554.77
654.071	5499.48
654.263	5405.27
654.456	5098.08
654.648	5288.54
654.84	5231.19
655.033	5339.74
655.225	5370.46
655.417	5405.27
655.61	5315.16
655.802	5120.6
655.994	5030.49
656.186	5149.28
656.379	5048.93
656.571	5069.41
656.763	4958.81
656.955	4899.42
657.148	5106.27
657.34	4778.59
657.532	4909.66
657.724	4766.31
657.916	4747.87
658.108	4741.73
658.3	4797.03
658.492	4850.27
658.684	4770.4
658.876	4668
659.068	4682.34
659.26	4592.23
659.452	4776.55
659.644	4618.85
659.836	4598.37
660.028	4723.3
660.22	4579.94
660.412	4495.97
660.604	4469.35
660.796	4524.65
660.988	4465.25
661.18	4315.75
661.372	4274.79
661.563	4416.1
661.755	4313.7
661.947	4299.37
662.139	4360.81
662.331	4149.87
662.522	4194.92
662.714	4127.34
662.906	4139.63
663.097	4098.67
663.289	4086.38
663.481	4119.15
663.673	4127.34
663.864	4080.24
664.056	3988.08
664.247	3957.36
664.439	3940.97
664.631	3889.78
664.822	3809.9
665.014	3988.08
665.205	3949.17
665.397	3904.11
665.588	3832.43
665.78	3697.27
665.971	3801.71
666.163	3947.12
666.354	3777.14
666.546	3785.33
666.737	3611.25
666.929	3709.55
667.12	3762.8
667.311	3662.45
667.503	3752.56
667.694	3592.82
667.885	3633.78
668.077	3641.97
668.268	3625.59
668.459	3637.88
668.651	3484.28
668.842	3549.81
669.033	3521.14
669.224	3576.44
669.416	3398.26
669.607	3508.85
669.798	3353.21
669.989	3410.55
670.18	3455.61
670.371	3396.21
670.563	3316.34
670.754	3381.88
670.945	3285.62
671.136	3299.96
671.327	3375.74
671.518	3302.01
671.709	3316.34
671.9	3406.45
672.091	3297.91
672.282	3336.82
672.473	3279.48
672.664	3281.53
672.855	3347.06
673.046	3207.8
673.237	3172.99
673.428	3179.13
673.619	3134.07
673.809	3218.04
674	3177.08
674.191	3197.56
674.382	3058.3
674.573	3050.11
674.764	2998.91
674.954	3060.35
675.145	3164.79
675.336	3021.44
675.527	2939.52
675.717	3177.08
675.908	3046.01
676.099	3086.97
676.289	3015.29
676.48	3123.83
676.671	3037.82
676.861	2843.26
677.052	2931.33
677.243	2990.72
677.433	3084.92
677.624	2951.81
677.814	3005.05
678.005	2890.37
678.195	2806.4
678.386	2837.12
678.576	2910.85
678.767	2849.41
678.957	2820.74
679.148	2886.27
679.338	2859.65
679.529	2792.06
679.719	2796.16
679.909	2720.39
680.1	2794.11
680.29	2853.5
680.481	2873.98
680.671	2800.26
680.861	2726.53
681.052	2734.72
681.242	2720.39
681.432	2747.01
681.622	2804.35
681.813	2730.62
682.003	2718.34
682.193	2767.49
682.383	2720.39
682.573	2673.28
682.764	2704
682.954	2810.5
683.144	2792.06
683.334	2687.62
683.524	2724.48
683.714	2749.06
683.904	2704
684.094	2654.85
684.284	2790.02
684.474	2892.41
684.664	2808.45
684.854	2605.7
685.044	2697.86
685.234	2570.88
685.424	2544.26
685.614	2605.7
685.804	2605.7
685.994	2593.41
686.184	2609.79
686.374	2630.27
686.564	2660.99
686.753	2658.95
686.943	2542.21
687.133	2642.56
687.323	2611.84
687.513	2562.69
687.702	2626.18
687.892	2497.16
688.082	2751.1
688.272	2470.53
688.461	2548.36
688.651	2501.25
688.841	2462.34
689.03	2458.25
689.22	2523.78
689.41	2552.45
689.599	2577.03
689.789	2441.86
689.979	2464.39
690.168	2531.97
690.358	2536.07
690.547	2503.3
690.737	2478.72
690.926	2478.72
691.116	2484.87
691.305	2542.21
691.495	2456.2
691.684	2499.2
691.874	2513.54
692.063	2454.15
692.252	2411.14
692.442	2468.48
692.631	2384.52
692.82	2390.66
693.01	2343.56
693.199	2386.57
693.388	2353.8
693.578	2452.1
693.767	2488.96
693.956	2364.04
694.146	2400.9
694.335	2409.09
694.524	2351.75
694.713	2388.61
694.902	2312.84
695.092	2327.18
695.281	2259.59
695.47	2329.22
695.659	2247.3
695.848	2409.09
696.037	2325.13
696.226	2308.74
696.415	2327.18
696.604	2392.71
696.793	2343.56
696.982	2218.63
697.171	2249.35
697.36	2208.39
697.549	2243.21
697.738	2214.54
697.927	2206.35
698.116	2335.37
698.305	2312.84
698.494	2189.96
698.683	2251.4
698.872	2187.91
699.061	2325.13
699.25	2308.74
699.438	2165.39
699.627	2224.78
699.816	2177.67
700.005	2161.29
700.193	2284.17
700.382	2278.02
700.571	2218.63
700.76	2187.91
700.948	2204.3
701.137	2261.64
701.326	2198.15
701.514	2083.47
701.703	2230.92
701.892	2192.01
702.08	2218.63
702.269	2118.28
702.457	2136.71
702.646	2095.75
702.834	2155.15
703.023	2140.81
703.212	2126.47
703.4	2065.04
703.589	2136.71
703.777	1995.4
703.965	2091.66
704.154	2155.15
704.342	2155.15
704.531	2022.03
704.719	2093.71
704.907	1972.88
705.096	2042.51
705.284	2081.42
705.472	2042.51
705.661	2163.34
705.849	2022.03
706.037	1985.16
706.226	2075.27
706.414	2007.69
706.602	2024.08
706.79	2097.8
706.979	2065.04
707.167	2097.8
707.355	1923.73
707.543	2032.27
707.731	2013.84
707.919	2103.95
708.107	2052.75
708.296	2013.84
708.484	1976.97
708.672	2077.32
708.86	1999.5
709.048	2007.69
709.236	2091.66
709.424	1954.44
709.612	1983.12
709.8	1929.87
709.988	2001.55
710.176	1989.26
710.364	1944.2
710.551	1938.06
710.739	1946.25
710.927	1960.59
711.115	1870.48
711.303	1813.13
711.491	1915.53
711.679	1964.68
711.866	1966.73
712.054	1989.26
712.242	1944.2
712.43	1911.44
712.617	1890.96
712.805	1815.18
712.993	1843.85
713.181	1893.01
713.368	1948.3
713.556	1905.29
713.744	1890.96
713.931	1794.7
714.119	1809.04
714.306	1802.9
714.494	1817.23
714.682	1903.25
714.869	1790.61
715.057	1833.61
715.244	1749.65
715.432	1811.09
715.619	1788.56
715.807	1890.96
715.994	1852.05
716.182	1809.04
716.369	1829.52
716.556	1714.83
716.744	1761.94
716.931	1755.79
717.119	1850
717.306	1856.14
717.493	1731.22
717.681	1743.5
717.868	1747.6
718.055	1720.98
718.242	1868.43
718.43	1737.36
718.617	1725.07
718.804	1763.98
718.991	1663.63
719.179	1761.94
719.366	1606.29
719.553	1749.65
719.74	1729.17
719.927	1759.89
720.114	1745.55
720.301	1727.12
720.488	1630.87
720.676	1784.46
720.863	1778.32
721.05	1759.89
721.237	1725.07
721.424	1725.07
721.611	1663.63
721.798	1534.61
721.985	1649.3
722.172	1647.25
722.358	1680.02
722.545	1641.11
722.732	1714.83
722.919	1688.21
723.106	1618.58
723.293	1673.87
723.48	1673.87
723.667	1546.9
723.853	1727.12
724.04	1733.26
724.227	1673.87
724.414	1559.19
724.6	1665.68
724.787	1596.05
724.974	1622.67
725.161	1637.01
725.347	1653.39
725.534	1596.05
725.72	1688.21
725.907	1596.05
726.094	1589.91
726.28	1596.05
726.467	1573.52
726.653	1587.86
726.84	1610.39
727.027	1637.01
727.213	1690.26
727.4	1563.28
727.586	1493.65
727.773	1540.76
727.959	1598.1
728.145	1483.41
728.332	1559.19
728.518	1555.09
728.705	1571.47
728.891	1596.05
729.077	1495.7
729.264	1604.24
729.45	1594
729.636	1579.67
729.823	1524.37
730.009	1536.66
730.195	1516.18
730.382	1557.14
730.568	1501.84
730.754	1530.52
730.94	1514.13
731.126	1643.15
731.313	1501.84
731.499	1514.13
731.685	1477.27
731.871	1526.42
732.057	1415.83
732.243	1491.6
732.429	1458.84
732.615	1507.99
732.801	1481.36
732.987	1497.75
733.173	1526.42
733.359	1565.33
733.545	1473.17
733.731	1514.13
733.917	1512.08
734.103	1462.93
734.289	1493.65
734.475	1460.88
734.661	1495.7
734.847	1542.8
735.033	1507.99
735.219	1432.21
735.404	1450.64
735.59	1442.45
735.776	1507.99
735.962	1440.4
736.148	1497.75
736.333	1524.37
736.519	1448.6
736.705	1452.69
736.89	1448.6
737.076	1448.6
737.262	1397.4
737.447	1426.07
737.633	1438.36
737.819	1440.4
738.004	1464.98
738.19	1366.68
738.375	1499.8
738.561	1430.16
738.747	1407.64
738.932	1327.77
739.118	1366.68
739.303	1299.09
739.489	1387.16
739.674	1368.73
739.859	1426.07
740.045	1315.48
740.23	1428.12
740.416	1356.44
740.601	1387.16
740.786	1481.36
740.972	1327.77
741.157	1303.19
741.342	1274.52
741.528	1286.81
741.713	1317.53
741.898	1352.34
742.084	1387.16
742.269	1368.73
742.454	1323.67
742.639	1333.91
742.824	1381.01
743.01	1329.81
743.195	1346.2
743.38	1378.97
743.565	1401.49
743.75	1270.42
743.935	1237.66
744.12	1383.06
744.305	1280.66
744.49	1161.88
744.675	1325.72
744.86	1378.97
745.045	1208.98
745.23	1374.87
745.415	1198.74
745.6	1297.05
745.785	1219.22
745.97	1354.39
746.155	1274.52
746.34	1192.6
746.525	1202.84
746.71	1219.22
746.895	1145.5
747.079	1233.56
747.264	1245.85
747.449	1157.79
747.634	1231.51
747.819	1176.22
748.003	1217.18
748.188	1129.11
748.373	1211.03
748.557	1163.93
748.742	1186.46
748.927	1034.91
749.111	1200.79
749.296	1180.31
749.481	1108.63
749.665	1061.53
749.85	1084.06
750.034	1020.57
750.219	1149.59
750.404	1061.53
750.588	1090.2
750.773	1028.76
750.957	961.18
751.141	1045.15
751.326	1149.59
751.51	1024.67
751.695	1063.58
751.879	1047.19
752.064	1051.29
752.248	1016.48
752.432	1063.58
752.617	1079.96
752.801	1071.77
752.985	1026.71
753.17	1032.86
753.354	950.94
753.538	930.46
753.722	942.75
753.907	840.35
754.091	991.9
754.275	926.36
754.459	901.79
754.643	875.17
754.828	957.08
755.012	858.78
755.196	983.71
755.38	977.56
755.564	877.21
755.748	936.6
755.932	916.12
756.116	893.6
756.3	840.35
756.484	866.97
756.668	940.7
756.852	836.25
757.036	830.11
757.22	836.25
757.404	840.35
757.588	795.29
757.772	803.49
757.956	780.96
758.14	692.9
758.323	783.01
758.507	787.1
758.691	772.77
758.875	803.49
759.059	768.67
759.242	811.68
759.426	860.83
759.61	815.77
759.794	803.49
759.977	735.9
760.161	746.14
760.345	719.52
760.528	770.72
760.712	744.1
760.895	770.72
761.079	801.44
761.263	787.1
761.446	729.76
761.63	756.38
761.813	764.58
761.997	764.58
762.18	715.42
762.364	748.19
762.547	711.33
762.731	750.24
762.914	766.62
763.098	780.96
763.281	740
763.464	756.38
763.648	674.46
763.831	762.53
764.015	686.75
764.198	703.14
764.381	723.62
764.564	682.66
764.748	678.56
764.931	678.56
765.114	686.75
765.297	684.7
765.481	645.79
765.664	699.04
765.847	678.56
766.03	658.08
766.213	662.18
766.397	621.22
766.58	588.45
766.763	719.52
766.946	613.03
767.129	619.17
767.312	582.31
767.495	647.84
767.678	631.46
767.861	684.7
768.044	656.03
768.227	596.64
768.41	631.46
768.593	662.18
768.776	543.39
768.959	674.46
769.142	533.15
769.324	645.79
769.507	555.68
769.69	645.79
769.873	649.89
770.056	606.88
770.239	629.41
770.421	631.46
770.604	567.97
770.787	531.11
770.97	596.64
771.152	551.59
771.335	572.07
771.518	600.74
771.7	574.11
771.883	596.64
772.066	567.97
772.248	557.73
772.431	582.31
772.613	492.2
772.796	633.5
772.978	565.92
773.161	590.5
773.343	533.15
773.526	510.63
773.708	621.22
773.891	461.48
774.073	549.54
774.256	496.29
774.438	582.31
774.621	557.73
774.803	488.1
774.985	516.77
775.168	486.05
775.35	533.15
775.532	436.9
775.715	443.04
775.897	524.96
776.079	467.62
776.261	551.59
776.444	457.38
776.626	441
776.808	461.48
776.99	467.62
777.173	465.57
777.355	510.63
777.537	500.39
777.719	469.67
777.901	486.05
778.083	344.74
778.265	469.67
778.447	481.96
778.629	395.94
778.811	510.63
778.993	414.37
779.175	418.47
779.357	424.61
779.539	436.9
779.721	367.27
779.903	436.9
780.085	481.96
780.267	449.19
780.449	328.36
780.631	527.01
780.812	402.08
780.994	426.66
781.176	395.94
781.358	453.28
781.54	412.32
781.721	467.62
781.903	416.42
782.085	361.13
782.267	414.37
782.448	393.89
782.63	402.08
782.812	381.6
782.993	367.27
783.175	375.46
783.357	395.94
783.538	283.3
783.72	342.69
783.901	334.5
784.083	432.8
784.264	352.93
784.446	293.54
784.627	354.98
784.809	285.35
784.99	285.35
785.172	234.15
785.353	258.73
785.535	281.25
785.716	369.32
785.897	268.97
786.079	318.12
786.26	254.63
786.441	305.83
786.623	373.41
786.804	215.72
786.985	271.01
787.167	328.36
787.348	336.55
787.529	221.86
787.71	293.54
787.891	367.27
788.073	201.38
788.254	309.93
788.435	336.55
788.616	318.12
788.797	219.82
788.978	256.68
789.159	244.39
789.34	330.41
789.522	209.58
789.703	367.27
789.884	271.01
790.065	207.53
790.246	338.6
790.427	277.16
790.607	228.01
790.788	242.34
790.969	234.15
791.15	236.2
791.331	291.49
791.512	283.3
791.693	262.82
791.874	228.01
792.054	295.59
792.235	240.29
792.416	201.38
792.597	211.62
792.778	230.06
792.958	260.77
793.139	242.34
793.32	295.59
793.5	150.18
793.681	289.45
793.862	205.48
794.042	287.4
794.223	164.52
794.404	238.25
794.584	236.2
794.765	195.24
794.945	133.8
795.126	205.48
795.306	242.34
795.487	207.53
795.667	273.06
795.848	217.77
796.028	221.86
796.209	180.9
796.389	248.49
796.57	201.38
796.75	209.58
796.93	211.62
797.111	187.05
797.291	160.42
797.471	201.38
797.652	137.9
797.832	117.42
798.012	213.67
798.192	191.14
798.373	238.25
798.553	115.37
798.733	156.33
798.913	96.94
799.093	211.62
799.274	160.42
799.454	168.62
799.634	191.14
799.814	207.53
799.994	170.66
800.174	199.34
800.354	154.28
800.534	193.19
800.714	201.38
800.894	150.18
801.074	215.72
801.254	178.86
801.434	254.63
801.614	256.68
801.794	80.55
801.974	400.04
802.154	176.81
802.334	213.67
802.514	166.57
802.693	160.42
802.873	137.9
803.053	172.71
803.233	152.23
803.413	219.82
803.592	115.37
803.772	123.56
803.952	166.57
804.131	150.18
804.311	158.38
804.491	232.1
804.67	174.76
804.85	146.09
805.03	156.33
805.209	148.14
805.389	90.79
805.568	178.86
805.748	131.75
805.928	150.18
806.107	180.9
806.287	240.29
806.466	101.03
806.646	158.38
806.825	107.18
807.004	101.03
807.184	119.46
807.363	115.37
807.543	105.13
807.722	137.9
807.901	107.18
808.081	119.46
808.26	117.42
808.439	154.28
808.619	127.66
808.798	141.99
808.977	154.28
809.156	94.89
809.336	180.9
809.515	144.04
809.694	131.75
809.873	86.7
810.052	123.56
810.231	164.52
810.411	119.46
810.59	187.05
810.769	236.2
810.948	123.56
811.127	154.28
811.306	111.27
811.485	109.22
811.664	160.42
811.843	182.95
812.022	152.23
812.201	64.17
812.38	172.71
812.559	129.7
812.737	125.61
812.916	74.41
813.095	115.37
813.274	64.17
813.453	88.75
813.632	121.51
813.811	119.46
813.989	49.83
814.168	137.9
814.347	53.93
814.526	88.75
814.704	197.29
814.883	74.41
815.062	53.93
815.24	129.7
815.419	23.21
815.598	154.28
815.776	74.41
815.955	94.89
816.133	78.51
816.312	-7.51
816.49	55.98
816.669	115.37
816.847	119.46
817.026	139.94
817.204	129.7
817.383	103.08
817.561	80.55
817.74	53.93
817.918	125.61
818.097	47.79
818.275	103.08
818.453	82.6
818.632	137.9
818.81	115.37
818.988	78.51
819.167	121.51
819.345	60.07
819.523	72.36
819.701	51.88
819.879	92.84
820.058	55.98
820.236	105.13
820.414	70.31
820.592	105.13
820.77	60.07
820.948	41.64
821.127	64.17
821.305	80.55
821.483	156.33
821.661	148.14
821.839	35.5
822.017	94.89
822.195	76.46
822.373	107.18
822.551	-5.46
822.729	84.65
822.907	39.59
823.085	84.65
823.262	88.75
823.44	80.55
823.618	88.75
823.796	39.59
823.974	23.21
824.152	158.38
824.329	86.7
824.507	109.22
824.685	-23.89
824.863	72.36
825.04	131.75
825.218	25.26
825.396	51.88
825.574	49.83
825.751	115.37
825.929	80.55
826.107	45.74
826.284	45.74
826.462	-13.65
826.639	119.46
826.817	103.08
826.994	66.22
827.172	-30.04
827.349	49.83
827.527	88.75
827.704	84.65
827.882	129.7
828.059	66.22
828.237	-7.51
828.414	60.07
828.591	33.45
828.769	129.7
828.946	103.08
829.124	0.68
829.301	86.7
829.478	37.55
829.655	133.8
829.833	105.13
830.01	107.18
830.187	113.32
830.364	103.08
830.542	45.74
830.719	66.22
830.896	84.65
831.073	90.79
831.25	43.69
831.427	31.4
831.604	82.6
831.782	-5.46
831.959	-1.37
832.136	35.5
832.313	62.12
832.49	92.84
832.667	60.07
832.844	123.56
833.021	70.31
833.198	76.46
833.374	17.07
833.551	43.69
833.728	74.41
833.905	45.74
834.082	25.26
834.259	115.37
834.436	6.83
834.612	2.73
834.789	47.79
834.966	55.98
835.143	62.12
835.319	25.26
835.496	109.22
835.673	82.6
835.85	55.98
836.026	82.6
836.203	15.02
836.38	74.41
836.556	113.32
836.733	23.21
836.909	29.35
837.086	60.07
837.262	43.69
837.439	-42.32
837.616	51.88
837.792	68.27
837.968	31.4
838.145	72.36
838.321	78.51
838.498	58.03
838.674	2.73
838.851	45.74
839.027	98.99
839.203	68.27
839.38	39.59
839.556	23.21
839.732	47.79
839.909	-7.51
840.085	90.79
840.261	90.79
840.437	-9.56
840.614	33.45
840.79	119.46
840.966	2.73
841.142	55.98
841.318	19.11
841.494	45.74
841.671	98.99
841.847	62.12
842.023	39.59
842.199	51.88
842.375	17.07
842.551	19.11
842.727	55.98
842.903	60.07
843.079	66.22
843.255	10.92
843.431	31.4
843.607	58.03
843.783	29.35
843.959	101.03
844.134	19.11
844.31	64.17
844.486	31.4
844.662	45.74
844.838	-13.65
845.013	25.26
845.189	84.65
845.365	8.87
845.541	41.64
845.716	92.84
845.892	37.55
846.068	78.51
846.244	21.16
846.419	62.12
846.595	35.5
846.77	115.37
846.946	29.35
847.122	33.45
847.297	55.98
847.473	103.08
847.648	68.27
847.824	70.31
847.999	84.65
848.175	21.16
848.35	35.5
848.526	35.5
848.701	45.74
848.876	23.21
849.052	45.74
849.227	2.73
849.403	33.45
849.578	78.51
849.753	-11.61
849.929	37.55
850.104	76.46
850.279	-23.89
850.454	25.26
850.63	17.07
850.805	47.79
850.98	10.92
851.155	66.22
851.33	43.69
851.505	15.02
851.681	43.69
851.856	51.88
852.031	-7.51
852.206	17.07
852.381	10.92
852.556	23.21
852.731	41.64
852.906	-23.89
853.081	62.12
853.256	17.07
853.431	64.17
853.606	101.03
853.781	0.68
853.956	31.4
854.131	74.41
854.305	-17.75
854.48	33.45
854.655	37.55
854.83	60.07
855.005	-54.61
855.18	15.02
855.354	49.83
855.529	47.79
855.704	23.21
855.879	-7.51
856.053	25.26
856.228	8.87
856.403	17.07
856.577	70.31
856.752	82.6
856.926	25.26
857.101	8.87
857.276	37.55
857.45	2.73
857.625	25.26
857.799	47.79
857.974	43.69
858.148	25.26
858.323	74.41
858.497	39.59
858.672	31.4
858.846	19.11
859.02	55.98
859.195	-21.85
859.369	-5.46
859.543	121.51
859.718	6.83
859.892	-30.04
860.066	43.69
860.241	41.64
860.415	-32.08
860.589	86.7
860.763	160.42
860.938	-17.75
861.112	29.35
861.286	2.73
861.46	21.16
861.634	-9.56
861.808	33.45
861.982	-60.76
862.157	4.78
862.331	41.64
862.505	-71
862.679	-1.37
862.853	2.73
863.027	101.03
863.201	66.22
863.375	-27.99
863.549	19.11
863.722	60.07
863.896	8.87
864.07	-25.94
864.244	-15.7
864.418	4.78
864.592	21.16
864.766	17.07
864.939	60.07
865.113	27.31
865.287	90.79
865.461	-13.65
865.634	49.83
865.808	6.83
865.982	55.98
866.156	-25.94
866.329	55.98
866.503	25.26
866.676	43.69
866.85	8.87
867.024	29.35
867.197	29.35
867.371	74.41
867.544	43.69
867.718	-85.33
867.891	0.68
868.065	-42.32
868.238	4.78
868.412	49.83
868.585	-23.89
868.759	37.55
868.932	68.27
869.105	31.4
869.279	66.22
869.452	10.92
869.625	39.59
869.799	33.45
869.972	6.83
870.145	0.68
870.319	19.11
870.492	15.02
870.665	39.59
870.838	6.83
871.011	10.92
871.185	-40.28
871.358	-23.89
871.531	-21.85
871.704	-54.61
871.877	64.17
872.05	27.31
872.223	-1.37
872.396	-21.85
872.569	39.59
872.742	23.21
872.915	41.64
873.088	-34.13
873.261	8.87
873.434	78.51
873.607	12.97
873.78	27.31
873.953	6.83
874.126	-9.56
874.299	23.21
874.471	51.88
874.644	-15.7
874.817	51.88
874.99	66.22
875.163	-32.08
875.335	-1.37
875.508	60.07
875.681	51.88
875.853	64.17
876.026	53.93
876.199	27.31
876.371	37.55
876.544	27.31
876.717	23.21
876.889	21.16
877.062	76.46
877.234	70.31
877.407	0.68
877.579	2.73
877.752	74.41
877.924	-13.65
878.097	12.97
878.269	2.73
878.442	43.69
878.614	25.26
878.786	2.73
878.959	33.45
879.131	45.74
879.303	-81.24
879.476	31.4
879.648	76.46
879.82	15.02
879.993	19.11
880.165	31.4
880.337	-17.75
880.509	58.03
880.681	-21.85
880.854	6.83
881.026	-23.89
881.198	23.21
881.37	27.31
881.542	-15.7
881.714	-9.56
881.886	12.97
882.058	-54.61
882.23	35.5
882.402	35.5
882.574	-17.75
882.746	-50.52
882.918	8.87
883.09	47.79
883.262	21.16
883.434	74.41
883.606	37.55
883.778	-1.37
883.95	19.11
884.122	4.78
884.293	43.69
884.465	37.55
884.637	-9.56
884.809	-38.23
884.98	-1.37
885.152	-13.65
885.324	58.03
885.496	-9.56
885.667	-11.61
885.839	-9.56
886.011	74.41
886.182	27.31
886.354	-23.89
886.525	21.16
886.697	25.26
886.869	27.31
887.04	33.45
887.212	43.69
887.383	6.83
887.555	17.07
887.726	62.12
887.897	-48.47
888.069	-19.8
888.24	47.79
888.412	60.07
888.583	49.83
888.754	4.78
888.926	0.68
889.097	39.59
889.268	-13.65
889.44	17.07
889.611	25.26
889.782	-17.75
889.953	10.92
890.125	25.26
890.296	-83.28
890.467	19.11
890.638	49.83
890.809	-11.61
890.98	12.97
891.151	86.7
891.323	-7.51
891.494	-9.56
891.665	90.79
891.836	64.17
892.007	4.78
892.178	51.88
892.349	-46.42
892.52	41.64
892.691	45.74
892.862	15.02
893.032	17.07
893.203	10.92
893.374	-11.61
893.545	2.73
893.716	-97.62
893.887	-9.56
894.057	49.83
894.228	33.45
894.399	33.45
894.57	88.75
894.74	86.7
894.911	4.78
895.082	53.93
895.253	-25.94
895.423	15.02
895.594	35.5
895.764	31.4
895.935	-54.61
896.106	47.79
896.276	-7.51
896.447	0.68
896.617	47.79
896.788	35.5
896.958	10.92
897.129	35.5
897.299	29.35
897.47	33.45
897.64	-17.75
897.81	-19.8
897.981	-27.99
898.151	-7.51
898.322	8.87
898.492	17.07
898.662	64.17
898.832	-5.46
899.003	-32.08
899.173	55.98
899.343	29.35
899.513	10.92
