Data from USB4F104151__63__12-59-27-703.txt Node

Date: Fri Mar 14 12:59:27 EDT 2025
User: louis
Spectrometer: USB4F10415
Trigger mode: 4
Integration Time (sec): 1.000000E-2
Scans to average: 1
Electric dark correction enabled: true
Nonlinearity correction enabled: false
Boxcar width: 0
XAxis mode: Wavelengths
Number of Pixels in Spectrum: 3648
>>>>>Begin Spectral Data<<<<<
178.204	-35.84
178.424	-35.84
178.644	-35.84
178.864	-56.32
179.084	-1.02
179.304	-11.26
179.524	-11.26
179.744	-62.46
179.964	29.7
180.184	46.08
180.404	9.22
180.624	-1.02
180.844	-5.12
181.064	37.89
181.283	-25.6
181.503	-50.18
181.723	44.03
181.943	-23.55
182.163	84.99
182.383	37.89
182.602	11.26
182.822	15.36
183.042	46.08
183.262	11.26
183.482	54.27
183.701	-19.46
183.921	-33.79
184.141	-31.74
184.361	-44.03
184.58	37.89
184.8	-5.12
185.02	-23.55
185.239	-11.26
185.459	5.12
185.679	11.26
185.898	17.41
186.118	29.7
186.338	-48.13
186.557	-3.07
186.777	3.07
186.997	-41.98
187.216	9.22
187.436	33.79
187.655	-3.07
187.875	17.41
188.095	1.02
188.314	1.02
188.534	117.76
188.753	29.7
188.973	-41.98
189.192	58.37
189.412	58.37
189.631	13.31
189.851	58.37
190.07	44.03
190.29	1.02
190.509	17.41
190.729	3.07
190.948	-13.31
191.168	13.31
191.387	-37.89
191.607	50.18
191.826	35.84
192.045	-11.26
192.265	54.27
192.484	48.13
192.704	-9.22
192.923	50.18
193.142	31.74
193.362	60.42
193.581	119.81
193.8	-3.07
194.02	39.94
194.239	25.6
194.458	35.84
194.678	23.55
194.897	-5.12
195.116	-23.55
195.335	105.47
195.555	5.12
195.774	5.12
195.993	-1.02
196.212	-1.02
196.432	33.79
196.651	21.5
196.87	-27.65
197.089	93.18
197.308	82.94
197.528	-19.46
197.747	1.02
197.966	7.17
198.185	50.18
198.404	46.08
198.623	37.89
198.842	27.65
199.062	-31.74
199.281	33.79
199.5	44.03
199.719	-5.12
199.938	37.89
200.157	52.22
200.376	44.03
200.595	23.55
200.814	-3.07
201.033	-19.46
201.252	56.32
201.471	-68.61
201.69	21.5
201.909	78.85
202.128	35.84
202.347	15.36
202.566	15.36
202.785	-56.32
203.004	27.65
203.223	68.61
203.442	-1.02
203.661	15.36
203.879	-7.17
204.098	-11.26
204.317	15.36
204.536	37.89
204.755	23.55
204.974	109.57
205.193	17.41
205.411	80.89
205.63	-19.46
205.849	58.37
206.068	23.55
206.287	3.07
206.505	31.74
206.724	7.17
206.943	54.27
207.162	-9.22
207.381	37.89
207.599	15.36
207.818	-27.65
208.037	50.18
208.255	70.65
208.474	-76.8
208.693	-11.26
208.911	13.31
209.13	-7.17
209.349	1.02
209.567	27.65
209.786	76.8
210.005	-3.07
210.223	107.52
210.442	-23.55
210.661	66.56
210.879	-17.41
211.098	-50.18
211.316	97.28
211.535	23.55
211.753	-5.12
211.972	-62.46
212.191	64.51
212.409	80.89
212.628	70.65
212.846	91.13
213.065	58.37
213.283	9.22
213.502	15.36
213.72	58.37
213.938	-23.55
214.157	3.07
214.375	31.74
214.594	89.09
214.812	56.32
215.031	11.26
215.249	64.51
215.467	31.74
215.686	-84.99
215.904	78.85
216.122	39.94
216.341	54.27
216.559	15.36
216.778	29.7
216.996	91.13
217.214	5.12
217.432	17.41
217.651	15.36
217.869	-125.95
218.087	-3.07
218.306	21.5
218.524	-25.6
218.742	-11.26
218.96	9.22
219.179	39.94
219.397	-3.07
219.615	87.04
219.833	105.47
220.051	23.55
220.27	52.22
220.488	17.41
220.706	76.8
220.924	29.7
221.142	-19.46
221.36	33.79
221.578	23.55
221.796	91.13
222.015	76.8
222.233	101.37
222.451	41.98
222.669	41.98
222.887	13.31
223.105	-70.65
223.323	99.33
223.541	39.94
223.759	19.46
223.977	76.8
224.195	89.09
224.413	35.84
224.631	66.56
224.849	48.13
225.067	9.22
225.285	-33.79
225.503	93.18
225.721	-1.02
225.939	-11.26
226.157	62.46
226.375	66.56
226.592	5.12
226.81	91.13
227.028	37.89
227.246	54.27
227.464	58.37
227.682	29.7
227.9	-19.46
228.117	115.71
228.335	25.6
228.553	-19.46
228.771	13.31
228.989	58.37
229.206	48.13
229.424	9.22
229.642	35.84
229.86	-19.46
230.077	-11.26
230.295	-7.17
230.513	31.74
230.731	15.36
230.948	91.13
231.166	37.89
231.384	-19.46
231.601	9.22
231.819	99.33
232.037	1.02
232.254	19.46
232.472	-109.57
232.689	17.41
232.907	33.79
233.125	-17.41
233.342	91.13
233.56	-27.65
233.777	31.74
233.995	19.46
234.213	33.79
234.43	29.7
234.648	-9.22
234.865	50.18
235.083	-5.12
235.3	41.98
235.518	7.17
235.735	23.55
235.953	54.27
236.17	-9.22
236.388	-1.02
236.605	48.13
236.822	62.46
237.04	27.65
237.257	-19.46
237.475	-9.22
237.692	31.74
237.909	27.65
238.127	-78.85
238.344	60.42
238.562	-1.02
238.779	19.46
238.996	-46.08
239.214	3.07
239.431	58.37
239.648	-13.31
239.865	19.46
240.083	52.22
240.3	58.37
240.517	-17.41
240.735	27.65
240.952	-84.99
241.169	5.12
241.386	31.74
241.603	103.42
241.821	17.41
242.038	21.5
242.255	21.5
242.472	-66.56
242.689	17.41
242.907	7.17
243.124	-3.07
243.341	9.22
243.558	19.46
243.775	13.31
243.992	-23.55
244.209	-19.46
244.426	140.29
244.643	101.37
244.86	23.55
245.078	56.32
245.295	62.46
245.512	-7.17
245.729	-1.02
245.946	9.22
246.163	-25.6
246.38	-27.65
246.597	17.41
246.814	130.05
247.031	1.02
247.248	-7.17
247.464	37.89
247.681	1.02
247.898	29.7
248.115	50.18
248.332	-7.17
248.549	-11.26
248.766	21.5
248.983	52.22
249.2	46.08
249.417	19.46
249.633	9.22
249.85	-11.26
250.067	39.94
250.284	97.28
250.501	33.79
250.717	35.84
250.934	-72.7
251.151	-11.26
251.368	5.12
251.585	13.31
251.801	37.89
252.018	41.98
252.235	-19.46
252.451	56.32
252.668	-72.7
252.885	39.94
253.102	-19.46
253.318	21.5
253.535	-37.89
253.752	74.75
253.968	-21.5
254.185	-17.41
254.401	-1.02
254.618	-15.36
254.835	7.17
255.051	-13.31
255.268	-1.02
255.484	-1.02
255.701	41.98
255.917	-23.55
256.134	60.42
256.351	60.42
256.567	5.12
256.784	11.26
257	-11.26
257.217	5.12
257.433	50.18
257.65	5.12
257.866	11.26
258.082	-21.5
258.299	23.55
258.515	23.55
258.732	25.6
258.948	-5.12
259.165	-7.17
259.381	21.5
259.597	56.32
259.814	54.27
260.03	-1.02
260.246	54.27
260.463	56.32
260.679	68.61
260.895	27.65
261.112	44.03
261.328	-3.07
261.544	31.74
261.761	50.18
261.977	-9.22
262.193	41.98
262.409	1.02
262.626	13.31
262.842	15.36
263.058	82.94
263.274	29.7
263.49	78.85
263.707	-58.37
263.923	44.03
264.139	-3.07
264.355	56.32
264.571	46.08
264.787	-33.79
265.004	9.22
265.22	-11.26
265.436	37.89
265.652	31.74
265.868	48.13
266.084	29.7
266.3	66.56
266.516	37.89
266.732	-3.07
266.948	-44.03
267.164	41.98
267.38	-7.17
267.596	44.03
267.812	89.09
268.028	29.7
268.244	48.13
268.46	33.79
268.676	-27.65
268.892	-23.55
269.108	-15.36
269.324	25.6
269.54	17.41
269.756	72.7
269.972	-23.55
270.188	5.12
270.403	-3.07
270.619	74.75
270.835	17.41
271.051	21.5
271.267	3.07
271.483	-7.17
271.698	11.26
271.914	21.5
272.13	50.18
272.346	82.94
272.562	44.03
272.777	-3.07
272.993	-17.41
273.209	87.04
273.425	-9.22
273.64	1.02
273.856	62.46
274.072	17.41
274.287	-44.03
274.503	52.22
274.719	25.6
274.934	-9.22
275.15	-35.84
275.366	-15.36
275.581	25.6
275.797	-1.02
276.012	19.46
276.228	37.89
276.444	13.31
276.659	-1.02
276.875	5.12
277.09	7.17
277.306	-3.07
277.521	56.32
277.737	13.31
277.952	23.55
278.168	27.65
278.383	54.27
278.599	-80.89
278.814	64.51
279.03	13.31
279.245	17.41
279.461	-11.26
279.676	113.66
279.892	50.18
280.107	9.22
280.322	-1.02
280.538	62.46
280.753	25.6
280.969	25.6
281.184	25.6
281.399	48.13
281.615	-3.07
281.83	29.7
282.045	1.02
282.26	3.07
282.476	7.17
282.691	58.37
282.906	27.65
283.122	23.55
283.337	29.7
283.552	23.55
283.767	-39.94
283.983	11.26
284.198	7.17
284.413	76.8
284.628	3.07
284.843	21.5
285.058	19.46
285.274	-46.08
285.489	-11.26
285.704	7.17
285.919	41.98
286.134	-27.65
286.349	-48.13
286.564	-31.74
286.779	-19.46
286.995	5.12
287.21	66.56
287.425	58.37
287.64	13.31
287.855	119.81
288.07	-9.22
288.285	35.84
288.5	64.51
288.715	78.85
288.93	58.37
289.145	-11.26
289.36	35.84
289.575	-15.36
289.79	21.5
290.004	27.65
290.219	27.65
290.434	130.05
290.649	-9.22
290.864	21.5
291.079	1.02
291.294	29.7
291.509	-15.36
291.724	64.51
291.938	60.42
292.153	-5.12
292.368	-23.55
292.583	41.98
292.798	70.65
293.012	13.31
293.227	-19.46
293.442	15.36
293.657	-7.17
293.871	37.89
294.086	37.89
294.301	9.22
294.516	31.74
294.73	50.18
294.945	-15.36
295.16	54.27
295.374	7.17
295.589	58.37
295.804	-35.84
296.018	29.7
296.233	5.12
296.447	-21.5
296.662	-3.07
296.877	-44.03
297.091	80.89
297.306	46.08
297.52	23.55
297.735	-25.6
297.949	62.46
298.164	62.46
298.378	-17.41
298.593	21.5
298.807	56.32
299.022	37.89
299.236	7.17
299.451	54.27
299.665	25.6
299.88	23.55
300.094	35.84
300.309	7.17
300.523	33.79
300.737	56.32
300.952	9.22
301.166	-7.17
301.381	132.09
301.595	62.46
301.809	58.37
302.024	29.7
302.238	-11.26
302.452	58.37
302.667	33.79
302.881	91.13
303.095	-23.55
303.309	13.31
303.524	31.74
303.738	23.55
303.952	58.37
304.166	-41.98
304.381	11.26
304.595	99.33
304.809	-5.12
305.023	64.51
305.237	27.65
305.452	111.61
305.666	37.89
305.88	58.37
306.094	56.32
306.308	56.32
306.522	54.27
306.736	-3.07
306.95	62.46
307.164	48.13
307.379	-17.41
307.593	15.36
307.807	82.94
308.021	27.65
308.235	13.31
308.449	56.32
308.663	15.36
308.877	19.46
309.091	3.07
309.305	76.8
309.519	-27.65
309.733	27.65
309.947	13.31
310.161	41.98
310.374	78.85
310.588	7.17
310.802	17.41
311.016	89.09
311.23	-3.07
311.444	-13.31
311.658	-64.51
311.872	82.94
312.085	1.02
312.299	33.79
312.513	-50.18
312.727	78.85
312.941	5.12
313.154	54.27
313.368	72.7
313.582	-3.07
313.796	-23.55
314.009	29.7
314.223	1.02
314.437	54.27
314.651	9.22
314.864	99.33
315.078	-13.31
315.292	33.79
315.505	-31.74
315.719	17.41
315.933	9.22
316.146	-21.5
316.36	15.36
316.573	33.79
316.787	66.56
317.001	50.18
317.214	-1.02
317.428	37.89
317.641	82.94
317.855	-7.17
318.068	31.74
318.282	-9.22
318.495	21.5
318.709	37.89
318.922	91.13
319.136	82.94
319.349	7.17
319.563	-15.36
319.776	66.56
319.99	39.94
320.203	29.7
320.417	-23.55
320.63	5.12
320.843	-3.07
321.057	31.74
321.27	-37.89
321.483	5.12
321.697	48.13
321.91	5.12
322.124	13.31
322.337	-31.74
322.55	29.7
322.763	-17.41
322.977	64.51
323.19	23.55
323.403	17.41
323.617	1.02
323.83	113.66
324.043	-11.26
324.256	54.27
324.469	17.41
324.683	54.27
324.896	19.46
325.109	37.89
325.322	11.26
325.535	39.94
325.748	74.75
325.962	70.65
326.175	7.17
326.388	23.55
326.601	-21.5
326.814	41.98
327.027	25.6
327.24	37.89
327.453	23.55
327.666	46.08
327.879	60.42
328.092	-50.18
328.305	37.89
328.518	41.98
328.731	-15.36
328.944	13.31
329.157	1.02
329.37	74.75
329.583	7.17
329.796	31.74
330.009	27.65
330.222	-31.74
330.435	31.74
330.648	58.37
330.861	13.31
331.073	13.31
331.286	44.03
331.499	9.22
331.712	-31.74
331.925	19.46
332.138	17.41
332.35	136.19
332.563	-9.22
332.776	-7.17
332.989	37.89
333.202	13.31
333.414	19.46
333.627	-3.07
333.84	-5.12
334.053	54.27
334.265	19.46
334.478	-19.46
334.691	74.75
334.903	50.18
335.116	23.55
335.329	54.27
335.541	33.79
335.754	50.18
335.966	33.79
336.179	37.89
336.392	27.65
336.604	70.65
336.817	70.65
337.029	56.32
337.242	23.55
337.454	89.09
337.667	9.22
337.88	72.7
338.092	13.31
338.305	19.46
338.517	-41.98
338.729	62.46
338.942	35.84
339.154	31.74
339.367	-39.94
339.579	37.89
339.792	-9.22
340.004	103.42
340.217	5.12
340.429	35.84
340.641	-11.26
340.854	7.17
341.066	48.13
341.278	74.75
341.491	-25.6
341.703	48.13
341.915	39.94
342.128	50.18
342.34	29.7
342.552	82.94
342.764	39.94
342.977	21.5
343.189	74.75
343.401	121.85
343.613	60.42
343.826	46.08
344.038	5.12
344.25	21.5
344.462	44.03
344.674	17.41
344.886	-5.12
345.099	41.98
345.311	13.31
345.523	15.36
345.735	-50.18
345.947	84.99
346.159	41.98
346.371	23.55
346.583	46.08
346.795	39.94
347.007	-23.55
347.219	37.89
347.431	-56.32
347.643	31.74
347.855	68.61
348.067	78.85
348.279	-7.17
348.491	19.46
348.703	68.61
348.915	31.74
349.127	7.17
349.339	58.37
349.551	56.32
349.763	117.76
349.975	9.22
350.187	31.74
350.399	-19.46
350.61	91.13
350.822	1.02
351.034	29.7
351.246	41.98
351.458	31.74
351.669	70.65
351.881	35.84
352.093	-11.26
352.305	46.08
352.517	-7.17
352.728	58.37
352.94	13.31
353.152	111.61
353.363	-58.37
353.575	19.46
353.787	72.7
353.999	46.08
354.21	23.55
354.422	136.19
354.633	1.02
354.845	66.56
355.057	72.7
355.268	41.98
355.48	48.13
355.692	9.22
355.903	39.94
356.115	23.55
356.326	60.42
356.538	62.46
356.749	-21.5
356.961	33.79
357.172	-33.79
357.384	-13.31
357.595	-39.94
357.807	17.41
358.018	-7.17
358.23	31.74
358.441	60.42
358.653	37.89
358.864	-15.36
359.075	64.51
359.287	56.32
359.498	-31.74
359.709	95.23
359.921	60.42
360.132	70.65
360.344	13.31
360.555	29.7
360.766	25.6
360.977	9.22
361.189	37.89
361.4	-15.36
361.611	58.37
361.823	97.28
362.034	62.46
362.245	33.79
362.456	29.7
362.667	33.79
362.879	-19.46
363.09	50.18
363.301	-1.02
363.512	58.37
363.723	25.6
363.935	15.36
364.146	121.85
364.357	41.98
364.568	60.42
364.779	7.17
364.99	78.85
365.201	-23.55
365.412	-23.55
365.623	33.79
365.834	37.89
366.045	19.46
366.256	23.55
366.467	58.37
366.678	46.08
366.889	7.17
367.1	62.46
367.311	70.65
367.522	25.6
367.733	15.36
367.944	27.65
368.155	23.55
368.366	29.7
368.577	5.12
368.788	54.27
368.999	78.85
369.209	25.6
369.42	-1.02
369.631	103.42
369.842	70.65
370.053	54.27
370.264	11.26
370.474	46.08
370.685	1.02
370.896	41.98
371.107	23.55
371.317	74.75
371.528	17.41
371.739	105.47
371.95	44.03
372.16	-66.56
372.371	-56.32
372.582	37.89
372.792	15.36
373.003	11.26
373.214	7.17
373.424	48.13
373.635	68.61
373.846	52.22
374.056	5.12
374.267	-13.31
374.477	11.26
374.688	62.46
374.898	64.51
375.109	29.7
375.319	1.02
375.53	115.71
375.74	44.03
375.951	3.07
376.161	5.12
376.372	27.65
376.582	3.07
376.793	29.7
377.003	-15.36
377.214	31.74
377.424	33.79
377.635	72.7
377.845	-35.84
378.055	123.9
378.266	13.31
378.476	128
378.686	-3.07
378.897	13.31
379.107	31.74
379.317	80.89
379.528	27.65
379.738	23.55
379.948	7.17
380.158	142.33
380.369	9.22
380.579	29.7
380.789	101.37
380.999	37.89
381.21	27.65
381.42	15.36
381.63	33.79
381.84	5.12
382.05	-3.07
382.261	66.56
382.471	68.61
382.681	66.56
382.891	56.32
383.101	44.03
383.311	-35.84
383.521	1.02
383.731	7.17
383.941	46.08
384.151	-9.22
384.361	62.46
384.571	33.79
384.781	41.98
384.991	3.07
385.201	64.51
385.411	37.89
385.621	70.65
385.831	87.04
386.041	48.13
386.251	7.17
386.461	31.74
386.671	56.32
386.881	68.61
387.091	25.6
387.301	5.12
387.511	27.65
387.72	58.37
387.93	68.61
388.14	15.36
388.35	25.6
388.56	87.04
388.769	-3.07
388.979	-15.36
389.189	58.37
389.399	-23.55
389.609	3.07
389.818	97.28
390.028	-13.31
390.238	13.31
390.447	-7.17
390.657	84.99
390.867	23.55
391.076	21.5
391.286	39.94
391.496	41.98
391.705	-48.13
391.915	72.7
392.125	21.5
392.334	37.89
392.544	89.09
392.753	-25.6
392.963	21.5
393.172	95.23
393.382	9.22
393.591	84.99
393.801	87.04
394.01	13.31
394.22	91.13
394.429	48.13
394.639	-5.12
394.848	119.81
395.058	72.7
395.267	103.42
395.477	113.66
395.686	35.84
395.895	64.51
396.105	72.7
396.314	54.27
396.524	107.52
396.733	-7.17
396.942	111.61
397.152	64.51
397.361	5.12
397.57	68.61
397.78	103.42
397.989	105.47
398.198	119.81
398.407	37.89
398.617	46.08
398.826	72.7
399.035	148.48
399.244	52.22
399.453	21.5
399.663	21.5
399.872	23.55
400.081	52.22
400.29	113.66
400.499	9.22
400.708	103.42
400.917	84.99
401.127	105.47
401.336	44.03
401.545	62.46
401.754	31.74
401.963	46.08
402.172	56.32
402.381	115.71
402.59	33.79
402.799	41.98
403.008	74.75
403.217	70.65
403.426	74.75
403.635	91.13
403.844	78.85
404.053	70.65
404.262	115.71
404.471	50.18
404.68	168.96
404.888	62.46
405.097	31.74
405.306	132.09
405.515	136.19
405.724	101.37
405.933	93.18
406.142	125.95
406.35	168.96
406.559	136.19
406.768	82.94
406.977	203.77
407.185	136.19
407.394	78.85
407.603	119.81
407.812	193.53
408.02	205.82
408.229	125.95
408.438	175.1
408.646	87.04
408.855	62.46
409.064	140.29
409.272	95.23
409.481	222.2
409.69	74.75
409.898	160.77
410.107	166.91
410.315	205.82
410.524	93.18
410.733	150.53
410.941	240.64
411.15	232.44
411.358	228.35
411.567	230.4
411.775	232.44
411.984	201.72
412.192	326.65
412.401	265.21
412.609	271.36
412.818	263.16
413.026	261.12
413.234	250.88
413.443	250.88
413.651	332.79
413.86	347.13
414.068	349.18
414.276	398.33
414.485	416.76
414.693	422.91
414.901	392.19
415.11	418.81
415.318	472.06
415.526	406.52
415.734	439.29
415.943	459.77
416.151	492.54
416.359	541.69
416.567	533.5
416.776	623.61
416.984	631.8
417.192	619.51
417.4	556.02
417.608	547.83
417.817	660.47
418.025	572.41
418.233	709.62
418.441	726
418.649	775.16
418.857	787.44
419.065	693.24
419.273	715.77
419.481	769.01
419.689	879.6
419.897	834.55
420.105	951.28
420.313	840.69
420.521	922.61
420.729	924.66
420.937	979.95
421.145	1059.82
421.353	1055.73
421.561	1129.45
421.769	1145.84
421.977	1151.98
422.185	1065.97
422.393	1262.57
422.601	1299.44
422.809	1313.77
423.017	1330.16
423.224	1389.55
423.432	1350.64
423.64	1444.84
423.848	1551.34
424.056	1516.52
424.263	1571.82
424.471	1649.64
424.679	1702.89
424.887	1731.56
425.094	1866.72
425.302	1932.26
425.51	1952.74
425.718	2044.9
425.925	1973.22
426.133	2048.99
426.341	2118.62
426.548	2239.45
426.756	2292.7
426.964	2235.36
427.171	2364.38
427.379	2481.11
427.586	2608.09
427.794	2608.09
428.001	2737.11
428.209	2905.04
428.417	2704.34
428.624	2974.67
428.832	2964.43
429.039	2966.48
429.247	2923.48
429.454	3185.62
429.662	3388.36
429.869	3177.42
430.076	3337.17
430.284	3400.65
430.491	3595.21
430.699	3763.14
430.906	3662.79
431.114	3804.1
431.321	3834.82
431.528	3988.42
431.736	4252.61
431.943	4461.5
432.15	4387.77
432.358	4469.69
432.565	4580.28
432.772	4651.96
432.979	4897.72
433.187	4830.13
433.394	4815.8
433.601	5286.83
433.808	5223.34
434.016	5249.97
434.223	5557.16
434.43	5686.19
434.637	5790.63
434.844	6106.02
435.052	6210.47
435.259	6224.8
435.466	6218.66
435.673	6099.87
435.88	6589.34
436.087	6863.77
436.294	6785.94
436.501	6646.68
436.708	6953.88
436.915	7130
437.122	7443.34
437.329	7451.53
437.537	7619.47
437.743	7744.39
437.95	7594.89
438.157	8123.27
438.364	8426.37
438.571	8430.46
438.778	8412.03
438.985	9270.13
439.192	8733.56
439.399	9139.06
439.606	8938.36
439.813	9313.14
440.02	9937.77
440.227	9882.47
440.433	9722.73
440.64	9923.43
440.847	9945.96
441.054	10267.49
441.261	10875.74
441.467	10617.69
441.674	11088.73
441.881	11293.52
442.088	11338.58
442.294	11359.06
442.501	11617.1
442.708	11875.15
442.914	12223.3
443.121	12669.76
443.328	12436.29
443.534	13218.61
443.741	13095.74
443.948	12802.88
444.154	13898.54
444.361	13728.56
444.568	13734.7
444.774	13753.13
444.981	13953.84
445.187	14195.5
445.394	15174.42
445.6	14596.9
445.807	16227.08
446.013	15653.65
446.22	16186.12
446.426	16442.12
446.633	16636.67
446.839	17318.65
447.046	16417.54
447.252	17611.51
447.459	17443.57
447.665	17363.7
447.871	18295.53
448.078	19174.11
448.284	18586.34
448.491	18963.17
448.697	19450.58
448.903	19684.05
449.11	19686.1
449.316	19374.81
449.522	19862.22
449.728	20499.14
449.935	20564.68
450.141	20671.17
450.347	21177.02
450.553	20488.9
450.76	20794.05
450.966	21433.02
451.172	21390.01
451.378	21885.62
451.584	21066.43
451.791	21945.01
451.997	21936.82
452.203	22264.49
452.409	22250.16
452.615	22180.53
452.821	21742.26
453.027	21215.93
453.233	22123.18
453.44	21689.01
453.646	21686.97
453.852	21734.07
454.058	22217.39
454.264	21646.01
454.47	21697.2
454.676	21541.56
454.882	22274.73
455.088	20345.55
455.294	20742.85
455.5	20703.94
455.705	21129.92
455.911	20316.87
456.117	19864.27
456.323	19626.71
456.529	18860.77
456.735	19563.22
456.941	18926.3
457.147	18471.65
457.352	18092.78
457.558	18125.55
457.764	17849.07
457.97	17791.73
458.176	17240.82
458.381	17373.94
458.587	16225.03
458.793	16249.61
458.999	15424.28
459.204	16810.75
459.41	16591.62
459.616	15317.78
459.821	15297.3
460.027	15160.09
460.233	14621.47
460.438	14027.56
460.644	14254.89
460.85	13742.89
461.055	13452.08
461.261	13464.37
461.466	12598.08
461.672	12096.33
461.878	12915.51
462.083	11893.58
462.289	11844.43
462.494	11580.24
462.7	10976.09
462.905	10906.46
463.111	11428.69
463.316	11121.49
463.522	10912.6
463.727	11180.89
463.932	10906.46
464.138	10998.62
464.343	11158.36
464.549	10613.6
464.754	11064.15
464.959	10894.17
465.165	10871.64
465.37	10564.45
465.575	9966.44
465.781	10464.1
465.986	10636.13
466.191	10236.77
466.397	10124.13
466.602	9577.33
466.807	10070.89
467.012	9960.3
467.218	9945.96
467.423	9907.05
467.628	10046.31
467.833	10201.96
468.038	9804.65
468.244	9702.25
468.449	9915.24
468.654	9368.43
468.859	9544.56
469.064	9556.85
469.269	8962.94
469.474	9253.75
469.679	9433.97
469.885	9132.92
470.09	9364.34
470.295	9044.85
470.5	8805.24
470.705	8983.41
470.91	8893.3
471.115	8758.14
471.32	8792.95
471.525	8870.78
471.73	8508.29
471.935	8606.59
472.139	8297.35
472.344	8455.04
472.549	8358.78
472.754	8293.25
472.959	8092.55
473.164	7787.4
473.369	7916.42
473.574	8110.98
473.778	8162.18
473.983	8070.02
474.188	7771.02
474.393	7480.21
474.598	7525.26
474.802	7521.17
475.007	7388.05
475.212	7435.15
475.417	7138.2
475.621	7254.93
475.826	6951.83
476.031	7168.91
476.235	7000.98
476.44	7113.62
476.645	6966.17
476.849	6949.78
477.054	6839.19
477.259	6640.54
477.463	6726.55
477.668	6624.15
477.872	6624.15
478.077	6441.89
478.282	6280.1
478.486	6419.36
478.691	6405.02
478.895	6091.68
479.1	6343.58
479.304	6312.86
479.509	6069.16
479.713	6364.06
479.918	5893.03
480.122	5948.33
480.326	6126.5
480.531	6122.4
480.735	5952.42
480.94	5847.97
481.144	6124.45
481.348	5870.5
481.553	5860.26
481.757	5862.31
481.961	5985.19
482.166	5931.94
482.37	5979.04
482.574	5833.64
482.778	5929.89
482.983	5878.69
483.187	5843.88
483.391	5942.18
483.595	5813.16
483.8	5688.23
484.004	5952.42
484.208	5913.51
484.412	5796.78
484.616	5858.21
484.821	5827.5
485.025	5833.64
485.229	6060.96
485.433	5886.89
485.637	5858.21
485.841	5669.8
486.045	5753.77
486.249	5825.45
486.453	5802.92
486.657	5911.46
486.861	5899.17
487.065	5706.66
487.269	5796.78
487.473	5665.71
487.677	5919.65
487.881	6026.15
488.085	5796.78
488.289	6079.4
488.493	5774.25
488.697	5850.02
488.901	5917.61
489.105	6013.86
489.309	5989.28
489.512	6034.34
489.716	5837.73
489.92	5946.28
490.124	5804.97
490.328	6058.92
490.531	5843.88
490.735	6077.35
490.939	6271.9
491.143	5960.61
491.346	6013.86
491.55	6208.42
491.754	6130.59
491.958	6200.23
492.161	6247.33
492.365	6345.63
492.569	6103.97
492.772	6175.65
492.976	6153.12
493.18	6519.71
493.383	6402.97
493.587	6347.68
493.79	6536.09
493.994	6413.21
494.197	6548.38
494.401	6566.81
494.605	6542.24
494.808	6460.32
495.012	6773.66
495.215	6867.86
495.419	6994.84
495.622	6722.46
495.825	6974.36
496.029	6960.02
496.232	7185.3
496.436	6966.17
496.639	7216.02
496.843	7338.9
497.046	7314.32
497.249	7461.77
497.453	7230.35
497.656	7590.8
497.859	7629.71
498.063	7654.28
498.266	7891.85
498.469	7897.99
498.673	7959.43
498.876	8190.85
499.079	8104.84
499.282	8194.95
499.485	8283.01
499.689	8420.22
499.892	8551.29
500.095	8631.16
500.298	8725.37
500.501	8698.75
500.705	8926.07
500.908	8991.61
501.111	9290.61
501.314	9253.75
501.517	9331.57
501.72	9364.34
501.923	9499.5
502.126	9677.68
502.329	9782.12
502.532	9888.62
502.735	9995.11
502.938	10185.57
503.141	10253.16
503.344	10425.18
503.547	10505.06
503.75	10820.44
503.953	10638.17
504.156	10763.1
504.359	10959.7
504.562	11096.92
504.765	11438.93
504.968	11512.66
505.17	11625.29
505.373	11512.66
505.576	11844.43
505.779	11909.96
505.982	12139.33
506.185	12200.77
506.387	12616.51
506.59	12614.46
506.793	12737.34
506.996	12860.22
507.198	13245.24
507.401	13173.56
507.604	13441.84
507.807	13601.58
508.009	13538.1
508.212	13730.61
508.415	14201.64
508.617	14121.77
508.82	14136.1
509.022	14082.86
509.225	14664.48
509.428	14717.73
509.63	14842.65
509.833	14973.72
510.035	15436.56
510.238	15375.13
510.44	15584.02
510.643	15844.11
510.845	15901.45
511.048	16085.77
511.25	16302.86
511.453	16270.09
511.655	16806.66
511.858	16673.54
512.06	17060.6
512.262	16966.4
512.465	17193.72
512.667	17357.56
512.87	17771.25
513.072	17773.3
513.274	18234.09
513.477	18500.33
513.679	18569.96
513.881	18578.15
514.084	19045.09
514.286	18961.12
514.488	19122.91
514.69	19845.84
514.893	19634.9
515.095	19747.54
515.297	20259.53
515.499	20443.85
515.701	20458.18
515.904	20869.83
516.106	20722.37
516.308	21078.72
516.51	21555.9
516.712	21238.46
516.914	21711.54
517.116	22266.54
517.318	21795.51
517.52	22162.09
517.722	22407.85
517.925	23034.53
518.127	22860.45
518.329	23372.44
518.531	23292.57
518.733	23542.42
518.935	23749.27
519.136	23913.11
519.338	24251.02
519.54	24337.04
519.742	24732.29
519.944	24726.15
520.146	25113.22
520.348	25471.61
520.55	25565.82
520.752	25778.81
520.954	26010.23
521.155	25899.64
521.357	26589.8
521.559	26587.75
521.761	26905.19
521.963	27118.18
522.164	27208.29
522.366	27279.97
522.568	27507.29
522.77	27652.7
522.971	28230.23
523.173	27886.17
523.375	28367.44
523.576	28367.44
523.778	28635.72
523.98	29192.77
524.181	29035.08
524.383	29104.71
524.584	29528.64
524.786	29555.26
524.988	29258.31
525.189	29788.73
525.391	30349.87
525.592	30345.78
525.794	30265.91
525.995	30528.05
526.197	30407.22
526.398	30409.26
526.6	30937.64
526.801	30966.31
527.003	30933.54
527.204	31384.1
527.406	31543.84
527.607	31447.58
527.808	31838.75
528.01	31506.98
528.211	31652.38
528.412	32010.78
528.614	31947.29
528.815	32107.03
529.016	32293.4
529.218	31973.91
529.419	32320.02
529.62	32344.59
529.822	32614.93
530.023	32272.92
530.224	32836.11
530.425	32422.42
530.626	31978.01
530.828	32158.23
531.029	33067.53
531.23	32731.66
531.431	32688.65
531.632	32840.2
531.833	33176.07
532.035	33030.66
532.236	32789
532.437	33153.54
532.638	33137.16
532.839	33534.46
533.04	33452.55
533.241	33067.53
533.442	33542.66
533.643	32936.46
533.844	33417.73
534.045	33272.32
534.246	33290.76
534.447	33421.83
534.648	33507.84
534.849	33524.22
535.05	33233.41
535.251	33819.13
535.451	33272.32
535.652	33593.86
535.853	33409.54
536.054	33694.21
536.255	33659.39
536.456	33315.33
536.657	33825.28
536.857	33430.02
537.058	33663.49
537.259	34085.37
537.46	33372.67
537.66	33706.49
537.861	33722.88
538.062	33487.36
538.263	33513.98
538.463	33253.89
538.664	33405.44
538.865	33337.86
539.065	33726.97
539.266	33210.89
539.466	34109.94
539.667	33438.21
539.868	33870.33
540.068	33522.18
540.269	33522.18
540.469	33575.42
540.67	33540.61
540.87	33915.39
541.071	33847.8
541.271	34040.31
541.472	33651.2
541.672	33509.89
541.873	33501.7
542.073	33370.63
542.274	33495.55
542.474	33483.27
542.675	33352.2
542.875	33743.36
543.075	33526.27
543.276	33526.27
543.476	33720.83
543.676	33505.79
543.877	33507.84
544.077	33634.81
544.277	33364.48
544.478	33640.96
544.678	33706.49
544.878	33626.62
545.078	33427.97
545.279	33042.95
545.479	33460.74
545.679	33649.15
545.879	33268.23
546.079	33393.15
546.28	33468.93
546.48	33157.64
546.68	33747.45
546.88	33440.26
547.08	33579.52
547.28	33487.36
547.48	33188.36
547.68	33640.96
547.88	33038.86
548.081	33309.19
548.281	33083.91
548.481	33524.22
548.681	33722.88
548.881	33286.66
549.081	33563.14
549.28	33352.2
549.48	33499.65
549.68	33409.54
549.88	33976.83
550.08	33245.7
550.28	33274.37
550.48	33190.41
550.68	33829.37
550.88	33542.66
551.08	32954.89
551.279	33102.34
551.479	33079.82
551.679	33479.17
551.879	32784.91
552.079	33380.87
552.278	33257.99
552.478	33317.38
552.678	32883.21
552.878	33475.07
553.077	33065.48
553.277	33436.16
553.477	32993.8
553.676	33397.25
553.876	33022.47
554.076	32840.2
554.275	32856.59
554.475	32772.62
554.674	33096.2
554.874	33186.31
555.074	32735.76
555.273	32973.32
555.473	33212.93
555.672	32526.86
555.872	32889.35
556.071	32985.61
556.271	33147.4
556.47	32895.5
556.67	32713.23
556.869	32727.56
557.068	32780.81
557.268	32580.11
557.467	32588.3
557.667	32698.89
557.866	32485.9
558.065	32526.86
558.265	32614.93
558.464	32465.42
558.663	32698.89
558.863	31676.96
559.062	32518.67
559.261	32391.7
559.461	32602.64
559.66	31691.29
559.859	32391.7
560.058	31994.39
560.258	32141.85
560.457	31873.56
560.656	32178.71
560.855	31975.96
561.054	32076.31
561.253	31425.06
561.453	31697.44
561.652	31570.46
561.851	31527.45
562.05	31609.37
562.249	31400.48
562.448	31998.49
562.647	31515.17
562.846	31717.92
563.045	31480.35
563.244	31064.61
563.443	31672.86
563.642	31052.33
563.841	31455.78
564.04	30956.07
564.239	31459.87
564.438	30900.78
564.637	31269.41
564.836	31126.05
565.035	30841.39
565.234	31078.95
565.432	30499.37
565.631	30659.12
565.83	30616.11
566.029	30296.63
566.228	30470.7
566.427	30466.61
566.625	30472.75
566.824	30108.21
567.023	30616.11
567.222	30014.01
567.42	30048.82
567.619	30011.96
567.818	29870.65
568.016	30030.39
568.215	30167.6
568.414	30384.69
568.612	30030.39
568.811	29581.88
569.01	29672
569.208	29069.89
569.407	29919.8
569.605	29608.51
569.804	29565.5
570.002	29241.92
570.201	29012.55
570.4	29315.65
570.598	28879.43
570.797	28879.43
570.995	29262.4
571.193	28883.53
571.392	28975.69
571.59	28514.89
571.789	28817.99
571.987	28564.04
572.186	28754.51
572.384	28426.83
572.582	28793.42
572.781	28430.93
572.979	28332.62
573.177	28308.05
573.376	28170.83
573.574	28195.41
573.772	27988.56
573.971	28119.63
574.169	27822.68
574.367	27572.83
574.565	27740.76
574.763	27423.33
574.962	27615.83
575.16	27118.18
575.358	27378.27
575.556	27179.62
575.754	27370.08
575.952	27013.73
576.151	27257.44
576.349	27026.02
576.547	27107.94
576.745	27048.55
576.943	26888.81
577.141	27005.54
577.339	26868.33
577.537	26589.8
577.735	26438.25
577.933	26251.89
578.131	26587.75
578.329	26247.79
578.527	26247.79
578.725	26370.67
578.923	26258.03
579.121	26309.23
579.319	26071.67
579.516	26126.96
579.714	26114.67
579.912	26139.25
580.11	25774.71
580.308	25889.4
580.506	25672.31
580.704	25145.98
580.901	25743.99
581.099	25647.74
581.297	25199.23
581.495	25512.57
581.692	25578.11
581.89	24951.43
582.088	25035.39
582.285	24930.95
582.483	24760.97
582.681	24885.89
582.878	25166.46
583.076	25070.21
583.274	24687.24
583.471	24504.97
583.669	24664.71
583.866	24476.3
584.064	24588.94
584.262	24076.94
584.459	24545.93
584.657	24103.57
584.854	24357.52
585.052	24001.17
585.249	23947.92
585.447	24169.1
585.644	23861.91
585.841	23712.41
586.039	24103.57
586.236	23593.62
586.434	23403.16
586.631	23296.67
586.828	23644.82
587.026	23773.85
587.223	23489.18
587.42	23354.01
587.618	23235.23
587.815	23155.36
588.012	23251.61
588.21	23204.51
588.407	23329.44
588.604	22880.93
588.801	22905.51
588.999	22796.96
589.196	22616.74
589.393	22835.88
589.59	22842.02
589.787	22526.63
589.984	22440.62
590.182	22561.45
590.379	22424.23
590.576	21914.29
590.773	22270.64
590.97	22088.37
591.167	22147.76
591.364	21613.24
591.561	22178.48
591.758	21695.16
591.955	21902
592.152	21738.16
592.349	21453.5
592.546	21650.1
592.743	21713.59
592.94	21172.92
593.137	21639.86
593.334	21230.27
593.531	20945.6
593.727	21353.15
593.924	21039.81
594.121	21205.69
594.318	21033.66
594.515	20822.72
594.712	20978.37
594.908	20787.91
595.105	20792
595.302	20548.29
595.499	21054.14
595.696	20634.31
595.892	20267.72
596.089	20443.85
596.286	20607.69
596.482	20493
596.679	20703.94
596.876	20345.55
597.072	20105.93
597.269	20218.57
597.466	19983.06
597.662	20030.16
597.859	20042.45
598.055	19700.44
598.252	20026.06
598.448	20015.82
598.645	19851.99
598.841	19952.34
599.038	19548.89
599.234	19737.3
599.431	19495.64
599.627	19362.52
599.824	19776.21
600.02	19456.73
600.217	19256.03
600.413	19102.43
600.609	18995.93
600.806	18934.5
601.002	19313.37
601.198	18995.93
601.395	18895.58
601.591	18909.92
601.787	18778.85
601.984	18924.26
602.18	19018.46
602.376	18340.58
602.572	18533.09
602.769	18615.01
602.965	18369.26
603.161	18447.08
603.357	18309.86
603.553	18346.73
603.75	18434.79
603.946	18199.27
604.142	18316.01
604.338	18105.07
604.534	18070.25
604.73	18060.01
604.926	17887.98
605.122	17892.08
605.318	17830.64
605.514	17859.31
605.71	17631.99
605.906	17789.68
606.102	17488.63
606.298	17433.33
606.494	17578.74
606.69	17674.99
606.886	17474.29
607.082	17158.91
607.278	17468.15
607.474	17079.04
607.67	17093.37
607.866	17011.45
608.062	17103.61
608.257	17206.01
608.453	17101.56
608.649	17238.78
608.845	17085.18
609.041	17107.71
609.236	17025.79
609.432	16777.98
609.628	16933.63
609.824	16831.23
610.019	16872.19
610.215	16509.7
610.411	16577.28
610.606	16624.39
610.802	16739.07
610.998	16567.04
611.193	16489.22
611.389	16392.97
611.584	16220.94
611.78	16388.87
611.976	16593.67
612.171	16298.76
612.367	16349.96
612.562	15923.98
612.758	15893.26
612.953	15766.29
613.149	16085.77
613.344	15780.62
613.539	16270.09
613.735	16134.92
613.93	16157.45
614.126	15985.42
614.321	15813.39
614.517	15876.88
614.712	15831.82
614.907	15651.6
615.103	16053
615.298	15686.42
615.493	15878.93
615.688	15538.96
615.884	16141.07
616.079	15502.1
616.274	15493.91
616.47	15629.07
616.665	15637.27
616.86	15375.13
617.055	15354.65
617.25	15137.56
617.445	15414.04
617.641	15137.56
617.836	15459.09
618.031	15049.5
618.226	15301.4
618.421	14791.45
618.616	15108.89
618.811	14943
619.006	15194.9
619.201	14799.65
619.396	14603.04
619.591	14408.48
619.786	14779.17
619.981	14299.94
620.176	14734.11
620.371	14400.29
620.566	14486.31
620.761	14324.52
620.956	14619.42
621.151	14320.42
621.346	14433.06
621.541	13833
621.735	14177.06
621.93	13912.88
622.125	13949.74
622.32	13753.13
622.515	13980.46
622.709	13697.84
622.904	13640.5
623.099	13450.03
623.294	13675.31
623.488	13382.45
623.683	13310.77
623.878	13151.03
624.072	13181.75
624.267	13079.35
624.462	13077.3
624.656	12915.51
624.851	13022.01
625.046	12819.26
625.24	12761.92
625.435	12776.25
625.629	12815.16
625.824	12706.62
626.018	12473.15
626.213	12270.4
626.407	12651.33
626.602	12385.09
626.796	12350.28
626.991	12383.04
627.185	12288.84
627.38	11971.4
627.574	11985.74
627.768	11891.53
627.963	11789.13
628.157	11793.23
628.352	11873.1
628.546	11627.34
628.74	11848.52
628.935	11590.48
629.129	11393.87
629.323	11373.39
629.517	11258.71
629.712	11328.34
629.906	11131.73
630.1	11203.41
630.294	11314
630.489	11008.86
630.683	11227.99
630.877	11023.19
631.071	10627.93
631.265	10947.42
631.459	10867.55
631.653	10822.49
631.848	10804.06
632.042	10586.97
632.236	10677.09
632.43	10556.25
632.624	10322.79
632.818	10337.12
633.012	10314.59
633.206	10490.72
633.4	10275.68
633.594	10300.26
633.788	10097.51
633.982	10077.03
634.176	10189.67
634.369	10093.41
634.563	10034.02
634.757	9884.52
634.951	9806.7
635.145	9954.15
635.339	9714.54
635.533	9665.39
635.726	9784.17
635.92	9595.76
636.114	9505.65
636.308	9515.89
636.501	9550.7
636.695	9626.48
636.889	9466.74
637.083	9309.04
637.276	9309.04
637.47	9227.12
637.664	9190.26
637.857	9214.84
638.051	9206.64
638.244	9188.21
638.438	8954.74
638.632	8893.3
638.825	8881.02
639.019	8930.17
639.212	8799.1
639.406	8803.19
639.599	8616.83
639.793	8713.08
639.986	8573.82
640.18	8592.25
640.373	8334.21
640.567	8373.12
640.76	8407.94
640.954	8313.73
641.147	8196.99
641.34	8108.93
641.534	8293.25
641.727	8125.32
641.92	8125.32
642.114	7893.9
642.307	8164.23
642.5	7996.29
642.694	7887.75
642.887	7705.48
643.08	7779.21
643.273	7805.83
643.467	7621.52
643.66	7553.93
643.853	7666.57
644.046	7541.64
644.239	7521.17
644.432	7541.64
644.626	7416.72
644.819	7248.79
645.012	7586.7
645.205	7297.94
645.398	7117.72
645.591	7234.45
645.784	7254.93
645.977	7074.71
646.17	7009.17
646.363	6998.93
646.556	7146.39
646.749	7056.28
646.942	6888.34
647.135	6810.52
647.328	6902.68
647.521	6919.06
647.714	6790.04
647.907	6681.5
648.099	6648.73
648.292	6648.73
648.485	6714.27
648.678	6558.62
648.871	6538.14
649.064	6378.4
649.256	6294.43
649.449	6425.5
649.642	6396.83
649.835	6251.42
650.027	6247.33
650.22	6259.62
650.413	6183.84
650.605	6417.31
650.798	6069.16
650.991	6003.62
651.183	5995.43
651.376	6036.39
651.568	6103.97
651.761	6114.21
651.954	5858.21
652.146	6089.64
652.339	5706.66
652.531	6001.57
652.724	5651.37
652.916	5858.21
653.109	5696.43
653.301	5721
653.494	5772.2
653.686	5452.72
653.879	5555.12
654.071	5600.17
654.263	5460.91
654.456	5542.83
654.648	5350.32
654.84	5634.99
655.033	5362.61
655.225	5428.14
655.417	5481.39
655.61	5577.64
655.802	5202.86
655.994	5108.66
656.186	5286.83
656.379	5356.46
656.571	5274.54
656.763	5198.77
656.955	5176.24
657.148	5188.53
657.34	5133.23
657.532	5086.13
657.724	5010.36
657.916	5227.44
658.108	4991.92
658.3	5034.93
658.492	5055.41
658.684	4924.34
658.876	4801.46
659.068	4793.27
659.26	4869.05
659.452	4785.08
659.644	4975.54
659.836	4811.7
660.028	4668.34
660.22	4641.72
660.412	4662.2
660.604	4750.26
660.796	4721.59
660.988	4447.16
661.18	4553.66
661.372	4475.84
661.563	4461.5
661.755	4512.7
661.947	4502.46
662.139	4346.81
662.331	4422.59
662.522	4359.1
662.714	4377.53
662.906	4338.62
663.097	4334.53
663.289	4279.23
663.481	4324.29
663.673	4256.7
663.864	4277.18
664.056	4092.87
664.247	4142.02
664.439	4033.47
664.631	4205.5
664.822	4123.59
665.014	4185.02
665.205	4119.49
665.397	4053.95
665.588	3900.36
665.78	3847.11
665.971	3924.93
666.163	3896.26
666.354	3982.28
666.546	3992.52
666.737	3797.96
666.929	3957.7
667.12	3826.63
667.311	3691.46
667.503	3855.3
667.694	3740.61
667.885	3648.46
668.077	3642.31
668.268	3609.54
668.459	3693.51
668.651	3662.79
668.842	3587.02
669.033	3757
669.224	3644.36
669.416	3568.59
669.607	3603.4
669.798	3498.95
669.989	3589.07
670.18	3501
670.371	3398.6
670.563	3445.71
670.754	3572.68
670.945	3470.28
671.136	3570.63
671.327	3458
671.518	3337.17
671.709	3433.42
671.9	3408.84
672.091	3337.17
672.282	3417.04
672.473	3331.02
672.664	3619.78
672.855	3253.2
673.046	3146.7
673.237	3314.64
673.428	3390.41
673.619	3136.46
673.809	3292.11
674	3257.29
674.191	3298.25
674.382	3079.12
674.573	3339.21
674.764	3285.97
674.954	3216.33
675.145	3277.77
675.336	3232.72
675.527	3197.9
675.717	3077.07
675.908	3103.7
676.099	3038.16
676.289	3075.03
676.48	2935.76
676.671	3175.38
676.861	3075.03
677.052	3068.88
677.243	3052.5
677.433	3023.83
677.624	3050.45
677.814	2978.77
678.005	3072.98
678.195	2954.19
678.386	3109.84
678.576	3124.18
678.767	3138.51
678.957	3044.31
679.148	3070.93
679.338	3095.5
679.529	3040.21
679.719	2978.77
679.909	3075.03
680.1	3013.59
680.29	3066.83
680.481	3019.73
680.671	3003.35
680.861	2958.29
681.052	3036.11
681.242	2915.28
681.432	2921.43
681.622	2923.48
681.813	2915.28
682.003	2896.85
682.193	2849.75
682.383	2946
682.573	3066.83
682.764	3095.5
682.954	2900.95
683.144	2911.19
683.334	2753.49
683.524	2821.08
683.714	2935.76
683.904	2982.87
684.094	2866.13
684.284	2976.72
684.474	2980.82
684.664	2939.86
684.854	3001.3
685.044	2917.33
685.234	2800.6
685.424	2833.36
685.614	2943.96
685.804	2894.8
685.994	2849.75
686.184	2907.09
686.374	2882.52
686.564	2819.03
686.753	2773.97
686.943	2825.17
687.133	2921.43
687.323	2962.39
687.513	2800.6
687.702	2773.97
687.892	2808.79
688.082	2825.17
688.272	2718.68
688.461	2798.55
688.651	2722.77
688.841	2751.45
689.03	2735.06
689.22	2773.97
689.41	2706.39
689.599	2827.22
689.789	2833.36
689.979	2812.89
690.168	2618.33
690.358	2712.53
690.547	2667.48
690.737	2786.26
690.926	2659.29
691.116	2663.38
691.305	2755.54
691.495	2636.76
691.684	2706.39
691.874	2708.44
692.063	2651.1
692.252	2610.14
692.442	2601.94
692.631	2733.01
692.82	2647
693.01	2534.36
693.199	2700.25
693.388	2560.98
693.578	2667.48
693.767	2642.9
693.956	2659.29
694.146	2644.95
694.335	2563.03
694.524	2622.42
694.713	2653.14
694.902	2599.9
695.092	2517.98
695.281	2630.62
695.47	2597.85
695.659	2630.62
695.848	2573.27
696.037	2583.51
696.226	2618.33
696.415	2546.65
696.604	2558.94
696.793	2690.01
696.982	2653.14
697.171	2448.35
697.36	2583.51
697.549	2522.07
697.738	2585.56
697.927	2520.03
698.116	2536.41
698.305	2616.28
698.494	2477.02
698.683	2515.93
698.872	2622.42
699.061	2593.75
699.25	2409.44
699.438	2460.63
699.627	2520.03
699.816	2483.16
700.005	2460.63
700.193	2452.44
700.382	2397.15
700.571	2460.63
700.76	2436.06
700.948	2411.48
701.137	2417.63
701.326	2474.97
701.514	2429.91
701.703	2372.57
701.892	2407.39
702.08	2491.35
702.269	2431.96
702.457	2446.3
702.646	2536.41
702.834	2345.95
703.023	2362.33
703.212	2458.59
703.4	2413.53
703.589	2325.47
703.777	2298.84
703.965	2384.86
704.154	2245.6
704.342	2315.23
704.531	2313.18
704.719	2274.27
704.907	2411.48
705.096	2378.72
705.284	2337.76
705.472	2343.9
705.661	2259.93
705.849	2335.71
706.037	2239.45
706.226	2294.75
706.414	2253.79
706.602	2313.18
706.79	2276.32
706.979	2368.48
707.167	2274.27
707.355	2268.13
707.543	2186.21
707.731	2290.65
707.919	2206.69
708.107	2198.49
708.296	2163.68
708.484	2216.93
708.672	2106.34
708.86	2196.45
709.048	2249.69
709.236	2210.78
709.424	2145.25
709.612	2194.4
709.8	2118.62
709.988	2116.58
710.176	2110.43
710.364	2143.2
710.551	2231.26
710.739	2112.48
710.927	2171.87
711.115	2159.58
711.303	2200.54
711.491	2159.58
711.679	2151.39
711.866	2178.01
712.054	2048.99
712.242	2089.95
712.43	2057.18
712.617	2059.23
712.805	2083.81
712.993	2077.66
713.181	2069.47
713.368	1958.88
713.556	2178.01
713.744	2065.38
713.931	2083.81
714.119	2055.14
714.306	2036.7
714.494	2061.28
714.682	2030.56
714.869	1991.65
715.057	1930.21
715.244	1958.88
715.432	2046.94
715.619	1987.55
715.807	1956.83
715.994	2008.03
716.182	1936.35
716.369	1991.65
716.556	2010.08
716.744	1987.55
716.931	1944.55
717.119	1895.4
717.306	1897.44
717.493	1889.25
717.681	1930.21
717.868	1993.7
718.055	1954.79
718.242	1905.63
718.43	1948.64
718.617	1948.64
718.804	1922.02
718.991	1803.24
719.179	1838.05
719.366	1913.83
719.553	1897.44
719.74	1924.07
719.927	1891.3
720.114	1840.1
720.301	1891.3
720.488	1948.64
720.676	1752.04
720.863	1788.9
721.05	1836
721.237	1850.34
721.424	1749.99
721.611	1778.66
721.798	1776.61
721.985	1905.63
722.172	1733.61
722.358	1778.66
722.545	1793
722.732	1752.04
722.919	1782.76
723.106	1754.09
723.293	1827.81
723.48	1762.28
723.667	1860.58
723.853	1743.85
724.04	1856.48
724.227	1733.61
724.414	1825.76
724.6	1735.65
724.787	1696.74
724.974	1786.85
725.161	1727.46
725.347	1623.02
725.534	1678.31
725.72	1620.97
725.907	1733.61
726.094	1661.93
726.28	1799.14
726.467	1700.84
726.653	1784.8
726.84	1747.94
727.027	1668.07
727.213	1764.33
727.4	1666.02
727.586	1702.89
727.773	1614.82
727.959	1582.06
728.145	1633.26
728.332	1598.44
728.518	1733.61
728.705	1604.58
728.891	1676.26
729.077	1706.98
729.264	1631.21
729.45	1553.38
729.636	1565.67
729.823	1582.06
730.009	1573.86
730.195	1555.43
730.382	1602.54
730.568	1553.38
730.754	1618.92
730.94	1606.63
731.126	1598.44
731.313	1518.57
731.499	1553.38
731.685	1545.19
731.871	1555.43
732.057	1596.39
732.243	1692.65
732.429	1588.2
732.615	1594.34
732.801	1524.71
732.987	1588.2
733.173	1668.07
733.359	1514.47
733.545	1553.38
733.731	1549.29
733.917	1573.86
734.103	1485.8
734.289	1467.37
734.475	1565.67
734.661	1651.69
734.847	1496.04
735.033	1534.95
735.219	1469.42
735.404	1549.29
735.59	1450.99
735.776	1618.92
735.962	1448.94
736.148	1627.11
736.333	1467.37
736.519	1493.99
736.705	1537
736.89	1543.14
737.076	1479.66
737.262	1403.88
737.447	1510.38
737.633	1504.23
737.819	1547.24
738.004	1440.75
738.19	1504.23
738.375	1426.41
738.561	1500.14
738.747	1459.18
738.932	1424.36
739.118	1414.12
739.303	1526.76
739.489	1364.97
739.674	1426.41
739.859	1508.33
740.045	1356.78
740.23	1424.36
740.416	1469.42
740.601	1418.22
740.786	1369.07
740.972	1354.73
741.157	1354.73
741.342	1405.93
741.528	1434.6
741.713	1344.49
741.898	1397.74
742.084	1356.78
742.269	1350.64
742.454	1444.84
742.639	1338.35
742.824	1303.53
743.01	1407.98
743.195	1336.3
743.38	1387.5
743.565	1270.76
743.75	1252.33
743.935	1340.4
744.12	1348.59
744.305	1301.48
744.49	1336.3
744.675	1281
744.86	1278.96
745.045	1276.91
745.23	1330.16
745.415	1229.81
745.6	1268.72
745.785	1168.37
745.97	1258.48
746.155	1299.44
746.34	1324.01
746.525	1307.63
746.71	1211.37
746.895	1133.55
747.079	1274.86
747.264	1174.51
747.449	1117.17
747.634	1186.8
747.819	1211.37
748.003	1170.41
748.188	1141.74
748.373	1166.32
748.557	1133.55
748.742	1221.61
748.927	1076.21
749.111	1192.94
749.296	1229.81
749.481	1063.92
749.665	1082.35
749.85	1192.94
750.034	1065.97
750.219	1031.15
750.404	1088.5
750.588	1074.16
750.773	1082.35
750.957	943.09
751.141	1117.17
751.326	1104.88
751.51	1033.2
751.695	1131.5
751.879	1033.2
752.064	1111.02
752.248	1020.91
752.432	1022.96
752.617	1031.15
752.801	998.38
752.985	971.76
753.17	1025.01
753.354	1010.67
753.538	1027.06
753.722	916.47
753.907	982
754.091	852.98
754.275	955.38
754.459	912.37
754.643	1018.86
754.828	916.47
755.012	945.14
755.196	910.32
755.38	906.23
755.564	906.23
755.748	922.61
755.932	895.99
756.116	918.51
756.3	947.19
756.484	877.55
756.668	857.07
756.852	830.45
757.036	812.02
757.22	807.92
757.404	859.12
757.588	887.79
757.772	920.56
757.956	857.07
758.14	771.06
758.323	795.64
758.507	793.59
758.691	824.31
758.875	795.64
759.059	746.48
759.242	769.01
759.426	807.92
759.61	746.48
759.794	777.2
759.977	760.82
760.161	728.05
760.345	754.68
760.528	801.78
760.712	795.64
760.895	760.82
761.079	744.44
761.263	635.89
761.446	691.19
761.63	781.3
761.813	633.85
761.997	648.18
762.18	685.05
762.364	603.13
762.547	689.14
762.731	732.15
762.914	726
763.098	668.66
763.281	693.24
763.464	781.3
763.648	664.57
763.831	721.91
764.015	683
764.198	670.71
764.381	627.7
764.564	703.48
764.748	599.03
764.931	680.95
765.114	676.85
765.297	789.49
765.481	646.13
765.664	644.09
765.847	685.05
766.03	646.13
766.213	654.33
766.397	738.29
766.58	619.51
766.763	662.52
766.946	658.42
767.129	594.93
767.312	730.1
767.495	619.51
767.678	551.93
767.861	580.6
768.044	619.51
768.227	678.9
768.41	611.32
768.593	644.09
768.776	596.98
768.959	607.22
769.142	529.4
769.324	627.7
769.507	533.5
769.69	635.89
769.873	496.63
770.056	601.08
770.239	594.93
770.421	586.74
770.604	551.93
770.787	582.65
770.97	566.26
771.152	607.22
771.335	660.47
771.518	592.89
771.7	535.54
771.883	459.77
772.066	599.03
772.248	592.89
772.431	545.78
772.613	582.65
772.796	506.87
772.978	531.45
773.161	570.36
773.343	553.98
773.526	521.21
773.708	504.82
773.891	525.3
774.073	472.06
774.256	461.82
774.438	568.31
774.621	574.46
774.803	449.53
774.985	441.34
775.168	482.3
775.35	500.73
775.532	441.34
775.715	443.39
775.897	457.72
776.079	553.98
776.261	443.39
776.444	416.76
776.626	445.43
776.808	449.53
776.99	490.49
777.173	545.78
777.355	424.95
777.537	496.63
777.719	457.72
777.901	416.76
778.083	472.06
778.265	392.19
778.447	502.78
778.629	472.06
778.811	478.2
778.993	410.62
779.175	447.48
779.357	474.1
779.539	390.14
779.721	424.95
779.903	457.72
780.085	437.24
780.267	353.27
780.449	388.09
780.631	406.52
780.812	394.23
780.994	357.37
781.176	465.91
781.358	355.32
781.54	359.42
781.721	336.89
781.903	414.71
782.085	318.46
782.267	400.38
782.448	383.99
782.63	279.55
782.812	349.18
782.993	271.36
783.175	451.58
783.357	375.8
783.538	410.62
783.72	345.08
783.901	334.84
784.083	316.41
784.264	369.66
784.446	355.32
784.627	267.26
784.809	351.23
784.99	312.32
785.172	291.84
785.353	318.46
785.535	320.51
785.716	338.94
785.897	283.64
786.079	254.97
786.26	257.02
786.441	271.36
786.623	285.69
786.804	322.56
786.985	248.83
787.167	250.88
787.348	293.88
787.529	252.92
787.71	334.84
787.891	326.65
788.073	226.3
788.254	283.64
788.435	259.07
788.616	240.64
788.797	275.45
788.978	277.5
789.159	261.12
789.34	207.87
789.522	232.44
789.703	312.32
789.884	246.78
790.065	234.49
790.246	238.59
790.427	214.01
790.607	285.69
790.788	246.78
790.969	185.34
791.15	232.44
791.331	273.4
791.512	246.78
791.693	257.02
791.874	214.01
792.054	271.36
792.235	263.16
792.416	293.88
792.597	195.58
792.778	195.58
792.958	220.16
793.139	259.07
793.32	187.39
793.5	209.92
793.681	189.44
793.862	271.36
794.042	203.77
794.223	164.86
794.404	226.3
794.584	261.12
794.765	195.58
794.945	166.91
795.126	156.67
795.306	228.35
795.487	168.96
795.667	148.48
795.848	166.91
796.028	201.72
796.209	197.63
796.389	160.77
796.57	234.49
796.75	156.67
796.93	154.62
797.111	164.86
797.291	162.81
797.471	205.82
797.652	119.81
797.832	99.33
798.012	144.38
798.192	177.15
798.373	203.77
798.553	193.53
798.733	195.58
798.913	156.67
799.093	238.59
799.274	193.53
799.454	201.72
799.634	144.38
799.814	277.5
799.994	164.86
800.174	179.2
800.354	130.05
800.534	103.42
800.714	216.06
800.894	185.34
801.074	107.52
801.254	111.61
801.434	109.57
801.614	144.38
801.794	152.57
801.974	332.79
802.154	105.47
802.334	103.42
802.514	168.96
802.693	201.72
802.873	183.29
803.053	164.86
803.233	185.34
803.413	234.49
803.592	111.61
803.772	160.77
803.952	115.71
804.131	128
804.311	136.19
804.491	121.85
804.67	162.81
804.85	130.05
805.03	214.01
805.209	201.72
805.389	138.24
805.568	203.77
805.748	93.18
805.928	107.52
806.107	195.58
806.287	144.38
806.466	142.33
806.646	146.43
806.825	80.89
807.004	173.05
807.184	105.47
807.363	101.37
807.543	29.7
807.722	156.67
807.901	113.66
808.081	171.01
808.26	160.77
808.439	125.95
808.619	187.39
808.798	158.72
808.977	146.43
809.156	144.38
809.336	134.14
809.515	132.09
809.694	160.77
809.873	136.19
810.052	125.95
810.231	146.43
810.411	91.13
810.59	54.27
810.769	185.34
810.948	154.62
811.127	41.98
811.306	82.94
811.485	70.65
811.664	140.29
811.843	52.22
812.022	171.01
812.201	97.28
812.38	91.13
812.559	72.7
812.737	82.94
812.916	87.04
813.095	113.66
813.274	142.33
813.453	46.08
813.632	39.94
813.811	136.19
813.989	121.85
814.168	111.61
814.347	64.51
814.526	140.29
814.704	123.9
814.883	130.05
815.062	46.08
815.24	168.96
815.419	91.13
815.598	119.81
815.776	23.55
815.955	109.57
816.133	70.65
816.312	89.09
816.49	84.99
816.669	146.43
816.847	31.74
817.026	123.9
817.204	171.01
817.383	115.71
817.561	89.09
817.74	62.46
817.918	54.27
818.097	103.42
818.275	89.09
818.453	121.85
818.632	48.13
818.81	128
818.988	107.52
819.167	140.29
819.345	70.65
819.523	162.81
819.701	136.19
819.879	148.48
820.058	50.18
820.236	113.66
820.414	80.89
820.592	44.03
820.77	105.47
820.948	70.65
821.127	89.09
821.305	74.75
821.483	68.61
821.661	91.13
821.839	80.89
822.017	117.76
822.195	37.89
822.373	103.42
822.551	80.89
822.729	142.33
822.907	80.89
823.085	103.42
823.262	105.47
823.44	27.65
823.618	56.32
823.796	111.61
823.974	-15.36
824.152	58.37
824.329	54.27
824.507	107.52
824.685	132.09
824.863	107.52
825.04	78.85
825.218	89.09
825.396	87.04
825.574	-17.41
825.751	46.08
825.929	-15.36
826.107	27.65
826.284	62.46
826.462	119.81
826.639	80.89
826.817	74.75
826.994	66.56
827.172	44.03
827.349	125.95
827.527	64.51
827.704	41.98
827.882	78.85
828.059	109.57
828.237	-3.07
828.414	82.94
828.591	25.6
828.769	33.79
828.946	41.98
829.124	33.79
829.301	68.61
829.478	136.19
829.655	82.94
829.833	148.48
830.01	39.94
830.187	-9.22
830.364	37.89
830.542	72.7
830.719	19.46
830.896	132.09
831.073	25.6
831.25	64.51
831.427	-11.26
831.604	76.8
831.782	25.6
831.959	111.61
832.136	64.51
832.313	72.7
832.49	15.36
832.667	27.65
832.844	44.03
833.021	41.98
833.198	62.46
833.374	46.08
833.551	44.03
833.728	117.76
833.905	89.09
834.082	21.5
834.259	91.13
834.436	89.09
834.612	56.32
834.789	78.85
834.966	-7.17
835.143	31.74
835.319	101.37
835.496	70.65
835.673	21.5
835.85	70.65
836.026	3.07
836.203	138.24
836.38	56.32
836.556	117.76
836.733	11.26
836.909	48.13
837.086	9.22
837.262	19.46
837.439	76.8
837.616	89.09
837.792	58.37
837.968	17.41
838.145	58.37
838.321	144.38
838.498	-52.22
838.674	101.37
838.851	74.75
839.027	48.13
839.203	39.94
839.38	15.36
839.556	58.37
839.732	48.13
839.909	31.74
840.085	140.29
840.261	-25.6
840.437	93.18
840.614	39.94
840.79	87.04
840.966	-25.6
841.142	39.94
841.318	46.08
841.494	111.61
841.671	21.5
841.847	64.51
842.023	78.85
842.199	68.61
842.375	68.61
842.551	97.28
842.727	80.89
842.903	70.65
843.079	-33.79
843.255	-15.36
843.431	41.98
843.607	37.89
843.783	-56.32
843.959	76.8
844.134	27.65
844.31	50.18
844.486	105.47
844.662	-3.07
844.838	39.94
845.013	58.37
845.189	54.27
845.365	-1.02
845.541	44.03
845.716	62.46
845.892	5.12
846.068	27.65
846.244	-3.07
846.419	1.02
846.595	70.65
846.77	41.98
846.946	-19.46
847.122	109.57
847.297	17.41
847.473	89.09
847.648	52.22
847.824	64.51
847.999	21.5
848.175	70.65
848.35	41.98
848.526	62.46
848.701	37.89
848.876	87.04
849.052	68.61
849.227	31.74
849.403	46.08
849.578	62.46
849.753	58.37
849.929	9.22
850.104	11.26
850.279	111.61
850.454	46.08
850.63	76.8
850.805	39.94
850.98	54.27
851.155	46.08
851.33	50.18
851.505	44.03
851.681	37.89
851.856	-15.36
852.031	115.71
852.206	-19.46
852.381	54.27
852.556	-3.07
852.731	48.13
852.906	41.98
853.081	99.33
853.256	13.31
853.431	54.27
853.606	52.22
853.781	-1.02
853.956	-17.41
854.131	-56.32
854.305	58.37
854.48	54.27
854.655	1.02
854.83	-41.98
855.005	37.89
855.18	107.52
855.354	46.08
855.529	-11.26
855.704	37.89
855.879	19.46
856.053	-5.12
856.228	33.79
856.403	7.17
856.577	31.74
856.752	87.04
856.926	-9.22
857.101	15.36
857.276	41.98
857.45	13.31
857.625	-9.22
857.799	-25.6
857.974	-15.36
858.148	41.98
858.323	13.31
858.497	1.02
858.672	-21.5
858.846	56.32
859.02	31.74
859.195	68.61
859.369	56.32
859.543	74.75
859.718	103.42
859.892	-52.22
860.066	25.6
860.241	25.6
860.415	-5.12
860.589	-17.41
860.763	13.31
860.938	9.22
861.112	17.41
861.286	44.03
861.46	-13.31
861.634	56.32
861.808	54.27
861.982	23.55
862.157	54.27
862.331	-27.65
862.505	74.75
862.679	-76.8
862.853	11.26
863.027	17.41
863.201	19.46
863.375	37.89
863.549	62.46
863.722	-7.17
863.896	89.09
864.07	9.22
864.244	31.74
864.418	-5.12
864.592	-35.84
864.766	7.17
864.939	48.13
865.113	17.41
865.287	-17.41
865.461	39.94
865.634	-11.26
865.808	11.26
865.982	3.07
866.156	58.37
866.329	54.27
866.503	48.13
866.676	23.55
866.85	29.7
867.024	31.74
867.197	68.61
867.371	-7.17
867.544	-46.08
867.718	33.79
867.891	-27.65
868.065	-3.07
868.238	29.7
868.412	29.7
868.585	17.41
868.759	99.33
868.932	56.32
869.105	50.18
869.279	-35.84
869.452	19.46
869.625	37.89
869.799	48.13
869.972	-17.41
870.145	27.65
870.319	25.6
870.492	23.55
870.665	7.17
870.838	-17.41
871.011	21.5
871.185	-52.22
871.358	80.89
871.531	21.5
871.704	39.94
871.877	13.31
872.05	-39.94
872.223	-15.36
872.396	-13.31
872.569	89.09
872.742	23.55
872.915	60.42
873.088	-21.5
873.261	54.27
873.434	3.07
873.607	9.22
873.78	3.07
873.953	-60.42
874.126	25.6
874.299	3.07
874.471	21.5
874.644	52.22
874.817	25.6
874.99	62.46
875.163	11.26
875.335	25.6
875.508	23.55
875.681	123.9
875.853	1.02
876.026	39.94
876.199	13.31
876.371	1.02
876.544	35.84
876.717	13.31
876.889	-7.17
877.062	7.17
877.234	37.89
877.407	68.61
877.579	-13.31
877.752	35.84
877.924	-1.02
878.097	99.33
878.269	58.37
878.442	46.08
878.614	3.07
878.786	27.65
878.959	62.46
879.131	-31.74
879.303	-17.41
879.476	56.32
879.648	35.84
879.82	64.51
879.993	-3.07
880.165	48.13
880.337	19.46
880.509	64.51
880.681	3.07
880.854	-9.22
881.026	-44.03
881.198	27.65
881.37	-37.89
881.542	74.75
881.714	70.65
881.886	-17.41
882.058	-25.6
882.23	-33.79
882.402	66.56
882.574	58.37
882.746	11.26
882.918	50.18
883.09	13.31
883.262	13.31
883.434	31.74
883.606	-3.07
883.778	5.12
883.95	50.18
884.122	35.84
884.293	80.89
884.465	7.17
884.637	17.41
884.809	-13.31
884.98	19.46
885.152	-7.17
885.324	-13.31
885.496	-35.84
885.667	35.84
885.839	58.37
886.011	78.85
886.182	95.23
886.354	-23.55
886.525	44.03
886.697	17.41
886.869	-54.27
887.04	-1.02
887.212	37.89
887.383	93.18
887.555	5.12
887.726	-33.79
887.897	-11.26
888.069	-11.26
888.24	-50.18
888.412	52.22
888.583	29.7
888.754	-11.26
888.926	-3.07
889.097	27.65
889.268	39.94
889.44	-23.55
889.611	-3.07
889.782	-3.07
889.953	19.46
890.125	7.17
890.296	56.32
890.467	-7.17
890.638	9.22
890.809	70.65
890.98	44.03
891.151	25.6
891.323	44.03
891.494	9.22
891.665	-21.5
891.836	35.84
892.007	3.07
892.178	21.5
892.349	-62.46
892.52	-3.07
892.691	-13.31
892.862	-54.27
893.032	-9.22
893.203	-39.94
893.374	-48.13
893.545	27.65
893.716	-48.13
893.887	5.12
894.057	19.46
894.228	33.79
894.399	25.6
894.57	-7.17
894.74	-7.17
894.911	13.31
895.082	7.17
895.253	41.98
895.423	7.17
895.594	37.89
895.764	-56.32
895.935	27.65
896.106	29.7
896.276	31.74
896.447	-1.02
896.617	-66.56
896.788	-9.22
896.958	-1.02
897.129	3.07
897.299	17.41
897.47	-50.18
897.64	13.31
897.81	-7.17
897.981	31.74
898.151	7.17
898.322	27.65
898.492	35.84
898.662	35.84
898.832	58.37
899.003	11.26
899.173	68.61
899.343	17.41
899.513	-72.7
