Data from USB4F104151__49__12-59-09-705.txt Node

Date: Fri Mar 14 12:59:09 EDT 2025
User: louis
Spectrometer: USB4F10415
Trigger mode: 4
Integration Time (sec): 1.000000E-2
Scans to average: 1
Electric dark correction enabled: true
Nonlinearity correction enabled: false
Boxcar width: 0
XAxis mode: Wavelengths
Number of Pixels in Spectrum: 3648
>>>>>Begin Spectral Data<<<<<
178.204	0
178.424	0
178.644	0
178.864	-90.11
179.084	-71.68
179.304	10.24
179.524	47.1
179.744	6.14
179.964	4.1
180.184	26.62
180.404	34.82
180.624	-8.19
180.844	-45.06
181.064	10.24
181.283	-104.45
181.503	-16.38
181.723	34.82
181.943	-83.97
182.163	34.82
182.383	-14.34
182.602	53.25
182.822	8.19
183.042	-4.1
183.262	-45.06
183.482	-22.53
183.701	22.53
183.921	61.44
184.141	38.91
184.361	100.35
184.58	-10.24
184.8	49.15
185.02	-22.53
185.239	61.44
185.459	51.2
185.679	49.15
185.898	-16.38
186.118	34.82
186.338	126.97
186.557	-32.77
186.777	34.82
186.997	65.54
187.216	57.34
187.436	8.19
187.655	-63.49
187.875	22.53
188.095	-8.19
188.314	8.19
188.534	45.06
188.753	-18.43
188.973	90.11
189.192	75.77
189.412	-32.77
189.631	77.82
189.851	28.67
190.07	4.1
190.29	12.29
190.509	16.38
190.729	108.54
190.948	38.91
191.168	83.97
191.387	96.25
191.607	34.82
191.826	57.34
192.045	24.58
192.265	14.34
192.484	20.48
192.704	40.96
192.923	-16.38
193.142	90.11
193.362	-18.43
193.581	106.49
193.8	-10.24
194.02	69.63
194.239	38.91
194.458	49.15
194.678	67.58
194.897	-47.1
195.116	8.19
195.335	20.48
195.555	22.53
195.774	36.86
195.993	49.15
196.212	71.68
196.432	-14.34
196.651	43.01
196.87	63.49
197.089	59.39
197.308	4.1
197.528	16.38
197.747	38.91
197.966	34.82
198.185	6.14
198.404	-26.62
198.623	14.34
198.842	0
199.062	-8.19
199.281	28.67
199.5	16.38
199.719	-12.29
199.938	47.1
200.157	-28.67
200.376	-24.58
200.595	2.05
200.814	-98.3
201.033	8.19
201.252	73.73
201.471	20.48
201.69	124.93
201.909	26.62
202.128	83.97
202.347	20.48
202.566	-4.1
202.785	28.67
203.004	10.24
203.223	92.16
203.442	32.77
203.661	16.38
203.879	51.2
204.098	6.14
204.317	34.82
204.536	38.91
204.755	26.62
204.974	8.19
205.193	28.67
205.411	51.2
205.63	90.11
205.849	-18.43
206.068	2.05
206.287	16.38
206.505	71.68
206.724	22.53
206.943	-14.34
207.162	49.15
207.381	-32.77
207.599	86.01
207.818	22.53
208.037	-8.19
208.255	49.15
208.474	-6.14
208.693	14.34
208.911	65.54
209.13	43.01
209.349	0
209.567	57.34
209.786	28.67
210.005	6.14
210.223	-8.19
210.442	-32.77
210.661	28.67
210.879	73.73
211.098	26.62
211.316	6.14
211.535	-12.29
211.753	-12.29
211.972	6.14
212.191	81.92
212.409	77.82
212.628	-20.48
212.846	-81.92
213.065	4.1
213.283	32.77
213.502	-38.91
213.72	24.58
213.938	67.58
214.157	30.72
214.375	69.63
214.594	92.16
214.812	10.24
215.031	81.92
215.249	92.16
215.467	51.2
215.686	67.58
215.904	30.72
216.122	-14.34
216.341	14.34
216.559	69.63
216.778	53.25
216.996	49.15
217.214	57.34
217.432	30.72
217.651	45.06
217.869	98.3
218.087	114.69
218.306	63.49
218.524	14.34
218.742	47.1
218.96	-32.77
219.179	4.1
219.397	8.19
219.615	90.11
219.833	32.77
220.051	26.62
220.27	98.3
220.488	59.39
220.706	28.67
220.924	30.72
221.142	-6.14
221.36	-8.19
221.578	2.05
221.796	6.14
222.015	26.62
222.233	0
222.451	-6.14
222.669	4.1
222.887	22.53
223.105	-57.34
223.323	-20.48
223.541	36.86
223.759	40.96
223.977	34.82
224.195	57.34
224.413	45.06
224.631	6.14
224.849	-18.43
225.067	8.19
225.285	43.01
225.503	94.21
225.721	-32.77
225.939	40.96
226.157	53.25
226.375	20.48
226.592	81.92
226.81	18.43
227.028	38.91
227.246	51.2
227.464	20.48
227.682	43.01
227.9	55.3
228.117	100.35
228.335	-4.1
228.553	71.68
228.771	10.24
228.989	36.86
229.206	6.14
229.424	43.01
229.642	28.67
229.86	-22.53
230.077	51.2
230.295	24.58
230.513	40.96
230.731	26.62
230.948	55.3
231.166	63.49
231.384	2.05
231.601	32.77
231.819	51.2
232.037	45.06
232.254	-4.1
232.472	73.73
232.689	30.72
232.907	43.01
233.125	-6.14
233.342	100.35
233.56	32.77
233.777	14.34
233.995	12.29
234.213	104.45
234.43	28.67
234.648	8.19
234.865	43.01
235.083	-4.1
235.3	-20.48
235.518	6.14
235.735	69.63
235.953	100.35
236.17	10.24
236.388	38.91
236.605	43.01
236.822	38.91
237.04	69.63
237.257	34.82
237.475	16.38
237.692	40.96
237.909	65.54
238.127	-14.34
238.344	45.06
238.562	26.62
238.779	26.62
238.996	43.01
239.214	32.77
239.431	18.43
239.648	28.67
239.865	61.44
240.083	57.34
240.3	-49.15
240.517	4.1
240.735	40.96
240.952	38.91
241.169	47.1
241.386	53.25
241.603	22.53
241.821	-14.34
242.038	57.34
242.255	36.86
242.472	10.24
242.689	8.19
242.907	118.78
243.124	43.01
243.341	24.58
243.558	43.01
243.775	47.1
243.992	-6.14
244.209	65.54
244.426	55.3
244.643	63.49
244.86	90.11
245.078	51.2
245.295	20.48
245.512	22.53
245.729	-20.48
245.946	8.19
246.163	45.06
246.38	36.86
246.597	-12.29
246.814	38.91
247.031	100.35
247.248	-16.38
247.464	16.38
247.681	114.69
247.898	26.62
248.115	98.3
248.332	-4.1
248.549	49.15
248.766	92.16
248.983	92.16
249.2	53.25
249.417	81.92
249.633	43.01
249.85	-6.14
250.067	0
250.284	114.69
250.501	38.91
250.717	24.58
250.934	28.67
251.151	53.25
251.368	2.05
251.585	51.2
251.801	51.2
252.018	26.62
252.235	-4.1
252.451	24.58
252.668	10.24
252.885	8.19
253.102	-30.72
253.318	47.1
253.535	12.29
253.752	55.3
253.968	-47.1
254.185	49.15
254.401	43.01
254.618	65.54
254.835	69.63
255.051	-22.53
255.268	34.82
255.484	28.67
255.701	20.48
255.917	61.44
256.134	22.53
256.351	6.14
256.567	67.58
256.784	32.77
257	-24.58
257.217	65.54
257.433	20.48
257.65	-16.38
257.866	38.91
258.082	-94.21
258.299	69.63
258.515	51.2
258.732	26.62
258.948	18.43
259.165	63.49
259.381	4.1
259.597	12.29
259.814	0
260.03	-22.53
260.246	-2.05
260.463	-6.14
260.679	0
260.895	28.67
261.112	81.92
261.328	-6.14
261.544	-8.19
261.761	124.93
261.977	6.14
262.193	-14.34
262.409	81.92
262.626	20.48
262.842	57.34
263.058	36.86
263.274	40.96
263.49	28.67
263.707	24.58
263.923	28.67
264.139	32.77
264.355	-2.05
264.571	16.38
264.787	34.82
265.004	77.82
265.22	45.06
265.436	-38.91
265.652	0
265.868	-16.38
266.084	-2.05
266.3	79.87
266.516	43.01
266.732	8.19
266.948	22.53
267.164	92.16
267.38	8.19
267.596	61.44
267.812	10.24
268.028	98.3
268.244	16.38
268.46	34.82
268.676	77.82
268.892	36.86
269.108	90.11
269.324	108.54
269.54	6.14
269.756	30.72
269.972	34.82
270.188	51.2
270.403	43.01
270.619	2.05
270.835	96.25
271.051	92.16
271.267	-30.72
271.483	83.97
271.698	36.86
271.914	49.15
272.13	30.72
272.346	69.63
272.562	36.86
272.777	69.63
272.993	-14.34
273.209	-10.24
273.425	14.34
273.64	-2.05
273.856	65.54
274.072	57.34
274.287	53.25
274.503	40.96
274.719	83.97
274.934	-2.05
275.15	45.06
275.366	43.01
275.581	22.53
275.797	-30.72
276.012	24.58
276.228	40.96
276.444	6.14
276.659	63.49
276.875	-36.86
277.09	28.67
277.306	38.91
277.521	8.19
277.737	-30.72
277.952	2.05
278.168	92.16
278.383	14.34
278.599	40.96
278.814	53.25
279.03	59.39
279.245	90.11
279.461	2.05
279.676	90.11
279.892	108.54
280.107	14.34
280.322	28.67
280.538	0
280.753	51.2
280.969	-18.43
281.184	14.34
281.399	28.67
281.615	0
281.83	47.1
282.045	-8.19
282.26	92.16
282.476	38.91
282.691	40.96
282.906	59.39
283.122	38.91
283.337	4.1
283.552	14.34
283.767	34.82
283.983	63.49
284.198	32.77
284.413	28.67
284.628	47.1
284.843	34.82
285.058	63.49
285.274	0
285.489	-10.24
285.704	69.63
285.919	-10.24
286.134	32.77
286.349	36.86
286.564	26.62
286.779	-20.48
286.995	24.58
287.21	6.14
287.425	94.21
287.64	18.43
287.855	51.2
288.07	-10.24
288.285	34.82
288.5	53.25
288.715	45.06
288.93	-8.19
289.145	106.49
289.36	65.54
289.575	-36.86
289.79	86.01
290.004	40.96
290.219	18.43
290.434	26.62
290.649	32.77
290.864	-32.77
291.079	0
291.294	-24.58
291.509	94.21
291.724	18.43
291.938	20.48
292.153	61.44
292.368	10.24
292.583	0
292.798	45.06
293.012	69.63
293.227	20.48
293.442	32.77
293.657	43.01
293.871	0
294.086	-26.62
294.301	28.67
294.516	45.06
294.73	22.53
294.945	16.38
295.16	79.87
295.374	77.82
295.589	59.39
295.804	55.3
296.018	34.82
296.233	38.91
296.447	77.82
296.662	55.3
296.877	71.68
297.091	20.48
297.306	14.34
297.52	24.58
297.735	51.2
297.949	-6.14
298.164	22.53
298.378	-47.1
298.593	32.77
298.807	81.92
299.022	73.73
299.236	-40.96
299.451	75.77
299.665	10.24
299.88	45.06
300.094	-12.29
300.309	57.34
300.523	57.34
300.737	40.96
300.952	61.44
301.166	43.01
301.381	53.25
301.595	0
301.809	-14.34
302.024	-14.34
302.238	22.53
302.452	8.19
302.667	83.97
302.881	0
303.095	65.54
303.309	8.19
303.524	36.86
303.738	16.38
303.952	-4.1
304.166	0
304.381	94.21
304.595	65.54
304.809	-2.05
305.023	-8.19
305.237	49.15
305.452	-26.62
305.666	94.21
305.88	2.05
306.094	8.19
306.308	28.67
306.522	10.24
306.736	0
306.95	14.34
307.164	69.63
307.379	16.38
307.593	122.88
307.807	-28.67
308.021	24.58
308.235	-2.05
308.449	26.62
308.663	-2.05
308.877	49.15
309.091	8.19
309.305	-4.1
309.519	114.69
309.733	24.58
309.947	30.72
310.161	-10.24
310.374	73.73
310.588	75.77
310.802	47.1
311.016	-12.29
311.23	57.34
311.444	26.62
311.658	71.68
311.872	57.34
312.085	2.05
312.299	43.01
312.513	40.96
312.727	2.05
312.941	-26.62
313.154	16.38
313.368	6.14
313.582	57.34
313.796	10.24
314.009	-24.58
314.223	24.58
314.437	53.25
314.651	104.45
314.864	40.96
315.078	47.1
315.292	98.3
315.505	8.19
315.719	40.96
315.933	108.54
316.146	-2.05
316.36	24.58
316.573	14.34
316.787	10.24
317.001	20.48
317.214	40.96
317.428	32.77
317.641	51.2
317.855	20.48
318.068	-65.54
318.282	18.43
318.495	-8.19
318.709	67.58
318.922	36.86
319.136	51.2
319.349	-14.34
319.563	-8.19
319.776	59.39
319.99	-43.01
320.203	-22.53
320.417	6.14
320.63	47.1
320.843	55.3
321.057	-16.38
321.27	22.53
321.483	53.25
321.697	90.11
321.91	-34.82
322.124	65.54
322.337	100.35
322.55	49.15
322.763	51.2
322.977	30.72
323.19	26.62
323.403	63.49
323.617	47.1
323.83	69.63
324.043	59.39
324.256	43.01
324.469	36.86
324.683	106.49
324.896	-55.3
325.109	65.54
325.322	-20.48
325.535	-16.38
325.748	-40.96
325.962	100.35
326.175	90.11
326.388	43.01
326.601	36.86
326.814	63.49
327.027	69.63
327.24	65.54
327.453	20.48
327.666	45.06
327.879	20.48
328.092	55.3
328.305	-36.86
328.518	69.63
328.731	45.06
328.944	75.77
329.157	-22.53
329.37	83.97
329.583	63.49
329.796	81.92
330.009	-14.34
330.222	18.43
330.435	110.59
330.648	79.87
330.861	-16.38
331.073	30.72
331.286	67.58
331.499	32.77
331.712	8.19
331.925	12.29
332.138	-12.29
332.35	147.45
332.563	28.67
332.776	32.77
332.989	28.67
333.202	40.96
333.414	12.29
333.627	47.1
333.84	30.72
334.053	-34.82
334.265	24.58
334.478	57.34
334.691	-4.1
334.903	32.77
335.116	-40.96
335.329	32.77
335.541	32.77
335.754	53.25
335.966	45.06
336.179	-18.43
336.392	0
336.604	16.38
336.817	30.72
337.029	86.01
337.242	100.35
337.454	69.63
337.667	88.06
337.88	-6.14
338.092	40.96
338.305	-40.96
338.517	16.38
338.729	88.06
338.942	22.53
339.154	-16.38
339.367	-32.77
339.579	96.25
339.792	34.82
340.004	32.77
340.217	6.14
340.429	14.34
340.641	40.96
340.854	20.48
341.066	53.25
341.278	8.19
341.491	45.06
341.703	36.86
341.915	65.54
342.128	43.01
342.34	6.14
342.552	55.3
342.764	57.34
342.977	-10.24
343.189	-2.05
343.401	10.24
343.613	-4.1
343.826	38.91
344.038	69.63
344.25	47.1
344.462	38.91
344.674	90.11
344.886	49.15
345.099	-10.24
345.311	38.91
345.523	69.63
345.735	-36.86
345.947	57.34
346.159	30.72
346.371	51.2
346.583	63.49
346.795	67.58
347.007	40.96
347.219	10.24
347.431	51.2
347.643	34.82
347.855	20.48
348.067	110.59
348.279	30.72
348.491	-22.53
348.703	20.48
348.915	26.62
349.127	12.29
349.339	24.58
349.551	110.59
349.763	43.01
349.975	20.48
350.187	81.92
350.399	2.05
350.61	86.01
350.822	47.1
351.034	49.15
351.246	55.3
351.458	6.14
351.669	47.1
351.881	-2.05
352.093	53.25
352.305	36.86
352.517	20.48
352.728	49.15
352.94	77.82
353.152	34.82
353.363	40.96
353.575	53.25
353.787	55.3
353.999	6.14
354.21	32.77
354.422	65.54
354.633	34.82
354.845	20.48
355.057	122.88
355.268	71.68
355.48	49.15
355.692	61.44
355.903	69.63
356.115	38.91
356.326	-4.1
356.538	94.21
356.749	-22.53
356.961	22.53
357.172	49.15
357.384	4.1
357.595	-18.43
357.807	18.43
358.018	86.01
358.23	34.82
358.441	40.96
358.653	75.77
358.864	-20.48
359.075	49.15
359.287	-47.1
359.498	20.48
359.709	-10.24
359.921	10.24
360.132	12.29
360.344	61.44
360.555	47.1
360.766	55.3
360.977	-79.87
361.189	83.97
361.4	77.82
361.611	22.53
361.823	49.15
362.034	83.97
362.245	77.82
362.456	75.77
362.667	47.1
362.879	-32.77
363.09	10.24
363.301	67.58
363.512	-2.05
363.723	100.35
363.935	-28.67
364.146	4.1
364.357	2.05
364.568	53.25
364.779	4.1
364.99	57.34
365.201	4.1
365.412	92.16
365.623	6.14
365.834	73.73
366.045	90.11
366.256	83.97
366.467	40.96
366.678	14.34
366.889	-2.05
367.1	-28.67
367.311	51.2
367.522	-8.19
367.733	32.77
367.944	40.96
368.155	83.97
368.366	114.69
368.577	22.53
368.788	61.44
368.999	-14.34
369.209	51.2
369.42	92.16
369.631	161.79
369.842	45.06
370.053	12.29
370.264	40.96
370.474	57.34
370.685	24.58
370.896	57.34
371.107	36.86
371.317	53.25
371.528	71.68
371.739	61.44
371.95	47.1
372.16	81.92
372.371	36.86
372.582	38.91
372.792	34.82
373.003	26.62
373.214	30.72
373.424	20.48
373.635	-10.24
373.846	77.82
374.056	51.2
374.267	8.19
374.477	6.14
374.688	73.73
374.898	98.3
375.109	49.15
375.319	88.06
375.53	59.39
375.74	75.77
375.951	57.34
376.161	73.73
376.372	69.63
376.582	43.01
376.793	94.21
377.003	32.77
377.214	61.44
377.424	24.58
377.635	69.63
377.845	45.06
378.055	-28.67
378.266	36.86
378.476	86.01
378.686	-2.05
378.897	18.43
379.107	2.05
379.317	30.72
379.528	92.16
379.738	34.82
379.948	0
380.158	10.24
380.369	32.77
380.579	67.58
380.789	40.96
380.999	69.63
381.21	36.86
381.42	63.49
381.63	-34.82
381.84	81.92
382.05	30.72
382.261	61.44
382.471	55.3
382.681	88.06
382.891	106.49
383.101	73.73
383.311	34.82
383.521	92.16
383.731	61.44
383.941	55.3
384.151	4.1
384.361	102.4
384.571	32.77
384.781	-20.48
384.991	59.39
385.201	77.82
385.411	16.38
385.621	16.38
385.831	45.06
386.041	47.1
386.251	32.77
386.461	131.07
386.671	40.96
386.881	67.58
387.091	-2.05
387.301	83.97
387.511	94.21
387.72	47.1
387.93	18.43
388.14	51.2
388.35	55.3
388.56	79.87
388.769	18.43
388.979	75.77
389.189	18.43
389.399	79.87
389.609	14.34
389.818	26.62
390.028	57.34
390.238	55.3
390.447	145.41
390.657	77.82
390.867	81.92
391.076	47.1
391.286	71.68
391.496	49.15
391.705	45.06
391.915	57.34
392.125	90.11
392.334	51.2
392.544	83.97
392.753	43.01
392.963	110.59
393.172	55.3
393.382	118.78
393.591	106.49
393.801	63.49
394.01	92.16
394.22	-16.38
394.429	30.72
394.639	63.49
394.848	81.92
395.058	53.25
395.267	77.82
395.477	100.35
395.686	12.29
395.895	28.67
396.105	75.77
396.314	49.15
396.524	40.96
396.733	88.06
396.942	38.91
397.152	-40.96
397.361	55.3
397.57	32.77
397.78	81.92
397.989	61.44
398.198	108.54
398.407	69.63
398.617	75.77
398.826	53.25
399.035	77.82
399.244	92.16
399.453	49.15
399.663	118.78
399.872	-10.24
400.081	61.44
400.29	124.93
400.499	90.11
400.708	96.25
400.917	53.25
401.127	114.69
401.336	69.63
401.545	120.83
401.754	141.31
401.963	118.78
402.172	67.58
402.381	79.87
402.59	8.19
402.799	40.96
403.008	59.39
403.217	114.69
403.426	38.91
403.635	88.06
403.844	102.4
404.053	53.25
404.262	145.41
404.471	32.77
404.68	86.01
404.888	110.59
405.097	102.4
405.306	36.86
405.515	133.12
405.724	102.4
405.933	143.36
406.142	100.35
406.35	104.45
406.559	135.17
406.768	131.07
406.977	215.04
407.185	149.5
407.394	137.21
407.603	161.79
407.812	178.17
408.02	178.17
408.229	124.93
408.438	151.55
408.646	192.51
408.855	165.89
409.064	133.12
409.272	206.84
409.481	180.22
409.69	153.6
409.898	188.41
410.107	264.19
410.315	192.51
410.524	153.6
410.733	219.13
410.941	235.52
411.15	270.33
411.358	210.94
411.567	290.81
411.775	292.86
411.984	315.39
412.192	217.08
412.401	282.62
412.609	327.67
412.818	350.2
413.026	309.24
413.234	303.1
413.443	335.87
413.651	294.91
413.86	270.33
414.068	354.3
414.276	354.3
414.485	360.44
414.693	364.54
414.901	436.22
415.11	430.07
415.318	471.03
415.526	466.94
415.734	468.98
415.943	415.74
416.151	471.03
416.359	466.94
416.567	540.66
416.776	507.9
416.984	649.21
417.192	626.68
417.4	593.91
417.608	636.92
417.817	708.6
418.025	638.97
418.233	649.21
418.441	684.02
418.649	729.08
418.857	796.66
419.065	823.28
419.273	794.61
419.481	845.81
419.689	923.63
419.897	901.11
420.105	956.4
420.313	944.11
420.521	952.31
420.729	905.2
420.937	954.35
421.145	1050.61
421.353	1114.1
421.561	1202.16
421.769	1243.12
421.977	1198.06
422.185	1220.59
422.393	1409
422.601	1306.6
422.809	1341.42
423.017	1384.43
423.224	1445.87
423.432	1460.2
423.64	1501.16
423.848	1621.99
424.056	1507.31
424.263	1761.25
424.471	1630.18
424.679	1837.03
424.887	1773.54
425.094	1888.23
425.302	1927.14
425.51	1992.67
425.718	2033.63
425.925	1912.8
426.133	2103.26
426.341	2260.96
426.548	2195.42
426.756	2250.72
426.964	2381.79
427.171	2594.78
427.379	2613.21
427.586	2629.59
427.794	2719.7
428.001	2826.2
428.209	3002.32
428.417	2920.4
428.624	3143.63
428.832	3106.77
429.039	3057.62
429.247	3117.01
429.454	3354.57
429.662	3626.95
429.869	3385.29
430.076	3540.94
430.284	3375.05
430.491	3731.4
430.699	3868.61
430.906	3991.49
431.114	3993.54
431.321	3975.11
431.528	4167.62
431.736	4452.28
431.943	4591.55
432.15	4519.87
432.358	4571.07
432.565	4759.48
432.772	4710.33
432.979	4931.51
433.187	4984.76
433.394	4990.9
433.601	5466.03
433.808	5498.8
434.016	5511.08
434.223	5719.98
434.43	6084.52
434.637	5871.53
434.844	6268.83
435.052	6539.16
435.259	6268.83
435.466	6481.82
435.673	6266.78
435.88	6741.91
436.087	6938.52
436.294	7053.2
436.501	6948.76
436.708	7268.24
436.915	7145.36
437.122	7573.39
437.329	7518.09
437.537	7845.77
437.743	7987.08
437.95	7909.26
438.157	8372.1
438.364	8554.37
438.571	8513.41
438.778	8841.08
438.985	9344.88
439.192	9123.7
439.399	9439.09
439.606	9293.68
439.813	9695.08
440.02	10192.74
440.227	10186.6
440.433	9983.85
440.64	10485.6
440.847	10415.97
441.054	10514.27
441.261	11292.5
441.467	11083.61
441.674	11587.41
441.881	11792.2
442.088	11865.93
442.294	11732.81
442.501	11994.95
442.708	12412.74
442.914	12810.04
443.121	13336.37
443.328	12951.35
443.534	13698.86
443.741	13373.24
443.948	13373.24
444.154	14487.33
444.361	13942.57
444.568	14411.56
444.774	14110.5
444.981	14612.26
445.187	14806.81
445.394	15433.49
445.6	15468.31
445.807	17108.73
446.013	16164.62
446.22	16809.73
446.426	17202.94
446.633	17112.83
446.839	17862.38
447.046	16801.54
447.252	18161.39
447.459	18345.7
447.665	18118.38
447.871	18730.72
448.078	19592.92
448.284	18755.3
448.491	19187.42
448.697	19996.37
448.903	20283.08
449.11	20461.26
449.316	19924.69
449.522	20776.64
449.728	21368.51
449.935	21440.18
450.141	21153.47
450.347	21810.87
450.553	20913.86
450.76	21604.02
450.966	22277.8
451.172	21675.7
451.378	22478.5
451.584	22017.71
451.791	22525.61
451.997	22472.36
452.203	23162.53
452.409	23000.74
452.615	22496.94
452.821	21974.7
453.027	21864.11
453.233	22943.39
453.44	22470.31
453.646	22367.91
453.852	22564.52
454.058	22574.76
454.264	21849.78
454.47	22462.12
454.676	21929.65
454.882	22791.84
455.088	20797.12
455.294	21282.49
455.5	21339.83
455.705	21577.4
455.911	20831.94
456.117	20586.18
456.323	20094.67
456.529	19214.04
456.735	20078.29
456.941	19554.01
457.147	19070.68
457.352	18413.29
457.558	18417.38
457.764	18669.28
457.97	18122.48
458.176	17444.6
458.381	17587.96
458.587	16819.97
458.793	16791.3
458.999	15920.91
459.204	16883.45
459.41	16723.71
459.616	15619.86
459.821	15517.46
460.027	15458.07
460.233	14929.69
460.438	14360.36
460.644	14464.8
460.85	14102.31
461.055	13647.66
461.261	13825.84
461.466	12801.85
461.672	12209.99
461.878	13150.01
462.083	12187.46
462.289	12083.02
462.494	12046.15
462.7	11568.98
462.905	10919.77
463.111	11542.35
463.316	11513.68
463.522	11360.08
463.727	11333.46
463.932	11329.36
464.138	11198.29
464.343	10993.5
464.549	10649.44
464.754	11347.79
464.959	11110.23
465.165	11210.58
465.37	10602.33
465.575	10360.67
465.781	10694.49
465.986	10862.43
466.191	10336.1
466.397	10258.28
466.602	9637.74
466.807	10002.28
467.012	10192.74
467.218	9965.42
467.423	10051.43
467.628	10051.43
467.833	10501.98
468.038	10133.35
468.244	9811.82
468.449	10205.03
468.654	9850.73
468.859	9863.02
469.064	9713.52
469.269	9351.03
469.474	9371.5
469.679	9512.81
469.885	9301.87
470.09	9627.5
470.295	9301.87
470.5	9269.11
470.705	9275.25
470.91	9179
471.115	8974.2
471.32	8879.99
471.525	8961.91
471.73	8853.37
471.935	8845.18
472.139	8568.7
472.344	8599.42
472.549	8513.41
472.754	8382.34
472.959	8142.72
473.164	8021.89
473.369	8087.43
473.574	8329.09
473.778	7997.32
473.983	8183.68
474.188	8052.61
474.393	7720.84
474.598	7810.95
474.802	7688.07
475.007	7554.96
475.212	7651.21
475.417	7323.54
475.621	7286.67
475.826	7315.34
476.031	7262.1
476.235	7083.92
476.44	7301.01
476.645	7063.44
476.849	7045.01
477.054	6905.75
477.259	6883.22
477.463	6850.46
477.668	6711.19
477.872	6774.68
478.077	6520.73
478.282	6508.44
478.486	6393.76
478.691	6537.12
478.895	6383.52
479.1	6422.43
479.304	6455.2
479.509	6221.73
479.713	6242.21
479.918	6135.71
480.122	6121.38
480.326	6184.87
480.531	6197.15
480.735	6293.41
480.94	6176.67
481.144	6219.68
481.348	5955.49
481.553	6111.14
481.757	5922.73
481.961	6004.64
482.166	6041.51
482.37	5920.68
482.574	5879.72
482.778	5982.12
482.983	5926.82
483.187	6023.08
483.391	5920.68
483.595	5830.57
483.8	5726.12
484.004	5937.06
484.208	6031.27
484.412	5722.02
484.616	5877.67
484.821	5932.97
485.025	5904.29
485.229	6053.8
485.433	5941.16
485.637	6004.64
485.841	5679.02
486.045	5932.97
486.249	6014.88
486.453	6000.55
486.657	6115.23
486.861	5955.49
487.065	5728.17
487.269	5722.02
487.473	5918.63
487.677	5975.97
487.881	6023.08
488.085	5963.68
488.289	5898.15
488.493	5949.35
488.697	6098.85
488.901	6008.74
489.105	6041.51
489.309	6070.18
489.512	6033.32
489.716	6160.29
489.92	6041.51
490.124	6061.99
490.328	6203.3
490.531	5973.92
490.735	6100.9
490.939	6000.55
491.143	6014.88
491.346	6021.03
491.55	6342.56
491.754	6307.74
491.958	6252.45
492.161	6229.92
492.365	6393.76
492.569	6143.91
492.772	6176.67
492.976	6303.65
493.18	6539.16
493.383	6553.5
493.587	6700.95
493.79	6664.09
493.994	6449.05
494.197	6621.08
494.401	6703
494.605	6631.32
494.808	6786.97
495.012	6862.74
495.215	7002.01
495.419	6991.77
495.622	6897.56
495.825	7012.24
496.029	6944.66
496.232	7399.31
496.436	7069.59
496.639	7395.22
496.843	7212.95
497.046	7456.65
497.249	7520.14
497.453	7454.61
497.656	7530.38
497.859	7667.6
498.063	7632.78
498.266	7899.02
498.469	7997.32
498.673	7896.97
498.876	8124.29
499.079	8296.32
499.282	8169.35
499.485	8445.82
499.689	8443.78
499.892	8546.17
500.095	8681.34
500.298	8793.98
500.501	8707.96
500.705	8953.72
500.908	9019.25
501.111	9246.58
501.314	9308.02
501.517	9488.24
501.72	9455.47
501.923	9543.53
502.126	9834.35
502.329	9971.56
502.532	9856.87
502.735	10094.44
502.938	10221.41
503.141	10379.11
503.344	10641.25
503.547	10602.33
503.75	10631.01
503.953	10794.84
504.156	10977.11
504.359	10817.37
504.562	11134.81
504.765	11179.86
504.968	11542.35
505.17	11650.89
505.373	11671.37
505.576	11923.27
505.779	11964.23
505.982	12091.21
506.185	12339.01
506.387	12281.67
506.59	12576.58
506.793	12914.49
506.996	12654.4
507.198	13162.3
507.401	12969.79
507.604	13164.34
507.807	13557.55
508.009	13770.54
508.212	13598.51
508.415	13987.63
508.617	14221.09
508.82	14235.43
509.022	14001.96
509.225	14403.36
509.428	14597.92
509.63	14792.48
509.833	14937.88
510.035	15509.27
510.238	15214.36
510.44	15384.34
510.643	15752.98
510.845	15890.19
511.048	15810.32
511.25	16148.23
511.453	16340.74
511.655	16682.75
511.858	16604.93
512.06	16596.74
512.262	17014.52
512.465	17092.35
512.667	17381.11
512.87	17340.15
513.072	17612.53
513.274	17997.55
513.477	18116.33
513.679	18497.25
513.881	18530.02
514.084	18917.09
514.286	18755.3
514.488	19111.64
514.69	19482.33
514.893	19431.13
515.095	19646.16
515.297	19877.58
515.499	19857.1
515.701	20180.68
515.904	20537.03
516.106	20293.32
516.308	20586.18
516.51	21006.02
516.712	20952.77
516.914	21264.06
517.116	21800.63
517.318	21659.32
517.52	21862.07
517.722	22136.49
517.925	22185.65
518.127	22800.04
518.329	22797.99
518.531	22566.57
518.733	23516.83
518.935	23692.95
519.136	23535.26
519.338	23717.53
519.54	24016.53
519.742	24360.59
519.944	24473.23
520.146	24635.02
520.348	24927.88
520.55	25261.69
520.752	25001.6
520.954	25564.79
521.155	25292.41
521.357	25640.57
521.559	26101.36
521.761	26414.7
521.963	26314.35
522.164	26410.6
522.366	26543.72
522.568	26744.42
522.77	27186.79
522.971	27502.17
523.173	27334.24
523.375	27876.95
523.576	27868.76
523.778	27606.62
523.98	28046.93
524.181	28200.53
524.383	28413.52
524.584	28567.12
524.786	28804.68
524.988	28909.13
525.189	29255.23
525.391	29748.79
525.592	29480.51
525.794	29443.65
525.995	29693.5
526.197	29566.52
526.398	29799.99
526.6	29908.54
526.801	30105.14
527.003	30326.32
527.204	30025.27
527.406	30654
527.607	30580.27
527.808	30846.51
528.01	30481.97
528.211	30524.97
528.412	30909.99
528.614	30934.57
528.815	30957.1
529.016	31497.76
529.218	31399.46
529.419	31163.94
529.62	31274.53
529.822	31514.14
530.023	31508
530.224	31495.71
530.425	31567.39
530.626	31313.44
530.828	31256.1
531.029	32228.88
531.23	31751.71
531.431	31755.8
531.632	31991.32
531.833	31868.44
532.035	31866.39
532.236	31970.84
532.437	32443.92
532.638	32026.14
532.839	32249.36
533.04	32513.55
533.241	32132.63
533.442	32443.92
533.643	32318.99
533.844	32095.77
534.045	32534.03
534.246	31905.31
534.447	32339.47
534.648	32359.95
534.849	32427.54
535.05	32220.69
535.251	32376.34
535.451	32259.6
535.652	32615.95
535.853	32425.49
536.054	32658.96
536.255	32499.22
536.456	32130.58
536.657	32577.04
536.857	32454.16
537.058	32345.62
537.259	32783.88
537.46	32427.54
537.66	32445.97
537.861	32755.21
538.062	32462.35
538.263	32613.9
538.463	32441.87
538.664	32323.09
538.865	32546.32
539.065	32808.46
539.266	32505.36
539.466	33033.74
539.667	32269.84
539.868	32773.64
540.068	32871.95
540.269	32187.92
540.469	32448.02
540.67	32552.46
540.87	32169.49
541.071	32534.03
541.271	32366.1
541.472	32347.67
541.672	32325.14
541.873	32302.61
542.073	31923.74
542.274	32951.82
542.474	32333.33
542.675	32658.96
542.875	32396.82
543.075	32620.05
543.276	32343.57
543.476	32892.43
543.676	32394.77
543.877	32411.15
544.077	32290.32
544.277	32409.11
544.478	32181.78
544.678	32484.88
544.878	32570.89
545.078	32534.03
545.279	32261.65
545.479	32159.25
545.679	32325.14
545.879	32372.24
546.079	32503.31
546.28	32161.3
546.48	32275.99
546.68	32120.34
546.88	32448.02
547.08	32316.95
547.28	32318.99
547.48	31794.71
547.68	32228.88
547.88	32261.65
548.081	32382.48
548.281	31876.63
548.481	31911.45
548.681	32505.36
548.881	32341.52
549.081	32247.32
549.28	31890.97
549.48	32435.73
549.68	32108.05
549.88	32775.69
550.08	32194.07
550.28	32243.22
550.48	32060.95
550.68	32339.47
550.88	32069.14
551.08	32069.14
551.279	32644.62
551.479	31915.54
551.679	32007.7
551.879	32071.19
552.079	32294.42
552.278	32050.71
552.478	31931.93
552.678	31870.49
552.878	32343.57
553.077	31968.79
553.277	31731.23
553.477	32218.64
553.676	31776.28
553.876	31831.58
554.076	31764
554.275	31815.19
554.475	31553.05
554.674	31852.06
554.874	32024.09
555.074	31622.69
555.273	31794.71
555.473	31819.29
555.672	31667.74
555.872	31764
556.071	31835.67
556.271	31759.9
556.47	31895.07
556.67	31235.62
556.869	31378.98
557.068	32042.52
557.268	31469.09
557.467	31467.04
557.667	31542.81
557.866	31473.18
558.065	31432.22
558.265	31460.9
558.464	31303.2
558.663	31252
558.863	30891.56
559.062	31708.7
559.261	31213.09
559.461	31471.14
559.66	30819.88
559.859	30914.09
560.058	30768.68
560.258	30938.66
560.457	30817.83
560.656	31335.97
560.855	30567.98
561.054	30936.62
561.253	30633.52
561.453	30500.4
561.652	30604.84
561.851	30889.51
562.05	30490.16
562.249	30225.97
562.448	30778.92
562.647	30602.8
562.846	30203.44
563.045	30643.76
563.244	30228.02
563.443	30365.23
563.642	29943.35
563.841	30182.96
564.04	29961.78
564.239	30287.41
564.438	29578.81
564.637	30297.65
564.836	30021.17
565.035	29726.27
565.234	29955.64
565.432	29572.67
565.631	29703.74
565.83	29750.84
566.029	29435.45
566.228	29447.74
566.427	29541.95
566.625	29085.25
566.824	29167.17
567.023	29449.79
567.222	28999.24
567.42	29154.88
567.619	29189.7
567.818	29111.88
568.016	29220.42
568.215	29367.87
568.414	29111.88
568.612	29122.12
568.811	28534.35
569.01	28792.39
569.208	28503.63
569.407	28878.41
569.605	28347.98
569.804	28569.16
570.002	28540.49
570.201	28522.06
570.4	28153.43
570.598	27987.54
570.797	27856.47
570.995	28335.7
571.193	27858.52
571.392	28057.17
571.59	27706.97
571.789	27805.27
571.987	27684.44
572.186	27616.86
572.384	27565.66
572.582	27991.64
572.781	27485.79
572.979	27219.55
573.177	27117.15
573.376	27414.11
573.574	27117.15
573.772	27385.44
573.971	26652.27
574.169	26838.63
574.367	27225.7
574.565	27113.06
574.763	26885.73
574.962	26875.49
575.16	26400.37
575.358	26906.21
575.556	26271.34
575.754	26707.56
575.952	26152.56
576.151	26656.36
576.349	26009.2
576.547	26371.69
576.745	26164.85
576.943	26250.86
577.141	26181.23
577.339	26230.38
577.537	25986.68
577.735	25970.29
577.933	25570.94
578.131	25794.17
578.329	25470.59
578.527	25562.75
578.725	25415.29
578.923	25337.47
579.121	25355.9
579.319	25478.78
579.516	25325.18
579.714	25081.47
579.912	25067.14
580.11	25036.42
580.308	25093.76
580.506	25058.95
580.704	24817.29
580.901	24796.81
581.099	25075.33
581.297	24491.66
581.495	24436.36
581.692	24542.86
581.89	24526.47
582.088	24641.16
582.285	24327.82
582.483	24139.41
582.681	24485.51
582.878	24250
583.076	24061.58
583.274	24180.37
583.471	23817.88
583.669	23852.69
583.866	23760.53
584.064	23889.56
584.262	23279.26
584.459	23842.45
584.657	23393.95
584.854	23449.24
585.052	22984.35
585.249	23303.84
585.447	23518.87
585.644	23432.86
585.841	23160.48
586.039	23498.39
586.236	22970.02
586.434	22902.43
586.631	22881.95
586.828	22963.87
587.026	23023.26
587.223	22644.39
587.42	22531.75
587.618	22666.92
587.815	22740.64
588.012	22392.49
588.21	22558.38
588.407	22570.66
588.604	22335.15
588.801	22353.58
588.999	22101.68
589.196	22118.06
589.393	22044.34
589.59	22197.93
589.787	21986.99
589.984	21708.47
590.182	21745.33
590.379	21743.28
590.576	21677.75
590.773	21669.56
590.97	21669.56
591.167	21616.31
591.364	21278.4
591.561	21946.03
591.758	21198.52
591.955	20899.52
592.152	21407.42
592.349	21176
592.546	21384.89
592.743	21034.69
592.94	20938.43
593.137	20881.09
593.334	20876.99
593.531	20510.41
593.727	20784.83
593.924	20944.58
594.121	20545.22
594.318	20526.79
594.515	20276.94
594.712	20463.3
594.908	20307.66
595.105	20496.07
595.302	20113.1
595.499	20162.25
595.696	20233.93
595.892	19967.7
596.089	20229.84
596.286	20221.64
596.482	19936.98
596.679	19744.47
596.876	19971.79
597.072	19687.12
597.269	19736.27
597.466	19338.97
597.662	19744.47
597.859	19521.24
598.055	19236.57
598.252	19361.5
598.448	19291.87
598.645	19465.94
598.841	18765.54
599.038	18953.95
599.234	19037.92
599.431	19005.15
599.627	18745.06
599.824	19056.35
600.02	18960.09
600.217	18945.76
600.413	18806.5
600.609	18865.89
600.806	18392.81
601.002	18841.31
601.198	18587.36
601.395	18415.33
601.591	18708.19
601.787	18616.04
601.984	18482.92
602.18	18466.53
602.376	18257.64
602.572	18167.53
602.769	18063.08
602.965	18032.36
603.161	18276.07
603.357	18099.95
603.553	17903.34
603.75	17835.76
603.946	17741.55
604.142	17692.4
604.338	17520.37
604.534	17673.97
604.73	17481.46
604.926	17432.31
605.122	17358.58
605.318	17522.42
605.514	17080.06
605.71	17215.23
605.906	17323.77
606.102	17202.94
606.298	17000.19
606.494	17057.53
606.69	17106.68
606.886	17336.06
607.082	16676.61
607.278	16971.52
607.474	16862.97
607.67	17022.72
607.866	16674.56
608.062	16942.85
608.257	16817.92
608.453	16641.79
608.649	16500.48
608.845	16592.64
609.041	16539.4
609.236	16611.07
609.432	16260.87
609.628	16324.36
609.824	16463.62
610.019	16312.07
610.215	16281.35
610.411	16457.48
610.606	16008.97
610.802	16330.5
610.998	16115.47
611.193	16201.48
611.389	15888.14
611.584	16371.46
611.78	16080.65
611.976	15730.45
612.171	15984.4
612.367	15920.91
612.562	16017.16
612.758	15867.66
612.953	15615.76
613.149	15953.68
613.344	15558.42
613.539	15662.86
613.735	15537.94
613.93	15744.78
614.126	15601.43
614.321	15724.3
614.517	15519.51
614.712	15804.17
614.907	15308.57
615.103	15542.03
615.298	15327
615.493	15542.03
615.688	15226.65
615.884	15404.82
616.079	14925.6
616.274	15071
616.47	15220.5
616.665	15312.66
616.86	15095.58
617.055	14974.75
617.25	15083.29
617.445	15210.26
617.641	14808.86
617.836	15046.43
618.031	14659.36
618.226	15066.91
618.421	14978.84
618.616	14851.87
618.811	14679.84
619.006	15132.44
619.201	14393.12
619.396	14520.1
619.591	14217
619.786	14454.56
619.981	14139.18
620.176	14260.01
620.371	14182.18
620.566	14112.55
620.761	14067.5
620.956	14104.36
621.151	13782.83
621.346	13963.05
621.541	13854.51
621.735	14083.88
621.93	13879.08
622.125	13672.24
622.32	13322.04
622.515	13363
622.709	13373.24
622.904	13498.16
623.099	13086.52
623.294	13238.07
623.488	13092.66
623.683	13111.1
623.878	12818.24
624.072	13156.15
624.267	12998.46
624.462	12914.49
624.656	12695.36
624.851	12762.94
625.046	12592.96
625.24	12588.86
625.435	12619.58
625.629	12390.21
625.824	12394.31
626.018	12216.13
626.213	11976.52
626.407	12111.69
626.602	12115.78
626.796	12185.41
626.991	12060.49
627.185	11824.97
627.38	12095.3
627.574	11861.83
627.768	11806.54
627.963	11540.3
628.157	11507.54
628.352	11673.42
628.546	11306.84
628.74	11513.68
628.935	11587.41
629.129	11435.86
629.323	11149.14
629.517	11394.9
629.712	11073.37
629.906	11038.55
630.1	10946.39
630.294	10913.63
630.489	10966.87
630.683	11052.89
630.877	10811.23
631.071	10753.88
631.265	10909.53
631.459	10686.3
631.653	10745.69
631.848	10639.2
632.042	10467.17
632.236	10557.28
632.43	10340.19
632.624	10368.87
632.818	10321.76
633.012	10200.93
633.206	10133.35
633.4	10274.66
633.594	10110.82
633.788	9971.56
633.982	10116.97
634.176	9887.59
634.369	9770.86
634.563	9697.13
634.757	9629.55
634.951	9756.52
635.145	9742.19
635.339	9553.77
635.533	9703.28
635.726	9510.77
635.92	9383.79
636.114	9305.97
636.308	9336.69
636.501	9224.05
636.695	9375.6
636.889	9154.42
637.083	9058.17
637.276	9084.79
637.47	8843.13
637.664	8841.08
637.857	8904.57
638.051	8933.24
638.244	8802.17
638.438	8820.6
638.632	8873.85
638.825	8632.19
639.019	8597.37
639.212	8386.43
639.406	8548.22
639.599	8540.03
639.793	8757.11
639.986	8286.08
640.18	8359.81
640.373	8415.1
640.567	8179.59
640.76	8157.06
640.954	8193.92
641.147	7993.22
641.34	8085.38
641.534	8120.2
641.727	8095.62
641.92	7866.25
642.114	7948.17
642.307	7917.45
642.5	7765.9
642.694	7673.74
642.887	7651.21
643.08	7696.27
643.273	7743.37
643.467	7735.18
643.66	7454.61
643.853	7425.93
644.046	7487.37
644.239	7577.48
644.432	7296.91
644.626	7208.85
644.819	7202.71
645.012	7124.88
645.205	7188.37
645.398	7247.76
645.591	7069.59
645.784	6922.13
645.977	6881.18
646.17	7034.77
646.363	6963.09
646.556	6805.4
646.749	6852.5
646.942	6811.54
647.135	7028.63
647.328	6756.25
647.521	6733.72
647.714	6553.5
647.907	6692.76
648.099	6549.4
648.292	6471.58
648.485	6502.3
648.678	6537.12
648.871	6479.77
649.064	6461.34
649.256	6477.73
649.449	6365.09
649.642	6299.55
649.835	6516.64
650.027	6406.05
650.22	6377.37
650.413	6125.47
650.605	6127.52
650.798	5982.12
650.991	6059.94
651.183	6119.33
651.376	5908.39
651.568	5930.92
651.761	5883.81
651.954	5889.96
652.146	5828.52
652.339	5830.57
652.531	5871.53
652.724	5855.14
652.916	5728.17
653.109	5826.47
653.301	5560.24
653.494	5644.2
653.686	5543.85
653.879	5728.17
654.071	5578.67
654.263	5365.68
654.456	5574.57
654.648	5382.06
654.84	5355.44
655.033	5382.06
655.225	5347.25
655.417	5423.02
655.61	5345.2
655.802	5365.68
655.994	5279.66
656.186	5216.18
656.379	5095.35
656.571	5029.81
656.763	5132.21
656.955	5144.5
657.148	5115.83
657.34	5115.83
657.532	5023.67
657.724	4937.65
657.916	5054.39
658.108	4962.23
658.3	5105.59
658.492	4927.41
658.684	4923.32
658.876	4796.34
659.068	4782.01
659.26	4925.36
659.452	4790.2
659.644	4734.9
659.836	4685.75
660.028	4652.98
660.22	4554.68
660.412	4618.17
660.604	4657.08
660.796	4691.9
660.988	4685.75
661.18	4464.57
661.372	4499.39
661.563	4622.27
661.755	4425.66
661.947	4214.72
662.139	4458.43
662.331	4423.61
662.522	4351.93
662.714	4220.86
662.906	4378.56
663.097	4360.13
663.289	4351.93
663.481	4132.8
663.673	4179.9
663.864	4140.99
664.056	4073.41
664.247	4194.24
664.439	3964.87
664.631	4022.21
664.822	4130.75
665.014	4020.16
665.205	4059.07
665.397	3907.52
665.588	4036.55
665.78	3930.05
665.971	3921.86
666.163	3934.15
666.354	3936.2
666.546	3866.56
666.737	3844.04
666.929	3844.04
667.12	3807.17
667.311	3764.17
667.503	3739.59
667.694	3647.43
667.885	3624.9
668.077	3721.16
668.268	3688.39
668.459	3700.68
668.651	3647.43
668.842	3678.15
669.033	3614.66
669.224	3547.08
669.416	3506.12
669.607	3499.98
669.798	3598.28
669.989	3516.36
670.18	3448.78
670.371	3622.86
670.563	3436.49
670.754	3510.22
670.945	3332.05
671.136	3358.67
671.327	3422.16
671.518	3514.31
671.709	3327.95
671.9	3553.23
672.091	3456.97
672.282	3315.66
672.473	3323.85
672.664	3307.47
672.855	3295.18
673.046	3373
673.237	3268.56
673.428	3196.88
673.619	3184.59
673.809	3125.2
674	3092.43
674.191	3219.41
674.382	3252.17
674.573	3342.28
674.764	3198.93
674.954	3157.97
675.145	3104.72
675.336	3145.68
675.527	3143.63
675.717	3168.21
675.908	3020.75
676.099	3133.39
676.289	3078.1
676.48	3002.32
676.671	3071.95
676.861	3004.37
677.052	3086.29
677.243	3065.81
677.433	2985.94
677.624	3020.75
677.814	2967.51
678.005	3096.53
678.195	2920.4
678.386	3026.9
678.576	3012.56
678.767	2990.03
678.957	2906.07
679.148	3010.51
679.338	2967.51
679.529	2967.51
679.719	2842.58
679.909	3061.71
680.1	2975.7
680.29	2985.94
680.481	2951.12
680.671	2883.54
680.861	2842.58
681.052	2867.16
681.242	2822.1
681.432	2893.78
681.622	2840.53
681.813	2977.75
682.003	2969.55
682.193	2734.04
682.383	2828.24
682.573	2738.13
682.764	2893.78
682.954	2768.85
683.144	2824.15
683.334	2942.93
683.524	2783.19
683.714	2840.53
683.904	2846.68
684.094	2748.37
684.284	2854.87
684.474	2869.2
684.664	2723.8
684.854	2830.29
685.044	2686.94
685.234	2822.1
685.424	2729.94
685.614	2725.85
685.804	2744.28
685.994	2693.08
686.184	2777.05
686.374	2822.1
686.564	2744.28
686.753	2717.65
686.943	2775
687.133	2791.38
687.323	2643.93
687.513	2621.4
687.702	2693.08
687.892	2666.46
688.082	2680.79
688.272	2727.89
688.461	2639.83
688.651	2729.94
688.841	2631.64
689.03	2707.41
689.22	2750.42
689.41	2678.74
689.599	2553.82
689.789	2660.31
689.979	2621.4
690.168	2607.06
690.358	2703.32
690.547	2590.68
690.737	2645.98
690.926	2627.54
691.116	2484.19
691.305	2639.83
691.495	2508.76
691.684	2668.5
691.874	2574.3
692.063	2582.49
692.252	2564.06
692.442	2519
692.631	2428.89
692.82	2598.87
693.01	2521.05
693.199	2564.06
693.388	2473.95
693.578	2437.08
693.767	2562.01
693.956	2549.72
694.146	2457.56
694.335	2523.1
694.524	2498.52
694.713	2449.37
694.902	2465.75
695.092	2508.76
695.281	2473.95
695.47	2568.15
695.659	2402.27
695.848	2322.4
696.037	2510.81
696.226	2445.27
696.415	2422.75
696.604	2349.02
696.793	2490.33
696.982	2381.79
697.171	2432.99
697.36	2424.8
697.549	2424.8
697.738	2453.47
697.927	2471.9
698.116	2375.64
698.305	2432.99
698.494	2346.97
698.683	2277.34
698.872	2451.42
699.061	2408.41
699.25	2303.96
699.438	2232.29
699.627	2301.92
699.816	2271.2
700.005	2355.16
700.193	2222.05
700.382	2314.2
700.571	2228.19
700.76	2295.77
700.948	2310.11
701.137	2351.07
701.326	2330.59
701.514	2263.01
701.703	2322.4
701.892	2176.99
702.08	2148.32
702.269	2326.49
702.457	2148.32
702.646	2275.29
702.834	2269.15
703.023	2224.09
703.212	2273.25
703.4	2203.61
703.589	2093.02
703.777	2267.1
703.965	2269.15
704.154	2187.23
704.342	2164.7
704.531	2217.95
704.719	2066.4
704.907	2322.4
705.096	2107.36
705.284	2244.57
705.472	2193.37
705.661	2068.45
705.849	2170.85
706.037	2176.99
706.226	2142.18
706.414	2154.46
706.602	2088.93
706.79	2142.18
706.979	2133.98
707.167	2074.59
707.355	2029.54
707.543	2023.39
707.731	2084.83
707.919	2080.74
708.107	1974.24
708.296	2047.97
708.484	2070.5
708.672	2058.21
708.86	1961.95
709.048	2045.92
709.236	2093.02
709.424	2093.02
709.612	2095.07
709.8	2002.91
709.988	2029.54
710.176	2072.54
710.364	1998.82
710.551	1980.39
710.739	2086.88
710.927	2009.06
711.115	1943.52
711.303	1964
711.491	1959.91
711.679	2027.49
711.866	2023.39
712.054	1880.04
712.242	1888.23
712.43	1912.8
712.617	1892.32
712.805	1849.32
712.993	1966.05
713.181	2078.69
713.368	1859.56
713.556	1900.52
713.744	2017.25
713.931	1910.75
714.119	1923.04
714.306	1974.24
714.494	1843.17
714.682	1863.65
714.869	1794.02
715.057	1933.28
715.244	1822.69
715.432	1826.79
715.619	1900.52
715.807	1820.64
715.994	1785.83
716.182	1832.93
716.369	1902.56
716.556	1939.43
716.744	1843.17
716.931	1810.4
717.119	1933.28
717.306	1875.94
717.493	1896.42
717.681	1806.31
717.868	1810.4
718.055	1769.44
718.242	1947.62
718.43	1779.68
718.617	1824.74
718.804	1902.56
718.991	1834.98
719.179	1798.12
719.366	1808.36
719.553	1757.16
719.74	1712.1
719.927	1763.3
720.114	1736.68
720.301	1693.67
720.488	1736.68
720.676	1691.62
720.863	1802.21
721.05	1701.86
721.237	1775.59
721.424	1761.25
721.611	1787.88
721.798	1742.82
721.985	1691.62
722.172	1697.77
722.358	1769.44
722.545	1634.28
722.732	1701.86
722.919	1693.67
723.106	1740.77
723.293	1669.09
723.48	1697.77
723.667	1742.82
723.853	1589.22
724.04	1708.01
724.227	1695.72
724.414	1654.76
724.6	1619.94
724.787	1621.99
724.974	1724.39
725.161	1675.24
725.347	1531.88
725.534	1581.03
725.72	1644.52
725.907	1589.22
726.094	1742.82
726.28	1529.83
726.467	1638.37
726.653	1697.77
726.84	1638.37
727.027	1720.29
727.213	1613.8
727.4	1566.7
727.586	1607.66
727.773	1595.37
727.959	1517.54
728.145	1613.8
728.332	1474.54
728.518	1589.22
728.705	1601.51
728.891	1546.22
729.077	1605.61
729.264	1658.85
729.45	1572.84
729.636	1595.37
729.823	1632.23
730.009	1548.26
730.195	1576.94
730.382	1554.41
730.568	1687.53
730.754	1492.97
730.94	1523.69
731.126	1587.18
731.313	1613.8
731.499	1409
731.685	1492.97
731.871	1552.36
732.057	1548.26
732.243	1509.35
732.429	1488.87
732.615	1492.97
732.801	1556.46
732.987	1468.39
733.173	1542.12
733.359	1466.35
733.545	1462.25
733.731	1466.35
733.917	1460.2
734.103	1431.53
734.289	1460.2
734.475	1454.06
734.661	1511.4
734.847	1509.35
735.033	1423.34
735.219	1533.93
735.404	1417.19
735.59	1478.63
735.776	1435.63
735.962	1535.98
736.148	1482.73
736.333	1466.35
736.519	1495.02
736.705	1339.37
736.89	1390.57
737.076	1433.58
737.262	1449.96
737.447	1417.19
737.633	1382.38
737.819	1468.39
738.004	1552.36
738.19	1466.35
738.375	1386.47
738.561	1363.95
738.747	1363.95
738.932	1394.67
739.118	1406.95
739.303	1380.33
739.489	1466.35
739.674	1327.08
739.859	1425.39
740.045	1419.24
740.23	1396.71
740.416	1318.89
740.601	1376.23
740.786	1417.19
740.972	1441.77
741.157	1409
741.342	1345.52
741.528	1249.26
741.713	1400.81
741.898	1380.33
742.084	1277.93
742.269	1394.67
742.454	1396.71
742.639	1333.23
742.824	1402.86
743.01	1329.13
743.195	1353.71
743.38	1341.42
743.565	1363.95
743.75	1267.69
743.935	1271.79
744.12	1255.4
744.305	1234.93
744.49	1306.6
744.675	1218.54
744.86	1331.18
745.045	1218.54
745.23	1171.44
745.415	1245.16
745.6	1239.02
745.785	1234.93
745.97	1232.88
746.155	1232.88
746.34	1150.96
746.525	1212.4
746.71	1169.39
746.895	1226.73
747.079	1183.73
747.264	1167.34
747.449	1185.77
747.634	1130.48
747.819	1216.49
748.003	1122.29
748.188	1112.05
748.373	1066.99
748.557	1181.68
748.742	1099.76
748.927	1146.86
749.111	1198.06
749.296	1052.66
749.481	1101.81
749.665	1118.19
749.85	1042.42
750.034	1153.01
750.219	1146.86
750.404	1071.09
750.588	952.31
750.773	985.07
750.957	1038.32
751.141	1023.98
751.326	962.55
751.51	966.64
751.695	1030.13
751.879	1015.79
752.064	983.02
752.248	997.36
752.432	952.31
752.617	999.41
752.801	1052.66
752.985	964.59
753.17	1026.03
753.354	980.98
753.538	888.82
753.722	1007.6
753.907	833.52
754.091	864.24
754.275	882.67
754.459	931.83
754.643	882.67
754.828	874.48
755.012	888.82
755.196	907.25
755.38	929.78
755.564	778.23
755.748	931.83
755.932	864.24
756.116	819.19
756.3	858.1
756.484	784.37
756.668	919.54
756.852	892.91
757.036	786.42
757.22	808.95
757.404	823.28
757.588	733.17
757.772	843.76
757.956	808.95
758.14	702.45
758.323	784.37
758.507	770.04
758.691	833.52
758.875	767.99
759.059	759.8
759.242	722.93
759.426	860.15
759.61	716.79
759.794	790.52
759.977	729.08
760.161	813.04
760.345	702.45
760.528	759.8
760.712	681.97
760.895	767.99
761.079	710.65
761.263	714.74
761.446	665.59
761.63	729.08
761.813	700.41
761.997	737.27
762.18	657.4
762.364	661.49
762.547	716.79
762.731	694.26
762.914	745.46
763.098	690.17
763.281	669.69
763.464	700.41
763.648	706.55
763.831	681.97
764.015	718.84
764.198	647.16
764.381	753.65
764.564	698.36
764.748	665.59
764.931	696.31
765.114	684.02
765.297	675.83
765.481	690.17
765.664	692.21
765.847	688.12
766.03	583.67
766.213	673.78
766.397	591.86
766.58	634.87
766.763	567.29
766.946	638.97
767.129	583.67
767.312	581.62
767.495	681.97
767.678	606.2
767.861	638.97
768.044	583.67
768.227	612.34
768.41	659.45
768.593	540.66
768.776	614.39
768.959	616.44
769.142	651.25
769.324	708.6
769.507	550.9
769.69	589.81
769.873	540.66
770.056	559.1
770.239	534.52
770.421	628.73
770.604	593.91
770.787	563.19
770.97	548.86
771.152	544.76
771.335	716.79
771.518	489.46
771.7	624.63
771.883	559.1
772.066	544.76
772.248	600.05
772.431	516.09
772.613	526.33
772.796	475.13
772.978	544.76
773.161	579.58
773.343	507.9
773.526	555
773.708	462.84
773.891	438.27
774.073	446.46
774.256	557.05
774.438	542.71
774.621	518.14
774.803	452.6
774.985	462.84
775.168	456.7
775.35	446.46
775.532	493.56
775.715	542.71
775.897	444.41
776.079	522.23
776.261	499.7
776.444	483.32
776.626	530.42
776.808	477.18
776.99	450.55
777.173	430.07
777.355	448.51
777.537	444.41
777.719	444.41
777.901	458.74
778.083	421.88
778.265	442.36
778.447	475.13
778.629	368.63
778.811	456.7
778.993	368.63
779.175	413.69
779.357	366.59
779.539	446.46
779.721	444.41
779.903	434.17
780.085	356.35
780.267	421.88
780.449	378.87
780.631	413.69
780.812	395.26
780.994	374.78
781.176	333.82
781.358	450.55
781.54	395.26
781.721	454.65
781.903	391.16
782.085	393.21
782.267	350.2
782.448	368.63
782.63	407.55
782.812	294.91
782.993	346.11
783.175	337.91
783.357	321.53
783.538	321.53
783.72	329.72
783.901	368.63
784.083	311.29
784.264	411.64
784.446	290.81
784.627	325.63
784.809	235.52
784.99	352.25
785.172	344.06
785.353	311.29
785.535	276.48
785.716	303.1
785.897	331.77
786.079	368.63
786.26	339.96
786.441	313.34
786.623	258.04
786.804	280.57
786.985	352.25
787.167	247.8
787.348	333.82
787.529	270.33
787.71	358.39
787.891	262.14
788.073	299
788.254	303.1
788.435	286.72
788.616	249.85
788.797	278.52
788.978	266.24
789.159	225.28
789.34	249.85
789.522	184.32
789.703	294.91
789.884	262.14
790.065	307.2
790.246	274.43
790.427	223.23
790.607	249.85
790.788	237.56
790.969	276.48
791.15	229.37
791.331	229.37
791.512	266.24
791.693	276.48
791.874	237.56
792.054	227.32
792.235	233.47
792.416	239.61
792.597	225.28
792.778	204.8
792.958	229.37
793.139	198.65
793.32	227.32
793.5	188.41
793.681	315.39
793.862	141.31
794.042	249.85
794.223	262.14
794.404	210.94
794.584	182.27
794.765	153.6
794.945	225.28
795.126	194.56
795.306	161.79
795.487	198.65
795.667	194.56
795.848	212.99
796.028	174.08
796.209	180.22
796.389	198.65
796.57	143.36
796.75	169.98
796.93	159.74
797.111	131.07
797.291	155.65
797.471	233.47
797.652	47.1
797.832	135.17
798.012	223.23
798.192	174.08
798.373	131.07
798.553	233.47
798.733	145.41
798.913	196.61
799.093	169.98
799.274	157.69
799.454	131.07
799.634	198.65
799.814	96.25
799.994	83.97
800.174	221.18
800.354	196.61
800.534	184.32
800.714	229.37
800.894	182.27
801.074	149.5
801.254	200.7
801.434	194.56
801.614	188.41
801.794	147.45
801.974	411.64
802.154	147.45
802.334	182.27
802.514	135.17
802.693	151.55
802.873	217.08
803.053	165.89
803.233	178.17
803.413	212.99
803.592	139.26
803.772	88.06
803.952	110.59
804.131	114.69
804.311	141.31
804.491	116.73
804.67	192.51
804.85	124.93
805.03	131.07
805.209	124.93
805.389	143.36
805.568	69.63
805.748	122.88
805.928	163.84
806.107	190.46
806.287	172.03
806.466	88.06
806.646	186.37
806.825	159.74
807.004	145.41
807.184	143.36
807.363	151.55
807.543	137.21
807.722	217.08
807.901	159.74
808.081	147.45
808.26	159.74
808.439	151.55
808.619	182.27
808.798	79.87
808.977	122.88
809.156	147.45
809.336	106.49
809.515	129.02
809.694	88.06
809.873	159.74
810.052	112.64
810.231	77.82
810.411	122.88
810.59	122.88
810.769	157.69
810.948	147.45
811.127	112.64
811.306	63.49
811.485	124.93
811.664	124.93
811.843	83.97
812.022	106.49
812.201	81.92
812.38	149.5
812.559	106.49
812.737	151.55
812.916	120.83
813.095	106.49
813.274	104.45
813.453	135.17
813.632	112.64
813.811	77.82
813.989	135.17
814.168	118.78
814.347	102.4
814.526	135.17
814.704	139.26
814.883	92.16
815.062	67.58
815.24	198.65
815.419	65.54
815.598	174.08
815.776	57.34
815.955	106.49
816.133	86.01
816.312	184.32
816.49	100.35
816.669	151.55
816.847	114.69
817.026	153.6
817.204	112.64
817.383	147.45
817.561	135.17
817.74	157.69
817.918	75.77
818.097	141.31
818.275	79.87
818.453	112.64
818.632	40.96
818.81	92.16
818.988	145.41
819.167	147.45
819.345	86.01
819.523	92.16
819.701	174.08
819.879	92.16
820.058	110.59
820.236	86.01
820.414	92.16
820.592	65.54
820.77	57.34
820.948	98.3
821.127	151.55
821.305	157.69
821.483	73.73
821.661	198.65
821.839	94.21
822.017	90.11
822.195	135.17
822.373	114.69
822.551	43.01
822.729	108.54
822.907	79.87
823.085	120.83
823.262	45.06
823.44	69.63
823.618	71.68
823.796	55.3
823.974	104.45
824.152	53.25
824.329	0
824.507	20.48
824.685	104.45
824.863	10.24
825.04	81.92
825.218	131.07
825.396	71.68
825.574	143.36
825.751	92.16
825.929	100.35
826.107	114.69
826.284	18.43
826.462	55.3
826.639	153.6
826.817	34.82
826.994	83.97
827.172	61.44
827.349	49.15
827.527	94.21
827.704	118.78
827.882	65.54
828.059	81.92
828.237	67.58
828.414	16.38
828.591	53.25
828.769	75.77
828.946	-26.62
829.124	102.4
829.301	106.49
829.478	51.2
829.655	114.69
829.833	77.82
830.01	92.16
830.187	12.29
830.364	124.93
830.542	67.58
830.719	61.44
830.896	-4.1
831.073	8.19
831.25	79.87
831.427	40.96
831.604	57.34
831.782	12.29
831.959	45.06
832.136	100.35
832.313	71.68
832.49	36.86
832.667	55.3
832.844	71.68
833.021	100.35
833.198	88.06
833.374	53.25
833.551	40.96
833.728	10.24
833.905	81.92
834.082	83.97
834.259	122.88
834.436	61.44
834.612	32.77
834.789	92.16
834.966	79.87
835.143	-26.62
835.319	67.58
835.496	96.25
835.673	65.54
835.85	59.39
836.026	108.54
836.203	12.29
836.38	12.29
836.556	45.06
836.733	26.62
836.909	2.05
837.086	-26.62
837.262	86.01
837.439	0
837.616	20.48
837.792	-71.68
837.968	24.58
838.145	6.14
838.321	75.77
838.498	102.4
838.674	16.38
838.851	10.24
839.027	8.19
839.203	71.68
839.38	67.58
839.556	75.77
839.732	77.82
839.909	-6.14
840.085	88.06
840.261	24.58
840.437	114.69
840.614	49.15
840.79	69.63
840.966	75.77
841.142	38.91
841.318	-16.38
841.494	106.49
841.671	32.77
841.847	81.92
842.023	100.35
842.199	59.39
842.375	81.92
842.551	65.54
842.727	26.62
842.903	65.54
843.079	61.44
843.255	-18.43
843.431	20.48
843.607	53.25
843.783	38.91
843.959	45.06
844.134	51.2
844.31	55.3
844.486	61.44
844.662	141.31
844.838	40.96
845.013	12.29
845.189	45.06
845.365	-71.68
845.541	96.25
845.716	45.06
845.892	55.3
846.068	75.77
846.244	20.48
846.419	65.54
846.595	32.77
846.77	53.25
846.946	51.2
847.122	22.53
847.297	49.15
847.473	-10.24
847.648	45.06
847.824	90.11
847.999	30.72
848.175	32.77
848.35	32.77
848.526	73.73
848.701	16.38
848.876	49.15
849.052	59.39
849.227	51.2
849.403	40.96
849.578	34.82
849.753	28.67
849.929	81.92
850.104	10.24
850.279	28.67
850.454	16.38
850.63	92.16
850.805	-8.19
850.98	40.96
851.155	36.86
851.33	-26.62
851.505	98.3
851.681	90.11
851.856	4.1
852.031	69.63
852.206	67.58
852.381	34.82
852.556	69.63
852.731	24.58
852.906	24.58
853.081	-36.86
853.256	40.96
853.431	-4.1
853.606	63.49
853.781	43.01
853.956	-51.2
854.131	61.44
854.305	20.48
854.48	-14.34
854.655	38.91
854.83	73.73
855.005	20.48
855.18	0
855.354	65.54
855.529	59.39
855.704	0
855.879	59.39
856.053	-59.39
856.228	73.73
856.403	69.63
856.577	116.73
856.752	30.72
856.926	8.19
857.101	6.14
857.276	0
857.45	112.64
857.625	106.49
857.799	-2.05
857.974	83.97
858.148	-18.43
858.323	-8.19
858.497	-28.67
858.672	16.38
858.846	38.91
859.02	30.72
859.195	67.58
859.369	65.54
859.543	-10.24
859.718	12.29
859.892	63.49
860.066	20.48
860.241	-4.1
860.415	122.88
860.589	43.01
860.763	36.86
860.938	16.38
861.112	16.38
861.286	2.05
861.46	75.77
861.634	45.06
861.808	34.82
861.982	2.05
862.157	-2.05
862.331	51.2
862.505	40.96
862.679	26.62
862.853	28.67
863.027	88.06
863.201	38.91
863.375	-14.34
863.549	20.48
863.722	40.96
863.896	16.38
864.07	36.86
864.244	77.82
864.418	-18.43
864.592	26.62
864.766	49.15
864.939	124.93
865.113	-6.14
865.287	14.34
865.461	-6.14
865.634	83.97
865.808	14.34
865.982	100.35
866.156	8.19
866.329	-47.1
866.503	51.2
866.676	106.49
866.85	73.73
867.024	75.77
867.197	71.68
867.371	14.34
867.544	-45.06
867.718	2.05
867.891	18.43
868.065	-4.1
868.238	92.16
868.412	75.77
868.585	96.25
868.759	49.15
868.932	36.86
869.105	110.59
869.279	34.82
869.452	61.44
869.625	92.16
869.799	102.4
869.972	-24.58
870.145	-32.77
870.319	65.54
870.492	18.43
870.665	26.62
870.838	38.91
871.011	-40.96
871.185	51.2
871.358	-18.43
871.531	36.86
871.704	14.34
871.877	34.82
872.05	-36.86
872.223	18.43
872.396	0
872.569	32.77
872.742	12.29
872.915	57.34
873.088	-12.29
873.261	18.43
873.434	32.77
873.607	20.48
873.78	32.77
873.953	67.58
874.126	-8.19
874.299	16.38
874.471	40.96
874.644	4.1
874.817	-36.86
874.99	67.58
875.163	55.3
875.335	-38.91
875.508	-8.19
875.681	59.39
875.853	-14.34
876.026	0
876.199	18.43
876.371	45.06
876.544	38.91
876.717	67.58
876.889	49.15
877.062	38.91
877.234	77.82
877.407	-22.53
877.579	22.53
877.752	18.43
877.924	55.3
878.097	38.91
878.269	-26.62
878.442	34.82
878.614	32.77
878.786	43.01
878.959	14.34
879.131	0
879.303	36.86
879.476	-2.05
879.648	28.67
879.82	18.43
879.993	-20.48
880.165	-49.15
880.337	-28.67
880.509	2.05
880.681	0
880.854	96.25
881.026	8.19
881.198	69.63
881.37	28.67
881.542	6.14
881.714	-2.05
881.886	45.06
882.058	57.34
882.23	0
882.402	-40.96
882.574	-22.53
882.746	10.24
882.918	34.82
883.09	-12.29
883.262	57.34
883.434	18.43
883.606	-22.53
883.778	69.63
883.95	79.87
884.122	-10.24
884.293	-40.96
884.465	10.24
884.637	49.15
884.809	0
884.98	30.72
885.152	12.29
885.324	18.43
885.496	10.24
885.667	-26.62
885.839	8.19
886.011	65.54
886.182	-10.24
886.354	43.01
886.525	20.48
886.697	40.96
886.869	24.58
887.04	49.15
887.212	8.19
887.383	12.29
887.555	-16.38
887.726	-36.86
887.897	61.44
888.069	24.58
888.24	43.01
888.412	55.3
888.583	92.16
888.754	0
888.926	22.53
889.097	73.73
889.268	-10.24
889.44	-16.38
889.611	-73.73
889.782	-51.2
889.953	38.91
890.125	120.83
890.296	26.62
890.467	79.87
890.638	-16.38
890.809	12.29
890.98	-4.1
891.151	24.58
891.323	12.29
891.494	8.19
891.665	26.62
891.836	18.43
892.007	-4.1
892.178	-10.24
892.349	53.25
892.52	34.82
892.691	-16.38
892.862	-8.19
893.032	8.19
893.203	-12.29
893.374	53.25
893.545	69.63
893.716	6.14
893.887	16.38
894.057	28.67
894.228	18.43
894.399	28.67
894.57	75.77
894.74	4.1
894.911	65.54
895.082	28.67
895.253	-24.58
895.423	40.96
895.594	108.54
895.764	36.86
895.935	49.15
896.106	18.43
896.276	-16.38
896.447	-12.29
896.617	14.34
896.788	-16.38
896.958	-10.24
897.129	86.01
897.299	77.82
897.47	83.97
897.64	18.43
897.81	20.48
897.981	34.82
898.151	2.05
898.322	51.2
898.492	28.67
898.662	20.48
898.832	22.53
899.003	12.29
899.173	47.1
899.343	71.68
899.513	-43.01
