Data from USB4F104151__93__13-00-11-378.txt Node

Date: Fri Mar 14 13:00:11 EDT 2025
User: louis
Spectrometer: USB4F10415
Trigger mode: 4
Integration Time (sec): 1.000000E-2
Scans to average: 1
Electric dark correction enabled: true
Nonlinearity correction enabled: false
Boxcar width: 0
XAxis mode: Wavelengths
Number of Pixels in Spectrum: 3648
>>>>>Begin Spectral Data<<<<<
178.204	-5.8
178.424	-5.8
178.644	-5.8
178.864	-61.1
179.084	-50.86
179.304	96.6
179.524	-3.75
179.744	-26.28
179.964	-48.81
180.184	45.4
180.404	-9.9
180.624	-3.75
180.844	-11.95
181.064	-3.75
181.283	-26.28
181.503	6.49
181.723	-13.99
181.943	22.87
182.163	2.39
182.383	-5.8
182.602	0.34
182.822	-79.53
183.042	8.53
183.262	53.59
183.482	-26.28
183.701	-69.29
183.921	10.58
184.141	-32.43
184.361	-50.86
184.58	-28.33
184.8	-26.28
185.02	-59.05
185.239	20.82
185.459	43.35
185.679	22.87
185.898	-91.82
186.118	20.82
186.338	41.3
186.557	-50.86
186.777	67.92
186.997	6.49
187.216	0.34
187.436	31.06
187.655	-16.04
187.875	-16.04
188.095	8.53
188.314	65.88
188.534	6.49
188.753	45.4
188.973	10.58
189.192	47.44
189.412	55.64
189.631	45.4
189.851	-30.38
190.07	-13.99
190.29	6.49
190.509	4.44
190.729	41.3
190.948	14.68
191.168	-18.09
191.387	-11.95
191.607	26.96
191.826	37.2
192.045	14.68
192.265	4.44
192.484	4.44
192.704	-61.1
192.923	-3.75
193.142	29.01
193.362	29.01
193.581	-9.9
193.8	-1.71
194.02	16.73
194.239	-18.09
194.458	61.78
194.678	-38.57
194.897	-22.19
195.116	65.88
195.335	-3.75
195.555	33.11
195.774	-7.85
195.993	4.44
196.212	-11.95
196.432	-36.52
196.651	49.49
196.87	22.87
197.089	55.64
197.308	-11.95
197.528	2.39
197.747	-26.28
197.966	16.73
198.185	69.97
198.404	-9.9
198.623	29.01
198.842	2.39
199.062	-38.57
199.281	45.4
199.5	-44.71
199.719	16.73
199.938	4.44
200.157	-7.85
200.376	4.44
200.595	-11.95
200.814	-32.43
201.033	29.01
201.252	22.87
201.471	51.54
201.69	4.44
201.909	-34.47
202.128	12.63
202.347	41.3
202.566	-30.38
202.785	0.34
203.004	33.11
203.223	2.39
203.442	37.2
203.661	2.39
203.879	-18.09
204.098	26.96
204.317	-46.76
204.536	26.96
204.755	65.88
204.974	-32.43
205.193	29.01
205.411	29.01
205.63	22.87
205.849	45.4
206.068	-85.67
206.287	-20.14
206.505	-40.62
206.724	-1.71
206.943	16.73
207.162	-59.05
207.381	16.73
207.599	4.44
207.818	14.68
208.037	-36.52
208.255	12.63
208.474	86.36
208.693	-93.87
208.911	-28.33
209.13	-7.85
209.349	14.68
209.567	-1.71
209.786	10.58
210.005	-1.71
210.223	39.25
210.442	14.68
210.661	39.25
210.879	57.68
211.098	49.49
211.316	39.25
211.535	-52.91
211.753	61.78
211.972	47.44
212.191	-75.43
212.409	-13.99
212.628	22.87
212.846	29.01
213.065	18.77
213.283	92.5
213.502	14.68
213.72	16.73
213.938	-36.52
214.157	-3.75
214.375	-42.67
214.594	51.54
214.812	16.73
215.031	37.2
215.249	-36.52
215.467	31.06
215.686	-48.81
215.904	33.11
216.122	39.25
216.341	33.11
216.559	14.68
216.778	12.63
216.996	-18.09
217.214	104.79
217.432	-63.15
217.651	-36.52
217.869	-30.38
218.087	-75.43
218.306	29.01
218.524	84.31
218.742	6.49
218.96	80.21
219.179	53.59
219.397	47.44
219.615	8.53
219.833	72.02
220.051	-28.33
220.27	-18.09
220.488	43.35
220.706	10.58
220.924	12.63
221.142	-34.47
221.36	-1.71
221.578	24.92
221.796	-18.09
222.015	18.77
222.233	6.49
222.451	55.64
222.669	12.63
222.887	22.87
223.105	-18.09
223.323	-3.75
223.541	49.49
223.759	4.44
223.977	-3.75
224.195	72.02
224.413	33.11
224.631	10.58
224.849	-9.9
225.067	39.25
225.285	37.2
225.503	-52.91
225.721	18.77
225.939	31.06
226.157	29.01
226.375	55.64
226.592	18.77
226.81	55.64
227.028	35.16
227.246	10.58
227.464	-1.71
227.682	53.59
227.9	16.73
228.117	4.44
228.335	39.25
228.553	-7.85
228.771	10.58
228.989	12.63
229.206	14.68
229.424	-5.8
229.642	35.16
229.86	57.68
230.077	-11.95
230.295	-11.95
230.513	-24.23
230.731	65.88
230.948	76.12
231.166	-1.71
231.384	16.73
231.601	39.25
231.819	-24.23
232.037	-48.81
232.254	18.77
232.472	12.63
232.689	12.63
232.907	29.01
233.125	20.82
233.342	-13.99
233.56	-3.75
233.777	-32.43
233.995	49.49
234.213	8.53
234.43	47.44
234.648	33.11
234.865	-1.71
235.083	8.53
235.3	-24.23
235.518	96.6
235.735	37.2
235.953	102.74
236.17	-11.95
236.388	80.21
236.605	18.77
236.822	-3.75
237.04	0.34
237.257	22.87
237.475	24.92
237.692	61.78
237.909	16.73
238.127	18.77
238.344	20.82
238.562	45.4
238.779	0.34
238.996	-48.81
239.214	12.63
239.431	-7.85
239.648	-36.52
239.865	-22.19
240.083	24.92
240.3	-5.8
240.517	14.68
240.735	31.06
240.952	-36.52
241.169	65.88
241.386	-20.14
241.603	45.4
241.821	-77.48
242.038	-42.67
242.255	90.45
242.472	-85.67
242.689	35.16
242.907	31.06
243.124	24.92
243.341	10.58
243.558	12.63
243.775	29.01
243.992	37.2
244.209	-32.43
244.426	55.64
244.643	-18.09
244.86	-59.05
245.078	65.88
245.295	18.77
245.512	63.83
245.729	-28.33
245.946	-20.14
246.163	47.44
246.38	78.16
246.597	22.87
246.814	-1.71
247.031	31.06
247.248	20.82
247.464	33.11
247.681	-85.67
247.898	-30.38
248.115	0.34
248.332	-36.52
248.549	47.44
248.766	16.73
248.983	14.68
249.2	35.16
249.417	-50.86
249.633	26.96
249.85	33.11
250.067	-5.8
250.284	24.92
250.501	76.12
250.717	24.92
250.934	12.63
251.151	49.49
251.368	37.2
251.585	47.44
251.801	-3.75
252.018	39.25
252.235	4.44
252.451	-28.33
252.668	-13.99
252.885	22.87
253.102	2.39
253.318	18.77
253.535	-1.71
253.752	-26.28
253.968	37.2
254.185	-3.75
254.401	-11.95
254.618	-5.8
254.835	-46.76
255.051	41.3
255.268	2.39
255.484	-44.71
255.701	-11.95
255.917	-7.85
256.134	39.25
256.351	-5.8
256.567	16.73
256.784	-32.43
257	-52.91
257.217	4.44
257.433	55.64
257.65	-7.85
257.866	33.11
258.082	-11.95
258.299	-16.04
258.515	-7.85
258.732	-34.47
258.948	-65.19
259.165	37.2
259.381	43.35
259.597	-42.67
259.814	8.53
260.03	-5.8
260.246	6.49
260.463	45.4
260.679	-7.85
260.895	-30.38
261.112	-32.43
261.328	-3.75
261.544	-18.09
261.761	76.12
261.977	14.68
262.193	-30.38
262.409	82.26
262.626	33.11
262.842	59.73
263.058	-34.47
263.274	-7.85
263.49	31.06
263.707	78.16
263.923	45.4
264.139	47.44
264.355	-42.67
264.571	8.53
264.787	16.73
265.004	37.2
265.22	49.49
265.436	6.49
265.652	49.49
265.868	53.59
266.084	26.96
266.3	35.16
266.516	-32.43
266.732	-3.75
266.948	0.34
267.164	10.58
267.38	33.11
267.596	67.92
267.812	4.44
268.028	-20.14
268.244	-16.04
268.46	61.78
268.676	33.11
268.892	22.87
269.108	-13.99
269.324	45.4
269.54	12.63
269.756	-32.43
269.972	4.44
270.188	20.82
270.403	-69.29
270.619	29.01
270.835	78.16
271.051	-42.67
271.267	-54.95
271.483	-1.71
271.698	61.78
271.914	55.64
272.13	82.26
272.346	-85.67
272.562	63.83
272.777	102.74
272.993	-42.67
273.209	41.3
273.425	8.53
273.64	-24.23
273.856	8.53
274.072	-5.8
274.287	22.87
274.503	-5.8
274.719	-18.09
274.934	16.73
275.15	14.68
275.366	12.63
275.581	-5.8
275.797	37.2
276.012	31.06
276.228	24.92
276.444	16.73
276.659	18.77
276.875	-20.14
277.09	29.01
277.306	-67.24
277.521	20.82
277.737	-3.75
277.952	-16.04
278.168	14.68
278.383	12.63
278.599	16.73
278.814	-22.19
279.03	57.68
279.245	63.83
279.461	16.73
279.676	22.87
279.892	-7.85
280.107	-3.75
280.322	33.11
280.538	8.53
280.753	14.68
280.969	24.92
281.184	37.2
281.399	96.6
281.615	-81.58
281.83	39.25
282.045	-3.75
282.26	53.59
282.476	-13.99
282.691	-22.19
282.906	98.64
283.122	22.87
283.337	-28.33
283.552	8.53
283.767	8.53
283.983	45.4
284.198	-34.47
284.413	67.92
284.628	-13.99
284.843	-7.85
285.058	6.49
285.274	94.55
285.489	-7.85
285.704	55.64
285.919	-79.53
286.134	80.21
286.349	-20.14
286.564	33.11
286.779	0.34
286.995	39.25
287.21	24.92
287.425	37.2
287.64	-7.85
287.855	26.96
288.07	-42.67
288.285	104.79
288.5	49.49
288.715	-16.04
288.93	14.68
289.145	-3.75
289.36	10.58
289.575	49.49
289.79	-85.67
290.004	20.82
290.219	12.63
290.434	6.49
290.649	-20.14
290.864	14.68
291.079	-28.33
291.294	45.4
291.509	-44.71
291.724	61.78
291.938	72.02
292.153	-11.95
292.368	-32.43
292.583	20.82
292.798	-18.09
293.012	18.77
293.227	-24.23
293.442	12.63
293.657	22.87
293.871	45.4
294.086	10.58
294.301	82.26
294.516	14.68
294.73	53.59
294.945	-11.95
295.16	0.34
295.374	110.93
295.589	53.59
295.804	-34.47
296.018	16.73
296.233	51.54
296.447	33.11
296.662	41.3
296.877	80.21
297.091	6.49
297.306	-34.47
297.52	-1.71
297.735	-11.95
297.949	0.34
298.164	59.73
298.378	31.06
298.593	-59.05
298.807	-38.57
299.022	14.68
299.236	29.01
299.451	86.36
299.665	-40.62
299.88	-30.38
300.094	67.92
300.309	20.82
300.523	22.87
300.737	67.92
300.952	0.34
301.166	-48.81
301.381	12.63
301.595	8.53
301.809	37.2
302.024	-77.48
302.238	43.35
302.452	67.92
302.667	18.77
302.881	0.34
303.095	2.39
303.309	43.35
303.524	-32.43
303.738	69.97
303.952	-22.19
304.166	-13.99
304.381	-57
304.595	47.44
304.809	63.83
305.023	-24.23
305.237	29.01
305.452	55.64
305.666	-24.23
305.88	-1.71
306.094	37.2
306.308	22.87
306.522	2.39
306.736	29.01
306.95	8.53
307.164	12.63
307.379	-13.99
307.593	53.59
307.807	22.87
308.021	69.97
308.235	47.44
308.449	4.44
308.663	63.83
308.877	12.63
309.091	-3.75
309.305	0.34
309.519	4.44
309.733	-3.75
309.947	14.68
310.161	4.44
310.374	-36.52
310.588	41.3
310.802	-85.67
311.016	-44.71
311.23	-18.09
311.444	37.2
311.658	29.01
311.872	14.68
312.085	8.53
312.299	-50.86
312.513	22.87
312.727	-3.75
312.941	63.83
313.154	-3.75
313.368	2.39
313.582	29.01
313.796	18.77
314.009	51.54
314.223	53.59
314.437	29.01
314.651	55.64
314.864	86.36
315.078	-81.58
315.292	16.73
315.505	-40.62
315.719	76.12
315.933	22.87
316.146	80.21
316.36	-11.95
316.573	49.49
316.787	100.69
317.001	80.21
317.214	2.39
317.428	10.58
317.641	2.39
317.855	74.07
318.068	0.34
318.282	43.35
318.495	53.59
318.709	51.54
318.922	69.97
319.136	37.2
319.349	12.63
319.563	22.87
319.776	31.06
319.99	31.06
320.203	78.16
320.417	-18.09
320.63	67.92
320.843	90.45
321.057	20.82
321.27	65.88
321.483	12.63
321.697	22.87
321.91	24.92
322.124	18.77
322.337	78.16
322.55	-42.67
322.763	8.53
322.977	80.21
323.19	-22.19
323.403	-9.9
323.617	4.44
323.83	29.01
324.043	49.49
324.256	33.11
324.469	102.74
324.683	6.49
324.896	74.07
325.109	37.2
325.322	-9.9
325.535	22.87
325.748	-18.09
325.962	76.12
326.175	49.49
326.388	-18.09
326.601	67.92
326.814	-59.05
327.027	-11.95
327.24	12.63
327.453	45.4
327.666	78.16
327.879	-69.29
328.092	10.58
328.305	55.64
328.518	33.11
328.731	-57
328.944	63.83
329.157	49.49
329.37	2.39
329.583	24.92
329.796	92.5
330.009	94.55
330.222	4.44
330.435	22.87
330.648	41.3
330.861	53.59
331.073	31.06
331.286	41.3
331.499	67.92
331.712	-13.99
331.925	61.78
332.138	-46.76
332.35	10.58
332.563	33.11
332.776	45.4
332.989	4.44
333.202	-16.04
333.414	47.44
333.627	-3.75
333.84	88.4
334.053	41.3
334.265	29.01
334.478	10.58
334.691	-24.23
334.903	108.88
335.116	-38.57
335.329	-57
335.541	22.87
335.754	-16.04
335.966	-38.57
336.179	14.68
336.392	-13.99
336.604	16.73
336.817	35.16
337.029	10.58
337.242	37.2
337.454	84.31
337.667	-69.29
337.88	47.44
338.092	20.82
338.305	0.34
338.517	-36.52
338.729	22.87
338.942	-26.28
339.154	82.26
339.367	-1.71
339.579	39.25
339.792	12.63
340.004	49.49
340.217	-18.09
340.429	12.63
340.641	-11.95
340.854	24.92
341.066	-38.57
341.278	16.73
341.491	53.59
341.703	47.44
341.915	24.92
342.128	22.87
342.34	51.54
342.552	51.54
342.764	14.68
342.977	65.88
343.189	10.58
343.401	29.01
343.613	47.44
343.826	33.11
344.038	-30.38
344.25	29.01
344.462	-18.09
344.674	31.06
344.886	10.58
345.099	-3.75
345.311	76.12
345.523	22.87
345.735	20.82
345.947	-11.95
346.159	-9.9
346.371	49.49
346.583	-16.04
346.795	65.88
347.007	41.3
347.219	6.49
347.431	2.39
347.643	78.16
347.855	29.01
348.067	-13.99
348.279	-26.28
348.491	69.97
348.703	63.83
348.915	53.59
349.127	14.68
349.339	69.97
349.551	-54.95
349.763	14.68
349.975	29.01
350.187	39.25
350.399	29.01
350.61	67.92
350.822	14.68
351.034	-20.14
351.246	20.82
351.458	55.64
351.669	24.92
351.881	59.73
352.093	-18.09
352.305	63.83
352.517	31.06
352.728	76.12
352.94	-40.62
353.152	53.59
353.363	72.02
353.575	20.82
353.787	31.06
353.999	45.4
354.21	29.01
354.422	2.39
354.633	-13.99
354.845	-7.85
355.057	29.01
355.268	6.49
355.48	106.84
355.692	0.34
355.903	43.35
356.115	63.83
356.326	55.64
356.538	41.3
356.749	45.4
356.961	39.25
357.172	37.2
357.384	41.3
357.595	24.92
357.807	16.73
358.018	33.11
358.23	24.92
358.441	88.4
358.653	20.82
358.864	20.82
359.075	-7.85
359.287	90.45
359.498	49.49
359.709	-11.95
359.921	20.82
360.132	-26.28
360.344	78.16
360.555	-26.28
360.766	63.83
360.977	22.87
361.189	-42.67
361.4	14.68
361.611	-24.23
361.823	65.88
362.034	45.4
362.245	49.49
362.456	61.78
362.667	96.6
362.879	59.73
363.09	-42.67
363.301	6.49
363.512	0.34
363.723	-7.85
363.935	31.06
364.146	24.92
364.357	12.63
364.568	14.68
364.779	29.01
364.99	16.73
365.201	57.68
365.412	29.01
365.623	-48.81
365.834	-11.95
366.045	33.11
366.256	47.44
366.467	-59.05
366.678	14.68
366.889	-3.75
367.1	49.49
367.311	-7.85
367.522	12.63
367.733	43.35
367.944	-24.23
368.155	45.4
368.366	-52.91
368.577	51.54
368.788	39.25
368.999	-11.95
369.209	16.73
369.42	80.21
369.631	-30.38
369.842	-42.67
370.053	-11.95
370.264	8.53
370.474	-16.04
370.685	16.73
370.896	35.16
371.107	6.49
371.317	39.25
371.528	18.77
371.739	45.4
371.95	45.4
372.16	45.4
372.371	88.4
372.582	14.68
372.792	-16.04
373.003	61.78
373.214	47.44
373.424	29.01
373.635	59.73
373.846	-7.85
374.056	-34.47
374.267	110.93
374.477	90.45
374.688	59.73
374.898	31.06
375.109	10.58
375.319	-54.95
375.53	69.97
375.74	2.39
375.951	47.44
376.161	45.4
376.372	-71.34
376.582	59.73
376.793	-9.9
377.003	53.59
377.214	18.77
377.424	86.36
377.635	22.87
377.845	6.49
378.055	72.02
378.266	94.55
378.476	22.87
378.686	-54.95
378.897	-22.19
379.107	43.35
379.317	16.73
379.528	-1.71
379.738	78.16
379.948	-40.62
380.158	33.11
380.369	74.07
380.579	125.27
380.789	-3.75
380.999	8.53
381.21	69.97
381.42	57.68
381.63	20.82
381.84	49.49
382.05	-1.71
382.261	67.92
382.471	10.58
382.681	45.4
382.891	41.3
383.101	61.78
383.311	-28.33
383.521	0.34
383.731	-32.43
383.941	92.5
384.151	26.96
384.361	29.01
384.571	55.64
384.781	76.12
384.991	6.49
385.201	84.31
385.411	-50.86
385.621	4.44
385.831	-100.01
386.041	35.16
386.251	29.01
386.461	63.83
386.671	-11.95
386.881	29.01
387.091	-1.71
387.301	-3.75
387.511	20.82
387.72	16.73
387.93	-30.38
388.14	33.11
388.35	57.68
388.56	-11.95
388.769	41.3
388.979	-38.57
389.189	43.35
389.399	69.97
389.609	55.64
389.818	18.77
390.028	102.74
390.238	29.01
390.447	-7.85
390.657	43.35
390.867	33.11
391.076	26.96
391.286	-1.71
391.496	20.82
391.705	57.68
391.915	78.16
392.125	86.36
392.334	65.88
392.544	-11.95
392.753	49.49
392.963	20.82
393.172	37.2
393.382	-11.95
393.591	47.44
393.801	76.12
394.01	92.5
394.22	12.63
394.429	0.34
394.639	49.49
394.848	39.25
395.058	29.01
395.267	74.07
395.477	-40.62
395.686	63.83
395.895	37.2
396.105	102.74
396.314	-7.85
396.524	57.68
396.733	41.3
396.942	45.4
397.152	53.59
397.361	14.68
397.57	102.74
397.78	6.49
397.989	39.25
398.198	65.88
398.407	22.87
398.617	88.4
398.826	6.49
399.035	6.49
399.244	47.44
399.453	65.88
399.663	74.07
399.872	172.37
400.081	80.21
400.29	80.21
400.499	-30.38
400.708	22.87
400.917	72.02
401.127	78.16
401.336	26.96
401.545	55.64
401.754	20.82
401.963	39.25
402.172	49.49
402.381	117.08
402.59	61.78
402.799	63.83
403.008	72.02
403.217	110.93
403.426	8.53
403.635	33.11
403.844	49.49
404.053	59.73
404.262	53.59
404.471	53.59
404.68	72.02
404.888	53.59
405.097	106.84
405.306	51.54
405.515	121.17
405.724	110.93
405.933	90.45
406.142	53.59
406.35	74.07
406.559	86.36
406.768	174.42
406.977	90.45
407.185	129.36
407.394	153.94
407.603	82.26
407.812	135.51
408.02	65.88
408.229	164.18
408.438	106.84
408.646	55.64
408.855	121.17
409.064	94.55
409.272	145.75
409.481	94.55
409.69	135.51
409.898	149.84
410.107	139.6
410.315	180.56
410.524	92.5
410.733	143.7
410.941	129.36
411.15	176.47
411.358	147.8
411.567	219.47
411.775	280.91
411.984	233.81
412.192	190.8
412.401	280.91
412.609	287.06
412.818	203.09
413.026	293.2
413.234	211.28
413.443	221.52
413.651	278.87
413.86	242
414.068	328.02
414.276	330.06
414.485	340.3
414.693	246.1
414.901	266.58
415.11	383.31
415.318	282.96
415.526	418.13
415.734	403.79
415.943	414.03
416.151	418.13
416.359	340.3
416.567	403.79
416.776	407.89
416.984	493.9
417.192	514.38
417.4	471.37
417.608	467.28
417.817	614.73
418.025	602.44
418.233	579.92
418.441	622.92
418.649	551.24
418.857	643.4
419.065	639.31
419.273	647.5
419.481	721.23
419.689	805.19
419.897	713.03
420.105	676.17
420.313	749.9
420.521	811.34
420.729	770.38
420.937	774.47
421.145	880.97
421.353	934.22
421.561	1034.57
421.769	1040.71
421.977	1063.24
422.185	1012.04
422.393	1038.66
422.601	1149.25
422.809	1161.54
423.017	1063.24
423.224	1222.98
423.432	1225.03
423.64	1216.83
423.848	1323.33
424.056	1319.23
424.263	1409.34
424.471	1405.25
424.679	1300.8
424.887	1489.21
425.094	1669.44
425.302	1481.02
425.51	1560.89
425.718	1642.81
425.925	1732.92
426.133	1769.79
426.341	1823.03
426.548	2009.4
426.756	1913.14
426.964	2052.41
427.171	2117.94
427.379	2060.6
427.586	2093.37
427.794	2300.21
428.001	2267.44
428.209	2433.33
428.417	2416.94
428.624	2560.3
428.832	2619.69
429.039	2634.03
429.247	2548.01
429.454	2894.12
429.662	2971.94
429.869	2742.57
430.076	3039.53
430.284	2783.53
430.491	2969.9
430.699	3176.74
430.906	3270.95
431.114	3256.61
431.321	3363.11
431.528	3502.37
431.736	3645.73
431.943	3920.15
432.15	3791.13
432.358	3750.17
432.565	3950.87
432.772	4104.47
432.979	4106.52
433.187	4389.14
433.394	4344.08
433.601	4708.62
433.808	4614.41
434.016	4614.41
434.223	4722.96
434.43	5114.12
434.637	4899.08
434.844	5300.48
435.052	5382.4
435.259	5314.82
435.466	5505.28
435.673	5323.01
435.88	5939.45
436.087	5918.97
436.294	6076.66
436.501	5884.16
436.708	6009.08
436.915	6164.73
437.122	6439.16
437.329	6326.52
437.537	6686.96
437.743	6869.23
437.95	6729.97
438.157	7061.74
438.364	7434.47
438.571	7178.47
438.778	7307.49
438.985	8147.16
439.192	7803.1
439.399	7934.17
439.606	7891.16
439.813	8278.23
440.02	8779.98
440.227	8597.71
440.433	8478.93
440.64	8796.37
440.847	8626.39
441.054	8978.64
441.261	9492.68
441.467	9302.22
441.674	9701.57
441.881	10031.29
442.088	9937.09
442.294	9836.74
442.501	10105.02
442.708	10492.09
442.914	10825.9
443.121	11438.25
443.328	10971.31
443.534	11808.93
443.741	11616.42
443.948	11423.91
444.154	12351.64
444.361	12048.54
444.568	12239
444.774	12142.75
444.981	12300.44
445.187	12759.19
445.394	13154.44
445.6	12961.94
445.807	14143.61
446.013	13547.65
446.22	13869.19
446.426	14667.89
446.633	14479.48
446.839	15091.82
447.046	14415.99
447.252	15464.55
447.459	15511.66
447.665	15335.53
447.871	15966.31
448.078	16805.97
448.284	15810.66
448.491	16447.58
448.697	17133.65
448.903	17424.46
449.11	17508.43
449.316	17231.95
449.522	17467.47
449.728	17578.06
449.935	17995.84
450.141	17997.89
450.347	18645.05
450.553	18055.23
450.76	18133.06
450.966	18837.56
451.172	18792.5
451.378	18999.35
451.584	18780.21
451.791	19527.72
451.997	19312.69
452.203	19742.76
452.409	19677.23
452.615	19402.8
452.821	18903.09
453.027	18978.87
453.233	19634.22
453.44	18970.68
453.646	19046.45
453.852	19122.23
454.058	19546.16
454.264	19107.89
454.47	19206.19
454.676	18886.71
454.882	19406.89
455.088	17676.36
455.294	18092.1
455.5	18536.51
455.705	18614.33
455.911	17836.1
456.117	17698.89
456.323	17279.05
456.529	16343.13
456.735	17049.68
456.941	16568.41
457.147	16605.27
457.352	16080.99
457.558	15810.66
457.764	15738.98
457.97	15536.23
458.176	15261.8
458.381	15331.44
458.587	14573.69
458.793	14575.73
458.999	13707.4
459.204	14463.1
459.41	14229.63
459.616	13222.03
459.821	13416.58
460.027	13355.15
460.233	13136.01
460.438	12624.02
460.644	12550.29
460.85	11585.7
461.055	11860.13
461.261	11894.94
461.466	10940.59
461.672	10539.19
461.878	11292.84
462.083	10520.76
462.289	10369.21
462.494	10166.46
462.7	9914.56
462.905	9595.07
463.111	9877.69
463.316	10057.92
463.522	9636.03
463.727	9545.92
463.932	9844.93
464.138	9605.31
464.343	9476.29
464.549	9236.68
464.754	9818.3
464.959	9519.3
465.165	9377.99
465.37	9095.37
465.575	8923.34
465.781	9203.91
465.986	9070.79
466.191	8935.63
466.397	8792.27
466.602	8364.25
466.807	8691.92
467.012	8696.02
467.218	8601.81
467.423	8689.87
467.628	8663.25
467.833	8997.07
468.038	8542.42
468.244	8470.74
468.449	8825.04
468.654	8483.03
468.859	8370.39
469.064	8417.49
469.269	8012
469.474	8040.67
469.679	8388.82
469.885	8059.1
470.09	8241.37
470.295	8272.09
470.5	7770.33
470.705	8052.95
470.91	7878.88
471.115	7786.72
471.32	7835.87
471.525	7637.22
471.73	7737.57
471.935	7672.03
472.139	7319.78
472.344	7391.46
472.549	7336.17
472.754	7368.93
472.959	7209.19
473.164	7074.03
473.369	6885.61
473.574	7196.9
473.778	7133.42
473.983	6994.15
474.188	7033.07
474.393	6734.06
474.598	6744.3
474.802	6484.21
475.007	6568.18
475.212	6719.73
475.417	6428.92
475.621	6254.84
475.826	6359.28
476.031	6287.61
476.235	6320.37
476.44	6353.14
476.645	6174.97
476.849	6244.6
477.054	5996.79
477.259	5959.93
477.463	6088.95
477.668	5714.17
477.872	5841.15
478.077	5656.83
478.282	5744.89
478.486	5572.86
478.691	5548.29
478.895	5738.75
479.1	5484.8
479.304	5472.51
479.509	5390.6
479.713	5411.07
479.918	5415.17
480.122	5361.92
480.326	5351.68
480.531	5400.83
480.735	5400.83
480.94	5161.22
481.144	5409.03
481.348	5177.61
481.553	5298.44
481.757	5234.95
481.961	5181.7
482.166	5241.09
482.37	5060.87
482.574	5134.6
482.778	5214.47
482.983	5247.24
483.187	5191.94
483.391	5294.34
483.595	5220.61
483.8	5116.17
484.004	5214.47
484.208	5386.5
484.412	5165.32
484.616	5339.4
484.821	5163.27
485.025	5204.23
485.229	5132.55
485.433	5218.57
485.637	5239.05
485.841	4974.86
486.045	5181.7
486.249	5175.56
486.453	5173.51
486.657	5183.75
486.861	5130.5
487.065	5116.17
487.269	5323.01
487.473	5007.62
487.677	5251.33
487.881	5316.87
488.085	5167.37
488.289	5140.74
488.493	5267.72
488.697	5232.9
488.901	5241.09
489.105	5126.41
489.309	5402.88
489.512	5263.62
489.716	5265.67
489.92	5445.89
490.124	5376.26
490.328	5509.38
490.531	5150.98
490.735	5480.71
490.939	5280
491.143	5191.94
491.346	5435.65
491.55	5519.62
491.754	5558.53
491.958	5521.67
492.161	5488.9
492.365	5552.38
492.569	5591.3
492.772	5671.17
492.976	5640.45
493.18	5492.99
493.383	5771.52
493.587	5763.33
493.79	5855.48
493.994	5765.37
494.197	5837.05
494.401	5921.02
494.605	5892.35
494.808	6086.9
495.012	5925.11
495.215	6107.38
495.419	6131.96
495.622	6117.62
495.825	6269.17
496.029	6209.78
496.232	6232.31
496.436	6365.43
496.639	6424.82
496.843	6371.57
497.046	6600.94
497.249	6772.97
497.453	6787.31
497.656	6729.97
497.859	6713.58
498.063	7035.11
498.266	6897.9
498.469	7080.17
498.673	6914.28
498.876	7223.53
499.079	7182.57
499.282	7258.34
499.485	7354.6
499.689	7487.72
499.892	7678.18
500.095	7641.31
500.298	7866.59
500.501	7788.77
500.705	7975.13
500.908	8141.02
501.111	8102.11
501.314	8419.54
501.517	8229.08
501.72	8497.36
501.923	8407.25
502.126	8599.76
502.329	8892.62
502.532	8804.56
502.735	8845.52
502.938	9105.61
503.141	9334.98
503.344	9287.88
503.547	9402.57
503.75	9566.4
503.953	9697.47
504.156	9773.25
504.359	9953.47
504.562	9836.74
504.765	9906.37
504.968	10258.62
505.17	10455.22
505.373	10467.51
505.576	10561.72
505.779	10477.75
505.982	10703.03
506.185	11065.52
506.387	10965.17
506.59	11188.39
506.793	11333.8
506.996	11409.58
507.198	11858.08
507.401	11378.86
507.604	11686.05
507.807	11954.33
508.009	12114.08
508.212	12411.03
508.415	12411.03
508.617	12337.31
508.82	12552.34
509.022	12464.28
509.225	13002.89
509.428	12890.26
509.63	13267.08
509.833	13451.4
510.035	13326.47
510.238	13281.42
510.44	13607.05
510.643	13703.3
510.845	14045.31
511.048	14293.12
511.25	14332.03
511.453	14278.78
511.655	14995.57
511.858	14817.4
512.06	14975.09
512.262	15067.25
512.465	15102.06
512.667	15552.62
512.87	15642.73
513.072	15724.65
513.274	16250.97
513.477	16318.56
513.679	16011.36
513.881	16703.57
514.084	16681.05
514.286	16652.38
514.488	16955.47
514.69	17326.16
514.893	17330.25
515.095	17469.51
515.297	17901.64
515.499	17674.31
515.701	17967.17
515.904	18368.57
516.106	18532.41
516.308	18368.57
516.51	18704.44
516.712	18950.2
516.914	19093.55
517.116	19333.17
517.318	19603.5
517.52	19329.07
517.722	19642.41
517.925	20162.59
518.127	20025.38
518.329	20324.38
518.531	20459.55
518.733	20703.26
518.935	20805.66
519.136	20893.72
519.338	21338.13
519.54	21436.43
519.742	21815.3
519.944	21854.22
520.146	22048.77
520.348	22409.22
520.55	22018.05
520.752	22603.77
520.954	22736.89
521.155	22880.25
521.357	23162.87
521.559	23287.79
521.761	23554.03
521.963	23568.37
522.164	23605.23
522.366	23760.87
522.568	24094.69
522.77	24498.14
522.971	24727.52
523.173	24287.2
523.375	24639.45
523.576	24700.89
523.778	24840.15
523.98	25286.61
524.181	25173.97
524.383	25145.3
524.584	25880.52
524.786	25821.13
524.988	25669.58
525.189	25976.78
525.391	26191.81
525.592	26402.75
525.794	26351.56
525.995	26687.42
526.197	26410.95
526.398	26499.01
526.6	26769.34
526.801	26920.89
527.003	27080.63
527.204	27121.59
527.406	27178.93
527.607	27324.34
527.808	27389.88
528.01	27041.72
528.211	27320.24
528.412	27926.44
528.614	27838.38
528.815	27836.33
529.016	28024.75
529.218	27819.95
529.419	28084.14
529.62	27914.16
529.822	28254.12
530.023	28192.68
530.224	28082.09
530.425	28196.78
530.626	28182.44
530.828	28229.54
531.029	28827.55
531.23	28725.15
531.431	28581.79
531.632	28544.93
531.833	28673.95
532.035	28288.93
532.236	28895.13
532.437	28843.93
532.638	28620.7
532.839	28919.71
533.04	29013.91
533.241	28417.96
533.442	29321.11
533.643	28831.65
533.844	28938.14
534.045	29124.5
534.246	29085.59
534.447	28960.67
534.648	29177.75
534.849	29140.89
535.05	28817.31
535.251	28819.36
535.451	29083.55
535.652	28925.85
535.853	29192.09
536.054	29120.41
536.255	29144.98
536.456	28866.46
536.657	29431.7
536.857	29011.87
537.058	28757.92
537.259	29642.64
537.46	29228.95
537.66	28991.39
537.861	29261.72
538.062	29312.92
538.263	29056.92
538.463	29089.69
538.664	28878.75
538.865	29067.16
539.065	29398.93
539.266	28901.28
539.466	29517.71
539.667	28800.93
539.868	29665.17
540.068	28888.99
540.269	29331.35
540.469	29339.54
540.67	29243.29
540.87	29167.51
541.071	29050.78
541.271	29245.34
541.472	28866.46
541.672	28997.53
541.873	29142.94
542.073	28995.48
542.274	29323.16
542.474	29181.85
542.675	29089.69
542.875	29403.03
543.075	29222.81
543.276	28837.79
543.476	29144.98
543.676	29052.83
543.877	29411.22
544.077	29122.46
544.277	29155.22
544.478	29120.41
544.678	29095.83
544.878	28972.96
545.078	29079.45
545.279	28759.97
545.479	28645.28
545.679	29173.66
545.879	29226.9
546.079	29265.81
546.28	28868.51
546.48	28913.56
546.68	29101.98
546.88	29368.21
547.08	28919.71
547.28	28811.17
547.48	29003.67
547.68	28977.05
547.88	29147.03
548.081	29237.14
548.281	29013.91
548.481	28868.51
548.681	28850.08
548.881	28843.93
549.081	28927.9
549.28	28805.02
549.48	29054.87
549.68	28952.48
549.88	29355.93
550.08	28960.67
550.28	29018.01
550.48	28719.01
550.68	29015.96
550.88	28569.51
551.08	29013.91
551.279	28833.69
551.479	28827.55
551.679	28669.86
551.879	28762.01
552.079	29073.31
552.278	28852.13
552.478	28843.93
552.678	28684.19
552.878	29013.91
553.077	28934.04
553.277	28432.29
553.477	28917.66
553.676	28786.59
553.876	28471.2
554.076	28671.9
554.275	28569.51
554.475	28563.36
554.674	28628.9
554.874	28604.32
555.074	28831.65
555.273	28694.43
555.473	28860.32
555.672	28704.67
555.872	28557.22
556.071	28489.63
556.271	28501.92
556.47	28520.35
556.67	28280.74
556.869	28534.69
557.068	28346.28
557.268	28192.68
557.467	28454.82
557.667	28546.98
557.866	28278.69
558.065	28669.86
558.265	28223.4
558.464	28129.19
558.663	28553.12
558.863	28188.58
559.062	28465.06
559.261	27742.13
559.461	28434.34
559.66	27674.54
559.859	28039.08
560.058	27813.8
560.258	28004.27
560.457	27627.44
560.656	28510.11
560.855	28047.27
561.054	27717.55
561.253	27420.59
561.453	27856.81
561.652	27946.92
561.851	27570.1
562.05	27778.99
562.249	27465.65
562.448	27719.6
562.647	27617.2
562.846	27486.13
563.045	27486.13
563.244	27142.07
563.443	27561.9
563.642	27223.99
563.841	27299.76
564.04	27373.49
564.239	27359.16
564.438	27013.05
564.637	27336.63
564.836	27590.58
565.035	27342.77
565.234	26945.47
565.432	26609.6
565.631	26965.95
565.83	26912.7
566.029	26703.81
566.228	26959.8
566.427	26630.08
566.625	26458.05
566.824	26415.04
567.023	26783.68
567.222	26316.74
567.42	26755.01
567.619	26259.4
567.818	26298.31
568.016	26568.64
568.215	26519.49
568.414	25995.21
568.612	26222.53
568.811	26200.01
569.01	26152.9
569.208	25927.63
569.407	26202.05
569.605	25694.16
569.804	25866.19
570.002	25690.06
570.201	25665.49
570.4	25479.12
570.598	25821.13
570.797	25591.76
570.995	25565.14
571.193	25399.25
571.392	25542.61
571.59	25325.52
571.789	25216.98
571.987	25282.52
572.186	25313.24
572.384	24993.75
572.582	25157.59
572.781	24977.37
572.979	24969.18
573.177	25034.71
573.376	24688.6
573.574	24700.89
573.772	25075.67
573.971	24692.7
574.169	24440.8
574.367	24547.29
574.565	24469.47
574.763	24430.56
574.962	24436.7
575.16	24301.54
575.358	24315.87
575.556	23867.37
575.754	24082.41
575.952	24285.15
576.151	23998.44
576.349	23805.93
576.547	23949.29
576.745	23775.21
576.943	23873.51
577.141	23646.19
577.339	23771.11
577.537	23402.48
577.735	23719.92
577.933	23369.71
578.131	23683.05
578.329	23273.46
578.527	23347.19
578.725	23382
578.923	23365.62
579.121	23404.53
579.319	23197.68
579.516	23177.2
579.714	23052.28
579.912	23003.13
580.11	23136.24
580.308	23187.44
580.506	22870.01
580.704	22349.82
580.901	22870.01
581.099	22964.21
581.297	22552.57
581.495	22382.59
581.692	22652.92
581.89	22175.75
582.088	22310.91
582.285	22347.78
582.483	22495.23
582.681	22147.08
582.878	22284.29
583.076	21747.72
583.274	21973
583.471	21454.86
583.669	21889.03
583.866	21542.92
584.064	21633.04
584.262	21374.99
584.459	21643.28
584.657	21630.99
584.854	21585.93
585.052	21237.78
585.249	21413.9
585.447	21583.88
585.644	21338.13
585.841	21538.83
586.039	21444.62
586.236	21307.41
586.434	21092.37
586.631	20985.88
586.828	21178.39
587.026	20809.75
587.223	20914.2
587.42	20889.62
587.618	20850.71
587.815	20578.33
588.012	20308
588.21	20596.76
588.407	20834.33
588.604	20381.73
588.801	20609.05
588.999	20439.07
589.196	20398.11
589.393	20312.1
589.59	20045.86
589.787	20158.5
589.984	19920.93
590.182	19959.84
590.379	20174.88
590.576	19824.68
590.773	19802.15
590.97	19914.79
591.167	20002.85
591.364	19677.23
591.561	19765.29
591.758	19488.81
591.955	19488.81
592.152	19793.96
592.349	19472.43
592.546	19540.01
592.743	19425.32
592.94	19028.02
593.137	19279.92
593.334	19288.11
593.531	19175.47
593.727	19222.58
593.924	19146.8
594.121	19105.84
594.318	19001.4
594.515	18677.82
594.712	18837.56
594.908	18628.67
595.105	18659.38
595.302	18542.65
595.499	18647.1
595.696	18446.4
595.892	18339.9
596.089	18503.74
596.286	18309.18
596.482	18286.65
596.679	18427.96
596.876	18487.36
597.072	18214.98
597.269	18157.63
597.466	17946.69
597.662	18114.62
597.859	18141.25
598.055	18157.63
598.252	17991.75
598.448	17836.1
598.645	17725.51
598.841	17379.4
599.038	17965.12
599.234	17778.76
599.431	17475.66
599.627	17614.92
599.824	17432.65
600.02	17393.74
600.217	17410.12
600.413	17297.49
600.609	17262.67
600.806	17252.43
601.002	17307.73
601.198	16937.04
601.395	16949.33
601.591	16980.05
601.787	16986.19
601.984	16787.54
602.18	16826.45
602.376	16875.6
602.572	16674.9
602.769	16658.52
602.965	16570.46
603.161	16586.84
603.357	16656.47
603.553	16549.98
603.75	16523.35
603.946	16357.47
604.142	16314.46
604.338	16130.14
604.534	16361.56
604.73	16078.94
604.926	16257.12
605.122	16310.36
605.318	15882.34
605.514	16138.34
605.71	16017.5
605.906	15808.61
606.102	15794.28
606.298	15966.31
606.494	15521.9
606.69	15804.52
606.886	15761.51
607.082	15575.14
607.278	15835.24
607.474	15306.86
607.67	15593.58
607.866	15384.68
608.062	15462.51
608.257	15566.95
608.453	15507.56
608.649	15349.87
608.845	15353.96
609.041	15143.02
609.236	15370.35
609.432	15145.07
609.628	15044.72
609.824	15253.61
610.019	15093.87
610.215	15224.94
610.411	15366.25
610.606	15061.1
610.802	15124.59
610.998	15204.46
611.193	14960.75
611.389	14772.34
611.584	15026.29
611.78	14682.23
611.976	14610.55
612.171	15100.01
612.367	14725.24
612.562	14760.05
612.758	14659.7
612.953	14483.58
613.149	14807.16
613.344	14450.81
613.539	14848.11
613.735	14520.44
613.93	14606.45
614.126	14342.27
614.321	14608.5
614.517	14438.52
614.712	14119.04
614.907	14438.52
615.103	14604.41
615.298	14366.84
615.493	14639.22
615.688	14086.27
615.884	14362.75
616.079	13846.66
616.274	14260.35
616.47	13930.62
616.665	13996.16
616.86	14225.53
617.055	14067.84
617.25	13981.82
617.445	14018.69
617.641	13789.31
617.836	13850.75
618.031	13863.04
618.226	13891.71
618.421	13873.28
618.616	13971.58
618.811	13555.85
619.006	13820.03
619.201	13529.22
619.396	13654.15
619.591	13504.65
619.786	13328.52
619.981	13310.09
620.176	13498.5
620.371	13125.77
620.566	13349
620.761	13072.53
620.956	13166.73
621.151	12734.61
621.346	13152.4
621.541	12787.86
621.735	13125.77
621.93	12699.8
622.125	12734.61
622.32	12476.57
622.515	12603.54
622.709	12484.76
622.904	12466.33
623.099	12351.64
623.294	12408.98
623.488	12152.99
623.683	12347.54
623.878	11978.91
624.072	12091.55
624.267	11935.9
624.462	12130.46
624.656	11808.93
624.851	11858.08
625.046	11770.02
625.24	11688.1
625.435	11643.04
625.629	11511.97
625.824	11851.94
626.018	11565.22
626.213	11339.94
626.407	11432.1
626.602	11309.22
626.796	11298.98
626.991	11290.79
627.185	11110.57
627.38	11083.95
627.574	11008.17
627.768	10879.15
627.963	10983.6
628.157	10866.86
628.352	10983.6
628.546	10553.52
628.74	10705.07
628.935	10680.5
629.129	10870.96
629.323	10471.61
629.517	10459.32
629.712	10500.28
629.906	10479.8
630.1	10047.68
630.294	10025.15
630.489	10113.21
630.683	10137.79
630.877	9982.14
631.071	10059.96
631.265	9861.31
631.459	10016.96
631.653	9818.3
631.848	9900.22
632.042	9756.86
632.236	9752.77
632.43	9646.27
632.624	9730.24
632.818	9425.09
633.012	9521.35
633.206	9730.24
633.4	9531.59
633.594	9339.08
633.788	9357.51
633.982	9169.1
634.176	9179.34
634.369	9181.39
634.563	9390.28
634.757	9173.19
634.951	9140.43
635.145	9093.32
635.339	8927.44
635.533	9038.03
635.726	8884.43
635.92	8616.15
636.114	8706.26
636.308	8909.01
636.501	8667.35
636.695	8771.79
636.889	8618.19
637.083	8501.46
637.276	8423.64
637.47	8501.46
637.664	8427.73
637.857	8302.81
638.051	8452.31
638.244	8141.02
638.438	8362.2
638.632	8147.16
638.825	8222.94
639.019	8091.87
639.212	7928.03
639.406	7981.28
639.599	7991.52
639.793	7876.83
639.986	7868.64
640.18	8141.02
640.373	7778.53
640.567	7661.79
640.76	7684.32
640.954	7573.73
641.147	7676.13
641.34	7608.55
641.534	7596.26
641.727	7487.72
641.92	7401.7
642.114	7467.24
642.307	7612.64
642.5	7336.17
642.694	7254.25
642.887	7182.57
643.08	7289.06
643.273	7108.84
643.467	7069.93
643.66	7082.22
643.853	6914.28
644.046	6850.8
644.239	6963.44
644.432	7020.78
644.626	6967.53
644.819	6713.58
645.012	6838.51
645.205	6902
645.398	6707.44
645.591	6617.33
645.784	6623.47
645.977	6625.52
646.17	6590.7
646.363	6592.75
646.556	6471.92
646.749	6529.27
646.942	6514.93
647.135	6430.96
647.328	6396.15
647.521	6476.02
647.714	6148.34
647.907	6310.13
648.099	6338.8
648.292	6291.7
648.485	6254.84
648.678	6125.82
648.871	6060.28
649.064	6156.54
649.256	6093.05
649.449	5982.46
649.642	5910.78
649.835	5841.15
650.027	5886.2
650.22	5828.86
650.413	5812.48
650.605	5517.57
650.798	5759.23
650.991	5771.52
651.183	5675.26
651.376	5693.69
651.568	5751.04
651.761	5572.86
651.954	5507.33
652.146	5533.95
652.339	5490.95
652.531	5583.1
652.724	5345.54
652.916	5361.92
653.109	5443.84
653.301	5316.87
653.494	5286.15
653.686	5247.24
653.879	5298.44
654.071	5273.86
654.263	5208.33
654.456	5237
654.648	5175.56
654.84	5189.89
655.033	5245.19
655.225	5142.79
655.417	4890.89
655.61	5013.77
655.802	5103.88
655.994	4993.29
656.186	5015.82
656.379	4921.61
656.571	4825.36
656.763	4935.95
656.955	4731.15
657.148	4845.84
657.34	4825.36
657.532	4733.2
657.724	4684.05
657.916	4679.95
658.108	4706.57
658.3	4741.39
658.492	4669.71
658.684	4434.19
658.876	4530.45
659.068	4462.87
659.26	4659.47
659.452	4391.19
659.644	4413.71
659.836	4518.16
660.028	4559.12
660.22	4399.38
660.412	4352.27
660.604	4364.56
660.796	4362.51
660.988	4127
661.18	4282.64
661.372	4020.5
661.563	4129.05
661.755	4208.92
661.947	4141.33
662.139	4083.99
662.331	4159.77
662.522	4047.13
662.714	4034.84
662.906	4053.27
663.097	4118.81
663.289	3975.45
663.481	3883.29
663.673	4028.7
663.864	3764.51
664.056	3961.11
664.247	3895.58
664.439	3893.53
664.631	3907.87
664.822	3817.76
665.014	3805.47
665.205	3750.17
665.397	3752.22
665.588	3692.83
665.78	3731.74
665.971	3727.64
666.163	3739.93
666.354	3619.1
666.546	3578.14
666.737	3528.99
666.929	3492.13
667.12	3522.85
667.311	3539.23
667.503	3561.76
667.694	3485.98
667.885	3459.36
668.077	3531.04
668.268	3359.01
668.459	3518.75
668.651	3461.41
668.842	3455.26
669.033	3432.74
669.224	3346.72
669.416	3359.01
669.607	3334.43
669.798	3395.87
669.989	3152.17
670.18	3332.39
670.371	3254.56
670.563	3258.66
670.754	3281.19
670.945	3254.56
671.136	3100.97
671.327	3301.67
671.518	3146.02
671.709	3189.03
671.9	3119.4
672.091	3092.77
672.282	3250.47
672.473	3152.17
672.664	3094.82
672.855	3053.86
673.046	3168.55
673.237	3096.87
673.428	3027.24
673.619	2996.52
673.809	2892.07
674	2998.57
674.191	2935.08
674.382	2971.94
674.573	2978.09
674.764	2965.8
674.954	3023.14
675.145	2912.55
675.336	2902.31
675.527	2914.6
675.717	2918.7
675.908	2943.27
676.099	2963.75
676.289	2980.14
676.48	2830.63
676.671	2785.58
676.861	2894.12
677.052	2885.93
677.243	2750.76
677.433	2791.72
677.624	2832.68
677.814	2808.11
678.005	2818.35
678.195	2744.62
678.386	2847.02
678.576	2728.24
678.767	2703.66
678.957	2711.85
679.148	2877.74
679.338	2660.65
679.529	2857.26
679.719	2652.46
679.909	2789.67
680.1	2683.18
680.29	2787.63
680.481	2715.95
680.671	2660.65
680.861	2838.83
681.052	2728.24
681.242	2814.25
681.432	2728.24
681.622	2644.27
681.813	2576.69
682.003	2591.02
682.193	2703.66
682.383	2599.21
682.573	2621.74
682.764	2588.97
682.954	2574.64
683.144	2595.12
683.334	2642.22
683.524	2750.76
683.714	2541.87
683.904	2543.92
684.094	2597.17
684.284	2631.98
684.474	2541.87
684.664	2527.53
684.854	2617.65
685.044	2580.78
685.234	2476.34
685.424	2570.54
685.614	2529.58
685.804	2535.73
685.994	2519.34
686.184	2498.86
686.374	2521.39
686.564	2562.35
686.753	2562.35
686.943	2545.97
687.133	2523.44
687.323	2558.25
687.513	2539.82
687.702	2425.14
687.892	2513.2
688.082	2449.71
688.272	2484.53
688.461	2285.87
688.651	2515.25
688.841	2539.82
689.03	2482.48
689.22	2494.77
689.41	2375.99
689.599	2371.89
689.789	2322.74
689.979	2480.43
690.168	2373.94
690.358	2386.22
690.547	2451.76
690.737	2345.27
690.926	2462
691.116	2324.79
691.305	2390.32
691.495	2330.93
691.684	2392.37
691.874	2386.22
692.063	2335.03
692.252	2382.13
692.442	2398.51
692.631	2320.69
692.82	2439.47
693.01	2199.86
693.199	2289.97
693.388	2285.87
693.578	2287.92
693.767	2275.63
693.956	2322.74
694.146	2273.59
694.335	2271.54
694.524	2277.68
694.713	2328.88
694.902	2269.49
695.092	2249.01
695.281	2197.81
695.47	2210.1
695.659	2230.58
695.848	2304.31
696.037	2314.55
696.226	2310.45
696.415	2275.63
696.604	2228.53
696.793	2345.27
696.982	2226.48
697.171	2134.32
697.36	2181.43
697.549	2134.32
697.738	2195.76
697.927	2099.51
698.116	2273.59
698.305	2124.08
698.494	2171.19
698.683	2128.18
698.872	2234.68
699.061	2150.71
699.25	2128.18
699.438	2240.82
699.627	2240.82
699.816	2076.98
700.005	2201.91
700.193	2126.13
700.382	2234.68
700.571	2027.83
700.76	2091.32
700.948	2091.32
701.137	2111.8
701.326	2119.99
701.514	2201.91
701.703	2152.76
701.892	2095.41
702.08	2117.94
702.269	2062.65
702.457	2228.53
702.646	2060.6
702.834	2076.98
703.023	2015.54
703.212	1984.82
703.4	2001.21
703.589	1884.47
703.777	2093.37
703.965	1974.58
704.154	2013.49
704.342	1921.34
704.531	1962.3
704.719	1986.87
704.907	1966.39
705.096	1931.58
705.284	1988.92
705.472	1970.49
705.661	1902.9
705.849	1931.58
706.037	2036.02
706.226	2019.64
706.414	1960.25
706.602	1900.86
706.79	1970.49
706.979	2060.6
707.167	1931.58
707.355	1919.29
707.543	1898.81
707.731	2048.31
707.919	1958.2
708.107	1790.27
708.296	2025.78
708.484	1777.98
708.672	1798.46
708.86	1886.52
709.048	1853.75
709.236	1896.76
709.424	1872.18
709.612	1917.24
709.8	1874.23
709.988	1782.07
710.176	1907
710.364	1808.7
710.551	1896.76
710.739	1786.17
710.927	1757.5
711.115	1741.11
711.303	1868.09
711.491	1790.27
711.679	1798.46
711.866	1757.5
712.054	1841.47
712.242	1769.79
712.43	1806.65
712.617	1823.03
712.805	1818.94
712.993	1657.15
713.181	1679.68
713.368	1720.64
713.556	1863.99
713.744	1857.85
713.931	1710.4
714.119	1669.44
714.306	1718.59
714.494	1792.31
714.682	1741.11
714.869	1636.67
715.057	1587.52
715.244	1722.68
715.432	1698.11
715.619	1734.97
715.807	1712.44
715.994	1743.16
716.182	1763.64
716.369	1691.96
716.556	1677.63
716.744	1642.81
716.931	1675.58
717.119	1681.72
717.306	1605.95
717.493	1585.47
717.681	1636.67
717.868	1618.24
718.055	1560.89
718.242	1745.21
718.43	1612.09
718.617	1675.58
718.804	1716.54
718.991	1673.53
719.179	1659.2
719.366	1511.74
719.553	1593.66
719.74	1569.09
719.927	1626.43
720.114	1646.91
720.301	1593.66
720.488	1433.92
720.676	1653.05
720.863	1536.32
721.05	1564.99
721.237	1626.43
721.424	1542.46
721.611	1552.7
721.798	1425.73
721.985	1524.03
722.172	1487.17
722.358	1503.55
722.545	1499.45
722.732	1511.74
722.919	1560.89
723.106	1456.45
723.293	1433.92
723.48	1544.51
723.667	1485.12
723.853	1503.55
724.04	1405.25
724.227	1538.37
724.414	1474.88
724.6	1415.49
724.787	1532.22
724.974	1489.21
725.161	1401.15
725.347	1499.45
725.534	1458.5
725.72	1499.45
725.907	1413.44
726.094	1440.06
726.28	1438.02
726.467	1454.4
726.653	1380.67
726.84	1368.38
727.027	1478.97
727.213	1376.58
727.4	1433.92
727.586	1421.63
727.773	1335.62
727.959	1423.68
728.145	1462.59
728.332	1354.05
728.518	1452.35
728.705	1456.45
728.891	1376.58
729.077	1360.19
729.264	1364.29
729.45	1356.1
729.636	1446.21
729.823	1323.33
730.009	1380.67
730.195	1349.95
730.382	1409.34
730.568	1323.33
730.754	1382.72
730.94	1431.87
731.126	1368.38
731.313	1325.38
731.499	1325.38
731.685	1386.82
731.871	1347.9
732.057	1364.29
732.243	1397.06
732.429	1374.53
732.615	1425.73
732.801	1419.58
732.987	1347.9
733.173	1268.03
733.359	1333.57
733.545	1419.58
733.731	1337.66
733.917	1431.87
734.103	1354.05
734.289	1317.19
734.475	1419.58
734.661	1362.24
734.847	1288.51
735.033	1243.46
735.219	1397.06
735.404	1290.56
735.59	1263.94
735.776	1272.13
735.962	1323.33
736.148	1298.75
736.333	1368.38
736.519	1354.05
736.705	1263.94
736.89	1259.84
737.076	1139.01
737.262	1298.75
737.447	1245.51
737.633	1331.52
737.819	1298.75
738.004	1210.69
738.19	1265.99
738.375	1255.75
738.561	1315.14
738.747	1288.51
738.932	1315.14
739.118	1204.55
739.303	1249.6
739.489	1286.47
739.674	1184.07
739.859	1253.7
740.045	1190.21
740.23	1329.47
740.416	1159.49
740.601	1300.8
740.786	1202.5
740.972	1145.16
741.157	1222.98
741.342	1200.45
741.528	1212.74
741.713	1249.6
741.898	1161.54
742.084	1208.64
742.269	1102.15
742.454	1167.68
742.639	1208.64
742.824	1108.29
743.01	1161.54
743.195	1169.73
743.38	1114.44
743.565	1153.35
743.75	1124.68
743.935	1243.46
744.12	1175.88
744.305	1091.91
744.49	1069.38
744.675	1055.05
744.86	1167.68
745.045	1102.15
745.23	1134.92
745.415	1136.96
745.6	1182.02
745.785	1096
745.97	1038.66
746.155	1192.26
746.34	1036.61
746.525	1112.39
746.71	1032.52
746.895	1036.61
747.079	1124.68
747.264	1085.76
747.449	1032.52
747.634	1067.33
747.819	1024.33
748.003	1059.14
748.188	1073.48
748.373	1030.47
748.557	997.7
748.742	962.89
748.927	1026.37
749.111	964.93
749.296	983.37
749.481	973.13
749.665	999.75
749.85	1042.76
750.034	979.27
750.219	889.16
750.404	926.02
750.588	954.69
750.773	915.78
750.957	907.59
751.141	774.47
751.326	962.89
751.51	948.55
751.695	829.77
751.879	934.22
752.064	923.98
752.248	868.68
752.432	837.96
752.617	848.2
752.801	895.3
752.985	909.64
753.17	921.93
753.354	885.06
753.538	784.71
753.722	823.62
753.907	872.78
754.091	753.99
754.275	815.43
754.459	819.53
754.643	797
754.828	862.54
755.012	880.97
755.196	760.14
755.38	780.62
755.564	770.38
755.748	774.47
755.932	774.47
756.116	825.67
756.3	725.32
756.484	848.2
756.668	803.15
756.852	801.1
757.036	792.91
757.22	725.32
757.404	768.33
757.588	770.38
757.772	753.99
757.956	741.71
758.14	731.47
758.323	706.89
758.507	692.55
758.691	717.13
758.875	651.6
759.059	643.4
759.242	629.07
759.426	653.64
759.61	614.73
759.794	770.38
759.977	678.22
760.161	629.07
760.345	741.71
760.528	635.21
760.712	698.7
760.895	686.41
761.079	717.13
761.263	520.53
761.446	627.02
761.63	672.08
761.813	651.6
761.997	645.45
762.18	618.83
762.364	629.07
762.547	598.35
762.731	547.15
762.914	602.44
763.098	637.26
763.281	610.64
763.464	614.73
763.648	493.9
763.831	588.11
764.015	547.15
764.198	510.29
764.381	633.16
764.564	696.65
764.748	547.15
764.931	584.01
765.114	590.16
765.297	602.44
765.481	524.62
765.664	590.16
765.847	581.96
766.03	547.15
766.213	590.16
766.397	588.11
766.58	534.86
766.763	618.83
766.946	516.43
767.129	575.82
767.312	495.95
767.495	571.72
767.678	590.16
767.861	510.29
768.044	512.33
768.227	545.1
768.41	506.19
768.593	579.92
768.776	522.57
768.959	498
769.142	549.2
769.324	471.37
769.507	584.01
769.69	541.01
769.873	506.19
770.056	577.87
770.239	500.05
770.421	545.1
770.604	450.89
770.787	452.94
770.97	559.44
771.152	571.72
771.335	485.71
771.518	463.18
771.7	514.38
771.883	536.91
772.066	493.9
772.248	588.11
772.431	459.09
772.613	536.91
772.796	530.77
772.978	428.37
773.161	465.23
773.343	512.33
773.526	430.41
773.708	479.57
773.891	426.32
774.073	450.89
774.256	498
774.438	502.09
774.621	428.37
774.803	461.13
774.985	352.59
775.168	459.09
775.35	414.03
775.532	407.89
775.715	432.46
775.897	387.41
776.079	389.46
776.261	371.02
776.444	381.26
776.626	411.98
776.808	405.84
776.99	463.18
777.173	446.8
777.355	416.08
777.537	416.08
777.719	381.26
777.901	389.46
778.083	469.33
778.265	325.97
778.447	364.88
778.629	452.94
778.811	383.31
778.993	368.98
779.175	346.45
779.357	395.6
779.539	405.84
779.721	321.87
779.903	381.26
780.085	442.7
780.267	373.07
780.449	393.55
780.631	356.69
780.812	354.64
780.994	360.78
781.176	278.87
781.358	373.07
781.54	313.68
781.721	375.12
781.903	409.94
782.085	299.34
782.267	317.78
782.448	305.49
782.63	373.07
782.812	280.91
782.993	340.3
783.175	350.54
783.357	305.49
783.538	270.67
783.72	344.4
783.901	305.49
784.083	352.59
784.264	242
784.446	299.34
784.627	342.35
784.809	285.01
784.99	250.19
785.172	170.32
785.353	233.81
785.535	317.78
785.716	239.95
785.897	217.43
786.079	268.63
786.26	246.1
786.441	209.23
786.623	227.67
786.804	336.21
786.985	285.01
787.167	205.14
787.348	291.15
787.529	217.43
787.71	282.96
787.891	250.19
788.073	233.81
788.254	158.03
788.435	258.39
788.616	266.58
788.797	252.24
788.978	289.1
789.159	203.09
789.34	178.51
789.522	137.56
789.703	225.62
789.884	194.9
790.065	239.95
790.246	196.95
790.427	198.99
790.607	276.82
790.788	278.87
790.969	201.04
791.15	250.19
791.331	145.75
791.512	198.99
791.693	219.47
791.874	213.33
792.054	272.72
792.235	244.05
792.416	229.71
792.597	213.33
792.778	254.29
792.958	205.14
793.139	250.19
793.32	229.71
793.5	123.22
793.681	242
793.862	229.71
794.042	186.71
794.223	217.43
794.404	225.62
794.584	135.51
794.765	225.62
794.945	192.85
795.126	211.28
795.306	176.47
795.487	192.85
795.667	160.08
795.848	176.47
796.028	194.9
796.209	141.65
796.389	246.1
796.57	209.23
796.75	155.99
796.93	155.99
797.111	196.95
797.291	196.95
797.471	162.13
797.652	149.84
797.832	219.47
798.012	121.17
798.192	108.88
798.373	201.04
798.553	158.03
798.733	151.89
798.913	209.23
799.093	143.7
799.274	155.99
799.454	172.37
799.634	196.95
799.814	123.22
799.994	151.89
800.174	119.12
800.354	137.56
800.534	131.41
800.714	213.33
800.894	112.98
801.074	80.21
801.254	96.6
801.434	190.8
801.614	166.23
801.794	104.79
801.974	309.58
802.154	98.64
802.334	104.79
802.514	186.71
802.693	139.6
802.873	104.79
803.053	192.85
803.233	98.64
803.413	168.27
803.592	127.32
803.772	170.32
803.952	133.46
804.131	139.6
804.311	88.4
804.491	135.51
804.67	127.32
804.85	67.92
805.03	184.66
805.209	121.17
805.389	94.55
805.568	108.88
805.748	137.56
805.928	149.84
806.107	82.26
806.287	86.36
806.466	82.26
806.646	168.27
806.825	110.93
807.004	127.32
807.184	39.25
807.363	86.36
807.543	100.69
807.722	151.89
807.901	121.17
808.081	92.5
808.26	57.68
808.439	125.27
808.619	115.03
808.798	117.08
808.977	82.26
809.156	115.03
809.336	108.88
809.515	72.02
809.694	8.53
809.873	131.41
810.052	55.64
810.231	74.07
810.411	149.84
810.59	160.08
810.769	100.69
810.948	133.46
811.127	55.64
811.306	129.36
811.485	69.97
811.664	76.12
811.843	119.12
812.022	94.55
812.201	47.44
812.38	31.06
812.559	139.6
812.737	158.03
812.916	55.64
813.095	127.32
813.274	84.31
813.453	86.36
813.632	135.51
813.811	6.49
813.989	72.02
814.168	57.68
814.347	82.26
814.526	49.49
814.704	59.73
814.883	102.74
815.062	33.11
815.24	147.8
815.419	96.6
815.598	92.5
815.776	108.88
815.955	49.49
816.133	127.32
816.312	-18.09
816.49	100.69
816.669	110.93
816.847	106.84
817.026	125.27
817.204	82.26
817.383	115.03
817.561	45.4
817.74	90.45
817.918	63.83
818.097	51.54
818.275	86.36
818.453	24.92
818.632	47.44
818.81	14.68
818.988	76.12
819.167	2.39
819.345	112.98
819.523	94.55
819.701	80.21
819.879	78.16
820.058	39.25
820.236	129.36
820.414	45.4
820.592	-11.95
820.77	119.12
820.948	49.49
821.127	2.39
821.305	53.59
821.483	80.21
821.661	108.88
821.839	20.82
822.017	115.03
822.195	-3.75
822.373	0.34
822.551	135.51
822.729	51.54
822.907	49.49
823.085	20.82
823.262	14.68
823.44	63.83
823.618	-16.04
823.796	127.32
823.974	63.83
824.152	108.88
824.329	37.2
824.507	80.21
824.685	78.16
824.863	80.21
825.04	88.4
825.218	98.64
825.396	53.59
825.574	74.07
825.751	33.11
825.929	78.16
826.107	61.78
826.284	74.07
826.462	76.12
826.639	80.21
826.817	53.59
826.994	94.55
827.172	26.96
827.349	74.07
827.527	35.16
827.704	24.92
827.882	80.21
828.059	125.27
828.237	0.34
828.414	80.21
828.591	31.06
828.769	39.25
828.946	47.44
829.124	61.78
829.301	41.3
829.478	61.78
829.655	72.02
829.833	29.01
830.01	41.3
830.187	76.12
830.364	41.3
830.542	-7.85
830.719	106.84
830.896	63.83
831.073	-11.95
831.25	-7.85
831.427	72.02
831.604	57.68
831.782	41.3
831.959	121.17
832.136	80.21
832.313	108.88
832.49	123.22
832.667	69.97
832.844	6.49
833.021	78.16
833.198	18.77
833.374	22.87
833.551	43.35
833.728	86.36
833.905	104.79
834.082	20.82
834.259	-1.71
834.436	6.49
834.612	37.2
834.789	31.06
834.966	0.34
835.143	18.77
835.319	-91.82
835.496	12.63
835.673	59.73
835.85	35.16
836.026	0.34
836.203	57.68
836.38	18.77
836.556	12.63
836.733	96.6
836.909	37.2
837.086	33.11
837.262	-40.62
837.439	72.02
837.616	35.16
837.792	82.26
837.968	20.82
838.145	45.4
838.321	16.73
838.498	76.12
838.674	-3.75
838.851	24.92
839.027	33.11
839.203	-13.99
839.38	65.88
839.556	2.39
839.732	72.02
839.909	-26.28
840.085	76.12
840.261	55.64
840.437	55.64
840.614	41.3
840.79	80.21
840.966	115.03
841.142	37.2
841.318	10.58
841.494	-16.04
841.671	-61.1
841.847	20.82
842.023	-11.95
842.199	55.64
842.375	115.03
842.551	-13.99
842.727	37.2
842.903	22.87
843.079	22.87
843.255	55.64
843.431	26.96
843.607	65.88
843.783	4.44
843.959	65.88
844.134	4.44
844.31	8.53
844.486	-3.75
844.662	-7.85
844.838	57.68
845.013	86.36
845.189	16.73
845.365	18.77
845.541	10.58
845.716	20.82
845.892	49.49
846.068	-9.9
846.244	92.5
846.419	-16.04
846.595	63.83
846.77	20.82
846.946	67.92
847.122	-36.52
847.297	-24.23
847.473	69.97
847.648	6.49
847.824	37.2
847.999	-1.71
848.175	22.87
848.35	26.96
848.526	96.6
848.701	-7.85
848.876	84.31
849.052	-38.57
849.227	67.92
849.403	4.44
849.578	72.02
849.753	37.2
849.929	94.55
850.104	29.01
850.279	29.01
850.454	31.06
850.63	51.54
850.805	22.87
850.98	-20.14
851.155	-28.33
851.33	37.2
851.505	-13.99
851.681	37.2
851.856	-5.8
852.031	43.35
852.206	88.4
852.381	110.93
852.556	22.87
852.731	55.64
852.906	-13.99
853.081	26.96
853.256	-32.43
853.431	76.12
853.606	12.63
853.781	10.58
853.956	63.83
854.131	24.92
854.305	2.39
854.48	-24.23
854.655	-30.38
854.83	72.02
855.005	45.4
855.18	-42.67
855.354	-13.99
855.529	110.93
855.704	57.68
855.879	110.93
856.053	53.59
856.228	-7.85
856.403	-22.19
856.577	102.74
856.752	-3.75
856.926	37.2
857.101	51.54
857.276	51.54
857.45	20.82
857.625	-26.28
857.799	94.55
857.974	26.96
858.148	-34.47
858.323	59.73
858.497	-32.43
858.672	59.73
858.846	31.06
859.02	31.06
859.195	-54.95
859.369	39.25
859.543	51.54
859.718	55.64
859.892	47.44
860.066	-20.14
860.241	-3.75
860.415	-36.52
860.589	-26.28
860.763	2.39
860.938	6.49
861.112	22.87
861.286	-11.95
861.46	6.49
861.634	12.63
861.808	53.59
861.982	4.44
862.157	-13.99
862.331	-32.43
862.505	-3.75
862.679	45.4
862.853	55.64
863.027	2.39
863.201	41.3
863.375	29.01
863.549	29.01
863.722	6.49
863.896	37.2
864.07	4.44
864.244	-36.52
864.418	-28.33
864.592	-3.75
864.766	43.35
864.939	-9.9
865.113	-13.99
865.287	4.44
865.461	-30.38
865.634	-22.19
865.808	-7.85
865.982	-5.8
866.156	49.49
866.329	74.07
866.503	29.01
866.676	-20.14
866.85	-22.19
867.024	47.44
867.197	-16.04
867.371	102.74
867.544	-28.33
867.718	-48.81
867.891	26.96
868.065	-61.1
868.238	14.68
868.412	-5.8
868.585	-50.86
868.759	80.21
868.932	12.63
869.105	-11.95
869.279	-48.81
869.452	-16.04
869.625	-13.99
869.799	35.16
869.972	22.87
870.145	37.2
870.319	65.88
870.492	41.3
870.665	-26.28
870.838	39.25
871.011	-18.09
871.185	29.01
871.358	29.01
871.531	0.34
871.704	43.35
871.877	2.39
872.05	-54.95
872.223	14.68
872.396	12.63
872.569	14.68
872.742	-118.44
872.915	47.44
873.088	41.3
873.261	-18.09
873.434	18.77
873.607	-36.52
873.78	37.2
873.953	-34.47
874.126	2.39
874.299	12.63
874.471	22.87
874.644	-1.71
874.817	22.87
874.99	-7.85
875.163	6.49
875.335	33.11
875.508	2.39
875.681	59.73
875.853	-30.38
876.026	47.44
876.199	8.53
876.371	0.34
876.544	-34.47
876.717	92.5
876.889	-36.52
877.062	-16.04
877.234	-38.57
877.407	-69.29
877.579	29.01
877.752	39.25
877.924	-42.67
878.097	-20.14
878.269	-44.71
878.442	72.02
878.614	-50.86
878.786	-18.09
878.959	-3.75
879.131	-50.86
879.303	-24.23
879.476	-18.09
879.648	-3.75
879.82	12.63
879.993	-16.04
880.165	-28.33
880.337	37.2
880.509	16.73
880.681	-52.91
880.854	33.11
881.026	-50.86
881.198	31.06
881.37	29.01
881.542	43.35
881.714	12.63
881.886	4.44
882.058	-75.43
882.23	-3.75
882.402	-16.04
882.574	-24.23
882.746	-22.19
882.918	-24.23
883.09	-57
883.262	-28.33
883.434	86.36
883.606	0.34
883.778	-36.52
883.95	72.02
884.122	2.39
884.293	8.53
884.465	20.82
884.637	4.44
884.809	41.3
884.98	-38.57
885.152	-9.9
885.324	12.63
885.496	-7.85
885.667	49.49
885.839	-57
886.011	-11.95
886.182	82.26
886.354	37.2
886.525	22.87
886.697	33.11
886.869	-16.04
887.04	-20.14
887.212	-18.09
887.383	6.49
887.555	2.39
887.726	29.01
887.897	-24.23
888.069	2.39
888.24	74.07
888.412	53.59
888.583	-24.23
888.754	33.11
888.926	-40.62
889.097	-18.09
889.268	35.16
889.44	37.2
889.611	41.3
889.782	39.25
889.953	-69.29
890.125	-1.71
890.296	39.25
890.467	39.25
890.638	29.01
890.809	55.64
890.98	6.49
891.151	41.3
891.323	-20.14
891.494	37.2
891.665	-40.62
891.836	16.73
892.007	-26.28
892.178	16.73
892.349	45.4
892.52	-18.09
892.691	-48.81
892.862	8.53
893.032	-13.99
893.203	31.06
893.374	24.92
893.545	6.49
893.716	45.4
893.887	-48.81
894.057	41.3
894.228	61.78
894.399	-42.67
894.57	-36.52
894.74	-100.01
894.911	22.87
895.082	-36.52
895.253	-11.95
895.423	39.25
895.594	39.25
895.764	92.5
895.935	-24.23
896.106	-16.04
896.276	6.49
896.447	-54.95
896.617	63.83
896.788	0.34
896.958	4.44
897.129	-42.67
897.299	-7.85
897.47	-30.38
897.64	35.16
897.81	-63.15
897.981	4.44
898.151	20.82
898.322	-30.38
898.492	33.11
898.662	-18.09
898.832	12.63
899.003	2.39
899.173	2.39
899.343	74.07
899.513	-44.71
