Data from USB4F104151__82__12-59-51-220.txt Node

Date: Fri Mar 14 12:59:51 EDT 2025
User: louis
Spectrometer: USB4F10415
Trigger mode: 4
Integration Time (sec): 1.000000E-2
Scans to average: 1
Electric dark correction enabled: true
Nonlinearity correction enabled: false
Boxcar width: 0
XAxis mode: Wavelengths
Number of Pixels in Spectrum: 3648
>>>>>Begin Spectral Data<<<<<
178.204	15.36
178.424	15.36
178.644	15.36
178.864	-76.8
179.084	-17.41
179.304	-31.74
179.524	25.6
179.744	-9.22
179.964	25.6
180.184	-46.08
180.404	-3.07
180.624	46.08
180.844	29.7
181.064	-1.02
181.283	-9.22
181.503	44.03
181.723	-70.65
181.943	29.7
182.163	9.22
182.383	-58.37
182.602	64.51
182.822	-7.17
183.042	7.17
183.262	-23.55
183.482	-56.32
183.701	64.51
183.921	37.89
184.141	-72.7
184.361	64.51
184.58	-31.74
184.8	-25.6
185.02	23.55
185.239	17.41
185.459	48.13
185.679	-27.65
185.898	19.46
186.118	31.74
186.338	48.13
186.557	119.81
186.777	44.03
186.997	15.36
187.216	19.46
187.436	74.75
187.655	37.89
187.875	46.08
188.095	-44.03
188.314	11.26
188.534	7.17
188.753	-60.42
188.973	-23.55
189.192	64.51
189.412	56.32
189.631	13.31
189.851	-62.46
190.07	19.46
190.29	-19.46
190.509	-1.02
190.729	1.02
190.948	41.98
191.168	29.7
191.387	29.7
191.607	95.23
191.826	-7.17
192.045	3.07
192.265	-48.13
192.484	1.02
192.704	-13.31
192.923	29.7
193.142	50.18
193.362	-41.98
193.581	54.27
193.8	37.89
194.02	33.79
194.239	-13.31
194.458	46.08
194.678	29.7
194.897	19.46
195.116	-29.7
195.335	35.84
195.555	-35.84
195.774	-3.07
195.993	-33.79
196.212	23.55
196.432	1.02
196.651	37.89
196.87	-48.13
197.089	27.65
197.308	27.65
197.528	41.98
197.747	7.17
197.966	13.31
198.185	70.65
198.404	27.65
198.623	15.36
198.842	48.13
199.062	103.42
199.281	5.12
199.5	25.6
199.719	-15.36
199.938	19.46
200.157	31.74
200.376	5.12
200.595	21.5
200.814	-89.09
201.033	35.84
201.252	9.22
201.471	21.5
201.69	-9.22
201.909	50.18
202.128	21.5
202.347	-1.02
202.566	23.55
202.785	-46.08
203.004	-13.31
203.223	84.99
203.442	-23.55
203.661	48.13
203.879	33.79
204.098	-19.46
204.317	29.7
204.536	97.28
204.755	17.41
204.974	5.12
205.193	25.6
205.411	103.42
205.63	5.12
205.849	70.65
206.068	46.08
206.287	27.65
206.505	-1.02
206.724	29.7
206.943	-23.55
207.162	19.46
207.381	35.84
207.599	-7.17
207.818	27.65
208.037	13.31
208.255	-7.17
208.474	-25.6
208.693	13.31
208.911	-23.55
209.13	-17.41
209.349	39.94
209.567	7.17
209.786	5.12
210.005	-19.46
210.223	13.31
210.442	-3.07
210.661	29.7
210.879	33.79
211.098	-3.07
211.316	35.84
211.535	21.5
211.753	21.5
211.972	50.18
212.191	25.6
212.409	-64.51
212.628	23.55
212.846	9.22
213.065	-9.22
213.283	101.37
213.502	58.37
213.72	95.23
213.938	29.7
214.157	-56.32
214.375	31.74
214.594	13.31
214.812	21.5
215.031	-3.07
215.249	64.51
215.467	37.89
215.686	19.46
215.904	17.41
216.122	62.46
216.341	-3.07
216.559	35.84
216.778	9.22
216.996	31.74
217.214	-31.74
217.432	1.02
217.651	-48.13
217.869	-46.08
218.087	7.17
218.306	62.46
218.524	-46.08
218.742	13.31
218.96	97.28
219.179	62.46
219.397	27.65
219.615	-91.13
219.833	-41.98
220.051	-13.31
220.27	-60.42
220.488	-39.94
220.706	54.27
220.924	15.36
221.142	-1.02
221.36	23.55
221.578	7.17
221.796	27.65
222.015	-7.17
222.233	37.89
222.451	-13.31
222.669	19.46
222.887	52.22
223.105	-52.22
223.323	11.26
223.541	-11.26
223.759	23.55
223.977	7.17
224.195	25.6
224.413	-11.26
224.631	1.02
224.849	13.31
225.067	44.03
225.285	-29.7
225.503	-29.7
225.721	-76.8
225.939	46.08
226.157	58.37
226.375	48.13
226.592	17.41
226.81	27.65
227.028	21.5
227.246	37.89
227.464	-3.07
227.682	-39.94
227.9	91.13
228.117	-7.17
228.335	-9.22
228.553	-19.46
228.771	21.5
228.989	62.46
229.206	62.46
229.424	74.75
229.642	15.36
229.86	39.94
230.077	13.31
230.295	-37.89
230.513	27.65
230.731	17.41
230.948	-25.6
231.166	7.17
231.384	27.65
231.601	7.17
231.819	13.31
232.037	35.84
232.254	-7.17
232.472	58.37
232.689	-19.46
232.907	9.22
233.125	7.17
233.342	21.5
233.56	41.98
233.777	5.12
233.995	74.75
234.213	-44.03
234.43	17.41
234.648	-11.26
234.865	41.98
235.083	46.08
235.3	-5.12
235.518	-39.94
235.735	-13.31
235.953	-35.84
236.17	3.07
236.388	62.46
236.605	25.6
236.822	70.65
237.04	-19.46
237.257	13.31
237.475	-33.79
237.692	21.5
237.909	29.7
238.127	48.13
238.344	15.36
238.562	13.31
238.779	-58.37
238.996	23.55
239.214	-97.28
239.431	76.8
239.648	27.65
239.865	5.12
240.083	-1.02
240.3	37.89
240.517	29.7
240.735	-33.79
240.952	13.31
241.169	56.32
241.386	39.94
241.603	-5.12
241.821	-11.26
242.038	-9.22
242.255	9.22
242.472	19.46
242.689	66.56
242.907	54.27
243.124	-9.22
243.341	21.5
243.558	-31.74
243.775	-70.65
243.992	23.55
244.209	21.5
244.426	52.22
244.643	66.56
244.86	-76.8
245.078	5.12
245.295	23.55
245.512	-5.12
245.729	19.46
245.946	5.12
246.163	1.02
246.38	50.18
246.597	-62.46
246.814	21.5
247.031	17.41
247.248	56.32
247.464	76.8
247.681	64.51
247.898	-87.04
248.115	97.28
248.332	-27.65
248.549	13.31
248.766	-31.74
248.983	-41.98
249.2	80.89
249.417	58.37
249.633	3.07
249.85	-48.13
250.067	15.36
250.284	31.74
250.501	-33.79
250.717	58.37
250.934	-9.22
251.151	9.22
251.368	46.08
251.585	7.17
251.801	35.84
252.018	-62.46
252.235	62.46
252.451	84.99
252.668	-33.79
252.885	-7.17
253.102	-23.55
253.318	-60.42
253.535	58.37
253.752	11.26
253.968	105.47
254.185	-72.7
254.401	15.36
254.618	5.12
254.835	-3.07
255.051	78.85
255.268	31.74
255.484	7.17
255.701	33.79
255.917	39.94
256.134	-9.22
256.351	56.32
256.567	9.22
256.784	23.55
257	-46.08
257.217	-13.31
257.433	-15.36
257.65	29.7
257.866	-41.98
258.082	39.94
258.299	9.22
258.515	37.89
258.732	52.22
258.948	5.12
259.165	11.26
259.381	27.65
259.597	48.13
259.814	31.74
260.03	-21.5
260.246	-89.09
260.463	-7.17
260.679	-19.46
260.895	-29.7
261.112	13.31
261.328	17.41
261.544	-1.02
261.761	103.42
261.977	39.94
262.193	-11.26
262.409	-13.31
262.626	27.65
262.842	17.41
263.058	17.41
263.274	-15.36
263.49	25.6
263.707	48.13
263.923	39.94
264.139	-29.7
264.355	11.26
264.571	25.6
264.787	44.03
265.004	70.65
265.22	33.79
265.436	21.5
265.652	-17.41
265.868	72.7
266.084	-27.65
266.3	70.65
266.516	-29.7
266.732	23.55
266.948	-19.46
267.164	17.41
267.38	-19.46
267.596	-76.8
267.812	91.13
268.028	56.32
268.244	-25.6
268.46	-17.41
268.676	5.12
268.892	7.17
269.108	-17.41
269.324	37.89
269.54	-48.13
269.756	66.56
269.972	5.12
270.188	-9.22
270.403	56.32
270.619	50.18
270.835	1.02
271.051	-3.07
271.267	-3.07
271.483	54.27
271.698	21.5
271.914	-5.12
272.13	-15.36
272.346	52.22
272.562	-41.98
272.777	70.65
272.993	-7.17
273.209	9.22
273.425	11.26
273.64	-1.02
273.856	-31.74
274.072	23.55
274.287	-19.46
274.503	54.27
274.719	31.74
274.934	37.89
275.15	-33.79
275.366	-15.36
275.581	-46.08
275.797	5.12
276.012	-11.26
276.228	-41.98
276.444	17.41
276.659	72.7
276.875	-15.36
277.09	41.98
277.306	111.61
277.521	48.13
277.737	70.65
277.952	70.65
278.168	-35.84
278.383	17.41
278.599	9.22
278.814	39.94
279.03	54.27
279.245	91.13
279.461	91.13
279.676	50.18
279.892	-19.46
280.107	-21.5
280.322	41.98
280.538	58.37
280.753	-39.94
280.969	107.52
281.184	9.22
281.399	37.89
281.615	7.17
281.83	29.7
282.045	25.6
282.26	46.08
282.476	-11.26
282.691	50.18
282.906	58.37
283.122	-21.5
283.337	-17.41
283.552	33.79
283.767	-39.94
283.983	5.12
284.198	9.22
284.413	-5.12
284.628	17.41
284.843	44.03
285.058	-1.02
285.274	78.85
285.489	13.31
285.704	46.08
285.919	-31.74
286.134	50.18
286.349	-33.79
286.564	9.22
286.779	46.08
286.995	23.55
287.21	-29.7
287.425	-17.41
287.64	-76.8
287.855	-11.26
288.07	-3.07
288.285	39.94
288.5	17.41
288.715	29.7
288.93	-39.94
289.145	21.5
289.36	-21.5
289.575	70.65
289.79	68.61
290.004	52.22
290.219	21.5
290.434	46.08
290.649	11.26
290.864	-25.6
291.079	19.46
291.294	70.65
291.509	5.12
291.724	13.31
291.938	-5.12
292.153	23.55
292.368	17.41
292.583	54.27
292.798	21.5
293.012	48.13
293.227	11.26
293.442	35.84
293.657	5.12
293.871	-17.41
294.086	1.02
294.301	-11.26
294.516	3.07
294.73	7.17
294.945	37.89
295.16	17.41
295.374	11.26
295.589	37.89
295.804	25.6
296.018	33.79
296.233	52.22
296.447	103.42
296.662	5.12
296.877	-46.08
297.091	-3.07
297.306	35.84
297.52	-31.74
297.735	15.36
297.949	-27.65
298.164	9.22
298.378	31.74
298.593	-41.98
298.807	39.94
299.022	23.55
299.236	-5.12
299.451	-3.07
299.665	19.46
299.88	52.22
300.094	13.31
300.309	54.27
300.523	21.5
300.737	46.08
300.952	52.22
301.166	-11.26
301.381	9.22
301.595	11.26
301.809	-5.12
302.024	7.17
302.238	19.46
302.452	62.46
302.667	-15.36
302.881	29.7
303.095	21.5
303.309	44.03
303.524	-23.55
303.738	21.5
303.952	84.99
304.166	39.94
304.381	13.31
304.595	-29.7
304.809	41.98
305.023	72.7
305.237	-5.12
305.452	31.74
305.666	-39.94
305.88	-35.84
306.094	52.22
306.308	97.28
306.522	76.8
306.736	33.79
306.95	9.22
307.164	95.23
307.379	19.46
307.593	44.03
307.807	64.51
308.021	1.02
308.235	50.18
308.449	5.12
308.663	25.6
308.877	15.36
309.091	-50.18
309.305	87.04
309.519	25.6
309.733	72.7
309.947	-109.57
310.161	-7.17
310.374	7.17
310.588	-1.02
310.802	44.03
311.016	11.26
311.23	-9.22
311.444	-3.07
311.658	9.22
311.872	70.65
312.085	70.65
312.299	89.09
312.513	21.5
312.727	87.04
312.941	-7.17
313.154	13.31
313.368	29.7
313.582	-5.12
313.796	48.13
314.009	29.7
314.223	29.7
314.437	9.22
314.651	31.74
314.864	41.98
315.078	17.41
315.292	17.41
315.505	-60.42
315.719	-23.55
315.933	58.37
316.146	21.5
316.36	41.98
316.573	48.13
316.787	-13.31
317.001	58.37
317.214	-39.94
317.428	23.55
317.641	56.32
317.855	41.98
318.068	33.79
318.282	41.98
318.495	46.08
318.709	21.5
318.922	-17.41
319.136	72.7
319.349	87.04
319.563	70.65
319.776	-17.41
319.99	48.13
320.203	7.17
320.417	15.36
320.63	70.65
320.843	62.46
321.057	70.65
321.27	54.27
321.483	48.13
321.697	56.32
321.91	70.65
322.124	56.32
322.337	-27.65
322.55	58.37
322.763	-11.26
322.977	9.22
323.19	39.94
323.403	39.94
323.617	82.94
323.83	29.7
324.043	97.28
324.256	119.81
324.469	-37.89
324.683	150.53
324.896	29.7
325.109	68.61
325.322	-1.02
325.535	48.13
325.748	-13.31
325.962	-39.94
326.175	1.02
326.388	-7.17
326.601	48.13
326.814	31.74
327.027	13.31
327.24	80.89
327.453	82.94
327.666	11.26
327.879	56.32
328.092	29.7
328.305	64.51
328.518	17.41
328.731	-13.31
328.944	70.65
329.157	-46.08
329.37	29.7
329.583	62.46
329.796	119.81
330.009	-3.07
330.222	3.07
330.435	15.36
330.648	33.79
330.861	1.02
331.073	27.65
331.286	29.7
331.499	17.41
331.712	39.94
331.925	78.85
332.138	60.42
332.35	35.84
332.563	29.7
332.776	101.37
332.989	48.13
333.202	64.51
333.414	37.89
333.627	64.51
333.84	-3.07
334.053	-9.22
334.265	27.65
334.478	80.89
334.691	25.6
334.903	25.6
335.116	-23.55
335.329	-9.22
335.541	72.7
335.754	-23.55
335.966	-1.02
336.179	-17.41
336.392	-84.99
336.604	-87.04
336.817	33.79
337.029	74.75
337.242	72.7
337.454	9.22
337.667	41.98
337.88	1.02
338.092	13.31
338.305	95.23
338.517	-78.85
338.729	66.56
338.942	-5.12
339.154	-27.65
339.367	-9.22
339.579	68.61
339.792	13.31
340.004	13.31
340.217	-9.22
340.429	13.31
340.641	52.22
340.854	25.6
341.066	17.41
341.278	25.6
341.491	-80.89
341.703	74.75
341.915	-46.08
342.128	9.22
342.34	48.13
342.552	-35.84
342.764	54.27
342.977	41.98
343.189	-23.55
343.401	13.31
343.613	-46.08
343.826	54.27
344.038	9.22
344.25	-27.65
344.462	52.22
344.674	41.98
344.886	-50.18
345.099	-9.22
345.311	29.7
345.523	-9.22
345.735	-15.36
345.947	31.74
346.159	-1.02
346.371	76.8
346.583	-3.07
346.795	39.94
347.007	-27.65
347.219	62.46
347.431	-5.12
347.643	72.7
347.855	25.6
348.067	-3.07
348.279	27.65
348.491	70.65
348.703	-5.12
348.915	60.42
349.127	-5.12
349.339	5.12
349.551	7.17
349.763	58.37
349.975	-19.46
350.187	50.18
350.399	21.5
350.61	54.27
350.822	-5.12
351.034	-5.12
351.246	-19.46
351.458	52.22
351.669	107.52
351.881	29.7
352.093	37.89
352.305	23.55
352.517	-11.26
352.728	5.12
352.94	66.56
353.152	-19.46
353.363	15.36
353.575	15.36
353.787	-37.89
353.999	66.56
354.21	64.51
354.422	-25.6
354.633	35.84
354.845	80.89
355.057	-37.89
355.268	-33.79
355.48	74.75
355.692	-11.26
355.903	-29.7
356.115	54.27
356.326	5.12
356.538	78.85
356.749	-3.07
356.961	-44.03
357.172	1.02
357.384	64.51
357.595	80.89
357.807	93.18
358.018	21.5
358.23	44.03
358.441	13.31
358.653	23.55
358.864	35.84
359.075	-21.5
359.287	54.27
359.498	-25.6
359.709	-13.31
359.921	64.51
360.132	21.5
360.344	-9.22
360.555	89.09
360.766	21.5
360.977	7.17
361.189	-97.28
361.4	13.31
361.611	-19.46
361.823	-33.79
362.034	13.31
362.245	91.13
362.456	25.6
362.667	-29.7
362.879	-23.55
363.09	7.17
363.301	17.41
363.512	29.7
363.723	13.31
363.935	41.98
364.146	29.7
364.357	-35.84
364.568	35.84
364.779	-13.31
364.99	19.46
365.201	3.07
365.412	87.04
365.623	19.46
365.834	25.6
366.045	23.55
366.256	70.65
366.467	41.98
366.678	-13.31
366.889	-19.46
367.1	-54.27
367.311	27.65
367.522	-76.8
367.733	21.5
367.944	-109.57
368.155	15.36
368.366	97.28
368.577	52.22
368.788	1.02
368.999	66.56
369.209	48.13
369.42	15.36
369.631	27.65
369.842	-41.98
370.053	7.17
370.264	72.7
370.474	99.33
370.685	-15.36
370.896	46.08
371.107	50.18
371.317	64.51
371.528	33.79
371.739	5.12
371.95	80.89
372.16	103.42
372.371	-5.12
372.582	48.13
372.792	60.42
373.003	27.65
373.214	-70.65
373.424	21.5
373.635	76.8
373.846	17.41
374.056	-5.12
374.267	46.08
374.477	35.84
374.688	25.6
374.898	-27.65
375.109	15.36
375.319	5.12
375.53	-3.07
375.74	-7.17
375.951	48.13
376.161	44.03
376.372	-35.84
376.582	-19.46
376.793	17.41
377.003	-1.02
377.214	23.55
377.424	41.98
377.635	23.55
377.845	39.94
378.055	56.32
378.266	-9.22
378.476	25.6
378.686	23.55
378.897	27.65
379.107	3.07
379.317	37.89
379.528	-1.02
379.738	23.55
379.948	3.07
380.158	66.56
380.369	25.6
380.579	54.27
380.789	-48.13
380.999	54.27
381.21	68.61
381.42	39.94
381.63	72.7
381.84	37.89
382.05	23.55
382.261	23.55
382.471	-27.65
382.681	13.31
382.891	31.74
383.101	37.89
383.311	52.22
383.521	46.08
383.731	11.26
383.941	-1.02
384.151	27.65
384.361	56.32
384.571	21.5
384.781	78.85
384.991	27.65
385.201	48.13
385.411	19.46
385.621	48.13
385.831	76.8
386.041	87.04
386.251	-11.26
386.461	103.42
386.671	33.79
386.881	39.94
387.091	-33.79
387.301	46.08
387.511	-7.17
387.72	29.7
387.93	39.94
388.14	78.85
388.35	7.17
388.56	64.51
388.769	27.65
388.979	-31.74
389.189	33.79
389.399	39.94
389.609	56.32
389.818	3.07
390.028	15.36
390.238	-11.26
390.447	25.6
390.657	9.22
390.867	-58.37
391.076	72.7
391.286	9.22
391.496	78.85
391.705	-11.26
391.915	-19.46
392.125	-3.07
392.334	78.85
392.544	15.36
392.753	-23.55
392.963	23.55
393.172	13.31
393.382	50.18
393.591	-37.89
393.801	-46.08
394.01	123.9
394.22	17.41
394.429	-15.36
394.639	-27.65
394.848	54.27
395.058	11.26
395.267	-35.84
395.477	78.85
395.686	1.02
395.895	44.03
396.105	117.76
396.314	41.98
396.524	76.8
396.733	5.12
396.942	119.81
397.152	50.18
397.361	101.37
397.57	99.33
397.78	93.18
397.989	23.55
398.198	111.61
398.407	44.03
398.617	74.75
398.826	56.32
399.035	41.98
399.244	54.27
399.453	37.89
399.663	52.22
399.872	95.23
400.081	54.27
400.29	68.61
400.499	13.31
400.708	58.37
400.917	35.84
401.127	41.98
401.336	-9.22
401.545	56.32
401.754	13.31
401.963	66.56
402.172	-3.07
402.381	54.27
402.59	50.18
402.799	52.22
403.008	115.71
403.217	-17.41
403.426	56.32
403.635	29.7
403.844	119.81
404.053	15.36
404.262	41.98
404.471	64.51
404.68	80.89
404.888	95.23
405.097	44.03
405.306	72.7
405.515	64.51
405.724	89.09
405.933	99.33
406.142	54.27
406.35	156.67
406.559	121.85
406.768	66.56
406.977	56.32
407.185	84.99
407.394	82.94
407.603	80.89
407.812	130.05
408.02	113.66
408.229	140.29
408.438	78.85
408.646	171.01
408.855	56.32
409.064	121.85
409.272	101.37
409.481	138.24
409.69	87.04
409.898	93.18
410.107	105.47
410.315	121.85
410.524	91.13
410.733	130.05
410.941	107.52
411.15	138.24
411.358	193.53
411.567	166.91
411.775	119.81
411.984	152.57
412.192	156.67
412.401	179.2
412.609	189.44
412.818	244.73
413.026	209.92
413.234	185.34
413.443	222.2
413.651	224.25
413.86	230.4
414.068	263.16
414.276	287.74
414.485	244.73
414.693	302.08
414.901	244.73
415.11	304.12
415.318	228.35
415.526	304.12
415.734	308.22
415.943	281.6
416.151	353.27
416.359	322.56
416.567	291.84
416.776	343.03
416.984	322.56
417.192	302.08
417.4	406.52
417.608	375.8
417.817	392.19
418.025	449.53
418.233	451.58
418.441	410.62
418.649	457.72
418.857	525.3
419.065	590.84
419.273	556.02
419.481	590.84
419.689	633.85
419.897	615.41
420.105	588.79
420.313	676.85
420.521	672.76
420.729	705.53
420.937	660.47
421.145	648.18
421.353	699.38
421.561	711.67
421.769	760.82
421.977	834.55
422.185	775.16
422.393	887.79
422.601	828.4
422.809	965.62
423.017	996.34
423.224	926.71
423.432	998.38
423.64	1031.15
423.848	1151.98
424.056	1070.06
424.263	1139.69
424.471	1244.14
424.679	1190.89
424.887	1197.04
425.094	1266.67
425.302	1364.97
425.51	1383.4
425.718	1360.88
425.925	1410.03
426.133	1426.41
426.341	1565.67
426.548	1575.91
426.756	1577.96
426.964	1627.11
427.171	1663.97
427.379	1756.13
427.586	1711.08
427.794	1737.7
428.001	1866.72
428.209	2001.89
428.417	1893.35
428.624	1989.6
428.832	2063.33
429.039	2085.86
429.247	2063.33
429.454	2196.45
429.662	2483.16
429.869	2274.27
430.076	2368.48
430.284	2307.04
430.491	2489.31
430.699	2655.19
430.906	2642.9
431.114	2614.23
431.321	2763.73
431.528	2831.32
431.736	2980.82
431.943	3158.99
432.15	3097.55
432.358	2919.38
432.565	3156.94
432.772	3304.4
432.979	3347.4
433.187	3376.08
433.394	3513.29
433.601	3652.55
433.808	3800.01
434.016	3617.74
434.223	3779.53
434.43	4111.3
434.637	4015.04
434.844	4094.91
435.052	4244.42
435.259	4281.28
435.466	4334.53
435.673	4318.14
435.88	4527.03
436.087	4883.38
436.294	4887.48
436.501	4766.65
436.708	4707.26
436.915	5045.17
437.122	5071.79
437.329	5206.96
437.537	5276.59
437.743	5333.93
437.95	5381.04
438.157	5626.79
438.364	5841.83
438.571	5741.48
438.778	5927.85
438.985	6353.82
439.192	6136.74
439.399	6329.25
439.606	6142.88
439.813	6486.94
440.02	7019.41
440.227	6917.01
440.433	6814.62
440.64	7246.74
440.847	7037.84
441.054	7175.06
441.261	7746.44
441.467	7338.9
441.674	7693.19
441.881	8053.64
442.088	7828.36
442.294	7857.03
442.501	8098.69
442.708	8250.24
442.914	8633.21
443.121	8993.65
443.328	8733.56
443.534	9507.69
443.741	9065.33
443.948	8930.17
444.154	9679.72
444.361	9440.11
444.568	9704.3
444.774	9698.16
444.981	9816.94
445.187	9917.29
445.394	10455.9
445.6	10197.86
445.807	11344.72
446.013	10799.96
446.22	11248.47
446.426	11582.29
446.633	11639.63
446.839	12055.37
447.046	11510.61
447.252	12544.83
447.459	12254.02
447.665	11979.59
447.871	12843.84
448.078	13361.97
448.284	12536.64
448.491	13091.64
448.697	13490.99
448.903	13894.44
449.11	13642.54
449.316	13630.26
449.522	13984.55
449.728	14422.82
449.935	14127.91
450.141	14342.95
450.347	14680.86
450.553	14084.91
450.76	14412.58
450.966	14873.37
451.172	14770.97
451.378	15252.25
451.584	14744.35
451.791	15258.39
451.997	15389.46
452.203	15565.59
452.409	15174.42
452.615	15278.87
452.821	14906.14
453.027	14777.12
453.233	15561.49
453.44	14965.53
453.646	15147.8
453.852	15250.2
454.058	15229.72
454.264	15112.99
454.47	15209.24
454.676	15127.32
454.882	15373.08
455.088	14029.61
455.294	14484.26
455.5	14621.47
455.705	14670.62
455.911	14101.29
456.117	13753.13
456.323	13620.02
456.529	13136.7
456.735	13382.45
456.941	13314.87
457.147	12796.73
457.352	12518.21
457.558	12708.67
457.764	12499.78
457.97	12264.26
458.176	12043.08
458.381	11918.15
458.587	11297.62
458.793	11342.67
458.999	10845.02
459.204	11592.53
459.41	11223.89
459.616	10466.14
459.821	10439.52
460.027	10560.35
460.233	10224.48
460.438	9812.84
460.644	10013.54
460.85	9370.48
461.055	9214.84
461.261	9259.89
461.466	8682.36
461.672	8457.09
461.878	8930.17
462.083	8340.35
462.289	8096.64
462.494	8246.15
462.7	7543.69
462.905	7500.69
463.111	7840.65
463.316	7947.14
463.522	7586.7
463.727	7764.87
463.932	7539.6
464.138	7469.97
464.343	7525.26
464.549	7314.32
464.754	7574.41
464.959	7605.13
465.165	7429.01
465.37	7175.06
465.575	6855.58
465.781	7299.98
465.986	7293.84
466.191	7209.87
466.397	6843.29
466.602	6482.85
466.807	6712.22
467.012	6738.84
467.218	6773.66
467.423	6794.14
467.628	6689.69
467.833	7121.81
468.038	6810.52
468.244	6683.55
468.449	6837.14
468.654	6714.27
468.859	6671.26
469.064	6556.57
469.269	6456.22
469.474	6347.68
469.679	6462.37
469.885	6448.03
470.09	6497.18
470.295	6241.18
470.5	6296.48
470.705	6208.42
470.91	6151.07
471.115	6116.26
471.32	6247.33
471.525	6128.55
471.73	5878.69
471.935	5985.19
472.139	5694.38
472.344	5940.13
472.549	5794.73
472.754	5876.65
472.959	5514.16
473.164	5598.12
473.369	5471.15
473.574	5712.81
473.778	5645.23
473.983	5399.47
474.188	5364.65
474.393	5272.5
474.598	5241.78
474.802	5268.4
475.007	5092.27
475.212	5149.62
475.417	5032.88
475.621	4977.59
475.826	5059.51
476.031	4930.48
476.235	4737.98
476.44	4971.44
476.645	4914.1
476.849	4783.03
477.054	4733.88
477.259	4731.83
477.463	4815.8
477.668	4649.91
477.872	4617.15
478.077	4594.62
478.282	4453.31
478.486	4398.01
478.691	4350.91
478.895	4422.59
479.1	4348.86
479.304	4461.5
479.509	4225.98
479.713	4340.67
479.918	4191.17
480.122	4211.65
480.326	4148.16
480.531	4295.61
480.735	4103.11
480.94	4160.45
481.144	4352.96
481.348	4033.47
481.553	4037.57
481.757	4066.24
481.961	4119.49
482.166	4230.08
482.37	4250.56
482.574	4025.28
482.778	4142.02
482.983	3957.7
483.187	4033.47
483.391	4094.91
483.595	4092.87
483.8	4084.67
484.004	4023.23
484.208	4123.59
484.412	4076.48
484.616	4180.93
484.821	4170.69
485.025	4002.75
485.229	4021.19
485.433	4092.87
485.637	4047.81
485.841	4228.03
486.045	4019.14
486.249	4191.17
486.453	4035.52
486.657	4084.67
486.861	4043.71
487.065	4051.91
487.269	4176.83
487.473	3933.12
487.677	4207.55
487.881	4221.89
488.085	4109.25
488.289	4058.05
488.493	4060.1
488.697	4084.67
488.901	4172.74
489.105	4099.01
489.309	4123.59
489.512	4170.69
489.716	4273.09
489.92	4105.15
490.124	4094.91
490.328	4121.54
490.531	4139.97
490.735	4266.94
490.939	4133.82
491.143	4201.41
491.346	4236.22
491.55	4408.25
491.754	4309.95
491.958	4324.29
492.161	4434.88
492.365	4449.21
492.569	4514.75
492.772	4481.98
492.976	4383.68
493.18	4565.95
493.383	4670.39
493.587	4432.83
493.79	4651.96
493.994	4416.44
494.197	4522.94
494.401	4647.87
494.605	4535.23
494.808	4742.07
495.012	4731.83
495.215	4772.79
495.419	4785.08
495.622	4715.45
495.825	4774.84
496.029	4975.54
496.232	4948.92
496.436	4940.72
496.639	5055.41
496.843	5149.62
497.046	5088.18
497.249	5305.26
497.453	5198.77
497.656	5307.31
497.859	5370.8
498.063	5395.37
498.266	5452.72
498.469	5438.38
498.673	5534.64
498.876	5610.41
499.079	5553.07
499.282	5788.58
499.485	5929.89
499.689	5888.93
499.892	5977
500.095	5942.18
500.298	6085.54
500.501	6177.7
500.705	6118.31
500.908	6163.36
501.111	6200.23
501.314	6304.67
501.517	6611.87
501.72	6562.72
501.923	6628.25
502.126	6859.67
502.329	6718.36
502.532	6855.58
502.735	6990.74
502.938	7148.43
503.141	7275.41
503.344	7197.59
503.547	7297.94
503.75	7386
503.953	7519.12
504.156	7506.83
504.359	7691.15
504.562	7785.35
504.765	8024.97
504.968	7842.7
505.17	8022.92
505.373	8033.16
505.576	8293.25
505.779	8291.2
505.982	8221.57
506.185	8528.77
506.387	8512.38
506.59	8598.4
506.793	8805.24
506.996	8704.89
507.198	9067.38
507.401	9061.24
507.604	9053.05
507.807	9306.99
508.009	9458.54
508.212	9417.58
508.415	9644.91
508.617	9790.31
508.82	9792.36
509.022	9886.57
509.225	10058.6
509.428	10152.81
509.63	10269.54
509.833	10343.27
510.035	10746.72
510.238	10515.3
510.44	10736.48
510.643	10879.83
510.845	10943.32
511.048	10918.75
511.25	11314
511.453	11271
511.655	11696.97
511.858	11387.73
512.06	11500.37
512.262	11760.46
512.465	11737.93
512.667	12020.55
512.87	12204.87
513.072	12149.57
513.274	12297.03
513.477	12417.86
513.679	12481.35
513.881	12743.49
514.084	12884.8
514.286	13003.58
514.488	13036.35
514.69	13562.67
514.893	13439.79
515.095	13607.73
515.297	13742.89
515.499	13816.62
515.701	14099.24
515.904	14308.13
516.106	14189.35
516.308	14390.05
516.51	14308.13
516.712	14656.29
516.914	14693.15
517.116	14981.92
517.318	15026.97
517.52	15342.36
517.722	15274.77
517.925	15471.38
518.127	15403.8
518.329	15840.01
518.531	15698.7
518.733	15852.3
518.935	16139.02
519.136	16136.97
519.338	16626.43
519.54	16435.97
519.742	16712.45
519.944	16829.18
520.146	17140.47
520.348	17175.29
520.55	17171.19
520.752	17298.17
520.954	17787.63
521.155	17349.37
521.357	17890.03
521.559	18092.78
521.761	17900.27
521.963	18240.23
522.164	18342.63
522.366	18514.66
522.568	18805.47
522.77	19086.04
522.971	18895.58
523.173	18764.51
523.375	19204.83
523.576	19380.95
523.778	19610.32
523.98	19542.74
524.181	19440.34
524.383	19808.98
524.584	19778.26
524.786	19806.93
524.988	19632.85
525.189	19880.66
525.391	20228.81
525.592	20087.5
525.794	20183.76
525.995	20619.97
526.197	20511.43
526.398	20562.63
526.6	20671.17
526.801	20814.53
527.003	21029.57
527.204	20830.91
527.406	21162.69
527.607	20998.85
527.808	21371.58
528.01	21070.53
528.211	21377.72
528.412	21457.59
528.614	21648.05
528.815	21643.96
529.016	21736.12
529.218	21473.98
529.419	21940.91
529.62	21758.64
529.822	21576.37
530.023	21707.44
530.224	21725.88
530.425	21680.82
530.626	21809.84
530.828	21744.31
531.029	22356.65
531.23	21756.6
531.431	21856.95
531.632	21953.2
531.833	22323.88
532.035	22194.86
532.236	22125.23
532.437	22016.69
532.638	22330.03
532.839	22543.02
533.04	22473.39
533.241	22006.45
533.442	22565.54
533.643	22567.59
533.844	22287.02
534.045	22325.93
534.246	22268.59
534.447	22713
534.648	22454.95
534.849	22356.65
535.05	22442.67
535.251	22352.55
535.451	22391.47
535.652	22440.62
535.853	22350.51
536.054	22518.44
536.255	22538.92
536.456	22481.58
536.657	22788.77
536.857	22459.05
537.058	22268.59
537.259	22649.51
537.46	22811.3
537.66	22543.02
537.861	22649.51
538.062	22387.37
538.263	22713
538.463	22375.08
538.664	22442.67
538.865	22586.02
539.065	22594.22
539.266	22330.03
539.466	22706.85
539.667	22346.41
539.868	22565.54
540.068	22497.96
540.269	22364.84
540.469	22588.07
540.67	22244.01
540.87	22426.28
541.071	22643.37
541.271	22643.37
541.472	22459.05
541.672	22317.74
541.873	22246.06
542.073	22370.99
542.274	22608.55
542.474	22854.31
542.675	22323.88
542.875	22473.39
543.075	22659.75
543.276	22254.25
543.476	22639.27
543.676	22583.98
543.877	22422.19
544.077	22565.54
544.277	22190.77
544.478	22489.77
544.678	22540.97
544.878	22686.37
545.078	22708.9
545.279	22241.96
545.479	22313.64
545.679	22581.93
545.879	22305.45
546.079	22473.39
546.28	22397.61
546.48	22264.49
546.68	22436.52
546.88	22158
547.08	22469.29
547.28	22370.99
547.48	22356.65
547.68	22364.84
547.88	22362.79
548.081	22289.07
548.281	22465.19
548.481	22330.03
548.681	22614.69
548.881	22413.99
549.081	22198.96
549.28	22506.15
549.48	22403.75
549.68	22327.98
549.88	22710.95
550.08	22039.22
550.28	22567.59
550.48	22135.47
550.68	22604.46
550.88	22213.29
551.08	22413.99
551.279	22391.47
551.479	22258.35
551.679	22321.84
551.879	22303.4
552.079	22260.4
552.278	22190.77
552.478	21983.92
552.678	22153.9
552.878	22188.72
553.077	21932.72
553.277	22045.36
553.477	22391.47
553.676	21875.38
553.876	22049.46
554.076	22108.85
554.275	21938.87
554.475	21834.42
554.674	22201.01
554.874	22035.12
555.074	22184.62
555.273	21983.92
555.473	22227.63
555.672	21922.48
555.872	21924.53
556.071	22127.28
556.271	22102.7
556.47	21902
556.67	21805.75
556.869	21551.8
557.068	22022.83
557.268	21566.13
557.467	21945.01
557.667	21600.95
557.866	21652.15
558.065	21680.82
558.265	21414.59
558.464	21629.62
558.663	22043.31
558.863	21437.11
559.062	21803.7
559.261	21738.16
559.461	21777.08
559.66	21410.49
559.859	21408.44
560.058	21445.3
560.258	21400.25
560.457	20998.85
560.656	21281.47
560.855	21371.58
561.054	21746.36
561.253	21318.33
561.453	21332.67
561.652	21516.98
561.851	21293.76
562.05	21351.1
562.249	21381.82
562.448	21445.3
562.647	21258.94
562.846	21201.6
563.045	21326.52
563.244	20929.22
563.443	21375.67
563.642	20730.56
563.841	20951.74
564.04	20800.19
564.239	21160.64
564.438	20957.89
564.637	20761.28
564.836	20806.34
565.035	20509.38
565.234	20755.14
565.432	20628.17
565.631	20533.96
565.83	20959.94
566.029	20812.48
566.228	20558.53
566.427	20716.23
566.625	20703.94
566.824	20275.91
567.023	20683.46
567.222	19997.39
567.42	20830.91
567.619	20378.31
567.818	20091.6
568.016	20081.36
568.215	20261.58
568.414	20087.5
568.612	20036.3
568.811	19917.52
569.01	20024.01
569.208	19835.6
569.407	20392.65
569.605	19561.17
569.804	19913.42
570.002	19667.67
570.201	19548.89
570.4	19626.71
570.598	19600.08
570.797	19536.6
570.995	19299.03
571.193	19167.96
571.392	19385.05
571.59	19299.03
571.789	19389.14
571.987	19202.78
572.186	19182.3
572.384	19073.76
572.582	19172.06
572.781	19305.18
572.979	18950.88
573.177	19075.8
573.376	19253.98
573.574	18879.2
573.772	19047.13
573.971	18920.16
574.169	18881.25
574.367	18649.83
574.565	18883.3
574.763	18762.47
574.962	18707.17
575.16	18531.05
575.358	18584.29
575.556	18350.82
575.754	18756.32
575.952	18238.19
576.151	18475.75
576.349	18215.66
576.547	18359.02
576.745	18143.98
576.943	18313.96
577.141	18338.54
577.339	17994.48
577.537	18338.54
577.735	18006.77
577.933	17959.66
578.131	17896.17
578.329	17591.03
578.527	17687.28
578.725	17824.5
578.923	17797.87
579.121	17849.07
579.319	17826.54
579.516	17580.79
579.714	17570.55
579.912	17474.29
580.11	17326.84
580.308	17527.54
580.506	17462.01
580.704	17038.08
580.901	17591.03
581.099	17359.61
581.297	17177.34
581.495	17081.08
581.692	17238.78
581.89	17007.36
582.088	17140.47
582.285	16835.33
582.483	17201.91
582.681	17013.5
582.878	16853.76
583.076	16780.03
583.274	16900.86
583.471	16546.56
583.669	16837.38
583.866	16653.06
584.064	16657.15
584.262	16872.19
584.459	16700.16
584.657	16569.09
584.854	16575.24
585.052	16210.7
585.249	16296.71
585.447	16413.45
585.644	16577.28
585.841	16317.19
586.039	16259.85
586.236	15897.36
586.434	16147.21
586.631	15954.7
586.828	16237.32
587.026	15962.89
587.223	15897.36
587.42	16093.96
587.618	15651.6
587.815	15682.32
588.012	15706.9
588.21	15475.48
588.407	15758.1
588.604	15667.98
588.801	15495.96
588.999	15545.11
589.196	15772.43
589.393	15551.25
589.59	15250.2
589.787	15407.89
589.984	15688.46
590.182	15235.86
590.379	15514.39
590.576	15149.85
590.773	15313.69
590.97	15092.51
591.167	15010.59
591.364	14967.58
591.561	14977.82
591.758	14807.84
591.955	14906.14
592.152	15153.94
592.349	15045.4
592.546	14754.59
592.743	14873.37
592.94	14752.54
593.137	14687.01
593.334	14592.8
593.531	14560.03
593.727	14650.14
593.924	14377.76
594.121	14299.94
594.318	14605.09
594.515	14238.5
594.712	14373.67
594.908	14111.53
595.105	14320.42
595.302	14136.1
595.499	14369.57
595.696	14201.64
595.892	14232.36
596.089	13912.88
596.286	14103.34
596.482	13898.54
596.679	14066.47
596.876	14127.91
597.072	13810.48
597.269	13914.92
597.466	13652.78
597.662	13734.7
597.859	13931.31
598.055	13581.1
598.252	13800.24
598.448	13519.67
598.645	13480.75
598.841	13435.7
599.038	13429.56
599.234	13634.35
599.431	13189.94
599.627	13456.18
599.824	13249.33
600.02	13292.34
600.217	13302.58
600.413	12946.23
600.609	12884.8
600.806	13155.13
601.002	13108.02
601.198	12997.43
601.395	13044.54
601.591	13122.36
601.787	12940.09
601.984	13112.12
602.18	12841.79
602.376	12591.94
602.572	12602.18
602.769	12651.33
602.965	12403.52
603.161	12710.72
603.357	12657.47
603.553	12550.98
603.75	12610.37
603.946	12591.94
604.142	12524.35
604.338	12524.35
604.534	12636.99
604.73	12473.15
604.926	12274.5
605.122	12323.65
605.318	12190.53
605.514	12194.63
605.71	12202.82
605.906	12159.81
606.102	12102.47
606.298	12104.52
606.494	12071.75
606.69	12243.78
606.886	11801.42
607.082	11897.67
607.278	12053.32
607.474	11844.43
607.67	11936.59
607.866	11653.97
608.062	11961.16
608.257	11572.05
608.453	11821.9
608.649	11838.28
608.845	11533.14
609.041	11547.47
609.236	11641.68
609.432	11809.61
609.628	11613.01
609.824	11713.36
610.019	11455.31
610.215	11526.99
610.411	11397.97
610.606	11504.46
610.802	11383.63
610.998	11598.67
611.193	11271
611.389	11107.16
611.584	11414.35
611.78	11182.93
611.976	11227.99
612.171	11273.04
612.367	11264.85
612.562	10986.33
612.758	11058.01
612.953	11076.44
613.149	11402.07
613.344	11281.24
613.539	11191.13
613.735	11064.15
613.93	11154.26
614.126	11055.96
614.321	10982.23
614.517	11068.25
614.712	11043.67
614.907	10949.46
615.103	11025.24
615.298	10898.27
615.493	10883.93
615.688	10736.48
615.884	11055.96
616.079	10754.91
616.274	10709.85
616.47	10648.41
616.665	10838.87
616.86	10726.24
617.055	10576.73
617.25	10580.83
617.445	10742.62
617.641	10507.1
617.836	10642.27
618.031	10672.99
618.226	10376.03
618.421	10412.9
618.616	10574.69
618.811	10449.76
619.006	10503.01
619.201	10361.7
619.396	10539.87
619.591	10216.29
619.786	10171.24
619.981	10066.79
620.176	10193.76
620.371	10054.5
620.566	10019.69
620.761	9890.67
620.956	10113.89
621.151	9905
621.346	9915.24
621.541	9788.27
621.735	9739.12
621.93	9519.98
622.125	9653.1
622.32	9651.05
622.515	9663.34
622.709	9540.46
622.904	9651.05
623.099	9266.03
623.294	9235.32
623.488	9376.62
623.683	9231.22
623.878	9216.88
624.072	9397.1
624.267	9153.4
624.462	9069.43
624.656	9143.16
624.851	9212.79
625.046	9102.2
625.24	8864.63
625.435	8665.98
625.629	9128.82
625.824	8745.85
626.018	8934.26
626.213	8596.35
626.407	8680.32
626.602	8383.36
626.796	8592.25
626.991	8629.12
627.185	8319.87
627.38	8414.08
627.574	8440.7
627.768	8223.62
627.963	8180.61
628.157	8237.95
628.352	8160.13
628.546	8145.8
628.74	8006.53
628.935	8180.61
629.129	8100.74
629.323	7990.15
629.517	7820.17
629.712	7844.74
629.906	8012.68
630.1	7811.98
630.294	7885.7
630.489	7691.15
630.683	7811.98
630.877	7691.15
631.071	7500.69
631.265	7734.15
631.459	7633.8
631.653	7633.8
631.848	7510.93
632.042	7207.83
632.236	7535.5
632.43	7459.73
632.624	7492.49
632.818	7203.73
633.012	7351.18
633.206	7429.01
633.4	7279.5
633.594	7189.39
633.788	6968.21
633.982	7023.51
634.176	6943.64
634.369	6994.84
634.563	6933.4
634.757	6976.41
634.951	6693.79
635.145	6771.61
635.339	6902.68
635.533	6882.2
635.726	6845.34
635.92	6648.73
636.114	6671.26
636.308	6759.32
636.501	6462.37
636.695	6620.06
636.889	6497.18
637.083	6546.33
637.276	6288.29
637.47	6509.47
637.664	6523.8
637.857	6269.86
638.051	6378.4
638.244	6378.4
638.438	6206.37
638.632	6200.23
638.825	6323.1
639.019	6171.55
639.212	6173.6
639.406	6036.39
639.599	6065.06
639.793	5991.33
639.986	5817.26
640.18	6007.72
640.373	5833.64
640.567	5839.78
640.76	5923.75
640.954	5657.51
641.147	5634.99
641.34	5948.33
641.534	5657.51
641.727	5745.58
641.92	5663.66
642.114	5628.84
642.307	5682.09
642.5	5696.43
642.694	5585.83
642.887	5565.36
643.08	5614.51
643.273	5442.48
643.467	5381.04
643.66	5305.26
643.853	5331.89
644.046	5313.45
644.239	5262.26
644.432	5311.41
644.626	5352.37
644.819	5209.01
645.012	5223.34
645.205	5178.29
645.398	5079.99
645.591	5041.08
645.784	5163.95
645.977	5036.98
646.17	4981.68
646.363	5022.64
646.556	4705.21
646.749	4924.34
646.942	4934.58
647.135	4942.77
647.328	4830.13
647.521	4740.02
647.714	4780.98
647.907	4770.74
648.099	4625.34
648.292	4684.73
648.485	4682.68
648.678	4567.99
648.871	4668.34
649.064	4604.86
649.256	4664.25
649.449	4506.56
649.642	4590.52
649.835	4371.39
650.027	4477.88
650.22	4391.87
650.413	4424.64
650.605	4412.35
650.798	4424.64
650.991	4400.06
651.183	4275.13
651.376	4156.35
651.568	4232.13
651.761	4322.24
651.954	4109.25
652.146	4121.54
652.339	4154.3
652.531	4228.03
652.724	4119.49
652.916	4012.99
653.109	3965.89
653.301	3939.27
653.494	4064.19
653.686	4043.71
653.879	4168.64
654.071	3953.6
654.263	3875.78
654.456	3961.8
654.648	3871.68
654.84	3812.29
655.033	3945.41
655.225	3912.64
655.417	3703.75
655.61	3855.3
655.802	3683.27
655.994	3699.66
656.186	3707.85
656.379	3679.18
656.571	3611.59
656.763	3625.93
656.955	3789.77
657.148	3615.69
657.34	3537.87
657.532	3562.44
657.724	3625.93
657.916	3611.59
658.108	3544.01
658.3	3556.3
658.492	3609.54
658.684	3445.71
658.876	3429.32
659.068	3320.78
659.26	3318.73
659.452	3380.17
659.644	3388.36
659.836	3290.06
660.028	3371.98
660.22	3224.53
660.412	3273.68
660.604	3333.07
660.796	3242.96
660.988	3402.7
661.18	3191.76
661.372	3236.81
661.563	3255.25
661.755	3165.14
661.947	3167.18
662.139	3214.29
662.331	3163.09
662.522	3079.12
662.714	3032.02
662.906	3130.32
663.097	3099.6
663.289	3109.84
663.481	3103.7
663.673	3134.42
663.864	2948.05
664.056	2939.86
664.247	3005.39
664.439	2954.19
664.631	2939.86
664.822	2884.56
665.014	2886.61
665.205	3005.39
665.397	2884.56
665.588	2851.8
665.78	2849.75
665.971	2794.45
666.163	2859.99
666.354	2806.74
666.546	2862.04
666.737	2759.64
666.929	2655.19
667.12	2692.05
667.311	2735.06
667.503	2649.05
667.694	2757.59
667.885	2800.6
668.077	2735.06
668.268	2546.65
668.459	2671.58
668.651	2585.56
668.842	2520.03
669.033	2565.08
669.224	2560.98
669.416	2636.76
669.607	2530.27
669.798	2556.89
669.989	2626.52
670.18	2538.46
670.371	2505.69
670.563	2522.07
670.754	2423.77
670.945	2481.11
671.136	2376.67
671.327	2534.36
671.518	2479.07
671.709	2425.82
671.9	2446.3
672.091	2393.05
672.282	2358.24
672.473	2513.88
672.664	2321.37
672.855	2282.46
673.046	2268.13
673.237	2395.1
673.428	2397.15
673.619	2380.76
673.809	2401.24
674	2319.32
674.191	2388.96
674.382	2182.11
674.573	2202.59
674.764	2276.32
674.954	2401.24
675.145	2139.1
675.336	2315.23
675.527	2175.97
675.717	2358.24
675.908	2202.59
676.099	2313.18
676.289	2221.02
676.48	2296.8
676.671	2075.62
676.861	2196.45
677.052	2073.57
677.243	2200.54
677.433	2161.63
677.624	2259.93
677.814	2081.76
678.005	2200.54
678.195	2100.19
678.386	2147.3
678.576	2053.09
678.767	2216.93
678.957	2145.25
679.148	2161.63
679.338	2165.73
679.529	2018.27
679.719	2130.91
679.909	1979.36
680.1	1965.03
680.29	2104.29
680.481	2010.08
680.671	2108.38
680.861	2026.47
681.052	2048.99
681.242	2046.94
681.432	2085.86
681.622	1993.7
681.813	1975.27
682.003	2169.82
682.193	1944.55
682.383	2001.89
682.573	1950.69
682.764	1989.6
682.954	1922.02
683.144	2057.18
683.334	2051.04
683.524	2063.33
683.714	2028.51
683.904	2016.23
684.094	2001.89
684.284	2053.09
684.474	1995.75
684.664	1971.17
684.854	2065.38
685.044	1926.11
685.234	2018.27
685.424	2051.04
685.614	1952.74
685.804	2063.33
685.994	1868.77
686.184	1995.75
686.374	2044.9
686.564	1842.15
686.753	2046.94
686.943	1911.78
687.133	1958.88
687.323	1870.82
687.513	1922.02
687.702	1967.07
687.892	1860.58
688.082	1842.15
688.272	1960.93
688.461	1922.02
688.651	1891.3
688.841	1907.68
689.03	1881.06
689.22	1866.72
689.41	1874.92
689.599	2014.18
689.789	1815.52
689.979	1934.31
690.168	1840.1
690.358	1919.97
690.547	1817.57
690.737	1936.35
690.926	1784.8
691.116	1889.25
691.305	1887.2
691.495	1856.48
691.684	1770.47
691.874	1815.52
692.063	1872.87
692.252	1913.83
692.442	1786.85
692.631	1883.11
692.82	1930.21
693.01	1811.43
693.199	1846.24
693.388	1778.66
693.578	1758.18
693.767	1752.04
693.956	1782.76
694.146	1729.51
694.335	1825.76
694.524	1758.18
694.713	1844.2
694.902	1731.56
695.092	1747.94
695.281	1762.28
695.47	1737.7
695.659	1709.03
695.848	1717.22
696.037	1729.51
696.226	1682.41
696.415	1774.56
696.604	1670.12
696.793	1700.84
696.982	1686.5
697.171	1684.45
697.36	1698.79
697.549	1663.97
697.738	1670.12
697.927	1618.92
698.116	1674.21
698.305	1700.84
698.494	1643.49
698.683	1600.49
698.872	1678.31
699.061	1582.06
699.25	1641.45
699.438	1686.5
699.627	1633.26
699.816	1700.84
700.005	1672.17
700.193	1637.35
700.382	1723.37
700.571	1553.38
700.76	1645.54
700.948	1686.5
701.137	1553.38
701.326	1588.2
701.514	1639.4
701.703	1602.54
701.892	1565.67
702.08	1606.63
702.269	1610.73
702.457	1553.38
702.646	1577.96
702.834	1633.26
703.023	1586.15
703.212	1629.16
703.4	1565.67
703.589	1639.4
703.777	1625.06
703.965	1592.3
704.154	1537
704.342	1561.58
704.531	1553.38
704.719	1493.99
704.907	1559.53
705.096	1602.54
705.284	1588.2
705.472	1522.66
705.661	1539.05
705.849	1498.09
706.037	1506.28
706.226	1577.96
706.414	1504.23
706.602	1379.31
706.79	1506.28
706.979	1498.09
707.167	1520.62
707.355	1455.08
707.543	1362.92
707.731	1547.24
707.919	1473.51
708.107	1530.86
708.296	1504.23
708.484	1467.37
708.672	1500.14
708.86	1426.41
709.048	1450.99
709.236	1471.47
709.424	1508.33
709.612	1412.07
709.8	1344.49
709.988	1528.81
710.176	1442.79
710.364	1354.73
710.551	1430.51
710.739	1383.4
710.927	1373.16
711.115	1385.45
711.303	1453.03
711.491	1410.03
711.679	1514.47
711.866	1391.59
712.054	1274.86
712.242	1397.74
712.43	1336.3
712.617	1416.17
712.805	1397.74
712.993	1385.45
713.181	1407.98
713.368	1416.17
713.556	1356.78
713.744	1328.11
713.931	1375.21
714.119	1332.2
714.306	1321.96
714.494	1420.27
714.682	1342.44
714.869	1358.83
715.057	1301.48
715.244	1332.2
715.432	1364.97
715.619	1289.2
715.807	1362.92
715.994	1369.07
716.182	1416.17
716.369	1424.36
716.556	1358.83
716.744	1278.96
716.931	1276.91
717.119	1332.2
717.306	1283.05
717.493	1258.48
717.681	1221.61
717.868	1330.16
718.055	1176.56
718.242	1362.92
718.43	1227.76
718.617	1346.54
718.804	1285.1
718.991	1244.14
719.179	1262.57
719.366	1242.09
719.553	1299.44
719.74	1301.48
719.927	1197.04
720.114	1174.51
720.301	1287.15
720.488	1344.49
720.676	1270.76
720.863	1303.53
721.05	1227.76
721.237	1307.63
721.424	1258.48
721.611	1246.19
721.798	1119.21
721.985	1162.22
722.172	1207.28
722.358	1229.81
722.545	1260.52
722.732	1233.9
722.919	1278.96
723.106	1151.98
723.293	1213.42
723.48	1266.67
723.667	1129.45
723.853	1186.8
724.04	1176.56
724.227	1197.04
724.414	1186.8
724.6	1102.83
724.787	1108.98
724.974	1108.98
725.161	1133.55
725.347	1250.28
725.534	1133.55
725.72	1231.85
725.907	1174.51
726.094	1164.27
726.28	1178.61
726.467	1213.42
726.653	1147.89
726.84	1151.98
727.027	1233.9
727.213	1145.84
727.4	1123.31
727.586	1137.65
727.773	1108.98
727.959	1131.5
728.145	1149.93
728.332	1168.37
728.518	1076.21
728.705	1106.93
728.891	1115.12
729.077	1147.89
729.264	1145.84
729.45	1102.83
729.636	1143.79
729.823	1063.92
730.009	1111.02
730.195	1154.03
730.382	1199.09
730.568	1065.97
730.754	1135.6
730.94	1053.68
731.126	1145.84
731.313	1123.31
731.499	1010.67
731.685	1104.88
731.871	1115.12
732.057	1070.06
732.243	1233.9
732.429	1131.5
732.615	1096.69
732.801	1061.87
732.987	1127.41
733.173	1123.31
733.359	949.23
733.545	1094.64
733.731	998.38
733.917	1010.67
734.103	1012.72
734.289	1059.82
734.475	1080.3
734.661	1115.12
734.847	1041.39
735.033	1037.3
735.219	1012.72
735.404	1201.13
735.59	1031.15
735.776	1012.72
735.962	1037.3
736.148	1049.58
736.333	1022.96
736.519	1031.15
736.705	996.34
736.89	1063.92
737.076	1082.35
737.262	1080.3
737.447	1031.15
737.633	1096.69
737.819	1047.54
738.004	1008.62
738.19	994.29
738.375	957.43
738.561	975.86
738.747	998.38
738.932	1008.62
739.118	1055.73
739.303	1029.1
739.489	1068.02
739.674	1016.82
739.859	943.09
740.045	957.43
740.23	986.1
740.416	912.37
740.601	1039.34
740.786	918.51
740.972	975.86
741.157	1000.43
741.342	959.47
741.528	1086.45
741.713	1004.53
741.898	951.28
742.084	1025.01
742.269	955.38
742.454	963.57
742.639	1002.48
742.824	914.42
743.01	951.28
743.195	975.86
743.38	1020.91
743.565	1076.21
743.75	971.76
743.935	826.36
744.12	898.03
744.305	814.07
744.49	967.67
744.675	916.47
744.86	902.13
745.045	994.29
745.23	947.19
745.415	898.03
745.6	953.33
745.785	992.24
745.97	877.55
746.155	873.46
746.34	877.55
746.525	900.08
746.71	871.41
746.895	947.19
747.079	852.98
747.264	914.42
747.449	818.16
747.634	871.41
747.819	805.88
748.003	809.97
748.188	826.36
748.373	812.02
748.557	803.83
748.742	836.6
748.927	766.96
749.111	736.24
749.296	818.16
749.481	779.25
749.665	736.24
749.85	775.16
750.034	771.06
750.219	719.86
750.404	793.59
750.588	822.26
750.773	711.67
750.957	740.34
751.141	793.59
751.326	703.48
751.51	746.48
751.695	728.05
751.879	742.39
752.064	762.87
752.248	746.48
752.432	711.67
752.617	617.46
752.801	656.37
752.985	754.68
753.17	685.05
753.354	670.71
753.538	648.18
753.722	627.7
753.907	680.95
754.091	711.67
754.275	672.76
754.459	689.14
754.643	639.99
754.828	709.62
755.012	644.09
755.196	676.85
755.38	629.75
755.564	613.37
755.748	701.43
755.932	537.59
756.116	650.23
756.3	646.13
756.484	553.98
756.668	558.07
756.852	635.89
757.036	584.7
757.22	560.12
757.404	660.47
757.588	578.55
757.772	605.17
757.956	621.56
758.14	617.46
758.323	533.5
758.507	547.83
758.691	543.74
758.875	607.22
759.059	502.78
759.242	568.31
759.426	541.69
759.61	631.8
759.794	496.63
759.977	488.44
760.161	529.4
760.345	627.7
760.528	558.07
760.712	545.78
760.895	588.79
761.079	586.74
761.263	537.59
761.446	406.52
761.63	556.02
761.813	490.49
761.997	472.06
762.18	484.34
762.364	510.97
762.547	541.69
762.731	500.73
762.914	480.25
763.098	553.98
763.281	521.21
763.464	451.58
763.648	574.46
763.831	529.4
764.015	502.78
764.198	484.34
764.381	488.44
764.564	490.49
764.748	535.54
764.931	472.06
765.114	465.91
765.297	435.19
765.481	504.82
765.664	414.71
765.847	500.73
766.03	502.78
766.213	500.73
766.397	480.25
766.58	414.71
766.763	461.82
766.946	488.44
767.129	431.1
767.312	472.06
767.495	467.96
767.678	488.44
767.861	369.66
768.044	424.95
768.227	478.2
768.41	504.82
768.593	455.67
768.776	455.67
768.959	463.86
769.142	433.15
769.324	474.1
769.507	375.8
769.69	463.86
769.873	365.56
770.056	416.76
770.239	404.47
770.421	404.47
770.604	390.14
770.787	449.53
770.97	449.53
771.152	394.23
771.335	459.77
771.518	402.43
771.7	408.57
771.883	347.13
772.066	390.14
772.248	470.01
772.431	402.43
772.613	359.42
772.796	416.76
772.978	427
773.161	383.99
773.343	390.14
773.526	412.67
773.708	381.95
773.891	308.22
774.073	408.57
774.256	418.81
774.438	408.57
774.621	324.6
774.803	343.03
774.985	424.95
775.168	398.33
775.35	416.76
775.532	357.37
775.715	416.76
775.897	336.89
776.079	345.08
776.261	386.04
776.444	279.55
776.626	338.94
776.808	293.88
776.99	340.99
777.173	369.66
777.355	355.32
777.537	283.64
777.719	324.6
777.901	357.37
778.083	322.56
778.265	279.55
778.447	353.27
778.629	357.37
778.811	330.75
778.993	277.5
779.175	312.32
779.357	318.46
779.539	355.32
779.721	353.27
779.903	293.88
780.085	269.31
780.267	340.99
780.449	265.21
780.631	297.98
780.812	320.51
780.994	363.51
781.176	240.64
781.358	328.7
781.54	275.45
781.721	228.35
781.903	201.72
782.085	261.12
782.267	375.8
782.448	254.97
782.63	250.88
782.812	283.64
782.993	195.58
783.175	261.12
783.357	250.88
783.538	269.31
783.72	240.64
783.901	152.57
784.083	246.78
784.264	252.92
784.446	214.01
784.627	302.08
784.809	203.77
784.99	222.2
785.172	285.69
785.353	211.96
785.535	248.83
785.716	187.39
785.897	201.72
786.079	222.2
786.26	185.34
786.441	187.39
786.623	130.05
786.804	250.88
786.985	177.15
787.167	244.73
787.348	201.72
787.529	177.15
787.71	252.92
787.891	240.64
788.073	205.82
788.254	197.63
788.435	220.16
788.616	224.25
788.797	171.01
788.978	216.06
789.159	195.58
789.34	224.25
789.522	142.33
789.703	207.87
789.884	220.16
790.065	142.33
790.246	209.92
790.427	197.63
790.607	189.44
790.788	252.92
790.969	152.57
791.15	236.54
791.331	197.63
791.512	179.2
791.693	171.01
791.874	154.62
792.054	228.35
792.235	144.38
792.416	201.72
792.597	226.3
792.778	236.54
792.958	121.85
793.139	173.05
793.32	162.81
793.5	166.91
793.681	111.61
793.862	130.05
794.042	113.66
794.223	146.43
794.404	179.2
794.584	191.49
794.765	119.81
794.945	144.38
795.126	195.58
795.306	99.33
795.487	185.34
795.667	111.61
795.848	177.15
796.028	197.63
796.209	181.25
796.389	164.86
796.57	171.01
796.75	48.13
796.93	148.48
797.111	99.33
797.291	136.19
797.471	84.99
797.652	56.32
797.832	130.05
798.012	128
798.192	66.56
798.373	171.01
798.553	154.62
798.733	87.04
798.913	113.66
799.093	185.34
799.274	125.95
799.454	130.05
799.634	130.05
799.814	101.37
799.994	87.04
800.174	121.85
800.354	91.13
800.534	109.57
800.714	136.19
800.894	115.71
801.074	89.09
801.254	138.24
801.434	201.72
801.614	72.7
801.794	97.28
801.974	353.27
802.154	68.61
802.334	140.29
802.514	117.76
802.693	70.65
802.873	113.66
803.053	117.76
803.233	121.85
803.413	121.85
803.592	123.9
803.772	99.33
803.952	48.13
804.131	160.77
804.311	142.33
804.491	181.25
804.67	156.67
804.85	136.19
805.03	-5.12
805.209	140.29
805.389	160.77
805.568	64.51
805.748	91.13
805.928	103.42
806.107	72.7
806.287	113.66
806.466	29.7
806.646	144.38
806.825	150.53
807.004	48.13
807.184	76.8
807.363	62.46
807.543	150.53
807.722	123.9
807.901	87.04
808.081	109.57
808.26	78.85
808.439	117.76
808.619	80.89
808.798	78.85
808.977	109.57
809.156	103.42
809.336	21.5
809.515	66.56
809.694	144.38
809.873	25.6
810.052	115.71
810.231	29.7
810.411	72.7
810.59	111.61
810.769	101.37
810.948	146.43
811.127	160.77
811.306	31.74
811.485	84.99
811.664	119.81
811.843	58.37
812.022	25.6
812.201	150.53
812.38	113.66
812.559	-1.02
812.737	123.9
812.916	84.99
813.095	58.37
813.274	101.37
813.453	72.7
813.632	19.46
813.811	23.55
813.989	99.33
814.168	111.61
814.347	-27.65
814.526	113.66
814.704	87.04
814.883	62.46
815.062	99.33
815.24	74.75
815.419	103.42
815.598	70.65
815.776	76.8
815.955	191.49
816.133	68.61
816.312	152.57
816.49	46.08
816.669	138.24
816.847	35.84
817.026	105.47
817.204	25.6
817.383	97.28
817.561	58.37
817.74	113.66
817.918	68.61
818.097	99.33
818.275	93.18
818.453	78.85
818.632	60.42
818.81	99.33
818.988	121.85
819.167	70.65
819.345	35.84
819.523	-23.55
819.701	27.65
819.879	56.32
820.058	5.12
820.236	121.85
820.414	91.13
820.592	109.57
820.77	11.26
820.948	13.31
821.127	37.89
821.305	128
821.483	-33.79
821.661	107.52
821.839	23.55
822.017	1.02
822.195	-39.94
822.373	115.71
822.551	-44.03
822.729	97.28
822.907	68.61
823.085	82.94
823.262	123.9
823.44	21.5
823.618	115.71
823.796	146.43
823.974	25.6
824.152	99.33
824.329	23.55
824.507	33.79
824.685	78.85
824.863	66.56
825.04	-3.07
825.218	44.03
825.396	48.13
825.574	95.23
825.751	46.08
825.929	7.17
826.107	33.79
826.284	39.94
826.462	35.84
826.639	41.98
826.817	29.7
826.994	64.51
827.172	70.65
827.349	1.02
827.527	52.22
827.704	44.03
827.882	84.99
828.059	56.32
828.237	128
828.414	95.23
828.591	25.6
828.769	37.89
828.946	41.98
829.124	37.89
829.301	70.65
829.478	70.65
829.655	37.89
829.833	64.51
830.01	41.98
830.187	23.55
830.364	19.46
830.542	1.02
830.719	15.36
830.896	35.84
831.073	-1.02
831.25	-3.07
831.427	46.08
831.604	7.17
831.782	21.5
831.959	23.55
832.136	37.89
832.313	33.79
832.49	1.02
832.667	41.98
832.844	66.56
833.021	62.46
833.198	27.65
833.374	-46.08
833.551	54.27
833.728	41.98
833.905	48.13
834.082	35.84
834.259	60.42
834.436	13.31
834.612	39.94
834.789	21.5
834.966	39.94
835.143	46.08
835.319	23.55
835.496	62.46
835.673	103.42
835.85	25.6
836.026	25.6
836.203	62.46
836.38	115.71
836.556	52.22
836.733	25.6
836.909	23.55
837.086	-7.17
837.262	-1.02
837.439	21.5
837.616	87.04
837.792	13.31
837.968	62.46
838.145	66.56
838.321	-29.7
838.498	56.32
838.674	37.89
838.851	62.46
839.027	50.18
839.203	41.98
839.38	-7.17
839.556	31.74
839.732	35.84
839.909	29.7
840.085	23.55
840.261	-19.46
840.437	29.7
840.614	54.27
840.79	54.27
840.966	33.79
841.142	-3.07
841.318	25.6
841.494	74.75
841.671	58.37
841.847	93.18
842.023	5.12
842.199	91.13
842.375	15.36
842.551	23.55
842.727	-27.65
842.903	48.13
843.079	44.03
843.255	87.04
843.431	31.74
843.607	15.36
843.783	50.18
843.959	29.7
844.134	70.65
844.31	21.5
844.486	21.5
844.662	37.89
844.838	11.26
845.013	15.36
845.189	11.26
845.365	119.81
845.541	23.55
845.716	46.08
845.892	50.18
846.068	17.41
846.244	19.46
846.419	44.03
846.595	93.18
846.77	5.12
846.946	82.94
847.122	64.51
847.297	87.04
847.473	21.5
847.648	-33.79
847.824	-11.26
847.999	-19.46
848.175	5.12
848.35	72.7
848.526	5.12
848.701	93.18
848.876	48.13
849.052	70.65
849.227	15.36
849.403	-3.07
849.578	56.32
849.753	52.22
849.929	146.43
850.104	-50.18
850.279	9.22
850.454	3.07
850.63	-15.36
850.805	-44.03
850.98	46.08
851.155	25.6
851.33	7.17
851.505	54.27
851.681	46.08
851.856	37.89
852.031	5.12
852.206	-35.84
852.381	50.18
852.556	-15.36
852.731	21.5
852.906	-11.26
853.081	17.41
853.256	25.6
853.431	48.13
853.606	35.84
853.781	-9.22
853.956	-3.07
854.131	33.79
854.305	-9.22
854.48	-37.89
854.655	-72.7
854.83	1.02
855.005	70.65
855.18	17.41
855.354	-23.55
855.529	13.31
855.704	13.31
855.879	-25.6
856.053	37.89
856.228	72.7
856.403	-17.41
856.577	7.17
856.752	-33.79
856.926	5.12
857.101	27.65
857.276	11.26
857.45	15.36
857.625	70.65
857.799	54.27
857.974	15.36
858.148	-15.36
858.323	15.36
858.497	-11.26
858.672	-17.41
858.846	27.65
859.02	-9.22
859.195	70.65
859.369	37.89
859.543	-5.12
859.718	3.07
859.892	1.02
860.066	48.13
860.241	54.27
860.415	31.74
860.589	17.41
860.763	-37.89
860.938	23.55
861.112	41.98
861.286	46.08
861.46	56.32
861.634	44.03
861.808	31.74
861.982	-27.65
862.157	-5.12
862.331	31.74
862.505	-3.07
862.679	58.37
862.853	48.13
863.027	7.17
863.201	62.46
863.375	1.02
863.549	3.07
863.722	44.03
863.896	19.46
864.07	-5.12
864.244	21.5
864.418	56.32
864.592	56.32
864.766	19.46
864.939	3.07
865.113	5.12
865.287	80.89
865.461	87.04
865.634	-35.84
865.808	-3.07
865.982	1.02
866.156	1.02
866.329	-3.07
866.503	33.79
866.676	-1.02
866.85	-17.41
867.024	64.51
867.197	41.98
867.371	-29.7
867.544	37.89
867.718	5.12
867.891	37.89
868.065	80.89
868.238	39.94
868.412	-54.27
868.585	-3.07
868.759	39.94
868.932	99.33
869.105	44.03
869.279	58.37
869.452	99.33
869.625	11.26
869.799	27.65
869.972	25.6
870.145	35.84
870.319	117.76
870.492	-13.31
870.665	15.36
870.838	-31.74
871.011	-84.99
871.185	52.22
871.358	-56.32
871.531	39.94
871.704	5.12
871.877	46.08
872.05	13.31
872.223	25.6
872.396	-5.12
872.569	9.22
872.742	-68.61
872.915	13.31
873.088	-19.46
873.261	-1.02
873.434	48.13
873.607	-29.7
873.78	9.22
873.953	48.13
874.126	-17.41
874.299	-44.03
874.471	9.22
874.644	37.89
874.817	-11.26
874.99	41.98
875.163	9.22
875.335	-54.27
875.508	-23.55
875.681	-33.79
875.853	23.55
876.026	58.37
876.199	-64.51
876.371	5.12
876.544	21.5
876.717	-9.22
876.889	13.31
877.062	-7.17
877.234	-33.79
877.407	29.7
877.579	-33.79
877.752	52.22
877.924	62.46
878.097	19.46
878.269	-31.74
878.442	89.09
878.614	-9.22
878.786	70.65
878.959	3.07
879.131	1.02
879.303	-5.12
879.476	35.84
879.648	-27.65
879.82	-35.84
879.993	-35.84
880.165	3.07
880.337	-13.31
880.509	-15.36
880.681	-44.03
880.854	17.41
881.026	25.6
881.198	56.32
881.37	-5.12
881.542	74.75
881.714	9.22
881.886	27.65
882.058	-21.5
882.23	-13.31
882.402	11.26
882.574	13.31
882.746	25.6
882.918	58.37
883.09	46.08
883.262	48.13
883.434	-84.99
883.606	-64.51
883.778	35.84
883.95	41.98
884.122	5.12
884.293	54.27
884.465	19.46
884.637	105.47
884.809	3.07
884.98	56.32
885.152	-33.79
885.324	-1.02
885.496	-25.6
885.667	97.28
885.839	-23.55
886.011	15.36
886.182	-37.89
886.354	29.7
886.525	54.27
886.697	78.85
886.869	7.17
887.04	-74.75
887.212	33.79
887.383	35.84
887.555	-3.07
887.726	-11.26
887.897	54.27
888.069	-60.42
888.24	-29.7
888.412	50.18
888.583	62.46
888.754	-9.22
888.926	-17.41
889.097	15.36
889.268	54.27
889.44	23.55
889.611	-44.03
889.782	25.6
889.953	-27.65
890.125	66.56
890.296	1.02
890.467	1.02
890.638	-56.32
890.809	-19.46
890.98	29.7
891.151	-37.89
891.323	25.6
891.494	-7.17
891.665	-29.7
891.836	87.04
892.007	39.94
892.178	33.79
892.349	41.98
892.52	-31.74
892.691	50.18
892.862	29.7
893.032	23.55
893.203	25.6
893.374	27.65
893.545	56.32
893.716	17.41
893.887	54.27
894.057	7.17
894.228	-62.46
894.399	7.17
894.57	35.84
894.74	58.37
894.911	3.07
895.082	15.36
895.253	-37.89
895.423	25.6
895.594	-5.12
895.764	-5.12
895.935	21.5
896.106	25.6
896.276	1.02
896.447	-54.27
896.617	5.12
896.788	33.79
896.958	-9.22
897.129	-33.79
897.299	-48.13
897.47	27.65
897.64	46.08
897.81	-21.5
897.981	72.7
898.151	-21.5
898.322	-3.07
898.492	44.03
898.662	27.65
898.832	-44.03
899.003	95.23
899.173	17.41
899.343	35.84
899.513	9.22
