Data from USB4F104151__57__12-59-18-984.txt Node

Date: Fri Mar 14 12:59:18 EDT 2025
User: louis
Spectrometer: USB4F10415
Trigger mode: 4
Integration Time (sec): 1.000000E-2
Scans to average: 1
Electric dark correction enabled: true
Nonlinearity correction enabled: false
Boxcar width: 0
XAxis mode: Wavelengths
Number of Pixels in Spectrum: 3648
>>>>>Begin Spectral Data<<<<<
178.204	0.68
178.424	0.68
178.644	0.68
178.864	-36.18
179.084	-32.08
179.304	45.74
179.524	-11.61
179.744	49.83
179.964	33.45
180.184	-50.52
180.404	-44.37
180.624	41.64
180.844	-5.46
181.064	-21.85
181.283	-19.8
181.503	41.64
181.723	-58.71
181.943	53.93
182.163	58.03
182.383	-19.8
182.602	17.07
182.822	78.51
183.042	55.98
183.262	-40.28
183.482	-62.8
183.701	10.92
183.921	10.92
184.141	-9.56
184.361	-3.41
184.58	19.11
184.8	39.59
185.02	15.02
185.239	92.84
185.459	60.07
185.679	-68.95
185.898	-42.32
186.118	29.35
186.338	2.73
186.557	4.78
186.777	-3.41
186.997	-15.7
187.216	0.68
187.436	15.02
187.655	0.68
187.875	-7.51
188.095	41.64
188.314	12.97
188.534	45.74
188.753	49.83
188.973	17.07
189.192	29.35
189.412	33.45
189.631	-19.8
189.851	-27.99
190.07	45.74
190.29	-85.33
190.509	21.16
190.729	103.08
190.948	45.74
191.168	10.92
191.387	-13.65
191.607	-1.37
191.826	-13.65
192.045	17.07
192.265	37.55
192.484	-13.65
192.704	-23.89
192.923	-46.42
193.142	-23.89
193.362	0.68
193.581	19.11
193.8	58.03
194.02	23.21
194.239	-15.7
194.458	-30.04
194.678	23.21
194.897	33.45
195.116	47.79
195.335	8.87
195.555	0.68
195.774	10.92
195.993	-5.46
196.212	76.46
196.432	25.26
196.651	-34.13
196.87	-40.28
197.089	88.75
197.308	-3.41
197.528	45.74
197.747	23.21
197.966	51.88
198.185	31.4
198.404	35.5
198.623	-3.41
198.842	29.35
199.062	35.5
199.281	37.55
199.5	62.12
199.719	2.73
199.938	8.87
200.157	27.31
200.376	41.64
200.595	-11.61
200.814	2.73
201.033	-15.7
201.252	74.41
201.471	-9.56
201.69	33.45
201.909	70.31
202.128	15.02
202.347	53.93
202.566	19.11
202.785	-17.75
203.004	-25.94
203.223	58.03
203.442	6.83
203.661	-1.37
203.879	29.35
204.098	-15.7
204.317	-30.04
204.536	84.65
204.755	8.87
204.974	-21.85
205.193	33.45
205.411	74.41
205.63	4.78
205.849	15.02
206.068	-40.28
206.287	8.87
206.505	21.16
206.724	4.78
206.943	-9.56
207.162	39.59
207.381	2.73
207.599	-50.52
207.818	-25.94
208.037	70.31
208.255	41.64
208.474	-15.7
208.693	0.68
208.911	8.87
209.13	-32.08
209.349	-15.7
209.567	86.7
209.786	49.83
210.005	-58.71
210.223	17.07
210.442	17.07
210.661	8.87
210.879	0.68
211.098	-25.94
211.316	-32.08
211.535	92.84
211.753	10.92
211.972	49.83
212.191	12.97
212.409	35.5
212.628	-17.75
212.846	-19.8
213.065	53.93
213.283	53.93
213.502	-3.41
213.72	-15.7
213.938	4.78
214.157	49.83
214.375	25.26
214.594	47.79
214.812	55.98
215.031	43.69
215.249	-11.61
215.467	-11.61
215.686	12.97
215.904	-40.28
216.122	-1.37
216.341	45.74
216.559	-81.24
216.778	49.83
216.996	98.99
217.214	-34.13
217.432	-38.23
217.651	51.88
217.869	4.78
218.087	-9.56
218.306	-11.61
218.524	98.99
218.742	31.4
218.96	-7.51
219.179	-36.18
219.397	66.22
219.615	25.26
219.833	0.68
220.051	-23.89
220.27	45.74
220.488	-21.85
220.706	-7.51
220.924	-3.41
221.142	-9.56
221.36	60.07
221.578	-46.42
221.796	-23.89
222.015	-5.46
222.233	-42.32
222.451	82.6
222.669	-23.89
222.887	-15.7
223.105	-13.65
223.323	-56.66
223.541	25.26
223.759	27.31
223.977	-13.65
224.195	8.87
224.413	-38.23
224.631	25.26
224.849	101.03
225.067	8.87
225.285	-9.56
225.503	47.79
225.721	60.07
225.939	-15.7
226.157	15.02
226.375	29.35
226.592	-40.28
226.81	37.55
227.028	-64.85
227.246	17.07
227.464	0.68
227.682	0.68
227.9	27.31
228.117	45.74
228.335	4.78
228.553	-15.7
228.771	8.87
228.989	-9.56
229.206	-19.8
229.424	35.5
229.642	35.5
229.86	-7.51
230.077	10.92
230.295	4.78
230.513	51.88
230.731	17.07
230.948	19.11
231.166	60.07
231.384	12.97
231.601	21.16
231.819	37.55
232.037	-11.61
232.254	-7.51
232.472	21.16
232.689	0.68
232.907	43.69
233.125	-5.46
233.342	27.31
233.56	-52.56
233.777	39.59
233.995	-21.85
234.213	25.26
234.43	29.35
234.648	-7.51
234.865	-7.51
235.083	0.68
235.3	-44.37
235.518	-3.41
235.735	-1.37
235.953	29.35
236.17	4.78
236.388	86.7
236.605	15.02
236.822	49.83
237.04	15.02
237.257	-50.52
237.475	10.92
237.692	39.59
237.909	-17.75
238.127	-44.37
238.344	-23.89
238.562	37.55
238.779	8.87
238.996	-23.89
239.214	-7.51
239.431	33.45
239.648	-36.18
239.865	-9.56
240.083	35.5
240.3	17.07
240.517	17.07
240.735	10.92
240.952	19.11
241.169	33.45
241.386	-13.65
241.603	21.16
241.821	-5.46
242.038	8.87
242.255	4.78
242.472	-40.28
242.689	-56.66
242.907	49.83
243.124	2.73
243.341	47.79
243.558	35.5
243.775	-19.8
243.992	-32.08
244.209	19.11
244.426	78.51
244.643	10.92
244.86	-27.99
245.078	74.41
245.295	4.78
245.512	-11.61
245.729	15.02
245.946	-19.8
246.163	-30.04
246.38	27.31
246.597	43.69
246.814	-9.56
247.031	33.45
247.248	2.73
247.464	19.11
247.681	25.26
247.898	-9.56
248.115	-60.76
248.332	37.55
248.549	68.27
248.766	4.78
248.983	8.87
249.2	-21.85
249.417	2.73
249.633	-3.41
249.85	-21.85
250.067	25.26
250.284	10.92
250.501	19.11
250.717	51.88
250.934	-23.89
251.151	25.26
251.368	17.07
251.585	21.16
251.801	82.6
252.018	58.03
252.235	4.78
252.451	33.45
252.668	33.45
252.885	-13.65
253.102	39.59
253.318	2.73
253.535	-81.24
253.752	33.45
253.968	-83.28
254.185	-40.28
254.401	53.93
254.618	-23.89
254.835	-30.04
255.051	27.31
255.268	-60.76
255.484	-46.42
255.701	33.45
255.917	37.55
256.134	49.83
256.351	4.78
256.567	-58.71
256.784	-19.8
257	10.92
257.217	31.4
257.433	-7.51
257.65	19.11
257.866	-48.47
258.082	-23.89
258.299	-11.61
258.515	39.59
258.732	2.73
258.948	29.35
259.165	21.16
259.381	31.4
259.597	-13.65
259.814	-21.85
260.03	8.87
260.246	8.87
260.463	27.31
260.679	27.31
260.895	60.07
261.112	19.11
261.328	-1.37
261.544	15.02
261.761	66.22
261.977	29.35
262.193	8.87
262.409	-9.56
262.626	-40.28
262.842	-25.94
263.058	-30.04
263.274	-32.08
263.49	25.26
263.707	49.83
263.923	31.4
264.139	-62.8
264.355	-15.7
264.571	45.74
264.787	17.07
265.004	55.98
265.22	-7.51
265.436	33.45
265.652	43.69
265.868	4.78
266.084	10.92
266.3	12.97
266.516	90.79
266.732	-11.61
266.948	-3.41
267.164	82.6
267.38	49.83
267.596	62.12
267.812	-5.46
268.028	-21.85
268.244	31.4
268.46	-15.7
268.676	41.64
268.892	-17.75
269.108	37.55
269.324	-42.32
269.54	-68.95
269.756	10.92
269.972	10.92
270.188	-1.37
270.403	58.03
270.619	-5.46
270.835	-21.85
271.051	-11.61
271.267	12.97
271.483	8.87
271.698	70.31
271.914	49.83
272.13	-56.66
272.346	31.4
272.562	-34.13
272.777	58.03
272.993	-15.7
273.209	-34.13
273.425	29.35
273.64	19.11
273.856	23.21
274.072	10.92
274.287	-23.89
274.503	76.46
274.719	43.69
274.934	-17.75
275.15	-27.99
275.366	66.22
275.581	41.64
275.797	-11.61
276.012	49.83
276.228	39.59
276.444	-68.95
276.659	27.31
276.875	23.21
277.09	49.83
277.306	6.83
277.521	-52.56
277.737	-64.85
277.952	25.26
278.168	-15.7
278.383	10.92
278.599	96.94
278.814	74.41
279.03	-15.7
279.245	60.07
279.461	25.26
279.676	60.07
279.892	43.69
280.107	17.07
280.322	19.11
280.538	8.87
280.753	-27.99
280.969	12.97
281.184	39.59
281.399	82.6
281.615	-11.61
281.83	-36.18
282.045	64.17
282.26	37.55
282.476	-25.94
282.691	0.68
282.906	-7.51
283.122	41.64
283.337	27.31
283.552	51.88
283.767	8.87
283.983	-15.7
284.198	23.21
284.413	33.45
284.628	-27.99
284.843	-1.37
285.058	4.78
285.274	62.12
285.489	15.02
285.704	53.93
285.919	-38.23
286.134	64.17
286.349	31.4
286.564	25.26
286.779	27.31
286.995	8.87
287.21	-103.76
287.425	-73.04
287.64	-66.9
287.855	92.84
288.07	-5.46
288.285	96.94
288.5	-23.89
288.715	12.97
288.93	21.16
289.145	68.27
289.36	-48.47
289.575	19.11
289.79	6.83
290.004	-9.56
290.219	8.87
290.434	35.5
290.649	-15.7
290.864	33.45
291.079	-42.32
291.294	51.88
291.509	64.17
291.724	82.6
291.938	58.03
292.153	62.12
292.368	55.98
292.583	29.35
292.798	37.55
293.012	17.07
293.227	37.55
293.442	-52.56
293.657	-23.89
293.871	-1.37
294.086	12.97
294.301	51.88
294.516	33.45
294.73	31.4
294.945	-81.24
295.16	35.5
295.374	0.68
295.589	60.07
295.804	55.98
296.018	84.65
296.233	21.16
296.447	-3.41
296.662	-9.56
296.877	-3.41
297.091	12.97
297.306	-25.94
297.52	-25.94
297.735	49.83
297.949	-54.61
298.164	19.11
298.378	-46.42
298.593	53.93
298.807	8.87
299.022	15.02
299.236	64.17
299.451	29.35
299.665	-15.7
299.88	21.16
300.094	4.78
300.309	-23.89
300.523	29.35
300.737	23.21
300.952	60.07
301.166	-9.56
301.381	-13.65
301.595	29.35
301.809	31.4
302.024	21.16
302.238	2.73
302.452	49.83
302.667	29.35
302.881	62.12
303.095	-15.7
303.309	31.4
303.524	25.26
303.738	19.11
303.952	-15.7
304.166	17.07
304.381	15.02
304.595	-11.61
304.809	37.55
305.023	-15.7
305.237	-9.56
305.452	-3.41
305.666	10.92
305.88	-13.65
306.094	0.68
306.308	58.03
306.522	70.31
306.736	4.78
306.95	39.59
307.164	-64.85
307.379	-19.8
307.593	72.36
307.807	0.68
308.021	4.78
308.235	107.18
308.449	8.87
308.663	-21.85
308.877	4.78
309.091	-9.56
309.305	10.92
309.519	-40.28
309.733	21.16
309.947	-17.75
310.161	10.92
310.374	-11.61
310.588	21.16
310.802	2.73
311.016	-40.28
311.23	8.87
311.444	12.97
311.658	58.03
311.872	0.68
312.085	12.97
312.299	31.4
312.513	51.88
312.727	8.87
312.941	8.87
313.154	17.07
313.368	0.68
313.582	47.79
313.796	25.26
314.009	51.88
314.223	6.83
314.437	15.02
314.651	60.07
314.864	37.55
315.078	-27.99
315.292	43.69
315.505	-25.94
315.719	84.65
315.933	-40.28
316.146	-9.56
316.36	-52.56
316.573	37.55
316.787	8.87
317.001	58.03
317.214	19.11
317.428	76.46
317.641	-7.51
317.855	17.07
318.068	-44.37
318.282	19.11
318.495	-11.61
318.709	55.98
318.922	33.45
319.136	49.83
319.349	23.21
319.563	-15.7
319.776	-32.08
319.99	-3.41
320.203	-30.04
320.417	25.26
320.63	25.26
320.843	53.93
321.057	-58.71
321.27	12.97
321.483	45.74
321.697	43.69
321.91	25.26
322.124	-11.61
322.337	51.88
322.55	12.97
322.763	35.5
322.977	94.89
323.19	12.97
323.403	-17.75
323.617	31.4
323.83	90.79
324.043	0.68
324.256	39.59
324.469	53.93
324.683	47.79
324.896	-64.85
325.109	90.79
325.322	25.26
325.535	-7.51
325.748	41.64
325.962	-21.85
326.175	27.31
326.388	-103.76
326.601	103.08
326.814	78.51
327.027	25.26
327.24	96.94
327.453	-42.32
327.666	76.46
327.879	10.92
328.092	72.36
328.305	-32.08
328.518	43.69
328.731	17.07
328.944	8.87
329.157	68.27
329.37	31.4
329.583	80.55
329.796	-17.75
330.009	-46.42
330.222	49.83
330.435	-11.61
330.648	4.78
330.861	43.69
331.073	66.22
331.286	58.03
331.499	62.12
331.712	19.11
331.925	-13.65
332.138	10.92
332.35	-5.46
332.563	15.02
332.776	49.83
332.989	-9.56
333.202	-3.41
333.414	35.5
333.627	141.99
333.84	-5.46
334.053	-7.51
334.265	62.12
334.478	-17.75
334.691	-23.89
334.903	10.92
335.116	-3.41
335.329	49.83
335.541	45.74
335.754	-27.99
335.966	37.55
336.179	-7.51
336.392	47.79
336.604	96.94
336.817	-9.56
337.029	23.21
337.242	29.35
337.454	35.5
337.667	66.22
337.88	76.46
338.092	15.02
338.305	-15.7
338.517	10.92
338.729	-52.56
338.942	-3.41
339.154	-7.51
339.367	-30.04
339.579	43.69
339.792	-13.65
340.004	86.7
340.217	23.21
340.429	-23.89
340.641	-3.41
340.854	-11.61
341.066	-25.94
341.278	6.83
341.491	80.55
341.703	109.22
341.915	21.16
342.128	62.12
342.34	19.11
342.552	-9.56
342.764	80.55
342.977	25.26
343.189	31.4
343.401	-25.94
343.613	-30.04
343.826	-7.51
344.038	8.87
344.25	-7.51
344.462	33.45
344.674	-15.7
344.886	12.97
345.099	2.73
345.311	0.68
345.523	37.55
345.735	47.79
345.947	2.73
346.159	19.11
346.371	-30.04
346.583	4.78
346.795	72.36
347.007	33.45
347.219	62.12
347.431	31.4
347.643	60.07
347.855	8.87
348.067	-7.51
348.279	-38.23
348.491	0.68
348.703	-5.46
348.915	17.07
349.127	53.93
349.339	8.87
349.551	-21.85
349.763	117.42
349.975	0.68
350.187	-7.51
350.399	10.92
350.61	-32.08
350.822	8.87
351.034	33.45
351.246	31.4
351.458	43.69
351.669	-25.94
351.881	10.92
352.093	2.73
352.305	-13.65
352.517	62.12
352.728	29.35
352.94	15.02
353.152	19.11
353.363	23.21
353.575	-30.04
353.787	29.35
353.999	139.94
354.21	123.56
354.422	82.6
354.633	-1.37
354.845	-9.56
355.057	-15.7
355.268	60.07
355.48	4.78
355.692	47.79
355.903	-36.18
356.115	43.69
356.326	23.21
356.538	37.55
356.749	72.36
356.961	21.16
357.172	64.17
357.384	27.31
357.595	31.4
357.807	-44.37
358.018	2.73
358.23	-7.51
358.441	78.51
358.653	51.88
358.864	-62.8
359.075	0.68
359.287	6.83
359.498	29.35
359.709	66.22
359.921	35.5
360.132	17.07
360.344	19.11
360.555	31.4
360.766	49.83
360.977	33.45
361.189	-5.46
361.4	15.02
361.611	39.59
361.823	21.16
362.034	-13.65
362.245	33.45
362.456	21.16
362.667	-3.41
362.879	53.93
363.09	43.69
363.301	8.87
363.512	41.64
363.723	31.4
363.935	55.98
364.146	68.27
364.357	-23.89
364.568	33.45
364.779	64.17
364.99	12.97
365.201	21.16
365.412	66.22
365.623	66.22
365.834	82.6
366.045	-56.66
366.256	-15.7
366.467	90.79
366.678	8.87
366.889	-9.56
367.1	8.87
367.311	47.79
367.522	-21.85
367.733	12.97
367.944	-40.28
368.155	15.02
368.366	51.88
368.577	103.08
368.788	62.12
368.999	-36.18
369.209	98.99
369.42	43.69
369.631	66.22
369.842	23.21
370.053	109.22
370.264	25.26
370.474	19.11
370.685	-32.08
370.896	27.31
371.107	2.73
371.317	-36.18
371.528	58.03
371.739	55.98
371.95	43.69
372.16	4.78
372.371	4.78
372.582	33.45
372.792	-27.99
373.003	107.18
373.214	43.69
373.424	-9.56
373.635	-36.18
373.846	33.45
374.056	-44.37
374.267	82.6
374.477	-7.51
374.688	-3.41
374.898	-30.04
375.109	25.26
375.319	62.12
375.53	41.64
375.74	-9.56
375.951	80.55
376.161	-38.23
376.372	47.79
376.582	19.11
376.793	29.35
377.003	-15.7
377.214	29.35
377.424	-5.46
377.635	60.07
377.845	0.68
378.055	27.31
378.266	29.35
378.476	23.21
378.686	53.93
378.897	58.03
379.107	-3.41
379.317	84.65
379.528	-42.32
379.738	117.42
379.948	62.12
380.158	58.03
380.369	-36.18
380.579	27.31
380.789	29.35
380.999	41.64
381.21	-13.65
381.42	96.94
381.63	35.5
381.84	53.93
382.05	27.31
382.261	2.73
382.471	10.92
382.681	17.07
382.891	19.11
383.101	15.02
383.311	-15.7
383.521	-11.61
383.731	43.69
383.941	53.93
384.151	60.07
384.361	-1.37
384.571	-40.28
384.781	19.11
384.991	58.03
385.201	78.51
385.411	8.87
385.621	103.08
385.831	43.69
386.041	43.69
386.251	66.22
386.461	-21.85
386.671	43.69
386.881	68.27
387.091	45.74
387.301	33.45
387.511	21.16
387.72	-1.37
387.93	-1.37
388.14	-27.99
388.35	-23.89
388.56	72.36
388.769	51.88
388.979	119.46
389.189	43.69
389.399	45.74
389.609	86.7
389.818	47.79
390.028	84.65
390.238	58.03
390.447	-5.46
390.657	35.5
390.867	58.03
391.076	47.79
391.286	-36.18
391.496	23.21
391.705	68.27
391.915	74.41
392.125	33.45
392.334	47.79
392.544	58.03
392.753	-34.13
392.963	35.5
393.172	51.88
393.382	-1.37
393.591	19.11
393.801	21.16
394.01	80.55
394.22	45.74
394.429	49.83
394.639	29.35
394.848	43.69
395.058	-9.56
395.267	51.88
395.477	58.03
395.686	98.99
395.895	70.31
396.105	107.18
396.314	92.84
396.524	64.17
396.733	45.74
396.942	105.13
397.152	51.88
397.361	88.75
397.57	17.07
397.78	41.64
397.989	25.26
398.198	141.99
398.407	2.73
398.617	103.08
398.826	137.9
399.035	33.45
399.244	115.37
399.453	80.55
399.663	133.8
399.872	123.56
400.081	33.45
400.29	121.51
400.499	-15.7
400.708	15.02
400.917	109.22
401.127	115.37
401.336	43.69
401.545	98.99
401.754	62.12
401.963	-42.32
402.172	17.07
402.381	58.03
402.59	82.6
402.799	88.75
403.008	53.93
403.217	58.03
403.426	90.79
403.635	152.23
403.844	68.27
404.053	101.03
404.262	39.59
404.471	144.04
404.68	141.99
404.888	131.75
405.097	62.12
405.306	84.65
405.515	137.9
405.724	92.84
405.933	76.46
406.142	115.37
406.35	74.41
406.559	35.5
406.768	82.6
406.977	115.37
407.185	111.27
407.394	109.22
407.603	121.51
407.812	68.27
408.02	156.33
408.229	94.89
408.438	135.85
408.646	127.66
408.855	111.27
409.064	82.6
409.272	205.48
409.481	156.33
409.69	158.38
409.898	115.37
410.107	219.82
410.315	230.06
410.524	187.05
410.733	201.38
410.941	221.86
411.15	246.44
411.358	225.96
411.567	172.71
411.775	246.44
411.984	279.21
412.192	295.59
412.401	273.06
412.609	338.6
412.818	219.82
413.026	316.07
413.234	277.16
413.443	367.27
413.651	320.17
413.86	352.93
414.068	314.02
414.276	320.17
414.485	299.69
414.693	326.31
414.901	422.56
415.11	367.27
415.318	395.94
415.526	354.98
415.734	492.2
415.943	490.15
416.151	426.66
416.359	494.24
416.567	590.5
416.776	479.91
416.984	516.77
417.192	617.12
417.4	563.87
417.608	553.63
417.817	551.59
418.025	578.21
418.233	696.99
418.441	746.14
418.649	668.32
418.857	737.95
419.065	748.19
419.273	682.66
419.481	715.42
419.689	715.42
419.897	901.79
420.105	791.2
420.313	807.58
420.521	991.9
420.729	1004.19
420.937	1041.05
421.145	1090.2
421.353	989.85
421.561	1059.48
421.769	1301.14
421.977	1213.08
422.185	1104.54
422.393	1313.43
422.601	1368.73
422.809	1196.7
423.017	1350.29
423.224	1331.86
423.432	1432.21
423.64	1507.99
423.848	1589.91
424.056	1624.72
424.263	1653.39
424.471	1653.39
424.679	1602.19
424.887	1813.13
425.094	1899.15
425.302	1905.29
425.51	1862.29
425.718	1903.25
425.925	1862.29
426.133	1962.64
426.341	2101.9
426.548	2263.69
426.756	2198.15
426.964	2157.19
427.171	2306.7
427.379	2517.64
427.586	2458.25
427.794	2574.98
428.001	2599.55
428.209	2845.31
428.417	2759.3
428.624	2949.76
428.832	3015.29
429.039	2857.6
429.247	2880.13
429.454	3193.47
429.662	3435.13
429.869	3238.52
430.076	3383.93
430.284	3289.72
430.491	3500.66
430.699	3723.89
430.906	3801.71
431.114	3727.99
431.321	3850.86
431.528	3869.3
431.736	4258.41
431.943	4377.19
432.15	4248.17
432.358	4459.11
432.565	4452.97
432.772	4649.57
432.979	4801.12
433.187	4944.48
433.394	4778.59
433.601	5175.9
433.808	5186.14
434.016	5225.05
434.223	5356.12
434.43	5827.15
434.637	5694.04
434.844	5771.86
435.052	6089.29
435.259	6072.91
435.466	6165.07
435.673	5976.66
435.88	6224.46
436.087	6742.6
436.294	6844.99
436.501	6545.99
436.708	6877.76
436.915	6900.29
437.122	7422.52
437.329	7391.8
437.537	7785.01
437.743	7662.13
437.95	7643.7
438.157	8114.73
438.364	8225.33
438.571	8118.83
438.778	8301.1
438.985	9079.33
439.192	8770.08
439.399	9163.29
439.606	8847.91
439.813	9364
440.02	9875.99
440.227	9759.25
440.433	9679.38
440.64	9953.81
440.847	9753.11
441.054	10166.8
441.261	10729.99
441.467	10689.03
441.674	10951.17
441.881	11377.15
442.088	11399.68
442.294	11325.95
442.501	11485.69
442.708	11868.66
442.914	12081.65
443.121	12603.88
443.328	12265.97
443.534	13099.49
443.741	12859.88
443.948	12947.94
444.154	13738.46
444.361	13488.6
444.568	13814.23
444.774	13605.34
444.981	14094.8
445.187	14098.9
445.394	15018.44
445.6	14809.54
445.807	15894.97
446.013	15493.57
446.22	15714.75
446.426	16435.63
446.633	16677.29
446.839	17019.3
447.046	16527.79
447.252	17400.23
447.459	17584.54
447.665	17488.29
447.871	18184.6
448.078	18893.19
448.284	18100.63
448.491	18502.03
448.697	19425.67
448.903	19669.37
449.11	19771.77
449.316	19472.77
449.522	19730.81
449.728	20222.33
449.935	20343.16
450.141	20597.1
450.347	20951.4
450.553	20291.96
450.76	20498.8
450.966	21162.34
451.172	21295.46
451.378	21723.49
451.584	21436.77
451.791	21698.91
451.997	21717.34
452.203	22151.51
452.409	22268.25
452.615	21905.76
452.821	21025.13
453.027	20887.92
453.233	22307.16
453.44	21277.03
453.646	21637.47
453.852	21563.75
454.058	22108.51
454.264	21504.35
454.47	22047.07
454.676	21004.65
454.882	21995.87
455.088	20164.98
455.294	20349.3
455.5	20574.58
455.705	20820.33
455.911	20291.96
456.117	19763.58
456.323	19679.61
456.529	18342.29
456.735	19442.05
456.941	18960.78
457.147	18588.05
457.352	17875.35
457.558	17818.01
457.764	17807.77
457.97	17308.07
458.176	17107.37
458.381	17090.98
458.587	16208.31
458.793	16218.55
458.999	15110.6
459.204	16325.04
459.41	16038.33
459.616	15102.4
459.821	14967.24
460.027	14961.09
460.233	14604.75
460.438	13926.87
460.644	13736.41
460.85	13472.22
461.055	13140.45
461.261	13246.94
461.466	12372.46
461.672	11956.72
461.878	12696.04
462.083	11665.91
462.289	11508.22
462.494	11637.24
462.7	10998.27
462.905	10592.78
463.111	11155.97
463.316	11065.86
463.522	10844.68
463.727	10914.31
463.932	10865.16
464.138	10639.88
464.343	10834.44
464.549	10570.25
464.754	10918.4
464.959	10848.77
465.165	10918.4
465.37	10187.28
465.575	10084.88
465.781	10496.52
465.986	10535.43
466.191	10197.52
466.397	9951.76
466.602	9484.83
466.807	9789.97
467.012	9710.1
467.218	9572.89
467.423	9650.71
467.628	9619.99
467.833	10111.5
468.038	9691.67
468.244	9462.3
468.449	9806.36
468.654	9531.93
468.859	9325.08
469.064	9554.46
469.269	9009.7
469.474	9155.1
469.679	9361.95
469.885	9044.51
470.09	9177.63
470.295	9060.9
470.5	8798.76
470.705	8847.91
470.91	8694.31
471.115	8557.1
471.32	8782.37
471.525	8829.48
471.73	8600.1
471.935	8475.18
472.139	8213.04
472.344	8385.07
472.549	8438.31
472.754	8200.75
472.959	7952.95
473.164	7942.71
473.369	7879.22
473.574	7987.76
473.778	7961.14
473.983	7840.31
474.188	7885.36
474.393	7453.24
474.598	7551.54
474.802	7395.9
475.007	7311.93
475.212	7258.68
475.417	6986.3
475.621	7125.57
475.826	7131.71
476.031	7123.52
476.235	7000.64
476.44	6969.92
476.645	6916.67
476.849	6810.18
477.054	6863.43
477.259	6810.18
477.463	6707.78
477.668	6634.05
477.872	6756.93
478.077	6482.5
478.282	6300.23
478.486	6203.98
478.691	6242.89
478.895	6224.46
479.1	6232.65
479.304	6208.08
479.509	6177.36
479.713	6042.19
479.918	6013.52
480.122	5884.5
480.326	5993.04
480.531	5962.32
480.735	6021.71
480.94	5833.3
481.144	5988.94
481.348	5831.25
481.553	5755.47
481.757	5786.19
481.961	5763.67
482.166	5999.18
482.37	5968.46
482.574	5735
482.778	5694.04
482.983	5894.74
483.187	5749.33
483.391	5769.81
483.595	5728.85
483.8	5642.84
484.004	5784.15
484.208	5993.04
484.412	5845.59
484.616	5671.51
484.821	5743.19
485.025	5593.69
485.229	5923.41
485.433	5669.46
485.637	5827.15
485.841	5874.26
486.045	5694.04
486.249	5667.41
486.453	5595.73
486.657	5829.2
486.861	5775.95
487.065	5739.09
487.269	5853.78
487.473	5775.95
487.677	5814.87
487.881	5853.78
488.085	5601.88
488.289	5775.95
488.493	5845.59
488.697	5743.19
488.901	5907.02
489.105	5868.11
489.309	5784.15
489.512	5792.34
489.716	5917.26
489.92	5624.4
490.124	5833.3
490.328	5980.75
490.531	6013.52
490.735	5966.42
490.939	6050.38
491.143	5947.98
491.346	6003.28
491.55	6023.76
491.754	5974.61
491.958	6171.21
492.161	6070.86
492.365	6259.28
492.569	6099.53
492.772	6171.21
492.976	6289.99
493.18	6386.25
493.383	6408.78
493.587	6226.51
493.79	6609.48
493.994	6298.19
494.197	6398.54
494.401	6459.98
494.605	6687.3
494.808	6466.12
495.012	6718.02
495.215	6806.08
495.419	6836.8
495.622	6783.56
495.825	6916.67
496.029	6873.67
496.232	6900.29
496.436	6900.29
496.639	7176.77
496.843	7006.78
497.046	7336.51
497.249	7490.1
497.453	7342.65
497.656	7361.08
497.859	7457.34
498.063	7578.17
498.266	7588.41
498.469	8008.24
498.673	7948.85
498.876	8012.34
499.079	8002.1
499.282	8176.17
499.485	8251.95
499.689	8309.29
499.892	8491.56
500.095	8391.21
500.298	8671.78
500.501	8469.03
500.705	8927.78
500.908	8890.91
501.111	8915.49
501.314	9153.05
501.517	9062.94
501.72	9384.48
501.923	9151.01
502.126	9447.96
502.329	9779.73
502.532	9667.1
502.735	9843.22
502.938	10099.22
503.141	10191.38
503.344	10240.53
503.547	10433.04
503.75	10230.29
503.953	10695.18
504.156	10635.78
504.359	10816.01
504.562	11039.23
504.765	11092.48
504.968	11201.02
505.17	11434.49
505.373	11422.2
505.576	11563.51
505.779	11825.65
505.982	11821.56
506.185	12288.5
506.387	11991.54
506.59	12120.56
506.793	12552.68
506.996	12548.59
507.198	12888.55
507.401	13011.43
507.604	12988.9
507.807	13257.18
508.009	13335.01
508.212	13427.17
508.415	13627.87
508.617	13758.94
508.82	13797.85
509.022	13894.1
509.225	14483.92
509.428	14442.96
509.63	14612.94
509.833	14758.35
510.035	15188.42
510.238	15045.06
510.44	15376.83
510.643	15294.91
510.845	15548.86
511.048	15714.75
511.25	15749.56
511.453	16216.5
511.655	16368.05
511.858	16329.14
512.06	16638.38
512.262	16765.35
512.465	16818.6
512.667	17041.83
512.87	17193.38
513.072	17502.62
513.274	17623.45
513.477	18031
513.679	18080.15
513.881	18272.66
514.084	18475.41
514.286	18735.5
514.488	18528.66
514.69	19145.09
514.893	19079.56
515.095	19167.62
515.297	19532.16
515.499	19919.23
515.701	19941.75
515.904	20513.14
516.106	20287.86
516.308	20681.07
516.51	20846.96
516.712	20834.67
516.914	21219.69
517.116	21483.87
517.318	21672.29
517.52	21754.21
517.722	22253.91
517.925	22219.1
518.127	22466.9
518.329	22661.46
518.531	22581.59
518.733	23118.15
518.935	23241.03
519.136	23355.72
519.338	23476.55
519.54	23882.05
519.742	24189.24
519.944	24113.47
520.146	24246.58
520.348	24731.95
520.55	24699.19
520.752	24908.08
520.954	25671.97
521.155	25008.43
521.357	25651.49
521.559	25860.38
521.761	26122.52
521.963	26155.29
522.164	26259.74
522.366	26745.11
522.568	26947.86
522.77	26816.79
522.971	27556.1
523.173	27316.49
523.375	27777.28
523.576	27570.44
523.778	27834.63
523.98	27969.79
524.181	28301.56
524.383	28164.35
524.584	28664.05
524.786	28651.77
524.988	28770.55
525.189	29237.48
525.391	29473
525.592	29444.33
525.794	29528.3
525.995	29763.81
526.197	29608.17
526.398	29323.5
526.6	29704.42
526.801	30042.34
527.003	30232.8
527.204	30318.81
527.406	30396.63
527.607	30087.39
527.808	30777.56
528.01	30535.9
528.211	30933.2
528.412	31211.73
528.614	30972.11
528.815	30869.72
529.016	31301.84
529.218	31101.14
529.419	31035.6
529.62	31066.32
529.822	31023.31
530.023	31334.6
530.224	31881.41
530.425	31828.16
530.626	31570.12
530.828	31551.69
531.029	31862.98
531.23	31621.32
531.431	32043.2
531.632	31887.56
531.833	32022.72
532.035	31858.88
532.236	32213.18
532.437	32262.33
532.638	32374.97
532.839	32217.28
533.04	32542.91
533.241	32082.11
533.442	32635.06
533.643	32581.82
533.844	32555.19
534.045	32503.99
534.246	31961.28
534.447	32444.6
534.648	32286.91
534.849	32452.8
535.05	32153.79
535.251	32663.74
535.451	32477.37
535.652	32612.54
535.853	32204.99
536.054	32628.92
536.255	32649.4
536.456	32317.63
536.657	33073.33
536.857	32432.32
537.058	32487.61
537.259	32780.47
537.46	32942.26
537.66	32827.57
537.861	32612.54
538.062	32678.07
538.263	32645.3
538.463	32057.54
538.664	32633.02
538.865	32696.5
539.065	32600.25
539.266	32348.35
539.466	32950.45
539.667	32323.77
539.868	32803
540.068	32473.28
540.269	32553.15
540.469	32635.06
540.67	32782.52
540.87	32553.15
541.071	32536.76
541.271	32716.98
541.472	32637.11
541.672	32329.92
541.873	32495.8
542.073	32110.78
542.274	33163.44
542.474	32483.52
542.675	32245.95
542.875	32848.05
543.075	32518.33
543.276	32401.6
543.476	32905.4
543.676	32620.73
543.877	32940.21
544.077	32739.51
544.277	32493.75
544.478	32727.22
544.678	32669.88
544.878	32436.41
545.078	32331.97
545.279	32125.12
545.479	32045.25
545.679	32729.27
545.879	32702.65
546.079	32561.34
546.28	32325.82
546.48	32219.33
546.68	32215.23
546.88	32678.07
547.08	32420.03
547.28	32297.15
547.48	32256.19
547.68	32319.68
547.88	31987.91
548.081	32495.8
548.281	32340.16
548.481	32526.52
548.681	32723.13
548.881	32489.66
549.081	32260.29
549.28	32192.7
549.48	32577.72
549.68	32297.15
549.88	32485.56
550.08	32235.71
550.28	32194.75
550.48	32155.84
550.68	32555.19
550.88	32207.04
551.08	32213.18
551.279	32377.02
551.479	32151.74
551.679	32499.9
551.879	32164.03
552.079	32329.92
552.278	32110.78
552.478	32166.08
552.678	32045.25
552.878	32272.57
553.077	32055.49
553.277	31539.4
553.477	32493.75
553.676	31994.05
553.876	32372.92
554.076	31961.28
554.275	31686.86
554.475	31985.86
554.674	32215.23
554.874	32305.34
555.074	31731.91
555.273	32391.36
555.473	32248
555.672	31506.63
555.872	32028.87
556.071	32030.91
556.271	32108.74
556.47	31756.49
556.67	31346.89
556.869	31752.39
557.068	32041.15
557.268	31461.58
557.467	31824.07
557.667	31283.41
557.866	31465.67
558.065	31219.92
558.265	31350.99
558.464	31424.72
558.663	31631.56
558.863	31092.94
559.062	31660.23
559.261	30959.83
559.461	31613.13
559.66	31092.94
559.859	31183.05
560.058	30941.39
560.258	31260.88
560.457	30632.15
560.656	31553.74
560.855	31291.6
561.054	31221.97
561.253	30638.3
561.453	30724.31
561.652	31111.38
561.851	31127.76
562.05	30900.44
562.249	30869.72
562.448	30695.64
562.647	30660.82
562.846	30591.19
563.045	30816.47
563.244	30351.58
563.443	30826.71
563.642	30464.22
563.841	30392.54
564.04	30224.61
564.239	30361.82
564.438	29987.04
564.637	30525.66
564.836	30089.44
565.035	29880.55
565.234	29753.57
565.432	29860.07
565.631	30054.62
565.83	30265.56
566.029	29712.61
566.228	29667.56
566.427	29704.42
566.625	29542.63
566.824	29247.72
567.023	29784.29
567.222	28934.39
567.42	29362.41
567.619	29337.83
567.818	29100.27
568.016	29022.45
568.215	29442.28
568.414	28932.34
568.612	29393.13
568.811	29055.22
569.01	29264.11
569.208	28985.58
569.407	28866.8
569.605	28537.08
569.804	28741.88
570.002	28461.3
570.201	28752.12
570.4	28422.39
570.598	28336.38
570.797	28254.46
570.995	28244.22
571.193	28018.94
571.392	28287.23
571.59	27754.76
571.789	27953.41
571.987	28135.68
572.186	27830.53
572.384	27697.41
572.582	27719.94
572.781	27713.8
572.979	27535.62
573.177	27648.26
573.376	27463.94
573.574	27455.75
573.772	27496.71
573.971	27001.1
574.169	27152.65
574.367	26986.77
574.565	27476.23
574.763	26894.61
574.962	26956.05
575.16	26806.55
575.358	26917.14
575.556	26577.17
575.754	26974.48
575.952	26552.6
576.151	26712.34
576.349	26149.15
576.547	26312.99
576.745	26562.84
576.943	26499.35
577.141	26319.13
577.339	26286.36
577.537	25688.35
577.735	26247.45
577.933	25520.42
578.131	25807.14
578.329	25753.89
578.527	25743.65
578.725	25757.99
578.923	25952.54
579.121	25192.75
579.319	25585.96
579.516	25520.42
579.714	25456.93
579.912	25403.69
580.11	25231.66
580.308	25071.92
580.506	25168.17
580.704	25035.05
580.901	24977.71
581.099	25145.64
581.297	25086.25
581.495	24791.34
581.692	25065.77
581.89	24789.3
582.088	24897.84
582.285	24768.82
582.483	24779.06
582.681	24670.51
582.878	24213.82
583.076	24086.84
583.274	24361.27
583.471	23779.65
583.669	24277.3
583.866	23744.83
584.064	24009.02
584.262	23955.77
584.459	24172.86
584.657	23820.61
584.854	24086.84
585.052	23695.68
585.249	23673.15
585.447	23572.8
585.644	23472.45
585.841	23599.43
586.039	23603.52
586.236	22946.12
586.434	23050.57
586.631	23222.6
586.828	23419.21
587.026	23046.47
587.223	23118.15
587.42	22825.29
587.618	22952.27
587.815	22735.18
588.012	22593.87
588.21	22473.04
588.407	22628.69
588.604	22718.8
588.801	22376.79
588.999	22372.69
589.196	22085.98
589.393	22311.25
589.59	22081.88
589.787	22036.83
589.984	21856.61
590.182	21823.84
590.379	22026.59
590.576	21537.12
590.773	21928.28
590.97	21797.21
591.167	21719.39
591.364	21459.3
591.561	21604.71
591.758	21582.18
591.955	21193.06
592.152	21610.85
592.349	21506.4
592.546	21412.2
592.743	21266.79
592.94	20959.59
593.137	21131.62
593.334	21272.93
593.531	20926.83
593.727	20912.49
593.924	20953.45
594.121	20654.45
594.318	20586.86
594.515	20504.95
594.712	20517.23
594.908	20621.68
595.105	20791.66
595.302	20369.78
595.499	20566.38
595.696	20390.26
595.892	20373.88
596.089	20248.95
596.286	20375.92
596.482	20222.33
596.679	20150.65
596.876	20238.71
597.072	20015.48
597.269	19876.22
597.466	19769.72
597.662	19947.9
597.859	19743.1
598.055	19741.05
598.252	19636.61
598.448	19540.35
598.645	19593.6
598.841	19179.91
599.038	19452.29
599.234	19251.59
599.431	19319.17
599.627	19229.06
599.824	19177.86
600.02	19089.8
600.217	19110.28
600.413	18911.63
600.609	18796.94
600.806	18784.65
601.002	19071.37
601.198	18581.9
601.395	18782.6
601.591	18678.16
601.787	18561.42
601.984	18547.09
602.18	18631.05
602.376	18676.11
602.572	18383.25
602.769	18418.07
602.965	18389.39
603.161	18067.86
603.357	18321.81
603.553	17824.15
603.75	18088.34
603.946	17840.54
604.142	17934.74
604.338	17752.48
604.534	17879.45
604.73	17703.32
604.926	17678.75
605.122	17809.82
605.318	17580.45
605.514	17445.28
605.71	17441.18
605.906	17084.84
606.102	17379.75
606.298	17346.98
606.494	17443.23
606.69	17285.54
606.886	17113.51
607.082	16968.1
607.278	17324.45
607.474	17133.99
607.67	17197.48
607.866	16673.2
608.062	16947.62
608.257	16964.01
608.453	16873.9
608.649	17064.36
608.845	16589.23
609.041	16828.84
609.236	16683.44
609.432	16771.5
609.628	16783.79
609.824	16656.81
610.019	16546.22
610.215	16521.65
610.411	16538.03
610.606	16284.08
610.802	16677.29
610.998	16617.9
611.193	16507.31
611.389	16425.39
611.584	16318.9
611.78	16093.62
611.976	16325.04
612.171	16388.53
612.367	16245.17
612.562	15948.22
612.758	15843.77
612.953	15770.04
613.149	15968.69
613.344	16003.51
613.539	16165.3
613.735	15935.93
613.93	15997.37
614.126	15870.39
614.321	15923.64
614.517	15970.74
614.712	15772.09
614.907	15659.45
615.103	15581.63
615.298	15657.4
615.493	15692.22
615.688	15430.08
615.884	15665.6
616.079	15307.2
616.274	15495.61
616.47	15464.89
616.665	15425.98
616.86	15210.95
617.055	15315.39
617.25	15217.09
617.445	15176.13
617.641	15016.39
617.836	15382.98
618.031	14799.3
618.226	15184.32
618.421	15016.39
618.616	15159.75
618.811	14602.7
619.006	14952.9
619.201	14404.05
619.396	14621.13
619.591	14418.38
619.786	14430.67
619.981	14375.38
620.176	14610.89
620.371	14590.41
620.566	14557.64
620.761	14557.64
620.956	14508.49
621.151	14123.48
621.346	14234.07
621.541	13990.36
621.735	14227.92
621.93	13767.13
622.125	13832.66
622.32	13640.15
622.515	13867.48
622.709	13543.9
622.904	13507.04
623.099	13431.26
623.294	13238.75
623.488	13464.03
623.683	13294.05
623.878	13197.79
624.072	13257.18
624.267	13179.36
624.462	13115.87
624.656	12919.27
624.851	13044.2
625.046	12636.65
625.24	12870.12
625.435	12693.99
625.629	12698.09
625.824	12583.4
626.018	12397.04
626.213	12227.06
626.407	12339.69
626.602	12296.69
626.796	12433.9
626.991	12085.75
627.185	12329.45
627.38	11801.08
627.574	11815.41
627.768	11862.52
627.963	11776.5
628.157	11637.24
628.352	11975.16
628.546	11751.93
628.74	11665.91
628.935	11627
629.129	11573.75
629.323	11491.84
629.517	11190.78
629.712	11393.53
629.906	11225.6
630.1	11133.44
630.294	11362.81
630.489	11323.9
630.683	11084.29
630.877	11059.71
631.071	10787.33
631.265	11010.56
631.459	10762.76
631.653	10574.35
631.848	10619.4
632.042	10611.21
632.236	10783.24
632.43	10433.04
632.624	10473.99
632.818	10334.73
633.012	10512.91
633.206	10236.43
633.4	10242.57
633.594	10111.5
633.788	10293.77
633.982	10254.86
634.176	9988.63
634.369	10050.07
634.563	9986.58
634.757	9728.53
634.951	9843.22
635.145	9908.76
635.339	9708.05
635.533	9601.56
635.726	9650.71
635.92	9472.54
636.114	9574.94
636.308	9595.42
636.501	9390.62
636.695	9505.31
636.889	9337.37
637.083	9495.07
637.276	9259.55
637.47	9212.45
637.664	9189.92
637.857	9044.51
638.051	9075.23
638.244	8981.03
638.438	8827.43
638.632	8823.33
638.825	8727.08
639.019	8739.37
639.212	8813.09
639.406	8655.4
639.599	8542.76
639.793	8649.25
639.986	8337.96
640.18	8446.51
640.373	8569.38
640.567	8411.69
640.76	8352.3
640.954	8430.12
641.147	8241.71
641.34	8286.76
641.534	8200.75
641.727	8213.04
641.92	8133.17
642.114	8079.92
642.307	7989.81
642.5	8090.16
642.694	7776.82
642.887	7971.38
643.08	7842.35
643.273	7742
643.467	7610.93
643.66	7834.16
643.853	7500.34
644.046	7565.88
644.239	7610.93
644.432	7594.55
644.626	7565.88
644.819	7477.82
645.012	7303.74
645.205	7332.41
645.398	7168.57
645.591	7144
645.784	7109.18
645.977	7131.71
646.17	7047.74
646.363	7049.79
646.556	6853.19
646.749	7117.37
646.942	7025.22
647.135	6820.42
647.328	6912.58
647.521	6906.43
647.714	6765.12
647.907	6791.75
648.099	6683.2
648.292	6703.68
648.485	6679.11
648.678	6543.94
648.871	6500.94
649.064	6609.48
649.256	6566.47
649.449	6455.88
649.642	6447.69
649.835	6373.96
650.027	6318.67
650.22	6455.88
650.413	6337.1
650.605	6126.16
650.798	6242.89
650.991	6230.6
651.183	6330.95
651.376	6009.42
651.568	6081.1
651.761	6034
651.954	6017.61
652.146	5964.37
652.339	5943.89
652.531	5929.55
652.724	5857.87
652.916	5737.04
653.109	5679.7
653.301	5661.27
653.494	5845.59
653.686	5646.93
653.879	5745.23
654.071	5757.52
654.263	5657.17
654.456	5532.25
654.648	5618.26
654.84	5589.59
655.033	5380.7
655.225	5407.32
655.417	5614.16
655.61	5333.59
655.802	5374.55
655.994	5288.54
656.186	5358.17
656.379	5116.51
656.571	5255.77
656.763	5263.96
656.955	5200.48
657.148	5329.5
657.34	5259.87
657.532	5100.12
657.724	5071.45
657.916	5014.11
658.108	4964.96
658.3	4924
658.492	4975.2
658.684	4915.81
658.876	4831.84
659.068	4975.2
659.26	4909.66
659.452	4862.56
659.644	4733.54
659.836	4735.59
660.028	4911.71
660.22	4833.89
660.412	4760.16
660.604	4518.5
660.796	4672.1
660.988	4543.08
661.18	4631.14
661.372	4596.32
661.563	4536.93
661.755	4420.2
661.947	4471.4
662.139	4481.64
662.331	4465.25
662.522	4498.02
662.714	4375.14
662.906	4297.32
663.097	4254.31
663.289	4268.65
663.481	4256.36
663.673	4346.47
663.864	4242.03
664.056	4108.91
664.247	4170.35
664.439	4182.63
664.631	4162.16
664.822	4145.77
665.014	4043.37
665.205	4106.86
665.397	4143.72
665.588	3918.45
665.78	3967.6
665.971	3961.45
666.163	3924.59
666.354	3805.81
666.546	4004.46
666.737	3895.92
666.929	3938.93
667.12	3871.34
667.311	3951.21
667.503	3740.27
667.694	3764.85
667.885	3883.63
668.077	3797.62
668.268	3680.88
668.459	3834.48
668.651	3699.31
668.842	3695.22
669.033	3658.35
669.224	3603.06
669.416	3682.93
669.607	3721.84
669.798	3547.76
669.989	3613.3
670.18	3533.43
670.371	3545.72
670.563	3515
670.754	3633.78
670.945	3461.75
671.136	3406.45
671.327	3404.41
671.518	3373.69
671.709	3351.16
671.9	3420.79
672.091	3471.99
672.282	3515
672.473	3351.16
672.664	3263.1
672.855	3252.86
673.046	3406.45
673.237	3437.17
673.428	3244.67
673.619	3248.76
673.809	3254.9
674	3250.81
674.191	3304.06
674.382	3256.95
674.573	3242.62
674.764	3400.31
674.954	3140.22
675.145	3242.62
675.336	3041.92
675.527	3099.26
675.717	3256.95
675.908	3056.25
676.099	3043.96
676.289	3035.77
676.48	3129.98
676.671	3084.92
676.861	3119.74
677.052	2957.95
677.243	3035.77
677.433	3146.36
677.624	3113.6
677.814	3011.2
678.005	3103.36
678.195	2992.76
678.386	2878.08
678.576	2927.23
678.767	3203.71
678.957	2984.57
679.148	3027.58
679.338	3093.12
679.529	3003
679.719	2884.22
679.909	3046.01
680.1	3095.16
680.29	2955.9
680.481	3048.06
680.671	2955.9
680.861	2955.9
681.052	2990.72
681.242	2978.43
681.432	2982.53
681.622	2843.26
681.813	2951.81
682.003	2925.18
682.193	2912.89
682.383	2972.29
682.573	2781.82
682.764	2908.8
682.954	2843.26
683.144	2855.55
683.334	2810.5
683.524	2916.99
683.714	2867.84
683.904	2869.89
684.094	2759.3
684.284	2669.19
684.474	2753.15
684.664	2871.93
684.854	2931.33
685.044	2796.16
685.234	2798.21
685.424	2859.65
685.614	2812.54
685.804	2798.21
685.994	2806.4
686.184	2706.05
686.374	2740.86
686.564	2818.69
686.753	2873.98
686.943	2785.92
687.133	2695.81
687.323	2673.28
687.513	2658.95
687.702	2769.54
687.892	2650.75
688.082	2609.79
688.272	2603.65
688.461	2761.34
688.651	2747.01
688.841	2658.95
689.03	2736.77
689.22	2658.95
689.41	2716.29
689.599	2577.03
689.789	2640.51
689.979	2689.67
690.168	2699.91
690.358	2581.12
690.547	2577.03
690.737	2607.75
690.926	2626.18
691.116	2519.68
691.305	2611.84
691.495	2566.79
691.684	2491.01
691.874	2542.21
692.063	2503.3
692.252	2558.6
692.442	2681.47
692.631	2572.93
692.82	2488.96
693.01	2558.6
693.199	2597.51
693.388	2581.12
693.578	2468.48
693.767	2583.17
693.956	2544.26
694.146	2536.07
694.335	2622.08
694.524	2515.59
694.713	2474.63
694.902	2599.55
695.092	2605.7
695.281	2572.93
695.47	2431.62
695.659	2460.29
695.848	2392.71
696.037	2370.18
696.226	2464.39
696.415	2519.68
696.604	2491.01
696.793	2452.1
696.982	2466.44
697.171	2540.16
697.36	2378.37
697.549	2376.33
697.738	2372.23
697.927	2343.56
698.116	2480.77
698.305	2343.56
698.494	2368.13
698.683	2513.54
698.872	2476.68
699.061	2216.58
699.25	2452.1
699.438	2325.13
699.627	2316.94
699.816	2423.43
700.005	2445.96
700.193	2450.05
700.382	2407.05
700.571	2431.62
700.76	2259.59
700.948	2376.33
701.137	2366.09
701.326	2372.23
701.514	2292.36
701.703	2398.85
701.892	2413.19
702.08	2312.84
702.269	2312.84
702.457	2364.04
702.646	2241.16
702.834	2296.46
703.023	2296.46
703.212	2396.81
703.4	2275.98
703.589	2249.35
703.777	2249.35
703.965	2228.87
704.154	2183.82
704.342	2304.65
704.531	2122.38
704.719	2261.64
704.907	2318.98
705.096	2151.05
705.284	2167.43
705.472	2204.3
705.661	2253.45
705.849	2243.21
706.037	2222.73
706.226	2105.99
706.414	2169.48
706.602	2060.94
706.79	2200.2
706.979	2257.54
707.167	2146.95
707.355	2093.71
707.543	2171.53
707.731	2196.11
707.919	2198.15
708.107	2093.71
708.296	2163.34
708.484	2163.34
708.672	2112.14
708.86	2228.87
709.048	2093.71
709.236	2134.67
709.424	2122.38
709.612	2163.34
709.8	2062.99
709.988	2140.81
710.176	2081.42
710.364	2060.94
710.551	2007.69
710.739	2065.04
710.927	1968.78
711.115	2114.19
711.303	2095.75
711.491	1974.92
711.679	1962.64
711.866	1960.59
712.054	2067.08
712.242	2054.8
712.43	2056.84
712.617	2022.03
712.805	1999.5
712.993	1972.88
713.181	1981.07
713.368	2114.19
713.556	1923.73
713.744	1946.25
713.931	1976.97
714.119	1890.96
714.306	2015.88
714.494	1882.77
714.682	1987.21
714.869	1784.46
715.057	1843.85
715.244	1960.59
715.432	1915.53
715.619	1862.29
715.807	1915.53
715.994	1964.68
716.182	1981.07
716.369	1946.25
716.556	1876.62
716.744	1811.09
716.931	1878.67
717.119	1923.73
717.306	1927.82
717.493	1933.97
717.681	1860.24
717.868	1921.68
718.055	1890.96
718.242	1763.98
718.43	1739.41
718.617	1798.8
718.804	1786.51
718.991	1870.48
719.179	1841.81
719.366	1784.46
719.553	1835.66
719.74	1753.74
719.927	1772.18
720.114	1739.41
720.301	1759.89
720.488	1792.66
720.676	1778.32
720.863	1733.26
721.05	1872.53
721.237	1776.27
721.424	1700.5
721.611	1700.5
721.798	1823.37
721.985	1837.71
722.172	1751.7
722.358	1786.51
722.545	1735.31
722.732	1874.57
722.919	1741.46
723.106	1665.68
723.293	1796.75
723.48	1616.53
723.667	1698.45
723.853	1634.96
724.04	1733.26
724.227	1696.4
724.414	1610.39
724.6	1583.76
724.787	1555.09
724.974	1639.06
725.161	1704.59
725.347	1598.1
725.534	1698.45
725.72	1600.15
725.907	1546.9
726.094	1632.91
726.28	1653.39
726.467	1624.72
726.653	1612.43
726.84	1647.25
727.027	1714.83
727.213	1616.53
727.4	1571.47
727.586	1610.39
727.773	1608.34
727.959	1624.72
728.145	1671.83
728.332	1651.35
728.518	1622.67
728.705	1501.84
728.891	1481.36
729.077	1499.8
729.264	1499.8
729.45	1581.71
729.636	1540.76
729.823	1628.82
730.009	1641.11
730.195	1522.32
730.382	1616.53
730.568	1491.6
730.754	1524.37
730.94	1462.93
731.126	1469.08
731.313	1512.08
731.499	1428.12
731.685	1550.99
731.871	1489.56
732.057	1559.19
732.243	1512.08
732.429	1559.19
732.615	1536.66
732.801	1473.17
732.987	1524.37
733.173	1464.98
733.359	1542.8
733.545	1467.03
733.731	1450.64
733.917	1532.56
734.103	1450.64
734.289	1487.51
734.475	1464.98
734.661	1536.66
734.847	1507.99
735.033	1546.9
735.219	1403.54
735.404	1448.6
735.59	1331.86
735.776	1323.67
735.962	1491.6
736.148	1479.32
736.333	1483.41
736.519	1393.3
736.705	1446.55
736.89	1381.01
737.076	1352.34
737.262	1483.41
737.447	1452.69
737.633	1434.26
737.819	1417.88
738.004	1417.88
738.19	1350.29
738.375	1413.78
738.561	1407.64
738.747	1458.84
738.932	1387.16
739.118	1417.88
739.303	1401.49
739.489	1391.25
739.674	1370.77
739.859	1360.53
740.045	1387.16
740.23	1321.62
740.416	1323.67
740.601	1366.68
740.786	1378.97
740.972	1315.48
741.157	1344.15
741.342	1327.77
741.528	1270.42
741.713	1307.29
741.898	1319.57
742.084	1348.25
742.269	1317.53
742.454	1258.14
742.639	1299.09
742.824	1350.29
743.01	1378.97
743.195	1338.01
743.38	1262.23
743.565	1233.56
743.75	1295
743.935	1155.74
744.12	1307.29
744.305	1325.72
744.49	1231.51
744.675	1231.51
744.86	1284.76
745.045	1280.66
745.23	1125.02
745.415	1233.56
745.6	1264.28
745.785	1254.04
745.97	1254.04
746.155	1192.6
746.34	1219.22
746.525	1141.4
746.71	1168.02
746.895	1094.3
747.079	1155.74
747.264	1092.25
747.449	1151.64
747.634	1208.98
747.819	1084.06
748.003	1149.59
748.188	1096.35
748.373	1049.24
748.557	1118.87
748.742	1055.39
748.927	1172.12
749.111	1043.1
749.296	1059.48
749.481	1065.63
749.665	1125.02
749.85	1051.29
750.034	1008.28
750.219	1045.15
750.404	1041.05
750.588	1084.06
750.773	932.51
750.957	996
751.141	1004.19
751.326	1024.67
751.51	1010.33
751.695	1004.19
751.879	981.66
752.064	1034.91
752.248	936.6
752.432	1051.29
752.617	924.32
752.801	1032.86
752.985	985.76
753.17	977.56
753.354	991.9
753.538	887.45
753.722	1010.33
753.907	963.23
754.091	840.35
754.275	955.04
754.459	907.93
754.643	934.56
754.828	866.97
755.012	907.93
755.196	871.07
755.38	881.31
755.564	916.12
755.748	905.88
755.932	871.07
756.116	950.94
756.3	789.15
756.484	875.17
756.668	768.67
756.852	823.97
757.036	778.91
757.22	854.69
757.404	797.34
757.588	834.21
757.772	846.49
757.956	869.02
758.14	727.71
758.323	787.1
758.507	744.1
758.691	772.77
758.875	783.01
759.059	799.39
759.242	815.77
759.426	727.71
759.61	688.8
759.794	719.52
759.977	709.28
760.161	735.9
760.345	787.1
760.528	680.61
760.712	770.72
760.895	799.39
761.079	748.19
761.263	682.66
761.446	684.7
761.63	746.14
761.813	664.22
761.997	678.56
762.18	696.99
762.364	772.77
762.547	615.07
762.731	780.96
762.914	660.13
763.098	678.56
763.281	651.94
763.464	690.85
763.648	680.61
763.831	602.79
764.015	676.51
764.198	696.99
764.381	649.89
764.564	658.08
764.748	647.84
764.931	713.38
765.114	627.36
765.297	688.8
765.481	594.59
765.664	649.89
765.847	604.83
766.03	621.22
766.213	619.17
766.397	615.07
766.58	686.75
766.763	641.7
766.946	619.17
767.129	510.63
767.312	668.32
767.495	555.68
767.678	559.78
767.861	574.11
768.044	553.63
768.227	582.31
768.41	590.5
768.593	649.89
768.776	649.89
768.959	623.27
769.142	555.68
769.324	631.46
769.507	668.32
769.69	510.63
769.873	574.11
770.056	592.55
770.239	506.53
770.421	608.93
770.604	531.11
770.787	576.16
770.97	469.67
771.152	496.29
771.335	539.3
771.518	551.59
771.7	543.39
771.883	590.5
772.066	563.87
772.248	586.4
772.431	567.97
772.613	582.31
772.796	555.68
772.978	557.73
773.161	557.73
773.343	453.28
773.526	490.15
773.708	561.83
773.891	510.63
774.073	535.2
774.256	457.38
774.438	445.09
774.621	604.83
774.803	537.25
774.985	522.91
775.168	457.38
775.35	443.04
775.532	602.79
775.715	393.89
775.897	432.8
776.079	537.25
776.261	508.58
776.444	471.72
776.626	488.1
776.808	453.28
776.99	484
777.173	422.56
777.355	438.95
777.537	463.52
777.719	402.08
777.901	428.71
778.083	436.9
778.265	357.03
778.447	408.23
778.629	471.72
778.811	418.47
778.993	346.79
779.175	471.72
779.357	379.56
779.539	393.89
779.721	418.47
779.903	344.74
780.085	404.13
780.267	377.51
780.449	432.8
780.631	455.33
780.812	387.75
780.994	428.71
781.176	373.41
781.358	367.27
781.54	318.12
781.721	404.13
781.903	340.65
782.085	352.93
782.267	400.04
782.448	395.94
782.63	369.32
782.812	352.93
782.993	379.56
783.175	344.74
783.357	371.36
783.538	377.51
783.72	348.84
783.901	277.16
784.083	375.46
784.264	299.69
784.446	354.98
784.627	250.53
784.809	365.22
784.99	367.27
785.172	277.16
785.353	260.77
785.535	273.06
785.716	262.82
785.897	305.83
786.079	191.14
786.26	248.49
786.441	287.4
786.623	254.63
786.804	303.78
786.985	287.4
787.167	271.01
787.348	299.69
787.529	252.58
787.71	273.06
787.891	209.58
788.073	277.16
788.254	266.92
788.435	281.25
788.616	193.19
788.797	281.25
788.978	275.11
789.159	174.76
789.34	271.01
789.522	307.88
789.703	209.58
789.884	137.9
790.065	287.4
790.246	260.77
790.427	199.34
790.607	211.62
790.788	164.52
790.969	234.15
791.15	316.07
791.331	199.34
791.512	283.3
791.693	197.29
791.874	232.1
792.054	176.81
792.235	277.16
792.416	156.33
792.597	164.52
792.778	230.06
792.958	205.48
793.139	225.96
793.32	246.44
793.5	166.57
793.681	221.86
793.862	135.85
794.042	230.06
794.223	174.76
794.404	217.77
794.584	182.95
794.765	205.48
794.945	185
795.126	193.19
795.306	189.1
795.487	119.46
795.667	209.58
795.848	182.95
796.028	125.61
796.209	189.1
796.389	195.24
796.57	242.34
796.75	176.81
796.93	228.01
797.111	148.14
797.291	187.05
797.471	250.53
797.652	223.91
797.832	193.19
798.012	123.56
798.192	221.86
798.373	103.08
798.553	219.82
798.733	172.71
798.913	185
799.093	207.53
799.274	160.42
799.454	172.71
799.634	139.94
799.814	189.1
799.994	129.7
800.174	174.76
800.354	148.14
800.534	133.8
800.714	205.48
800.894	131.75
801.074	74.41
801.254	129.7
801.434	164.52
801.614	148.14
801.794	129.7
801.974	430.76
802.154	191.14
802.334	121.51
802.514	141.99
802.693	144.04
802.873	115.37
803.053	107.18
803.233	123.56
803.413	174.76
803.592	146.09
803.772	170.66
803.952	234.15
804.131	113.32
804.311	125.61
804.491	158.38
804.67	121.51
804.85	113.32
805.03	101.03
805.209	164.52
805.389	117.42
805.568	117.42
805.748	131.75
805.928	131.75
806.107	109.22
806.287	172.71
806.466	162.47
806.646	115.37
806.825	189.1
807.004	90.79
807.184	154.28
807.363	98.99
807.543	152.23
807.722	66.22
807.901	172.71
808.081	103.08
808.26	105.13
808.439	154.28
808.619	168.62
808.798	107.18
808.977	94.89
809.156	148.14
809.336	103.08
809.515	92.84
809.694	113.32
809.873	127.66
810.052	90.79
810.231	174.76
810.411	101.03
810.59	150.18
810.769	201.38
810.948	156.33
811.127	92.84
811.306	117.42
811.485	111.27
811.664	139.94
811.843	96.94
812.022	103.08
812.201	74.41
812.38	80.55
812.559	101.03
812.737	51.88
812.916	131.75
813.095	92.84
813.274	101.03
813.453	103.08
813.632	66.22
813.811	58.03
813.989	64.17
814.168	152.23
814.347	109.22
814.526	90.79
814.704	125.61
814.883	80.55
815.062	17.07
815.24	117.42
815.419	101.03
815.598	150.18
815.776	51.88
815.955	125.61
816.133	53.93
816.312	23.21
816.49	98.99
816.669	66.22
816.847	29.35
817.026	123.56
817.204	53.93
817.383	66.22
817.561	-7.51
817.74	82.6
817.918	133.8
818.097	135.85
818.275	66.22
818.453	96.94
818.632	103.08
818.81	121.51
818.988	98.99
819.167	107.18
819.345	62.12
819.523	70.31
819.701	78.51
819.879	72.36
820.058	66.22
820.236	70.31
820.414	72.36
820.592	80.55
820.77	94.89
820.948	70.31
821.127	60.07
821.305	86.7
821.483	92.84
821.661	88.75
821.839	72.36
822.017	82.6
822.195	15.02
822.373	82.6
822.551	78.51
822.729	-23.89
822.907	29.35
823.085	88.75
823.262	35.5
823.44	43.69
823.618	103.08
823.796	78.51
823.974	82.6
824.152	33.45
824.329	90.79
824.507	68.27
824.685	39.59
824.863	74.41
825.04	88.75
825.218	27.31
825.396	60.07
825.574	33.45
825.751	74.41
825.929	4.78
826.107	84.65
826.284	80.55
826.462	10.92
826.639	90.79
826.817	49.83
826.994	60.07
827.172	141.99
827.349	105.13
827.527	41.64
827.704	27.31
827.882	117.42
828.059	51.88
828.237	-7.51
828.414	78.51
828.591	-38.23
828.769	19.11
828.946	90.79
829.124	129.7
829.301	74.41
829.478	78.51
829.655	49.83
829.833	141.99
830.01	-1.37
830.187	76.46
830.364	78.51
830.542	82.6
830.719	41.64
830.896	92.84
831.073	68.27
831.25	152.23
831.427	43.69
831.604	31.4
831.782	10.92
831.959	92.84
832.136	-7.51
832.313	94.89
832.49	66.22
832.667	12.97
832.844	51.88
833.021	94.89
833.198	146.09
833.374	10.92
833.551	2.73
833.728	19.11
833.905	64.17
834.082	31.4
834.259	-36.18
834.436	98.99
834.612	80.55
834.789	86.7
834.966	76.46
835.143	64.17
835.319	66.22
835.496	-13.65
835.673	29.35
835.85	51.88
836.026	84.65
836.203	107.18
836.38	21.16
836.556	90.79
836.733	90.79
836.909	58.03
837.086	49.83
837.262	12.97
837.439	27.31
837.616	-44.37
837.792	66.22
837.968	0.68
838.145	49.83
838.321	51.88
838.498	47.79
838.674	47.79
838.851	-32.08
839.027	47.79
839.203	-52.56
839.38	15.02
839.556	43.69
839.732	37.55
839.909	37.55
840.085	76.46
840.261	109.22
840.437	37.55
840.614	33.45
840.79	60.07
840.966	70.31
841.142	62.12
841.318	8.87
841.494	53.93
841.671	-23.89
841.847	-9.56
842.023	101.03
842.199	23.21
842.375	35.5
842.551	41.64
842.727	88.75
842.903	58.03
843.079	94.89
843.255	2.73
843.431	35.5
843.607	123.56
843.783	19.11
843.959	58.03
844.134	-9.56
844.31	12.97
844.486	27.31
844.662	21.16
844.838	66.22
845.013	66.22
845.189	29.35
845.365	-9.56
845.541	17.07
845.716	-15.7
845.892	31.4
846.068	41.64
846.244	55.98
846.419	-36.18
846.595	2.73
846.77	-5.46
846.946	45.74
847.122	10.92
847.297	19.11
847.473	94.89
847.648	37.55
847.824	76.46
847.999	12.97
848.175	10.92
848.35	12.97
848.526	84.65
848.701	23.21
848.876	35.5
849.052	35.5
849.227	84.65
849.403	31.4
849.578	45.74
849.753	-52.56
849.929	21.16
850.104	4.78
850.279	6.83
850.454	-11.61
850.63	29.35
850.805	70.31
850.98	6.83
851.155	6.83
851.33	-48.47
851.505	17.07
851.681	41.64
851.856	68.27
852.031	2.73
852.206	72.36
852.381	10.92
852.556	8.87
852.731	68.27
852.906	43.69
853.081	58.03
853.256	-15.7
853.431	109.22
853.606	19.11
853.781	35.5
853.956	-27.99
854.131	21.16
854.305	35.5
854.48	19.11
854.655	-81.24
854.83	62.12
855.005	55.98
855.18	47.79
855.354	6.83
855.529	39.59
855.704	4.78
855.879	-3.41
856.053	68.27
856.228	80.55
856.403	25.26
856.577	0.68
856.752	2.73
856.926	49.83
857.101	39.59
857.276	72.36
857.45	43.69
857.625	-32.08
857.799	-58.71
857.974	43.69
858.148	-36.18
858.323	19.11
858.497	25.26
858.672	25.26
858.846	2.73
859.02	37.55
859.195	-9.56
859.369	49.83
859.543	37.55
859.718	-48.47
859.892	37.55
860.066	55.98
860.241	-7.51
860.415	37.55
860.589	51.88
860.763	27.31
860.938	8.87
861.112	31.4
861.286	-58.71
861.46	8.87
861.634	-9.56
861.808	33.45
861.982	31.4
862.157	41.64
862.331	-9.56
862.505	-9.56
862.679	-5.46
862.853	35.5
863.027	15.02
863.201	19.11
863.375	-32.08
863.549	121.51
863.722	-81.24
863.896	90.79
864.07	-5.46
864.244	41.64
864.418	15.02
864.592	41.64
864.766	0.68
864.939	53.93
865.113	-27.99
865.287	33.45
865.461	41.64
865.634	37.55
865.808	53.93
865.982	8.87
866.156	-38.23
866.329	33.45
866.503	-32.08
866.676	0.68
866.85	58.03
867.024	17.07
867.197	-9.56
867.371	-36.18
867.544	-17.75
867.718	8.87
867.891	-13.65
868.065	-5.46
868.238	60.07
868.412	-5.46
868.585	8.87
868.759	-19.8
868.932	51.88
869.105	41.64
869.279	74.41
869.452	35.5
869.625	-52.56
869.799	0.68
869.972	-23.89
870.145	8.87
870.319	33.45
870.492	-9.56
870.665	2.73
870.838	8.87
871.011	-21.85
871.185	45.74
871.358	0.68
871.531	84.65
871.704	-48.47
871.877	12.97
872.05	-30.04
872.223	37.55
872.396	-13.65
872.569	25.26
872.742	27.31
872.915	6.83
873.088	25.26
873.261	31.4
873.434	96.94
873.607	-64.85
873.78	-7.51
873.953	17.07
874.126	-30.04
874.299	33.45
874.471	-15.7
874.644	19.11
874.817	47.79
874.99	29.35
875.163	-38.23
875.335	-7.51
875.508	17.07
875.681	94.89
875.853	-23.89
876.026	-68.95
876.199	25.26
876.371	41.64
876.544	31.4
876.717	55.98
876.889	-13.65
877.062	15.02
877.234	-40.28
877.407	53.93
877.579	-5.46
877.752	-44.37
877.924	74.41
878.097	21.16
878.269	-23.89
878.442	47.79
878.614	-17.75
878.786	51.88
878.959	-48.47
879.131	49.83
879.303	15.02
879.476	74.41
879.648	8.87
879.82	45.74
879.993	0.68
880.165	-93.52
880.337	19.11
880.509	8.87
880.681	-21.85
880.854	-30.04
881.026	53.93
881.198	17.07
881.37	8.87
881.542	2.73
881.714	-50.52
881.886	41.64
882.058	-44.37
882.23	12.97
882.402	-27.99
882.574	-15.7
882.746	43.69
882.918	58.03
883.09	76.46
883.262	47.79
883.434	-40.28
883.606	19.11
883.778	43.69
883.95	33.45
884.122	33.45
884.293	19.11
884.465	-83.28
884.637	19.11
884.809	15.02
884.98	-17.75
885.152	41.64
885.324	41.64
885.496	-19.8
885.667	0.68
885.839	-17.75
886.011	-34.13
886.182	-21.85
886.354	17.07
886.525	4.78
886.697	53.93
886.869	0.68
887.04	29.35
887.212	10.92
887.383	-42.32
887.555	12.97
887.726	-44.37
887.897	-11.61
888.069	17.07
888.24	29.35
888.412	70.31
888.583	-79.19
888.754	25.26
888.926	-54.61
889.097	-3.41
889.268	-5.46
889.44	-1.37
889.611	-19.8
889.782	45.74
889.953	-19.8
890.125	-64.85
890.296	-48.47
890.467	-15.7
890.638	21.16
890.809	-15.7
890.98	10.92
891.151	-17.75
891.323	43.69
891.494	-1.37
891.665	0.68
891.836	8.87
892.007	19.11
892.178	19.11
892.349	-56.66
892.52	33.45
892.691	-17.75
892.862	-46.42
893.032	-44.37
893.203	33.45
893.374	-58.71
893.545	8.87
893.716	-11.61
893.887	-23.89
894.057	-23.89
894.228	35.5
894.399	-36.18
894.57	29.35
894.74	41.64
894.911	-23.89
895.082	-19.8
895.253	-9.56
895.423	-27.99
895.594	-30.04
895.764	94.89
895.935	-34.13
896.106	-23.89
896.276	15.02
896.447	-21.85
896.617	37.55
896.788	-95.57
896.958	58.03
897.129	6.83
897.299	-36.18
897.47	72.36
897.64	-5.46
897.81	58.03
897.981	39.59
898.151	-15.7
898.322	8.87
898.492	-11.61
898.662	78.51
898.832	-32.08
899.003	37.55
899.173	-11.61
899.343	31.4
899.513	4.78
