Data from USB4F104151__7__12-58-26-803.txt Node

Date: Fri Mar 14 12:58:26 EDT 2025
User: louis
Spectrometer: USB4F10415
Trigger mode: 4
Integration Time (sec): 1.000000E-2
Scans to average: 1
Electric dark correction enabled: true
Nonlinearity correction enabled: false
Boxcar width: 0
XAxis mode: Wavelengths
Number of Pixels in Spectrum: 3648
>>>>>Begin Spectral Data<<<<<
178.204	-73.73
178.424	-73.73
178.644	-73.73
178.864	-143.36
179.084	-63.49
179.304	-38.91
179.524	-24.58
179.744	-2.05
179.964	-38.91
180.184	-2.05
180.404	-2.05
180.624	28.67
180.844	40.96
181.064	-36.86
181.283	24.58
181.503	-8.19
181.723	59.39
181.943	-94.21
182.163	-4.1
182.383	10.24
182.602	-10.24
182.822	2.05
183.042	-28.67
183.262	12.29
183.482	-12.29
183.701	16.38
183.921	-45.06
184.141	-4.1
184.361	2.05
184.58	40.96
184.8	45.06
185.02	-38.91
185.239	-28.67
185.459	63.49
185.679	-4.1
185.898	-63.49
186.118	-22.53
186.338	-22.53
186.557	43.01
186.777	8.19
186.997	0
187.216	-16.38
187.436	53.25
187.655	-22.53
187.875	43.01
188.095	20.48
188.314	2.05
188.534	-8.19
188.753	20.48
188.973	12.29
189.192	14.34
189.412	-20.48
189.631	83.97
189.851	53.25
190.07	-14.34
190.29	12.29
190.509	-12.29
190.729	-10.24
190.948	100.35
191.168	24.58
191.387	86.01
191.607	-16.38
191.826	4.1
192.045	69.63
192.265	69.63
192.484	2.05
192.704	-2.05
192.923	-4.1
193.142	14.34
193.362	16.38
193.581	12.29
193.8	-104.45
194.02	6.14
194.239	57.34
194.458	-2.05
194.678	-2.05
194.897	38.91
195.116	59.39
195.335	-22.53
195.555	-10.24
195.774	-12.29
195.993	-4.1
196.212	-47.1
196.432	12.29
196.651	55.3
196.87	-2.05
197.089	47.1
197.308	0
197.528	40.96
197.747	28.67
197.966	-26.62
198.185	-36.86
198.404	8.19
198.623	75.77
198.842	-14.34
199.062	63.49
199.281	10.24
199.5	73.73
199.719	28.67
199.938	24.58
200.157	32.77
200.376	71.68
200.595	59.39
200.814	-65.53
201.033	-14.34
201.252	40.96
201.471	0
201.69	22.53
201.909	-18.43
202.128	-14.34
202.347	40.96
202.566	69.63
202.785	2.05
203.004	34.82
203.223	36.86
203.442	-4.1
203.661	-12.29
203.879	18.43
204.098	67.58
204.317	38.91
204.536	-38.91
204.755	-2.05
204.974	88.06
205.193	34.82
205.411	16.38
205.63	0
205.849	28.67
206.068	26.62
206.287	-26.62
206.505	30.72
206.724	22.53
206.943	-18.43
207.162	6.14
207.381	-4.1
207.599	-24.58
207.818	59.39
208.037	-12.29
208.255	-40.96
208.474	-22.53
208.693	-6.14
208.911	51.2
209.13	2.05
209.349	53.25
209.567	92.16
209.786	28.67
210.005	40.96
210.223	43.01
210.442	8.19
210.661	36.86
210.879	22.53
211.098	18.43
211.316	-43.01
211.535	10.24
211.753	6.14
211.972	34.82
212.191	-14.34
212.409	4.1
212.628	51.2
212.846	16.38
213.065	36.86
213.283	20.48
213.502	10.24
213.72	10.24
213.938	-12.29
214.157	-16.38
214.375	-22.53
214.594	-22.53
214.812	38.91
215.031	6.14
215.249	-38.91
215.467	53.25
215.686	-79.87
215.904	43.01
216.122	32.77
216.341	98.3
216.559	32.77
216.778	30.72
216.996	-59.39
217.214	-12.29
217.432	55.3
217.651	-18.43
217.869	8.19
218.087	6.14
218.306	-4.1
218.524	-36.86
218.742	-63.49
218.96	10.24
219.179	6.14
219.397	45.06
219.615	12.29
219.833	32.77
220.051	2.05
220.27	10.24
220.488	43.01
220.706	47.1
220.924	34.82
221.142	10.24
221.36	24.58
221.578	61.44
221.796	12.29
222.015	20.48
222.233	30.72
222.451	6.14
222.669	2.05
222.887	6.14
223.105	-20.48
223.323	-14.34
223.541	28.67
223.759	14.34
223.977	-30.72
224.195	65.54
224.413	0
224.631	69.63
224.849	-4.1
225.067	57.34
225.285	49.15
225.503	26.62
225.721	45.06
225.939	-22.53
226.157	2.05
226.375	83.97
226.592	4.1
226.81	-43.01
227.028	12.29
227.246	22.53
227.464	30.72
227.682	34.82
227.9	18.43
228.117	63.49
228.335	-88.06
228.553	0
228.771	20.48
228.989	36.86
229.206	55.3
229.424	-6.14
229.642	-38.91
229.86	-30.72
230.077	67.58
230.295	61.44
230.513	30.72
230.731	-24.58
230.948	32.77
231.166	81.92
231.384	-26.62
231.601	40.96
231.819	22.53
232.037	-55.3
232.254	-51.2
232.472	-6.14
232.689	-96.25
232.907	53.25
233.125	-20.48
233.342	38.91
233.56	8.19
233.777	6.14
233.995	22.53
234.213	45.06
234.43	55.3
234.648	59.39
234.865	-2.05
235.083	28.67
235.3	-28.67
235.518	30.72
235.735	-6.14
235.953	26.62
236.17	-49.15
236.388	10.24
236.605	-18.43
236.822	-18.43
237.04	20.48
237.257	28.67
237.475	-8.19
237.692	26.62
237.909	-18.43
238.127	-63.49
238.344	51.2
238.562	18.43
238.779	-14.34
238.996	-10.24
239.214	43.01
239.431	24.58
239.648	36.86
239.865	18.43
240.083	10.24
240.3	49.15
240.517	-18.43
240.735	73.73
240.952	36.86
241.169	16.38
241.386	-24.58
241.603	-83.97
241.821	34.82
242.038	40.96
242.255	-71.68
242.472	8.19
242.689	51.2
242.907	-12.29
243.124	59.39
243.341	10.24
243.558	-40.96
243.775	20.48
243.992	14.34
244.209	16.38
244.426	-38.91
244.643	10.24
244.86	14.34
245.078	-34.82
245.295	38.91
245.512	79.87
245.729	-16.38
245.946	-26.62
246.163	30.72
246.38	28.67
246.597	30.72
246.814	77.82
247.031	-38.91
247.248	34.82
247.464	-77.82
247.681	47.1
247.898	-4.1
248.115	-36.86
248.332	-53.25
248.549	10.24
248.766	-43.01
248.983	0
249.2	0
249.417	-20.48
249.633	43.01
249.85	-34.82
250.067	20.48
250.284	28.67
250.501	26.62
250.717	30.72
250.934	-16.38
251.151	2.05
251.368	6.14
251.585	12.29
251.801	-26.62
252.018	98.3
252.235	-2.05
252.451	6.14
252.668	18.43
252.885	18.43
253.102	28.67
253.318	28.67
253.535	-4.1
253.752	-2.05
253.968	43.01
254.185	-53.25
254.401	-24.58
254.618	28.67
254.835	-30.72
255.051	51.2
255.268	34.82
255.484	49.15
255.701	40.96
255.917	43.01
256.134	2.05
256.351	-28.67
256.567	12.29
256.784	26.62
257	20.48
257.217	-6.14
257.433	45.06
257.65	2.05
257.866	-2.05
258.082	28.67
258.299	26.62
258.515	26.62
258.732	40.96
258.948	-8.19
259.165	4.1
259.381	59.39
259.597	65.54
259.814	6.14
260.03	-57.34
260.246	55.3
260.463	-38.91
260.679	-8.19
260.895	55.3
261.112	-14.34
261.328	28.67
261.544	69.63
261.761	-40.96
261.977	4.1
262.193	-53.25
262.409	45.06
262.626	36.86
262.842	4.1
263.058	61.44
263.274	43.01
263.49	-92.16
263.707	10.24
263.923	-12.29
264.139	-22.53
264.355	32.77
264.571	92.16
264.787	14.34
265.004	14.34
265.22	71.68
265.436	-10.24
265.652	-34.82
265.868	67.58
266.084	45.06
266.3	10.24
266.516	-28.67
266.732	-8.19
266.948	6.14
267.164	73.73
267.38	-18.43
267.596	38.91
267.812	69.63
268.028	49.15
268.244	-8.19
268.46	-45.06
268.676	14.34
268.892	73.73
269.108	47.1
269.324	-14.34
269.54	-10.24
269.756	38.91
269.972	-14.34
270.188	12.29
270.403	-22.53
270.619	-38.91
270.835	6.14
271.051	-2.05
271.267	2.05
271.483	-8.19
271.698	-2.05
271.914	18.43
272.13	59.39
272.346	-12.29
272.562	61.44
272.777	-14.34
272.993	22.53
273.209	14.34
273.425	-30.72
273.64	10.24
273.856	51.2
274.072	10.24
274.287	-20.48
274.503	20.48
274.719	4.1
274.934	26.62
275.15	28.67
275.366	10.24
275.581	-43.01
275.797	24.58
276.012	-8.19
276.228	4.1
276.444	-2.05
276.659	-38.91
276.875	-6.14
277.09	20.48
277.306	-8.19
277.521	-12.29
277.737	38.91
277.952	-18.43
278.168	2.05
278.383	-14.34
278.599	55.3
278.814	53.25
279.03	8.19
279.245	12.29
279.461	-36.86
279.676	4.1
279.892	57.34
280.107	57.34
280.322	-16.38
280.538	73.73
280.753	79.87
280.969	-47.1
281.184	4.1
281.399	61.44
281.615	-36.86
281.83	40.96
282.045	16.38
282.26	45.06
282.476	-49.15
282.691	53.25
282.906	18.43
283.122	55.3
283.337	-69.63
283.552	57.34
283.767	-14.34
283.983	28.67
284.198	-4.1
284.413	20.48
284.628	22.53
284.843	16.38
285.058	-22.53
285.274	-20.48
285.489	-2.05
285.704	22.53
285.919	4.1
286.134	14.34
286.349	26.62
286.564	14.34
286.779	10.24
286.995	-43.01
287.21	57.34
287.425	20.48
287.64	8.19
287.855	-36.86
288.07	83.97
288.285	77.82
288.5	-6.14
288.715	36.86
288.93	-63.49
289.145	20.48
289.36	-6.14
289.575	-43.01
289.79	67.58
290.004	28.67
290.219	43.01
290.434	12.29
290.649	32.77
290.864	6.14
291.079	10.24
291.294	34.82
291.509	43.01
291.724	-6.14
291.938	-8.19
292.153	10.24
292.368	14.34
292.583	-94.21
292.798	53.25
293.012	45.06
293.227	18.43
293.442	-38.91
293.657	67.58
293.871	36.86
294.086	36.86
294.301	73.73
294.516	-65.53
294.73	38.91
294.945	-67.58
295.16	47.1
295.374	63.49
295.589	22.53
295.804	-69.63
296.018	10.24
296.233	-24.58
296.447	12.29
296.662	-16.38
296.877	4.1
297.091	71.68
297.306	40.96
297.52	-14.34
297.735	28.67
297.949	-51.2
298.164	-40.96
298.378	-28.67
298.593	71.68
298.807	22.53
299.022	20.48
299.236	45.06
299.451	-6.14
299.665	-47.1
299.88	-12.29
300.094	32.77
300.309	18.43
300.523	18.43
300.737	10.24
300.952	-36.86
301.166	88.06
301.381	-34.82
301.595	-26.62
301.809	20.48
302.024	-38.91
302.238	6.14
302.452	-26.62
302.667	8.19
302.881	61.44
303.095	6.14
303.309	8.19
303.524	6.14
303.738	-20.48
303.952	55.3
304.166	32.77
304.381	24.58
304.595	32.77
304.809	-20.48
305.023	-71.68
305.237	51.2
305.452	6.14
305.666	2.05
305.88	18.43
306.094	12.29
306.308	34.82
306.522	-61.44
306.736	30.72
306.95	36.86
307.164	26.62
307.379	69.63
307.593	2.05
307.807	2.05
308.021	-30.72
308.235	20.48
308.449	-22.53
308.663	-6.14
308.877	-30.72
309.091	0
309.305	53.25
309.519	-8.19
309.733	-43.01
309.947	12.29
310.161	65.54
310.374	49.15
310.588	61.44
310.802	-28.67
311.016	-12.29
311.23	8.19
311.444	38.91
311.658	45.06
311.872	-4.1
312.085	2.05
312.299	-36.86
312.513	38.91
312.727	34.82
312.941	28.67
313.154	38.91
313.368	-43.01
313.582	36.86
313.796	79.87
314.009	51.2
314.223	28.67
314.437	92.16
314.651	-14.34
314.864	22.53
315.078	20.48
315.292	-53.25
315.505	88.06
315.719	-79.87
315.933	55.3
316.146	18.43
316.36	-28.67
316.573	10.24
316.787	-14.34
317.001	53.25
317.214	-8.19
317.428	53.25
317.641	-43.01
317.855	-10.24
318.068	-8.19
318.282	28.67
318.495	43.01
318.709	12.29
318.922	96.25
319.136	18.43
319.349	6.14
319.563	38.91
319.776	38.91
319.99	10.24
320.203	49.15
320.417	-8.19
320.63	67.58
320.843	4.1
321.057	143.36
321.27	-28.67
321.483	26.62
321.697	51.2
321.91	18.43
322.124	14.34
322.337	14.34
322.55	55.3
322.763	-75.77
322.977	43.01
323.19	6.14
323.403	0
323.617	-12.29
323.83	-20.48
324.043	0
324.256	67.58
324.469	-10.24
324.683	-2.05
324.896	63.49
325.109	0
325.322	-26.62
325.535	26.62
325.748	20.48
325.962	12.29
326.175	10.24
326.388	-22.53
326.601	51.2
326.814	26.62
327.027	-28.67
327.24	-18.43
327.453	18.43
327.666	-6.14
327.879	-2.05
328.092	-26.62
328.305	34.82
328.518	8.19
328.731	-45.06
328.944	2.05
329.157	12.29
329.37	45.06
329.583	49.15
329.796	28.67
330.009	-6.14
330.222	-26.62
330.435	20.48
330.648	14.34
330.861	-24.58
331.073	26.62
331.286	26.62
331.499	6.14
331.712	-34.82
331.925	92.16
332.138	22.53
332.35	83.97
332.563	77.82
332.776	4.1
332.989	-26.62
333.202	8.19
333.414	22.53
333.627	51.2
333.84	18.43
334.053	36.86
334.265	-26.62
334.478	18.43
334.691	26.62
334.903	10.24
335.116	-63.49
335.329	4.1
335.541	14.34
335.754	34.82
335.966	-34.82
336.179	-22.53
336.392	14.34
336.604	65.54
336.817	45.06
337.029	61.44
337.242	-4.1
337.454	2.05
337.667	57.34
337.88	43.01
338.092	22.53
338.305	-2.05
338.517	-4.1
338.729	43.01
338.942	36.86
339.154	2.05
339.367	53.25
339.579	-55.3
339.792	10.24
340.004	4.1
340.217	36.86
340.429	-14.34
340.641	32.77
340.854	45.06
341.066	24.58
341.278	6.14
341.491	36.86
341.703	96.25
341.915	24.58
342.128	34.82
342.34	34.82
342.552	47.1
342.764	61.44
342.977	18.43
343.189	26.62
343.401	24.58
343.613	69.63
343.826	51.2
344.038	-40.96
344.25	36.86
344.462	98.3
344.674	71.68
344.886	26.62
345.099	10.24
345.311	8.19
345.523	-18.43
345.735	-10.24
345.947	-22.53
346.159	22.53
346.371	26.62
346.583	47.1
346.795	10.24
347.007	-24.58
347.219	116.73
347.431	-4.1
347.643	-40.96
347.855	10.24
348.067	20.48
348.279	-100.35
348.491	53.25
348.703	36.86
348.915	133.12
349.127	77.82
349.339	75.77
349.551	-30.72
349.763	40.96
349.975	-2.05
350.187	-12.29
350.399	-18.43
350.61	40.96
350.822	40.96
351.034	12.29
351.246	12.29
351.458	34.82
351.669	4.1
351.881	83.97
352.093	2.05
352.305	43.01
352.517	92.16
352.728	55.3
352.94	18.43
353.152	-4.1
353.363	8.19
353.575	-10.24
353.787	-22.53
353.999	12.29
354.21	-2.05
354.422	2.05
354.633	24.58
354.845	10.24
355.057	77.82
355.268	36.86
355.48	18.43
355.692	83.97
355.903	67.58
356.115	43.01
356.326	0
356.538	116.73
356.749	14.34
356.961	14.34
357.172	49.15
357.384	2.05
357.595	-43.01
357.807	18.43
358.018	-22.53
358.23	6.14
358.441	38.91
358.653	12.29
358.864	-14.34
359.075	26.62
359.287	2.05
359.498	22.53
359.709	16.38
359.921	116.73
360.132	-36.86
360.344	-30.72
360.555	102.4
360.766	59.39
360.977	36.86
361.189	32.77
361.4	18.43
361.611	43.01
361.823	-6.14
362.034	-14.34
362.245	-10.24
362.456	-28.67
362.667	49.15
362.879	79.87
363.09	10.24
363.301	28.67
363.512	28.67
363.723	-16.38
363.935	71.68
364.146	32.77
364.357	-40.96
364.568	47.1
364.779	-43.01
364.99	4.1
365.201	38.91
365.412	0
365.623	63.49
365.834	-4.1
366.045	-10.24
366.256	-43.01
366.467	73.73
366.678	-4.1
366.889	-6.14
367.1	90.11
367.311	14.34
367.522	45.06
367.733	43.01
367.944	67.58
368.155	-16.38
368.366	59.39
368.577	47.1
368.788	6.14
368.999	38.91
369.209	51.2
369.42	6.14
369.631	63.49
369.842	71.68
370.053	34.82
370.264	69.63
370.474	6.14
370.685	-16.38
370.896	94.21
371.107	-38.91
371.317	45.06
371.528	22.53
371.739	36.86
371.95	16.38
372.16	98.3
372.371	45.06
372.582	0
372.792	-30.72
373.003	14.34
373.214	28.67
373.424	10.24
373.635	-18.43
373.846	-4.1
374.056	0
374.267	34.82
374.477	-53.25
374.688	34.82
374.898	73.73
375.109	53.25
375.319	-14.34
375.53	69.63
375.74	53.25
375.951	67.58
376.161	55.3
376.372	20.48
376.582	-22.53
376.793	36.86
377.003	-8.19
377.214	-34.82
377.424	18.43
377.635	40.96
377.845	32.77
378.055	67.58
378.266	-28.67
378.476	63.49
378.686	-8.19
378.897	47.1
379.107	18.43
379.317	69.63
379.528	-12.29
379.738	34.82
379.948	-12.29
380.158	0
380.369	24.58
380.579	108.54
380.789	55.3
380.999	43.01
381.21	81.92
381.42	8.19
381.63	28.67
381.84	67.58
382.05	26.62
382.261	-51.2
382.471	61.44
382.681	28.67
382.891	77.82
383.101	-10.24
383.311	43.01
383.521	10.24
383.731	-10.24
383.941	14.34
384.151	-30.72
384.361	34.82
384.571	24.58
384.781	61.44
384.991	8.19
385.201	90.11
385.411	38.91
385.621	2.05
385.831	28.67
386.041	65.54
386.251	-16.38
386.461	28.67
386.671	55.3
386.881	34.82
387.091	16.38
387.301	30.72
387.511	75.77
387.72	38.91
387.93	18.43
388.14	30.72
388.35	-8.19
388.56	86.01
388.769	8.19
388.979	55.3
389.189	47.1
389.399	32.77
389.609	10.24
389.818	38.91
390.028	47.1
390.238	20.48
390.447	18.43
390.657	-2.05
390.867	69.63
391.076	98.3
391.286	75.77
391.496	92.16
391.705	45.06
391.915	38.91
392.125	71.68
392.334	40.96
392.544	14.34
392.753	40.96
392.963	30.72
393.172	18.43
393.382	45.06
393.591	36.86
393.801	106.49
394.01	67.58
394.22	65.54
394.429	6.14
394.639	-4.1
394.848	34.82
395.058	69.63
395.267	43.01
395.477	124.93
395.686	-18.43
395.895	22.53
396.105	18.43
396.314	26.62
396.524	20.48
396.733	40.96
396.942	120.83
397.152	59.39
397.361	155.65
397.57	75.77
397.78	83.97
397.989	45.06
398.198	36.86
398.407	-12.29
398.617	73.73
398.826	65.54
399.035	83.97
399.244	75.77
399.453	38.91
399.663	40.96
399.872	51.2
400.081	73.73
400.29	55.3
400.499	88.06
400.708	0
400.917	83.97
401.127	88.06
401.336	-24.58
401.545	118.78
401.754	88.06
401.963	45.06
402.172	18.43
402.381	90.11
402.59	100.35
402.799	108.54
403.008	145.41
403.217	4.1
403.426	139.26
403.635	51.2
403.844	114.69
404.053	20.48
404.262	77.82
404.471	45.06
404.68	57.34
404.888	14.34
405.097	81.92
405.306	88.06
405.515	98.3
405.724	36.86
405.933	83.97
406.142	65.54
406.35	22.53
406.559	51.2
406.768	108.54
406.977	120.83
407.185	172.03
407.394	75.77
407.603	120.83
407.812	165.89
408.02	79.87
408.229	202.75
408.438	124.93
408.646	94.21
408.855	159.74
409.064	133.12
409.272	77.82
409.481	245.76
409.69	124.93
409.898	219.13
410.107	112.64
410.315	258.04
410.524	202.75
410.733	157.69
410.941	249.85
411.15	266.24
411.358	215.04
411.567	268.28
411.775	235.52
411.984	294.91
412.192	241.66
412.401	178.17
412.609	337.91
412.818	206.84
413.026	258.04
413.234	280.57
413.443	317.44
413.651	333.82
413.86	335.87
414.068	397.31
414.276	372.73
414.485	327.68
414.693	393.21
414.901	428.03
415.11	380.92
415.318	436.22
415.526	468.98
415.734	471.03
415.943	520.18
416.151	456.7
416.359	538.62
416.567	552.95
416.776	507.9
416.984	567.29
417.192	585.72
417.4	595.96
417.608	612.34
417.817	651.25
418.025	634.87
418.233	669.69
418.441	641.01
418.649	729.08
418.857	720.88
419.065	841.72
419.273	804.85
419.481	724.98
419.689	841.72
419.897	874.48
420.105	931.83
420.313	833.52
420.521	929.78
420.729	935.92
420.937	1009.65
421.145	1013.74
421.353	1110
421.561	1103.86
421.769	1218.54
421.977	1257.45
422.185	1216.49
422.393	1218.54
422.601	1296.36
422.809	1406.95
423.017	1366
423.224	1470.44
423.432	1492.97
423.64	1486.83
423.848	1681.38
424.056	1646.57
424.263	1732.58
424.471	1701.86
424.679	1804.26
424.887	1896.42
425.094	1875.94
425.302	1877.99
425.51	1927.14
425.718	2054.11
425.925	2072.54
426.133	2162.65
426.341	2310.11
426.548	2430.94
426.756	2355.16
426.964	2514.91
427.171	2600.92
427.379	2705.37
427.586	2576.34
427.794	2691.03
428.001	2826.2
428.209	2985.94
428.417	2846.68
428.624	3037.14
428.832	3221.45
429.039	3061.71
429.247	3112.91
429.454	3553.23
429.662	3606.47
429.869	3409.87
430.076	3747.78
430.284	3465.16
430.491	3682.25
430.699	3950.53
430.906	3876.8
431.114	3950.53
431.321	4159.42
431.528	4171.71
431.736	4405.18
431.943	4603.83
432.15	4495.29
432.358	4515.77
432.565	4734.9
432.772	4810.68
432.979	5097.39
433.187	5113.78
433.394	5044.15
433.601	5556.14
433.808	5451.69
434.016	5304.24
434.223	5623.72
434.43	5941.16
434.637	5892.01
434.844	6360.99
435.052	6315.94
435.259	6410.14
435.466	6504.35
435.673	6408.09
435.88	6926.23
436.087	7327.63
436.294	7088.02
436.501	7225.23
436.708	6993.81
436.915	7376.78
437.122	7839.62
437.329	7595.92
437.537	7923.59
437.743	8152.96
437.95	7982.98
438.157	8376.19
438.364	8540.03
438.571	8724.35
438.778	8886.14
438.985	9553.77
439.192	9140.08
439.399	9383.79
439.606	9402.22
439.813	9840.49
440.02	10092.39
440.227	10080.1
440.433	10200.93
440.64	10516.32
440.847	10139.49
441.054	10563.42
441.261	11321.17
441.467	11306.84
441.674	11382.61
441.881	11892.55
442.088	11786.06
442.294	11624.27
442.501	11890.51
442.708	12439.36
442.914	12857.15
443.121	13309.75
443.328	12748.61
443.534	13778.73
443.741	13434.67
443.948	13246.26
444.154	14647.07
444.361	14288.68
444.568	14470.95
444.774	14276.39
444.981	14358.31
445.187	14896.92
445.394	15464.21
445.6	15425.3
445.807	16822.02
446.013	16201.48
446.22	16400.13
446.426	17202.94
446.633	17166.07
446.839	17938.16
447.046	17338.1
447.252	18130.67
447.459	18138.86
447.665	17966.83
447.871	19019.49
448.078	19820.24
448.284	18648.8
448.491	19422.94
448.697	20135.63
448.903	20082.38
449.11	20627.14
449.316	20381.38
449.522	20917.95
449.728	21178.04
449.935	21368.51
450.141	21104.32
450.347	21696.18
450.553	21210.81
450.76	21352.12
450.966	22132.4
451.172	21972.66
451.378	22468.27
451.584	22320.81
451.791	22656.68
451.997	22404.78
452.203	23080.61
452.409	22941.35
452.615	22730.41
452.821	22242.99
453.027	21800.63
453.233	22970.02
453.44	22156.97
453.646	22290.09
453.852	22275.76
454.058	22611.62
454.264	21986.99
454.47	22222.51
454.676	22134.45
454.882	22881.95
455.088	20797.12
455.294	21049.02
455.5	21399.23
455.705	21362.36
455.911	20567.75
456.117	20315.85
456.323	20002.51
456.529	19171.04
456.735	19754.71
456.941	19420.89
457.147	19295.96
457.352	18454.25
457.558	18075.37
457.764	18155.24
457.97	18044.65
458.176	17784.56
458.381	17526.52
458.587	16766.72
458.793	16654.08
458.999	15904.53
459.204	16989.95
459.41	16344.84
459.616	15603.47
459.821	15451.92
460.027	15425.3
460.233	15222.55
460.438	14618.4
460.644	14429.99
460.85	13748.01
461.055	13739.82
461.261	13516.59
461.466	12521.28
461.672	12195.65
461.878	13098.81
462.083	11941.71
462.289	12054.34
462.494	11831.12
462.7	11317.08
462.905	10966.87
463.111	11347.79
463.316	11390.8
463.522	11296.6
463.727	11036.5
463.932	11067.22
464.138	11018.07
464.343	11069.27
464.549	10682.2
464.754	11280.21
464.959	11104.09
465.165	10952.54
465.37	10338.15
465.575	10239.84
465.781	10651.49
465.986	10770.27
466.191	10307.43
466.397	10104.68
466.602	9688.94
466.807	9928.55
467.012	10192.74
467.218	10098.53
467.423	9887.59
467.628	9834.35
467.833	10301.28
468.038	9961.32
468.244	9774.95
468.449	10033
468.654	9666.41
468.859	9668.46
469.064	9531.25
469.269	9330.55
469.474	9262.96
469.679	9463.66
469.885	9004.92
470.09	9273.2
470.295	9201.52
470.5	9156.47
470.705	9043.83
470.91	8734.59
471.115	8753.02
471.32	8953.72
471.525	8765.31
471.73	8638.33
471.935	8636.28
472.139	8460.16
472.344	8525.69
472.549	8310.66
472.754	8507.26
472.959	8175.49
473.164	7948.17
473.369	7942.02
473.574	8183.68
473.778	7915.4
473.983	7972.74
474.188	7804.81
474.393	7665.55
474.598	7733.13
474.802	7485.33
475.007	7389.07
475.212	7491.47
475.417	7339.92
475.621	7296.91
475.826	7249.81
476.031	7118.74
476.235	7055.25
476.44	7100.31
476.645	7006.1
476.849	6950.81
477.054	6942.61
477.259	6682.52
477.463	6764.44
477.668	6752.15
477.872	6698.91
478.077	6682.52
478.282	6336.42
478.486	6496.16
478.691	6299.55
478.895	6199.2
479.1	6334.37
479.304	6234.02
479.509	6141.86
479.713	6285.22
479.918	5961.64
480.122	5953.45
480.326	6033.32
480.531	6049.7
480.735	5898.15
480.94	5910.44
481.144	6018.98
481.348	5851.05
481.553	5889.96
481.757	5711.78
481.961	5773.22
482.166	5892.01
482.37	5765.03
482.574	5746.6
482.778	5646.25
482.983	5920.68
483.187	5752.74
483.391	5828.52
483.595	5855.14
483.8	5840.81
484.004	5636.01
484.208	5902.25
484.412	5615.53
484.616	6000.55
484.821	5832.61
485.025	5699.5
485.229	5849
485.433	5728.17
485.637	5803.94
485.841	5902.25
486.045	5707.69
486.249	5904.29
486.453	5906.34
486.657	5574.57
486.861	5873.57
487.065	5685.16
487.269	5916.58
487.473	5676.97
487.677	5908.39
487.881	5787.56
488.085	5973.92
488.289	6129.57
488.493	5916.58
488.697	5805.99
488.901	5830.57
489.105	5760.94
489.309	5894.05
489.512	5955.49
489.716	5869.48
489.92	5939.11
490.124	5810.09
490.328	6127.52
490.531	5904.29
490.735	5914.53
490.939	6041.51
491.143	5904.29
491.346	5947.3
491.55	6031.27
491.754	6145.95
491.958	6070.18
492.161	6061.99
492.365	6195.11
492.569	6215.59
492.772	6154.15
492.976	6195.11
493.18	6377.37
493.383	6330.27
493.587	6434.72
493.79	6541.21
493.994	6473.63
494.197	6367.13
494.401	6367.13
494.605	6326.18
494.808	6659.99
495.012	6576.03
495.215	6504.35
495.419	6690.71
495.622	6680.47
495.825	6836.12
496.029	6825.88
496.232	6924.18
496.436	6942.61
496.639	6959
496.843	7118.74
497.046	7231.38
497.249	7090.07
497.453	7411.6
497.656	7432.08
497.859	7284.62
498.063	7339.92
498.266	7589.77
498.469	7776.14
498.673	7710.6
498.876	7825.29
499.079	7745.42
499.282	8050.57
499.485	8021.89
499.689	7991.17
499.892	8161.16
500.095	8298.37
500.298	8619.9
500.501	8476.54
500.705	8689.53
500.908	8957.82
501.111	8900.47
501.314	9009.01
501.517	8959.86
501.72	9203.57
501.923	9191.28
502.126	9348.98
502.329	9580.4
502.532	9531.25
502.735	9502.57
502.938	9734
503.141	10022.76
503.344	10037.09
503.547	10014.57
503.75	10002.28
503.953	10282.85
504.156	10426.21
504.359	10426.21
504.562	10512.22
504.765	10737.5
504.968	10995.54
505.17	11278.16
505.373	11165.53
505.576	11018.07
505.779	11288.4
505.982	11405.14
506.185	11630.41
506.387	11675.47
506.59	11736.91
506.793	12173.13
506.996	12289.86
507.198	12181.32
507.401	12504.9
507.604	12568.38
507.807	12832.57
508.009	12930.87
508.212	13104.95
508.415	13027.13
508.617	13322.04
508.82	13522.74
509.022	13514.55
509.225	13727.53
509.428	13801.26
509.63	13821.74
509.833	13987.63
510.035	14599.97
510.238	14255.91
510.44	14628.64
510.643	14743.33
510.845	14804.77
511.048	14790.43
511.25	15316.76
511.453	15345.43
511.655	15372.05
511.858	15419.16
512.06	15685.39
512.262	15660.82
512.465	15904.53
512.667	16172.81
512.87	16492.29
513.072	16389.89
513.274	16586.5
513.477	17004.28
513.679	16983.8
513.881	17444.6
514.084	17346.3
514.286	17293.05
514.488	17590
514.69	17981.17
514.893	18165.48
515.095	17932.01
515.297	18448.1
515.499	18704.1
515.701	18700
515.904	18650.85
516.106	18980.57
516.308	19363.54
516.51	19420.89
516.712	19615.44
516.914	19775.19
517.116	20170.44
517.318	20078.29
517.52	20420.3
517.722	20625.09
517.925	20350.67
518.127	20747.97
518.329	20899.52
518.531	20897.47
518.733	21294.78
518.935	21415.61
519.136	21640.89
519.338	22083.25
519.54	21892.79
519.742	22435.5
519.944	22650.53
520.146	22959.78
520.348	22943.39
520.55	23027.36
520.752	23056.03
520.954	23371.42
521.155	23248.54
521.357	23799.44
521.559	23971.47
521.761	24428.17
521.963	24399.5
522.164	24299.15
522.366	24841.86
522.568	24872.58
522.77	24692.36
522.971	25507.45
523.173	25120.38
523.375	25030.27
523.576	25132.67
523.778	25327.23
523.98	25804.41
524.181	25726.58
524.383	26005.11
524.584	26254.96
524.786	25910.9
524.988	25984.63
525.189	26570.35
525.391	26592.87
525.592	26814.05
525.794	26662.51
525.995	26721.9
526.197	26938.98
526.398	27096.67
526.6	26992.23
526.801	27475.55
527.003	27584.09
527.204	27379.29
527.406	27989.59
527.607	27768.41
527.808	28057.17
528.01	27557.47
528.211	27977.3
528.412	28409.42
528.614	28251.73
528.815	28405.33
529.016	28421.71
529.218	28182.1
529.419	28413.52
529.62	28440.14
529.822	28591.69
530.023	28485.2
530.224	28493.39
530.425	28440.14
530.626	28206.67
530.828	28397.13
531.029	29300.29
531.23	28843.59
531.431	28796.49
531.632	28911.17
531.833	28730.95
532.035	28864.07
532.236	29099.59
532.437	28986.95
532.638	28821.06
532.839	28859.98
533.04	29314.62
533.241	28913.22
533.442	29425.21
533.643	29062.72
533.844	29253.19
534.045	29322.82
534.246	29097.54
534.447	29488.7
534.648	29556.28
534.849	29308.48
535.05	28870.22
535.251	29009.48
535.451	29101.64
535.652	29253.19
535.853	29347.39
536.054	29423.17
536.255	29269.57
536.456	29183.55
536.657	29611.58
536.857	29197.89
537.058	28704.33
537.259	29183.55
537.46	29097.54
537.66	29285.95
537.861	29455.93
538.062	29072.96
538.263	29169.22
538.463	29359.68
538.664	29228.61
538.865	29503.04
539.065	29156.93
539.266	29455.93
539.466	29558.33
539.667	29087.3
539.868	29605.44
540.068	29339.2
540.269	29279.81
540.469	29482.56
540.67	29017.67
540.87	28958.28
541.071	29337.15
541.271	29324.86
541.472	29388.35
541.672	29066.82
541.873	28749.39
542.073	28937.8
542.274	29427.26
542.474	29015.62
542.675	28796.49
542.875	29279.81
543.075	29222.47
543.276	28921.41
543.476	29316.67
543.676	28870.22
543.877	29560.38
544.077	29089.35
544.277	29158.98
544.478	29189.7
544.678	29150.79
544.878	29075.01
545.078	29130.31
545.279	28907.08
545.479	28786.25
545.679	29177.41
545.879	28769.86
546.079	28931.65
546.28	29374.02
546.48	28730.95
546.68	28943.94
546.88	28747.34
547.08	28984.9
547.28	29218.37
547.48	28735.05
547.68	29015.62
547.88	28986.95
548.081	28835.4
548.281	28970.57
548.481	28689.99
548.681	28747.34
548.881	28995.14
549.081	28919.37
549.28	28776.01
549.48	29111.88
549.68	29054.53
549.88	29036.1
550.08	28710.47
550.28	28646.99
550.48	28726.86
550.68	28849.74
550.88	28726.86
551.08	28790.34
551.279	29023.81
551.479	28712.52
551.679	28438.09
551.879	29029.96
552.079	28802.63
552.278	28415.57
552.478	28554.83
552.678	28614.22
552.878	28837.45
553.077	28429.9
553.277	27942.49
553.477	28694.09
553.676	28675.66
553.876	28624.46
554.076	28683.85
554.275	28182.1
554.475	28319.31
554.674	28425.81
554.874	28868.17
555.074	28380.75
555.273	28696.14
555.473	28569.16
555.672	28401.23
555.872	28436.05
556.071	28632.65
556.271	28513.87
556.47	28270.16
556.67	28200.53
556.869	28087.89
557.068	28565.07
557.268	28511.82
557.467	27928.15
557.667	28190.29
557.866	28069.46
558.065	27727.45
558.265	27776.6
558.464	27706.97
558.663	28005.97
558.863	27844.18
559.062	28276.3
559.261	27817.56
559.461	28163.67
559.66	27635.29
559.859	27833.94
560.058	27543.13
560.258	27469.4
560.457	27395.68
560.656	27805.27
560.855	27493.98
561.054	27758.17
561.253	27371.1
561.453	27580
561.652	27639.39
561.851	27272.8
562.05	27301.47
562.249	27076.19
562.448	27483.74
562.647	27424.35
562.846	27096.67
563.045	27242.08
563.244	27086.43
563.443	27344.48
563.642	26842.73
563.841	27176.55
564.04	27125.35
564.239	26963.56
564.438	27014.76
564.637	26803.81
564.836	27043.43
565.035	26306.16
565.234	26779.24
565.432	26703.46
565.631	26566.25
565.83	26564.2
566.029	26390.13
566.228	26678.89
566.427	26353.26
566.625	26152.56
566.824	25871.99
567.023	26355.31
567.222	25912.95
567.42	26191.47
567.619	25865.85
567.818	26019.44
568.016	25779.83
568.215	26199.66
568.414	25855.61
568.612	26183.28
568.811	25607.8
569.01	25724.54
569.208	25577.08
569.407	25896.56
569.605	25190.02
569.804	25679.48
570.002	25423.48
570.201	25480.83
570.4	25390.72
570.598	25075.33
570.797	25038.47
570.995	25036.42
571.193	24684.17
571.392	25048.71
571.59	25134.72
571.789	25153.15
571.987	24950.4
572.186	24962.69
572.384	24706.69
572.582	24399.5
572.781	24815.24
572.979	24170.13
573.177	24829.57
573.376	24645.26
573.574	24225.42
573.772	24190.61
573.971	24209.04
574.169	24153.74
574.367	23901.84
574.565	24178.32
574.763	23889.56
574.962	23838.36
575.16	23670.42
575.358	24123.02
575.556	23535.26
575.754	23907.99
575.952	23715.48
576.151	23885.46
576.349	23699.09
576.547	23469.72
576.745	23537.3
576.943	23381.66
577.141	23486.11
577.339	23348.89
577.537	23146.14
577.735	23254.69
577.933	23103.14
578.131	23283.36
578.329	22916.77
578.527	22884
578.725	22918.82
578.923	22884
579.121	22460.07
579.319	22808.23
579.516	22593.19
579.714	22642.34
579.912	22394.54
580.11	22337.2
580.308	22617.77
580.506	22576.81
580.704	22290.09
580.901	22189.74
581.099	22558.38
581.297	22066.86
581.495	21862.07
581.692	22347.43
581.89	22089.39
582.088	21808.82
582.285	21839.54
582.483	21769.91
582.681	21835.44
582.878	21640.89
583.076	21671.61
583.274	21677.75
583.471	21194.43
583.669	21202.62
583.866	21235.39
584.064	21601.97
584.262	21049.02
584.459	21583.54
584.657	21073.6
584.854	21372.6
585.052	20713.16
585.249	20977.34
585.447	20963.01
585.644	20895.43
585.841	20715.2
586.039	20928.19
586.236	20444.87
586.434	20479.69
586.631	20563.65
586.828	20723.4
587.026	20305.61
587.223	20444.87
587.42	20235.98
587.618	20600.52
587.815	20090.57
588.012	20350.67
588.21	20278.99
588.407	20477.64
588.604	20066
588.801	19648.21
588.999	19912.4
589.196	20002.51
589.393	19621.59
589.59	19941.07
589.787	19736.27
589.984	19513.05
590.182	19085.02
590.379	19619.54
590.576	19496.66
590.773	19640.02
590.97	19437.27
591.167	19195.61
591.364	19109.6
591.561	19308.25
591.758	19195.61
591.955	19144.41
592.152	19347.16
592.349	18826.98
592.546	19078.88
592.743	19046.11
592.94	18603.75
593.137	18728.67
593.334	19029.73
593.531	18417.38
593.727	18702.05
593.924	18372.33
594.121	18589.41
594.318	18622.18
594.515	18288.36
594.712	18499.3
594.908	18296.55
595.105	18241.26
595.302	18128.62
595.499	18282.22
595.696	18026.22
595.892	17891.06
596.089	18067.18
596.286	17952.49
596.482	17811.18
596.679	17946.35
596.876	17956.59
597.072	17692.4
597.269	17897.2
597.466	17366.77
597.662	17583.86
597.859	17415.93
598.055	17516.28
598.252	17143.55
598.448	17434.36
598.645	17288.95
598.841	17104.63
599.038	17231.61
599.234	17069.82
599.431	17016.57
599.627	17133.31
599.824	17129.21
600.02	17157.88
600.217	16989.95
600.413	16834.3
600.609	16832.26
600.806	16762.62
601.002	16615.17
601.198	16803.58
601.395	16439.05
601.591	16469.76
601.787	16602.88
601.984	16758.53
602.18	16326.41
602.376	16312.07
602.572	16328.45
602.769	16424.71
602.965	16033.55
603.161	15992.59
603.357	15959.82
603.553	16078.6
603.75	15867.66
603.946	15716.11
604.142	16047.88
604.338	15826.7
604.534	15712.02
604.73	15669.01
604.926	15783.7
605.122	15918.86
605.318	15822.61
605.514	15578.9
605.71	15556.37
605.906	15361.81
606.102	15404.82
606.298	15296.28
606.494	15298.33
606.69	15193.88
606.886	15388.44
607.082	15167.26
607.278	15054.62
607.474	14970.65
607.67	15288.09
607.866	14851.87
608.062	15101.72
608.257	15111.96
608.453	15101.72
608.649	15025.95
608.845	15021.85
609.041	14782.24
609.236	15046.43
609.432	14645.02
609.628	14597.92
609.824	14759.71
610.019	14440.23
610.215	14616.35
610.411	14575.39
610.606	14475.04
610.802	14694.18
610.998	14395.17
611.193	14327.59
611.389	14571.3
611.584	14511.91
611.78	14241.57
611.976	14221.09
612.171	14319.4
612.367	14495.52
612.562	14219.05
612.758	14202.66
612.953	13997.87
613.149	14425.89
613.344	13915.95
613.539	14231.33
613.735	14460.71
613.93	14153.51
614.126	13961
614.321	14315.3
614.517	14044.97
614.712	13983.53
614.907	14044.97
615.103	14165.8
615.298	13758.25
615.493	14069.55
615.688	13520.69
615.884	14065.45
616.079	13967.15
616.274	13711.15
616.47	13774.64
616.665	13823.79
616.86	13743.92
617.055	13680.43
617.25	13541.17
617.445	13547.31
617.641	13383.48
617.836	13406
618.031	13360.95
618.226	13782.83
618.421	13184.82
618.616	13395.76
618.811	13137.72
619.006	13604.66
619.201	13074.23
619.396	13107
619.591	12785.47
619.786	13287.22
619.981	12785.47
620.176	13016.89
620.371	12730.17
620.566	12947.26
620.761	12625.73
620.956	12928.83
621.151	12527.42
621.346	12681.02
621.541	12291.91
621.735	12621.63
621.93	12236.61
622.125	12541.76
622.32	12226.37
622.515	12396.35
622.709	12035.91
622.904	12199.75
623.099	12068.68
623.294	11900.75
623.488	11761.48
623.683	12056.39
623.878	11884.36
624.072	11728.72
624.267	11700.05
624.462	11654.99
624.656	11513.68
624.851	11505.49
625.046	11427.67
625.24	11384.66
625.435	11343.7
625.629	11394.9
625.824	11231.06
626.018	11190.1
626.213	10983.26
626.407	11347.79
626.602	10991.45
626.796	11063.13
626.991	10889.05
627.185	10788.7
627.38	10661.73
627.574	10702.68
627.768	10641.25
627.963	10356.58
628.157	10356.58
628.352	10563.42
628.546	10198.88
628.74	10407.78
628.935	10282.85
629.129	10389.35
629.323	10112.87
629.517	10205.03
629.712	10055.53
629.906	10067.81
630.1	9959.27
630.294	9959.27
630.489	9729.9
630.683	9881.45
630.877	9707.37
631.071	9588.59
631.265	9809.77
631.459	9541.49
631.653	9584.49
631.848	9682.8
632.042	9496.43
632.236	9488.24
632.43	9375.6
632.624	9133.94
632.818	9338.74
633.012	9172.85
633.206	9135.99
633.4	9170.8
633.594	8968.06
633.788	9088.89
633.982	8998.77
634.176	8761.21
634.369	8890.23
634.563	8744.83
634.757	8800.12
634.951	8697.72
635.145	8763.26
635.339	8822.65
635.533	8662.91
635.726	8611.71
635.92	8605.56
636.114	8357.76
636.308	8544.13
636.501	8324.99
636.695	8415.1
636.889	8425.34
637.083	8267.65
637.276	8361.86
637.47	8177.54
637.664	8103.81
637.857	8042.37
638.051	7985.03
638.244	7948.17
638.438	8048.52
638.632	7974.79
638.825	7899.02
639.019	7829.38
639.212	7696.27
639.406	7831.43
639.599	7849.86
639.793	7501.71
639.986	7583.63
640.18	7501.71
640.373	7632.78
640.567	7491.47
640.76	7344.02
640.954	7276.43
641.147	7239.57
641.34	7284.62
641.534	7264.15
641.727	7221.14
641.92	7319.44
642.114	7131.03
642.307	7128.98
642.5	7114.64
642.694	6940.57
642.887	7047.06
643.08	7065.49
643.273	6752.15
643.467	6975.38
643.66	6834.07
643.853	6731.67
644.046	6739.87
644.239	6756.25
644.432	6664.09
644.626	6625.18
644.819	6576.03
645.012	6635.42
645.205	6559.64
645.398	6416.29
645.591	6338.46
645.784	6240.16
645.977	6301.6
646.17	6342.56
646.363	6250.4
646.556	6107.04
646.749	6324.13
646.942	6188.96
647.135	6199.2
647.328	6180.77
647.521	6094.76
647.714	5935.01
647.907	6014.88
648.099	6055.84
648.292	6061.99
648.485	5846.95
648.678	5935.01
648.871	5638.06
649.064	5787.56
649.256	5791.66
649.449	5816.23
649.642	5595.05
649.835	5586.86
650.027	5681.07
650.22	5748.65
650.413	5584.81
650.605	5535.66
650.798	5435.31
650.991	5478.32
651.183	5384.11
651.376	5431.21
651.568	5400.49
651.761	5263.28
651.954	5332.91
652.146	5304.24
652.339	5275.57
652.531	5324.72
652.724	5068.72
652.916	5099.44
653.109	5142.45
653.301	5222.32
653.494	5017.52
653.686	5078.96
653.879	5158.83
654.071	5189.55
654.263	4908.98
654.456	4902.84
654.648	4886.45
654.84	4960.18
655.033	4923.32
655.225	4790.2
655.417	4870.07
655.61	4798.39
655.802	4900.79
655.994	4753.34
656.186	4863.93
656.379	4614.07
656.571	4708.28
656.763	4792.25
656.955	4634.55
657.148	4632.51
657.34	4720.57
657.532	4624.31
657.724	4536.25
657.916	4444.09
658.108	4368.32
658.3	4302.78
658.492	4413.37
658.684	4493.24
658.876	4493.24
659.068	4421.56
659.26	4333.5
659.452	4259.78
659.644	4229.06
659.836	4251.58
660.028	4124.61
660.22	4165.57
660.412	4120.51
660.604	4167.62
660.796	4186.05
660.988	4147.14
661.18	4179.9
661.372	4108.23
661.563	4028.35
661.755	4157.38
661.947	3950.53
662.139	3866.57
662.331	4028.35
662.522	3919.81
662.714	4007.87
662.906	3909.57
663.097	3803.08
663.289	3794.89
663.481	3833.8
663.673	3659.72
663.864	3665.86
664.056	3717.06
664.247	3772.36
664.439	3590.09
664.631	3755.97
664.822	3690.44
665.014	3651.53
665.205	3694.54
665.397	3694.54
665.588	3647.43
665.78	3442.64
665.971	3583.95
666.163	3487.69
666.354	3487.69
666.546	3524.55
666.737	3381.2
666.929	3387.34
667.12	3459.02
667.311	3416.01
667.503	3426.25
667.694	3502.03
667.885	3370.96
668.077	3442.64
668.268	3299.28
668.459	3260.37
668.651	3313.61
668.842	3303.37
669.033	3305.42
669.224	3180.5
669.416	3184.59
669.607	3239.89
669.798	3160.02
669.989	3272.65
670.18	3180.5
670.371	3184.59
670.563	3076.05
670.754	3096.53
670.945	3180.5
671.136	3030.99
671.327	3127.25
671.518	2951.12
671.709	3020.75
671.9	2932.69
672.091	3121.1
672.282	2951.12
672.473	2936.79
672.664	3035.09
672.855	3022.8
673.046	3004.37
673.237	2883.54
673.428	2912.21
673.619	2893.78
673.809	3010.51
674	2865.11
674.191	3002.32
674.382	2916.31
674.573	2781.14
674.764	2861.01
674.954	2936.79
675.145	2844.63
675.336	2801.62
675.527	2795.48
675.717	2820.05
675.908	2672.6
676.099	2768.85
676.289	2731.99
676.48	2811.86
676.671	2746.33
676.861	2748.37
677.052	2736.09
677.243	2662.36
677.433	2762.71
677.624	2793.43
677.814	2750.42
678.005	2654.17
678.195	2648.02
678.386	2688.98
678.576	2779.09
678.767	2566.1
678.957	2652.12
679.148	2600.92
679.338	2607.06
679.529	2609.11
679.719	2639.83
679.909	2652.12
680.1	2586.58
680.29	2512.86
680.481	2625.5
680.671	2570.2
680.861	2621.4
681.052	2623.45
681.242	2508.76
681.432	2576.34
681.622	2486.23
681.813	2484.19
682.003	2504.67
682.193	2451.42
682.383	2519
682.573	2590.68
682.764	2426.84
682.954	2480.09
683.144	2469.85
683.334	2432.99
683.524	2564.06
683.714	2367.45
683.904	2365.4
684.094	2443.23
684.284	2525.15
684.474	2443.23
684.664	2396.12
684.854	2349.02
685.044	2402.27
685.234	2459.61
685.424	2377.69
685.614	2340.83
685.804	2426.84
685.994	2320.35
686.184	2400.22
686.374	2338.78
686.564	2365.4
686.753	2494.43
686.943	2373.6
687.133	2451.42
687.323	2424.8
687.513	2242.53
687.702	2435.03
687.892	2330.59
688.082	2248.67
688.272	2387.93
688.461	2320.35
688.651	2332.64
688.841	2398.17
689.03	2125.79
689.22	2273.25
689.41	2269.15
689.599	2181.09
689.789	2058.21
689.979	2312.16
690.168	2293.73
690.358	2236.38
690.547	2125.79
690.737	2338.78
690.926	2152.42
691.116	2250.72
691.305	2265.05
691.495	2152.42
691.684	2232.29
691.874	2215.9
692.063	2142.18
692.252	2320.35
692.442	2199.52
692.631	2058.21
692.82	2011.11
693.01	2238.43
693.199	2103.26
693.388	2156.51
693.578	2064.35
693.767	2148.32
693.956	2099.17
694.146	2193.37
694.335	2019.3
694.524	2031.59
694.713	2138.08
694.902	2166.75
695.092	2123.74
695.281	1982.43
695.47	2183.13
695.659	2011.11
695.848	2101.22
696.037	2009.06
696.226	2029.54
696.415	2025.44
696.604	1941.47
696.793	2176.99
696.982	2004.96
697.171	2045.92
697.36	2027.49
697.549	1966.05
697.738	2007.01
697.927	1972.19
698.116	2050.02
698.305	2019.3
698.494	2029.54
698.683	2086.88
698.872	1869.8
699.061	2019.3
699.25	2017.25
699.438	1996.77
699.627	1953.76
699.816	1966.05
700.005	2013.15
700.193	1980.39
700.382	1955.81
700.571	1853.41
700.76	1898.47
700.948	2019.3
701.137	1982.43
701.326	1898.47
701.514	1937.38
701.703	1912.8
701.892	1869.8
702.08	1941.47
702.269	1951.71
702.457	1869.8
702.646	1802.21
702.834	1886.18
703.023	1912.8
703.212	1984.48
703.4	1875.94
703.589	1804.26
703.777	1880.04
703.965	1855.46
704.154	1918.95
704.342	1863.65
704.531	1775.59
704.719	1814.5
704.907	1806.31
705.096	1804.26
705.284	1812.45
705.472	1859.56
705.661	1880.04
705.849	1929.19
706.037	1873.89
706.226	1765.35
706.414	1804.26
706.602	1857.51
706.79	1951.71
706.979	1765.35
707.167	1759.21
707.355	1886.18
707.543	1845.22
707.731	1683.43
707.919	1759.21
708.107	1886.18
708.296	1742.82
708.484	1789.92
708.672	1767.4
708.86	1791.97
709.048	1796.07
709.236	1738.73
709.424	1814.5
709.612	1832.93
709.8	1757.16
709.988	1722.34
710.176	1675.24
710.364	1773.54
710.551	1689.57
710.739	1726.44
710.927	1654.76
711.115	1644.52
711.303	1757.16
711.491	1705.96
711.679	1554.41
711.866	1587.18
712.054	1667.05
712.242	1677.29
712.43	1617.9
712.617	1621.99
712.805	1619.94
712.993	1726.44
713.181	1671.14
713.368	1652.71
713.556	1691.62
713.744	1673.19
713.931	1681.38
714.119	1628.14
714.306	1642.47
714.494	1677.29
714.682	1679.33
714.869	1673.19
715.057	1632.23
715.244	1583.08
715.432	1628.14
715.619	1665
715.807	1689.57
715.994	1615.85
716.182	1531.88
716.369	1710.05
716.556	1742.82
716.744	1640.42
716.931	1581.03
717.119	1511.4
717.306	1511.4
717.493	1572.84
717.681	1525.74
717.868	1458.15
718.055	1544.17
718.242	1521.64
718.43	1513.45
718.617	1617.9
718.804	1513.45
718.991	1509.35
719.179	1525.74
719.366	1525.74
719.553	1581.03
719.74	1583.08
719.927	1445.87
720.114	1443.82
720.301	1535.98
720.488	1576.94
720.676	1550.31
720.863	1449.96
721.05	1558.5
721.237	1507.31
721.424	1339.37
721.611	1423.34
721.798	1333.23
721.985	1435.63
722.172	1507.31
722.358	1454.06
722.545	1525.74
722.732	1449.96
722.919	1488.87
723.106	1511.4
723.293	1335.28
723.48	1398.76
723.667	1386.47
723.853	1378.28
724.04	1445.87
724.227	1398.76
724.414	1452.01
724.6	1507.31
724.787	1427.43
724.974	1404.91
725.161	1310.7
725.347	1460.2
725.534	1394.67
725.72	1363.95
725.907	1384.43
726.094	1394.67
726.28	1431.53
726.467	1341.42
726.653	1425.39
726.84	1411.05
727.027	1492.97
727.213	1484.78
727.4	1378.28
727.586	1472.49
727.773	1374.19
727.959	1329.13
728.145	1396.71
728.332	1286.12
728.518	1339.37
728.705	1349.61
728.891	1443.82
729.077	1329.13
729.264	1413.1
729.45	1325.04
729.636	1296.36
729.823	1361.9
730.009	1437.67
730.195	1421.29
730.382	1306.6
730.568	1394.67
730.754	1353.71
730.94	1318.89
731.126	1402.86
731.313	1300.46
731.499	1339.37
731.685	1406.95
731.871	1343.47
732.057	1304.56
732.243	1308.65
732.429	1363.95
732.615	1404.91
732.801	1363.95
732.987	1304.56
733.173	1290.22
733.359	1288.17
733.545	1282.03
733.731	1210.35
733.917	1312.75
734.103	1445.87
734.289	1322.99
734.475	1353.71
734.661	1392.62
734.847	1290.22
735.033	1331.18
735.219	1271.79
735.404	1284.08
735.59	1282.03
735.776	1296.36
735.962	1349.61
736.148	1245.17
736.333	1255.4
736.519	1251.31
736.705	1277.93
736.89	1296.36
737.076	1341.42
737.262	1230.83
737.447	1261.55
737.633	1183.73
737.819	1173.49
738.004	1243.12
738.19	1243.12
738.375	1189.87
738.561	1335.28
738.747	1230.83
738.932	1193.97
739.118	1308.65
739.303	1224.69
739.489	1228.78
739.674	1185.77
739.859	1273.84
740.045	1169.39
740.23	1206.25
740.416	1140.72
740.601	1208.3
740.786	1107.95
740.972	1169.39
741.157	1230.83
741.342	1167.34
741.528	1230.83
741.713	1107.95
741.898	1130.48
742.084	1167.34
742.269	1234.93
742.454	1181.68
742.639	1165.29
742.824	1146.86
743.01	1054.7
743.195	1282.03
743.38	1140.72
743.565	1241.07
743.75	1028.08
743.935	1185.77
744.12	1136.62
744.305	1159.15
744.49	1204.21
744.675	1144.81
744.86	1038.32
745.045	1097.71
745.23	1216.49
745.415	1126.38
745.6	1116.14
745.785	1189.87
745.97	1198.06
746.155	1058.8
746.34	1099.76
746.525	1023.98
746.71	1132.53
746.895	1011.7
747.079	1009.65
747.264	1038.32
747.449	1038.32
747.634	1009.65
747.819	1069.04
748.003	1114.1
748.188	1028.08
748.373	993.26
748.557	1066.99
748.742	958.45
748.927	1050.61
749.111	935.92
749.296	968.69
749.481	1009.65
749.665	964.59
749.85	976.88
750.034	905.2
750.219	1038.32
750.404	870.39
750.588	1038.32
750.773	919.54
750.957	911.35
751.141	970.74
751.326	829.43
751.51	978.93
751.695	831.48
751.879	837.62
752.064	837.62
752.248	962.55
752.432	858.1
752.617	847.86
752.801	849.91
752.985	847.86
753.17	772.08
753.354	882.67
753.538	935.92
753.722	829.43
753.907	833.52
754.091	878.58
754.275	911.35
754.459	870.39
754.643	864.24
754.828	905.2
755.012	751.6
755.196	831.48
755.38	765.94
755.564	817.14
755.748	743.41
755.932	815.09
756.116	862.19
756.3	794.61
756.484	784.37
756.668	819.19
756.852	665.59
757.036	745.46
757.22	708.6
757.404	765.94
757.588	665.59
757.772	722.93
757.956	747.51
758.14	731.12
758.323	815.09
758.507	757.75
758.691	710.65
758.875	679.93
759.059	714.74
759.242	598.01
759.426	657.4
759.61	704.5
759.794	636.92
759.977	731.12
760.161	722.93
760.345	647.16
760.528	602.1
760.712	681.97
760.895	651.25
761.079	690.17
761.263	653.3
761.446	641.01
761.63	643.06
761.813	604.15
761.997	563.19
762.18	616.44
762.364	657.4
762.547	708.6
762.731	538.62
762.914	677.88
763.098	604.15
763.281	460.79
763.464	655.35
763.648	585.72
763.831	567.29
764.015	628.73
764.198	583.67
764.381	593.91
764.564	610.29
764.748	561.14
764.931	618.49
765.114	657.4
765.297	538.62
765.481	622.58
765.664	643.06
765.847	520.18
766.03	610.29
766.213	540.66
766.397	634.87
766.58	583.67
766.763	587.77
766.946	573.43
767.129	520.18
767.312	507.9
767.495	559.1
767.678	561.14
767.861	536.57
768.044	579.58
768.227	567.29
768.41	495.61
768.593	618.49
768.776	526.33
768.959	614.39
769.142	491.51
769.324	495.61
769.507	561.14
769.69	555
769.873	458.75
770.056	583.67
770.239	536.57
770.421	550.9
770.604	536.57
770.787	487.42
770.97	565.24
771.152	567.29
771.335	526.33
771.518	454.65
771.7	458.75
771.883	471.03
772.066	532.47
772.248	518.14
772.431	534.52
772.613	477.18
772.796	460.79
772.978	534.52
773.161	536.57
773.343	552.95
773.526	604.15
773.708	419.83
773.891	477.18
774.073	511.99
774.256	393.21
774.438	507.9
774.621	462.84
774.803	432.12
774.985	454.65
775.168	442.36
775.35	382.97
775.532	464.89
775.715	425.98
775.897	428.03
776.079	442.36
776.261	411.64
776.444	417.79
776.626	610.29
776.808	462.84
776.99	434.17
777.173	331.77
777.355	387.07
777.537	444.41
777.719	397.31
777.901	446.46
778.083	368.63
778.265	430.07
778.447	450.55
778.629	305.15
778.811	385.02
778.993	411.64
779.175	372.73
779.357	428.03
779.539	360.44
779.721	409.59
779.903	339.96
780.085	339.96
780.267	323.58
780.449	317.44
780.631	352.25
780.812	344.06
780.994	354.3
781.176	327.68
781.358	366.59
781.54	339.96
781.721	339.96
781.903	360.44
782.085	321.53
782.267	303.1
782.448	268.28
782.63	290.81
782.812	243.71
782.993	360.44
783.175	288.76
783.357	276.48
783.538	280.57
783.72	344.06
783.901	339.96
784.083	241.66
784.264	270.33
784.446	260.09
784.627	247.8
784.809	286.72
784.99	260.09
785.172	327.68
785.353	315.39
785.535	241.66
785.716	288.76
785.897	268.28
786.079	272.38
786.26	305.15
786.441	219.13
786.623	276.48
786.804	200.7
786.985	280.57
787.167	212.99
787.348	215.04
787.529	184.32
787.71	233.47
787.891	268.28
788.073	149.5
788.254	274.43
788.435	296.96
788.616	157.69
788.797	194.56
788.978	245.76
789.159	165.89
789.34	243.71
789.522	215.04
789.703	204.8
789.884	204.8
790.065	196.61
790.246	215.04
790.427	133.12
790.607	303.1
790.788	208.89
790.969	204.8
791.15	212.99
791.331	262.14
791.512	174.08
791.693	237.56
791.874	208.89
792.054	172.03
792.235	223.23
792.416	200.7
792.597	202.75
792.778	118.78
792.958	157.69
793.139	192.51
793.32	169.98
793.5	231.42
793.681	223.23
793.862	200.7
794.042	278.52
794.223	217.08
794.404	194.56
794.584	208.89
794.765	225.28
794.945	270.33
795.126	217.08
795.306	174.08
795.487	182.27
795.667	208.89
795.848	159.74
796.028	198.65
796.209	223.23
796.389	167.93
796.57	174.08
796.75	200.7
796.93	231.42
797.111	145.41
797.291	169.98
797.471	159.74
797.652	190.46
797.832	172.03
798.012	104.45
798.192	196.61
798.373	204.8
798.553	176.13
798.733	141.31
798.913	120.83
799.093	215.04
799.274	147.45
799.454	174.08
799.634	194.56
799.814	124.93
799.994	118.78
800.174	129.02
800.354	184.32
800.534	143.36
800.714	198.65
800.894	110.59
801.074	163.84
801.254	178.17
801.434	126.97
801.614	94.21
801.794	118.78
801.974	329.72
802.154	137.21
802.334	141.31
802.514	163.84
802.693	116.73
802.873	176.13
803.053	118.78
803.233	247.8
803.413	176.13
803.592	174.08
803.772	126.97
803.952	129.02
804.131	129.02
804.311	131.07
804.491	108.54
804.67	126.97
804.85	122.88
805.03	133.12
805.209	149.5
805.389	106.49
805.568	67.58
805.748	131.07
805.928	118.78
806.107	159.74
806.287	90.11
806.466	69.63
806.646	155.65
806.825	108.54
807.004	65.54
807.184	94.21
807.363	75.77
807.543	163.84
807.722	77.82
807.901	116.73
808.081	120.83
808.26	73.73
808.439	63.49
808.619	92.16
808.798	67.58
808.977	59.39
809.156	133.12
809.336	57.34
809.515	169.98
809.694	75.77
809.873	83.97
810.052	69.63
810.231	149.5
810.411	92.16
810.59	57.34
810.769	108.54
810.948	133.12
811.127	28.67
811.306	30.72
811.485	90.11
811.664	106.49
811.843	100.35
812.022	53.25
812.201	32.77
812.38	129.02
812.559	26.62
812.737	98.3
812.916	94.21
813.095	110.59
813.274	112.64
813.453	83.97
813.632	28.67
813.811	75.77
813.989	77.82
814.168	61.44
814.347	26.62
814.526	116.73
814.704	83.97
814.883	100.35
815.062	63.49
815.24	77.82
815.419	92.16
815.598	43.01
815.776	51.2
815.955	190.46
816.133	86.01
816.312	98.3
816.49	90.11
816.669	110.59
816.847	26.62
817.026	122.88
817.204	65.54
817.383	118.78
817.561	75.77
817.74	98.3
817.918	55.3
818.097	30.72
818.275	114.69
818.453	112.64
818.632	71.68
818.81	73.73
818.988	110.59
819.167	98.3
819.345	65.54
819.523	100.35
819.701	45.06
819.879	59.39
820.058	2.05
820.236	43.01
820.414	63.49
820.592	73.73
820.77	88.06
820.948	14.34
821.127	61.44
821.305	51.2
821.483	67.58
821.661	96.25
821.839	40.96
822.017	53.25
822.195	75.77
822.373	38.91
822.551	73.73
822.729	88.06
822.907	65.54
823.085	51.2
823.262	98.3
823.44	-4.1
823.618	4.1
823.796	75.77
823.974	98.3
824.152	38.91
824.329	92.16
824.507	92.16
824.685	-4.1
824.863	14.34
825.04	20.48
825.218	81.92
825.396	-6.14
825.574	67.58
825.751	22.53
825.929	30.72
826.107	22.53
826.284	83.97
826.462	90.11
826.639	83.97
826.817	20.48
826.994	102.4
827.172	-16.38
827.349	100.35
827.527	-34.82
827.704	63.49
827.882	34.82
828.059	77.82
828.237	108.54
828.414	55.3
828.591	55.3
828.769	36.86
828.946	45.06
829.124	67.58
829.301	30.72
829.478	55.3
829.655	110.59
829.833	34.82
830.01	63.49
830.187	22.53
830.364	38.91
830.542	40.96
830.719	90.11
830.896	65.54
831.073	63.49
831.25	30.72
831.427	43.01
831.604	67.58
831.782	63.49
831.959	69.63
832.136	94.21
832.313	-22.53
832.49	36.86
832.667	61.44
832.844	22.53
833.021	24.58
833.198	100.35
833.374	40.96
833.551	2.05
833.728	47.1
833.905	34.82
834.082	40.96
834.259	43.01
834.436	59.39
834.612	22.53
834.789	28.67
834.966	28.67
835.143	47.1
835.319	57.34
835.496	79.87
835.673	59.39
835.85	83.97
836.026	-6.14
836.203	55.3
836.38	77.82
836.556	49.15
836.733	6.14
836.909	2.05
837.086	55.3
837.262	45.06
837.439	32.77
837.616	26.62
837.792	16.38
837.968	98.3
838.145	0
838.321	18.43
838.498	-6.14
838.674	26.62
838.851	94.21
839.027	53.25
839.203	96.25
839.38	26.62
839.556	67.58
839.732	67.58
839.909	10.24
840.085	67.58
840.261	-45.06
840.437	69.63
840.614	26.62
840.79	59.39
840.966	34.82
841.142	22.53
841.318	14.34
841.494	24.58
841.671	34.82
841.847	43.01
842.023	14.34
842.199	75.77
842.375	8.19
842.551	32.77
842.727	8.19
842.903	40.96
843.079	-8.19
843.255	-6.14
843.431	92.16
843.607	67.58
843.783	-16.38
843.959	8.19
844.134	-26.62
844.31	20.48
844.486	-6.14
844.662	59.39
844.838	57.34
845.013	-14.34
845.189	10.24
845.365	98.3
845.541	6.14
845.716	18.43
845.892	-20.48
846.068	-10.24
846.244	20.48
846.419	38.91
846.595	8.19
846.77	55.3
846.946	69.63
847.122	-4.1
847.297	28.67
847.473	32.77
847.648	-16.38
847.824	71.68
847.999	12.29
848.175	-4.1
848.35	-59.39
848.526	4.1
848.701	34.82
848.876	45.06
849.052	0
849.227	86.01
849.403	38.91
849.578	2.05
849.753	-4.1
849.929	61.44
850.104	0
850.279	57.34
850.454	63.49
850.63	106.49
850.805	71.68
850.98	77.82
851.155	26.62
851.33	18.43
851.505	14.34
851.681	40.96
851.856	-59.39
852.031	-6.14
852.206	4.1
852.381	-12.29
852.556	47.1
852.731	53.25
852.906	-47.1
853.081	30.72
853.256	-8.19
853.431	63.49
853.606	43.01
853.781	65.54
853.956	51.2
854.131	75.77
854.305	14.34
854.48	53.25
854.655	69.63
854.83	45.06
855.005	-18.43
855.18	28.67
855.354	22.53
855.529	-34.82
855.704	36.86
855.879	-43.01
856.053	-34.82
856.228	61.44
856.403	-16.38
856.577	75.77
856.752	10.24
856.926	32.77
857.101	45.06
857.276	28.67
857.45	65.54
857.625	-34.82
857.799	10.24
857.974	92.16
858.148	-6.14
858.323	-14.34
858.497	-16.38
858.672	20.48
858.846	2.05
859.02	47.1
859.195	53.25
859.369	59.39
859.543	34.82
859.718	71.68
859.892	-63.49
860.066	-20.48
860.241	-8.19
860.415	38.91
860.589	-6.14
860.763	10.24
860.938	-75.77
861.112	-22.53
861.286	30.72
861.46	-2.05
861.634	-59.39
861.808	-32.77
861.982	-4.1
862.157	-43.01
862.331	30.72
862.505	30.72
862.679	2.05
862.853	110.59
863.027	-4.1
863.201	69.63
863.375	-63.49
863.549	-14.34
863.722	45.06
863.896	4.1
864.07	10.24
864.244	-59.39
864.418	45.06
864.592	-4.1
864.766	-24.58
864.939	83.97
865.113	-12.29
865.287	51.2
865.461	-20.48
865.634	-32.77
865.808	71.68
865.982	-28.67
866.156	-10.24
866.329	63.49
866.503	6.14
866.676	14.34
866.85	40.96
867.024	26.62
867.197	24.58
867.371	-2.05
867.544	6.14
867.718	71.68
867.891	-34.82
868.065	32.77
868.238	-53.25
868.412	-26.62
868.585	81.92
868.759	14.34
868.932	-6.14
869.105	40.96
869.279	-36.86
869.452	-38.91
869.625	-36.86
869.799	24.58
869.972	49.15
870.145	30.72
870.319	22.53
870.492	51.2
870.665	26.62
870.838	-16.38
871.011	-57.34
871.185	118.78
871.358	-24.58
871.531	14.34
871.704	-6.14
871.877	-55.3
872.05	-30.72
872.223	14.34
872.396	59.39
872.569	-14.34
872.742	-6.14
872.915	38.91
873.088	34.82
873.261	14.34
873.434	-36.86
873.607	40.96
873.78	4.1
873.953	40.96
874.126	-36.86
874.299	4.1
874.471	-30.72
874.644	-47.1
874.817	83.97
874.99	20.48
875.163	10.24
875.335	63.49
875.508	-2.05
875.681	43.01
875.853	-18.43
876.026	12.29
876.199	38.91
876.371	45.06
876.544	16.38
876.717	47.1
876.889	16.38
877.062	26.62
877.234	-28.67
877.407	10.24
877.579	-6.14
877.752	-6.14
877.924	16.38
878.097	-22.53
878.269	2.05
878.442	28.67
878.614	8.19
878.786	22.53
878.959	-14.34
879.131	34.82
879.303	-36.86
879.476	45.06
879.648	-51.2
879.82	26.62
879.993	24.58
880.165	-18.43
880.337	-57.34
880.509	6.14
880.681	40.96
880.854	14.34
881.026	-4.1
881.198	88.06
881.37	-10.24
881.542	22.53
881.714	-36.86
881.886	-12.29
882.058	8.19
882.23	8.19
882.402	-20.48
882.574	2.05
882.746	14.34
882.918	59.39
883.09	51.2
883.262	53.25
883.434	32.77
883.606	53.25
883.778	-59.39
883.95	26.62
884.122	2.05
884.293	-20.48
884.465	-69.63
884.637	-14.34
884.809	-16.38
884.98	-104.45
885.152	45.06
885.324	22.53
885.496	-10.24
885.667	-20.48
885.839	-45.06
886.011	0
886.182	22.53
886.354	38.91
886.525	14.34
886.697	0
886.869	-6.14
887.04	26.62
887.212	-4.1
887.383	38.91
887.555	38.91
887.726	-22.53
887.897	34.82
888.069	16.38
888.24	0
888.412	2.05
888.583	34.82
888.754	-12.29
888.926	38.91
889.097	61.44
889.268	6.14
889.44	151.55
889.611	4.1
889.782	-45.06
889.953	-49.15
890.125	-55.3
890.296	73.73
890.467	18.43
890.638	-22.53
890.809	16.38
890.98	26.62
891.151	0
891.323	-40.96
891.494	-12.29
891.665	-59.39
891.836	30.72
892.007	28.67
892.178	-4.1
892.349	-53.25
892.52	4.1
892.691	24.58
892.862	43.01
893.032	-6.14
893.203	-30.72
893.374	-6.14
893.545	22.53
893.716	26.62
893.887	-14.34
894.057	-10.24
894.228	83.97
894.399	-2.05
894.57	45.06
894.74	10.24
894.911	30.72
895.082	-34.82
895.253	12.29
895.423	-8.19
895.594	6.14
895.764	28.67
895.935	-6.14
896.106	-75.77
896.276	-12.29
896.447	14.34
896.617	-14.34
896.788	-75.77
896.958	47.1
897.129	-51.2
897.299	-14.34
897.47	34.82
897.64	-8.19
897.81	-8.19
897.981	14.34
898.151	-22.53
898.322	-4.1
898.492	-20.48
898.662	-40.96
898.832	24.58
899.003	-26.62
899.173	-6.14
899.343	-26.62
899.513	-24.58
