Data from USB4F104151__11__12-58-27-660.txt Node

Date: Fri Mar 14 12:58:27 EDT 2025
User: louis
Spectrometer: USB4F10415
Trigger mode: 4
Integration Time (sec): 1.000000E-2
Scans to average: 1
Electric dark correction enabled: true
Nonlinearity correction enabled: false
Boxcar width: 0
XAxis mode: Wavelengths
Number of Pixels in Spectrum: 3648
>>>>>Begin Spectral Data<<<<<
178.204	-0.85
178.424	-0.85
178.644	-0.85
178.864	17.58
179.084	-4.95
179.304	44.2
179.524	3.24
179.744	-7
179.964	7.34
180.184	-58.2
180.404	23.72
180.624	-19.29
180.844	29.87
181.064	3.24
181.283	-33.62
181.503	-29.52
181.723	36.01
181.943	27.82
182.163	85.16
182.383	-33.62
182.602	-17.24
182.822	-9.05
183.042	-33.62
183.262	1.19
183.482	-37.72
183.701	-39.76
183.921	1.19
184.141	-21.33
184.361	21.67
184.58	-7
184.8	97.45
185.02	38.06
185.239	15.53
185.459	40.11
185.679	68.78
185.898	9.39
186.118	5.29
186.338	42.15
186.557	40.11
186.777	3.24
186.997	-45.91
187.216	-25.43
187.436	-7
187.655	58.54
187.875	48.3
188.095	-21.33
188.314	15.53
188.534	58.54
188.753	25.77
188.973	40.11
189.192	23.72
189.412	15.53
189.631	48.3
189.851	7.34
190.07	56.49
190.29	25.77
190.509	-50
190.729	-52.05
190.948	23.72
191.168	93.35
191.387	70.83
191.607	36.01
191.826	72.87
192.045	5.29
192.265	56.49
192.484	15.53
192.704	15.53
192.923	5.29
193.142	76.97
193.362	60.59
193.581	3.24
193.8	27.82
194.02	81.07
194.239	11.43
194.458	19.63
194.678	70.83
194.897	60.59
195.116	13.48
195.335	-21.33
195.555	81.07
195.774	42.15
195.993	81.07
196.212	33.96
196.432	17.58
196.651	25.77
196.87	3.24
197.089	76.97
197.308	46.25
197.528	-15.19
197.747	19.63
197.966	27.82
198.185	31.91
198.404	99.5
198.623	103.59
198.842	27.82
199.062	13.48
199.281	19.63
199.5	52.39
199.719	42.15
199.938	23.72
200.157	-11.09
200.376	-11.09
200.595	42.15
200.814	-17.24
201.033	31.91
201.252	3.24
201.471	76.97
201.69	17.58
201.909	33.96
202.128	25.77
202.347	54.44
202.566	-56.15
202.785	25.77
203.004	-19.29
203.223	130.22
203.442	48.3
203.661	31.91
203.879	36.01
204.098	91.31
204.317	-4.95
204.536	5.29
204.755	-31.57
204.974	85.16
205.193	-17.24
205.411	27.82
205.63	48.3
205.849	23.72
206.068	111.78
206.287	17.58
206.505	40.11
206.724	15.53
206.943	19.63
207.162	68.78
207.381	95.4
207.599	23.72
207.818	81.07
208.037	-13.14
208.255	33.96
208.474	-41.81
208.693	-9.05
208.911	62.63
209.13	46.25
209.349	31.91
209.567	79.02
209.786	-15.19
210.005	44.2
210.223	36.01
210.442	83.11
210.661	44.2
210.879	48.3
211.098	25.77
211.316	7.34
211.535	17.58
211.753	76.97
211.972	56.49
212.191	-0.85
212.409	9.39
212.628	25.77
212.846	-0.85
213.065	15.53
213.283	109.74
213.502	38.06
213.72	21.67
213.938	93.35
214.157	46.25
214.375	76.97
214.594	25.77
214.812	1.19
215.031	27.82
215.249	48.3
215.467	115.88
215.686	38.06
215.904	97.45
216.122	-31.57
216.341	70.83
216.559	-25.43
216.778	58.54
216.996	48.3
217.214	52.39
217.432	42.15
217.651	33.96
217.869	1.19
218.087	74.92
218.306	13.48
218.524	44.2
218.742	-4.95
218.96	-7
219.179	5.29
219.397	29.87
219.615	-4.95
219.833	17.58
220.051	-19.29
220.27	50.35
220.488	60.59
220.706	56.49
220.924	21.67
221.142	3.24
221.36	42.15
221.578	9.39
221.796	113.83
222.015	60.59
222.233	72.87
222.451	60.59
222.669	-4.95
222.887	62.63
223.105	11.43
223.323	76.97
223.541	62.63
223.759	115.88
223.977	58.54
224.195	42.15
224.413	83.11
224.631	62.63
224.849	-29.52
225.067	54.44
225.285	-7
225.503	-21.33
225.721	56.49
225.939	-4.95
226.157	25.77
226.375	17.58
226.592	13.48
226.81	23.72
227.028	17.58
227.246	70.83
227.464	64.68
227.682	9.39
227.9	-13.14
228.117	44.2
228.335	3.24
228.553	17.58
228.771	3.24
228.989	27.82
229.206	-9.05
229.424	62.63
229.642	46.25
229.86	40.11
230.077	72.87
230.295	31.91
230.513	36.01
230.731	52.39
230.948	46.25
231.166	44.2
231.384	52.39
231.601	36.01
231.819	46.25
232.037	-17.24
232.254	11.43
232.472	-9.05
232.689	1.19
232.907	60.59
233.125	3.24
233.342	56.49
233.56	50.35
233.777	19.63
233.995	-15.19
234.213	-23.38
234.43	19.63
234.648	42.15
234.865	-25.43
235.083	81.07
235.3	33.96
235.518	25.77
235.735	68.78
235.953	52.39
236.17	38.06
236.388	40.11
236.605	-15.19
236.822	36.01
237.04	48.3
237.257	60.59
237.475	25.77
237.692	29.87
237.909	31.91
238.127	72.87
238.344	19.63
238.562	46.25
238.779	52.39
238.996	17.58
239.214	40.11
239.431	33.96
239.648	66.73
239.865	52.39
240.083	31.91
240.3	17.58
240.517	23.72
240.735	64.68
240.952	-4.95
241.169	38.06
241.386	56.49
241.603	60.59
241.821	33.96
242.038	23.72
242.255	33.96
242.472	23.72
242.689	11.43
242.907	31.91
243.124	42.15
243.341	9.39
243.558	66.73
243.775	42.15
243.992	42.15
244.209	48.3
244.426	36.01
244.643	15.53
244.86	50.35
245.078	-0.85
245.295	50.35
245.512	62.63
245.729	44.2
245.946	70.83
246.163	62.63
246.38	13.48
246.597	5.29
246.814	-13.14
247.031	79.02
247.248	25.77
247.464	40.11
247.681	38.06
247.898	52.39
248.115	64.68
248.332	85.16
248.549	13.48
248.766	44.2
248.983	-0.85
249.2	72.87
249.417	115.88
249.633	31.91
249.85	44.2
250.067	40.11
250.284	81.07
250.501	36.01
250.717	36.01
250.934	21.67
251.151	5.29
251.368	36.01
251.585	36.01
251.801	25.77
252.018	25.77
252.235	52.39
252.451	89.26
252.668	-4.95
252.885	62.63
253.102	15.53
253.318	29.87
253.535	-31.57
253.752	-0.85
253.968	7.34
254.185	1.19
254.401	7.34
254.618	76.97
254.835	46.25
255.051	74.92
255.268	31.91
255.484	48.3
255.701	91.31
255.917	95.4
256.134	48.3
256.351	74.92
256.567	13.48
256.784	64.68
257	23.72
257.217	-33.62
257.433	-13.14
257.65	54.44
257.866	56.49
258.082	72.87
258.299	38.06
258.515	70.83
258.732	27.82
258.948	15.53
259.165	-15.19
259.381	83.11
259.597	60.59
259.814	-17.24
260.03	13.48
260.246	23.72
260.463	81.07
260.679	62.63
260.895	74.92
261.112	-37.72
261.328	93.35
261.544	126.12
261.761	-9.05
261.977	-25.43
262.193	-2.9
262.409	9.39
262.626	79.02
262.842	1.19
263.058	9.39
263.274	17.58
263.49	31.91
263.707	40.11
263.923	46.25
264.139	-62.29
264.355	-7
264.571	42.15
264.787	11.43
265.004	48.3
265.22	46.25
265.436	62.63
265.652	52.39
265.868	29.87
266.084	7.34
266.3	23.72
266.516	42.15
266.732	-15.19
266.948	48.3
267.164	97.45
267.38	48.3
267.596	-39.76
267.812	85.16
268.028	62.63
268.244	11.43
268.46	9.39
268.676	-15.19
268.892	44.2
269.108	-4.95
269.324	7.34
269.54	11.43
269.756	76.97
269.972	48.3
270.188	-37.72
270.403	5.29
270.619	66.73
270.835	7.34
271.051	31.91
271.267	36.01
271.483	36.01
271.698	29.87
271.914	48.3
272.13	60.59
272.346	109.74
272.562	66.73
272.777	54.44
272.993	33.96
273.209	1.19
273.425	60.59
273.64	27.82
273.856	74.92
274.072	36.01
274.287	-11.09
274.503	81.07
274.719	60.59
274.934	85.16
275.15	27.82
275.366	-15.19
275.581	54.44
275.797	-39.76
276.012	-9.05
276.228	56.49
276.444	122.02
276.659	50.35
276.875	33.96
277.09	85.16
277.306	85.16
277.521	33.96
277.737	3.24
277.952	117.93
278.168	15.53
278.383	113.83
278.599	-19.29
278.814	13.48
279.03	85.16
279.245	56.49
279.461	33.96
279.676	11.43
279.892	62.63
280.107	46.25
280.322	66.73
280.538	5.29
280.753	44.2
280.969	44.2
281.184	68.78
281.399	58.54
281.615	40.11
281.83	56.49
282.045	58.54
282.26	56.49
282.476	13.48
282.691	40.11
282.906	31.91
283.122	64.68
283.337	79.02
283.552	31.91
283.767	56.49
283.983	21.67
284.198	85.16
284.413	97.45
284.628	62.63
284.843	60.59
285.058	-11.09
285.274	48.3
285.489	31.91
285.704	-2.9
285.919	-58.2
286.134	36.01
286.349	-17.24
286.564	48.3
286.779	7.34
286.995	17.58
287.21	36.01
287.425	7.34
287.64	29.87
287.855	44.2
288.07	38.06
288.285	-4.95
288.5	81.07
288.715	85.16
288.93	97.45
289.145	-0.85
289.36	7.34
289.575	83.11
289.79	74.92
290.004	72.87
290.219	-29.52
290.434	-97.11
290.649	11.43
290.864	-0.85
291.079	48.3
291.294	36.01
291.509	31.91
291.724	31.91
291.938	-35.67
292.153	76.97
292.368	-25.43
292.583	105.64
292.798	58.54
293.012	-41.81
293.227	29.87
293.442	21.67
293.657	-35.67
293.871	19.63
294.086	9.39
294.301	56.49
294.516	-13.14
294.73	3.24
294.945	36.01
295.16	97.45
295.374	21.67
295.589	44.2
295.804	70.83
296.018	-9.05
296.233	-4.95
296.447	105.64
296.662	76.97
296.877	60.59
297.091	58.54
297.306	52.39
297.52	62.63
297.735	21.67
297.949	56.49
298.164	21.67
298.378	-47.96
298.593	40.11
298.807	5.29
299.022	38.06
299.236	38.06
299.451	27.82
299.665	36.01
299.88	15.53
300.094	13.48
300.309	-4.95
300.523	85.16
300.737	31.91
300.952	64.68
301.166	-13.14
301.381	-7
301.595	11.43
301.809	76.97
302.024	62.63
302.238	15.53
302.452	66.73
302.667	54.44
302.881	89.26
303.095	1.19
303.309	62.63
303.524	25.77
303.738	15.53
303.952	17.58
304.166	91.31
304.381	-17.24
304.595	27.82
304.809	21.67
305.023	109.74
305.237	72.87
305.452	56.49
305.666	62.63
305.88	21.67
306.094	40.11
306.308	17.58
306.522	36.01
306.736	25.77
306.95	81.07
307.164	40.11
307.379	-25.43
307.593	81.07
307.807	1.19
308.021	3.24
308.235	81.07
308.449	-33.62
308.663	105.64
308.877	91.31
309.091	-7
309.305	36.01
309.519	-33.62
309.733	11.43
309.947	38.06
310.161	109.74
310.374	13.48
310.588	48.3
310.802	-41.81
311.016	-9.05
311.23	29.87
311.444	29.87
311.658	40.11
311.872	9.39
312.085	52.39
312.299	50.35
312.513	33.96
312.727	99.5
312.941	60.59
313.154	42.15
313.368	27.82
313.582	74.92
313.796	-4.95
314.009	36.01
314.223	11.43
314.437	97.45
314.651	-7
314.864	58.54
315.078	29.87
315.292	17.58
315.505	23.72
315.719	9.39
315.933	42.15
316.146	38.06
316.36	-17.24
316.573	-0.85
316.787	33.96
317.001	91.31
317.214	48.3
317.428	-9.05
317.641	66.73
317.855	-19.29
318.068	50.35
318.282	-0.85
318.495	36.01
318.709	-19.29
318.922	15.53
319.136	107.69
319.349	46.25
319.563	87.21
319.776	101.55
319.99	31.91
320.203	40.11
320.417	-45.91
320.63	76.97
320.843	105.64
321.057	21.67
321.27	58.54
321.483	48.3
321.697	107.69
321.91	-2.9
322.124	58.54
322.337	126.12
322.55	29.87
322.763	23.72
322.977	50.35
323.19	36.01
323.403	19.63
323.617	91.31
323.83	50.35
324.043	13.48
324.256	31.91
324.469	54.44
324.683	85.16
324.896	-29.52
325.109	56.49
325.322	46.25
325.535	52.39
325.748	-0.85
325.962	3.24
326.175	25.77
326.388	23.72
326.601	91.31
326.814	-31.57
327.027	46.25
327.24	93.35
327.453	36.01
327.666	-25.43
327.879	56.49
328.092	33.96
328.305	-0.85
328.518	111.78
328.731	-47.96
328.944	81.07
329.157	44.2
329.37	11.43
329.583	85.16
329.796	-52.05
330.009	42.15
330.222	29.87
330.435	99.5
330.648	19.63
330.861	62.63
331.073	11.43
331.286	68.78
331.499	44.2
331.712	38.06
331.925	13.48
332.138	48.3
332.35	68.78
332.563	11.43
332.776	-29.52
332.989	-13.14
333.202	60.59
333.414	46.25
333.627	113.83
333.84	36.01
334.053	27.82
334.265	62.63
334.478	89.26
334.691	23.72
334.903	48.3
335.116	-21.33
335.329	31.91
335.541	-27.48
335.754	85.16
335.966	64.68
336.179	42.15
336.392	91.31
336.604	-66.39
336.817	66.73
337.029	36.01
337.242	-52.05
337.454	111.78
337.667	-9.05
337.88	33.96
338.092	58.54
338.305	119.98
338.517	-11.09
338.729	83.11
338.942	38.06
339.154	85.16
339.367	9.39
339.579	66.73
339.792	27.82
340.004	25.77
340.217	40.11
340.429	-15.19
340.641	17.58
340.854	66.73
341.066	44.2
341.278	68.78
341.491	33.96
341.703	29.87
341.915	60.59
342.128	64.68
342.34	48.3
342.552	93.35
342.764	7.34
342.977	81.07
343.189	-9.05
343.401	48.3
343.613	33.96
343.826	81.07
344.038	33.96
344.25	25.77
344.462	58.54
344.674	-4.95
344.886	44.2
345.099	64.68
345.311	-21.33
345.523	87.21
345.735	40.11
345.947	83.11
346.159	-25.43
346.371	97.45
346.583	52.39
346.795	70.83
347.007	66.73
347.219	27.82
347.431	66.73
347.643	89.26
347.855	25.77
348.067	17.58
348.279	13.48
348.491	31.91
348.703	-11.09
348.915	13.48
349.127	52.39
349.339	15.53
349.551	23.72
349.763	56.49
349.975	56.49
350.187	-4.95
350.399	13.48
350.61	33.96
350.822	7.34
351.034	66.73
351.246	27.82
351.458	83.11
351.669	-29.52
351.881	130.22
352.093	42.15
352.305	23.72
352.517	58.54
352.728	50.35
352.94	33.96
353.152	64.68
353.363	9.39
353.575	81.07
353.787	19.63
353.999	50.35
354.21	40.11
354.422	64.68
354.633	31.91
354.845	64.68
355.057	-31.57
355.268	52.39
355.48	87.21
355.692	56.49
355.903	48.3
356.115	64.68
356.326	-13.14
356.538	-11.09
356.749	44.2
356.961	42.15
357.172	60.59
357.384	27.82
357.595	46.25
357.807	50.35
358.018	81.07
358.23	-17.24
358.441	42.15
358.653	89.26
358.864	5.29
359.075	52.39
359.287	21.67
359.498	70.83
359.709	-4.95
359.921	66.73
360.132	17.58
360.344	40.11
360.555	-33.62
360.766	50.35
360.977	-31.57
361.189	1.19
361.4	68.78
361.611	50.35
361.823	46.25
362.034	87.21
362.245	60.59
362.456	15.53
362.667	40.11
362.879	83.11
363.09	95.4
363.301	46.25
363.512	64.68
363.723	13.48
363.935	-25.43
364.146	109.74
364.357	54.44
364.568	33.96
364.779	64.68
364.99	52.39
365.201	-27.48
365.412	72.87
365.623	3.24
365.834	36.01
366.045	64.68
366.256	72.87
366.467	46.25
366.678	38.06
366.889	-13.14
367.1	1.19
367.311	52.39
367.522	36.01
367.733	-21.33
367.944	70.83
368.155	44.2
368.366	154.79
368.577	23.72
368.788	117.93
368.999	79.02
369.209	42.15
369.42	89.26
369.631	132.26
369.842	68.78
370.053	58.54
370.264	38.06
370.474	81.07
370.685	25.77
370.896	23.72
371.107	83.11
371.317	29.87
371.528	58.54
371.739	140.46
371.95	81.07
372.16	132.26
372.371	95.4
372.582	36.01
372.792	33.96
373.003	74.92
373.214	64.68
373.424	91.31
373.635	7.34
373.846	91.31
374.056	56.49
374.267	56.49
374.477	76.97
374.688	-9.05
374.898	17.58
375.109	109.74
375.319	25.77
375.53	15.53
375.74	54.44
375.951	11.43
376.161	56.49
376.372	70.83
376.582	60.59
376.793	156.84
377.003	25.77
377.214	29.87
377.424	62.63
377.635	25.77
377.845	33.96
378.055	15.53
378.266	154.79
378.476	33.96
378.686	-13.14
378.897	31.91
379.107	-7
379.317	13.48
379.528	19.63
379.738	33.96
379.948	9.39
380.158	76.97
380.369	83.11
380.579	64.68
380.789	23.72
380.999	87.21
381.21	89.26
381.42	171.18
381.63	99.5
381.84	81.07
382.05	29.87
382.261	95.4
382.471	-7
382.681	42.15
382.891	54.44
383.101	48.3
383.311	25.77
383.521	-9.05
383.731	44.2
383.941	52.39
384.151	101.55
384.361	68.78
384.571	40.11
384.781	76.97
384.991	99.5
385.201	-31.57
385.411	56.49
385.621	7.34
385.831	64.68
386.041	89.26
386.251	48.3
386.461	7.34
386.671	56.49
386.881	83.11
387.091	48.3
387.301	-9.05
387.511	97.45
387.72	70.83
387.93	-2.9
388.14	99.5
388.35	11.43
388.56	115.88
388.769	25.77
388.979	-21.33
389.189	44.2
389.399	81.07
389.609	1.19
389.818	46.25
390.028	15.53
390.238	31.91
390.447	76.97
390.657	79.02
390.867	68.78
391.076	40.11
391.286	101.55
391.496	44.2
391.705	44.2
391.915	-23.38
392.125	76.97
392.334	50.35
392.544	60.59
392.753	117.93
392.963	40.11
393.172	95.4
393.382	38.06
393.591	148.65
393.801	126.12
394.01	97.45
394.22	54.44
394.429	42.15
394.639	50.35
394.848	46.25
395.058	54.44
395.267	85.16
395.477	89.26
395.686	36.01
395.895	93.35
396.105	-9.05
396.314	58.54
396.524	62.63
396.733	42.15
396.942	72.87
397.152	62.63
397.361	58.54
397.57	79.02
397.78	56.49
397.989	95.4
398.198	72.87
398.407	87.21
398.617	62.63
398.826	87.21
399.035	122.02
399.244	97.45
399.453	154.79
399.663	97.45
399.872	85.16
400.081	91.31
400.29	81.07
400.499	72.87
400.708	91.31
400.917	27.82
401.127	99.5
401.336	72.87
401.545	79.02
401.754	40.11
401.963	31.91
402.172	70.83
402.381	81.07
402.59	89.26
402.799	95.4
403.008	113.83
403.217	66.73
403.426	50.35
403.635	171.18
403.844	87.21
404.053	138.41
404.262	111.78
404.471	142.5
404.68	111.78
404.888	76.97
405.097	103.59
405.306	126.12
405.515	132.26
405.724	101.55
405.933	111.78
406.142	124.07
406.35	101.55
406.559	54.44
406.768	113.83
406.977	134.31
407.185	107.69
407.394	126.12
407.603	81.07
407.812	150.7
408.02	257.19
408.229	167.08
408.438	203.94
408.646	152.74
408.855	160.94
409.064	220.33
409.272	128.17
409.481	124.07
409.69	181.42
409.898	218.28
410.107	218.28
410.315	228.52
410.524	234.66
410.733	246.95
410.941	292.01
411.15	203.94
411.358	253.09
411.567	253.09
411.775	236.71
411.984	302.25
412.192	246.95
412.401	244.9
412.609	285.86
412.818	300.2
413.026	271.53
413.234	341.16
413.443	304.29
413.651	337.06
413.86	304.29
414.068	361.64
414.276	437.41
414.485	457.89
414.693	425.12
414.901	429.22
415.11	406.69
415.318	425.12
415.526	439.46
415.734	570.53
415.943	511.14
416.151	480.42
416.359	486.56
416.567	552.1
416.776	550.05
416.984	591.01
417.192	582.82
417.4	670.88
417.608	572.58
417.817	672.93
418.025	662.69
418.233	799.9
418.441	656.54
418.649	724.13
418.857	779.42
419.065	744.61
419.273	771.23
419.481	820.38
419.689	926.88
419.897	894.11
420.105	904.35
420.313	916.64
420.521	951.45
420.729	992.41
420.937	982.17
421.145	1078.43
421.353	1184.92
421.561	1148.06
421.769	1193.11
421.977	1252.5
422.185	1156.25
422.393	1408.15
422.601	1359
422.809	1262.74
423.017	1412.25
423.224	1449.11
423.432	1621.14
423.64	1471.64
423.848	1631.38
424.056	1553.55
424.263	1658
424.471	1641.62
424.679	1690.77
424.887	1830.03
425.094	1901.71
425.302	1950.86
425.51	2020.49
425.718	2000.01
425.925	2190.47
426.133	2190.47
426.341	2221.19
426.548	2360.45
426.756	2272.39
426.964	2419.85
427.171	2536.58
427.379	2503.81
427.586	2710.66
427.794	2712.71
428.001	2729.09
428.209	2876.54
428.417	2993.28
428.624	3079.29
428.832	3177.59
429.039	3079.29
429.247	3114.11
429.454	3341.43
429.662	3609.72
429.869	3411.06
430.076	3593.33
430.284	3611.76
430.491	3640.44
430.699	3857.52
430.906	3867.76
431.114	3921.01
431.321	4101.23
431.528	4293.74
431.736	4490.34
431.943	4680.8
432.15	4523.11
432.358	4545.64
432.565	4818.02
432.772	4719.71
432.979	5123.16
433.187	5141.6
433.394	5127.26
433.601	5504.09
433.808	5383.26
434.016	5467.22
434.223	5614.68
434.43	6026.32
434.637	5852.24
434.844	6151.24
435.052	6315.08
435.259	6401.1
435.466	6491.21
435.673	6376.52
435.88	6960.19
436.087	7109.69
436.294	7142.46
436.501	7021.63
436.708	7103.55
436.915	7359.55
437.122	7650.36
437.329	7662.65
437.537	7769.14
437.743	7953.46
437.95	8047.66
438.157	8354.86
438.364	8707.11
438.571	8774.69
438.778	8762.4
438.985	9468.95
439.192	9135.14
439.399	9425.95
439.606	9233.44
439.813	9667.61
440.02	10439.69
440.227	10333.2
440.433	10224.65
440.64	10474.51
440.847	10368.01
441.054	10722.31
441.261	11346.94
441.467	11222.02
441.674	11422.72
441.881	11895.8
442.088	11762.68
442.294	11715.58
442.501	12041.2
442.708	12221.42
442.914	12770.28
443.121	13431.77
443.328	13005.8
443.534	14099.41
443.741	13573.08
443.948	13448.16
444.154	14285.78
444.361	14322.64
444.568	14384.08
444.774	14355.41
444.981	14408.65
445.187	14805.96
445.394	15522.75
445.6	15154.12
445.807	16911.27
446.013	16022.45
446.22	16354.23
446.426	17032.1
446.633	17146.79
446.839	17589.15
447.046	16997.29
447.252	18107.29
447.459	18168.73
447.665	18152.34
447.871	19016.58
448.078	19766.14
448.284	18799.5
448.491	19149.7
448.697	19893.12
448.903	20372.34
449.11	20601.71
449.316	20249.46
449.522	20296.56
449.728	20769.65
449.935	21203.82
450.141	21353.32
450.347	21818.21
450.553	21115.75
450.76	21381.99
450.966	22000.47
451.172	21781.34
451.378	22446.93
451.584	21883.74
451.791	22162.26
451.997	22514.52
452.203	22721.36
452.409	23065.42
452.615	22807.37
452.821	21881.69
453.027	21877.6
453.233	22834
453.44	21783.39
453.646	22461.27
453.852	22451.03
454.058	22838.09
454.264	22184.79
454.47	22473.56
454.676	22059.87
454.882	22743.89
455.088	20826.99
455.294	21111.66
455.5	21293.93
455.705	21652.32
455.911	20835.18
456.117	20222.84
456.323	20192.12
456.529	19053.45
456.735	19829.63
456.941	19555.2
457.147	19215.24
457.352	18275.22
457.558	18275.22
457.764	18371.47
457.97	17933.21
458.176	17318.82
458.381	17544.09
458.587	16896.94
458.793	17136.55
458.999	15897.53
459.204	17058.73
459.41	16495.53
459.616	15346.62
459.821	15520.7
460.027	15420.35
460.233	15129.54
460.438	14369.74
460.644	14502.86
460.85	13841.37
461.055	13546.46
461.261	13628.38
461.466	12487.66
461.672	12123.12
461.878	13265.89
462.083	12219.38
462.289	11860.98
462.494	11951.09
462.7	11473.92
462.905	11070.47
463.111	11559.93
463.316	11531.26
463.522	11062.27
463.727	11115.52
463.932	11185.15
464.138	11125.76
464.343	11072.51
464.549	10722.31
464.754	11240.45
464.959	11230.21
465.165	10851.33
465.37	10597.38
465.575	10245.13
465.781	10689.54
465.986	10619.91
466.191	10259.47
466.397	10116.11
466.602	9628.7
466.807	10103.82
467.012	10056.72
467.218	9991.19
467.423	9907.22
467.628	9690.13
467.833	10255.37
468.038	9937.94
468.244	9669.66
468.449	10052.63
468.654	9673.75
468.859	9694.23
469.064	9595.93
469.269	9327.64
469.474	9307.16
469.679	9479.19
469.885	9159.71
470.09	9401.37
470.295	9233.44
470.5	9053.22
470.705	8995.87
470.91	8762.4
471.115	8797.22
471.32	8893.47
471.525	8770.6
471.73	8657.96
471.935	8713.25
472.139	8309.8
472.344	8365.1
472.549	8279.08
472.754	8152.11
472.959	8137.77
473.164	8053.81
473.369	7889.97
473.574	8082.48
473.778	7912.5
473.983	8080.43
474.188	7867.44
474.393	7588.92
474.598	7664.69
474.802	7447.61
475.007	7650.36
475.212	7545.91
475.417	7353.4
475.621	7285.82
475.826	7224.38
476.031	7095.36
476.235	7025.73
476.44	7248.96
476.645	6956.1
476.849	6980.67
477.054	6857.79
477.259	6734.92
477.463	6952
477.668	6704.2
477.872	6706.24
478.077	6339.66
478.282	6388.81
478.486	6405.19
478.691	6337.61
478.895	6423.62
479.1	6216.78
479.304	6253.64
479.509	6089.81
479.713	6081.61
479.918	5985.36
480.122	6038.61
480.326	6224.97
480.531	6046.8
480.735	5913.68
480.94	5876.82
481.144	6114.38
481.348	6095.95
481.553	5911.63
481.757	5764.18
481.961	5831.76
482.166	5999.7
482.37	5905.49
482.574	5772.37
482.778	5862.48
482.983	5921.87
483.187	5817.43
483.391	5835.86
483.595	5704.79
483.8	5815.38
484.004	5882.96
484.208	5885.01
484.412	5839.95
484.616	5848.15
484.821	5858.39
485.025	5600.34
485.229	5803.09
485.433	5821.52
485.637	5741.65
485.841	5688.4
486.045	5827.67
486.249	6022.22
486.453	5712.98
486.657	5805.14
486.861	5846.1
487.065	5653.59
487.269	5706.84
487.473	5600.34
487.677	5948.5
487.881	5882.96
488.085	5919.82
488.289	5704.79
488.493	5852.24
488.697	5903.44
488.901	5899.34
489.105	5784.66
489.309	5856.34
489.512	5794.9
489.716	5934.16
489.92	6069.33
490.124	6022.22
490.328	5870.67
490.531	5817.43
490.735	6026.32
490.939	5860.43
491.143	5868.63
491.346	5991.5
491.55	6249.55
491.754	5993.55
491.958	6081.61
492.161	6081.61
492.365	6134.86
492.569	6165.58
492.772	6159.44
492.976	6181.96
493.18	6224.97
493.383	6339.66
493.587	6407.24
493.79	6476.87
493.994	6536.26
494.197	6458.44
494.401	6399.05
494.605	6554.69
494.808	6634.57
495.012	6648.9
495.215	6661.19
495.419	6794.31
495.622	6503.5
495.825	6790.21
496.029	6857.79
496.232	7013.44
496.436	6954.05
496.639	7124.03
496.843	7085.12
497.046	7160.89
497.249	7298.11
497.453	7191.61
497.656	7570.49
497.859	7343.16
498.063	7480.38
498.266	7750.71
498.469	7736.37
498.673	7689.27
498.876	7705.65
499.079	7865.39
499.282	8096.82
499.485	7959.6
499.689	8236.08
499.892	8117.29
500.095	8227.89
500.298	8551.46
500.501	8340.52
500.705	8645.67
500.908	8725.54
501.111	8639.53
501.314	8870.95
501.517	9094.18
501.72	9223.2
501.923	8977.44
502.126	9106.46
502.329	9575.45
502.532	9419.8
502.735	9749.53
502.938	9782.29
503.141	9802.77
503.344	9944.08
503.547	10112.02
503.75	10101.78
503.953	10152.98
504.156	10370.06
504.359	10548.23
504.562	10492.94
504.765	10853.38
504.968	10781.7
505.17	11000.83
505.373	11205.63
505.576	11351.04
505.779	11451.39
505.982	11713.53
506.185	11783.16
506.387	11867.13
506.59	11803.64
506.793	12100.59
506.996	12125.17
507.198	12303.34
507.401	12420.08
507.604	12436.46
507.807	12860.39
508.009	12674.03
508.212	12956.64
508.415	13138.91
508.617	13237.22
508.82	13374.43
509.022	13335.52
509.225	13693.91
509.428	13599.71
509.63	13958.1
509.833	14255.06
510.035	14318.54
510.238	14326.74
510.44	14558.16
510.643	14652.36
510.845	15045.57
511.048	14846.92
511.25	14994.37
511.453	15115.2
511.655	15705.02
511.858	15530.94
512.06	15576
512.262	15803.32
512.465	15926.2
512.667	16350.13
512.87	16264.11
513.072	16585.65
513.274	16708.52
513.477	16849.83
513.679	17132.45
513.881	17200.04
514.084	17255.33
514.286	17167.27
514.488	17560.48
514.69	17912.73
514.893	18189.21
515.095	18148.25
515.297	18144.15
515.499	18529.17
515.701	18678.67
515.904	19100.55
516.106	19018.63
516.308	19278.72
516.51	19602.3
516.712	19575.68
516.914	19626.88
517.116	20233.08
517.318	19948.41
517.52	20368.24
517.722	20513.65
517.925	20519.79
518.127	20808.56
518.329	20966.25
518.531	21007.21
518.733	21416.8
518.935	21842.78
519.136	21568.35
519.338	21920.6
519.54	22016.86
519.742	22319.96
519.944	22346.58
520.146	22676.3
520.348	22598.48
520.55	22940.49
520.752	22967.12
520.954	23587.65
521.155	23190.34
521.357	23853.89
521.559	23970.62
521.761	24021.82
521.963	24220.47
522.164	24118.07
522.366	24177.47
522.568	24554.29
522.77	24822.58
522.971	25049.9
523.173	25013.04
523.375	25193.26
523.576	25473.83
523.778	25154.35
523.98	25723.68
524.181	25627.43
524.383	25645.86
524.584	26106.65
524.786	26090.27
524.988	25920.29
525.189	26419.99
525.391	26764.05
525.592	26911.5
525.794	26819.35
525.995	27007.76
526.197	27058.96
526.398	26942.22
526.6	27077.39
526.801	27388.68
527.003	27394.82
527.204	27355.91
527.406	27573
527.607	27726.6
527.808	27915.01
528.01	27464.46
528.211	27742.98
528.412	28259.07
528.614	28181.24
528.815	28089.09
529.016	28480.25
529.218	27933.44
529.419	28560.12
529.62	28383.99
529.822	28388.09
530.023	28175.1
530.224	28490.49
530.425	28740.34
530.626	28617.46
530.828	28601.08
531.029	29108.97
531.23	28732.15
531.431	28627.7
531.632	28709.62
531.833	28961.52
532.035	28895.99
532.236	28818.16
532.437	29102.83
532.638	28498.68
532.839	29098.73
533.04	29084.4
533.241	28783.35
533.442	29463.27
533.643	29252.33
533.844	29358.83
534.045	29117.17
534.246	28771.06
534.447	29391.59
534.648	29377.26
534.849	29102.83
535.05	28824.31
535.251	29227.76
535.451	29393.64
535.652	29391.59
535.853	29172.46
536.054	29145.84
536.255	29289.2
536.456	29031.15
536.657	29778.66
536.857	28826.35
537.058	29135.6
537.259	29813.48
537.46	29434.6
537.66	29338.35
537.861	29057.78
538.062	29072.11
538.263	29629.16
538.463	29170.41
538.664	28990.19
538.865	29434.6
539.065	29399.79
539.266	29065.97
539.466	29453.03
539.667	28992.24
539.868	29649.64
540.068	29051.63
540.269	28793.59
540.469	29223.66
540.67	29194.99
540.87	28953.33
541.071	29180.65
541.271	29176.56
541.472	29197.04
541.672	28936.95
541.873	28918.51
542.073	28312.31
542.274	29453.03
542.474	29278.96
542.675	28830.45
542.875	29381.35
543.075	29090.54
543.276	28736.24
543.476	29289.2
543.676	29018.86
543.877	28986.1
544.077	29025.01
544.277	29164.27
544.478	28941.04
544.678	29037.3
544.878	29287.15
545.078	29119.21
545.279	28873.46
545.479	28984.05
545.679	29010.67
545.879	29162.22
546.079	29203.18
546.28	28955.38
546.48	28707.57
546.68	29086.45
546.88	28832.5
547.08	28642.04
547.28	28967.66
547.48	28769.01
547.68	28947.18
547.88	28766.96
548.081	28945.14
548.281	28889.84
548.481	28717.81
548.681	29000.43
548.881	29045.49
549.081	28461.82
549.28	28732.15
549.48	28816.11
549.68	28590.84
549.88	29197.04
550.08	28836.59
550.28	28779.25
550.48	28545.78
550.68	28773.11
550.88	28371.71
551.08	28941.04
551.279	28713.72
551.479	28658.42
551.679	28740.34
551.879	28537.59
552.079	28984.05
552.278	28527.35
552.478	28347.13
552.678	28470.01
552.878	28855.03
553.077	28336.89
553.277	28162.81
553.477	29022.96
553.676	28721.91
553.876	28510.97
554.076	28539.64
554.275	28521.21
554.475	27998.98
554.674	28560.12
554.874	28502.78
555.074	28181.24
555.273	28588.79
555.473	28328.7
555.672	28486.39
555.872	28199.68
556.071	28453.62
556.271	28500.73
556.47	28363.51
556.67	27790.08
556.869	28076.8
557.068	28091.13
557.268	27925.25
557.467	28199.68
557.667	28015.36
557.866	28496.63
558.065	27749.12
558.265	27867.91
558.464	27769.6
558.663	28205.82
558.863	27681.54
559.062	28300.03
559.261	27640.58
559.461	27525.89
559.66	27460.36
559.859	27882.24
560.058	27556.61
560.258	27833.09
560.457	27054.86
560.656	27697.92
560.855	27462.41
561.054	27691.78
561.253	27323.15
561.453	27616.01
561.652	27456.26
561.851	27730.69
562.05	27196.17
562.249	27421.45
562.448	27204.36
562.647	27269.9
562.846	27208.46
563.045	27413.26
563.244	26866.45
563.443	27337.48
563.642	26905.36
563.841	27077.39
564.04	26755.86
564.239	27046.67
564.438	26700.56
564.637	26657.56
564.836	26780.43
565.035	26698.52
565.234	26540.82
565.432	26360.6
565.631	26393.37
565.83	26473.24
566.029	26149.66
566.228	26266.39
566.427	26479.38
566.625	26219.29
566.824	25772.83
567.023	26475.29
567.222	25758.5
567.42	26104.6
567.619	25875.23
567.818	25742.11
568.016	25936.67
568.215	26194.71
568.414	25934.62
568.612	26010.4
568.811	25434.92
569.01	26037.02
569.208	25637.67
569.407	25742.11
569.605	25520.93
569.804	25592.61
570.002	24967.98
570.201	25690.91
570.4	25033.52
570.598	25287.46
570.797	25088.81
570.995	25127.72
571.193	25088.81
571.392	24992.56
571.59	25082.67
571.789	24931.12
571.987	24681.27
572.186	24734.51
572.384	24738.61
572.582	24922.93
572.781	24986.41
572.979	24316.73
573.177	24763.18
573.376	24329.02
573.574	24056.64
573.772	24304.44
573.971	24093.5
574.169	23870.27
574.367	23794.5
574.565	24015.68
574.763	23812.93
574.962	23921.47
575.16	23909.18
575.358	23903.04
575.556	23470.92
575.754	23616.32
575.952	23554.88
576.151	23688
576.349	23448.39
576.547	23665.47
576.745	23464.77
576.943	23298.89
577.141	22969.16
577.339	23489.35
577.537	23057.23
577.735	23327.56
577.933	22823.76
578.131	23100.23
578.329	22942.54
578.527	22528.85
578.725	23036.75
578.923	22776.66
579.121	22668.11
579.319	22819.66
579.516	22709.07
579.714	22469.46
579.912	22598.48
580.11	22334.29
580.308	22475.6
580.506	22281.05
580.704	22012.76
580.901	22319.96
581.099	22174.55
581.297	21977.95
581.495	21963.61
581.692	22008.67
581.89	21949.28
582.088	21863.26
582.285	21883.74
582.483	21889.88
582.681	21726.05
582.878	21697.38
583.076	21365.6
583.274	21584.74
583.471	21398.37
583.669	21568.35
583.866	21257.06
584.064	21461.86
584.262	21248.87
584.459	21314.41
584.657	21144.42
584.854	21283.69
585.052	20863.85
585.249	21037.93
585.447	21068.65
585.644	20851.56
585.841	20685.68
586.039	20831.08
586.236	20642.67
586.434	20614
586.631	20274.04
586.828	20376.44
587.026	20736.88
587.223	20458.35
587.42	20374.39
587.618	20380.53
587.815	20228.98
588.012	20030.33
588.21	20136.82
588.407	20210.55
588.604	20075.38
588.801	19958.65
588.999	20136.82
589.196	19635.07
589.393	19913.59
589.59	19620.74
589.787	19571.58
589.984	19524.48
590.182	19475.33
590.379	19618.69
590.576	19448.71
590.773	19561.34
590.97	19282.82
591.167	19356.55
591.364	19092.36
591.561	19317.64
591.758	19178.37
591.955	18940.81
592.152	19104.65
592.349	19090.31
592.546	18865.03
592.743	19266.44
592.94	18545.55
593.137	18758.54
593.334	18627.47
593.531	18588.56
593.727	18770.83
593.924	18635.66
594.121	18506.64
594.318	18504.59
594.515	18095
594.712	18467.73
594.908	18185.11
595.105	18238.36
595.302	18023.32
595.499	18131.86
595.696	18195.35
595.892	17892.25
596.089	18054.04
596.286	17927.07
596.482	18133.91
596.679	18078.61
596.876	17841.05
597.072	17470.37
597.269	17990.55
597.466	17449.89
597.662	17462.18
597.859	17367.97
598.055	17460.13
598.252	17220.52
598.448	17290.15
598.645	17255.33
598.841	17032.1
599.038	17202.08
599.234	17404.83
599.431	16944.04
599.627	16860.07
599.824	17308.58
600.02	16915.37
600.217	16972.71
600.413	16862.12
600.609	16853.93
600.806	16669.61
601.002	16692.14
601.198	16337.84
601.395	16591.79
601.591	16376.75
601.787	16421.81
601.984	16221.11
602.18	16460.72
602.376	16391.09
602.572	16227.25
602.769	16163.76
602.965	16079.8
603.161	16405.42
603.357	16227.25
603.553	16049.08
603.75	16087.99
603.946	16001.97
604.142	15844.28
604.338	15817.66
604.534	15920.06
604.73	15764.41
604.926	15518.65
605.122	15770.55
605.318	15457.21
605.514	15350.72
605.71	15446.97
605.906	15524.8
606.102	15477.69
606.298	15428.54
606.494	15408.06
606.69	15586.24
606.886	15297.47
607.082	14867.4
607.278	15309.76
607.474	15016.9
607.67	15109.06
607.866	14957.51
608.062	15117.25
608.257	15033.29
608.453	15033.29
608.649	14924.74
608.845	15045.57
609.041	14728.14
609.236	14885.83
609.432	14801.86
609.628	14916.55
609.824	14984.13
610.019	14691.27
610.215	14592.97
610.411	14857.16
610.606	14437.33
610.802	14549.96
610.998	14441.42
611.193	14580.68
611.389	14328.78
611.584	14484.43
611.78	14066.64
611.976	14361.55
612.171	14388.18
612.367	14203.86
612.562	14302.16
612.758	13982.68
612.953	14179.28
613.149	14218.19
613.344	14056.4
613.539	14408.65
613.735	14232.53
613.93	14046.16
614.126	13902.81
614.321	14130.13
614.517	14068.69
614.712	13810.65
614.907	14021.59
615.103	13943.77
615.298	13777.88
615.493	13951.96
615.688	13771.74
615.884	13949.91
616.079	13599.71
616.274	13917.14
616.47	13796.31
616.665	13689.82
616.86	13458.4
617.055	13476.83
617.25	13775.83
617.445	13523.93
617.641	13257.7
617.836	13646.81
618.031	13312.99
618.226	13267.94
618.421	13044.71
618.616	13341.66
618.811	13331.42
619.006	13157.35
619.201	13001.7
619.396	13077.48
619.591	12774.38
619.786	13016.04
619.981	12864.49
620.176	13001.7
620.371	12864.49
620.566	12766.18
620.761	12620.78
620.956	12702.7
621.151	12581.87
621.346	12377.07
621.541	12493.8
621.735	12499.95
621.93	12305.39
622.125	12379.12
622.32	12274.67
622.515	12108.79
622.709	12020.72
622.904	12162.03
623.099	11779.06
623.294	11867.13
623.488	12041.2
623.683	11940.85
623.878	11807.73
624.072	11740.15
624.267	11635.71
624.462	11662.33
624.656	11516.92
624.851	11580.41
625.046	11392
625.24	11310.08
625.435	11172.86
625.629	11099.14
625.824	11138.05
626.018	11185.15
626.213	10877.96
626.407	11002.88
626.602	10734.6
626.796	11019.27
626.991	10906.63
627.185	10804.23
627.38	10523.66
627.574	10595.34
627.768	10540.04
627.963	10482.7
628.157	10562.57
628.352	10417.16
628.546	10490.89
628.74	10214.41
628.935	10259.47
629.129	10363.92
629.323	9899.03
629.517	9921.56
629.712	10058.77
629.906	9962.51
630.1	9929.75
630.294	9751.57
630.489	9905.17
630.683	9655.32
630.877	9892.88
631.071	9837.59
631.265	9778.2
631.459	9466.91
631.653	9417.75
631.848	9585.69
632.042	9315.36
632.236	9427.99
632.43	9210.91
632.624	9296.92
632.818	9114.66
633.012	9049.12
633.206	9059.36
633.4	8987.68
633.594	8989.73
633.788	8985.63
633.982	8971.3
634.176	9096.22
634.369	8895.52
634.563	8823.84
634.757	8864.8
634.951	8578.09
635.145	8819.75
635.339	8617
635.533	8420.39
635.726	8713.25
635.92	8287.28
636.114	8703.01
636.308	8553.51
636.501	8324.14
636.695	8438.83
636.889	8289.32
637.083	8201.26
637.276	8162.35
637.47	8193.07
637.664	7978.03
637.857	8129.58
638.051	7982.13
638.244	8004.66
638.438	7982.13
638.632	7705.65
638.825	7797.81
639.019	7740.47
639.212	7865.39
639.406	7668.79
639.599	7695.41
639.793	7676.98
639.986	7482.42
640.18	7613.49
640.373	7584.82
640.567	7472.18
640.76	7371.83
640.954	7205.95
641.147	7300.16
641.34	7193.66
641.534	7066.69
641.727	7324.73
641.92	7314.49
642.114	7007.3
642.307	7158.85
642.5	6945.86
642.694	6984.77
642.887	7068.73
643.08	6978.62
643.273	6865.99
643.467	6900.8
643.66	6898.75
643.853	6730.82
644.046	6765.64
644.239	6513.74
644.432	6624.33
644.626	6458.44
644.819	6612.04
645.012	6462.54
645.205	6659.14
645.398	6534.21
645.591	6313.03
645.784	6245.45
645.977	6249.55
646.17	6446.15
646.363	6331.47
646.556	6261.84
646.749	6222.92
646.942	6212.68
647.135	6075.47
647.328	6128.72
647.521	5940.3
647.714	5971.02
647.907	6083.66
648.099	6163.53
648.292	5831.76
648.485	5833.81
648.678	5905.49
648.871	5866.58
649.064	5901.39
649.256	5934.16
649.449	5921.87
649.642	5762.13
649.835	5794.9
650.027	5624.92
650.22	5577.81
650.413	5524.57
650.605	5684.31
650.798	5401.69
650.991	5352.54
651.183	5463.13
651.376	5377.11
651.568	5418.07
651.761	5401.69
651.954	5297.24
652.146	5467.22
652.339	5407.83
652.531	5418.07
652.724	5235.8
652.916	5198.94
653.109	5133.4
653.301	5155.93
653.494	5135.45
653.686	4914.27
653.879	5217.37
654.071	5151.84
654.263	5002.33
654.456	5059.68
654.648	4906.08
654.84	5018.72
655.033	4865.12
655.225	5078.11
655.417	4879.46
655.61	4981.85
655.802	4879.46
655.994	4756.58
656.186	4854.88
656.379	4750.43
656.571	4762.72
656.763	4504.68
656.955	4723.81
657.148	4635.75
657.34	4615.27
657.532	4643.94
657.724	4652.13
657.916	4686.95
658.108	4623.46
658.3	4486.25
658.492	4342.89
658.684	4441.19
658.876	4385.9
659.068	4324.46
659.26	4371.56
659.452	4449.38
659.644	4424.81
659.836	4220.01
660.028	4340.84
660.22	4115.56
660.412	4103.28
660.604	4037.74
660.796	4074.6
660.988	4058.22
661.18	4164.72
661.372	4105.32
661.563	4068.46
661.755	3968.11
661.947	4021.36
662.139	3982.45
662.331	3884.14
662.522	3859.57
662.714	3873.9
662.906	3900.53
663.097	3841.14
663.289	3834.99
663.481	3808.37
663.673	3843.18
663.864	3789.94
664.056	3650.67
664.247	3748.98
664.439	3677.3
664.631	3673.2
664.822	3759.22
665.014	3607.67
665.205	3771.51
665.397	3570.8
665.588	3689.59
665.78	3490.93
665.971	3507.32
666.163	3609.72
666.354	3540.08
666.546	3599.48
666.737	3396.73
666.929	3423.35
667.12	3456.12
667.311	3478.65
667.503	3402.87
667.694	3449.97
667.885	3316.86
668.077	3327.1
668.268	3302.52
668.459	3382.39
668.651	3357.82
668.842	3261.56
669.033	3284.09
669.224	3157.11
669.416	3273.85
669.607	3247.23
669.798	3259.51
669.989	3245.18
670.18	3245.18
670.371	3163.26
670.563	3255.42
670.754	3130.49
670.945	3099.77
671.136	3099.77
671.327	3216.51
671.518	3064.96
671.709	3042.43
671.9	3011.71
672.091	3021.95
672.282	3079.29
672.473	3034.24
672.664	3128.44
672.855	3009.66
673.046	2919.55
673.237	2962.56
673.428	3048.57
673.619	2972.8
673.809	2874.49
674	3024
674.191	3046.52
674.382	2894.97
674.573	2892.93
674.764	2829.44
674.954	3021.95
675.145	2798.72
675.336	2847.87
675.527	2868.35
675.717	2890.88
675.908	2890.88
676.099	2825.34
676.289	2829.44
676.48	2897.02
676.671	2862.21
676.861	2933.89
677.052	2780.29
677.243	2722.95
677.433	2704.51
677.624	2704.51
677.814	2714.75
678.005	2710.66
678.195	2677.89
678.386	2694.27
678.576	2606.21
678.767	2690.18
678.957	2739.33
679.148	2724.99
679.338	2612.35
679.529	2614.4
679.719	2636.93
679.909	2624.64
680.1	2563.2
680.29	2569.35
680.481	2618.5
680.671	2665.6
680.861	2591.88
681.052	2583.68
681.242	2598.02
681.432	2612.35
681.622	2462.85
681.813	2538.63
682.003	2507.91
682.193	2575.49
682.383	2546.82
682.573	2557.06
682.764	2526.34
682.954	2469
683.144	2538.63
683.334	2489.48
683.524	2620.55
683.714	2421.89
683.904	2612.35
684.094	2550.92
684.284	2464.9
684.474	2489.48
684.664	2526.34
684.854	2520.2
685.044	2495.62
685.234	2493.57
685.424	2385.03
685.614	2507.91
685.804	2415.75
685.994	2481.28
686.184	2319.5
686.374	2473.09
686.564	2499.72
686.753	2311.3
686.943	2339.97
687.133	2362.5
687.323	2305.16
687.513	2348.17
687.702	2389.13
687.892	2442.37
688.082	2346.12
688.272	2391.17
688.461	2249.86
688.651	2415.75
688.841	2278.54
689.03	2395.27
689.22	2393.22
689.41	2344.07
689.599	2161.8
689.789	2309.26
689.979	2342.02
690.168	2284.68
690.358	2206.86
690.547	2337.93
690.737	2315.4
690.926	2239.62
691.116	2268.3
691.305	2356.36
691.495	2239.62
691.684	2163.85
691.874	2286.73
692.063	2288.78
692.252	2137.23
692.442	2278.54
692.631	2110.6
692.82	2155.66
693.01	2143.37
693.199	2188.43
693.388	2124.94
693.578	2051.21
693.767	2098.31
693.956	2059.4
694.146	2059.4
694.335	2120.84
694.524	2165.9
694.713	2235.53
694.902	2153.61
695.092	2106.51
695.281	2026.64
695.47	2079.88
695.659	2086.03
695.848	2088.07
696.037	2040.97
696.226	2106.51
696.415	1961.1
696.604	2075.79
696.793	2079.88
696.982	2124.94
697.171	2038.92
697.36	2022.54
697.549	2077.83
697.738	2055.31
697.927	2016.4
698.116	2090.12
698.305	1979.53
698.494	2028.68
698.683	2008.2
698.872	2118.79
699.061	1983.63
699.25	1946.76
699.438	2032.78
699.627	2018.44
699.816	2022.54
700.005	2038.92
700.193	2036.88
700.382	1922.19
700.571	2028.68
700.76	1952.91
700.948	1932.43
701.137	1907.85
701.326	1897.61
701.514	2043.02
701.703	1877.13
701.892	1952.91
702.08	1963.15
702.269	1920.14
702.457	1866.89
702.646	1911.95
702.834	1850.51
703.023	1940.62
703.212	1983.63
703.4	1959.05
703.589	1875.09
703.777	1930.38
703.965	1825.93
704.154	1815.69
704.342	1870.99
704.531	1899.66
704.719	1793.17
704.907	1993.87
705.096	1877.13
705.284	1885.33
705.472	1907.85
705.661	1821.84
705.849	1873.04
706.037	1827.98
706.226	1858.7
706.414	1784.98
706.602	1846.41
706.79	1801.36
706.979	1836.17
707.167	1895.57
707.355	1832.08
707.543	1793.17
707.731	1797.26
707.919	1848.46
708.107	1784.98
708.296	1715.34
708.484	1698.96
708.672	1750.16
708.86	1774.74
709.048	1784.98
709.236	1825.93
709.424	1821.84
709.612	1772.69
709.8	1670.29
709.988	1678.48
710.176	1643.67
710.364	1735.82
710.551	1756.3
710.739	1766.54
710.927	1744.02
711.115	1676.43
711.303	1631.38
711.491	1770.64
711.679	1643.67
711.866	1625.23
712.054	1690.77
712.242	1725.58
712.43	1627.28
712.617	1653.91
712.805	1649.81
712.993	1666.19
713.181	1604.75
713.368	1703.06
713.556	1709.2
713.744	1666.19
713.931	1639.57
714.119	1762.45
714.306	1655.95
714.494	1703.06
714.682	1688.72
714.869	1635.47
715.057	1653.91
715.244	1713.3
715.432	1635.47
715.619	1643.67
715.807	1662.1
715.994	1578.13
716.182	1645.71
716.369	1567.89
716.556	1610.9
716.744	1629.33
716.931	1551.51
717.119	1520.79
717.306	1621.14
717.493	1666.19
717.681	1594.51
717.868	1621.14
718.055	1684.62
718.242	1569.94
718.43	1533.08
718.617	1649.81
718.804	1627.28
718.991	1563.79
719.179	1563.79
719.366	1492.12
719.553	1629.33
719.74	1463.44
719.927	1522.84
720.114	1565.84
720.301	1594.51
720.488	1498.26
720.676	1516.69
720.863	1461.4
721.05	1565.84
721.237	1551.51
721.424	1590.42
721.611	1565.84
721.798	1465.49
721.985	1449.11
722.172	1473.68
722.358	1555.6
722.545	1457.3
722.732	1442.96
722.919	1463.44
723.106	1432.72
723.293	1512.6
723.48	1508.5
723.667	1408.15
723.853	1512.6
724.04	1432.72
724.227	1533.08
724.414	1467.54
724.6	1555.6
724.787	1461.4
724.974	1471.64
725.161	1395.86
725.347	1424.53
725.534	1426.58
725.72	1442.96
725.907	1404.05
726.094	1475.73
726.28	1467.54
726.467	1510.55
726.653	1494.16
726.84	1447.06
727.027	1391.77
727.213	1414.29
727.4	1375.38
727.586	1383.57
727.773	1430.68
727.959	1410.2
728.145	1465.49
728.332	1397.91
728.518	1447.06
728.705	1391.77
728.891	1381.53
729.077	1494.16
729.264	1459.35
729.45	1397.91
729.636	1311.89
729.823	1428.63
730.009	1494.16
730.195	1320.09
730.382	1373.33
730.568	1416.34
730.754	1393.81
730.94	1346.71
731.126	1420.44
731.313	1330.33
731.499	1307.8
731.685	1389.72
731.871	1369.24
732.057	1408.15
732.243	1377.43
732.429	1313.94
732.615	1315.99
732.801	1359
732.987	1373.33
733.173	1365.14
733.359	1322.13
733.545	1311.89
733.731	1356.95
733.917	1309.85
734.103	1307.8
734.289	1410.2
734.475	1211.54
734.661	1359
734.847	1246.36
735.033	1354.9
735.219	1377.43
735.404	1332.37
735.59	1283.22
735.776	1262.74
735.962	1332.37
736.148	1369.24
736.333	1371.29
736.519	1324.18
736.705	1281.18
736.89	1381.53
737.076	1272.98
737.262	1346.71
737.447	1344.66
737.633	1307.8
737.819	1281.18
738.004	1254.55
738.19	1309.85
738.375	1225.88
738.561	1330.33
738.747	1346.71
738.932	1234.07
739.118	1172.63
739.303	1262.74
739.489	1283.22
739.674	1217.69
739.859	1221.78
740.045	1234.07
740.23	1309.85
740.416	1223.83
740.601	1252.5
740.786	1342.61
740.972	1203.35
741.157	1213.59
741.342	1195.16
741.528	1227.93
741.713	1260.7
741.898	1234.07
742.084	1223.83
742.269	1094.81
742.454	1221.78
742.639	1268.89
742.824	1191.06
743.01	1182.87
743.195	1277.08
743.38	1172.63
743.565	1205.4
743.75	1154.2
743.935	1070.23
744.12	1139.87
744.305	1092.76
744.49	1131.67
744.675	1195.16
744.86	1135.77
745.045	1133.72
745.23	1172.63
745.415	1135.77
745.6	1186.97
745.785	1111.19
745.97	1125.53
746.155	1096.86
746.34	1180.82
746.525	1164.44
746.71	1123.48
746.895	1092.76
747.079	1100.95
747.264	984.22
747.449	1029.27
747.634	1166.49
747.819	1045.66
748.003	1131.67
748.188	1059.99
748.373	1039.51
748.557	1064.09
748.742	1025.18
748.927	963.74
749.111	1016.99
749.296	963.74
749.481	933.02
749.665	1057.95
749.85	1006.75
750.034	1010.84
750.219	969.88
750.404	955.55
750.588	996.51
750.773	939.16
750.957	963.74
751.141	967.84
751.326	945.31
751.51	918.68
751.695	967.84
751.879	1010.84
752.064	1023.13
752.248	1019.04
752.432	941.21
752.617	986.27
752.801	996.51
752.985	941.21
753.17	887.97
753.354	902.3
753.538	924.83
753.722	951.45
753.907	902.3
754.091	908.44
754.275	859.29
754.459	967.84
754.643	756.9
754.828	857.25
755.012	826.53
755.196	863.39
755.38	892.06
755.564	797.85
755.748	844.96
755.932	834.72
756.116	871.58
756.3	734.37
756.484	705.7
756.668	834.72
756.852	810.14
757.036	793.76
757.22	820.38
757.404	791.71
757.588	773.28
757.772	734.37
757.956	777.37
758.14	730.27
758.323	760.99
758.507	773.28
758.691	765.09
758.875	773.28
759.059	730.27
759.242	724.13
759.426	656.54
759.61	683.17
759.794	730.27
759.977	701.6
760.161	760.99
760.345	691.36
760.528	687.26
760.712	711.84
760.895	722.08
761.079	631.97
761.263	607.39
761.446	662.69
761.63	666.78
761.813	662.69
761.997	597.15
762.18	707.74
762.364	760.99
762.547	619.68
762.731	642.21
762.914	697.5
763.098	638.11
763.281	646.3
763.464	580.77
763.648	658.59
763.831	634.02
764.015	595.11
764.198	568.48
764.381	677.02
764.564	634.02
764.748	752.8
764.931	699.55
765.114	574.63
765.297	597.15
765.481	578.72
765.664	591.01
765.847	548
766.03	629.92
766.213	548
766.397	646.3
766.58	611.49
766.763	677.02
766.946	531.62
767.129	588.96
767.312	615.59
767.495	595.11
767.678	548
767.861	545.95
768.044	550.05
768.227	599.2
768.41	588.96
768.593	541.86
768.776	535.71
768.959	623.78
769.142	597.15
769.324	500.9
769.507	597.15
769.69	582.82
769.873	574.63
770.056	558.24
770.239	476.32
770.421	531.62
770.604	515.23
770.787	521.38
770.97	494.76
771.152	511.14
771.335	541.86
771.518	500.9
771.7	564.39
771.883	441.51
772.066	515.23
772.248	431.27
772.431	537.76
772.613	480.42
772.796	517.28
772.978	507.04
773.161	464.04
773.343	548
773.526	464.04
773.708	515.23
773.891	418.98
774.073	525.47
774.256	453.8
774.438	521.38
774.621	433.32
774.803	474.28
774.985	476.32
775.168	494.76
775.35	457.89
775.532	492.71
775.715	470.18
775.897	472.23
776.079	371.88
776.261	482.47
776.444	414.88
776.626	476.32
776.808	443.56
776.99	464.04
777.173	394.4
777.355	453.8
777.537	437.41
777.719	412.84
777.901	429.22
778.083	423.08
778.265	357.54
778.447	484.52
778.629	466.08
778.811	423.08
778.993	404.64
779.175	367.78
779.357	394.4
779.539	410.79
779.721	502.95
779.903	410.79
780.085	457.89
780.267	433.32
780.449	308.39
780.631	476.32
780.812	365.73
780.994	335.01
781.176	404.64
781.358	394.4
781.54	418.98
781.721	378.02
781.903	337.06
782.085	359.59
782.267	390.31
782.448	316.58
782.63	341.16
782.812	283.81
782.993	380.07
783.175	339.11
783.357	285.86
783.538	373.92
783.72	318.63
783.901	296.1
784.083	332.97
784.264	353.45
784.446	355.49
784.627	238.76
784.809	279.72
784.99	361.64
785.172	277.67
785.353	275.62
785.535	400.55
785.716	269.48
785.897	328.87
786.079	292.01
786.26	224.42
786.441	271.53
786.623	271.53
786.804	259.24
786.985	289.96
787.167	359.59
787.348	240.81
787.529	287.91
787.71	232.62
787.891	283.81
788.073	244.9
788.254	285.86
788.435	253.09
788.616	195.75
788.797	310.44
788.978	277.67
789.159	218.28
789.34	238.76
789.522	267.43
789.703	220.33
789.884	240.81
790.065	205.99
790.246	263.33
790.427	265.38
790.607	191.66
790.788	242.85
790.969	236.71
791.15	267.43
791.331	212.14
791.512	240.81
791.693	148.65
791.874	271.53
792.054	242.85
792.235	218.28
792.416	177.32
792.597	193.7
792.778	326.82
792.958	246.95
793.139	218.28
793.32	220.33
793.5	236.71
793.681	208.04
793.862	255.14
794.042	232.62
794.223	205.99
794.404	232.62
794.584	189.61
794.765	156.84
794.945	220.33
795.126	230.57
795.306	251.05
795.487	197.8
795.667	191.66
795.848	146.6
796.028	224.42
796.209	160.94
796.389	220.33
796.57	205.99
796.75	150.7
796.93	181.42
797.111	216.23
797.291	216.23
797.471	257.19
797.652	189.61
797.832	232.62
798.012	255.14
798.192	167.08
798.373	171.18
798.553	212.14
798.733	208.04
798.913	226.47
799.093	197.8
799.274	158.89
799.454	167.08
799.634	171.18
799.814	199.85
799.994	177.32
800.174	154.79
800.354	128.17
800.534	193.7
800.714	173.22
800.894	181.42
801.074	128.17
801.254	158.89
801.434	134.31
801.614	162.98
801.794	228.52
801.974	335.01
802.154	136.36
802.334	160.94
802.514	160.94
802.693	113.83
802.873	81.07
803.053	189.61
803.233	160.94
803.413	152.74
803.592	216.23
803.772	160.94
803.952	193.7
804.131	154.79
804.311	205.99
804.491	257.19
804.67	103.59
804.85	212.14
805.03	146.6
805.209	189.61
805.389	171.18
805.568	124.07
805.748	162.98
805.928	154.79
806.107	138.41
806.287	122.02
806.466	134.31
806.646	140.46
806.825	144.55
807.004	109.74
807.184	97.45
807.363	144.55
807.543	126.12
807.722	154.79
807.901	263.33
808.081	122.02
808.26	122.02
808.439	46.25
808.619	111.78
808.798	105.64
808.977	95.4
809.156	167.08
809.336	130.22
809.515	111.78
809.694	70.83
809.873	97.45
810.052	93.35
810.231	187.56
810.411	138.41
810.59	158.89
810.769	76.97
810.948	146.6
811.127	93.35
811.306	85.16
811.485	115.88
811.664	171.18
811.843	91.31
812.022	175.27
812.201	64.68
812.38	83.11
812.559	136.36
812.737	91.31
812.916	58.54
813.095	105.64
813.274	122.02
813.453	203.94
813.632	101.55
813.811	130.22
813.989	113.83
814.168	146.6
814.347	3.24
814.526	89.26
814.704	109.74
814.883	101.55
815.062	46.25
815.24	148.65
815.419	146.6
815.598	64.68
815.776	130.22
815.955	83.11
816.133	117.93
816.312	79.02
816.49	132.26
816.669	144.55
816.847	66.73
817.026	140.46
817.204	109.74
817.383	46.25
817.561	126.12
817.74	76.97
817.918	136.36
818.097	191.66
818.275	99.5
818.453	130.22
818.632	87.21
818.81	173.22
818.988	27.82
819.167	95.4
819.345	52.39
819.523	132.26
819.701	140.46
819.879	93.35
820.058	134.31
820.236	109.74
820.414	85.16
820.592	128.17
820.77	146.6
820.948	165.03
821.127	-2.9
821.305	99.5
821.483	38.06
821.661	160.94
821.839	56.49
822.017	83.11
822.195	119.98
822.373	103.59
822.551	93.35
822.729	87.21
822.907	91.31
823.085	107.69
823.262	99.5
823.44	169.13
823.618	50.35
823.796	165.03
823.974	74.92
824.152	144.55
824.329	46.25
824.507	140.46
824.685	89.26
824.863	76.97
825.04	103.59
825.218	66.73
825.396	171.18
825.574	107.69
825.751	99.5
825.929	91.31
826.107	79.02
826.284	87.21
826.462	101.55
826.639	-4.95
826.817	50.35
826.994	119.98
827.172	17.58
827.349	111.78
827.527	38.06
827.704	113.83
827.882	97.45
828.059	66.73
828.237	23.72
828.414	36.01
828.591	115.88
828.769	85.16
828.946	79.02
829.124	91.31
829.301	85.16
829.478	44.2
829.655	3.24
829.833	36.01
830.01	15.53
830.187	115.88
830.364	36.01
830.542	83.11
830.719	85.16
830.896	122.02
831.073	76.97
831.25	7.34
831.427	25.77
831.604	93.35
831.782	62.63
831.959	56.49
832.136	3.24
832.313	146.6
832.49	13.48
832.667	113.83
832.844	56.49
833.021	91.31
833.198	101.55
833.374	64.68
833.551	119.98
833.728	83.11
833.905	52.39
834.082	97.45
834.259	52.39
834.436	111.78
834.612	60.59
834.789	48.3
834.966	-17.24
835.143	-17.24
835.319	46.25
835.496	50.35
835.673	95.4
835.85	56.49
836.026	62.63
836.203	21.67
836.38	44.2
836.556	115.88
836.733	48.3
836.909	93.35
837.086	21.67
837.262	64.68
837.439	9.39
837.616	50.35
837.792	38.06
837.968	46.25
838.145	-2.9
838.321	97.45
838.498	79.02
838.674	56.49
838.851	19.63
839.027	36.01
839.203	62.63
839.38	25.77
839.556	89.26
839.732	97.45
839.909	105.64
840.085	138.41
840.261	-21.33
840.437	52.39
840.614	91.31
840.79	140.46
840.966	42.15
841.142	11.43
841.318	27.82
841.494	60.59
841.671	70.83
841.847	15.53
842.023	56.49
842.199	85.16
842.375	-9.05
842.551	33.96
842.727	27.82
842.903	76.97
843.079	21.67
843.255	40.11
843.431	87.21
843.607	62.63
843.783	44.2
843.959	17.58
844.134	-23.38
844.31	66.73
844.486	15.53
844.662	1.19
844.838	87.21
845.013	107.69
845.189	66.73
845.365	97.45
845.541	46.25
845.716	109.74
845.892	48.3
846.068	68.78
846.244	50.35
846.419	-7
846.595	31.91
846.77	9.39
846.946	9.39
847.122	17.58
847.297	130.22
847.473	54.44
847.648	25.77
847.824	66.73
847.999	38.06
848.175	-13.14
848.35	70.83
848.526	15.53
848.701	72.87
848.876	50.35
849.052	66.73
849.227	46.25
849.403	105.64
849.578	46.25
849.753	21.67
849.929	95.4
850.104	31.91
850.279	56.49
850.454	81.07
850.63	91.31
850.805	60.59
850.98	33.96
851.155	58.54
851.33	-0.85
851.505	-45.91
851.681	31.91
851.856	-37.72
852.031	25.77
852.206	21.67
852.381	38.06
852.556	36.01
852.731	42.15
852.906	76.97
853.081	13.48
853.256	68.78
853.431	85.16
853.606	42.15
853.781	33.96
853.956	56.49
854.131	60.59
854.305	46.25
854.48	-47.96
854.655	60.59
854.83	48.3
855.005	19.63
855.18	72.87
855.354	89.26
855.529	64.68
855.704	-15.19
855.879	83.11
856.053	-31.57
856.228	76.97
856.403	68.78
856.577	23.72
856.752	11.43
856.926	-0.85
857.101	101.55
857.276	46.25
857.45	48.3
857.625	23.72
857.799	-15.19
857.974	64.68
858.148	-7
858.323	68.78
858.497	-2.9
858.672	-41.81
858.846	42.15
859.02	-47.96
859.195	89.26
859.369	40.11
859.543	-11.09
859.718	11.43
859.892	68.78
860.066	107.69
860.241	15.53
860.415	56.49
860.589	40.11
860.763	29.87
860.938	58.54
861.112	76.97
861.286	42.15
861.46	42.15
861.634	1.19
861.808	64.68
861.982	29.87
862.157	48.3
862.331	64.68
862.505	40.11
862.679	33.96
862.853	38.06
863.027	117.93
863.201	83.11
863.375	27.82
863.549	93.35
863.722	117.93
863.896	48.3
864.07	62.63
864.244	42.15
864.418	-21.33
864.592	11.43
864.766	11.43
864.939	89.26
865.113	-7
865.287	17.58
865.461	-23.38
865.634	48.3
865.808	44.2
865.982	56.49
866.156	91.31
866.329	40.11
866.503	-4.95
866.676	-0.85
866.85	56.49
867.024	-64.34
867.197	72.87
867.371	109.74
867.544	21.67
867.718	-4.95
867.891	-4.95
868.065	11.43
868.238	40.11
868.412	85.16
868.585	50.35
868.759	70.83
868.932	54.44
869.105	36.01
869.279	13.48
869.452	-15.19
869.625	15.53
869.799	72.87
869.972	-19.29
870.145	19.63
870.319	-41.81
870.492	31.91
870.665	23.72
870.838	83.11
871.011	58.54
871.185	58.54
871.358	27.82
871.531	56.49
871.704	60.59
871.877	38.06
872.05	-23.38
872.223	15.53
872.396	50.35
872.569	33.96
872.742	-25.43
872.915	23.72
873.088	50.35
873.261	13.48
873.434	21.67
873.607	64.68
873.78	72.87
873.953	31.91
874.126	5.29
874.299	130.22
874.471	21.67
874.644	62.63
874.817	72.87
874.99	101.55
875.163	-35.67
875.335	9.39
875.508	52.39
875.681	19.63
875.853	9.39
876.026	64.68
876.199	27.82
876.371	66.73
876.544	132.26
876.717	17.58
876.889	33.96
877.062	36.01
877.234	-35.67
877.407	91.31
877.579	33.96
877.752	15.53
877.924	72.87
878.097	48.3
878.269	9.39
878.442	66.73
878.614	15.53
878.786	9.39
878.959	42.15
879.131	44.2
879.303	-11.09
879.476	-2.9
879.648	40.11
879.82	72.87
879.993	-90.96
880.165	31.91
880.337	-7
880.509	44.2
880.681	27.82
880.854	27.82
881.026	101.55
881.198	40.11
881.37	31.91
881.542	81.07
881.714	85.16
881.886	3.24
882.058	36.01
882.23	-11.09
882.402	83.11
882.574	33.96
882.746	-23.38
882.918	-7
883.09	36.01
883.262	19.63
883.434	64.68
883.606	48.3
883.778	58.54
883.95	115.88
884.122	33.96
884.293	36.01
884.465	-2.9
884.637	-0.85
884.809	31.91
884.98	25.77
885.152	23.72
885.324	44.2
885.496	-31.57
885.667	44.2
885.839	44.2
886.011	31.91
886.182	23.72
886.354	23.72
886.525	27.82
886.697	25.77
886.869	15.53
887.04	60.59
887.212	79.02
887.383	-4.95
887.555	81.07
887.726	3.24
887.897	-7
888.069	9.39
888.24	-17.24
888.412	40.11
888.583	13.48
888.754	13.48
888.926	-9.05
889.097	58.54
889.268	-50
889.44	-9.05
889.611	-35.67
889.782	-21.33
889.953	68.78
890.125	64.68
890.296	54.44
890.467	85.16
890.638	31.91
890.809	25.77
890.98	21.67
891.151	97.45
891.323	46.25
891.494	-17.24
891.665	-47.96
891.836	27.82
892.007	23.72
892.178	66.73
892.349	-25.43
892.52	44.2
892.691	-52.05
892.862	56.49
893.032	40.11
893.203	70.83
893.374	9.39
893.545	60.59
893.716	15.53
893.887	70.83
894.057	9.39
894.228	29.87
894.399	-41.81
894.57	48.3
894.74	33.96
894.911	15.53
895.082	-21.33
895.253	85.16
895.423	13.48
895.594	-17.24
895.764	40.11
895.935	81.07
896.106	31.91
896.276	76.97
896.447	7.34
896.617	3.24
896.788	-21.33
896.958	1.19
897.129	9.39
897.299	95.4
897.47	46.25
897.64	40.11
897.81	11.43
897.981	126.12
898.151	-7
898.322	-43.86
898.492	85.16
898.662	11.43
898.832	-2.9
899.003	46.25
899.173	33.96
899.343	76.97
899.513	11.43
