Data from USB4F104151__97__13-00-15-858.txt Node

Date: Fri Mar 14 13:00:15 EDT 2025
User: louis
Spectrometer: USB4F10415
Trigger mode: 4
Integration Time (sec): 1.000000E-2
Scans to average: 1
Electric dark correction enabled: true
Nonlinearity correction enabled: false
Boxcar width: 0
XAxis mode: Wavelengths
Number of Pixels in Spectrum: 3648
>>>>>Begin Spectral Data<<<<<
178.204	-102.74
178.424	-102.74
178.644	-102.74
178.864	-76.12
179.084	-49.49
179.304	-67.92
179.524	13.99
179.744	20.14
179.964	26.28
180.184	-20.82
180.404	30.38
180.624	13.99
180.844	54.95
181.064	-51.54
181.283	5.8
181.503	-18.77
181.723	-6.49
181.943	-35.16
182.163	-14.68
182.383	-16.73
182.602	-65.88
182.822	36.52
183.042	-18.77
183.262	-43.35
183.482	71.34
183.701	1.71
183.921	73.39
184.141	-106.84
184.361	1.71
184.58	30.38
184.8	-51.54
185.02	26.28
185.239	-8.53
185.459	-98.64
185.679	5.8
185.898	30.38
186.118	-20.82
186.338	32.43
186.557	-39.25
186.777	-49.49
186.997	61.1
187.216	-29.01
187.436	-4.44
187.655	13.99
187.875	-4.44
188.095	22.19
188.314	-2.39
188.534	22.19
188.753	40.62
188.973	28.33
189.192	-16.73
189.412	-61.78
189.631	34.47
189.851	-10.58
190.07	-2.39
190.29	-29.01
190.509	-0.34
190.729	24.23
190.948	-22.87
191.168	46.76
191.387	5.8
191.607	30.38
191.826	-31.06
192.045	26.28
192.265	-2.39
192.484	-0.34
192.704	-29.01
192.923	16.04
193.142	30.38
193.362	-59.73
193.581	40.62
193.8	-6.49
194.02	48.81
194.239	-0.34
194.458	18.09
194.678	-55.64
194.897	13.99
195.116	28.33
195.335	61.1
195.555	-12.63
195.774	-22.87
195.993	-6.49
196.212	-4.44
196.432	63.15
196.651	-41.3
196.87	-2.39
197.089	38.57
197.308	36.52
197.528	-8.53
197.747	16.04
197.966	34.47
198.185	16.04
198.404	-0.34
198.623	34.47
198.842	-4.44
199.062	-24.92
199.281	46.76
199.5	46.76
199.719	18.09
199.938	-12.63
200.157	30.38
200.376	16.04
200.595	63.15
200.814	30.38
201.033	-24.92
201.252	-45.4
201.471	-33.11
201.69	-6.49
201.909	1.71
202.128	-88.4
202.347	13.99
202.566	30.38
202.785	-24.92
203.004	-16.73
203.223	-37.2
203.442	-12.63
203.661	30.38
203.879	44.71
204.098	36.52
204.317	-2.39
204.536	11.95
204.755	-16.73
204.974	26.28
205.193	-37.2
205.411	81.58
205.63	5.8
205.849	104.11
206.068	22.19
206.287	106.15
206.505	38.57
206.724	-69.97
206.943	38.57
207.162	-35.16
207.381	-12.63
207.599	24.23
207.818	16.04
208.037	24.23
208.255	-43.35
208.474	-18.77
208.693	-67.92
208.911	38.57
209.13	-2.39
209.349	52.91
209.567	18.09
209.786	69.29
210.005	20.14
210.223	1.71
210.442	32.43
210.661	22.19
210.879	32.43
211.098	-10.58
211.316	50.86
211.535	34.47
211.753	54.95
211.972	46.76
212.191	59.05
212.409	5.8
212.628	-16.73
212.846	9.9
213.065	40.62
213.283	54.95
213.502	13.99
213.72	13.99
213.938	18.09
214.157	-14.68
214.375	32.43
214.594	1.71
214.812	28.33
215.031	-14.68
215.249	24.23
215.467	-14.68
215.686	44.71
215.904	18.09
216.122	-22.87
216.341	13.99
216.559	77.48
216.778	54.95
216.996	83.63
217.214	32.43
217.432	-18.77
217.651	36.52
217.869	-2.39
218.087	34.47
218.306	-18.77
218.524	13.99
218.742	-20.82
218.96	36.52
219.179	-18.77
219.397	-41.3
219.615	-45.4
219.833	48.81
220.051	-63.83
220.27	16.04
220.488	-4.44
220.706	-6.49
220.924	-37.2
221.142	46.76
221.36	48.81
221.578	22.19
221.796	16.04
222.015	-24.92
222.233	-18.77
222.451	50.86
222.669	-8.53
222.887	-10.58
223.105	16.04
223.323	67.24
223.541	-31.06
223.759	28.33
223.977	30.38
224.195	83.63
224.413	-26.96
224.631	59.05
224.849	34.47
225.067	13.99
225.285	-20.82
225.503	57
225.721	9.9
225.939	57
226.157	-74.07
226.375	40.62
226.592	-4.44
226.81	-6.49
227.028	16.04
227.246	28.33
227.464	-63.83
227.682	11.95
227.9	-22.87
228.117	1.71
228.335	-39.25
228.553	67.24
228.771	44.71
228.989	-18.77
229.206	65.19
229.424	36.52
229.642	-2.39
229.86	69.29
230.077	30.38
230.295	75.43
230.513	-22.87
230.731	16.04
230.948	-31.06
231.166	13.99
231.384	22.19
231.601	-14.68
231.819	-6.49
232.037	9.9
232.254	30.38
232.472	30.38
232.689	1.71
232.907	-12.63
233.125	18.09
233.342	7.85
233.56	57
233.777	-26.96
233.995	24.23
234.213	87.72
234.43	7.85
234.648	26.28
234.865	-4.44
235.083	13.99
235.3	7.85
235.518	-67.92
235.735	67.24
235.953	9.9
236.17	11.95
236.388	-18.77
236.605	13.99
236.822	11.95
237.04	-12.63
237.257	-0.34
237.475	-33.11
237.692	20.14
237.909	-14.68
238.127	13.99
238.344	22.19
238.562	-0.34
238.779	24.23
238.996	24.23
239.214	9.9
239.431	-24.92
239.648	-2.39
239.865	-82.26
240.083	-2.39
240.3	-37.2
240.517	38.57
240.735	-14.68
240.952	-12.63
241.169	32.43
241.386	28.33
241.603	13.99
241.821	-2.39
242.038	28.33
242.255	24.23
242.472	-22.87
242.689	38.57
242.907	-31.06
243.124	-51.54
243.341	-18.77
243.558	-41.3
243.775	-18.77
243.992	-0.34
244.209	32.43
244.426	18.09
244.643	32.43
244.86	28.33
245.078	40.62
245.295	-8.53
245.512	5.8
245.729	1.71
245.946	63.15
246.163	-33.11
246.38	52.91
246.597	-10.58
246.814	-2.39
247.031	40.62
247.248	9.9
247.464	7.85
247.681	-6.49
247.898	-35.16
248.115	-16.73
248.332	-12.63
248.549	-16.73
248.766	38.57
248.983	18.09
249.2	54.95
249.417	-63.83
249.633	-14.68
249.85	67.24
250.067	16.04
250.284	91.82
250.501	-12.63
250.717	-18.77
250.934	11.95
251.151	-35.16
251.368	-33.11
251.585	-29.01
251.801	22.19
252.018	22.19
252.235	63.15
252.451	-2.39
252.668	54.95
252.885	44.71
253.102	-8.53
253.318	18.09
253.535	38.57
253.752	-18.77
253.968	18.09
254.185	50.86
254.401	-10.58
254.618	16.04
254.835	-0.34
255.051	5.8
255.268	3.75
255.484	13.99
255.701	7.85
255.917	-24.92
256.134	26.28
256.351	108.2
256.567	3.75
256.784	13.99
257	-22.87
257.217	-14.68
257.433	30.38
257.65	-24.92
257.866	-39.25
258.082	1.71
258.299	59.05
258.515	46.76
258.732	38.57
258.948	-41.3
259.165	59.05
259.381	67.24
259.597	-2.39
259.814	22.19
260.03	-12.63
260.246	7.85
260.463	-10.58
260.679	-69.97
260.895	22.19
261.112	63.15
261.328	-14.68
261.544	52.91
261.761	32.43
261.977	36.52
262.193	28.33
262.409	50.86
262.626	1.71
262.842	30.38
263.058	-16.73
263.274	93.87
263.49	-22.87
263.707	-37.2
263.923	63.15
264.139	104.11
264.355	-0.34
264.571	16.04
264.787	-18.77
265.004	100.01
265.22	-47.44
265.436	40.62
265.652	38.57
265.868	32.43
266.084	-41.3
266.3	11.95
266.516	-0.34
266.732	-14.68
266.948	93.87
267.164	-14.68
267.38	-43.35
267.596	28.33
267.812	22.19
268.028	-35.16
268.244	46.76
268.46	-10.58
268.676	42.67
268.892	32.43
269.108	-35.16
269.324	-35.16
269.54	-6.49
269.756	44.71
269.972	34.47
270.188	-41.3
270.403	-14.68
270.619	40.62
270.835	-20.82
271.051	79.53
271.267	36.52
271.483	89.77
271.698	5.8
271.914	83.63
272.13	63.15
272.346	1.71
272.562	-22.87
272.777	50.86
272.993	28.33
273.209	7.85
273.425	-4.44
273.64	1.71
273.856	102.06
274.072	-2.39
274.287	-18.77
274.503	69.29
274.719	-12.63
274.934	-16.73
275.15	16.04
275.366	42.67
275.581	-33.11
275.797	69.29
276.012	13.99
276.228	22.19
276.444	106.15
276.659	13.99
276.875	5.8
277.09	22.19
277.306	34.47
277.521	26.28
277.737	-2.39
277.952	16.04
278.168	-2.39
278.383	73.39
278.599	38.57
278.814	-20.82
279.03	48.81
279.245	-2.39
279.461	-59.73
279.676	36.52
279.892	-4.44
280.107	-33.11
280.322	-26.96
280.538	9.9
280.753	16.04
280.969	128.68
281.184	-18.77
281.399	-12.63
281.615	7.85
281.83	-14.68
282.045	-4.44
282.26	-22.87
282.476	22.19
282.691	30.38
282.906	-31.06
283.122	-8.53
283.337	-72.02
283.552	9.9
283.767	18.09
283.983	7.85
284.198	100.01
284.413	22.19
284.628	-33.11
284.843	38.57
285.058	-8.53
285.274	89.77
285.489	-18.77
285.704	57
285.919	46.76
286.134	22.19
286.349	26.28
286.564	-22.87
286.779	54.95
286.995	22.19
287.21	-63.83
287.425	-12.63
287.64	54.95
287.855	-2.39
288.07	1.71
288.285	11.95
288.5	59.05
288.715	75.43
288.93	-33.11
289.145	-10.58
289.36	-6.49
289.575	-10.58
289.79	-4.44
290.004	44.71
290.219	38.57
290.434	-16.73
290.649	-10.58
290.864	-2.39
291.079	-26.96
291.294	128.68
291.509	65.19
291.724	7.85
291.938	1.71
292.153	28.33
292.368	-72.02
292.583	-22.87
292.798	-0.34
293.012	54.95
293.227	59.05
293.442	59.05
293.657	44.71
293.871	-4.44
294.086	5.8
294.301	32.43
294.516	36.52
294.73	73.39
294.945	40.62
295.16	26.28
295.374	1.71
295.589	36.52
295.804	-0.34
296.018	36.52
296.233	46.76
296.447	40.62
296.662	-26.96
296.877	3.75
297.091	40.62
297.306	11.95
297.52	16.04
297.735	34.47
297.949	30.38
298.164	7.85
298.378	1.71
298.593	52.91
298.807	-2.39
299.022	102.06
299.236	5.8
299.451	7.85
299.665	46.76
299.88	38.57
300.094	11.95
300.309	20.14
300.523	11.95
300.737	24.23
300.952	11.95
301.166	-10.58
301.381	-0.34
301.595	-4.44
301.809	-20.82
302.024	1.71
302.238	-74.07
302.452	-0.34
302.667	50.86
302.881	89.77
303.095	36.52
303.309	42.67
303.524	7.85
303.738	28.33
303.952	1.71
304.166	40.62
304.381	-2.39
304.595	97.96
304.809	-59.73
305.023	71.34
305.237	32.43
305.452	34.47
305.666	24.23
305.88	79.53
306.094	26.28
306.308	42.67
306.522	-0.34
306.736	30.38
306.95	-2.39
307.164	36.52
307.379	-35.16
307.593	102.06
307.807	28.33
308.021	38.57
308.235	-26.96
308.449	-18.77
308.663	32.43
308.877	34.47
309.091	22.19
309.305	71.34
309.519	83.63
309.733	38.57
309.947	-2.39
310.161	-2.39
310.374	46.76
310.588	81.58
310.802	20.14
311.016	65.19
311.23	5.8
311.444	-24.92
311.658	16.04
311.872	11.95
312.085	40.62
312.299	22.19
312.513	28.33
312.727	61.1
312.941	28.33
313.154	73.39
313.368	-10.58
313.582	-26.96
313.796	16.04
314.009	63.15
314.223	-24.92
314.437	-2.39
314.651	30.38
314.864	48.81
315.078	13.99
315.292	-6.49
315.505	-6.49
315.719	30.38
315.933	26.28
316.146	89.77
316.36	-4.44
316.573	50.86
316.787	24.23
317.001	5.8
317.214	-10.58
317.428	-24.92
317.641	7.85
317.855	46.76
318.068	13.99
318.282	40.62
318.495	46.76
318.709	-24.92
318.922	-14.68
319.136	-63.83
319.349	-35.16
319.563	-24.92
319.776	-14.68
319.99	11.95
320.203	34.47
320.417	20.14
320.63	11.95
320.843	46.76
321.057	83.63
321.27	-22.87
321.483	34.47
321.697	54.95
321.91	9.9
322.124	11.95
322.337	73.39
322.55	20.14
322.763	-39.25
322.977	-22.87
323.19	-31.06
323.403	-35.16
323.617	-18.77
323.83	57
324.043	40.62
324.256	-4.44
324.469	20.14
324.683	54.95
324.896	-35.16
325.109	34.47
325.322	9.9
325.535	1.71
325.748	40.62
325.962	-22.87
326.175	5.8
326.388	50.86
326.601	13.99
326.814	-14.68
327.027	-8.53
327.24	-8.53
327.453	-16.73
327.666	1.71
327.879	26.28
328.092	1.71
328.305	5.8
328.518	-35.16
328.731	11.95
328.944	18.09
329.157	54.95
329.37	63.15
329.583	-57.68
329.796	-33.11
330.009	24.23
330.222	-20.82
330.435	26.28
330.648	-4.44
330.861	7.85
331.073	54.95
331.286	24.23
331.499	63.15
331.712	-6.49
331.925	-35.16
332.138	-0.34
332.35	34.47
332.563	1.71
332.776	77.48
332.989	42.67
333.202	5.8
333.414	16.04
333.627	97.96
333.84	24.23
334.053	38.57
334.265	-26.96
334.478	50.86
334.691	20.14
334.903	46.76
335.116	46.76
335.329	77.48
335.541	50.86
335.754	36.52
335.966	-31.06
336.179	46.76
336.392	95.91
336.604	-41.3
336.817	24.23
337.029	36.52
337.242	-14.68
337.454	112.3
337.667	-57.68
337.88	52.91
338.092	42.67
338.305	26.28
338.517	110.25
338.729	1.71
338.942	28.33
339.154	48.81
339.367	54.95
339.579	44.71
339.792	-18.77
340.004	16.04
340.217	42.67
340.429	22.19
340.641	-18.77
340.854	18.09
341.066	-29.01
341.278	36.52
341.491	85.67
341.703	54.95
341.915	-82.26
342.128	-69.97
342.34	-55.64
342.552	-8.53
342.764	-16.73
342.977	3.75
343.189	65.19
343.401	34.47
343.613	-8.53
343.826	50.86
344.038	-110.93
344.25	24.23
344.462	-65.88
344.674	13.99
344.886	46.76
345.099	22.19
345.311	28.33
345.523	-57.68
345.735	-47.44
345.947	9.9
346.159	36.52
346.371	-8.53
346.583	24.23
346.795	-2.39
347.007	-26.96
347.219	28.33
347.431	-18.77
347.643	79.53
347.855	-20.82
348.067	110.25
348.279	9.9
348.491	48.81
348.703	89.77
348.915	57
349.127	-49.49
349.339	54.95
349.551	-55.64
349.763	-47.44
349.975	13.99
350.187	54.95
350.399	77.48
350.61	40.62
350.822	-59.73
351.034	26.28
351.246	-39.25
351.458	36.52
351.669	-45.4
351.881	7.85
352.093	34.47
352.305	46.76
352.517	1.71
352.728	73.39
352.94	24.23
353.152	46.76
353.363	-43.35
353.575	-8.53
353.787	81.58
353.999	67.24
354.21	-24.92
354.422	-22.87
354.633	1.71
354.845	73.39
355.057	57
355.268	71.34
355.48	5.8
355.692	18.09
355.903	9.9
356.115	9.9
356.326	-55.64
356.538	57
356.749	50.86
356.961	16.04
357.172	13.99
357.384	3.75
357.595	67.24
357.807	46.76
358.018	-14.68
358.23	13.99
358.441	28.33
358.653	7.85
358.864	48.81
359.075	-33.11
359.287	-18.77
359.498	63.15
359.709	-6.49
359.921	13.99
360.132	52.91
360.344	48.81
360.555	34.47
360.766	-24.92
360.977	81.58
361.189	-16.73
361.4	22.19
361.611	40.62
361.823	54.95
362.034	93.87
362.245	65.19
362.456	9.9
362.667	-4.44
362.879	73.39
363.09	-26.96
363.301	7.85
363.512	38.57
363.723	16.04
363.935	42.67
364.146	81.58
364.357	-41.3
364.568	-0.34
364.779	-26.96
364.99	-12.63
365.201	13.99
365.412	32.43
365.623	13.99
365.834	-2.39
366.045	7.85
366.256	-4.44
366.467	-0.34
366.678	-8.53
366.889	-39.25
367.1	26.28
367.311	30.38
367.522	-10.58
367.733	-2.39
367.944	38.57
368.155	59.05
368.366	-37.2
368.577	54.95
368.788	24.23
368.999	-12.63
369.209	7.85
369.42	-49.49
369.631	85.67
369.842	61.1
370.053	95.91
370.264	34.47
370.474	120.49
370.685	-37.2
370.896	65.19
371.107	1.71
371.317	9.9
371.528	-24.92
371.739	63.15
371.95	3.75
372.16	75.43
372.371	61.1
372.582	34.47
372.792	-35.16
373.003	67.24
373.214	-29.01
373.424	20.14
373.635	59.05
373.846	24.23
374.056	16.04
374.267	-26.96
374.477	57
374.688	-26.96
374.898	32.43
375.109	5.8
375.319	-20.82
375.53	38.57
375.74	-31.06
375.951	36.52
376.161	32.43
376.372	42.67
376.582	9.9
376.793	24.23
377.003	57
377.214	24.23
377.424	-2.39
377.635	54.95
377.845	61.1
378.055	95.91
378.266	20.14
378.476	24.23
378.686	-10.58
378.897	-51.54
379.107	9.9
379.317	20.14
379.528	63.15
379.738	89.77
379.948	9.9
380.158	-12.63
380.369	54.95
380.579	-0.34
380.789	-14.68
380.999	-84.31
381.21	-16.73
381.42	106.15
381.63	1.71
381.84	22.19
382.05	26.28
382.261	42.67
382.471	65.19
382.681	-10.58
382.891	-14.68
383.101	120.49
383.311	22.19
383.521	16.04
383.731	26.28
383.941	26.28
384.151	9.9
384.361	11.95
384.571	67.24
384.781	20.14
384.991	48.81
385.201	57
385.411	7.85
385.621	30.38
385.831	38.57
386.041	87.72
386.251	-33.11
386.461	-24.92
386.671	3.75
386.881	16.04
387.091	-2.39
387.301	16.04
387.511	34.47
387.72	46.76
387.93	48.81
388.14	-26.96
388.35	3.75
388.56	57
388.769	-22.87
388.979	13.99
389.189	71.34
389.399	-26.96
389.609	-53.59
389.818	40.62
390.028	38.57
390.238	-14.68
390.447	-16.73
390.657	28.33
390.867	89.77
391.076	32.43
391.286	-12.63
391.496	-6.49
391.705	-8.53
391.915	-12.63
392.125	48.81
392.334	1.71
392.544	61.1
392.753	-59.73
392.963	59.05
393.172	83.63
393.382	16.04
393.591	87.72
393.801	50.86
394.01	13.99
394.22	100.01
394.429	38.57
394.639	-4.44
394.848	24.23
395.058	71.34
395.267	46.76
395.477	73.39
395.686	34.47
395.895	54.95
396.105	87.72
396.314	34.47
396.524	-8.53
396.733	13.99
396.942	20.14
397.152	-2.39
397.361	-6.49
397.57	89.77
397.78	18.09
397.989	-10.58
398.198	100.01
398.407	48.81
398.617	93.87
398.826	42.67
399.035	87.72
399.244	34.47
399.453	20.14
399.663	75.43
399.872	-20.82
400.081	95.91
400.29	83.63
400.499	-12.63
400.708	48.81
400.917	69.29
401.127	13.99
401.336	65.19
401.545	87.72
401.754	50.86
401.963	36.52
402.172	-0.34
402.381	38.57
402.59	50.86
402.799	38.57
403.008	63.15
403.217	61.1
403.426	95.91
403.635	59.05
403.844	112.3
404.053	54.95
404.262	83.63
404.471	59.05
404.68	116.39
404.888	67.24
405.097	40.62
405.306	85.67
405.515	-29.01
405.724	124.58
405.933	130.73
406.142	63.15
406.35	132.78
406.559	81.58
406.768	67.24
406.977	122.54
407.185	95.91
407.394	59.05
407.603	102.06
407.812	40.62
408.02	196.26
408.229	71.34
408.438	75.43
408.646	122.54
408.855	106.15
409.064	200.36
409.272	91.82
409.481	132.78
409.69	52.91
409.898	147.11
410.107	128.68
410.315	91.82
410.524	136.87
410.733	186.02
410.941	128.68
411.15	194.22
411.358	104.11
411.567	257.7
411.775	175.78
411.984	132.78
412.192	233.13
412.401	188.07
412.609	181.93
412.818	241.32
413.026	149.16
413.234	261.8
413.443	237.22
413.651	276.13
413.86	222.89
414.068	267.94
414.276	278.18
414.485	292.52
414.693	294.57
414.901	347.81
415.11	204.46
415.318	272.04
415.526	243.37
415.734	347.81
415.943	313
416.151	337.57
416.359	308.9
416.567	345.77
416.776	343.72
416.984	431.78
417.192	431.78
417.4	409.25
417.608	368.29
417.817	423.59
418.025	413.35
418.233	534.18
418.441	433.83
418.649	429.73
418.857	507.55
419.065	472.74
419.273	513.7
419.481	589.47
419.689	540.32
419.897	607.91
420.105	616.1
420.313	671.39
420.521	687.78
420.729	757.41
420.937	718.5
421.145	818.85
421.353	816.8
421.561	728.74
421.769	868
421.977	870.05
422.185	874.14
422.393	874.14
422.601	894.62
422.809	1044.12
423.017	984.73
423.224	990.88
423.432	1113.75
423.64	1044.12
423.848	1095.32
424.056	1117.85
424.263	1195.67
424.471	1201.82
424.679	1259.16
424.887	1298.07
425.094	1355.41
425.302	1320.6
425.51	1468.05
425.718	1437.33
425.925	1320.6
426.133	1486.48
426.341	1580.69
426.548	1719.95
426.756	1662.61
426.964	1601.17
427.171	1711.76
427.379	1887.89
427.586	1771.15
427.794	2014.86
428.001	1951.37
428.209	2010.76
428.417	1896.08
428.624	2176.65
428.832	2074.25
429.039	2131.59
429.247	2217.61
429.454	2326.15
429.662	2549.38
429.869	2373.25
430.076	2510.47
430.284	2406.02
430.491	2420.36
430.699	2696.83
430.906	2571.91
431.114	2756.22
431.321	2774.66
431.528	2963.07
431.736	2975.36
431.943	3077.76
432.15	3184.25
432.358	3143.29
432.565	3444.34
432.772	3376.76
432.979	3425.91
433.187	3503.73
433.394	3569.27
433.601	3698.29
433.808	3917.42
434.016	3741.3
434.223	3929.71
434.43	4138.6
434.637	4161.13
434.844	4331.11
435.052	4494.95
435.259	4355.69
435.466	4497
435.673	4271.72
435.88	4640.36
436.087	5047.9
436.294	4865.63
436.501	4888.16
436.708	4965.98
436.915	4961.89
437.122	5191.26
437.329	5379.67
437.537	5512.79
437.743	5641.81
437.95	5531.22
438.157	5815.89
438.364	5914.19
438.571	5889.62
438.778	5942.86
438.985	6538.82
439.192	6356.55
439.399	6553.16
439.606	6356.55
439.813	6680.13
440.02	7120.45
440.227	7036.48
440.433	7001.66
440.64	7243.32
440.847	7116.35
441.054	7306.81
441.261	7724.6
441.467	7958.07
441.674	7876.15
441.881	8341.04
442.088	8191.53
442.294	8123.95
442.501	8388.14
442.708	8365.61
442.914	8713.77
443.121	9250.33
443.328	9076.26
443.534	9573.91
443.741	9215.52
443.948	9178.65
444.154	9840.15
444.361	9844.24
444.568	9913.88
444.774	10001.94
444.981	10233.36
445.187	10528.27
445.394	10870.28
445.6	10671.62
445.807	11826.68
446.013	11054.59
446.22	11398.65
446.426	12021.24
446.633	11996.66
446.839	12611.05
447.046	11879.93
447.252	12680.68
447.459	12695.02
447.665	12619.24
447.871	13096.42
448.078	13737.43
448.284	13213.15
448.491	13405.66
448.697	14216.66
448.903	14243.28
449.11	14284.24
449.316	13991.38
449.522	14177.75
449.728	14728.65
449.935	14773.71
450.141	14814.66
450.347	15107.52
450.553	14818.76
450.76	15011.27
450.966	15402.43
451.172	15300.03
451.378	15633.85
451.584	15484.35
451.791	15803.83
451.997	15783.35
452.203	15963.58
452.409	16086.45
452.615	15924.66
452.821	15588.8
453.027	15367.62
453.233	16059.83
453.44	15252.93
453.646	15756.73
453.852	15873.46
454.058	15955.38
454.264	15470.01
454.47	15879.61
454.676	15541.69
454.882	15932.86
455.088	14570.96
455.294	14751.18
455.5	15001.03
455.705	15138.24
455.911	14644.68
456.117	14480.85
456.323	14071.25
456.529	13495.77
456.735	13964.76
456.941	13710.81
457.147	13360.61
457.352	13131.23
457.558	12772.84
457.764	13049.32
457.97	12592.62
458.176	12449.26
458.381	12445.16
458.587	11877.88
458.793	11970.04
458.999	11173.38
459.204	11822.58
459.41	11523.58
459.616	11011.59
459.821	11050.5
460.027	11040.26
460.233	10487.31
460.438	10122.77
460.644	10173.97
460.85	9885.2
461.055	9551.38
461.261	9694.74
461.466	8910.37
461.672	8631.85
461.878	9143.84
462.083	8631.85
462.289	8345.13
462.494	8295.98
462.7	7908.91
462.905	7884.34
463.111	8039.98
463.316	8031.79
463.522	7853.62
463.727	7857.71
463.932	8068.66
464.138	7855.67
464.343	7880.24
464.549	7771.7
464.754	8001.07
464.959	7792.18
465.165	7831.09
465.37	7253.56
465.575	7243.32
465.781	7351.87
465.986	7583.29
466.191	7185.98
466.397	7126.59
466.602	6819.39
466.807	7106.11
467.012	7134.78
467.218	6981.18
467.423	6991.42
467.628	6860.35
467.833	7226.94
468.038	7188.03
468.244	6782.53
468.449	7026.24
468.654	6696.52
468.859	6747.72
469.064	6714.95
469.269	6544.97
469.474	6663.75
469.679	6698.56
469.885	6495.82
470.09	6579.78
470.295	6563.4
470.5	6432.33
470.705	6536.77
470.91	6196.81
471.115	6137.42
471.32	6280.78
471.525	6280.78
471.73	6039.12
471.935	5965.39
472.139	5897.81
472.344	6141.52
472.549	6069.84
472.754	5887.57
472.959	5760.59
473.164	5617.24
473.369	5572.18
473.574	5760.59
473.778	5637.72
473.983	5666.39
474.188	5729.88
474.393	5406.3
474.598	5191.26
474.802	5385.82
475.007	5248.6
475.212	5281.37
475.417	5060.19
475.621	5135.96
475.826	5181.02
476.031	5123.68
476.235	4855.39
476.44	4990.56
476.645	5019.23
476.849	4961.89
477.054	4867.68
477.259	4752.99
477.463	4724.32
477.668	4568.68
477.872	4748.9
478.077	4597.35
478.282	4542.05
478.486	4556.39
478.691	4603.49
478.895	4535.91
479.1	4597.35
479.304	4482.66
479.509	4228.71
479.713	4386.41
479.918	4490.85
480.122	4292.2
480.326	4277.87
480.531	4245.1
480.735	4376.17
480.94	4085.36
481.144	4456.04
481.348	4173.42
481.553	4146.8
481.757	4148.84
481.961	4230.76
482.166	4243.05
482.37	4177.51
482.574	4032.11
482.778	4185.71
482.983	4220.52
483.187	4238.95
483.391	4136.56
483.595	4093.55
483.8	4114.03
484.004	4216.43
484.208	3954.29
484.412	4220.52
484.616	4148.84
484.821	4261.48
485.025	4097.64
485.229	4179.56
485.433	4224.62
485.637	4220.52
485.841	4163.18
486.045	4114.03
486.249	4138.6
486.453	4216.43
486.657	4269.67
486.861	4163.18
487.065	4015.73
487.269	4146.8
487.473	4152.94
487.677	4175.47
487.881	4185.71
488.085	4097.64
488.289	4333.16
488.493	4302.44
488.697	4216.43
488.901	4275.82
489.105	4200.04
489.309	4144.75
489.512	4161.13
489.716	4208.23
489.92	4341.35
490.124	4230.76
490.328	4425.32
490.531	4128.36
490.735	4404.84
490.939	4374.12
491.143	4181.61
491.346	4337.26
491.55	4402.79
491.754	4402.79
491.958	4398.7
492.161	4423.27
492.365	4404.84
492.569	4372.07
492.772	4451.94
492.976	4333.16
493.18	4580.96
493.383	4714.08
493.587	4650.6
493.79	4609.64
493.994	4566.63
494.197	4568.68
494.401	4652.64
494.605	4552.29
494.808	4726.37
495.012	4769.38
495.215	4767.33
495.419	4937.31
495.622	4834.91
495.825	4922.98
496.029	4916.83
496.232	5088.86
496.436	5103.2
496.639	5187.16
496.843	5101.15
497.046	5158.49
497.249	5402.2
497.453	5287.51
497.656	5434.97
497.859	5367.38
498.063	5449.3
498.266	5543.51
498.469	5527.13
498.673	5611.09
498.876	5682.77
499.079	5705.3
499.282	5815.89
499.485	5914.19
499.689	5887.57
499.892	5932.62
500.095	5996.11
500.298	6309.45
500.501	6282.83
500.705	6446.66
500.908	6299.21
501.111	6504.01
501.314	6673.99
501.517	6678.08
501.72	6604.36
501.923	6594.12
502.126	6886.98
502.329	6944.32
502.532	7013.95
502.735	7059.01
502.938	7124.54
503.141	7325.24
503.344	7450.17
503.547	7355.96
503.75	7673.4
503.953	7765.56
504.156	7851.57
504.359	7759.41
504.562	8066.61
504.765	8087.09
504.968	8304.17
505.17	8332.84
505.373	8486.44
505.576	8386.09
505.779	8574.5
505.982	8562.22
506.185	8652.33
506.387	8818.21
506.59	8889.89
506.793	9287.2
506.996	9113.12
507.198	9535
507.401	9301.53
507.604	9481.75
507.807	9674.26
508.009	9995.79
508.212	9995.79
508.415	10147.34
508.617	10092.05
508.82	10343.95
509.022	10415.63
509.225	10444.3
509.428	10618.38
509.63	10786.31
509.833	10782.21
510.035	10821.13
510.238	10857.99
510.44	11269.63
510.643	11214.34
510.845	11564.54
511.048	11374.08
511.25	11625.98
511.453	11705.85
511.655	12445.16
511.858	12160.5
512.06	12432.88
512.262	12273.14
512.465	12467.69
512.667	12670.44
512.87	12637.67
513.072	12969.44
513.274	13098.47
513.477	13049.32
513.679	13284.83
513.881	13653.47
514.084	13784.54
514.286	13499.87
514.488	13759.96
514.69	14175.7
514.893	14165.46
515.095	14314.96
515.297	14499.28
515.499	14454.22
515.701	14814.66
515.904	14849.48
516.106	14986.69
516.308	15218.11
516.51	15646.14
516.712	15637.95
516.914	16041.4
517.116	16174.52
517.318	16223.67
517.52	16119.22
517.722	16266.67
517.925	16491.95
518.127	16500.14
518.329	16848.3
518.531	16807.34
518.733	17348
518.935	17431.97
519.136	17571.23
519.338	17560.99
519.54	18079.13
519.742	18195.86
519.944	17935.77
520.146	18443.67
520.348	18447.76
520.55	18427.28
520.752	18763.15
520.954	19244.42
521.155	18978.19
521.357	19174.79
521.559	19545.47
521.761	19649.92
521.963	19717.5
522.164	19934.59
522.366	20100.47
522.568	20211.06
522.77	20137.34
522.971	20571.5
523.173	20415.86
523.375	20768.11
523.576	20882.8
523.778	21034.35
523.98	20890.99
524.181	21226.85
524.383	21351.78
524.584	21523.81
524.786	21775.71
524.988	21357.92
525.189	21681.5
525.391	22259.03
525.592	22185.3
525.794	22367.57
525.995	22586.71
526.197	22254.94
526.398	22572.37
526.6	22775.12
526.801	22756.69
527.003	22848.85
527.204	23000.4
527.406	23141.71
527.607	23483.72
527.808	23278.92
528.01	22871.37
528.211	23422.28
528.412	23838.01
528.614	23645.51
528.815	23588.16
529.016	23780.67
529.218	23528.77
529.419	23668.03
529.62	23930.17
529.822	24237.37
530.023	23719.23
530.224	23928.13
530.425	24022.33
530.626	23758.14
530.828	23729.47
531.029	24671.54
531.23	24347.96
531.431	24167.74
531.632	24511.8
531.833	24438.07
532.035	24292.66
532.236	24749.36
532.437	24669.49
532.638	24487.22
532.839	24724.79
533.04	24907.05
533.241	24601.91
533.442	24984.88
533.643	24657.2
533.844	24773.94
534.045	25019.69
534.246	24833.33
534.447	24859.95
534.648	24968.49
534.849	24481.08
535.05	24851.76
535.251	24909.1
535.451	25029.93
535.652	24722.74
535.853	24993.07
536.054	24886.57
536.255	24925.49
536.456	24487.22
536.657	25304.36
536.857	24743.22
537.058	24743.22
537.259	25013.55
537.46	25093.42
537.66	24728.88
537.861	24831.28
538.062	24751.41
538.263	25048.36
538.463	24845.62
538.664	24712.5
538.865	24798.51
539.065	24972.59
539.266	24519.99
539.466	25169.19
539.667	24622.39
539.868	25277.74
540.068	25058.6
540.269	24753.46
540.469	24964.4
540.67	24757.55
540.87	24853.81
541.071	24982.83
541.271	24888.62
541.472	24993.07
541.672	24835.38
541.873	24835.38
542.073	24550.71
542.274	24921.39
542.474	24892.72
542.675	24816.94
542.875	24673.59
543.075	25132.33
543.276	24546.61
543.476	25251.11
543.676	24679.73
543.877	24937.77
544.077	24683.83
544.277	24761.65
544.478	24888.62
544.678	25081.13
544.878	24718.64
545.078	24796.46
545.279	24614.2
545.479	24843.57
545.679	24804.66
545.879	25228.59
546.079	25017.64
546.28	24810.8
546.48	24540.47
546.68	24833.33
546.88	24675.63
547.08	24814.9
547.28	24524.08
547.48	24864.05
547.68	24620.34
547.88	24563
548.081	24880.43
548.281	24923.44
548.481	24724.79
548.681	24972.59
548.881	25206.06
549.081	24442.17
549.28	24741.17
549.48	24868.14
549.68	24532.28
549.88	24870.19
550.08	24501.56
550.28	24698.16
550.48	24649.01
550.68	24778.03
550.88	24485.17
551.08	24845.62
551.279	24780.08
551.479	24347.96
551.679	24569.14
551.879	24657.2
552.079	24720.69
552.278	24507.7
552.478	24700.21
552.678	24681.78
552.878	24517.94
553.077	24433.97
553.277	24489.27
553.477	24460.6
553.676	24382.77
553.876	24444.21
554.076	24495.41
554.275	24405.3
554.475	24251.7
554.674	24513.84
554.874	24687.92
555.074	24452.41
555.273	24313.14
555.473	24608.05
555.672	24331.58
555.872	24483.13
556.071	24456.5
556.271	24388.92
556.47	24184.12
556.67	23881.02
556.869	24280.38
557.068	24433.97
557.268	24180.03
557.467	24147.26
557.667	23934.27
557.866	23874.88
558.065	23868.73
558.265	23999.8
558.464	23622.98
558.663	24104.25
558.863	23600.45
559.062	23985.47
559.261	23782.72
559.461	24014.14
559.66	23514.44
559.859	24036.67
560.058	23588.16
560.258	23749.95
560.457	23604.55
560.656	23680.32
560.855	23197
561.054	23412.04
561.253	23231.82
561.453	23311.69
561.652	23287.11
561.851	23516.48
562.05	23311.69
562.249	23201.1
562.448	23057.74
562.647	23315.78
562.846	23121.23
563.045	23383.37
563.244	22885.71
563.443	23260.49
563.642	22795.6
563.841	22885.71
564.04	22629.71
564.239	22709.58
564.438	22611.28
564.637	22740.3
564.836	22938.96
565.035	22650.19
565.234	22703.44
565.432	22723.92
565.631	22494.55
565.83	22474.07
566.029	22439.25
566.228	22121.82
566.427	22414.68
566.625	22150.49
566.824	21931.36
567.023	22144.34
567.222	21790.05
567.42	22226.26
567.619	22050.14
567.818	21890.4
568.016	21888.35
568.215	22070.62
568.414	21755.23
568.612	21906.78
568.811	21914.97
569.01	22021.47
569.208	21257.57
569.407	21409.12
569.605	20970.86
569.804	21644.64
570.002	20962.67
570.201	21288.29
570.4	21241.19
570.598	21065.07
570.797	21157.22
570.995	20944.24
571.193	20733.29
571.392	20802.93
571.59	20634.99
571.789	20968.81
571.987	20774.25
572.186	20540.79
572.384	20716.91
572.582	20743.53
572.781	20379
572.979	20114.81
573.177	20479.35
573.376	20551.03
573.574	20147.58
573.772	20196.73
573.971	20157.82
574.169	19996.03
574.367	19858.81
574.565	19983.74
574.763	19862.91
574.962	19735.93
575.16	19707.26
575.358	19611.01
575.556	19404.16
575.754	19996.03
575.952	19486.08
576.151	19602.82
576.349	19514.75
576.547	19285.38
576.745	19426.69
576.943	19406.21
577.141	19133.83
577.339	19109.26
577.537	18961.8
577.735	19234.18
577.933	19066.25
578.131	19000.71
578.329	18849.16
578.527	18714
578.725	18888.07
578.923	18883.98
579.121	18613.65
579.319	18519.44
579.516	18603.41
579.714	18617.74
579.912	18498.96
580.11	18421.14
580.308	18439.57
580.506	18476.43
580.704	18038.17
580.901	18294.16
581.099	18363.79
581.297	18103.7
581.495	18281.88
581.692	17993.11
581.89	17913.24
582.088	18107.8
582.285	17640.86
582.483	17593.76
582.681	17690.01
582.878	17550.75
583.076	17483.17
583.274	17673.63
583.471	17634.72
583.669	17458.59
583.866	17522.08
584.064	17440.16
584.262	17391.01
584.459	17530.27
584.657	17087.91
584.854	17391.01
585.052	16913.83
585.249	17296.8
585.447	17083.81
585.644	16885.16
585.841	16930.22
586.039	17155.49
586.236	16752.04
586.434	16432.56
586.631	16702.89
586.828	16713.13
587.026	16750
587.223	16500.14
587.42	16735.66
587.618	16514.48
587.815	16410.03
588.012	16457.14
588.21	16604.59
588.407	16459.18
588.604	16188.85
588.801	16143.8
588.999	16113.08
589.196	16293.3
589.393	16231.86
589.59	15910.33
589.787	15895.99
589.984	16131.51
590.182	15766.97
590.379	15898.04
590.576	15637.95
590.773	15670.72
590.97	15822.27
591.167	15758.78
591.364	15420.86
591.561	15289.79
591.758	15334.85
591.955	15109.57
592.152	15427.01
592.349	15521.21
592.546	15236.55
592.743	15400.38
592.94	15146.44
593.137	15181.25
593.334	15265.22
593.531	15005.13
593.727	15048.13
593.924	15330.75
594.121	14685.64
594.318	15025.61
594.515	14708.17
594.712	14908.87
594.908	14867.91
595.105	14597.58
595.302	14620.11
595.499	14599.63
595.696	14443.98
595.892	14636.49
596.089	14697.93
596.286	14380.5
596.482	14642.64
596.679	14609.87
596.876	14300.62
597.072	14265.81
597.269	14314.96
597.466	14175.7
597.662	14349.78
597.859	14292.43
598.055	14161.36
598.252	14089.68
598.448	13917.65
598.645	14038.48
598.841	13878.74
599.038	14108.12
599.234	13862.36
599.431	13675.99
599.627	13768.15
599.824	13749.72
600.02	13604.32
600.217	13647.32
600.413	13530.59
600.609	13651.42
600.806	13542.88
601.002	13518.3
601.198	13555.16
601.395	13374.94
601.591	13260.26
601.787	13342.18
601.984	13290.98
602.18	13284.83
602.376	13139.43
602.572	13092.32
602.769	13186.53
602.965	12973.54
603.161	13323.74
603.357	12926.44
603.553	12916.2
603.75	12881.38
603.946	12938.73
604.142	12817.9
604.338	12582.38
604.534	12654.06
604.73	12637.67
604.926	12565.99
605.122	12686.83
605.318	12463.6
605.514	12371.44
605.71	12252.66
605.906	12613.1
606.102	12414.45
606.298	12281.33
606.494	12045.81
606.69	12064.24
606.886	12490.22
607.082	12086.77
607.278	12090.87
607.474	12066.29
607.67	12213.74
607.866	11910.64
608.062	11976.18
608.257	12023.28
608.453	12107.25
608.649	12013.04
608.845	11859.45
609.041	11822.58
609.236	11916.79
609.432	11845.11
609.628	11775.48
609.824	11552.25
610.019	11609.59
610.215	11836.92
610.411	11722.23
610.606	11603.45
610.802	11539.96
610.998	11609.59
611.193	11337.21
611.389	11474.43
611.584	11445.76
611.78	11691.51
611.976	11179.52
612.171	11345.41
612.367	11525.63
612.562	11353.6
612.758	11081.22
612.953	11265.53
613.149	11224.58
613.344	11103.75
613.539	11359.74
613.735	11159.04
613.93	11005.44
614.126	11288.06
614.321	11177.47
614.517	11027.97
614.712	11058.69
614.907	11032.07
615.103	11066.88
615.298	10722.82
615.493	11054.59
615.688	10792.45
615.884	10806.79
616.079	10673.67
616.274	10866.18
616.47	10720.78
616.665	10751.49
616.86	10761.73
617.055	10608.14
617.25	10456.59
617.445	10690.06
617.641	10466.83
617.836	10515.98
618.031	10440.2
618.226	10399.24
618.421	10405.39
618.616	10491.4
618.811	10278.41
619.006	10513.93
619.201	10214.93
619.396	10374.67
619.591	9985.55
619.786	10255.89
619.981	10077.71
620.176	10163.73
620.371	9747.99
620.566	10153.49
620.761	9950.74
620.956	9958.93
621.151	9829.91
621.346	9987.6
621.541	9725.46
621.735	10008.08
621.93	9684.5
622.125	9668.12
622.32	9537.05
622.515	9557.53
622.709	9459.23
622.904	9426.46
623.099	9424.41
623.294	9436.7
623.488	9076.26
623.683	9324.06
623.878	9256.48
624.072	9217.57
624.267	9092.64
624.462	9143.84
624.656	8996.39
624.851	9039.39
625.046	8912.42
625.24	8906.27
625.435	8896.03
625.629	8738.34
625.824	8517.16
626.018	8635.94
626.213	8574.5
626.407	8445.48
626.602	8500.78
626.796	8566.31
626.991	8447.53
627.185	8238.64
627.38	8390.19
627.574	8273.45
627.768	8308.27
627.963	8240.68
628.157	7962.16
628.352	8185.39
628.546	7904.82
628.74	8050.22
628.935	8011.31
629.129	8091.18
629.323	7861.81
629.517	7992.88
629.712	7835.19
629.906	7974.45
630.1	7552.57
630.294	7695.93
630.489	7611.96
630.683	7618.1
630.877	7552.57
631.071	7542.33
631.265	7579.19
631.459	7341.63
631.653	7321.15
631.848	7491.13
632.042	7319.1
632.236	7409.21
632.43	7306.81
632.624	7253.56
632.818	7063.1
633.012	7138.88
633.206	7183.93
633.4	7220.8
633.594	6950.46
633.788	7149.12
633.982	6927.94
634.176	7003.71
634.369	6954.56
634.563	7034.43
634.757	6788.68
634.951	6708.8
635.145	6809.15
635.339	6878.79
635.533	6792.77
635.726	6731.33
635.92	6649.41
636.114	6495.82
636.308	6684.23
636.501	6485.58
636.695	6520.39
636.889	6510.15
637.083	6452.81
637.276	6313.55
637.47	6381.13
637.664	6237.77
637.857	6196.81
638.051	6215.24
638.244	6184.52
638.438	6211.15
638.632	6067.79
638.825	6016.59
639.019	6094.41
639.212	5977.68
639.406	5989.97
639.599	6018.64
639.793	5844.56
639.986	5930.58
640.18	5924.43
640.373	5840.47
640.567	5660.24
640.76	5719.64
640.954	5688.92
641.147	5678.68
641.34	5447.26
641.534	5508.69
641.727	5652.05
641.92	5424.73
642.114	5445.21
642.307	5402.2
642.5	5264.99
642.694	5209.69
642.887	5291.61
643.08	5418.58
643.273	5305.95
643.467	5310.04
643.66	5217.88
643.853	5064.29
644.046	5187.16
644.239	5103.2
644.432	5006.94
644.626	5070.43
644.819	5082.72
645.012	5006.94
645.205	5035.61
645.398	5039.71
645.591	4898.4
645.784	4812.39
645.977	4765.28
646.17	5033.57
646.363	4798.05
646.556	4714.08
646.749	4808.29
646.942	4793.95
647.135	4671.08
647.328	4703.84
647.521	4527.72
647.714	4513.38
647.907	4669.03
648.099	4640.36
648.292	4417.13
648.485	4503.14
648.678	4560.49
648.871	4324.97
649.064	4314.73
649.256	4413.03
649.449	4306.54
649.642	4404.84
649.835	4208.23
650.027	4331.11
650.22	4265.58
650.413	4220.52
650.605	4216.43
650.798	4130.41
650.991	4083.31
651.183	4288.11
651.376	3960.43
651.568	4011.63
651.761	4036.21
651.954	3952.24
652.146	4103.79
652.339	3980.91
652.531	3958.38
652.724	4011.63
652.916	3933.81
653.109	3757.68
653.301	3825.26
653.494	3810.93
653.686	3782.26
653.879	3827.31
654.071	3710.58
654.263	3681.91
654.456	3716.72
654.648	3794.54
654.84	3645.04
655.033	3788.4
655.225	3659.38
655.417	3714.67
655.61	3645.04
655.802	3595.89
655.994	3563.12
656.186	3589.75
656.379	3450.49
656.571	3583.6
656.763	3366.52
656.955	3409.53
657.148	3561.08
657.34	3444.34
657.532	3405.43
657.724	3343.99
657.916	3409.53
658.108	3565.17
658.3	3231.35
658.492	3346.04
658.684	3356.28
658.876	3227.26
659.068	3231.35
659.26	3366.52
659.452	3186.3
659.644	3223.16
659.836	3131
660.028	3147.39
660.22	3053.18
660.412	3157.63
660.604	2993.79
660.796	3057.28
660.988	3085.95
661.18	2934.4
661.372	3053.18
661.563	2938.49
661.755	2963.07
661.947	3047.04
662.139	3047.04
662.331	2870.91
662.522	2891.39
662.714	2932.35
662.906	2864.77
663.097	2811.52
663.289	2829.95
663.481	2815.62
663.673	2907.77
663.864	2733.7
664.056	2778.75
664.247	2758.27
664.439	2682.5
664.631	2700.93
664.822	2737.79
665.014	2659.97
665.205	2721.41
665.397	2643.59
665.588	2799.23
665.78	2774.66
665.971	2549.38
666.163	2582.15
666.354	2592.39
666.546	2571.91
666.737	2537.09
666.929	2496.13
667.12	2518.66
667.311	2584.2
667.503	2528.9
667.694	2547.33
667.885	2571.91
668.077	2530.95
668.268	2516.61
668.459	2489.99
668.651	2475.65
668.842	2516.61
669.033	2315.91
669.224	2446.98
669.416	2453.13
669.607	2358.92
669.798	2389.64
669.989	2356.87
670.18	2309.77
670.371	2344.58
670.563	2434.69
670.754	2309.77
670.945	2293.38
671.136	2328.2
671.327	2217.61
671.518	2352.77
671.709	2277
671.9	2268.81
672.091	2303.62
672.282	2326.15
672.473	2143.88
672.664	2229.9
672.855	2205.32
673.046	2272.9
673.237	2143.88
673.428	2184.84
673.619	2291.34
673.809	2227.85
674	2150.03
674.191	2223.75
674.382	2156.17
674.573	2231.94
674.764	2168.46
674.954	2285.19
675.145	2180.75
675.336	2190.99
675.527	2158.22
675.717	2096.78
675.908	2092.68
676.099	2150.03
676.289	2096.78
676.48	2203.27
676.671	2158.22
676.861	2039.44
677.052	2098.83
677.243	2055.82
677.433	2012.81
677.624	1939.09
677.814	2147.98
678.005	2035.34
678.195	2014.86
678.386	2119.31
678.576	2109.07
678.767	2133.64
678.957	2023.05
679.148	2098.83
679.338	2031.24
679.529	2029.2
679.719	2012.81
679.909	2100.87
680.1	2117.26
680.29	2125.45
680.481	1998.48
680.671	1994.38
680.861	1922.7
681.052	1926.8
681.242	1932.94
681.432	2035.34
681.622	2047.63
681.813	2117.26
682.003	1994.38
682.193	2004.62
682.383	1971.85
682.573	2072.2
682.764	2082.44
682.954	2025.1
683.144	2074.25
683.334	2100.87
683.524	1928.85
683.714	2037.39
683.904	2049.68
684.094	1943.18
684.284	2018.96
684.474	1969.8
684.664	2035.34
684.854	1914.51
685.044	1973.9
685.234	2006.67
685.424	2018.96
685.614	1990.28
685.804	1984.14
685.994	2033.29
686.184	1934.99
686.374	2059.92
686.564	2021
686.753	1988.24
686.943	2002.57
687.133	1971.85
687.323	1994.38
687.513	1957.52
687.702	2014.86
687.892	1992.33
688.082	2023.05
688.272	1955.47
688.461	1990.28
688.651	2078.35
688.841	1971.85
689.03	1906.32
689.22	1951.37
689.41	1992.33
689.599	1855.12
689.789	1873.55
689.979	1848.97
690.168	2021
690.358	1939.09
690.547	1973.9
690.737	1900.17
690.926	2057.87
691.116	1943.18
691.305	2021
691.495	1885.84
691.684	1857.17
691.874	1937.04
692.063	2018.96
692.252	1967.76
692.442	1943.18
692.631	1912.46
692.82	1975.95
693.01	1916.56
693.199	1918.61
693.388	1877.65
693.578	1773.2
693.767	1926.8
693.956	1883.79
694.146	1848.97
694.335	1791.63
694.524	1885.84
694.713	1875.6
694.902	1922.7
695.092	1922.7
695.281	1943.18
695.47	1703.57
695.659	1916.56
695.848	1908.37
696.037	1832.59
696.226	1887.89
696.415	1879.69
696.604	1908.37
696.793	1803.92
696.982	1914.51
697.171	1973.9
697.36	1961.61
697.549	1820.3
697.738	1773.2
697.927	1891.98
698.116	1828.49
698.305	1859.21
698.494	1932.94
698.683	1771.15
698.872	1875.6
699.061	1879.69
699.25	1869.45
699.438	1898.13
699.627	1754.77
699.816	1754.77
700.005	1855.12
700.193	1717.9
700.382	1799.82
700.571	1844.88
700.76	1822.35
700.948	1738.38
701.137	1779.34
701.326	1844.88
701.514	1910.41
701.703	1822.35
701.892	1705.62
702.08	1760.91
702.269	1867.41
702.457	1773.2
702.646	1736.34
702.834	1752.72
703.023	1730.19
703.212	1783.44
703.4	1781.39
703.589	1793.68
703.777	1758.86
703.965	1724.05
704.154	1820.3
704.342	1717.9
704.531	1709.71
704.719	1656.47
704.907	1787.54
705.096	1765.01
705.284	1787.54
705.472	1814.16
705.661	1738.38
705.849	1689.23
706.037	1894.03
706.226	1660.56
706.414	1834.64
706.602	1666.71
706.79	1691.28
706.979	1623.7
707.167	1769.1
707.355	1658.51
707.543	1791.63
707.731	1736.34
707.919	1681.04
708.107	1705.62
708.296	1678.99
708.484	1740.43
708.672	1740.43
708.86	1750.67
709.048	1740.43
709.236	1715.86
709.424	1638.03
709.612	1652.37
709.8	1652.37
709.988	1689.23
710.176	1703.57
710.364	1660.56
710.551	1627.79
710.739	1732.24
710.927	1574.55
711.115	1582.74
711.303	1672.85
711.491	1603.22
711.679	1578.64
711.866	1668.75
712.054	1676.95
712.242	1644.18
712.43	1638.03
712.617	1640.08
712.805	1611.41
712.993	1660.56
713.181	1605.27
713.368	1660.56
713.556	1668.75
713.744	1613.46
713.931	1678.99
714.119	1576.59
714.306	1613.46
714.494	1640.08
714.682	1652.37
714.869	1549.97
715.057	1656.47
715.244	1578.64
715.432	1580.69
715.619	1558.16
715.807	1609.36
715.994	1527.44
716.182	1580.69
716.369	1447.57
716.556	1521.3
716.744	1545.88
716.931	1504.92
717.119	1588.88
717.306	1664.66
717.493	1468.05
717.681	1472.15
717.868	1562.26
718.055	1545.88
718.242	1527.44
718.43	1490.58
718.617	1525.4
718.804	1519.25
718.991	1525.4
719.179	1642.13
719.366	1478.29
719.553	1445.52
719.74	1492.63
719.927	1566.35
720.114	1496.72
720.301	1504.92
720.488	1502.87
720.676	1554.07
720.863	1541.78
721.05	1539.73
721.237	1441.43
721.424	1511.06
721.611	1545.88
721.798	1416.85
721.985	1449.62
722.172	1525.4
722.358	1480.34
722.545	1414.81
722.732	1490.58
722.919	1474.2
723.106	1423
723.293	1382.04
723.48	1519.25
723.667	1441.43
723.853	1492.63
724.04	1439.38
724.227	1506.96
724.414	1363.61
724.6	1451.67
724.787	1423
724.974	1506.96
725.161	1472.15
725.347	1332.89
725.534	1386.13
725.72	1447.57
725.907	1474.2
726.094	1425.04
726.28	1336.98
726.467	1447.57
726.653	1476.24
726.84	1488.53
727.027	1451.67
727.213	1400.47
727.4	1412.76
727.586	1373.85
727.773	1416.85
727.959	1349.27
728.145	1371.8
728.332	1425.04
728.518	1384.09
728.705	1410.71
728.891	1332.89
729.077	1447.57
729.264	1322.65
729.45	1455.76
729.636	1418.9
729.823	1369.75
730.009	1345.17
730.195	1441.43
730.382	1275.54
730.568	1433.24
730.754	1334.93
730.94	1425.04
731.126	1384.09
731.313	1416.85
731.499	1388.18
731.685	1283.74
731.871	1388.18
732.057	1435.28
732.243	1310.36
732.429	1447.57
732.615	1363.61
732.801	1363.61
732.987	1388.18
733.173	1367.7
733.359	1261.21
733.545	1355.41
733.731	1369.75
733.917	1377.94
734.103	1392.28
734.289	1412.76
734.475	1267.35
734.661	1355.41
734.847	1318.55
735.033	1355.41
735.219	1339.03
735.404	1359.51
735.59	1287.83
735.776	1304.21
735.962	1310.36
736.148	1283.74
736.333	1394.33
736.519	1351.32
736.705	1283.74
736.89	1375.89
737.076	1384.09
737.262	1300.12
737.447	1357.46
737.633	1302.17
737.819	1406.61
738.004	1384.09
738.19	1232.54
738.375	1357.46
738.561	1347.22
738.747	1302.17
738.932	1285.78
739.118	1285.78
739.303	1357.46
739.489	1320.6
739.674	1218.2
739.859	1318.55
740.045	1341.08
740.23	1246.87
740.416	1269.4
740.601	1275.54
740.786	1240.73
740.972	1250.97
741.157	1187.48
741.342	1169.05
741.528	1230.49
741.713	1210.01
741.898	1228.44
742.084	1212.06
742.269	1246.87
742.454	1308.31
742.639	1160.86
742.824	1314.45
743.01	1216.15
743.195	1117.85
743.38	1232.54
743.565	1242.78
743.75	1197.72
743.935	1136.28
744.12	1224.34
744.305	1218.2
744.49	1160.86
744.675	1152.67
744.86	1123.99
745.045	1183.38
745.23	1271.45
745.415	1140.38
745.6	1226.39
745.785	1054.36
745.97	1046.17
746.155	1189.53
746.34	1035.93
746.525	1156.76
746.71	1138.33
746.895	1091.23
747.079	1091.23
747.264	1001.12
747.449	1128.09
747.634	1091.23
747.819	999.07
748.003	982.68
748.188	1087.13
748.373	1128.09
748.557	1052.31
748.742	960.16
748.927	1021.6
749.111	988.83
749.296	1095.32
749.481	1103.51
749.665	1021.6
749.85	1050.27
750.034	1001.12
750.219	951.96
750.404	870.05
750.588	997.02
750.773	968.35
750.957	888.48
751.141	997.02
751.326	1023.64
751.51	841.37
751.695	1009.31
751.879	992.92
752.064	972.44
752.248	884.38
752.432	951.96
752.617	947.87
752.801	894.62
752.985	986.78
753.17	949.92
753.354	872.09
753.538	808.61
753.722	876.19
753.907	894.62
754.091	865.95
754.275	827.04
754.459	870.05
754.643	874.14
754.828	857.76
755.012	851.61
755.196	845.47
755.38	939.68
755.564	753.31
755.748	808.61
755.932	857.76
756.116	769.69
756.3	792.22
756.484	728.74
756.668	771.74
756.852	808.61
757.036	749.22
757.22	763.55
757.404	818.85
757.588	839.33
757.772	693.92
757.956	837.28
758.14	765.6
758.323	773.79
758.507	810.65
758.691	784.03
758.875	747.17
759.059	685.73
759.242	677.54
759.426	700.06
759.61	747.17
759.794	665.25
759.977	663.2
760.161	728.74
760.345	665.25
760.528	663.2
760.712	712.35
760.895	691.87
761.079	657.06
761.263	667.3
761.446	726.69
761.63	693.92
761.813	661.15
761.997	714.4
762.18	628.39
762.364	644.77
762.547	595.62
762.731	589.47
762.914	622.24
763.098	667.3
763.281	626.34
763.464	693.92
763.648	589.47
763.831	618.15
764.015	640.67
764.198	667.3
764.381	693.92
764.564	605.86
764.748	689.82
764.931	628.39
765.114	548.51
765.297	665.25
765.481	644.77
765.664	581.28
765.847	614.05
766.03	646.82
766.213	605.86
766.397	603.81
766.58	552.61
766.763	624.29
766.946	679.58
767.129	554.66
767.312	605.86
767.495	503.46
767.678	568.99
767.861	542.37
768.044	513.7
768.227	458.4
768.41	505.51
768.593	591.52
768.776	540.32
768.959	556.71
769.142	573.09
769.324	542.37
769.507	587.43
769.69	511.65
769.873	515.75
770.056	507.55
770.239	532.13
770.421	546.47
770.604	513.7
770.787	560.8
770.97	503.46
771.152	472.74
771.335	460.45
771.518	575.14
771.7	558.75
771.883	530.08
772.066	503.46
772.248	480.93
772.431	489.12
772.613	423.59
772.796	546.47
772.978	515.75
773.161	513.7
773.343	521.89
773.526	532.13
773.708	525.99
773.891	480.93
774.073	421.54
774.256	476.84
774.438	482.98
774.621	437.92
774.803	442.02
774.985	386.72
775.168	460.45
775.35	399.01
775.532	435.88
775.715	491.17
775.897	431.78
776.079	366.25
776.261	480.93
776.444	366.25
776.626	405.16
776.808	427.68
776.99	392.87
777.173	401.06
777.355	452.26
777.537	392.87
777.719	413.35
777.901	401.06
778.083	435.88
778.265	378.53
778.447	388.77
778.629	407.2
778.811	333.48
778.993	341.67
779.175	407.2
779.357	390.82
779.539	378.53
779.721	351.91
779.903	353.96
780.085	374.44
780.267	360.1
780.449	376.48
780.631	347.81
780.812	368.29
780.994	308.9
781.176	315.05
781.358	349.86
781.54	294.57
781.721	331.43
781.903	374.44
782.085	321.19
782.267	349.86
782.448	345.77
782.63	300.71
782.812	278.18
782.993	333.48
783.175	310.95
783.357	304.81
783.538	302.76
783.72	278.18
783.901	325.29
784.083	333.48
784.264	300.71
784.446	263.85
784.627	274.09
784.809	296.61
784.99	296.61
785.172	241.32
785.353	325.29
785.535	269.99
785.716	253.61
785.897	280.23
786.079	222.89
786.26	171.69
786.441	317.09
786.623	231.08
786.804	249.51
786.985	224.94
787.167	284.33
787.348	286.37
787.529	276.13
787.71	282.28
787.891	243.37
788.073	157.35
788.254	253.61
788.435	362.15
788.616	259.75
788.797	167.59
788.978	239.27
789.159	186.02
789.34	261.8
789.522	192.17
789.703	278.18
789.884	255.65
790.065	179.88
790.246	218.79
790.427	231.08
790.607	163.5
790.788	194.22
790.969	171.69
791.15	194.22
791.331	216.74
791.512	190.12
791.693	163.5
791.874	220.84
792.054	194.22
792.235	149.16
792.416	224.94
792.597	212.65
792.778	204.46
792.958	153.26
793.139	132.78
793.32	186.02
793.5	212.65
793.681	214.7
793.862	196.26
794.042	194.22
794.223	183.98
794.404	173.74
794.584	145.06
794.765	161.45
794.945	155.3
795.126	171.69
795.306	175.78
795.487	198.31
795.667	202.41
795.848	128.68
796.028	138.92
796.209	151.21
796.389	216.74
796.57	206.5
796.75	89.77
796.93	132.78
797.111	177.83
797.291	214.7
797.471	151.21
797.652	161.45
797.832	136.87
798.012	169.64
798.192	206.5
798.373	145.06
798.553	136.87
798.733	169.64
798.913	161.45
799.093	188.07
799.274	147.11
799.454	239.27
799.634	167.59
799.814	210.6
799.994	165.54
800.174	163.5
800.354	110.25
800.534	147.11
800.714	132.78
800.894	173.74
801.074	114.34
801.254	85.67
801.434	130.73
801.614	136.87
801.794	116.39
801.974	366.25
802.154	147.11
802.334	124.58
802.514	136.87
802.693	118.44
802.873	104.11
803.053	186.02
803.233	145.06
803.413	136.87
803.592	155.3
803.772	173.74
803.952	102.06
804.131	169.64
804.311	138.92
804.491	140.97
804.67	112.3
804.85	186.02
805.03	171.69
805.209	198.31
805.389	102.06
805.568	71.34
805.748	171.69
805.928	120.49
806.107	169.64
806.287	128.68
806.466	136.87
806.646	128.68
806.825	54.95
807.004	128.68
807.184	91.82
807.363	100.01
807.543	85.67
807.722	106.15
807.901	106.15
808.081	112.3
808.26	73.39
808.439	124.58
808.619	54.95
808.798	138.92
808.977	231.08
809.156	194.22
809.336	61.1
809.515	83.63
809.694	116.39
809.873	91.82
810.052	171.69
810.231	102.06
810.411	190.12
810.59	132.78
810.769	63.15
810.948	112.3
811.127	104.11
811.306	85.67
811.485	75.43
811.664	190.12
811.843	42.67
812.022	40.62
812.201	46.76
812.38	57
812.559	34.47
812.737	24.23
812.916	22.19
813.095	73.39
813.274	50.86
813.453	95.91
813.632	97.96
813.811	89.77
813.989	147.11
814.168	91.82
814.347	93.87
814.526	75.43
814.704	24.23
814.883	126.63
815.062	106.15
815.24	81.58
815.419	136.87
815.598	81.58
815.776	-12.63
815.955	73.39
816.133	132.78
816.312	69.29
816.49	95.91
816.669	116.39
816.847	44.71
817.026	95.91
817.204	34.47
817.383	67.24
817.561	65.19
817.74	116.39
817.918	75.43
818.097	65.19
818.275	134.82
818.453	54.95
818.632	100.01
818.81	138.92
818.988	100.01
819.167	97.96
819.345	16.04
819.523	-33.11
819.701	63.15
819.879	63.15
820.058	24.23
820.236	89.77
820.414	81.58
820.592	91.82
820.77	24.23
820.948	122.54
821.127	69.29
821.305	77.48
821.483	46.76
821.661	63.15
821.839	28.33
822.017	20.14
822.195	18.09
822.373	106.15
822.551	89.77
822.729	188.07
822.907	159.4
823.085	18.09
823.262	110.25
823.44	79.53
823.618	52.91
823.796	50.86
823.974	16.04
824.152	67.24
824.329	110.25
824.507	13.99
824.685	106.15
824.863	52.91
825.04	11.95
825.218	75.43
825.396	24.23
825.574	26.28
825.751	122.54
825.929	83.63
826.107	34.47
826.284	91.82
826.462	30.38
826.639	71.34
826.817	13.99
826.994	38.57
827.172	38.57
827.349	42.67
827.527	16.04
827.704	30.38
827.882	-6.49
828.059	18.09
828.237	46.76
828.414	42.67
828.591	79.53
828.769	71.34
828.946	102.06
829.124	59.05
829.301	97.96
829.478	54.95
829.655	54.95
829.833	77.48
830.01	34.47
830.187	26.28
830.364	-24.92
830.542	18.09
830.719	106.15
830.896	75.43
831.073	11.95
831.25	57
831.427	24.23
831.604	85.67
831.782	-10.58
831.959	40.62
832.136	26.28
832.313	30.38
832.49	46.76
832.667	20.14
832.844	24.23
833.021	102.06
833.198	1.71
833.374	26.28
833.551	38.57
833.728	44.71
833.905	71.34
834.082	18.09
834.259	40.62
834.436	-63.83
834.612	79.53
834.789	63.15
834.966	38.57
835.143	28.33
835.319	-31.06
835.496	59.05
835.673	46.76
835.85	118.44
836.026	67.24
836.203	67.24
836.38	38.57
836.556	38.57
836.733	63.15
836.909	52.91
837.086	7.85
837.262	69.29
837.439	65.19
837.616	16.04
837.792	63.15
837.968	38.57
838.145	-31.06
838.321	-0.34
838.498	38.57
838.674	40.62
838.851	120.49
839.027	34.47
839.203	38.57
839.38	-0.34
839.556	-2.39
839.732	85.67
839.909	52.91
840.085	54.95
840.261	-45.4
840.437	32.43
840.614	-22.87
840.79	61.1
840.966	30.38
841.142	38.57
841.318	-20.82
841.494	63.15
841.671	57
841.847	63.15
842.023	38.57
842.199	79.53
842.375	40.62
842.551	-74.07
842.727	36.52
842.903	-20.82
843.079	57
843.255	30.38
843.431	9.9
843.607	46.76
843.783	-14.68
843.959	28.33
844.134	65.19
844.31	54.95
844.486	100.01
844.662	-4.44
844.838	46.76
845.013	46.76
845.189	46.76
845.365	79.53
845.541	-24.92
845.716	57
845.892	5.8
846.068	-10.58
846.244	61.1
846.419	-14.68
846.595	-10.58
846.77	-16.73
846.946	-16.73
847.122	-55.64
847.297	-8.53
847.473	38.57
847.648	-6.49
847.824	65.19
847.999	77.48
848.175	57
848.35	20.14
848.526	100.01
848.701	102.06
848.876	71.34
849.052	87.72
849.227	32.43
849.403	-33.11
849.578	40.62
849.753	-39.25
849.929	65.19
850.104	-45.4
850.279	34.47
850.454	91.82
850.63	57
850.805	40.62
850.98	9.9
851.155	40.62
851.33	24.23
851.505	-35.16
851.681	93.87
851.856	-16.73
852.031	-12.63
852.206	3.75
852.381	-49.49
852.556	18.09
852.731	11.95
852.906	-22.87
853.081	67.24
853.256	50.86
853.431	9.9
853.606	57
853.781	-2.39
853.956	-39.25
854.131	83.63
854.305	63.15
854.48	9.9
854.655	18.09
854.83	65.19
855.005	-8.53
855.18	-35.16
855.354	-14.68
855.529	42.67
855.704	5.8
855.879	61.1
856.053	83.63
856.228	7.85
856.403	44.71
856.577	-6.49
856.752	-55.64
856.926	46.76
857.101	59.05
857.276	-37.2
857.45	13.99
857.625	48.81
857.799	50.86
857.974	9.9
858.148	-2.39
858.323	-0.34
858.497	77.48
858.672	-8.53
858.846	42.67
859.02	67.24
859.195	1.71
859.369	3.75
859.543	-8.53
859.718	18.09
859.892	-41.3
860.066	11.95
860.241	69.29
860.415	-2.39
860.589	3.75
860.763	-0.34
860.938	-6.49
861.112	5.8
861.286	32.43
861.46	42.67
861.634	16.04
861.808	-53.59
861.982	-39.25
862.157	61.1
862.331	-31.06
862.505	11.95
862.679	1.71
862.853	13.99
863.027	9.9
863.201	110.25
863.375	30.38
863.549	42.67
863.722	54.95
863.896	87.72
864.07	24.23
864.244	-45.4
864.418	63.15
864.592	-4.44
864.766	-6.49
864.939	104.11
865.113	-24.92
865.287	11.95
865.461	48.81
865.634	97.96
865.808	-0.34
865.982	52.91
866.156	-16.73
866.329	-59.73
866.503	-0.34
866.676	-45.4
866.85	-6.49
867.024	46.76
867.197	-65.88
867.371	26.28
867.544	-14.68
867.718	-37.2
867.891	-8.53
868.065	46.76
868.238	-26.96
868.412	-29.01
868.585	1.71
868.759	32.43
868.932	-29.01
869.105	30.38
869.279	-59.73
869.452	13.99
869.625	9.9
869.799	-20.82
869.972	-0.34
870.145	3.75
870.319	46.76
870.492	-31.06
870.665	5.8
870.838	22.19
871.011	-39.25
871.185	28.33
871.358	-33.11
871.531	87.72
871.704	28.33
871.877	-4.44
872.05	36.52
872.223	-59.73
872.396	22.19
872.569	67.24
872.742	-24.92
872.915	54.95
873.088	-37.2
873.261	-2.39
873.434	-6.49
873.607	16.04
873.78	77.48
873.953	-18.77
874.126	-12.63
874.299	32.43
874.471	-18.77
874.644	26.28
874.817	-12.63
874.99	63.15
875.163	9.9
875.335	52.91
875.508	7.85
875.681	32.43
875.853	24.23
876.026	9.9
876.199	-6.49
876.371	81.58
876.544	-37.2
876.717	-10.58
876.889	-24.92
877.062	-18.77
877.234	-53.59
877.407	-31.06
877.579	87.72
877.752	26.28
877.924	22.19
878.097	5.8
878.269	22.19
878.442	11.95
878.614	52.91
878.786	-92.5
878.959	-24.92
879.131	-4.44
879.303	-8.53
879.476	16.04
879.648	-45.4
879.82	-18.77
879.993	18.09
880.165	-10.58
880.337	-2.39
880.509	11.95
880.681	-35.16
880.854	22.19
881.026	1.71
881.198	75.43
881.37	-14.68
881.542	30.38
881.714	-22.87
881.886	-2.39
882.058	-57.68
882.23	-10.58
882.402	-0.34
882.574	26.28
882.746	57
882.918	54.95
883.09	44.71
883.262	-43.35
883.434	-24.92
883.606	-6.49
883.778	13.99
883.95	-6.49
884.122	63.15
884.293	38.57
884.465	13.99
884.637	-35.16
884.809	-6.49
884.98	-14.68
885.152	30.38
885.324	-39.25
885.496	22.19
885.667	-49.49
885.839	-14.68
886.011	3.75
886.182	-8.53
886.354	22.19
886.525	9.9
886.697	5.8
886.869	-12.63
887.04	-8.53
887.212	16.04
887.383	54.95
887.555	-33.11
887.726	-14.68
887.897	-29.01
888.069	81.58
888.24	1.71
888.412	69.29
888.583	24.23
888.754	-35.16
888.926	-35.16
889.097	3.75
889.268	-14.68
889.44	34.47
889.611	24.23
889.782	-35.16
889.953	-22.87
890.125	-14.68
890.296	16.04
890.467	54.95
890.638	-37.2
890.809	-10.58
890.98	-106.84
891.151	-4.44
891.323	-31.06
891.494	7.85
891.665	36.52
891.836	-51.54
892.007	9.9
892.178	-2.39
892.349	65.19
892.52	-84.31
892.691	-4.44
892.862	22.19
893.032	-8.53
893.203	-22.87
893.374	-57.68
893.545	-18.77
893.716	-88.4
893.887	-8.53
894.057	-104.79
894.228	24.23
894.399	-39.25
894.57	95.91
894.74	-8.53
894.911	5.8
895.082	-39.25
895.253	24.23
895.423	46.76
895.594	50.86
895.764	-33.11
895.935	-12.63
896.106	-31.06
896.276	30.38
896.447	34.47
896.617	16.04
896.788	11.95
896.958	81.58
897.129	-12.63
897.299	26.28
897.47	-6.49
897.64	40.62
897.81	-22.87
897.981	24.23
898.151	-26.96
898.322	46.76
898.492	16.04
898.662	-43.35
898.832	-49.49
899.003	63.15
899.173	1.71
899.343	20.14
899.513	-47.44
