Data from USB4F104151__98__13-00-16-178.txt Node

Date: Fri Mar 14 13:00:16 EDT 2025
User: louis
Spectrometer: USB4F10415
Trigger mode: 4
Integration Time (sec): 1.000000E-2
Scans to average: 1
Electric dark correction enabled: true
Nonlinearity correction enabled: false
Boxcar width: 0
XAxis mode: Wavelengths
Number of Pixels in Spectrum: 3648
>>>>>Begin Spectral Data<<<<<
178.204	-25.09
178.424	-25.09
178.644	-25.09
178.864	-37.38
179.084	-35.33
179.304	-14.85
179.524	24.06
179.744	24.06
179.964	-27.14
180.184	-29.18
180.404	30.21
180.624	-20.99
180.844	3.58
181.064	-4.61
181.283	15.87
181.503	54.78
181.723	-55.81
181.943	7.68
182.163	-8.7
182.383	-68.09
182.602	42.5
182.822	-45.57
183.042	-43.52
183.262	11.78
183.482	-53.76
183.701	26.11
183.921	56.83
184.141	19.97
184.361	-12.8
184.58	-47.62
184.8	-2.56
185.02	-45.57
185.239	-0.51
185.459	46.59
185.679	71.17
185.898	54.78
186.118	-55.81
186.338	-14.85
186.557	9.73
186.777	3.58
186.997	3.58
187.216	5.63
187.436	62.98
187.655	15.87
187.875	60.93
188.095	-25.09
188.314	13.82
188.534	-27.14
188.753	73.21
188.973	-14.85
189.192	-10.75
189.412	73.21
189.631	-43.52
189.851	26.11
190.07	-10.75
190.29	-10.75
190.509	-29.18
190.729	-53.76
190.948	110.08
191.168	-2.56
191.387	99.84
191.607	124.41
191.826	30.21
192.045	-59.9
192.265	1.54
192.484	5.63
192.704	22.02
192.923	38.4
193.142	26.11
193.362	-39.42
193.581	-27.14
193.8	40.45
194.02	-31.23
194.239	-41.47
194.458	-78.33
194.678	32.26
194.897	60.93
195.116	-25.09
195.335	-4.61
195.555	42.5
195.774	-8.7
195.993	11.78
196.212	-29.18
196.432	28.16
196.651	3.58
196.87	103.93
197.089	15.87
197.308	-66.05
197.528	60.93
197.747	-45.57
197.966	36.35
198.185	28.16
198.404	-10.75
198.623	34.3
198.842	-14.85
199.062	60.93
199.281	52.74
199.5	-57.86
199.719	26.11
199.938	3.58
200.157	60.93
200.376	-53.76
200.595	58.88
200.814	58.88
201.033	-4.61
201.252	60.93
201.471	-18.94
201.69	-23.04
201.909	22.02
202.128	-31.23
202.347	19.97
202.566	-45.57
202.785	62.98
203.004	-25.09
203.223	69.12
203.442	-35.33
203.661	34.3
203.879	50.69
204.098	54.78
204.317	-70.14
204.536	36.35
204.755	-8.7
204.974	-2.56
205.193	-57.86
205.411	-4.61
205.63	-4.61
205.849	24.06
206.068	-0.51
206.287	1.54
206.505	95.74
206.724	34.3
206.943	7.68
207.162	44.54
207.381	-61.95
207.599	17.92
207.818	40.45
208.037	-12.8
208.255	-53.76
208.474	3.58
208.693	15.87
208.911	34.3
209.13	-66.05
209.349	7.68
209.567	60.93
209.786	71.17
210.005	22.02
210.223	-14.85
210.442	-18.94
210.661	-2.56
210.879	-35.33
211.098	77.31
211.316	19.97
211.535	-6.66
211.753	7.68
211.972	81.41
212.191	-37.38
212.409	11.78
212.628	-2.56
212.846	62.98
213.065	13.82
213.283	22.02
213.502	-49.66
213.72	28.16
213.938	-0.51
214.157	19.97
214.375	-35.33
214.594	7.68
214.812	-12.8
215.031	-49.66
215.249	22.02
215.467	7.68
215.686	56.83
215.904	17.92
216.122	28.16
216.341	24.06
216.559	79.36
216.778	-12.8
216.996	-10.75
217.214	-29.18
217.432	-51.71
217.651	-57.86
217.869	-23.04
218.087	67.07
218.306	-20.99
218.524	-61.95
218.742	-2.56
218.96	19.97
219.179	71.17
219.397	32.26
219.615	-16.9
219.833	15.87
220.051	-43.52
220.27	-20.99
220.488	40.45
220.706	54.78
220.924	11.78
221.142	-2.56
221.36	3.58
221.578	69.12
221.796	-6.66
222.015	-33.28
222.233	32.26
222.451	-14.85
222.669	-29.18
222.887	-4.61
223.105	34.3
223.323	-51.71
223.541	-41.47
223.759	42.5
223.977	5.63
224.195	52.74
224.413	30.21
224.631	-41.47
224.849	54.78
225.067	95.74
225.285	-66.05
225.503	44.54
225.721	-41.47
225.939	-35.33
226.157	81.41
226.375	36.35
226.592	5.63
226.81	-20.99
227.028	34.3
227.246	77.31
227.464	-14.85
227.682	-23.04
227.9	30.21
228.117	110.08
228.335	-39.42
228.553	17.92
228.771	-88.57
228.989	-41.47
229.206	-90.62
229.424	-27.14
229.642	-33.28
229.86	13.82
230.077	48.64
230.295	-2.56
230.513	-45.57
230.731	22.02
230.948	15.87
231.166	79.36
231.384	15.87
231.601	19.97
231.819	15.87
232.037	42.5
232.254	26.11
232.472	5.63
232.689	13.82
232.907	26.11
233.125	-2.56
233.342	9.73
233.56	19.97
233.777	1.54
233.995	32.26
234.213	22.02
234.43	19.97
234.648	-35.33
234.865	-4.61
235.083	-39.42
235.3	54.78
235.518	-2.56
235.735	36.35
235.953	-10.75
236.17	67.07
236.388	60.93
236.605	-43.52
236.822	9.73
237.04	5.63
237.257	1.54
237.475	11.78
237.692	-41.47
237.909	5.63
238.127	1.54
238.344	-20.99
238.562	-94.72
238.779	5.63
238.996	-12.8
239.214	-39.42
239.431	-2.56
239.648	15.87
239.865	-68.09
240.083	69.12
240.3	-20.99
240.517	34.3
240.735	44.54
240.952	13.82
241.169	15.87
241.386	-12.8
241.603	17.92
241.821	65.02
242.038	-0.51
242.255	-0.51
242.472	-47.62
242.689	34.3
242.907	26.11
243.124	48.64
243.341	38.4
243.558	-27.14
243.775	3.58
243.992	50.69
244.209	30.21
244.426	67.07
244.643	5.63
244.86	48.64
245.078	9.73
245.295	50.69
245.512	-51.71
245.729	15.87
245.946	48.64
246.163	-27.14
246.38	50.69
246.597	17.92
246.814	-45.57
247.031	40.45
247.248	5.63
247.464	-47.62
247.681	54.78
247.898	13.82
248.115	-4.61
248.332	-4.61
248.549	38.4
248.766	44.54
248.983	3.58
249.2	-23.04
249.417	-43.52
249.633	19.97
249.85	17.92
250.067	13.82
250.284	-16.9
250.501	52.74
250.717	15.87
250.934	3.58
251.151	30.21
251.368	-51.71
251.585	-55.81
251.801	-16.9
252.018	22.02
252.235	-4.61
252.451	-14.85
252.668	36.35
252.885	7.68
253.102	-43.52
253.318	38.4
253.535	-8.7
253.752	17.92
253.968	-39.42
254.185	-12.8
254.401	38.4
254.618	99.84
254.835	-8.7
255.051	75.26
255.268	19.97
255.484	44.54
255.701	22.02
255.917	-41.47
256.134	40.45
256.351	46.59
256.567	48.64
256.784	32.26
257	-45.57
257.217	40.45
257.433	-4.61
257.65	26.11
257.866	-6.66
258.082	36.35
258.299	-29.18
258.515	44.54
258.732	7.68
258.948	-20.99
259.165	-8.7
259.381	38.4
259.597	9.73
259.814	81.41
260.03	1.54
260.246	11.78
260.463	79.36
260.679	38.4
260.895	-27.14
261.112	-35.33
261.328	15.87
261.544	-20.99
261.761	15.87
261.977	17.92
262.193	-20.99
262.409	-4.61
262.626	99.84
262.842	-10.75
263.058	-8.7
263.274	9.73
263.49	3.58
263.707	108.03
263.923	-8.7
264.139	9.73
264.355	-23.04
264.571	15.87
264.787	-55.81
265.004	-10.75
265.22	19.97
265.436	-12.8
265.652	-2.56
265.868	5.63
266.084	-94.72
266.3	13.82
266.516	-18.94
266.732	9.73
266.948	44.54
267.164	-37.38
267.38	1.54
267.596	-10.75
267.812	38.4
268.028	22.02
268.244	42.5
268.46	-2.56
268.676	-31.23
268.892	56.83
269.108	-20.99
269.324	38.4
269.54	69.12
269.756	11.78
269.972	-8.7
270.188	22.02
270.403	-18.94
270.619	42.5
270.835	99.84
271.051	-43.52
271.267	52.74
271.483	19.97
271.698	52.74
271.914	3.58
272.13	67.07
272.346	-53.76
272.562	69.12
272.777	38.4
272.993	-59.9
273.209	-12.8
273.425	44.54
273.64	67.07
273.856	34.3
274.072	19.97
274.287	48.64
274.503	-29.18
274.719	-20.99
274.934	-53.76
275.15	9.73
275.366	5.63
275.581	-20.99
275.797	24.06
276.012	28.16
276.228	3.58
276.444	-14.85
276.659	19.97
276.875	-25.09
277.09	-8.7
277.306	19.97
277.521	5.63
277.737	11.78
277.952	42.5
278.168	-14.85
278.383	3.58
278.599	13.82
278.814	24.06
279.03	-6.66
279.245	50.69
279.461	28.16
279.676	9.73
279.892	-20.99
280.107	28.16
280.322	-4.61
280.538	-0.51
280.753	17.92
280.969	15.87
281.184	-70.14
281.399	69.12
281.615	3.58
281.83	19.97
282.045	19.97
282.26	-10.75
282.476	-33.28
282.691	3.58
282.906	-18.94
283.122	30.21
283.337	38.4
283.552	1.54
283.767	-2.56
283.983	42.5
284.198	69.12
284.413	-29.18
284.628	-16.9
284.843	-43.52
285.058	-2.56
285.274	24.06
285.489	-43.52
285.704	22.02
285.919	48.64
286.134	-27.14
286.349	-14.85
286.564	-4.61
286.779	-39.42
286.995	5.63
287.21	-16.9
287.425	13.82
287.64	91.65
287.855	30.21
288.07	-2.56
288.285	1.54
288.5	22.02
288.715	36.35
288.93	-47.62
289.145	-51.71
289.36	19.97
289.575	56.83
289.79	36.35
290.004	36.35
290.219	-16.9
290.434	13.82
290.649	7.68
290.864	13.82
291.079	-12.8
291.294	11.78
291.509	85.5
291.724	5.63
291.938	-35.33
292.153	40.45
292.368	3.58
292.583	22.02
292.798	-12.8
293.012	-41.47
293.227	-84.48
293.442	93.69
293.657	-33.28
293.871	32.26
294.086	42.5
294.301	3.58
294.516	-70.14
294.73	-20.99
294.945	9.73
295.16	56.83
295.374	-8.7
295.589	30.21
295.804	30.21
296.018	5.63
296.233	-49.66
296.447	17.92
296.662	3.58
296.877	-20.99
297.091	26.11
297.306	-59.9
297.52	-27.14
297.735	13.82
297.949	-8.7
298.164	36.35
298.378	9.73
298.593	-0.51
298.807	9.73
299.022	-8.7
299.236	-53.76
299.451	3.58
299.665	36.35
299.88	40.45
300.094	13.82
300.309	-39.42
300.523	-43.52
300.737	3.58
300.952	28.16
301.166	71.17
301.381	30.21
301.595	13.82
301.809	-16.9
302.024	-2.56
302.238	9.73
302.452	9.73
302.667	17.92
302.881	40.45
303.095	13.82
303.309	17.92
303.524	83.45
303.738	-37.38
303.952	54.78
304.166	58.88
304.381	-23.04
304.595	-6.66
304.809	1.54
305.023	85.5
305.237	32.26
305.452	1.54
305.666	19.97
305.88	-37.38
306.094	3.58
306.308	73.21
306.522	-45.57
306.736	-14.85
306.95	13.82
307.164	-8.7
307.379	32.26
307.593	-41.47
307.807	34.3
308.021	22.02
308.235	54.78
308.449	30.21
308.663	-23.04
308.877	-23.04
309.091	28.16
309.305	-59.9
309.519	7.68
309.733	52.74
309.947	1.54
310.161	32.26
310.374	60.93
310.588	99.84
310.802	58.88
311.016	9.73
311.23	42.5
311.444	22.02
311.658	-20.99
311.872	-18.94
312.085	-33.28
312.299	69.12
312.513	-18.94
312.727	58.88
312.941	30.21
313.154	99.84
313.368	26.11
313.582	48.64
313.796	-18.94
314.009	48.64
314.223	-2.56
314.437	132.61
314.651	-76.29
314.864	17.92
315.078	-16.9
315.292	-35.33
315.505	-12.8
315.719	-43.52
315.933	-25.09
316.146	44.54
316.36	17.92
316.573	7.68
316.787	13.82
317.001	13.82
317.214	3.58
317.428	11.78
317.641	-25.09
317.855	62.98
318.068	81.41
318.282	19.97
318.495	58.88
318.709	-41.47
318.922	19.97
319.136	-29.18
319.349	-10.75
319.563	-10.75
319.776	48.64
319.99	28.16
320.203	48.64
320.417	-20.99
320.63	-20.99
320.843	42.5
321.057	17.92
321.27	-10.75
321.483	-29.18
321.697	95.74
321.91	69.12
322.124	22.02
322.337	44.54
322.55	87.55
322.763	13.82
322.977	-4.61
323.19	-29.18
323.403	38.4
323.617	-27.14
323.83	17.92
324.043	38.4
324.256	-31.23
324.469	-12.8
324.683	5.63
324.896	1.54
325.109	46.59
325.322	-39.42
325.535	5.63
325.748	11.78
325.962	44.54
326.175	-8.7
326.388	-4.61
326.601	-4.61
326.814	38.4
327.027	-49.66
327.24	71.17
327.453	9.73
327.666	-35.33
327.879	34.3
328.092	56.83
328.305	7.68
328.518	3.58
328.731	-76.29
328.944	-10.75
329.157	-12.8
329.37	-27.14
329.583	-47.62
329.796	38.4
330.009	-76.29
330.222	-55.81
330.435	-45.57
330.648	28.16
330.861	-49.66
331.073	24.06
331.286	-0.51
331.499	3.58
331.712	-14.85
331.925	-68.09
332.138	11.78
332.35	42.5
332.563	5.63
332.776	32.26
332.989	5.63
333.202	-4.61
333.414	69.12
333.627	-4.61
333.84	-33.28
334.053	-64
334.265	40.45
334.478	40.45
334.691	7.68
334.903	77.31
335.116	-20.99
335.329	-8.7
335.541	-35.33
335.754	-49.66
335.966	54.78
336.179	3.58
336.392	48.64
336.604	30.21
336.817	11.78
337.029	15.87
337.242	-14.85
337.454	3.58
337.667	-25.09
337.88	67.07
338.092	1.54
338.305	77.31
338.517	38.4
338.729	28.16
338.942	-6.66
339.154	24.06
339.367	-16.9
339.579	52.74
339.792	5.63
340.004	-0.51
340.217	9.73
340.429	7.68
340.641	-0.51
340.854	3.58
341.066	11.78
341.278	3.58
341.491	22.02
341.703	54.78
341.915	-31.23
342.128	50.69
342.34	-18.94
342.552	26.11
342.764	9.73
342.977	-16.9
343.189	24.06
343.401	-8.7
343.613	3.58
343.826	-61.95
344.038	-23.04
344.25	60.93
344.462	32.26
344.674	-12.8
344.886	5.63
345.099	17.92
345.311	-14.85
345.523	56.83
345.735	42.5
345.947	44.54
346.159	-14.85
346.371	3.58
346.583	26.11
346.795	17.92
347.007	9.73
347.219	3.58
347.431	-29.18
347.643	-20.99
347.855	-51.71
348.067	60.93
348.279	-10.75
348.491	30.21
348.703	28.16
348.915	11.78
349.127	3.58
349.339	44.54
349.551	52.74
349.763	19.97
349.975	54.78
350.187	108.03
350.399	67.07
350.61	69.12
350.822	19.97
351.034	17.92
351.246	19.97
351.458	22.02
351.669	85.5
351.881	15.87
352.093	40.45
352.305	56.83
352.517	-4.61
352.728	40.45
352.94	-10.75
353.152	34.3
353.363	67.07
353.575	-4.61
353.787	-31.23
353.999	48.64
354.21	1.54
354.422	34.3
354.633	42.5
354.845	65.02
355.057	-12.8
355.268	95.74
355.48	46.59
355.692	-8.7
355.903	26.11
356.115	-12.8
356.326	32.26
356.538	-45.57
356.749	-20.99
356.961	-51.71
357.172	-12.8
357.384	48.64
357.595	50.69
357.807	5.63
358.018	-68.09
358.23	-43.52
358.441	-10.75
358.653	22.02
358.864	-16.9
359.075	38.4
359.287	30.21
359.498	44.54
359.709	-10.75
359.921	-0.51
360.132	-10.75
360.344	-4.61
360.555	3.58
360.766	42.5
360.977	-80.38
361.189	44.54
361.4	52.74
361.611	58.88
361.823	15.87
362.034	24.06
362.245	-6.66
362.456	30.21
362.667	-29.18
362.879	60.93
363.09	54.78
363.301	-0.51
363.512	-61.95
363.723	28.16
363.935	-51.71
364.146	13.82
364.357	-35.33
364.568	-8.7
364.779	-2.56
364.99	60.93
365.201	15.87
365.412	79.36
365.623	-43.52
365.834	15.87
366.045	77.31
366.256	58.88
366.467	-18.94
366.678	65.02
366.889	-61.95
367.1	42.5
367.311	5.63
367.522	-2.56
367.733	19.97
367.944	30.21
368.155	7.68
368.366	9.73
368.577	77.31
368.788	56.83
368.999	-18.94
369.209	19.97
369.42	-33.28
369.631	71.17
369.842	1.54
370.053	19.97
370.264	-45.57
370.474	1.54
370.685	-0.51
370.896	5.63
371.107	-33.28
371.317	24.06
371.528	5.63
371.739	-27.14
371.95	24.06
372.16	24.06
372.371	15.87
372.582	44.54
372.792	34.3
373.003	-33.28
373.214	48.64
373.424	-10.75
373.635	67.07
373.846	22.02
374.056	11.78
374.267	22.02
374.477	48.64
374.688	19.97
374.898	110.08
375.109	34.3
375.319	22.02
375.53	46.59
375.74	15.87
375.951	48.64
376.161	22.02
376.372	-8.7
376.582	71.17
376.793	28.16
377.003	3.58
377.214	44.54
377.424	-6.66
377.635	5.63
377.845	-0.51
378.055	-23.04
378.266	44.54
378.476	52.74
378.686	19.97
378.897	30.21
379.107	15.87
379.317	71.17
379.528	-4.61
379.738	54.78
379.948	7.68
380.158	62.98
380.369	-57.86
380.579	7.68
380.789	85.5
380.999	52.74
381.21	-41.47
381.42	17.92
381.63	40.45
381.84	46.59
382.05	-16.9
382.261	32.26
382.471	65.02
382.681	1.54
382.891	105.98
383.101	19.97
383.311	-14.85
383.521	32.26
383.731	38.4
383.941	-10.75
384.151	46.59
384.361	7.68
384.571	-10.75
384.781	26.11
384.991	50.69
385.201	30.21
385.411	-4.61
385.621	-29.18
385.831	34.3
386.041	17.92
386.251	52.74
386.461	-25.09
386.671	28.16
386.881	38.4
387.091	30.21
387.301	36.35
387.511	22.02
387.72	-37.38
387.93	85.5
388.14	-25.09
388.35	-35.33
388.56	71.17
388.769	7.68
388.979	30.21
389.189	-12.8
389.399	-12.8
389.609	30.21
389.818	110.08
390.028	7.68
390.238	-33.28
390.447	3.58
390.657	30.21
390.867	9.73
391.076	-31.23
391.286	-6.66
391.496	-49.66
391.705	-29.18
391.915	46.59
392.125	79.36
392.334	85.5
392.544	91.65
392.753	-18.94
392.963	13.82
393.172	-16.9
393.382	42.5
393.591	62.98
393.801	-16.9
394.01	11.78
394.22	28.16
394.429	-20.99
394.639	-25.09
394.848	103.93
395.058	19.97
395.267	95.74
395.477	52.74
395.686	71.17
395.895	58.88
396.105	46.59
396.314	79.36
396.524	17.92
396.733	56.83
396.942	40.45
397.152	3.58
397.361	87.55
397.57	65.02
397.78	93.69
397.989	28.16
398.198	-6.66
398.407	69.12
398.617	34.3
398.826	13.82
399.035	85.5
399.244	36.35
399.453	5.63
399.663	28.16
399.872	73.21
400.081	93.69
400.29	140.8
400.499	46.59
400.708	77.31
400.917	38.4
401.127	116.22
401.336	101.89
401.545	122.37
401.754	73.21
401.963	142.85
402.172	32.26
402.381	26.11
402.59	48.64
402.799	128.51
403.008	44.54
403.217	-33.28
403.426	58.88
403.635	15.87
403.844	11.78
404.053	50.69
404.262	77.31
404.471	71.17
404.68	93.69
404.888	134.65
405.097	-12.8
405.306	17.92
405.515	103.93
405.724	112.13
405.933	54.78
406.142	36.35
406.35	81.41
406.559	93.69
406.768	116.22
406.977	110.08
407.185	97.79
407.394	50.69
407.603	77.31
407.812	34.3
408.02	120.32
408.229	58.88
408.438	93.69
408.646	44.54
408.855	108.03
409.064	110.08
409.272	112.13
409.481	210.43
409.69	112.13
409.898	103.93
410.107	165.37
410.315	153.09
410.524	81.41
410.733	97.79
410.941	138.75
411.15	173.57
411.358	148.99
411.567	99.84
411.775	132.61
411.984	177.66
412.192	122.37
412.401	228.86
412.609	183.81
412.818	216.57
413.026	198.14
413.234	265.72
413.443	232.96
413.651	259.58
413.86	220.67
414.068	161.28
414.276	296.44
414.485	280.06
414.693	259.58
414.901	368.12
415.11	275.96
415.318	294.4
415.526	245.24
415.734	382.46
415.943	327.16
416.151	337.4
416.359	386.55
416.567	376.31
416.776	374.27
416.984	378.36
417.192	409.08
417.4	423.42
417.608	495.1
417.817	433.66
418.025	429.56
418.233	413.18
418.441	400.89
418.649	540.15
418.857	466.42
419.065	486.9
419.273	546.3
419.481	572.92
419.689	636.41
419.897	562.68
420.105	593.4
420.313	720.37
420.521	654.84
420.729	697.85
420.937	687.61
421.145	732.66
421.353	769.52
421.561	849.4
421.769	806.39
421.977	884.21
422.185	847.35
422.393	904.69
422.601	1023.47
422.809	966.13
423.017	939.51
423.224	945.65
423.432	1062.38
423.64	914.93
423.848	1101.3
424.056	1066.48
424.263	1191.41
424.471	1269.23
424.679	1263.08
424.887	1330.67
425.094	1297.9
425.302	1316.33
425.51	1402.35
425.718	1420.78
425.925	1412.59
426.133	1467.88
426.341	1648.1
426.548	1695.21
426.756	1691.11
426.964	1736.17
427.171	1734.12
427.379	1740.26
427.586	1863.14
427.794	1877.48
428.001	1988.07
428.209	2182.62
428.417	1969.63
428.624	2162.14
428.832	2350.56
429.039	2174.43
429.247	2256.35
429.454	2297.31
429.662	2489.82
429.869	2266.59
430.076	2598.36
430.284	2440.67
430.491	2606.55
430.699	2758.1
430.906	2676.18
431.114	2678.23
431.321	2835.92
431.528	2782.68
431.736	3104.21
431.943	3165.65
432.15	3229.13
432.358	3266
432.565	3358.16
432.772	3266
432.979	3384.78
433.187	3460.56
433.394	3587.53
433.601	3734.98
433.808	3734.98
434.016	3806.66
434.223	4093.38
434.43	4416.96
434.637	4142.53
434.844	4322.75
435.052	4355.52
435.259	4318.65
435.466	4554.17
435.673	4486.59
435.88	4636.09
436.087	4894.13
436.294	5004.72
436.501	4767.16
436.708	4834.74
436.915	5051.83
437.122	5455.28
437.329	5248.43
437.537	5596.59
437.743	5643.69
437.95	5610.92
438.157	5696.94
438.364	6018.47
438.571	6077.86
438.778	6131.11
438.985	6751.64
439.192	6303.14
439.399	6655.39
439.606	6309.28
439.813	6700.44
440.02	7126.42
440.227	7148.95
440.433	7058.84
440.64	7204.24
440.847	7306.64
441.054	7372.18
441.261	7925.13
441.467	7669.13
441.674	8033.67
441.881	8170.88
442.088	8248.71
442.294	8140.16
442.501	8490.37
442.708	8525.18
442.914	8998.26
443.121	9213.3
443.328	9164.15
443.534	9665.9
443.741	9350.51
443.948	9370.99
444.154	9925.99
444.361	10014.06
444.568	9921.9
444.774	9966.95
444.981	10231.14
445.187	10489.18
445.394	10775.9
445.6	10745.18
445.807	11556.18
446.013	11369.81
446.22	11580.75
446.426	11889.99
446.633	12193.09
446.839	12533.06
447.046	11982.15
447.252	12459.33
447.459	12582.21
447.665	12684.61
447.871	13204.79
448.078	14058.79
448.284	13198.65
448.491	13346.1
448.697	14214.44
448.903	14527.78
449.11	14550.31
449.316	14097.7
449.522	14443.81
449.728	14980.38
449.935	15033.63
450.141	14964
450.347	15531.28
450.553	14628.13
450.76	15371.54
450.966	15752.46
451.172	15420.69
451.378	15897.87
451.584	15572.24
451.791	15893.77
451.997	15621.39
452.203	16393.48
452.409	16192.78
452.615	16004.36
452.821	15543.57
453.027	15222.04
453.233	16280.84
453.44	15484.18
453.646	15955.21
453.852	15695.12
454.058	15938.83
454.264	15480.08
454.47	15936.78
454.676	15609.11
454.882	15832.33
455.088	14714.14
455.294	14970.14
455.5	15017.24
455.705	15359.25
455.911	14617.89
456.117	14394.66
456.323	14357.8
456.529	13618.48
456.735	14036.27
456.941	13796.65
457.147	13471.03
457.352	12989.75
457.558	13004.09
457.764	12852.54
457.97	12885.31
458.176	12442.95
458.381	12389.7
458.587	12014.92
458.793	12217.67
458.999	11226.45
459.204	12025.16
459.41	11822.41
459.616	10794.33
459.821	11111.77
460.027	10919.26
460.233	10763.61
460.438	10032.49
460.644	10403.17
460.85	9717.1
461.055	9721.2
461.261	9778.54
461.466	9100.66
461.672	8707.45
461.878	9272.69
462.083	8453.5
462.289	8451.46
462.494	8424.83
462.7	8144.26
462.905	7869.83
463.111	8127.88
463.316	8054.15
463.522	8019.33
463.727	7984.52
463.932	7892.36
464.138	7769.48
464.343	7781.77
464.549	7789.96
464.754	7873.93
464.959	7652.75
465.165	7837.06
465.37	7370.13
465.575	7241.11
465.781	7662.99
465.986	7650.7
466.191	7271.83
466.397	7091.6
466.602	6860.18
466.807	7034.26
467.012	7146.9
467.218	6968.73
467.423	6978.97
467.628	7085.46
467.833	7198.1
468.038	6901.14
468.244	6954.39
468.449	7107.99
468.654	6909.33
468.859	6921.62
469.064	6641.05
469.269	6507.93
469.474	6497.69
469.679	6751.64
469.885	6413.73
470.09	6608.28
470.295	6581.66
470.5	6473.12
470.705	6409.63
470.91	6315.42
471.115	6159.78
471.32	6354.34
471.525	6290.85
471.73	6131.11
471.935	5944.74
472.139	5985.7
472.344	6088.1
472.549	6053.28
472.754	5778.86
472.959	5600.68
473.164	5741.99
473.369	5551.53
473.574	5909.93
473.778	5608.87
473.983	5670.31
474.188	5666.22
474.393	5434.8
474.598	5500.33
474.802	5414.32
475.007	5432.75
475.212	5381.55
475.417	5180.85
475.621	5170.61
475.826	5201.33
476.031	5080.5
476.235	4971.96
476.44	5004.72
476.645	4924.85
476.849	5014.96
477.054	4935.09
477.259	4922.8
477.463	4867.51
477.668	4740.54
477.872	4707.77
478.077	4713.91
478.282	4644.28
478.486	4548.03
478.691	4464.06
478.895	4560.31
479.1	4578.75
479.304	4433.34
479.509	4279.74
479.713	4419
479.918	4339.13
480.122	4212.16
480.326	4292.03
480.531	4380.09
480.735	4251.07
480.94	4353.47
481.144	4394.43
481.348	4224.45
481.553	4232.64
481.757	4152.77
481.961	4234.69
482.166	4330.94
482.37	4296.13
482.574	4173.25
482.778	4236.74
482.983	4171.2
483.187	4140.48
483.391	4056.51
483.595	4140.48
483.8	4187.58
484.004	4152.77
484.208	4083.14
484.412	4183.49
484.616	4009.41
484.821	4287.93
485.025	4113.86
485.229	4160.96
485.433	4081.09
485.637	4185.54
485.841	4236.74
486.045	4263.36
486.249	4179.39
486.453	4048.32
486.657	4240.83
486.861	4351.42
487.065	4101.57
487.269	4074.95
487.473	4101.57
487.677	4197.82
487.881	4165.06
488.085	4120
488.289	4230.59
488.493	4140.48
488.697	4281.79
488.901	4117.95
489.105	4298.17
489.309	4093.38
489.512	4300.22
489.716	4128.19
489.92	4226.5
490.124	4324.8
490.328	4226.5
490.531	4353.47
490.735	4486.59
490.939	4269.5
491.143	4376
491.346	4365.76
491.55	4484.54
491.754	4322.75
491.958	4404.67
492.161	4457.92
492.365	4324.8
492.569	4347.33
492.772	4494.78
492.976	4496.83
493.18	4527.55
493.383	4492.73
493.587	4601.27
493.79	4722.1
493.994	4513.21
494.197	4701.62
494.401	4646.33
494.605	4638.14
494.808	4799.93
495.012	4875.7
495.215	4830.65
495.419	4853.17
495.622	4873.65
495.825	5117.36
496.029	4920.76
496.232	5150.13
496.436	4953.52
496.639	5260.72
496.843	5057.97
497.046	5270.96
497.249	5344.69
497.453	5381.55
497.656	5445.04
497.859	5440.94
498.063	5569.96
498.266	5529
498.469	5498.28
498.673	5590.44
498.876	5707.18
499.079	5719.46
499.282	5844.39
499.485	5946.79
499.689	6086.05
499.892	6045.09
500.095	6075.81
500.298	6262.18
500.501	6270.37
500.705	6356.38
500.908	6495.64
501.111	6589.85
501.314	6526.36
501.517	6835.61
501.72	6780.31
501.923	6776.22
502.126	7050.64
502.329	6983.06
502.532	7359.89
502.735	7024.02
502.938	7357.84
503.141	7427.47
503.344	7542.16
503.547	7626.12
503.75	7749
503.953	7656.84
504.156	7888.26
504.359	7875.98
504.562	8056.2
504.765	8150.4
504.968	8304
505.17	8277.38
505.373	8310.15
505.576	8424.83
505.779	8654.2
505.982	8426.88
506.185	8793.47
506.387	8957.3
506.59	8902.01
506.793	9219.44
506.996	9071.99
507.198	9432.43
507.401	9559.41
507.604	9491.82
507.807	9813.35
508.009	9803.11
508.212	9905.51
508.415	10046.82
508.617	10245.48
508.82	10333.54
509.022	10317.15
509.225	10327.39
509.428	10780
509.63	10747.23
509.833	10802.52
510.035	11054.42
510.238	11074.9
510.44	11382.1
510.643	11449.68
510.845	11406.67
511.048	11703.63
511.25	11711.82
511.453	11926.86
511.655	12238.15
511.858	12121.42
512.06	12254.53
512.262	12358.98
512.465	12584.26
512.667	12555.58
512.87	12694.85
513.072	12774.72
513.274	13282.61
513.477	13043
513.679	13342
513.881	13561.14
514.084	13962.54
514.286	13712.69
514.488	13813.04
514.69	14226.73
514.893	14343.46
515.095	14390.56
515.297	14597.41
515.499	14568.74
515.701	14890.27
515.904	15240.47
516.106	15170.84
516.308	15543.57
516.51	15668.5
516.712	15615.25
516.914	15875.34
517.116	16147.72
517.318	16112.91
517.52	16293.13
517.722	16428.29
517.925	16524.55
518.127	16858.37
518.329	16874.75
518.531	16839.94
518.733	17208.57
518.935	17542.39
519.136	17571.06
519.338	17833.2
519.54	18103.53
519.742	18117.87
519.944	18312.42
520.146	18572.52
520.348	18597.09
520.55	18554.08
520.752	18826.46
520.954	18961.63
521.155	19176.67
521.357	19526.87
521.559	19598.55
521.761	20214.99
521.963	19868.88
522.164	20032.72
522.366	20249.8
522.568	20182.22
522.77	20260.04
522.971	20731.08
523.173	20665.54
523.375	20843.71
523.576	20587.72
523.778	20849.86
523.98	21019.84
524.181	21535.93
524.383	21419.19
524.584	21984.43
524.786	21822.64
524.988	21705.91
525.189	22009.01
525.391	22383.79
525.592	22439.08
525.794	22445.23
525.995	22389.93
526.197	22525.1
526.398	22639.78
526.6	23012.51
526.801	22926.5
527.003	23235.74
527.204	22936.74
527.406	23137.44
527.607	23141.53
527.808	23422.11
528.01	23170.21
528.211	23553.18
528.412	23891.09
528.614	23753.88
528.815	23567.51
529.016	23874.71
529.218	23891.09
529.419	23669.91
529.62	24083.6
529.822	24179.86
530.023	24257.68
530.224	24081.55
530.425	24054.93
530.626	24245.39
530.828	24102.03
531.029	24794.25
531.23	24233.1
531.431	24577.16
531.632	24462.47
531.833	24751.24
532.035	24751.24
532.236	24706.18
532.437	24671.37
532.638	24634.5
532.839	24657.03
533.04	24745.09
533.241	24679.56
533.442	25212.03
533.643	25160.83
533.844	25175.17
534.045	24820.87
534.246	24767.62
534.447	24894.6
534.648	25007.23
534.849	24960.13
535.05	24886.4
535.251	25076.87
535.451	24861.83
535.652	25134.21
535.853	24683.66
536.054	25046.15
536.255	25203.84
536.456	25029.76
536.657	25638.01
536.857	25119.87
537.058	24751.24
537.259	25207.94
537.46	25019.52
537.66	24890.5
537.861	25218.18
538.062	24943.75
538.263	25205.89
538.463	25097.35
538.664	25011.33
538.865	25171.07
539.065	25347.2
539.266	24720.52
539.466	25267.33
539.667	24720.52
539.868	25341.05
540.068	25169.02
540.269	25142.4
540.469	25115.78
540.67	24986.75
540.87	24968.32
541.071	24657.03
541.271	25220.22
541.472	25027.71
541.672	24945.8
541.873	24978.56
542.073	24609.93
542.274	25304.19
542.474	24988.8
542.675	24749.19
542.875	25117.82
543.075	25146.5
543.276	24650.89
543.476	25099.39
543.676	24583.3
543.877	24915.08
544.077	25152.64
544.277	24976.51
544.478	25244.8
544.678	24898.69
544.878	24857.73
545.078	24564.87
545.279	24595.59
545.479	25134.21
545.679	24925.32
545.879	24771.72
546.079	24857.73
546.28	24689.8
546.48	24700.04
546.68	24603.78
546.88	24917.12
547.08	25001.09
547.28	24859.78
547.48	25009.28
547.68	24888.45
547.88	24628.36
548.081	24824.97
548.281	24792.2
548.481	24730.76
548.681	24962.18
548.881	25070.72
549.081	24689.8
549.28	24487.05
549.48	24904.84
549.68	24677.51
549.88	24941.7
550.08	24718.47
550.28	24976.51
550.48	24495.24
550.68	24933.51
550.88	24990.85
551.08	24820.87
551.279	24913.03
551.479	24870.02
551.679	24745.09
551.879	24755.33
552.079	24730.76
552.278	24446.09
552.478	24941.7
552.678	24640.65
552.878	24845.44
553.077	24583.3
553.277	24378.51
553.477	24908.93
553.676	24671.37
553.876	24358.03
554.076	24466.57
554.275	24151.18
554.475	24335.5
554.674	24380.56
554.874	24554.63
555.074	24528.01
555.273	24689.8
555.473	24462.47
555.672	24214.67
555.872	24214.67
556.071	23995.54
556.271	24607.88
556.47	24444.04
556.67	24294.54
556.869	24038.55
557.068	24548.49
557.268	24151.18
557.467	24157.33
557.667	24016.02
557.866	24130.7
558.065	24398.99
558.265	24249.49
558.464	24036.5
558.663	24200.33
558.863	23628.95
559.062	24192.14
559.261	23757.97
559.461	24104.08
559.66	23809.17
559.859	23674.01
560.058	24020.11
560.258	24099.98
560.457	23819.41
560.656	23579.8
560.855	23475.35
561.054	23508.12
561.253	23628.95
561.453	23706.77
561.652	23377.05
561.851	23485.59
562.05	23192.73
562.249	23426.2
562.448	23549.08
562.647	23198.88
562.846	23274.65
563.045	23391.39
563.244	23039.14
563.443	23262.37
563.642	22918.31
563.841	23082.14
564.04	22854.82
564.239	23110.82
564.438	22766.76
564.637	22963.36
564.836	23112.86
565.035	22572.2
565.234	23078.05
565.432	22553.77
565.631	22703.27
565.83	22693.03
566.029	22377.64
566.228	22527.14
566.427	22197.42
566.625	22193.33
566.824	22125.74
567.023	22238.38
567.222	22035.63
567.42	22267.05
567.619	22305.96
567.818	22070.45
568.016	21994.67
568.215	22199.47
568.414	21873.84
568.612	22154.41
568.811	21804.21
569.01	21552.31
569.208	21664.95
569.407	21671.09
569.605	21511.35
569.804	21316.79
570.002	21357.75
570.201	21357.75
570.4	21157.05
570.598	21202.11
570.797	21181.63
570.995	21062.85
571.193	20620.49
571.392	21185.72
571.59	20880.58
571.789	20845.76
571.987	20761.8
572.186	20778.18
572.384	20579.53
572.582	20860.1
572.781	20847.81
572.979	20436.17
573.177	20581.57
573.376	20591.81
573.574	20264.14
573.772	20532.42
573.971	20339.91
574.169	20243.66
574.367	19915.98
574.565	20442.31
574.763	19860.69
574.962	19905.74
575.16	19768.53
575.358	19700.95
575.556	19627.22
575.754	19756.24
575.952	19422.42
576.151	19588.31
576.349	19313.88
576.547	19369.18
576.745	19447
576.943	19522.77
577.141	19567.83
577.339	19356.89
577.537	18908.38
577.735	19309.79
577.933	19057.89
578.131	19258.59
578.329	18969.82
578.527	18836.7
578.725	18994.4
578.923	19090.65
579.121	18832.61
579.319	18965.73
579.516	18803.94
579.714	18730.21
579.912	18787.55
580.11	18621.67
580.308	18447.59
580.506	18345.19
580.704	18117.87
580.901	18259.18
581.099	18466.02
581.297	18255.08
581.495	18117.87
581.692	18402.54
581.89	18017.52
582.088	18283.75
582.285	18062.57
582.483	17988.85
582.681	18111.72
582.878	18017.52
583.076	17804.53
583.274	18091.24
583.471	17460.47
583.669	17827.06
583.866	17601.78
584.064	17718.51
584.262	17523.96
584.459	17573.11
584.657	17394.93
584.854	17550.58
585.052	17167.61
585.249	17020.16
585.447	17276.15
585.644	17122.55
585.841	17181.95
586.039	17270.01
586.236	16725.25
586.434	16760.06
586.631	16874.75
586.828	16925.95
587.026	16743.68
587.223	16567.56
587.42	16846.08
587.618	16426.25
587.815	16555.27
588.012	16436.49
588.21	16467.2
588.407	16485.64
588.604	16407.81
588.801	16278.79
588.999	16321.8
589.196	16317.7
589.393	15996.17
589.59	16067.85
589.787	15815.95
589.984	15908.11
590.182	15858.96
590.379	16180.49
590.576	15543.57
590.773	15731.98
590.97	15584.53
591.167	15906.06
591.364	15367.45
591.561	15719.7
591.758	15453.46
591.955	15586.58
592.152	15656.21
592.349	15392.02
592.546	15463.7
592.743	15592.72
592.94	14920.99
593.137	15377.69
593.334	15273.24
593.531	15172.89
593.727	15201.56
593.924	15031.58
594.121	14955.8
594.318	15058.2
594.515	14578.98
594.712	14978.33
594.908	14699.81
595.105	14884.12
595.302	14732.58
595.499	14703.9
595.696	14621.98
595.892	14497.06
596.089	14529.83
596.286	14505.25
596.482	14222.63
596.679	14462.24
596.876	14796.06
597.072	14574.88
597.269	14304.55
597.466	14075.18
597.662	14273.83
597.859	14140.71
598.055	14331.17
598.252	14138.66
598.448	14058.79
598.645	13880.62
598.841	13911.34
599.038	13784.37
599.234	13798.7
599.431	13837.61
599.627	13905.2
599.824	13851.95
600.02	13907.24
600.217	13616.43
600.413	13714.73
600.609	13600.05
600.806	13411.64
601.002	13313.33
601.198	13362.48
601.395	13268.28
601.591	13528.37
601.787	13362.48
601.984	13323.57
602.18	13342
602.376	13159.74
602.572	13081.91
602.769	13260.09
602.965	12891.45
603.161	13157.69
603.357	12799.29
603.553	12780.86
603.75	12954.94
603.946	12801.34
604.142	12993.85
604.338	12684.61
604.534	12858.68
604.73	12662.08
604.926	12541.25
605.122	12709.18
605.318	12528.96
605.514	12719.42
605.71	12438.85
605.906	12299.59
606.102	12432.71
606.298	12430.66
606.494	12432.71
606.69	12123.46
606.886	12068.17
607.082	12444.99
607.278	12436.8
607.474	12315.97
607.67	11982.15
607.866	11973.96
608.062	12260.68
608.257	12035.4
608.453	12078.41
608.649	12031.3
608.845	11832.65
609.041	11738.44
609.236	12008.78
609.432	11717.97
609.628	11789.64
609.824	11918.67
610.019	11828.56
610.215	11769.16
610.411	11765.07
610.606	11634
610.802	11808.08
610.998	11332.95
611.193	11636.05
611.389	11638.09
611.584	11488.59
611.78	11228.5
611.976	11488.59
612.171	11328.85
612.367	11459.92
612.562	11429.2
612.758	11031.9
612.953	11201.88
613.149	11326.8
613.344	11175.25
613.539	11289.94
613.735	11308.37
613.93	11109.72
614.126	11083.09
614.321	11404.63
614.517	10921.31
614.712	11119.96
614.907	11070.81
615.103	11142.49
615.298	10929.5
615.493	11214.16
615.688	10808.67
615.884	11277.65
616.079	10556.77
616.274	10599.77
616.47	10780
616.665	10786.14
616.86	10714.46
617.055	10796.38
617.25	10747.23
617.445	10837.34
617.641	10505.57
617.836	10562.91
618.031	10517.86
618.226	10687.84
618.421	10452.32
618.616	10603.87
618.811	10315.11
619.006	10294.63
619.201	10196.32
619.396	10419.55
619.591	10358.11
619.786	10225
619.981	10048.87
620.176	10149.22
620.371	9852.27
620.566	10044.77
620.761	10061.16
620.956	10192.23
621.151	9866.6
621.346	9790.83
621.541	9475.44
621.735	10046.82
621.93	9653.61
622.125	9516.4
622.32	9743.72
622.515	9723.24
622.709	9340.27
622.904	9487.73
623.099	9583.98
623.294	9323.89
623.488	9301.36
623.683	9368.95
623.878	9180.53
624.072	9160.05
624.267	9180.53
624.462	9112.95
624.656	9035.13
624.851	9106.81
625.046	8971.64
625.24	8910.2
625.435	8947.06
625.629	8914.3
625.824	8582.53
626.018	8740.22
626.213	8607.1
626.407	8693.12
626.602	8572.29
626.796	8711.55
626.991	8637.82
627.185	8301.95
627.38	8269.19
627.574	8402.3
627.768	8308.1
627.963	8058.25
628.157	8312.19
628.352	8201.6
628.546	8095.11
628.74	7988.61
628.935	7970.18
629.129	8119.68
629.323	7777.67
629.517	7927.18
629.712	7880.07
629.906	7865.74
630.1	7804.3
630.294	7761.29
630.489	7677.32
630.683	7812.49
630.877	7644.56
631.071	7662.99
631.265	7533.97
631.459	7574.92
631.653	7728.52
631.848	7353.74
632.042	7224.72
632.236	7468.43
632.43	7208.34
632.624	7251.35
632.818	7263.63
633.012	7034.26
633.206	7232.91
633.4	7099.8
633.594	7167.38
633.788	7040.4
633.982	7062.93
634.176	6923.67
634.369	6761.88
634.563	6958.49
634.757	6897.05
634.951	6886.81
635.145	6841.75
635.339	6872.47
635.533	6614.43
635.726	6694.3
635.92	6653.34
636.114	6665.63
636.308	6585.76
636.501	6618.52
636.695	6471.07
636.889	6526.36
637.083	6536.6
637.276	6409.63
637.47	6411.68
637.664	6368.67
637.857	6442.4
638.051	6192.55
638.244	6206.88
638.438	6243.74
638.632	6221.22
638.825	6047.14
639.019	6106.53
639.212	6004.13
639.406	6049.19
639.599	5989.8
639.793	5983.65
639.986	5836.2
640.18	5983.65
640.373	5922.21
640.567	5688.75
640.76	5834.15
640.954	5688.75
641.147	5690.79
641.34	5653.93
641.534	5610.92
641.727	5596.59
641.92	5664.17
642.114	5506.48
642.307	5447.08
642.5	5383.6
642.694	5293.49
642.887	5365.17
643.08	5488.04
643.273	5313.97
643.467	5309.87
643.66	5121.46
643.853	5287.34
644.046	5205.42
644.239	5119.41
644.432	5100.98
644.626	5041.59
644.819	5039.54
645.012	5146.03
645.205	5047.73
645.398	5017.01
645.591	4853.17
645.784	4902.33
645.977	5025.2
646.17	4867.51
646.363	4890.04
646.556	4666.81
646.749	4672.95
646.942	4652.47
647.135	4701.62
647.328	4742.58
647.521	4724.15
647.714	4468.16
647.907	4560.31
648.099	4656.57
648.292	4447.68
648.485	4502.97
648.678	4414.91
648.871	4435.39
649.064	4378.05
649.256	4437.44
649.449	4173.25
649.642	4345.28
649.835	4337.09
650.027	4439.48
650.22	4289.98
650.413	4287.93
650.605	4142.53
650.798	4238.78
650.991	4263.36
651.183	4025.79
651.376	4113.86
651.568	3990.98
651.761	3974.6
651.954	3984.84
652.146	4044.23
652.339	4025.79
652.531	3960.26
652.724	3861.96
652.916	3818.95
653.109	3777.99
653.301	3993.03
653.494	3921.35
653.686	3859.91
653.879	3933.64
654.071	3689.93
654.263	3734.98
654.456	3638.73
654.648	3966.4
654.84	3833.29
655.033	3950.02
655.225	3624.39
655.417	3702.22
655.61	3589.58
655.802	3569.1
655.994	3640.78
656.186	3634.63
656.379	3667.4
656.571	3601.87
656.763	3513.8
656.955	3397.07
657.148	3476.94
657.34	3327.44
657.532	3521.99
657.724	3546.57
657.916	3442.12
658.108	3409.36
658.3	3331.53
658.492	3282.38
658.684	3313.1
658.876	3419.6
659.068	3241.42
659.26	3317.2
659.452	3175.89
659.644	3055.06
659.836	3276.24
660.028	3163.6
660.22	3194.32
660.412	3048.91
660.604	3110.35
660.796	3100.11
660.988	3132.88
661.18	2971.09
661.372	3077.59
661.563	3085.78
661.755	2948.56
661.947	3046.87
662.139	3010
662.331	2854.36
662.522	3020.24
662.714	3001.81
662.906	3016.15
663.097	2915.8
663.289	2995.67
663.481	2829.78
663.673	2790.87
663.864	2719.19
664.056	2837.97
664.247	2887.12
664.439	2760.15
664.631	2862.55
664.822	2733.53
665.014	2649.56
665.205	2780.63
665.397	2713.05
665.588	2725.33
665.78	2610.65
665.971	2719.19
666.163	2551.26
666.354	2657.75
666.546	2598.36
666.737	2543.07
666.929	2622.94
667.12	2495.96
667.311	2657.75
667.503	2569.69
667.694	2498.01
667.885	2584.02
668.077	2573.78
668.268	2477.53
668.459	2459.1
668.651	2438.62
668.842	2493.91
669.033	2498.01
669.224	2358.75
669.416	2405.85
669.607	2309.6
669.798	2383.32
669.989	2475.48
670.18	2346.46
670.371	2328.03
670.563	2399.71
670.754	2432.47
670.945	2352.6
671.136	2323.93
671.327	2293.21
671.518	2219.49
671.709	2235.87
671.9	2377.18
672.091	2295.26
672.282	2295.26
672.473	2282.97
672.664	2368.99
672.855	2264.54
673.046	2266.59
673.237	2233.82
673.428	2225.63
673.619	2246.11
673.809	2262.49
674	2141.66
674.191	2104.8
674.382	2221.53
674.573	2149.86
674.764	2217.44
674.954	2153.95
675.145	2141.66
675.336	2180.57
675.527	2246.11
675.717	2192.86
675.908	2133.47
676.099	2137.57
676.289	2223.58
676.48	2094.56
676.671	1996.26
676.861	2112.99
677.052	2219.49
677.243	1981.92
677.433	2074.08
677.624	1975.78
677.814	2094.56
678.005	2104.8
678.195	2127.33
678.386	2035.17
678.576	2084.32
678.767	1959.39
678.957	2057.7
679.148	2098.66
679.338	1936.87
679.529	2123.23
679.719	1983.97
679.909	2069.98
680.1	1981.92
680.29	1990.11
680.481	2031.07
680.671	1992.16
680.861	2143.71
681.052	2092.51
681.242	2106.85
681.432	2115.04
681.622	1977.83
681.813	2041.31
682.003	2133.47
682.193	2014.69
682.383	1975.78
682.573	2002.4
682.764	2053.6
682.954	2100.7
683.144	2076.13
683.334	2088.42
683.524	1961.44
683.714	1959.39
683.904	2069.98
684.094	1977.83
684.284	2018.79
684.474	2014.69
684.664	1973.73
684.854	1928.67
685.044	2080.22
685.234	2029.03
685.424	2053.6
685.614	2016.74
685.804	2026.98
685.994	2061.79
686.184	2088.42
686.374	1979.87
686.564	1986.02
686.753	2012.64
686.943	1994.21
687.133	2018.79
687.323	1900
687.513	1920.48
687.702	2008.55
687.892	2053.6
688.082	1988.07
688.272	1924.58
688.461	1963.49
688.651	2043.36
688.841	1930.72
689.03	1883.62
689.22	1955.3
689.41	1904.1
689.599	1953.25
689.789	1947.11
689.979	1979.87
690.168	2041.31
690.358	1920.48
690.547	1904.1
690.737	1902.05
690.926	1957.35
691.116	1932.77
691.305	1883.62
691.495	1940.96
691.684	1961.44
691.874	1895.91
692.063	1938.91
692.252	1811.94
692.442	1904.1
692.631	1824.23
692.82	1826.28
693.01	1824.23
693.199	1846.76
693.388	1875.43
693.578	1928.67
693.767	1893.86
693.956	1873.38
694.146	1832.42
694.335	1918.43
694.524	1955.3
694.713	1887.72
694.902	1928.67
695.092	1842.66
695.281	1863.14
695.47	1846.76
695.659	1871.33
695.848	1865.19
696.037	1848.8
696.226	1865.19
696.415	1811.94
696.604	1852.9
696.793	1787.36
696.982	1869.28
697.171	1893.86
697.36	1754.6
697.549	1807.84
697.738	1789.41
697.927	1818.08
698.116	1848.8
698.305	1879.52
698.494	1818.08
698.683	1863.14
698.872	1801.7
699.061	1865.19
699.25	1758.69
699.438	1777.12
699.627	1828.32
699.816	1779.17
700.005	1959.39
700.193	1865.19
700.382	1793.51
700.571	1736.17
700.76	1764.84
700.948	1742.31
701.137	1762.79
701.326	1781.22
701.514	1881.57
701.703	1865.19
701.892	1951.2
702.08	1902.05
702.269	1818.08
702.457	1828.32
702.646	1820.13
702.834	1852.9
703.023	1762.79
703.212	1783.27
703.4	1734.12
703.589	1750.5
703.777	1740.26
703.965	1816.04
704.154	1717.73
704.342	1721.83
704.531	1824.23
704.719	1781.22
704.907	1797.6
705.096	1799.65
705.284	1727.97
705.472	1689.06
705.661	1787.36
705.849	1789.41
706.037	1707.49
706.226	1773.03
706.414	1678.82
706.602	1732.07
706.79	1717.73
706.979	1809.89
707.167	1678.82
707.355	1791.46
707.543	1775.08
707.731	1631.72
707.919	1807.84
708.107	1693.16
708.296	1742.31
708.484	1693.16
708.672	1711.59
708.86	1611.24
709.048	1652.2
709.236	1613.29
709.424	1756.65
709.612	1652.2
709.8	1646.05
709.988	1609.19
710.176	1707.49
710.364	1633.77
710.551	1646.05
710.739	1738.21
710.927	1541.61
711.115	1644.01
711.303	1557.99
711.491	1664.49
711.679	1621.48
711.866	1666.53
712.054	1637.86
712.242	1697.25
712.43	1629.67
712.617	1592.81
712.805	1547.75
712.993	1650.15
713.181	1639.91
713.368	1650.15
713.556	1637.86
713.744	1545.7
713.931	1756.65
714.119	1662.44
714.306	1637.86
714.494	1592.81
714.682	1648.1
714.869	1545.7
715.057	1615.34
715.244	1551.85
715.432	1609.19
715.619	1541.61
715.807	1613.29
715.994	1605.1
716.182	1529.32
716.369	1570.28
716.556	1517.03
716.744	1537.51
716.931	1494.51
717.119	1527.27
717.306	1586.66
717.493	1584.62
717.681	1535.46
717.868	1619.43
718.055	1545.7
718.242	1533.42
718.43	1502.7
718.617	1568.23
718.804	1576.42
718.991	1531.37
719.179	1457.64
719.366	1617.38
719.553	1527.27
719.74	1494.51
719.927	1537.51
720.114	1482.22
720.301	1514.98
720.488	1426.92
720.676	1447.4
720.863	1463.79
721.05	1527.27
721.237	1547.75
721.424	1500.65
721.611	1508.84
721.798	1471.98
721.985	1469.93
722.172	1490.41
722.358	1537.51
722.545	1510.89
722.732	1463.79
722.919	1527.27
723.106	1498.6
723.293	1543.66
723.48	1394.15
723.667	1465.83
723.853	1471.98
724.04	1529.32
724.227	1447.4
724.414	1494.51
724.6	1416.68
724.787	1529.32
724.974	1396.2
725.161	1461.74
725.347	1459.69
725.534	1426.92
725.72	1383.91
725.907	1557.99
726.094	1349.1
726.28	1398.25
726.467	1480.17
726.653	1486.31
726.84	1390.06
727.027	1410.54
727.213	1318.38
727.4	1332.72
727.586	1428.97
727.773	1322.48
727.959	1271.28
728.145	1437.16
728.332	1428.97
728.518	1353.2
728.705	1457.64
728.891	1435.11
729.077	1396.2
729.264	1422.83
729.45	1334.76
729.636	1332.72
729.823	1381.87
730.009	1400.3
730.195	1400.3
730.382	1424.87
730.568	1447.4
730.754	1412.59
730.94	1383.91
731.126	1406.44
731.313	1379.82
731.499	1388.01
731.685	1437.16
731.871	1318.38
732.057	1332.72
732.243	1404.39
732.429	1385.96
732.615	1291.76
732.801	1390.06
732.987	1353.2
733.173	1373.68
733.359	1256.94
733.545	1447.4
733.731	1326.57
733.917	1431.02
734.103	1416.68
734.289	1314.28
734.475	1371.63
734.661	1361.39
734.847	1353.2
735.033	1279.47
735.219	1320.43
735.404	1250.8
735.59	1228.27
735.776	1310.19
735.962	1263.08
736.148	1291.76
736.333	1340.91
736.519	1273.32
736.705	1240.56
736.89	1363.44
737.076	1261.04
737.262	1232.37
737.447	1383.91
737.633	1218.03
737.819	1318.38
738.004	1332.72
738.19	1365.48
738.375	1379.82
738.561	1365.48
738.747	1179.12
738.932	1236.46
739.118	1340.91
739.303	1238.51
739.489	1224.17
739.674	1302
739.859	1256.94
740.045	1324.52
740.23	1314.28
740.416	1304.04
740.601	1261.04
740.786	1103.34
740.972	1287.66
741.157	1267.18
741.342	1256.94
741.528	1248.75
741.713	1234.41
741.898	1199.6
742.084	1250.8
742.269	1162.73
742.454	1220.08
742.639	1232.37
742.824	1205.74
743.01	1203.69
743.195	1230.32
743.38	1220.08
743.565	1232.37
743.75	1187.31
743.935	1185.26
744.12	1238.51
744.305	1172.97
744.49	1203.69
744.675	1076.72
744.86	1144.3
745.045	1121.77
745.23	1158.64
745.415	1164.78
745.6	1093.1
745.785	1160.69
745.97	1060.34
746.155	1117.68
746.34	1134.06
746.525	1138.16
746.71	1127.92
746.895	1109.49
747.079	1074.67
747.264	1160.69
747.449	1068.53
747.634	1013.23
747.819	1041.9
748.003	1103.34
748.188	1027.57
748.373	1046
748.557	1164.78
748.742	957.94
748.927	1023.47
749.111	1021.42
749.296	992.75
749.481	1007.09
749.665	974.32
749.85	1099.25
750.034	1043.95
750.219	937.46
750.404	1029.62
750.588	1009.14
750.773	931.31
750.957	949.75
751.141	994.8
751.326	871.92
751.51	966.13
751.695	974.32
751.879	841.2
752.064	943.6
752.248	980.47
752.432	998.9
752.617	888.31
752.801	900.59
752.985	869.87
753.17	873.97
753.354	906.74
753.538	888.31
753.722	1007.09
753.907	861.68
754.091	927.22
754.275	880.11
754.459	843.25
754.643	880.11
754.828	880.11
755.012	814.58
755.196	873.97
755.38	818.68
755.564	824.82
755.748	839.16
755.932	902.64
756.116	792.05
756.3	808.44
756.484	806.39
756.668	814.58
756.852	757.24
757.036	818.68
757.22	720.37
757.404	814.58
757.588	751.09
757.772	806.39
757.956	710.13
758.14	787.96
758.323	699.89
758.507	783.86
758.691	765.43
758.875	667.13
759.059	699.89
759.242	796.15
759.426	718.33
759.61	765.43
759.794	677.37
759.977	663.03
760.161	765.43
760.345	783.86
760.528	736.76
760.712	675.32
760.895	660.98
761.079	718.33
761.263	677.37
761.446	626.17
761.63	712.18
761.813	652.79
761.997	724.47
762.18	640.5
762.364	548.34
762.547	667.13
762.731	650.74
762.914	665.08
763.098	677.37
763.281	689.65
763.464	617.97
763.648	677.37
763.831	667.13
764.015	581.11
764.198	593.4
764.381	628.21
764.564	552.44
764.748	658.93
764.931	626.17
765.114	562.68
765.297	599.54
765.481	601.59
765.664	601.59
765.847	642.55
766.03	642.55
766.213	620.02
766.397	642.55
766.58	570.87
766.763	626.17
766.946	579.06
767.129	556.54
767.312	542.2
767.495	593.4
767.678	562.68
767.861	552.44
768.044	540.15
768.227	540.15
768.41	601.59
768.593	554.49
768.776	531.96
768.959	579.06
769.142	583.16
769.324	591.35
769.507	548.34
769.69	507.38
769.873	507.38
770.056	560.63
770.239	552.44
770.421	521.72
770.604	484.86
770.787	441.85
770.97	511.48
771.152	519.67
771.335	540.15
771.518	527.86
771.7	443.9
771.883	470.52
772.066	491
772.248	488.95
772.431	491
772.613	507.38
772.796	417.27
772.978	511.48
773.161	478.71
773.343	491
773.526	486.9
773.708	452.09
773.891	470.52
774.073	491
774.256	462.33
774.438	491
774.621	523.77
774.803	419.32
774.985	456.19
775.168	470.52
775.35	372.22
775.532	437.75
775.715	359.93
775.897	437.75
776.079	433.66
776.261	368.12
776.444	450.04
776.626	366.07
776.808	364.03
776.99	476.66
777.173	413.18
777.355	470.52
777.537	386.55
777.719	333.31
777.901	306.68
778.083	364.03
778.265	282.11
778.447	355.83
778.629	423.42
778.811	325.12
778.993	349.69
779.175	413.18
779.357	411.13
779.539	409.08
779.721	359.93
779.903	368.12
780.085	316.92
780.267	396.79
780.449	396.79
780.631	392.7
780.812	366.07
780.994	390.65
781.176	300.54
781.358	390.65
781.54	361.98
781.721	349.69
781.903	357.88
782.085	359.93
782.267	226.81
782.448	390.65
782.63	359.93
782.812	366.07
782.993	259.58
783.175	364.03
783.357	269.82
783.538	206.33
783.72	304.64
783.901	290.3
784.083	273.92
784.264	343.55
784.446	169.47
784.627	278.01
784.809	253.44
784.99	273.92
785.172	310.78
785.353	167.42
785.535	208.38
785.716	275.96
785.897	341.5
786.079	218.62
786.26	288.25
786.441	249.34
786.623	218.62
786.804	263.68
786.985	278.01
787.167	185.85
787.348	284.16
787.529	316.92
787.71	245.24
787.891	216.57
788.073	241.15
788.254	255.48
788.435	296.44
788.616	239.1
788.797	269.82
788.978	228.86
789.159	269.82
789.34	210.43
789.522	235
789.703	267.77
789.884	259.58
790.065	220.67
790.246	175.61
790.427	257.53
790.607	198.14
790.788	179.71
790.969	210.43
791.15	226.81
791.331	237.05
791.512	183.81
791.693	169.47
791.874	210.43
792.054	187.9
792.235	159.23
792.416	259.58
792.597	257.53
792.778	222.72
792.958	216.57
793.139	179.71
793.32	220.67
793.5	128.51
793.681	275.96
793.862	187.9
794.042	153.09
794.223	218.62
794.404	142.85
794.584	198.14
794.765	124.41
794.945	224.76
795.126	175.61
795.306	177.66
795.487	202.24
795.667	169.47
795.848	181.76
796.028	169.47
796.209	163.33
796.389	202.24
796.57	210.43
796.75	214.52
796.93	228.86
797.111	157.18
797.291	136.7
797.471	194.05
797.652	179.71
797.832	208.38
798.012	157.18
798.192	91.65
798.373	183.81
798.553	140.8
798.733	151.04
798.913	218.62
799.093	210.43
799.274	192
799.454	101.89
799.634	232.96
799.814	167.42
799.994	192
800.174	232.96
800.354	175.61
800.534	183.81
800.714	77.31
800.894	151.04
801.074	144.89
801.254	175.61
801.434	179.71
801.614	198.14
801.794	93.69
801.974	404.99
802.154	116.22
802.334	169.47
802.514	97.79
802.693	130.56
802.873	97.79
803.053	134.65
803.233	198.14
803.413	173.57
803.592	167.42
803.772	77.31
803.952	146.94
804.131	128.51
804.311	120.32
804.491	79.36
804.67	140.8
804.85	151.04
805.03	138.75
805.209	179.71
805.389	128.51
805.568	85.5
805.748	116.22
805.928	138.75
806.107	153.09
806.287	167.42
806.466	69.12
806.646	79.36
806.825	110.08
807.004	185.85
807.184	95.74
807.363	122.37
807.543	71.17
807.722	196.09
807.901	140.8
808.081	177.66
808.26	105.98
808.439	142.85
808.619	52.74
808.798	77.31
808.977	101.89
809.156	177.66
809.336	157.18
809.515	185.85
809.694	89.6
809.873	54.78
810.052	5.63
810.231	73.21
810.411	30.21
810.59	85.5
810.769	60.93
810.948	69.12
811.127	58.88
811.306	46.59
811.485	71.17
811.664	130.56
811.843	103.93
812.022	65.02
812.201	73.21
812.38	87.55
812.559	48.64
812.737	146.94
812.916	54.78
813.095	1.54
813.274	77.31
813.453	110.08
813.632	58.88
813.811	151.04
813.989	65.02
814.168	42.5
814.347	36.35
814.526	87.55
814.704	153.09
814.883	36.35
815.062	38.4
815.24	58.88
815.419	1.54
815.598	93.69
815.776	52.74
815.955	93.69
816.133	101.89
816.312	52.74
816.49	54.78
816.669	36.35
816.847	77.31
817.026	105.98
817.204	67.07
817.383	87.55
817.561	13.82
817.74	46.59
817.918	120.32
818.097	97.79
818.275	144.89
818.453	67.07
818.632	67.07
818.81	60.93
818.988	128.51
819.167	48.64
819.345	17.92
819.523	5.63
819.701	87.55
819.879	69.12
820.058	67.07
820.236	60.93
820.414	48.64
820.592	-20.99
820.77	50.69
820.948	34.3
821.127	22.02
821.305	73.21
821.483	-39.42
821.661	62.98
821.839	69.12
822.017	85.5
822.195	69.12
822.373	120.32
822.551	11.78
822.729	54.78
822.907	22.02
823.085	5.63
823.262	81.41
823.44	79.36
823.618	93.69
823.796	105.98
823.974	62.98
824.152	75.26
824.329	13.82
824.507	73.21
824.685	32.26
824.863	173.57
825.04	36.35
825.218	54.78
825.396	60.93
825.574	52.74
825.751	3.58
825.929	30.21
826.107	103.93
826.284	62.98
826.462	60.93
826.639	60.93
826.817	85.5
826.994	54.78
827.172	60.93
827.349	40.45
827.527	-20.99
827.704	15.87
827.882	91.65
828.059	105.98
828.237	36.35
828.414	97.79
828.591	-29.18
828.769	60.93
828.946	28.16
829.124	28.16
829.301	36.35
829.478	26.11
829.655	69.12
829.833	-12.8
830.01	56.83
830.187	110.08
830.364	52.74
830.542	9.73
830.719	13.82
830.896	-10.75
831.073	24.06
831.25	52.74
831.427	58.88
831.604	3.58
831.782	48.64
831.959	15.87
832.136	38.4
832.313	44.54
832.49	11.78
832.667	87.55
832.844	32.26
833.021	69.12
833.198	-16.9
833.374	101.89
833.551	40.45
833.728	-2.56
833.905	71.17
834.082	7.68
834.259	112.13
834.436	50.69
834.612	-29.18
834.789	-14.85
834.966	91.65
835.143	67.07
835.319	73.21
835.496	38.4
835.673	77.31
835.85	36.35
836.026	34.3
836.203	40.45
836.38	44.54
836.556	5.63
836.733	15.87
836.909	118.27
837.086	-20.99
837.262	52.74
837.439	5.63
837.616	75.26
837.792	83.45
837.968	44.54
838.145	-10.75
838.321	95.74
838.498	-29.18
838.674	67.07
838.851	48.64
839.027	60.93
839.203	24.06
839.38	-8.7
839.556	-12.8
839.732	60.93
839.909	-8.7
840.085	36.35
840.261	-14.85
840.437	58.88
840.614	19.97
840.79	9.73
840.966	34.3
841.142	42.5
841.318	69.12
841.494	-27.14
841.671	48.64
841.847	-20.99
842.023	77.31
842.199	11.78
842.375	75.26
842.551	36.35
842.727	-2.56
842.903	15.87
843.079	30.21
843.255	13.82
843.431	75.26
843.607	85.5
843.783	-2.56
843.959	-10.75
844.134	-10.75
844.31	32.26
844.486	-31.23
844.662	67.07
844.838	28.16
845.013	-45.57
845.189	30.21
845.365	34.3
845.541	-14.85
845.716	-57.86
845.892	-66.05
846.068	-39.42
846.244	-68.09
846.419	48.64
846.595	-10.75
846.77	60.93
846.946	114.17
847.122	81.41
847.297	83.45
847.473	77.31
847.648	30.21
847.824	5.63
847.999	-0.51
848.175	52.74
848.35	26.11
848.526	81.41
848.701	79.36
848.876	40.45
849.052	19.97
849.227	32.26
849.403	5.63
849.578	77.31
849.753	-16.9
849.929	105.98
850.104	19.97
850.279	-41.47
850.454	-27.14
850.63	28.16
850.805	19.97
850.98	36.35
851.155	-27.14
851.33	36.35
851.505	7.68
851.681	-6.66
851.856	48.64
852.031	22.02
852.206	56.83
852.381	-12.8
852.556	19.97
852.731	11.78
852.906	48.64
853.081	-12.8
853.256	-27.14
853.431	3.58
853.606	40.45
853.781	-61.95
853.956	42.5
854.131	7.68
854.305	7.68
854.48	114.17
854.655	-8.7
854.83	40.45
855.005	97.79
855.18	9.73
855.354	-10.75
855.529	1.54
855.704	3.58
855.879	-14.85
856.053	13.82
856.228	40.45
856.403	28.16
856.577	54.78
856.752	69.12
856.926	-2.56
857.101	-16.9
857.276	-10.75
857.45	36.35
857.625	-27.14
857.799	-29.18
857.974	5.63
858.148	-25.09
858.323	17.92
858.497	1.54
858.672	-27.14
858.846	-43.52
859.02	24.06
859.195	-43.52
859.369	17.92
859.543	17.92
859.718	34.3
859.892	17.92
860.066	-6.66
860.241	-53.76
860.415	-16.9
860.589	-12.8
860.763	-2.56
860.938	-2.56
861.112	-29.18
861.286	38.4
861.46	-14.85
861.634	-14.85
861.808	19.97
861.982	11.78
862.157	-27.14
862.331	36.35
862.505	34.3
862.679	58.88
862.853	11.78
863.027	56.83
863.201	42.5
863.375	-53.76
863.549	71.17
863.722	-90.62
863.896	56.83
864.07	-59.9
864.244	60.93
864.418	54.78
864.592	3.58
864.766	22.02
864.939	56.83
865.113	79.36
865.287	24.06
865.461	-80.38
865.634	-10.75
865.808	5.63
865.982	44.54
866.156	-16.9
866.329	48.64
866.503	30.21
866.676	46.59
866.85	-16.9
867.024	-16.9
867.197	13.82
867.371	3.58
867.544	-16.9
867.718	46.59
867.891	13.82
868.065	1.54
868.238	-82.43
868.412	-37.38
868.585	19.97
868.759	34.3
868.932	-29.18
869.105	-43.52
869.279	-2.56
869.452	19.97
869.625	-47.62
869.799	-0.51
869.972	-6.66
870.145	79.36
870.319	15.87
870.492	-20.99
870.665	-45.57
870.838	46.59
871.011	-45.57
871.185	24.06
871.358	13.82
871.531	-18.94
871.704	-23.04
871.877	22.02
872.05	-14.85
872.223	-14.85
872.396	48.64
872.569	-31.23
872.742	-39.42
872.915	-27.14
873.088	93.69
873.261	26.11
873.434	48.64
873.607	-18.94
873.78	-39.42
873.953	67.07
874.126	60.93
874.299	1.54
874.471	-43.52
874.644	22.02
874.817	28.16
874.99	-45.57
875.163	38.4
875.335	5.63
875.508	-0.51
875.681	58.88
875.853	30.21
876.026	-33.28
876.199	-20.99
876.371	5.63
876.544	-16.9
876.717	52.74
876.889	-14.85
877.062	-18.94
877.234	-35.33
877.407	19.97
877.579	-37.38
877.752	26.11
877.924	36.35
878.097	-6.66
878.269	-8.7
878.442	-20.99
878.614	5.63
878.786	-2.56
878.959	-12.8
879.131	95.74
879.303	26.11
879.476	73.21
879.648	69.12
879.82	-27.14
879.993	-55.81
880.165	-8.7
880.337	-12.8
880.509	-4.61
880.681	17.92
880.854	89.6
881.026	13.82
881.198	71.17
881.37	-12.8
881.542	30.21
881.714	-6.66
881.886	44.54
882.058	-84.48
882.23	54.78
882.402	-27.14
882.574	-23.04
882.746	19.97
882.918	-20.99
883.09	-16.9
883.262	65.02
883.434	-43.52
883.606	-2.56
883.778	-0.51
883.95	13.82
884.122	-41.47
884.293	1.54
884.465	-16.9
884.637	50.69
884.809	11.78
884.98	48.64
885.152	9.73
885.324	11.78
885.496	-41.47
885.667	-59.9
885.839	-10.75
886.011	69.12
886.182	-20.99
886.354	-4.61
886.525	3.58
886.697	-12.8
886.869	81.41
887.04	30.21
887.212	-55.81
887.383	69.12
887.555	30.21
887.726	17.92
887.897	36.35
888.069	22.02
888.24	-76.29
888.412	-33.28
888.583	-37.38
888.754	-8.7
888.926	-49.66
889.097	-43.52
889.268	17.92
889.44	42.5
889.611	-86.53
889.782	-45.57
889.953	-45.57
890.125	60.93
890.296	3.58
890.467	-27.14
890.638	9.73
890.809	60.93
890.98	-4.61
891.151	-41.47
891.323	38.4
891.494	40.45
891.665	42.5
891.836	-43.52
892.007	81.41
892.178	69.12
892.349	-49.66
892.52	-16.9
892.691	5.63
892.862	15.87
893.032	-53.76
893.203	-4.61
893.374	32.26
893.545	-16.9
893.716	1.54
893.887	-16.9
894.057	28.16
894.228	46.59
894.399	-43.52
894.57	19.97
894.74	-82.43
894.911	-12.8
895.082	5.63
895.253	54.78
895.423	7.68
895.594	3.58
895.764	-8.7
895.935	9.73
896.106	28.16
896.276	7.68
896.447	-45.57
896.617	-25.09
896.788	46.59
896.958	22.02
897.129	-4.61
897.299	-43.52
897.47	-35.33
897.64	17.92
897.81	26.11
897.981	38.4
898.151	-10.75
898.322	34.3
898.492	5.63
898.662	-84.48
898.832	-12.8
899.003	22.02
899.173	-23.04
899.343	13.82
899.513	-20.99
