Data from USB4F104151__50__12-59-13-464.txt Node

Date: Fri Mar 14 12:59:13 EDT 2025
User: louis
Spectrometer: USB4F10415
Trigger mode: 4
Integration Time (sec): 1.000000E-2
Scans to average: 1
Electric dark correction enabled: true
Nonlinearity correction enabled: false
Boxcar width: 0
XAxis mode: Wavelengths
Number of Pixels in Spectrum: 3648
>>>>>Begin Spectral Data<<<<<
178.204	35.67
178.424	35.67
178.644	35.67
178.864	-7.34
179.084	-17.58
179.304	-70.83
179.524	-36.01
179.744	31.57
179.964	-31.91
180.184	13.14
180.404	62.29
180.624	-9.39
180.844	21.33
181.064	15.19
181.283	43.86
181.503	-44.2
181.723	4.95
181.943	54.1
182.163	33.62
182.383	60.24
182.602	13.14
182.822	107.35
183.042	62.29
183.262	25.43
183.482	-7.34
183.701	17.24
183.921	41.81
184.141	76.63
184.361	21.33
184.58	58.2
184.8	27.48
185.02	4.95
185.239	50
185.459	52.05
185.679	47.96
185.898	-3.24
186.118	-54.44
186.338	39.76
186.557	84.82
186.777	23.38
186.997	45.91
187.216	56.15
187.436	39.76
187.655	101.2
187.875	60.24
188.095	29.52
188.314	60.24
188.534	76.63
188.753	4.95
188.973	56.15
189.192	88.92
189.412	90.96
189.631	64.34
189.851	39.76
190.07	64.34
190.29	4.95
190.509	-9.39
190.729	31.57
190.948	-17.58
191.168	117.59
191.387	45.91
191.607	54.1
191.826	95.06
192.045	-1.19
192.265	60.24
192.484	90.96
192.704	2.9
192.923	27.48
193.142	115.54
193.362	29.52
193.581	35.67
193.8	19.29
194.02	56.15
194.239	-3.24
194.458	-5.29
194.678	15.19
194.897	15.19
195.116	7
195.335	52.05
195.555	33.62
195.774	37.72
195.993	27.48
196.212	41.81
196.432	15.19
196.651	68.44
196.87	97.11
197.089	76.63
197.308	52.05
197.528	27.48
197.747	58.2
197.966	109.4
198.185	31.57
198.404	50
198.623	39.76
198.842	86.87
199.062	66.39
199.281	90.96
199.5	68.44
199.719	37.72
199.938	119.64
200.157	19.29
200.376	-52.39
200.595	117.59
200.814	62.29
201.033	29.52
201.252	129.88
201.471	103.25
201.69	93.01
201.909	29.52
202.128	-1.19
202.347	95.06
202.566	76.63
202.785	-9.39
203.004	-5.29
203.223	-13.48
203.442	29.52
203.661	107.35
203.879	0.85
204.098	45.91
204.317	41.81
204.536	27.48
204.755	74.58
204.974	66.39
205.193	29.52
205.411	56.15
205.63	52.05
205.849	43.86
206.068	-3.24
206.287	17.24
206.505	9.05
206.724	68.44
206.943	33.62
207.162	68.44
207.381	15.19
207.599	90.96
207.818	11.09
208.037	11.09
208.255	7
208.474	-9.39
208.693	93.01
208.911	66.39
209.13	45.91
209.349	-38.06
209.567	31.57
209.786	101.2
210.005	127.83
210.223	27.48
210.442	80.72
210.661	50
210.879	7
211.098	70.48
211.316	-3.24
211.535	68.44
211.753	15.19
211.972	39.76
212.191	27.48
212.409	39.76
212.628	-15.53
212.846	29.52
213.065	2.9
213.283	35.67
213.502	-7.34
213.72	166.74
213.938	43.86
214.157	50
214.375	74.58
214.594	54.1
214.812	62.29
215.031	76.63
215.249	31.57
215.467	39.76
215.686	37.72
215.904	64.34
216.122	11.09
216.341	2.9
216.559	90.96
216.778	56.15
216.996	-1.19
217.214	31.57
217.432	105.3
217.651	52.05
217.869	-25.77
218.087	66.39
218.306	47.96
218.524	95.06
218.742	15.19
218.96	86.87
219.179	35.67
219.397	45.91
219.615	60.24
219.833	86.87
220.051	-42.15
220.27	15.19
220.488	82.77
220.706	60.24
220.924	11.09
221.142	25.43
221.36	72.53
221.578	84.82
221.796	56.15
222.015	31.57
222.233	74.58
222.451	68.44
222.669	37.72
222.887	-5.29
223.105	-11.43
223.323	-27.82
223.541	52.05
223.759	54.1
223.977	15.19
224.195	86.87
224.413	99.16
224.631	103.25
224.849	11.09
225.067	43.86
225.285	-5.29
225.503	52.05
225.721	45.91
225.939	105.3
226.157	37.72
226.375	95.06
226.592	58.2
226.81	39.76
227.028	15.19
227.246	-11.43
227.464	76.63
227.682	74.58
227.9	-5.29
228.117	4.95
228.335	56.15
228.553	-3.24
228.771	76.63
228.989	60.24
229.206	68.44
229.424	35.67
229.642	54.1
229.86	93.01
230.077	88.92
230.295	21.33
230.513	95.06
230.731	41.81
230.948	2.9
231.166	-29.87
231.384	4.95
231.601	39.76
231.819	9.05
232.037	29.52
232.254	-19.63
232.472	35.67
232.689	-40.11
232.907	-1.19
233.125	74.58
233.342	45.91
233.56	93.01
233.777	95.06
233.995	0.85
234.213	39.76
234.43	23.38
234.648	45.91
234.865	-3.24
235.083	90.96
235.3	93.01
235.518	19.29
235.735	62.29
235.953	47.96
236.17	19.29
236.388	56.15
236.605	74.58
236.822	144.21
237.04	64.34
237.257	7
237.475	84.82
237.692	56.15
237.909	15.19
238.127	72.53
238.344	-1.19
238.562	-7.34
238.779	27.48
238.996	29.52
239.214	0.85
239.431	127.83
239.648	-13.48
239.865	82.77
240.083	86.87
240.3	11.09
240.517	35.67
240.735	101.2
240.952	45.91
241.169	60.24
241.386	-36.01
241.603	62.29
241.821	19.29
242.038	68.44
242.255	66.39
242.472	84.82
242.689	-13.48
242.907	4.95
243.124	29.52
243.341	29.52
243.558	11.09
243.775	27.48
243.992	25.43
244.209	101.2
244.426	2.9
244.643	84.82
244.86	2.9
245.078	82.77
245.295	52.05
245.512	25.43
245.729	-33.96
245.946	111.44
246.163	43.86
246.38	23.38
246.597	43.86
246.814	19.29
247.031	-3.24
247.248	-1.19
247.464	52.05
247.681	41.81
247.898	27.48
248.115	39.76
248.332	70.48
248.549	29.52
248.766	82.77
248.983	39.76
249.2	43.86
249.417	66.39
249.633	-13.48
249.85	88.92
250.067	7
250.284	-3.24
250.501	27.48
250.717	45.91
250.934	13.14
251.151	35.67
251.368	31.57
251.585	-13.48
251.801	29.52
252.018	45.91
252.235	152.4
252.451	95.06
252.668	35.67
252.885	19.29
253.102	56.15
253.318	45.91
253.535	41.81
253.752	88.92
253.968	21.33
254.185	43.86
254.401	31.57
254.618	60.24
254.835	60.24
255.051	62.29
255.268	21.33
255.484	15.19
255.701	-11.43
255.917	23.38
256.134	-1.19
256.351	41.81
256.567	31.57
256.784	123.73
257	-31.91
257.217	23.38
257.433	60.24
257.65	27.48
257.866	64.34
258.082	37.72
258.299	-3.24
258.515	41.81
258.732	70.48
258.948	78.68
259.165	64.34
259.381	82.77
259.597	99.16
259.814	-15.53
260.03	-5.29
260.246	9.05
260.463	23.38
260.679	11.09
260.895	15.19
261.112	-5.29
261.328	19.29
261.544	23.38
261.761	93.01
261.977	111.44
262.193	13.14
262.409	47.96
262.626	41.81
262.842	109.4
263.058	9.05
263.274	78.68
263.49	93.01
263.707	-15.53
263.923	17.24
264.139	-31.91
264.355	88.92
264.571	88.92
264.787	45.91
265.004	21.33
265.22	78.68
265.436	19.29
265.652	76.63
265.868	2.9
266.084	7
266.3	-27.82
266.516	13.14
266.732	25.43
266.948	-36.01
267.164	21.33
267.38	27.48
267.596	54.1
267.812	-46.25
268.028	58.2
268.244	17.24
268.46	72.53
268.676	86.87
268.892	64.34
269.108	2.9
269.324	99.16
269.54	23.38
269.756	21.33
269.972	66.39
270.188	25.43
270.403	11.09
270.619	4.95
270.835	-29.87
271.051	101.2
271.267	35.67
271.483	43.86
271.698	35.67
271.914	68.44
272.13	43.86
272.346	4.95
272.562	23.38
272.777	78.68
272.993	4.95
273.209	95.06
273.425	101.2
273.64	84.82
273.856	27.48
274.072	60.24
274.287	47.96
274.503	21.33
274.719	-44.2
274.934	31.57
275.15	-7.34
275.366	23.38
275.581	82.77
275.797	31.57
276.012	-5.29
276.228	33.62
276.444	95.06
276.659	62.29
276.875	15.19
277.09	-27.82
277.306	95.06
277.521	-33.96
277.737	123.73
277.952	74.58
278.168	101.2
278.383	64.34
278.599	-11.43
278.814	-21.67
279.03	39.76
279.245	68.44
279.461	84.82
279.676	76.63
279.892	52.05
280.107	11.09
280.322	70.48
280.538	-31.91
280.753	84.82
280.969	15.19
281.184	47.96
281.399	54.1
281.615	50
281.83	76.63
282.045	-3.24
282.26	43.86
282.476	99.16
282.691	90.96
282.906	72.53
283.122	45.91
283.337	-25.77
283.552	4.95
283.767	15.19
283.983	78.68
284.198	43.86
284.413	33.62
284.628	37.72
284.843	50
285.058	37.72
285.274	43.86
285.489	109.4
285.704	76.63
285.919	19.29
286.134	-1.19
286.349	29.52
286.564	56.15
286.779	45.91
286.995	47.96
287.21	43.86
287.425	70.48
287.64	90.96
287.855	15.19
288.07	33.62
288.285	78.68
288.5	37.72
288.715	150.36
288.93	35.67
289.145	23.38
289.36	50
289.575	4.95
289.79	-11.43
290.004	45.91
290.219	54.1
290.434	33.62
290.649	11.09
290.864	62.29
291.079	25.43
291.294	113.49
291.509	13.14
291.724	31.57
291.938	43.86
292.153	-64.68
292.368	15.19
292.583	4.95
292.798	60.24
293.012	76.63
293.227	72.53
293.442	45.91
293.657	62.29
293.871	84.82
294.086	66.39
294.301	74.58
294.516	35.67
294.73	82.77
294.945	-9.39
295.16	101.2
295.374	7
295.589	43.86
295.804	19.29
296.018	21.33
296.233	76.63
296.447	72.53
296.662	17.24
296.877	39.76
297.091	-27.82
297.306	45.91
297.52	-23.72
297.735	54.1
297.949	62.29
298.164	-29.87
298.378	19.29
298.593	35.67
298.807	97.11
299.022	21.33
299.236	52.05
299.451	-1.19
299.665	43.86
299.88	15.19
300.094	-7.34
300.309	74.58
300.523	23.38
300.737	-3.24
300.952	82.77
301.166	31.57
301.381	39.76
301.595	121.68
301.809	45.91
302.024	99.16
302.238	-15.53
302.452	56.15
302.667	90.96
302.881	29.52
303.095	76.63
303.309	9.05
303.524	54.1
303.738	-21.67
303.952	47.96
304.166	-13.48
304.381	13.14
304.595	17.24
304.809	35.67
305.023	62.29
305.237	123.73
305.452	62.29
305.666	27.48
305.88	117.59
306.094	84.82
306.308	21.33
306.522	60.24
306.736	144.21
306.95	27.48
307.164	15.19
307.379	50
307.593	95.06
307.807	125.78
308.021	76.63
308.235	54.1
308.449	43.86
308.663	88.92
308.877	11.09
309.091	58.2
309.305	39.76
309.519	62.29
309.733	-1.19
309.947	99.16
310.161	90.96
310.374	47.96
310.588	52.05
310.802	-5.29
311.016	43.86
311.23	58.2
311.444	154.45
311.658	43.86
311.872	50
312.085	131.92
312.299	84.82
312.513	43.86
312.727	54.1
312.941	47.96
313.154	52.05
313.368	43.86
313.582	50
313.796	43.86
314.009	68.44
314.223	47.96
314.437	76.63
314.651	39.76
314.864	54.1
315.078	4.95
315.292	74.58
315.505	41.81
315.719	78.68
315.933	88.92
316.146	27.48
316.36	41.81
316.573	107.35
316.787	31.57
317.001	43.86
317.214	13.14
317.428	35.67
317.641	54.1
317.855	133.97
318.068	72.53
318.282	31.57
318.495	41.81
318.709	37.72
318.922	21.33
319.136	-5.29
319.349	-64.68
319.563	43.86
319.776	133.97
319.99	21.33
320.203	29.52
320.417	-52.39
320.63	13.14
320.843	70.48
321.057	56.15
321.27	19.29
321.483	4.95
321.697	37.72
321.91	41.81
322.124	37.72
322.337	31.57
322.55	-13.48
322.763	13.14
322.977	76.63
323.19	64.34
323.403	84.82
323.617	74.58
323.83	99.16
324.043	58.2
324.256	11.09
324.469	72.53
324.683	7
324.896	33.62
325.109	2.9
325.322	76.63
325.535	84.82
325.748	43.86
325.962	37.72
326.175	56.15
326.388	88.92
326.601	70.48
326.814	111.44
327.027	27.48
327.24	119.64
327.453	25.43
327.666	45.91
327.879	47.96
328.092	99.16
328.305	27.48
328.518	80.72
328.731	7
328.944	4.95
329.157	-7.34
329.37	13.14
329.583	70.48
329.796	88.92
330.009	11.09
330.222	-13.48
330.435	54.1
330.648	109.4
330.861	62.29
331.073	43.86
331.286	56.15
331.499	19.29
331.712	-27.82
331.925	31.57
332.138	60.24
332.35	23.38
332.563	27.48
332.776	37.72
332.989	21.33
333.202	47.96
333.414	35.67
333.627	19.29
333.84	15.19
334.053	82.77
334.265	13.14
334.478	-1.19
334.691	19.29
334.903	-23.72
335.116	13.14
335.329	43.86
335.541	64.34
335.754	39.76
335.966	25.43
336.179	93.01
336.392	45.91
336.604	72.53
336.817	-5.29
337.029	-23.72
337.242	72.53
337.454	17.24
337.667	2.9
337.88	84.82
338.092	45.91
338.305	15.19
338.517	56.15
338.729	21.33
338.942	152.4
339.154	-5.29
339.367	35.67
339.579	76.63
339.792	9.05
340.004	84.82
340.217	33.62
340.429	27.48
340.641	2.9
340.854	-17.58
341.066	45.91
341.278	37.72
341.491	56.15
341.703	54.1
341.915	-3.24
342.128	105.3
342.34	33.62
342.552	-62.63
342.764	66.39
342.977	-13.48
343.189	66.39
343.401	-25.77
343.613	41.81
343.826	13.14
344.038	33.62
344.25	62.29
344.462	66.39
344.674	97.11
344.886	4.95
345.099	78.68
345.311	68.44
345.523	29.52
345.735	33.62
345.947	35.67
346.159	66.39
346.371	62.29
346.583	27.48
346.795	64.34
347.007	31.57
347.219	60.24
347.431	129.88
347.643	84.82
347.855	2.9
348.067	78.68
348.279	103.25
348.491	54.1
348.703	45.91
348.915	70.48
349.127	70.48
349.339	60.24
349.551	-23.72
349.763	103.25
349.975	13.14
350.187	-13.48
350.399	35.67
350.61	4.95
350.822	33.62
351.034	41.81
351.246	39.76
351.458	21.33
351.669	125.78
351.881	72.53
352.093	13.14
352.305	109.4
352.517	7
352.728	117.59
352.94	82.77
353.152	17.24
353.363	0.85
353.575	70.48
353.787	127.83
353.999	56.15
354.21	15.19
354.422	52.05
354.633	29.52
354.845	95.06
355.057	113.49
355.268	60.24
355.48	54.1
355.692	56.15
355.903	-42.15
356.115	95.06
356.326	31.57
356.538	76.63
356.749	113.49
356.961	17.24
357.172	27.48
357.384	64.34
357.595	39.76
357.807	70.48
358.018	11.09
358.23	25.43
358.441	-3.24
358.653	60.24
358.864	90.96
359.075	70.48
359.287	138.07
359.498	29.52
359.709	62.29
359.921	29.52
360.132	13.14
360.344	76.63
360.555	78.68
360.766	88.92
360.977	39.76
361.189	82.77
361.4	19.29
361.611	41.81
361.823	93.01
362.034	2.9
362.245	17.24
362.456	56.15
362.667	54.1
362.879	45.91
363.09	84.82
363.301	45.91
363.512	11.09
363.723	15.19
363.935	52.05
364.146	78.68
364.357	88.92
364.568	117.59
364.779	45.91
364.99	43.86
365.201	80.72
365.412	109.4
365.623	2.9
365.834	43.86
366.045	45.91
366.256	19.29
366.467	-13.48
366.678	7
366.889	41.81
367.1	158.55
367.311	37.72
367.522	111.44
367.733	-3.24
367.944	60.24
368.155	101.2
368.366	56.15
368.577	54.1
368.788	56.15
368.999	-5.29
369.209	105.3
369.42	68.44
369.631	111.44
369.842	-13.48
370.053	74.58
370.264	101.2
370.474	60.24
370.685	60.24
370.896	109.4
371.107	68.44
371.317	19.29
371.528	60.24
371.739	0.85
371.95	-36.01
372.16	82.77
372.371	86.87
372.582	84.82
372.792	13.14
373.003	88.92
373.214	45.91
373.424	50
373.635	4.95
373.846	86.87
374.056	47.96
374.267	76.63
374.477	-29.87
374.688	125.78
374.898	50
375.109	41.81
375.319	88.92
375.53	109.4
375.74	17.24
375.951	140.12
376.161	-1.19
376.372	35.67
376.582	56.15
376.793	101.2
377.003	97.11
377.214	80.72
377.424	62.29
377.635	-11.43
377.845	21.33
378.055	101.2
378.266	58.2
378.476	37.72
378.686	45.91
378.897	25.43
379.107	78.68
379.317	64.34
379.528	52.05
379.738	-31.91
379.948	80.72
380.158	95.06
380.369	19.29
380.579	50
380.789	84.82
380.999	47.96
381.21	68.44
381.42	60.24
381.63	21.33
381.84	90.96
382.05	27.48
382.261	-7.34
382.471	54.1
382.681	37.72
382.891	43.86
383.101	62.29
383.311	35.67
383.521	62.29
383.731	13.14
383.941	127.83
384.151	72.53
384.361	7
384.571	39.76
384.781	78.68
384.991	80.72
385.201	66.39
385.411	136.02
385.621	64.34
385.831	84.82
386.041	9.05
386.251	52.05
386.461	66.39
386.671	2.9
386.881	95.06
387.091	37.72
387.301	60.24
387.511	31.57
387.72	115.54
387.93	43.86
388.14	43.86
388.35	56.15
388.56	80.72
388.769	66.39
388.979	11.09
389.189	54.1
389.399	127.83
389.609	-13.48
389.818	107.35
390.028	82.77
390.238	113.49
390.447	60.24
390.657	76.63
390.867	58.2
391.076	41.81
391.286	93.01
391.496	101.2
391.705	68.44
391.915	84.82
392.125	88.92
392.334	109.4
392.544	62.29
392.753	54.1
392.963	109.4
393.172	37.72
393.382	70.48
393.591	109.4
393.801	105.3
394.01	121.68
394.22	133.97
394.429	101.2
394.639	115.54
394.848	146.26
395.058	62.29
395.267	58.2
395.477	88.92
395.686	68.44
395.895	78.68
396.105	62.29
396.314	101.2
396.524	84.82
396.733	66.39
396.942	109.4
397.152	13.14
397.361	115.54
397.57	-19.63
397.78	72.53
397.989	125.78
398.198	84.82
398.407	68.44
398.617	23.38
398.826	121.68
399.035	35.67
399.244	13.14
399.453	84.82
399.663	168.79
399.872	93.01
400.081	31.57
400.29	101.2
400.499	70.48
400.708	93.01
400.917	43.86
401.127	52.05
401.336	88.92
401.545	148.31
401.754	68.44
401.963	45.91
402.172	113.49
402.381	117.59
402.59	146.26
402.799	84.82
403.008	74.58
403.217	142.16
403.426	95.06
403.635	107.35
403.844	123.73
404.053	119.64
404.262	76.63
404.471	127.83
404.68	119.64
404.888	68.44
405.097	115.54
405.306	72.53
405.515	172.88
405.724	164.69
405.933	111.44
406.142	185.17
406.35	179.03
406.559	105.3
406.768	158.55
406.977	179.03
407.185	117.59
407.394	222.03
407.603	176.98
407.812	232.27
408.02	131.92
408.229	205.65
408.438	101.2
408.646	183.12
408.855	207.7
409.064	158.55
409.272	136.02
409.481	267.09
409.69	228.18
409.898	179.03
410.107	199.51
410.315	262.99
410.524	170.83
410.733	265.04
410.941	183.12
411.15	185.17
411.358	242.51
411.567	306
411.775	226.13
411.984	236.37
412.192	234.32
412.401	217.94
412.609	293.71
412.818	312.14
413.026	281.43
413.234	240.47
413.443	312.14
413.651	363.34
413.86	349.01
414.068	428.88
414.276	357.2
414.485	318.29
414.693	465.74
414.901	453.45
415.11	367.44
415.318	410.45
415.526	351.06
415.734	471.89
415.943	467.79
416.151	430.93
416.359	506.7
416.567	537.42
416.776	455.5
416.984	535.37
417.192	543.57
417.4	572.24
417.608	545.61
417.817	631.63
418.025	611.15
418.233	754.51
418.441	703.31
418.649	605
418.857	740.17
419.065	873.29
419.273	799.56
419.481	793.42
419.689	787.27
419.897	828.23
420.105	930.63
420.313	875.34
420.521	914.25
420.729	936.78
420.937	990.02
421.145	1059.65
421.353	1112.9
421.561	1141.57
421.769	1149.76
421.977	1190.72
422.185	1184.58
422.393	1203.01
422.601	1418.05
422.809	1307.46
423.017	1321.79
423.224	1420.1
423.432	1409.86
423.64	1401.66
423.848	1555.26
424.056	1573.69
424.263	1702.72
424.471	1631.04
424.679	1575.74
424.887	1805.11
425.094	1794.87
425.302	1884.98
425.51	1966.9
425.718	1930.04
425.925	1946.42
426.133	1995.57
426.341	2179.89
426.548	2306.87
426.756	2356.02
426.964	2370.35
427.171	2315.06
427.379	2507.57
427.586	2499.38
427.794	2495.28
428.001	2575.15
428.209	2835.24
428.417	2720.56
428.624	2835.24
428.832	2968.36
429.039	2847.53
429.247	3001.13
429.454	3171.11
429.662	3396.39
429.869	3191.59
430.076	3435.3
430.284	3306.27
430.491	3461.92
430.699	3683.1
430.906	3701.53
431.114	3689.25
431.321	3879.71
431.528	4004.63
431.736	4184.85
431.943	4412.18
432.15	4240.15
432.358	4367.12
432.565	4557.58
432.772	4727.57
432.979	4674.32
433.187	4895.5
433.394	4758.28
433.601	5296.9
433.808	5368.58
434.016	5081.86
434.223	5413.63
434.43	5643.01
434.637	5626.62
434.844	5899
435.052	6089.46
435.259	6032.12
435.466	6148.86
435.673	6013.69
435.88	6308.6
436.087	6724.33
436.294	6689.52
436.501	6537.97
436.708	6757.1
436.915	6972.14
437.122	7353.06
437.329	7221.99
437.537	7674.59
437.743	7731.94
437.95	7600.87
438.157	7850.72
438.364	8067.8
438.571	8135.39
438.778	8381.14
438.985	9161.42
439.192	8641.23
439.399	8932.05
439.606	8739.54
439.813	9321.16
440.02	9724.61
440.227	9616.07
440.433	9624.26
440.64	9747.14
440.847	9814.72
441.054	10048.19
441.261	10826.42
441.467	10492.6
441.674	10896.05
441.881	11004.59
442.088	11477.67
442.294	11119.28
442.501	11557.54
442.708	11700.9
442.914	12012.19
443.121	12624.53
443.328	12446.36
443.534	13259.4
443.741	12855.95
443.948	12585.62
444.154	13386.38
444.361	13435.53
444.568	13462.15
444.774	13507.21
444.981	13699.72
445.187	14088.83
445.394	14735.99
445.6	14649.97
445.807	16167.52
446.013	15381.1
446.22	15757.92
446.426	16493.15
446.633	16585.3
446.839	16994.9
447.046	16579.16
447.252	17324.62
447.459	17482.31
447.665	17277.52
447.871	18049.6
448.078	18926.13
448.284	18029.12
448.491	18344.51
448.697	19098.16
448.903	19464.75
449.11	19544.62
449.316	19085.87
449.522	19718.7
449.728	20351.52
449.935	20275.74
450.141	20337.18
450.347	20875.8
450.553	20202.02
450.76	20398.62
450.966	21305.87
451.172	20607.51
451.378	21621.26
451.584	21244.43
451.791	21666.31
451.997	21635.6
452.203	22053.38
452.409	21955.08
452.615	21588.49
452.821	21191.19
453.027	20818.46
453.233	22102.53
453.44	21133.84
453.646	21602.83
453.852	21563.92
454.058	22055.43
454.264	21131.79
454.47	21592.59
454.676	20894.23
454.882	22053.38
455.088	20103.71
455.294	20408.86
455.5	20470.3
455.705	20826.65
455.911	20154.91
456.117	19628.59
456.323	19440.17
456.529	18244.16
456.735	19243.57
456.941	18580.03
457.147	18305.6
457.352	17723.97
457.558	17580.62
457.764	17904.2
457.97	17322.57
458.176	16788.05
458.381	17056.34
458.587	16296.54
458.793	16001.63
458.999	15229.55
459.204	16298.59
459.41	16091.74
459.616	14783.09
459.821	15051.38
460.027	14764.66
460.233	14633.59
460.438	13628.04
460.644	14205.56
460.85	13380.23
461.055	13007.5
461.261	12991.12
461.466	12405.4
461.672	11725.47
461.878	12778.13
462.083	11690.66
462.289	11539.11
462.494	11436.71
462.7	10982.06
462.905	10681.01
463.111	11043.5
463.316	11211.43
463.522	10846.9
463.727	11039.4
463.932	10975.92
464.138	10836.66
464.343	10867.38
464.549	10351.29
464.754	10947.25
464.959	10693.3
465.165	10805.94
465.37	10310.33
465.575	9878.21
465.781	10293.94
465.986	10412.73
466.191	9917.12
466.397	9878.21
466.602	9493.19
466.807	9861.82
467.012	9769.66
467.218	9593.54
467.423	9458.37
467.628	9605.83
467.833	9933.5
468.038	9505.48
468.244	9388.74
468.449	9900.73
468.654	9534.15
468.859	9278.15
469.064	9269.96
469.269	8942.28
469.474	9081.55
469.679	9288.39
469.885	9042.64
470.09	9093.83
470.295	9108.17
470.5	8831.69
470.705	8962.76
470.91	8561.36
471.115	8653.52
471.32	8559.31
471.525	8872.65
471.73	8438.48
471.935	8301.27
472.139	8127.19
472.344	8221.4
472.549	8143.58
472.754	7928.54
472.959	8104.67
473.164	7729.89
473.369	7600.87
473.574	7985.88
473.778	7963.36
473.983	7721.7
474.188	7914.2
474.393	7467.75
474.598	7539.43
474.802	7291.62
475.007	7367.4
475.212	7391.97
475.417	7207.66
475.621	7023.34
475.826	7084.78
476.031	6763.25
476.235	6826.73
476.44	7019.24
476.645	6869.74
476.849	6777.58
477.054	6806.25
477.259	6638.32
477.463	6523.63
477.668	6499.06
477.872	6636.27
478.077	6425.33
478.282	6261.49
478.486	6337.27
478.691	6036.22
478.895	6138.62
479.1	6269.69
479.304	6210.29
479.509	6058.74
479.713	6238.97
479.918	5966.59
480.122	5851.9
480.326	5942.01
480.531	5976.83
480.735	6005.5
480.94	5884.67
481.144	5980.92
481.348	5804.8
481.553	5737.21
481.757	5681.92
481.961	5751.55
482.166	5876.48
482.37	5556.99
482.574	5698.3
482.778	5686.01
482.983	5870.33
483.187	5827.32
483.391	5753.6
483.595	5786.37
483.8	5739.26
484.004	5804.8
484.208	5860.09
484.412	5735.17
484.616	5636.86
484.821	5718.78
485.025	5774.08
485.229	5841.66
485.433	5722.88
485.637	5915.39
485.841	5606.14
486.045	5688.06
486.249	5675.77
486.453	5769.98
486.657	5802.75
486.861	6019.83
487.065	5513.99
487.269	5649.15
487.473	5669.63
487.677	5937.91
487.881	5755.65
488.085	5726.97
488.289	5942.01
488.493	5896.96
488.697	5853.95
488.901	5759.74
489.105	5796.6
489.309	5806.84
489.512	5851.9
489.716	5778.17
489.92	5860.09
490.124	5845.76
490.328	5989.11
490.531	5980.92
490.735	5860.09
490.939	5876.48
491.143	5880.57
491.346	6042.36
491.55	6068.98
491.754	6101.75
491.958	6128.38
492.161	6134.52
492.365	6191.86
492.569	6036.22
492.772	6249.21
492.976	6216.44
493.18	6273.78
493.383	6187.77
493.587	6359.8
493.79	6394.61
493.994	6394.61
494.197	6492.91
494.401	6419.19
494.605	6417.14
494.808	6591.22
495.012	6523.63
495.215	6572.79
495.419	6806.25
495.622	6728.43
495.825	6785.77
496.029	6892.27
496.232	7021.29
496.436	6959.85
496.639	7226.09
496.843	7047.91
497.046	7361.25
497.249	7265
497.453	7301.86
497.656	7555.81
497.859	7492.32
498.063	7373.54
498.266	7842.53
498.469	7754.46
498.673	7840.48
498.876	8096.47
499.079	8059.61
499.282	8010.46
499.485	8090.33
499.689	8178.39
499.892	8456.92
500.095	8399.57
500.298	8481.49
500.501	8487.64
500.705	8753.87
500.908	9007.82
501.111	9038.54
501.314	9050.83
501.517	9161.42
501.72	9237.19
501.923	9398.98
502.126	9298.63
502.329	9589.44
502.532	9661.12
502.735	9722.56
502.938	9962.17
503.141	10072.76
503.344	10238.65
503.547	10185.4
503.75	10349.24
503.953	10832.56
504.156	10572.47
504.359	10791.6
504.562	11043.5
504.765	11231.91
504.968	11274.92
505.17	11369.13
505.373	11326.12
505.576	11575.97
505.779	11727.52
505.982	11956.89
506.185	12032.67
506.387	12227.23
506.59	12053.15
506.793	12466.84
506.996	12350.1
507.198	12669.59
507.401	12823.19
507.604	12915.34
507.807	13234.83
508.009	13247.12
508.212	13419.14
508.415	13517.45
508.617	13646.47
508.82	13906.56
509.022	13982.34
509.225	14273.15
509.428	14539.38
509.63	14408.31
509.833	14504.57
510.035	15008.37
510.238	14912.11
510.44	15200.88
510.643	15354.48
510.845	15835.75
511.048	15633
511.25	16024.16
511.453	15866.47
511.655	16566.87
511.858	16366.17
512.06	16427.61
512.262	16476.76
512.465	16728.66
512.667	17064.53
512.87	17293.9
513.072	17435.21
513.274	17494.6
513.477	17779.27
513.679	17951.3
513.881	18307.65
514.084	18205.25
514.286	18377.28
514.488	18680.38
514.69	18956.85
514.893	19161.65
515.095	19380.78
515.297	19544.62
515.499	19640.87
515.701	19866.15
515.904	20021.8
516.106	20517.4
516.308	20517.4
516.51	20769.3
516.712	20795.93
516.914	20777.5
517.116	21252.63
517.318	21727.75
517.52	21426.7
517.722	21727.75
517.925	21848.58
518.127	22444.54
518.329	22479.36
518.531	22501.89
518.733	22882.81
518.935	23114.23
519.136	23089.65
519.338	23640.56
519.54	23728.62
519.742	23788.01
519.944	24150.5
520.146	24480.22
520.348	24472.03
520.55	24596.96
520.752	25074.13
520.954	25176.53
521.155	25479.63
521.357	25582.03
521.559	25799.12
521.761	25915.85
521.963	26061.26
522.164	26198.47
522.366	26030.54
522.568	26919.35
522.77	26937.79
522.971	27066.81
523.173	26991.03
523.375	27173.3
523.576	27521.46
523.778	27367.86
523.98	28187.05
524.181	28103.08
524.383	28070.31
524.584	28600.74
524.786	28320.17
524.988	28260.77
525.189	28658.08
525.391	29137.3
525.592	29051.29
525.794	29389.2
525.995	29477.27
526.197	29387.16
526.398	29477.27
526.6	29475.22
526.801	29798.8
527.003	30073.23
527.204	29735.31
527.406	30660.99
527.607	30265.74
527.808	30415.24
528.01	29909.39
528.211	30609.79
528.412	31193.47
528.614	30984.57
528.815	30962.04
529.016	31304.06
529.218	30855.55
529.419	31105.4
529.62	31125.88
529.822	31072.64
530.023	31287.67
530.224	31340.92
530.425	31504.76
530.626	31201.66
530.828	31101.31
531.029	31658.35
531.23	31308.15
531.431	31725.94
531.632	31617.39
531.833	31838.58
532.035	31891.82
532.236	31717.75
532.437	32196.97
532.638	31938.93
532.839	31949.17
533.04	32170.35
533.241	31609.2
533.442	32504.17
533.643	32323.94
533.844	31977.84
534.045	32342.38
534.246	31760.75
534.447	32500.07
534.648	32358.76
534.849	32164.2
535.05	32309.61
535.251	32125.29
535.451	32325.99
535.652	32473.45
535.853	32248.17
536.054	32399.72
536.255	32246.12
536.456	32041.32
536.657	32889.18
536.857	32176.49
537.058	31969.65
537.259	32414.05
537.46	32149.87
537.66	32274.79
537.861	32465.25
538.062	32199.02
538.263	32491.88
538.463	32289.13
538.664	32106.86
538.865	32366.95
539.065	32285.03
539.266	32225.64
539.466	32465.25
539.667	32115.05
539.868	32778.59
540.068	32094.57
540.269	32246.12
540.469	32809.31
540.67	32602.47
540.87	32336.23
541.071	32276.84
541.271	32196.97
541.472	32250.22
541.672	32078.19
541.873	32434.53
542.073	31725.94
542.274	32653.67
542.474	32143.72
542.675	32369
542.875	32522.6
543.075	32180.59
543.276	31936.88
543.476	32412.01
543.676	32264.55
543.877	32692.58
544.077	32602.47
544.277	32684.39
544.478	32100.72
544.678	32581.99
544.878	31996.27
545.078	32414.05
545.279	31846.77
545.479	32303.46
545.679	32620.9
545.879	32100.72
546.079	32401.77
546.28	32311.66
546.48	32084.33
546.68	32360.81
546.88	32272.74
547.08	31934.83
547.28	32565.6
547.48	32086.38
547.68	32381.29
547.88	32303.46
548.081	32409.96
548.281	32004.46
548.481	32059.76
548.681	32463.21
548.881	32422.25
549.081	32123.24
549.28	31877.49
549.48	32291.18
549.68	32164.2
549.88	32170.35
550.08	31848.82
550.28	32598.37
550.48	31756.66
550.68	32375.14
550.88	31795.57
551.08	32076.14
551.279	32110.96
551.479	31871.34
551.679	32196.97
551.879	31955.31
552.079	32311.66
552.278	31936.88
552.478	32055.66
552.678	31770.99
552.878	32246.12
553.077	32037.23
553.277	31908.21
553.477	32500.07
553.676	31619.44
553.876	31695.22
554.076	31850.86
554.275	31658.35
554.475	31576.44
554.674	31986.03
554.874	31893.87
555.074	31707.51
555.273	31791.47
555.473	31596.92
555.672	31721.84
555.872	31340.92
556.071	31770.99
556.271	31797.62
556.47	31535.48
556.67	31693.17
556.869	31603.06
557.068	31572.34
557.268	31449.46
557.467	31232.38
557.667	31519.09
557.866	31461.75
558.065	31512.95
558.265	31349.11
558.464	31175.03
558.663	31459.7
558.863	30751.1
559.062	31814
559.261	30904.7
559.461	31510.9
559.66	30550.4
559.859	30828.93
560.058	30935.42
560.258	31117.69
560.457	30871.93
560.656	30988.67
560.855	30568.83
561.054	31154.55
561.253	30642.56
561.453	31023.48
561.652	30701.95
561.851	30978.43
562.05	30355.85
562.249	30632.32
562.448	30886.27
562.647	30845.31
562.846	30439.81
563.045	30640.51
563.244	30298.5
563.443	30626.18
563.642	30118.28
563.841	30149
564.04	30263.69
564.239	30087.56
564.438	29925.77
564.637	30343.56
564.836	29958.54
565.035	29671.82
565.234	29950.35
565.432	29616.53
565.631	29684.11
565.83	29669.78
566.029	29583.76
566.228	29737.36
566.427	29555.09
566.625	29340.05
566.824	28989.85
567.023	29673.87
567.222	28881.31
567.42	29073.82
567.619	29266.33
567.818	28916.12
568.016	28936.6
568.215	29125.02
568.414	28975.52
568.612	29022.62
568.811	28848.54
569.01	28836.25
569.208	28484
569.407	28774.81
569.605	28428.71
569.804	28572.07
570.002	28316.07
570.201	28563.87
570.4	27943.34
570.598	28461.48
570.797	28281.25
570.995	28076.46
571.193	27840.94
571.392	28221.86
571.59	27627.95
571.789	27752.88
571.987	27787.69
572.186	27949.48
572.384	27642.29
572.582	27490.74
572.781	27732.4
572.979	27308.47
573.177	27406.77
573.376	27478.45
573.574	27027.9
573.772	27060.66
573.971	27306.42
574.169	26970.55
574.367	26685.89
574.565	27142.58
574.763	27011.51
574.962	26757.57
575.16	26603.97
575.358	26671.55
575.556	26331.59
575.754	26646.97
575.952	26169.8
576.151	26403.27
576.349	26225.09
576.547	25991.62
576.745	26509.76
576.943	25870.79
577.141	26020.3
577.339	26153.41
577.537	25813.45
577.735	25921.99
577.933	25627.09
578.131	25860.55
578.329	25532.88
578.527	25422.29
578.725	25438.67
578.923	25684.43
579.121	25528.78
579.319	25405.91
579.516	25414.1
579.714	25012.7
579.912	25182.68
580.11	25043.42
580.308	25065.94
580.506	25237.97
580.704	24848.86
580.901	25018.84
581.099	24910.3
581.297	24535.52
581.495	24656.35
581.692	24701.4
581.89	24564.19
582.088	24717.79
582.285	24553.95
582.483	24639.97
582.681	24250.85
582.878	24203.75
583.076	23833.07
583.274	24515.04
583.471	23597.55
583.669	23874.03
583.866	23917.03
584.064	23869.93
584.262	23501.29
584.459	23624.17
584.657	23366.13
584.854	23874.03
585.052	23325.17
585.249	23751.15
585.447	23507.44
585.644	23288.31
585.841	23235.06
586.039	23562.73
586.236	23235.06
586.434	23101.94
586.631	22813.18
586.828	22778.36
587.026	22876.66
587.223	22745.59
587.42	22405.63
587.618	22600.19
587.815	22303.23
588.012	22260.23
588.21	22417.92
588.407	22422.02
588.604	22252.03
588.801	22485.5
588.999	22143.49
589.196	22059.52
589.393	22002.18
589.59	22219.27
589.787	21996.04
589.984	21940.74
590.182	21805.58
590.379	21770.76
590.576	21731.85
590.773	21940.74
590.97	21670.41
591.167	21570.06
591.364	21324.3
591.561	21457.42
591.758	21342.74
591.955	21348.88
592.152	21295.63
592.349	21189.14
592.546	21182.99
592.743	21443.09
592.94	20744.73
593.137	21285.39
593.334	21144.08
593.531	20521.5
593.727	20666.91
593.924	20802.07
594.121	20750.87
594.318	20843.03
594.515	20288.03
594.712	20668.95
594.908	20464.16
595.105	20279.84
595.302	20132.39
595.499	20427.29
595.696	20113.95
595.892	20101.67
596.089	20384.29
596.286	20222.5
596.482	20105.76
596.679	19847.72
596.876	19978.79
597.072	19763.75
597.269	20021.8
597.466	19606.06
597.662	19483.18
597.859	19335.73
598.055	19694.12
598.252	19501.61
598.448	19173.94
598.645	19294.77
598.841	19348.01
599.038	19386.93
599.234	19372.59
599.431	19077.68
599.627	19249.71
599.824	19157.55
600.02	18942.52
600.217	18940.47
600.413	18909.75
600.609	18868.79
600.806	18876.98
601.002	18844.21
601.198	18592.31
601.395	18389.56
601.591	18393.66
601.787	18465.34
601.984	18459.2
602.18	18598.46
602.376	18203.2
602.572	18180.67
602.769	18154.05
602.965	18000.45
603.161	18281.02
603.357	17949.25
603.553	18043.46
603.75	17885.76
603.946	17717.83
604.142	17955.4
604.338	17529.42
604.534	17834.57
604.73	17709.64
604.926	17728.07
605.122	17369.68
605.318	17695.3
605.514	17728.07
605.71	17140.3
605.906	17390.16
606.102	17263.18
606.298	17332.81
606.494	17363.53
606.69	16988.75
606.886	17273.42
607.082	16702.04
607.278	17222.22
607.474	16829.01
607.67	17068.62
607.866	16763.48
608.062	16814.68
608.257	16656.98
608.453	16878.16
608.649	16712.28
608.845	16704.09
609.041	16609.88
609.236	16575.06
609.432	16325.21
609.628	16398.94
609.824	16646.74
610.019	16519.77
610.215	16515.67
610.411	16216.67
610.606	16214.62
610.802	16247.39
610.998	16206.43
611.193	16220.77
611.389	16167.52
611.584	16194.14
611.78	15987.3
611.976	16056.93
612.171	16241.25
612.367	16058.98
612.562	16140.9
612.758	15602.28
612.953	15899.23
613.149	16038.5
613.344	15719.01
613.539	16005.73
613.735	15624.81
613.93	15813.22
614.126	15542.89
614.321	15993.44
614.517	15790.69
614.712	15475.31
614.907	15569.51
615.103	15524.46
615.298	15553.13
615.493	15766.12
615.688	15321.71
615.884	15645.29
616.079	15293.04
616.274	15411.82
616.47	15239.79
616.665	15483.5
616.86	15497.83
617.055	15213.17
617.25	15377
617.445	15340.14
617.641	15071.86
617.836	15227.5
618.031	14815.86
618.226	15010.42
618.421	15141.49
618.616	14799.48
618.811	14566.01
619.006	15108.72
619.201	14432.89
619.396	14666.36
619.591	14443.13
619.786	14510.71
619.981	14381.69
620.176	14539.38
620.371	14461.56
620.566	14240.38
620.761	14045.82
620.956	14240.38
621.151	14000.77
621.346	14064.25
621.541	13812.35
621.735	14158.46
621.93	13867.65
622.125	13599.37
622.32	13732.48
622.515	13591.17
622.709	13529.73
622.904	13333.13
623.099	13300.36
623.294	13216.4
623.488	13130.38
623.683	13187.72
623.878	13095.57
624.072	13062.8
624.267	13154.96
624.462	13138.57
624.656	12921.49
624.851	12970.64
625.046	12632.72
625.24	12753.55
625.435	12282.52
625.629	12780.18
625.824	12438.17
626.018	12565.14
626.213	12259.99
626.407	12186.27
626.602	12061.34
626.796	12180.12
626.991	12096.16
627.185	11979.42
627.38	11903.65
627.574	11786.91
627.768	11659.94
627.963	11846.3
628.157	11608.74
628.352	11610.79
628.546	11655.84
628.74	11678.37
628.935	11520.68
629.129	11524.77
629.323	11242.15
629.517	11250.35
629.712	11197.1
629.906	11143.85
630.1	10812.08
630.294	11072.17
630.489	10896.05
630.683	10836.66
630.877	10650.29
631.071	10797.74
631.265	10930.86
631.459	10740.4
631.653	10601.14
631.848	10504.89
632.042	10711.73
632.236	10705.59
632.43	10455.73
632.624	10480.31
632.818	10498.74
633.012	10199.74
633.206	10156.73
633.4	10195.64
633.594	10033.85
633.788	10060.48
633.982	10107.58
634.176	10093.24
634.369	10056.38
634.563	10136.25
634.757	9847.49
634.951	9915.07
635.145	9818.82
635.339	9865.92
635.533	9384.65
635.726	9515.72
635.92	9493.19
636.114	9454.28
636.308	9304.78
636.501	9378.5
636.695	9423.56
636.889	9343.69
637.083	9112.27
637.276	9118.41
637.47	9050.83
637.664	9159.37
637.857	9153.23
638.051	9046.73
638.244	8932.05
638.438	8960.72
638.632	8970.96
638.825	8760.02
639.019	8866.51
639.212	8626.9
639.406	8682.19
639.599	8626.9
639.793	8407.77
639.986	8354.52
640.18	8389.33
640.373	8391.38
640.567	8313.56
640.76	8252.12
640.954	8227.54
641.147	8284.89
641.34	8020.7
641.534	8340.18
641.727	8301.27
641.92	8024.79
642.114	8069.85
642.307	7842.53
642.5	8026.84
642.694	7932.64
642.887	7625.44
643.08	7811.81
643.273	7619.3
643.467	7838.43
643.66	7527.14
643.853	7525.09
644.046	7353.06
644.239	7613.15
644.432	7490.28
644.626	7256.81
644.819	7322.34
645.012	7301.86
645.205	7449.32
645.398	7262.95
645.591	7355.11
645.784	7170.79
645.977	7185.13
646.17	7183.08
646.363	7000.81
646.556	7099.11
646.749	6914.8
646.942	6761.2
647.135	7111.4
647.328	6857.45
647.521	6992.62
647.714	6673.14
647.907	6705.9
648.099	6761.2
648.292	6736.62
648.485	6681.33
648.678	6675.18
648.871	6638.32
649.064	6433.52
649.256	6597.36
649.449	6519.54
649.642	6337.27
649.835	6304.5
650.027	6361.84
650.22	6292.21
650.413	6202.1
650.605	6130.42
650.798	6124.28
650.991	6224.63
651.183	6120.18
651.376	6161.14
651.568	6181.62
651.761	6046.46
651.954	6114.04
652.146	5839.61
652.339	5837.56
652.531	5899
652.724	5726.97
652.916	5964.54
653.109	5905.15
653.301	5712.64
653.494	5683.97
653.686	5649.15
653.879	5716.73
654.071	5708.54
654.263	5624.58
654.456	5536.51
654.648	5694.21
654.84	5495.55
655.033	5466.88
655.225	5554.94
655.417	5520.13
655.61	5423.87
655.802	5278.47
655.994	5350.15
656.186	5421.83
656.379	5298.95
656.571	5180.17
656.763	5255.94
656.955	5149.45
657.148	5212.93
657.34	5327.62
657.532	5126.92
657.724	5122.82
657.916	5149.45
658.108	5083.91
658.3	4975.37
658.492	4940.55
658.684	4928.27
658.876	4913.93
659.068	4922.12
659.26	4827.92
659.452	4805.39
659.644	4795.15
659.836	4733.71
660.028	4655.89
660.22	4649.74
660.412	4688.65
660.604	4635.41
660.796	4721.42
660.988	4533.01
661.18	4608.78
661.372	4449.04
661.563	4291.35
661.755	4451.09
661.947	4410.13
662.139	4420.37
662.331	4317.97
662.522	4358.93
662.714	4430.61
662.906	4287.25
663.097	4418.32
663.289	4266.77
663.481	4426.51
663.673	4354.83
663.864	4147.99
664.056	4156.18
664.247	4113.17
664.439	4027.16
664.631	4014.87
664.822	4147.99
665.014	4127.51
665.205	4061.98
665.397	4000.54
665.588	4051.74
665.78	3945.24
665.971	4021.02
666.163	3969.82
666.354	3988.25
666.546	3898.14
666.737	3937.05
666.929	3877.66
667.12	3863.32
667.311	3767.07
667.503	3765.02
667.694	3803.93
667.885	3808.03
668.077	3871.51
668.268	3779.36
668.459	3767.07
668.651	3588.89
668.842	3660.57
669.033	3810.08
669.224	3795.74
669.416	3558.18
669.607	3644.19
669.798	3683.1
669.989	3621.66
670.18	3629.85
670.371	3539.74
670.563	3592.99
670.754	3492.64
670.945	3482.4
671.136	3453.73
671.327	3549.98
671.518	3541.79
671.709	3527.46
671.9	3486.5
672.091	3351.33
672.282	3369.76
672.473	3388.19
672.664	3529.5
672.855	3521.31
673.046	3482.4
673.237	3343.14
673.428	3347.23
673.619	3253.03
673.809	3242.79
674	3304.23
674.191	3308.32
674.382	3267.36
674.573	3193.64
674.764	3380
674.954	3173.16
675.145	3230.5
675.336	3162.92
675.527	3242.79
675.717	3257.12
675.908	3103.53
676.099	3197.73
676.289	3173.16
676.48	3087.14
676.671	3156.77
676.861	3189.54
677.052	3177.25
677.243	3175.2
677.433	3142.44
677.624	3117.86
677.814	3238.69
678.005	3089.19
678.195	3121.96
678.386	2978.6
678.576	3019.56
678.767	3109.67
678.957	3054.37
679.148	3029.8
679.338	3156.77
679.529	2978.6
679.719	3031.85
679.909	2958.12
680.1	3052.33
680.29	2911.02
680.481	3019.56
680.671	3113.77
680.861	2931.5
681.052	2937.64
681.242	2943.78
681.432	2943.78
681.622	2880.3
681.813	2970.41
682.003	2929.45
682.193	2816.81
682.383	3083.05
682.573	2970.41
682.764	2939.69
682.954	2876.2
683.144	2851.63
683.334	2992.94
683.524	2925.35
683.714	2886.44
683.904	2847.53
684.094	2896.68
684.284	2978.6
684.474	2884.39
684.664	2943.78
684.854	2892.59
685.044	2894.63
685.234	2859.82
685.424	2681.64
685.614	2931.5
685.804	2779.95
685.994	2892.59
686.184	2732.84
686.374	2890.54
686.564	2806.57
686.753	2702.12
686.943	2698.03
687.133	2929.45
687.323	2732.84
687.513	2812.71
687.702	2878.25
687.892	2822.95
688.082	2880.3
688.272	2714.41
688.461	2698.03
688.651	2800.43
688.841	2671.4
689.03	2767.66
689.22	2673.45
689.41	2634.54
689.599	2743.08
689.789	2724.65
689.979	2804.52
690.168	2652.97
690.358	2636.59
690.547	2747.18
690.737	2704.17
690.926	2710.32
691.116	2745.13
691.305	2622.25
691.495	2708.27
691.684	2562.86
691.874	2646.83
692.063	2650.92
692.252	2534.19
692.442	2607.92
692.631	2587.44
692.82	2579.25
693.01	2599.73
693.199	2622.25
693.388	2528.05
693.578	2495.28
693.767	2624.3
693.956	2546.48
694.146	2542.38
694.335	2626.35
694.524	2507.57
694.713	2474.8
694.902	2491.18
695.092	2493.23
695.281	2511.66
695.47	2550.57
695.659	2480.94
695.848	2464.56
696.037	2476.85
696.226	2499.38
696.415	2487.09
696.604	2450.22
696.793	2505.52
696.982	2478.9
697.171	2575.15
697.36	2503.47
697.549	2454.32
697.738	2460.46
697.927	2433.84
698.116	2460.46
698.305	2497.33
698.494	2497.33
698.683	2423.6
698.872	2415.41
699.061	2526
699.25	2439.98
699.438	2433.84
699.627	2339.63
699.816	2345.78
700.005	2399.02
700.193	2310.96
700.382	2470.7
700.571	2337.59
700.76	2460.46
700.948	2431.79
701.137	2360.11
701.326	2333.49
701.514	2302.77
701.703	2362.16
701.892	2417.46
702.08	2351.92
702.269	2241.33
702.457	2329.39
702.646	2313.01
702.834	2339.63
703.023	2263.86
703.212	2288.43
703.4	2235.19
703.589	2249.52
703.777	2276.15
703.965	2237.24
704.154	2265.91
704.342	2249.52
704.531	2294.58
704.719	2247.48
704.907	2337.59
705.096	2241.33
705.284	2280.24
705.472	2255.67
705.661	2124.6
705.849	2382.64
706.037	2339.63
706.226	2206.52
706.414	2239.28
706.602	2218.8
706.79	2239.28
706.979	2149.17
707.167	2118.45
707.355	2222.9
707.543	2100.02
707.731	2317.11
707.919	2214.71
708.107	2163.51
708.296	2149.17
708.484	2102.07
708.672	2116.41
708.86	2120.5
709.048	2138.93
709.236	2157.36
709.424	2132.79
709.612	2155.32
709.8	2114.36
709.988	2190.13
710.176	2081.59
710.364	2097.97
710.551	2024.25
710.739	2159.41
710.927	2110.26
711.115	2140.98
711.303	2114.36
711.491	2102.07
711.679	2054.97
711.866	1997.62
712.054	2038.58
712.242	1952.57
712.43	2040.63
712.617	1999.67
712.805	2077.49
712.993	2018.1
713.181	2024.25
713.368	1934.14
713.556	1964.86
713.744	1981.24
713.931	1985.34
714.119	1919.8
714.306	1975.1
714.494	1979.19
714.682	2083.64
714.869	1839.93
715.057	1878.84
715.244	2003.77
715.432	2020.15
715.619	1850.17
715.807	1954.62
715.994	1993.53
716.182	1913.66
716.369	1948.47
716.556	1876.79
716.744	1819.45
716.931	1936.18
717.119	1942.33
717.306	1864.5
717.493	1932.09
717.681	1833.79
717.868	1823.55
718.055	1774.39
718.242	1882.94
718.43	1856.31
718.617	1880.89
718.804	1758.01
718.991	1794.87
719.179	1837.88
719.366	1813.31
719.553	1821.5
719.74	1870.65
719.927	1788.73
720.114	1717.05
720.301	1887.03
720.488	1755.96
720.676	1801.02
720.863	1817.4
721.05	1846.07
721.237	1796.92
721.424	1813.31
721.611	1839.93
721.798	1819.45
721.985	1745.72
722.172	1811.26
722.358	1745.72
722.545	1690.43
722.732	1731.39
722.919	1725.24
723.106	1721.15
723.293	1792.83
723.48	1794.87
723.667	1739.58
723.853	1715
724.04	1708.86
724.227	1624.89
724.414	1739.58
724.6	1653.56
724.787	1729.34
724.974	1583.93
725.161	1739.58
725.347	1690.43
725.534	1688.38
725.72	1706.81
725.907	1778.49
726.094	1811.26
726.28	1753.91
726.467	1690.43
726.653	1663.8
726.84	1649.47
727.027	1659.71
727.213	1600.32
727.4	1639.23
727.586	1710.91
727.773	1645.37
727.959	1676.09
728.145	1715
728.332	1657.66
728.518	1588.03
728.705	1626.94
728.891	1514.3
729.077	1631.04
729.264	1557.31
729.45	1592.13
729.636	1635.13
729.823	1590.08
730.009	1583.93
730.195	1635.13
730.382	1563.45
730.568	1618.75
730.754	1524.54
730.94	1624.89
731.126	1592.13
731.313	1583.93
731.499	1581.89
731.685	1610.56
731.871	1657.66
732.057	1614.65
732.243	1540.93
732.429	1524.54
732.615	1643.32
732.801	1592.13
732.987	1497.92
733.173	1522.49
733.359	1481.53
733.545	1534.78
733.731	1528.64
733.917	1506.11
734.103	1479.49
734.289	1526.59
734.475	1551.17
734.661	1499.97
734.847	1518.4
735.033	1504.06
735.219	1565.5
735.404	1520.45
735.59	1528.64
735.776	1555.26
735.962	1473.34
736.148	1481.53
736.333	1465.15
736.519	1454.91
736.705	1479.49
736.89	1395.52
737.076	1618.75
737.262	1342.27
737.447	1495.87
737.633	1489.73
737.819	1321.79
738.004	1405.76
738.19	1497.92
738.375	1432.38
738.561	1526.59
738.747	1487.68
738.932	1360.7
739.118	1561.41
739.303	1444.67
739.489	1432.38
739.674	1381.18
739.859	1313.6
740.045	1407.81
740.23	1465.15
740.416	1399.62
740.601	1422.14
740.786	1401.66
740.972	1309.51
741.157	1246.02
741.342	1430.34
741.528	1411.9
741.713	1364.8
741.898	1354.56
742.084	1313.6
742.269	1448.77
742.454	1325.89
742.639	1403.71
742.824	1362.75
743.01	1303.36
743.195	1356.61
743.38	1323.84
743.565	1264.45
743.75	1307.46
743.935	1254.21
744.12	1387.33
744.305	1362.75
744.49	1266.5
744.675	1248.07
744.86	1270.59
745.045	1299.27
745.23	1248.07
745.415	1250.11
745.6	1256.26
745.785	1233.73
745.97	1264.45
746.155	1266.5
746.34	1227.59
746.525	1174.34
746.71	1196.87
746.895	1217.35
747.079	1143.62
747.264	1145.67
747.449	1227.59
747.634	1164.1
747.819	1172.29
748.003	1180.48
748.188	1239.87
748.373	1149.76
748.557	1127.24
748.742	1160
748.927	1125.19
749.111	1155.91
749.296	1135.43
749.481	1108.8
749.665	1129.28
749.85	1200.96
750.034	1147.72
750.219	1018.69
750.404	1092.42
750.588	1069.89
750.773	1053.51
750.957	1114.95
751.141	1047.37
751.326	1096.52
751.51	1102.66
751.695	1020.74
751.879	981.83
752.064	1127.24
752.248	1084.23
752.432	1022.79
752.617	947.01
752.801	949.06
752.985	1065.8
753.17	1002.31
753.354	1037.13
753.538	1078.08
753.722	1053.51
753.907	985.93
754.091	1000.26
754.275	963.4
754.459	977.73
754.643	969.54
754.828	959.3
755.012	926.54
755.196	901.96
755.38	901.96
755.564	830.28
755.748	977.73
755.932	856.9
756.116	938.82
756.3	871.24
756.484	848.71
756.668	836.42
756.852	861
757.036	873.29
757.22	873.29
757.404	815.94
757.588	832.33
757.772	856.9
757.956	861
758.14	875.34
758.323	758.6
758.507	836.42
758.691	768.84
758.875	826.18
759.059	758.6
759.242	768.84
759.426	830.28
759.61	764.75
759.794	811.85
759.977	766.79
760.161	781.13
760.345	731.98
760.528	734.03
760.712	774.99
760.895	727.88
761.079	795.47
761.263	682.83
761.446	783.18
761.63	772.94
761.813	725.83
761.997	725.83
762.18	744.27
762.364	760.65
762.547	731.98
762.731	727.88
762.914	668.49
763.098	678.73
763.281	695.11
763.464	756.55
763.648	703.31
763.831	707.4
764.015	641.87
764.198	701.26
764.381	688.97
764.564	725.83
764.748	652.11
764.931	635.72
765.114	691.02
765.297	611.15
765.481	658.25
765.664	682.83
765.847	707.4
766.03	748.36
766.213	650.06
766.397	594.76
766.58	664.4
766.763	672.59
766.946	617.29
767.129	684.87
767.312	691.02
767.495	697.16
767.678	658.25
767.861	717.64
768.044	578.38
768.227	586.57
768.41	617.29
768.593	643.92
768.776	637.77
768.959	592.72
769.142	670.54
769.324	629.58
769.507	602.96
769.69	695.11
769.873	559.95
770.056	562
770.239	568.14
770.421	662.35
770.604	584.52
770.787	568.14
770.97	564.04
771.152	576.33
771.335	652.11
771.518	594.76
771.7	590.67
771.883	570.19
772.066	566.09
772.248	516.94
772.431	582.48
772.613	525.13
772.796	584.52
772.978	549.71
773.161	566.09
773.343	521.04
773.526	574.28
773.708	512.85
773.891	506.7
774.073	492.37
774.256	504.65
774.438	527.18
774.621	516.94
774.803	559.95
774.985	527.18
775.168	510.8
775.35	496.46
775.532	627.53
775.715	475.98
775.897	539.47
776.079	387.92
776.261	512.85
776.444	457.55
776.626	432.97
776.808	488.27
776.99	566.09
777.173	510.8
777.355	463.69
777.537	494.41
777.719	416.59
777.901	461.65
778.083	478.03
778.265	371.54
778.447	453.45
778.629	379.73
778.811	355.15
778.993	396.11
779.175	486.22
779.357	367.44
779.539	402.26
779.721	432.97
779.903	389.97
780.085	478.03
780.267	461.65
780.449	389.97
780.631	426.83
780.812	334.67
780.994	379.73
781.176	424.78
781.358	371.54
781.54	402.26
781.721	414.54
781.903	441.17
782.085	316.24
782.267	328.53
782.448	461.65
782.63	346.96
782.812	355.15
782.993	353.1
783.175	355.15
783.357	420.69
783.538	439.12
783.72	357.2
783.901	369.49
784.083	414.54
784.264	320.34
784.446	299.86
784.627	291.66
784.809	406.35
784.99	332.62
785.172	306
785.353	332.62
785.535	353.1
785.716	332.62
785.897	332.62
786.079	371.54
786.26	398.16
786.441	199.51
786.623	316.24
786.804	287.57
786.985	377.68
787.167	346.96
787.348	330.58
787.529	310.1
787.71	355.15
787.891	301.9
788.073	303.95
788.254	271.19
788.435	312.14
788.616	232.27
788.797	293.71
788.978	332.62
789.159	375.63
789.34	265.04
789.522	273.23
789.703	289.62
789.884	299.86
790.065	308.05
790.246	275.28
790.427	258.9
790.607	291.66
790.788	291.66
790.969	209.75
791.15	248.66
791.331	285.52
791.512	271.19
791.693	203.6
791.874	250.71
792.054	172.88
792.235	285.52
792.416	273.23
792.597	260.95
792.778	242.51
792.958	248.66
793.139	205.65
793.32	195.41
793.5	195.41
793.681	217.94
793.862	217.94
794.042	230.23
794.223	207.7
794.404	179.03
794.584	158.55
794.765	199.51
794.945	308.05
795.126	297.81
795.306	207.7
795.487	209.75
795.667	185.17
795.848	248.66
796.028	271.19
796.209	195.41
796.389	267.09
796.57	265.04
796.75	172.88
796.93	170.83
797.111	197.46
797.291	224.08
797.471	258.9
797.652	215.89
797.832	201.55
798.012	238.42
798.192	158.55
798.373	201.55
798.553	262.99
798.733	136.02
798.913	203.6
799.093	181.07
799.274	174.93
799.454	228.18
799.634	224.08
799.814	215.89
799.994	219.99
800.174	244.56
800.354	179.03
800.534	195.41
800.714	246.61
800.894	170.83
801.074	201.55
801.254	234.32
801.434	199.51
801.614	181.07
801.794	125.78
801.974	439.12
802.154	101.2
802.334	191.31
802.514	207.7
802.693	136.02
802.873	140.12
803.053	207.7
803.233	111.44
803.413	133.97
803.592	195.41
803.772	166.74
803.952	146.26
804.131	183.12
804.311	203.6
804.491	207.7
804.67	131.92
804.85	195.41
805.03	209.75
805.209	142.16
805.389	254.8
805.568	117.59
805.748	160.59
805.928	160.59
806.107	140.12
806.287	123.73
806.466	142.16
806.646	129.88
806.825	95.06
807.004	129.88
807.184	121.68
807.363	207.7
807.543	228.18
807.722	197.46
807.901	226.13
808.081	174.93
808.26	86.87
808.439	146.26
808.619	191.31
808.798	125.78
808.977	101.2
809.156	150.36
809.336	109.4
809.515	127.83
809.694	158.55
809.873	76.63
810.052	97.11
810.231	242.51
810.411	148.31
810.59	144.21
810.769	95.06
810.948	185.17
811.127	174.93
811.306	82.77
811.485	199.51
811.664	121.68
811.843	142.16
812.022	97.11
812.201	68.44
812.38	158.55
812.559	138.07
812.737	142.16
812.916	138.07
813.095	90.96
813.274	146.26
813.453	113.49
813.632	156.5
813.811	82.77
813.989	183.12
814.168	127.83
814.347	105.3
814.526	80.72
814.704	164.69
814.883	125.78
815.062	95.06
815.24	154.45
815.419	90.96
815.598	142.16
815.776	39.76
815.955	172.88
816.133	105.3
816.312	133.97
816.49	121.68
816.669	121.68
816.847	60.24
817.026	84.82
817.204	50
817.383	99.16
817.561	90.96
817.74	158.55
817.918	140.12
818.097	136.02
818.275	68.44
818.453	74.58
818.632	140.12
818.81	109.4
818.988	64.34
819.167	70.48
819.345	66.39
819.523	35.67
819.701	113.49
819.879	101.2
820.058	103.25
820.236	90.96
820.414	50
820.592	80.72
820.77	45.91
820.948	131.92
821.127	47.96
821.305	13.14
821.483	86.87
821.661	105.3
821.839	33.62
822.017	119.64
822.195	80.72
822.373	199.51
822.551	88.92
822.729	148.31
822.907	162.64
823.085	27.48
823.262	80.72
823.44	117.59
823.618	88.92
823.796	136.02
823.974	62.29
824.152	127.83
824.329	19.29
824.507	76.63
824.685	78.68
824.863	119.64
825.04	109.4
825.218	70.48
825.396	80.72
825.574	11.09
825.751	144.21
825.929	117.59
826.107	113.49
826.284	86.87
826.462	82.77
826.639	117.59
826.817	45.91
826.994	97.11
827.172	15.19
827.349	127.83
827.527	47.96
827.704	152.4
827.882	170.83
828.059	109.4
828.237	70.48
828.414	50
828.591	74.58
828.769	185.17
828.946	54.1
829.124	47.96
829.301	148.31
829.478	109.4
829.655	93.01
829.833	68.44
830.01	33.62
830.187	105.3
830.364	72.53
830.542	150.36
830.719	93.01
830.896	68.44
831.073	109.4
831.25	80.72
831.427	39.76
831.604	90.96
831.782	35.67
831.959	148.31
832.136	43.86
832.313	117.59
832.49	27.48
832.667	201.55
832.844	60.24
833.021	103.25
833.198	39.76
833.374	117.59
833.551	93.01
833.728	121.68
833.905	0.85
834.082	62.29
834.259	58.2
834.436	93.01
834.612	7
834.789	47.96
834.966	60.24
835.143	162.64
835.319	47.96
835.496	105.3
835.673	15.19
835.85	35.67
836.026	95.06
836.203	95.06
836.38	33.62
836.556	113.49
836.733	47.96
836.909	72.53
837.086	56.15
837.262	109.4
837.439	27.48
837.616	-38.06
837.792	27.48
837.968	45.91
838.145	109.4
838.321	29.52
838.498	72.53
838.674	15.19
838.851	95.06
839.027	72.53
839.203	113.49
839.38	33.62
839.556	23.38
839.732	52.05
839.909	111.44
840.085	29.52
840.261	113.49
840.437	9.05
840.614	54.1
840.79	70.48
840.966	54.1
841.142	117.59
841.318	60.24
841.494	37.72
841.671	117.59
841.847	43.86
842.023	62.29
842.199	64.34
842.375	70.48
842.551	-3.24
842.727	64.34
842.903	95.06
843.079	47.96
843.255	95.06
843.431	33.62
843.607	84.82
843.783	39.76
843.959	66.39
844.134	25.43
844.31	33.62
844.486	15.19
844.662	97.11
844.838	158.55
845.013	45.91
845.189	99.16
845.365	90.96
845.541	35.67
845.716	127.83
845.892	45.91
846.068	54.1
846.244	15.19
846.419	119.64
846.595	90.96
846.77	76.63
846.946	78.68
847.122	50
847.297	105.3
847.473	76.63
847.648	54.1
847.824	54.1
847.999	60.24
848.175	99.16
848.35	31.57
848.526	93.01
848.701	54.1
848.876	72.53
849.052	29.52
849.227	78.68
849.403	4.95
849.578	54.1
849.753	0.85
849.929	64.34
850.104	11.09
850.279	84.82
850.454	13.14
850.63	70.48
850.805	76.63
850.98	35.67
851.155	-7.34
851.33	88.92
851.505	58.2
851.681	21.33
851.856	45.91
852.031	84.82
852.206	-21.67
852.381	43.86
852.556	37.72
852.731	105.3
852.906	41.81
853.081	62.29
853.256	111.44
853.431	62.29
853.606	41.81
853.781	66.39
853.956	50
854.131	54.1
854.305	4.95
854.48	88.92
854.655	80.72
854.83	33.62
855.005	47.96
855.18	-52.39
855.354	60.24
855.529	107.35
855.704	-13.48
855.879	50
856.053	72.53
856.228	60.24
856.403	15.19
856.577	74.58
856.752	0.85
856.926	103.25
857.101	13.14
857.276	115.54
857.45	43.86
857.625	80.72
857.799	43.86
857.974	84.82
858.148	-46.25
858.323	41.81
858.497	56.15
858.672	45.91
858.846	47.96
859.02	76.63
859.195	29.52
859.369	54.1
859.543	2.9
859.718	-17.58
859.892	103.25
860.066	101.2
860.241	37.72
860.415	74.58
860.589	19.29
860.763	78.68
860.938	60.24
861.112	4.95
861.286	-27.82
861.46	54.1
861.634	37.72
861.808	41.81
861.982	23.38
862.157	101.2
862.331	90.96
862.505	27.48
862.679	29.52
862.853	-29.87
863.027	-42.15
863.201	103.25
863.375	35.67
863.549	90.96
863.722	60.24
863.896	84.82
864.07	7
864.244	56.15
864.418	70.48
864.592	88.92
864.766	45.91
864.939	66.39
865.113	31.57
865.287	29.52
865.461	80.72
865.634	58.2
865.808	60.24
865.982	41.81
866.156	19.29
866.329	21.33
866.503	52.05
866.676	9.05
866.85	58.2
867.024	25.43
867.197	39.76
867.371	84.82
867.544	2.9
867.718	78.68
867.891	82.77
868.065	35.67
868.238	64.34
868.412	80.72
868.585	9.05
868.759	33.62
868.932	-17.58
869.105	21.33
869.279	9.05
869.452	-21.67
869.625	74.58
869.799	88.92
869.972	-1.19
870.145	17.24
870.319	4.95
870.492	31.57
870.665	-5.29
870.838	43.86
871.011	33.62
871.185	66.39
871.358	39.76
871.531	47.96
871.704	56.15
871.877	31.57
872.05	23.38
872.223	2.9
872.396	-54.44
872.569	60.24
872.742	-11.43
872.915	68.44
873.088	35.67
873.261	27.48
873.434	41.81
873.607	-5.29
873.78	13.14
873.953	27.48
874.126	-3.24
874.299	117.59
874.471	-15.53
874.644	56.15
874.817	60.24
874.99	43.86
875.163	7
875.335	15.19
875.508	27.48
875.681	41.81
875.853	50
876.026	27.48
876.199	47.96
876.371	78.68
876.544	17.24
876.717	101.2
876.889	-48.3
877.062	76.63
877.234	52.05
877.407	70.48
877.579	107.35
877.752	-1.19
877.924	37.72
878.097	33.62
878.269	-1.19
878.442	33.62
878.614	23.38
878.786	39.76
878.959	60.24
879.131	-5.29
879.303	64.34
879.476	56.15
879.648	101.2
879.82	13.14
879.993	35.67
880.165	15.19
880.337	15.19
880.509	-13.48
880.681	23.38
880.854	19.29
881.026	-1.19
881.198	64.34
881.37	47.96
881.542	64.34
881.714	72.53
881.886	52.05
882.058	-13.48
882.23	84.82
882.402	-3.24
882.574	37.72
882.746	17.24
882.918	-3.24
883.09	121.68
883.262	56.15
883.434	-27.82
883.606	58.2
883.778	21.33
883.95	-3.24
884.122	58.2
884.293	31.57
884.465	-9.39
884.637	31.57
884.809	58.2
884.98	37.72
885.152	52.05
885.324	23.38
885.496	64.34
885.667	50
885.839	-5.29
886.011	95.06
886.182	37.72
886.354	56.15
886.525	45.91
886.697	19.29
886.869	54.1
887.04	-9.39
887.212	-33.96
887.383	72.53
887.555	62.29
887.726	37.72
887.897	13.14
888.069	17.24
888.24	86.87
888.412	62.29
888.583	2.9
888.754	27.48
888.926	52.05
889.097	25.43
889.268	47.96
889.44	-13.48
889.611	-3.24
889.782	47.96
889.953	-58.54
890.125	90.96
890.296	37.72
890.467	35.67
890.638	-3.24
890.809	60.24
890.98	41.81
891.151	21.33
891.323	7
891.494	121.68
891.665	-15.53
891.836	84.82
892.007	29.52
892.178	54.1
892.349	-29.87
892.52	21.33
892.691	-17.58
892.862	4.95
893.032	21.33
893.203	56.15
893.374	-21.67
893.545	66.39
893.716	-3.24
893.887	-15.53
894.057	-5.29
894.228	80.72
894.399	-21.67
894.57	52.05
894.74	9.05
894.911	70.48
895.082	-29.87
895.253	-15.53
895.423	107.35
895.594	-19.63
895.764	45.91
895.935	43.86
896.106	52.05
896.276	35.67
896.447	78.68
896.617	74.58
896.788	-3.24
896.958	80.72
897.129	41.81
897.299	97.11
897.47	54.1
897.64	88.92
897.81	-7.34
897.981	9.05
898.151	25.43
898.322	88.92
898.492	191.31
898.662	9.05
898.832	27.48
899.003	29.52
899.173	-33.96
899.343	64.34
899.513	33.62
