Data from USB4F104151__87__12-59-55-960.txt Node

Date: Fri Mar 14 12:59:55 EDT 2025
User: louis
Spectrometer: USB4F10415
Trigger mode: 4
Integration Time (sec): 1.000000E-2
Scans to average: 1
Electric dark correction enabled: true
Nonlinearity correction enabled: false
Boxcar width: 0
XAxis mode: Wavelengths
Number of Pixels in Spectrum: 3648
>>>>>Begin Spectral Data<<<<<
178.204	-12.8
178.424	-12.8
178.644	-12.8
178.864	1.54
179.084	-43.52
179.304	-27.14
179.524	-51.71
179.744	-8.7
179.964	22.02
180.184	-23.04
180.404	-8.7
180.624	77.31
180.844	-27.14
181.064	75.26
181.283	11.78
181.503	-55.81
181.723	15.87
181.943	-25.09
182.163	-41.47
182.383	32.26
182.602	83.45
182.822	-18.94
183.042	-25.09
183.262	26.11
183.482	5.63
183.701	-39.42
183.921	28.16
184.141	-23.04
184.361	75.26
184.58	11.78
184.8	32.26
185.02	50.69
185.239	67.07
185.459	-43.52
185.679	-6.66
185.898	-35.33
186.118	19.97
186.338	-6.66
186.557	65.02
186.777	-80.38
186.997	9.73
187.216	32.26
187.436	34.3
187.655	77.31
187.875	9.73
188.095	54.78
188.314	50.69
188.534	19.97
188.753	11.78
188.973	44.54
189.192	50.69
189.412	5.63
189.631	28.16
189.851	28.16
190.07	71.17
190.29	52.74
190.509	24.06
190.729	1.54
190.948	60.93
191.168	36.35
191.387	110.08
191.607	77.31
191.826	46.59
192.045	91.65
192.265	-14.85
192.484	-18.94
192.704	1.54
192.923	36.35
193.142	73.21
193.362	52.74
193.581	44.54
193.8	56.83
194.02	46.59
194.239	-12.8
194.458	-37.38
194.678	-6.66
194.897	-8.7
195.116	52.74
195.335	28.16
195.555	54.78
195.774	83.45
195.993	81.41
196.212	19.97
196.432	93.69
196.651	75.26
196.87	-6.66
197.089	19.97
197.308	-4.61
197.528	48.64
197.747	28.16
197.966	24.06
198.185	58.88
198.404	-10.75
198.623	-41.47
198.842	-6.66
199.062	-37.38
199.281	-0.51
199.5	-27.14
199.719	-27.14
199.938	24.06
200.157	-14.85
200.376	42.5
200.595	40.45
200.814	34.3
201.033	38.4
201.252	17.92
201.471	60.93
201.69	5.63
201.909	89.6
202.128	-6.66
202.347	17.92
202.566	-4.61
202.785	3.58
203.004	19.97
203.223	44.54
203.442	118.27
203.661	83.45
203.879	9.73
204.098	67.07
204.317	15.87
204.536	40.45
204.755	30.21
204.974	60.93
205.193	-10.75
205.411	50.69
205.63	79.36
205.849	26.11
206.068	52.74
206.287	91.65
206.505	-4.61
206.724	5.63
206.943	-27.14
207.162	97.79
207.381	38.4
207.599	26.11
207.818	91.65
208.037	15.87
208.255	-35.33
208.474	40.45
208.693	28.16
208.911	56.83
209.13	89.6
209.349	42.5
209.567	17.92
209.786	-18.94
210.005	71.17
210.223	67.07
210.442	5.63
210.661	-4.61
210.879	73.21
211.098	36.35
211.316	17.92
211.535	54.78
211.753	-4.61
211.972	69.12
212.191	9.73
212.409	71.17
212.628	48.64
212.846	11.78
213.065	-47.62
213.283	58.88
213.502	3.58
213.72	-6.66
213.938	77.31
214.157	40.45
214.375	54.78
214.594	22.02
214.812	89.6
215.031	-12.8
215.249	44.54
215.467	-29.18
215.686	38.4
215.904	-0.51
216.122	67.07
216.341	42.5
216.559	9.73
216.778	26.11
216.996	91.65
217.214	30.21
217.432	36.35
217.651	-18.94
217.869	-6.66
218.087	30.21
218.306	46.59
218.524	60.93
218.742	32.26
218.96	-23.04
219.179	3.58
219.397	79.36
219.615	75.26
219.833	126.46
220.051	-31.23
220.27	34.3
220.488	67.07
220.706	19.97
220.924	-4.61
221.142	-20.99
221.36	9.73
221.578	11.78
221.796	28.16
222.015	60.93
222.233	48.64
222.451	13.82
222.669	48.64
222.887	-6.66
223.105	15.87
223.323	30.21
223.541	36.35
223.759	52.74
223.977	1.54
224.195	79.36
224.413	-2.56
224.631	50.69
224.849	42.5
225.067	56.83
225.285	-16.9
225.503	58.88
225.721	71.17
225.939	-23.04
226.157	-6.66
226.375	40.45
226.592	19.97
226.81	54.78
227.028	13.82
227.246	46.59
227.464	-47.62
227.682	67.07
227.9	36.35
228.117	-6.66
228.335	48.64
228.553	9.73
228.771	19.97
228.989	-6.66
229.206	46.59
229.424	-14.85
229.642	89.6
229.86	58.88
230.077	-33.28
230.295	67.07
230.513	15.87
230.731	-39.42
230.948	40.45
231.166	50.69
231.384	30.21
231.601	5.63
231.819	79.36
232.037	26.11
232.254	46.59
232.472	19.97
232.689	54.78
232.907	1.54
233.125	79.36
233.342	30.21
233.56	28.16
233.777	44.54
233.995	30.21
234.213	50.69
234.43	67.07
234.648	42.5
234.865	71.17
235.083	32.26
235.3	77.31
235.518	50.69
235.735	-2.56
235.953	99.84
236.17	89.6
236.388	42.5
236.605	-23.04
236.822	30.21
237.04	9.73
237.257	-6.66
237.475	-10.75
237.692	79.36
237.909	77.31
238.127	32.26
238.344	38.4
238.562	50.69
238.779	9.73
238.996	50.69
239.214	7.68
239.431	75.26
239.648	30.21
239.865	71.17
240.083	32.26
240.3	44.54
240.517	-16.9
240.735	110.08
240.952	85.5
241.169	3.58
241.386	28.16
241.603	67.07
241.821	15.87
242.038	52.74
242.255	81.41
242.472	34.3
242.689	58.88
242.907	-12.8
243.124	3.58
243.341	-6.66
243.558	54.78
243.775	67.07
243.992	11.78
244.209	52.74
244.426	30.21
244.643	19.97
244.86	28.16
245.078	34.3
245.295	19.97
245.512	167.42
245.729	7.68
245.946	7.68
246.163	-18.94
246.38	44.54
246.597	77.31
246.814	11.78
247.031	50.69
247.248	17.92
247.464	11.78
247.681	77.31
247.898	108.03
248.115	-20.99
248.332	-47.62
248.549	11.78
248.766	44.54
248.983	26.11
249.2	83.45
249.417	73.21
249.633	26.11
249.85	26.11
250.067	52.74
250.284	48.64
250.501	46.59
250.717	52.74
250.934	9.73
251.151	108.03
251.368	17.92
251.585	54.78
251.801	97.79
252.018	22.02
252.235	28.16
252.451	3.58
252.668	89.6
252.885	75.26
253.102	-29.18
253.318	56.83
253.535	54.78
253.752	32.26
253.968	22.02
254.185	-18.94
254.401	42.5
254.618	1.54
254.835	60.93
255.051	-4.61
255.268	34.3
255.484	-14.85
255.701	1.54
255.917	75.26
256.134	46.59
256.351	91.65
256.567	-0.51
256.784	-27.14
257	46.59
257.217	110.08
257.433	-10.75
257.65	46.59
257.866	5.63
258.082	-10.75
258.299	19.97
258.515	34.3
258.732	32.26
258.948	54.78
259.165	75.26
259.381	28.16
259.597	50.69
259.814	1.54
260.03	-14.85
260.246	-2.56
260.463	30.21
260.679	93.69
260.895	77.31
261.112	42.5
261.328	-49.66
261.544	38.4
261.761	15.87
261.977	-6.66
262.193	50.69
262.409	67.07
262.626	11.78
262.842	87.55
263.058	32.26
263.274	3.58
263.49	58.88
263.707	67.07
263.923	30.21
264.139	38.4
264.355	15.87
264.571	26.11
264.787	50.69
265.004	-18.94
265.22	42.5
265.436	56.83
265.652	1.54
265.868	-27.14
266.084	34.3
266.3	69.12
266.516	48.64
266.732	13.82
266.948	67.07
267.164	13.82
267.38	7.68
267.596	108.03
267.812	71.17
268.028	58.88
268.244	7.68
268.46	69.12
268.676	69.12
268.892	15.87
269.108	11.78
269.324	17.92
269.54	1.54
269.756	-23.04
269.972	5.63
270.188	-14.85
270.403	-53.76
270.619	-25.09
270.835	-37.38
271.051	1.54
271.267	65.02
271.483	40.45
271.698	99.84
271.914	26.11
272.13	28.16
272.346	-27.14
272.562	26.11
272.777	-2.56
272.993	-14.85
273.209	26.11
273.425	-12.8
273.64	75.26
273.856	-0.51
274.072	28.16
274.287	3.58
274.503	-8.7
274.719	42.5
274.934	17.92
275.15	15.87
275.366	60.93
275.581	-29.18
275.797	28.16
276.012	99.84
276.228	26.11
276.444	62.98
276.659	38.4
276.875	42.5
277.09	24.06
277.306	28.16
277.521	69.12
277.737	-35.33
277.952	73.21
278.168	17.92
278.383	-14.85
278.599	-12.8
278.814	-10.75
279.03	38.4
279.245	30.21
279.461	-4.61
279.676	34.3
279.892	-25.09
280.107	30.21
280.322	-2.56
280.538	32.26
280.753	48.64
280.969	77.31
281.184	-29.18
281.399	69.12
281.615	36.35
281.83	108.03
282.045	15.87
282.26	58.88
282.476	48.64
282.691	9.73
282.906	-29.18
283.122	58.88
283.337	-23.04
283.552	11.78
283.767	32.26
283.983	-8.7
284.198	15.87
284.413	79.36
284.628	79.36
284.843	19.97
285.058	-2.56
285.274	11.78
285.489	-41.47
285.704	24.06
285.919	142.85
286.134	36.35
286.349	36.35
286.564	30.21
286.779	-10.75
286.995	30.21
287.21	38.4
287.425	-4.61
287.64	77.31
287.855	67.07
288.07	-12.8
288.285	42.5
288.5	15.87
288.715	-8.7
288.93	9.73
289.145	42.5
289.36	71.17
289.575	71.17
289.79	60.93
290.004	22.02
290.219	19.97
290.434	24.06
290.649	97.79
290.864	67.07
291.079	26.11
291.294	5.63
291.509	26.11
291.724	44.54
291.938	-20.99
292.153	48.64
292.368	26.11
292.583	69.12
292.798	36.35
293.012	3.58
293.227	17.92
293.442	-2.56
293.657	77.31
293.871	28.16
294.086	17.92
294.301	128.51
294.516	-14.85
294.73	-59.9
294.945	30.21
295.16	19.97
295.374	22.02
295.589	19.97
295.804	30.21
296.018	118.27
296.233	24.06
296.447	22.02
296.662	32.26
296.877	58.88
297.091	34.3
297.306	22.02
297.52	-2.56
297.735	1.54
297.949	30.21
298.164	42.5
298.378	19.97
298.593	42.5
298.807	7.68
299.022	71.17
299.236	36.35
299.451	9.73
299.665	42.5
299.88	30.21
300.094	19.97
300.309	28.16
300.523	34.3
300.737	54.78
300.952	69.12
301.166	87.55
301.381	146.94
301.595	36.35
301.809	79.36
302.024	22.02
302.238	89.6
302.452	-59.9
302.667	3.58
302.881	116.22
303.095	1.54
303.309	22.02
303.524	-12.8
303.738	42.5
303.952	-78.33
304.166	56.83
304.381	60.93
304.595	-18.94
304.809	69.12
305.023	1.54
305.237	69.12
305.452	42.5
305.666	3.58
305.88	46.59
306.094	-6.66
306.308	3.58
306.522	36.35
306.736	19.97
306.95	32.26
307.164	30.21
307.379	-10.75
307.593	52.74
307.807	28.16
308.021	93.69
308.235	-23.04
308.449	79.36
308.663	9.73
308.877	3.58
309.091	-27.14
309.305	85.5
309.519	-6.66
309.733	48.64
309.947	-10.75
310.161	32.26
310.374	5.63
310.588	54.78
310.802	-31.23
311.016	9.73
311.23	75.26
311.444	73.21
311.658	28.16
311.872	65.02
312.085	34.3
312.299	42.5
312.513	22.02
312.727	71.17
312.941	-74.24
313.154	15.87
313.368	62.98
313.582	44.54
313.796	-14.85
314.009	48.64
314.223	46.59
314.437	26.11
314.651	28.16
314.864	-55.81
315.078	58.88
315.292	110.08
315.505	17.92
315.719	13.82
315.933	87.55
316.146	-18.94
316.36	11.78
316.573	42.5
316.787	22.02
317.001	-31.23
317.214	-8.7
317.428	120.32
317.641	79.36
317.855	103.93
318.068	50.69
318.282	50.69
318.495	77.31
318.709	56.83
318.922	34.3
319.136	-20.99
319.349	38.4
319.563	58.88
319.776	7.68
319.99	44.54
320.203	134.65
320.417	42.5
320.63	11.78
320.843	77.31
321.057	28.16
321.27	69.12
321.483	17.92
321.697	56.83
321.91	87.55
322.124	50.69
322.337	93.69
322.55	58.88
322.763	11.78
322.977	50.69
323.19	-4.61
323.403	28.16
323.617	118.27
323.83	58.88
324.043	15.87
324.256	60.93
324.469	-14.85
324.683	79.36
324.896	17.92
325.109	77.31
325.322	-45.57
325.535	60.93
325.748	5.63
325.962	9.73
326.175	40.45
326.388	50.69
326.601	42.5
326.814	-35.33
327.027	40.45
327.24	36.35
327.453	-16.9
327.666	42.5
327.879	58.88
328.092	3.58
328.305	69.12
328.518	67.07
328.731	15.87
328.944	3.58
329.157	-43.52
329.37	-6.66
329.583	3.58
329.796	62.98
330.009	1.54
330.222	34.3
330.435	58.88
330.648	1.54
330.861	-6.66
331.073	48.64
331.286	69.12
331.499	7.68
331.712	17.92
331.925	50.69
332.138	-4.61
332.35	-2.56
332.563	34.3
332.776	65.02
332.989	-47.62
333.202	1.54
333.414	17.92
333.627	60.93
333.84	3.58
334.053	9.73
334.265	24.06
334.478	34.3
334.691	42.5
334.903	24.06
335.116	28.16
335.329	38.4
335.541	-0.51
335.754	85.5
335.966	7.68
336.179	7.68
336.392	24.06
336.604	36.35
336.817	32.26
337.029	36.35
337.242	114.17
337.454	58.88
337.667	79.36
337.88	54.78
338.092	48.64
338.305	28.16
338.517	-14.85
338.729	15.87
338.942	30.21
339.154	17.92
339.367	15.87
339.579	40.45
339.792	19.97
340.004	26.11
340.217	89.6
340.429	38.4
340.641	28.16
340.854	17.92
341.066	87.55
341.278	-6.66
341.491	126.46
341.703	1.54
341.915	26.11
342.128	30.21
342.34	-6.66
342.552	75.26
342.764	58.88
342.977	52.74
343.189	79.36
343.401	62.98
343.613	42.5
343.826	26.11
344.038	30.21
344.25	-92.67
344.462	38.4
344.674	30.21
344.886	-29.18
345.099	38.4
345.311	120.32
345.523	65.02
345.735	44.54
345.947	-10.75
346.159	60.93
346.371	110.08
346.583	52.74
346.795	108.03
347.007	-2.56
347.219	77.31
347.431	91.65
347.643	26.11
347.855	1.54
348.067	13.82
348.279	44.54
348.491	62.98
348.703	87.55
348.915	108.03
349.127	32.26
349.339	87.55
349.551	15.87
349.763	77.31
349.975	93.69
350.187	26.11
350.399	13.82
350.61	112.13
350.822	-14.85
351.034	71.17
351.246	48.64
351.458	69.12
351.669	17.92
351.881	112.13
352.093	50.69
352.305	54.78
352.517	-37.38
352.728	105.98
352.94	30.21
353.152	91.65
353.363	-92.67
353.575	15.87
353.787	-4.61
353.999	-43.52
354.21	69.12
354.422	-25.09
354.633	28.16
354.845	-10.75
355.057	22.02
355.268	22.02
355.48	46.59
355.692	22.02
355.903	42.5
356.115	26.11
356.326	-10.75
356.538	67.07
356.749	-31.23
356.961	1.54
357.172	-14.85
357.384	50.69
357.595	56.83
357.807	93.69
358.018	22.02
358.23	22.02
358.441	-6.66
358.653	67.07
358.864	17.92
359.075	56.83
359.287	44.54
359.498	5.63
359.709	-14.85
359.921	30.21
360.132	-25.09
360.344	95.74
360.555	44.54
360.766	148.99
360.977	22.02
361.189	77.31
361.4	50.69
361.611	26.11
361.823	83.45
362.034	58.88
362.245	11.78
362.456	-37.38
362.667	95.74
362.879	-20.99
363.09	42.5
363.301	52.74
363.512	34.3
363.723	71.17
363.935	50.69
364.146	71.17
364.357	30.21
364.568	69.12
364.779	38.4
364.99	91.65
365.201	-2.56
365.412	71.17
365.623	15.87
365.834	114.17
366.045	19.97
366.256	60.93
366.467	52.74
366.678	13.82
366.889	48.64
367.1	60.93
367.311	-20.99
367.522	56.83
367.733	77.31
367.944	101.89
368.155	26.11
368.366	101.89
368.577	22.02
368.788	67.07
368.999	30.21
369.209	60.93
369.42	124.41
369.631	110.08
369.842	110.08
370.053	60.93
370.264	62.98
370.474	112.13
370.685	56.83
370.896	44.54
371.107	65.02
371.317	38.4
371.528	7.68
371.739	79.36
371.95	3.58
372.16	77.31
372.371	22.02
372.582	-8.7
372.792	65.02
373.003	101.89
373.214	9.73
373.424	42.5
373.635	62.98
373.846	87.55
374.056	50.69
374.267	71.17
374.477	58.88
374.688	28.16
374.898	89.6
375.109	60.93
375.319	44.54
375.53	52.74
375.74	34.3
375.951	132.61
376.161	32.26
376.372	99.84
376.582	-12.8
376.793	99.84
377.003	-16.9
377.214	60.93
377.424	22.02
377.635	93.69
377.845	-23.04
378.055	99.84
378.266	-12.8
378.476	48.64
378.686	77.31
378.897	17.92
379.107	91.65
379.317	-18.94
379.528	-20.99
379.738	69.12
379.948	89.6
380.158	42.5
380.369	34.3
380.579	28.16
380.789	-39.42
380.999	36.35
381.21	112.13
381.42	28.16
381.63	118.27
381.84	54.78
382.05	9.73
382.261	50.69
382.471	38.4
382.681	67.07
382.891	91.65
383.101	54.78
383.311	54.78
383.521	-33.28
383.731	24.06
383.941	46.59
384.151	58.88
384.361	24.06
384.571	140.8
384.781	83.45
384.991	81.41
385.201	87.55
385.411	91.65
385.621	93.69
385.831	-8.7
386.041	46.59
386.251	77.31
386.461	79.36
386.671	52.74
386.881	101.89
387.091	48.64
387.301	52.74
387.511	34.3
387.72	38.4
387.93	-39.42
388.14	77.31
388.35	99.84
388.56	36.35
388.769	65.02
388.979	46.59
389.189	9.73
389.399	-8.7
389.609	65.02
389.818	-16.9
390.028	17.92
390.238	50.69
390.447	-29.18
390.657	17.92
390.867	50.69
391.076	17.92
391.286	62.98
391.496	79.36
391.705	-25.09
391.915	95.74
392.125	52.74
392.334	50.69
392.544	71.17
392.753	-0.51
392.963	62.98
393.172	50.69
393.382	50.69
393.591	58.88
393.801	36.35
394.01	114.17
394.22	32.26
394.429	62.98
394.639	38.4
394.848	67.07
395.058	83.45
395.267	42.5
395.477	58.88
395.686	34.3
395.895	22.02
396.105	103.93
396.314	17.92
396.524	71.17
396.733	81.41
396.942	36.35
397.152	44.54
397.361	89.6
397.57	42.5
397.78	99.84
397.989	-2.56
398.198	122.37
398.407	65.02
398.617	83.45
398.826	124.41
399.035	73.21
399.244	103.93
399.453	75.26
399.663	91.65
399.872	46.59
400.081	99.84
400.29	28.16
400.499	71.17
400.708	60.93
400.917	54.78
401.127	151.04
401.336	19.97
401.545	110.08
401.754	101.89
401.963	40.45
402.172	165.37
402.381	105.98
402.59	46.59
402.799	24.06
403.008	77.31
403.217	69.12
403.426	89.6
403.635	120.32
403.844	79.36
404.053	62.98
404.262	93.69
404.471	89.6
404.68	34.3
404.888	103.93
405.097	-2.56
405.306	73.21
405.515	108.03
405.724	77.31
405.933	140.8
406.142	87.55
406.35	112.13
406.559	83.45
406.768	87.55
406.977	83.45
407.185	77.31
407.394	34.3
407.603	112.13
407.812	67.07
408.02	110.08
408.229	112.13
408.438	122.37
408.646	155.13
408.855	165.37
409.064	77.31
409.272	58.88
409.481	230.91
409.69	132.61
409.898	175.61
410.107	251.39
410.315	140.8
410.524	101.89
410.733	202.24
410.941	249.34
411.15	192
411.358	169.47
411.567	255.48
411.775	267.77
411.984	189.95
412.192	249.34
412.401	226.81
412.609	230.91
412.818	196.09
413.026	222.72
413.234	208.38
413.443	321.02
413.651	275.96
413.86	290.3
414.068	263.68
414.276	325.12
414.485	357.88
414.693	267.77
414.901	298.49
415.11	347.64
415.318	341.5
415.526	376.31
415.734	329.21
415.943	312.83
416.151	470.52
416.359	415.23
416.567	355.83
416.776	441.85
416.984	443.9
417.192	421.37
417.4	462.33
417.608	441.85
417.817	499.19
418.025	497.14
418.233	560.63
418.441	548.34
418.649	560.63
418.857	583.16
419.065	599.54
419.273	685.56
419.481	660.98
419.689	601.59
419.897	744.95
420.105	757.24
420.313	742.9
420.521	697.85
420.729	798.2
420.937	792.05
421.145	828.92
421.353	859.63
421.561	890.35
421.769	998.9
421.977	992.75
422.185	865.78
422.393	1025.52
422.601	1101.3
422.809	1066.48
423.017	1117.68
423.224	1158.64
423.432	1089.01
423.64	1213.93
423.848	1230.32
424.056	1297.9
424.263	1353.2
424.471	1271.28
424.679	1353.2
424.887	1476.07
425.094	1490.41
425.302	1492.46
425.51	1555.94
425.718	1557.99
425.925	1578.47
426.133	1631.72
426.341	1770.98
426.548	1818.08
426.756	1887.72
426.964	1730.02
427.171	1932.77
427.379	1922.53
427.586	1961.44
427.794	2180.57
428.001	2315.74
428.209	2256.35
428.417	2213.34
428.624	2407.9
428.832	2213.34
429.039	2334.17
429.247	2457.05
429.454	2786.77
429.662	2713.05
429.869	2586.07
430.076	2850.26
430.284	2784.73
430.491	2870.74
430.699	2966.99
430.906	2907.6
431.114	2889.17
431.321	3259.85
431.528	3149.26
431.736	3392.97
431.943	3632.58
432.15	3415.5
432.358	3411.4
432.565	3589.58
432.772	3806.66
432.979	3833.29
433.187	3962.31
433.394	3765.7
433.601	4197.82
433.808	4400.57
434.016	4236.74
434.223	4347.33
434.43	4660.66
434.637	4486.59
434.844	4785.59
435.052	5072.31
435.259	5006.77
435.466	4887.99
435.673	4799.93
435.88	5217.71
436.087	5522.86
436.294	5586.35
436.501	5557.68
436.708	5514.67
436.915	5815.72
437.122	5995.94
437.329	5866.92
437.537	6098.34
437.743	6159.78
437.95	6256.03
438.157	6528.41
438.364	6694.3
438.571	6639
438.778	6763.93
438.985	7402.9
439.192	6993.3
439.399	7138.71
439.606	6966.68
439.813	7603.6
440.02	8086.92
440.227	7912.84
440.433	7816.58
440.64	8002.95
440.847	7964.04
441.054	8244.61
441.261	8723.83
441.467	8600.96
441.674	8770.94
441.881	9024.89
442.088	9162.1
442.294	9352.56
442.501	9370.99
442.708	9631.09
442.914	9909.61
443.121	10147.17
443.328	9868.65
443.534	10900.83
443.741	10415.46
443.948	10433.89
444.154	10937.69
444.361	10921.31
444.568	11158.87
444.774	11068.76
444.981	11087.19
445.187	11523.41
445.394	12014.92
445.6	11754.83
445.807	13073.72
446.013	12524.86
446.22	12733.76
446.426	13040.95
446.633	13399.35
446.839	13905.2
447.046	13106.49
447.252	14042.41
447.459	14116.14
447.665	14150.95
447.871	14578.98
448.078	15508.76
448.284	14484.77
448.491	14941.47
448.697	15318.29
448.903	15711.5
449.11	15887.63
449.316	15789.33
449.522	16176.39
449.728	16319.75
449.935	16741.63
450.141	16530.69
450.347	16911.61
450.553	16588.03
450.76	16682.24
450.966	17325.3
451.172	17071.36
451.378	17550.58
451.584	17222.91
451.791	17493.24
451.997	17435.89
452.203	18113.77
452.409	17851.63
452.615	17634.55
452.821	17050.88
453.027	17038.59
453.233	17904.88
453.44	17181.95
453.646	17622.26
453.852	17450.23
454.058	17573.11
454.264	17310.97
454.47	17528.05
454.676	17183.99
454.882	17777.9
455.088	16186.63
455.294	16336.13
455.5	16667.91
455.705	17075.45
455.911	16209.16
456.117	16082.19
456.323	15516.95
456.529	14900.51
456.735	15697.17
456.941	15310.1
457.147	14912.8
457.352	14325.03
457.558	14378.28
457.764	14279.97
457.97	14081.32
458.176	13872.43
458.381	13927.72
458.587	13004.09
458.793	13364.53
458.999	12352.84
459.204	13313.33
459.41	13151.54
459.616	12193.09
459.821	12242.25
460.027	12051.78
460.233	11984.2
460.438	11357.52
460.644	11427.15
460.85	11003.22
461.055	10765.66
461.261	10814.81
461.466	10126.69
461.672	9581.93
461.878	10419.55
462.083	9313.65
462.289	9356.66
462.494	9381.23
462.7	9139.57
462.905	8650.11
463.111	9024.89
463.316	9188.72
463.522	8826.23
463.727	8828.28
463.932	8879.48
464.138	8666.49
464.343	8656.25
464.549	8662.4
464.754	8815.99
464.959	8734.07
465.165	8684.92
465.37	8199.55
465.575	8000.9
465.781	8463.74
465.986	8662.4
466.191	8168.84
466.397	8146.31
466.602	7728.52
466.807	8136.07
467.012	8054.15
467.218	7916.94
467.423	7728.52
467.628	7849.35
467.833	8011.14
468.038	7775.63
468.244	7533.97
468.449	7800.2
468.654	7566.73
468.859	7654.8
469.064	7611.79
469.269	7349.65
469.474	7472.53
469.679	7515.53
469.885	7245.2
470.09	7433.61
470.295	7159.19
470.5	7167.38
470.705	7198.1
470.91	7099.8
471.115	6995.35
471.32	7243.15
471.525	7056.79
471.73	7028.12
471.935	6923.67
472.139	6780.31
472.344	6624.67
472.549	6692.25
472.754	6581.66
472.959	6413.73
473.164	6397.34
473.369	6454.69
473.574	6464.93
473.778	6563.23
473.983	6452.64
474.188	6352.29
474.393	6196.64
474.598	6043.04
474.802	5901.73
475.007	6049.19
475.212	6049.19
475.417	5817.77
475.621	5907.88
475.826	5762.47
476.031	5723.56
476.235	5633.45
476.44	5703.08
476.645	5500.33
476.849	5729.7
477.054	5705.13
477.259	5555.63
477.463	5535.15
477.668	5328.3
477.872	5338.54
478.077	5428.65
478.282	5158.32
478.486	5017.01
478.691	5090.74
478.895	5160.37
479.1	5006.77
479.304	5143.99
479.509	4773.3
479.713	4947.38
479.918	4933.04
480.122	4826.55
480.326	5037.49
480.531	4900.28
480.735	4941.24
480.94	5004.72
481.144	4978.1
481.348	4703.67
481.553	4738.49
481.757	4670.9
481.961	4775.35
482.166	5041.59
482.37	4824.5
482.574	4785.59
482.778	4738.49
482.983	4783.54
483.187	4758.97
483.391	4896.18
483.595	4769.21
483.8	4779.45
484.004	4773.3
484.208	4773.3
484.412	4664.76
484.616	4814.26
484.821	4740.54
485.025	4730.3
485.229	4906.42
485.433	4670.9
485.637	4621.75
485.841	4689.34
486.045	4715.96
486.249	4842.93
486.453	4820.41
486.657	4697.53
486.861	4890.04
487.065	4752.82
487.269	4812.21
487.473	4664.76
487.677	4720.06
487.881	4896.18
488.085	4730.3
488.289	4826.55
488.493	4744.63
488.697	4957.62
488.901	4767.16
489.105	4767.16
489.309	4799.93
489.512	4810.17
489.716	4902.33
489.92	4861.37
490.124	4742.58
490.328	4877.75
490.531	4873.65
490.735	4978.1
490.939	5060.02
491.143	4918.71
491.346	5174.71
491.55	4937.14
491.754	4969.91
491.958	5115.31
492.161	5064.11
492.365	4994.48
492.569	5060.02
492.772	5041.59
492.976	5064.11
493.18	5158.32
493.383	5113.27
493.587	5178.8
493.79	5363.12
493.994	5252.53
494.197	5262.77
494.401	5287.34
494.605	5283.25
494.808	5569.96
495.012	5356.97
495.215	5621.16
495.419	5596.59
495.622	5549.48
495.825	5625.26
496.029	5662.12
496.232	5926.31
496.436	5842.34
496.639	5852.58
496.843	5948.84
497.046	5889.45
497.249	6094.24
497.453	6307.23
497.656	6397.34
497.859	6084
498.063	6288.8
498.266	6481.31
498.469	6342.05
498.673	6456.73
498.876	6643.1
499.079	6544.8
499.282	6761.88
499.485	6858.14
499.689	6817.18
499.892	6673.82
500.095	7021.97
500.298	7251.35
500.501	7165.33
500.705	7247.25
500.908	7556.49
501.111	7431.57
501.314	7507.34
501.517	7632.27
501.72	7777.67
501.923	7751.05
502.126	8148.36
502.329	8215.94
502.532	8103.3
502.735	8172.93
502.938	8422.78
503.141	8492.41
503.344	8469.89
503.547	8551.81
503.75	8469.89
503.953	8875.38
504.156	8922.49
504.359	9127.28
504.562	9172.34
504.765	9299.31
504.968	9416.05
505.17	9508.21
505.373	9459.06
505.576	9823.59
505.779	9735.53
505.982	9842.03
506.185	9917.8
506.387	10229.09
506.59	9983.34
506.793	10607.97
506.996	10446.18
507.198	10726.75
507.401	10837.34
507.604	10898.78
507.807	11201.88
508.009	10986.84
508.212	11322.71
508.415	11308.37
508.617	11527.5
508.82	11580.75
509.022	11552.08
509.225	11748.68
509.428	12031.3
509.63	12014.92
509.833	12455.23
510.035	12328.26
510.238	12553.54
510.44	12858.68
510.643	12586.3
510.845	13143.35
511.048	12995.9
511.25	13057.34
511.453	13165.88
511.655	13770.03
511.858	13372.72
512.06	13724.97
512.262	13882.67
512.465	14017.83
512.667	14191.91
512.87	14599.46
513.072	14347.56
513.274	14906.65
513.477	14798.11
513.679	14992.67
513.881	15242.52
514.084	15277.33
514.286	15492.37
514.488	15592.72
514.69	15994.12
514.893	15998.22
515.095	16196.87
515.297	16375.05
515.499	16440.58
515.701	16749.82
515.904	16692.48
516.106	16870.65
516.308	16936.19
516.51	17046.78
516.712	17188.09
516.914	17423.61
517.116	17782
517.318	17839.34
517.52	18130.16
517.722	18031.85
517.925	18330.86
518.127	18457.83
518.329	18670.82
518.531	18742.5
518.733	18986.21
518.935	19334.36
519.136	19227.87
519.338	19451.1
519.54	19684.56
519.742	20008.14
519.944	19903.7
520.146	20206.8
520.348	20368.59
520.55	20567.24
520.752	20823.23
520.954	21122.24
521.155	20845.76
521.357	21177.53
521.559	21597.37
521.761	21814.45
521.963	21687.48
522.164	21677.24
522.366	21863.6
522.568	22240.43
522.77	22551.72
522.971	22445.23
523.173	22308.01
523.375	22834.34
523.576	22586.54
523.778	23065.76
523.98	23229.6
524.181	23438.49
524.383	23313.56
524.584	23518.36
524.786	23587.99
524.988	23628.95
525.189	23790.74
525.391	24513.67
525.592	24022.16
525.794	24560.78
525.995	24435.85
526.197	24521.87
526.398	24200.33
526.6	24691.85
526.801	24671.37
527.003	25123.97
527.204	24675.46
527.406	25267.33
527.607	25132.16
527.808	25642.1
528.01	25035.91
528.211	25328.77
528.412	26055.79
528.614	25533.56
528.815	25521.27
529.016	25855.09
529.218	25676.92
529.419	25670.78
529.62	25961.59
529.822	25885.81
530.023	26008.69
530.224	26297.45
530.425	26162.29
530.626	26104.95
530.828	25949.3
531.029	26330.22
531.23	26193.01
531.431	26156.14
531.632	26336.37
531.833	26414.19
532.035	26135.67
532.236	26313.84
532.437	26735.72
532.638	26340.46
532.839	27018.34
533.04	26674.28
533.241	26414.19
533.442	27130.98
533.643	26750.06
533.844	26530.92
534.045	26774.63
534.246	26629.23
534.447	26915.94
534.648	26281.07
534.849	26854.5
535.05	26600.55
535.251	26854.5
535.451	26715.24
535.652	26758.25
535.853	26647.66
536.054	26725.48
536.255	26629.23
536.456	26549.35
536.657	27030.63
536.857	26770.54
537.058	26723.43
537.259	27143.27
537.46	26997.86
537.66	26686.57
537.861	26903.65
538.062	27038.82
538.263	26989.67
538.463	26383.47
538.664	26887.27
538.865	27001.96
539.065	26860.65
539.266	26729.58
539.466	27149.41
539.667	26661.99
539.868	26831.97
540.068	26727.53
540.269	26879.08
540.469	26936.42
540.67	26842.21
540.87	26698.86
541.071	26457.2
541.271	27004
541.472	26528.88
541.672	26713.19
541.873	26745.96
542.073	26285.17
542.274	26864.74
542.474	26629.23
542.675	26838.12
542.875	27110.5
543.075	26932.33
543.276	26543.21
543.476	27120.74
543.676	26680.42
543.877	26872.93
544.077	26377.33
544.277	26604.65
544.478	26692.71
544.678	26645.61
544.878	26748.01
545.078	26911.85
545.279	26528.88
545.479	26616.94
545.679	26788.97
545.879	26870.89
546.079	26637.42
546.28	26580.07
546.48	26225.78
546.68	26850.41
546.88	27110.5
547.08	26727.53
547.28	26981.48
547.48	26539.12
547.68	26846.31
547.88	26422.38
548.081	26817.64
548.281	26717.29
548.481	26745.96
548.681	26600.55
548.881	26586.22
549.081	26903.65
549.28	26526.83
549.48	26655.85
549.68	26532.97
549.88	26905.7
550.08	26670.19
550.28	26313.84
550.48	26428.52
550.68	26596.46
550.88	26436.72
551.08	26418.28
551.279	26717.29
551.479	26451.05
551.679	26436.72
551.879	26340.46
552.079	26651.75
552.278	26633.32
552.478	26692.71
552.678	26545.26
552.878	26721.38
553.077	26293.36
553.277	26317.93
553.477	26510.44
553.676	26340.46
553.876	26469.48
554.076	26414.19
554.275	26248.3
554.475	26080.37
554.674	26213.49
554.874	26481.77
555.074	26211.44
555.273	26494.06
555.473	26522.73
555.672	26348.65
555.872	26084.47
556.071	26535.02
556.271	26121.33
556.47	26289.26
556.67	26223.73
556.869	26459.24
557.068	26158.19
557.268	26182.77
557.467	25650.3
557.667	25791.61
557.866	26199.15
558.065	26025.07
558.265	26104.95
558.464	25754.74
558.663	26113.14
558.863	25865.33
559.062	25996.4
559.261	25691.26
559.461	25926.77
559.66	25314.43
559.859	25379.96
560.058	25681.02
560.258	25986.16
560.457	25402.49
560.656	25642.1
560.855	25685.11
561.054	25728.12
561.253	25156.74
561.453	25623.67
561.652	25590.91
561.851	25480.32
562.05	25689.21
562.249	25101.44
562.448	25732.22
562.647	25449.6
562.846	25257.09
563.045	25298.05
563.244	25025.67
563.443	25429.12
563.642	25152.64
563.841	24835.21
564.04	25035.91
564.239	25293.95
564.438	24882.31
564.637	24835.21
564.836	24761.48
565.035	24579.21
565.234	24593.54
565.432	24759.43
565.631	24386.7
565.83	24679.56
566.029	24343.69
566.228	24755.33
566.427	24190.09
566.625	24067.22
566.824	24284.3
567.023	24407.18
567.222	24030.35
567.42	24370.32
567.619	24298.64
567.818	24009.87
568.016	24335.5
568.215	24503.43
568.414	23762.07
568.612	24087.7
568.811	23872.66
569.01	24030.35
569.208	23520.41
569.407	23964.82
569.605	23635.1
569.804	23923.86
570.002	23706.77
570.201	23618.71
570.4	23461.02
570.598	23479.45
570.797	23229.6
570.995	23405.72
571.193	22883.49
571.392	23387.29
571.59	23059.62
571.789	23213.21
571.987	23254.17
572.186	23061.66
572.384	23047.33
572.582	23182.49
572.781	23065.76
572.979	22817.96
573.177	22707.37
573.376	22979.75
573.574	22842.53
573.772	22871.2
573.971	22660.26
574.169	22385.83
574.367	22660.26
574.565	22334.64
574.763	22424.75
574.962	22164.65
575.16	22097.07
575.358	22224.04
575.556	22162.61
575.754	22092.97
575.952	21894.32
576.151	22267.05
576.349	21910.71
576.547	21757.11
576.745	21918.9
576.943	22000.82
577.141	21517.5
577.339	21744.82
577.537	21560.5
577.735	21644.47
577.933	21611.7
578.131	21576.89
578.329	21273.79
578.527	21355.71
578.725	21468.34
578.923	21398.71
579.121	21441.72
579.319	21171.39
579.516	21269.69
579.714	21247.16
579.912	21152.96
580.11	20985.02
580.308	20939.97
580.506	20962.5
580.704	20759.75
580.901	20718.79
581.099	21083.33
581.297	20679.88
581.495	20495.56
581.692	20636.87
581.89	20296.91
582.088	20784.32
582.285	20229.32
582.483	20524.23
582.681	20323.53
582.878	20241.61
583.076	20032.72
583.274	20223.18
583.471	19928.27
583.669	19985.62
583.866	19973.33
584.064	19752.15
584.262	19772.63
584.459	20051.15
584.657	19541.21
584.854	20176.08
585.052	19633.36
585.249	19692.76
585.447	19739.86
585.644	19287.26
585.841	19561.69
586.039	19547.35
586.236	19201.24
586.434	19156.19
586.631	19078.36
586.828	19334.36
587.026	19119.32
587.223	19180.76
587.42	19158.24
587.618	19098.84
587.815	18937.06
588.012	18865.38
588.21	18820.32
588.407	18949.34
588.604	18486.5
588.801	18455.78
588.999	18662.63
589.196	18484.45
589.393	18584.8
589.59	18242.79
589.787	18269.42
589.984	18277.61
590.182	18175.21
590.379	18289.9
590.576	17929.45
590.773	18361.58
590.97	17972.46
591.167	18015.47
591.364	18052.33
591.561	17839.34
591.758	17724.66
591.955	17710.32
592.152	17814.77
592.349	17558.77
592.546	17745.14
592.743	17892.59
592.94	17517.81
593.137	17579.25
593.334	17620.21
593.531	17274.1
593.727	17097.98
593.924	17360.12
594.121	17124.6
594.318	17452.28
594.515	17100.03
594.712	17349.88
594.908	16983.29
595.105	17241.34
595.302	16930.05
595.499	17022.2
595.696	16985.34
595.892	16731.39
596.089	16905.47
596.286	16829.7
596.482	16672
596.679	16725.25
596.876	16536.84
597.072	16590.08
597.269	16786.69
597.466	16446.73
597.662	16381.19
597.859	16499.97
598.055	16573.7
598.252	16246.02
598.448	16485.64
598.645	16192.78
598.841	15942.92
599.038	16045.32
599.234	16221.45
599.431	15906.06
599.627	15725.84
599.824	15914.25
600.02	15854.86
600.217	15875.34
600.413	15480.08
600.609	15648.02
600.806	15570.19
601.002	16012.56
601.198	15680.78
601.395	15478.04
601.591	15318.29
601.787	15566.1
601.984	15172.89
602.18	15482.13
602.376	15291.67
602.572	15174.94
602.769	15174.94
602.965	14935.32
603.161	15148.31
603.357	15150.36
603.553	14984.48
603.75	14978.33
603.946	14839.07
604.142	14898.46
604.338	14794.01
604.534	14894.36
604.73	14767.39
604.926	14478.63
605.122	14884.12
605.318	14746.91
605.514	14333.22
605.71	14599.46
605.906	14662.94
606.102	14439.72
606.298	14492.96
606.494	14411.04
606.69	14615.84
606.886	14357.8
607.082	14241.06
607.278	14255.4
607.474	14171.43
607.67	14181.67
607.866	13942.06
608.062	14224.68
608.257	14038.31
608.453	14015.79
608.649	14028.07
608.845	13995.31
609.041	13841.71
609.236	14148.9
609.432	13790.51
609.628	13858.09
609.824	13743.41
610.019	13929.77
610.215	13880.62
610.411	13706.54
610.606	13696.3
610.802	13702.45
610.998	13550.9
611.193	13653.3
611.389	13530.42
611.584	13579.57
611.78	13440.31
611.976	13518.13
612.171	13350.2
612.367	13245.75
612.562	13288.76
612.758	13272.37
612.953	13196.6
613.149	13491.51
613.344	13102.39
613.539	13516.08
613.735	13387.06
613.93	13301.05
614.126	13319.48
614.321	13317.43
614.517	13258.04
614.712	12881.21
614.907	13112.63
615.103	13065.53
615.298	12746.05
615.493	13294.9
615.688	12877.12
615.884	13206.84
616.079	12830.01
616.274	12918.07
616.47	12901.69
616.665	12959.03
616.86	12672.32
617.055	12797.24
617.25	12780.86
617.445	12592.45
617.641	12326.21
617.836	12864.83
618.031	12473.67
618.226	12592.45
618.421	12092.74
618.616	12559.68
618.811	12465.47
619.006	12461.38
619.201	12143.94
619.396	12297.54
619.591	12027.21
619.786	12193.09
619.981	12019.02
620.176	12070.22
620.371	11928.91
620.566	11871.56
620.761	11818.32
620.956	11955.53
621.151	11824.46
621.346	11824.46
621.541	11693.39
621.735	11849.04
621.93	11519.31
622.125	11562.32
622.32	11580.75
622.515	11406.67
622.709	11509.07
622.904	11412.82
623.099	11328.85
623.294	11345.23
623.488	11382.1
623.683	11119.96
623.878	10970.46
624.072	11060.57
624.267	10915.16
624.462	10982.74
624.656	10855.77
624.851	10939.74
625.046	10607.97
625.24	10589.53
625.435	10356.07
625.629	10710.36
625.824	10476.9
626.018	10530.14
626.213	10468.7
626.407	10325.35
626.602	10114.41
626.796	10237.28
626.991	10235.24
627.185	10112.36
627.38	10020.2
627.574	9823.59
627.768	9835.88
627.963	9872.75
628.157	9747.82
628.352	9837.93
628.546	9641.32
628.74	9809.26
628.935	9563.5
629.129	9645.42
629.323	9657.71
629.517	9528.69
629.712	9422.19
629.906	9305.46
630.1	9233.78
630.294	9450.86
630.489	9282.93
630.683	9186.68
630.877	9237.88
631.071	9162.1
631.265	9055.61
631.459	8844.67
631.653	8848.76
631.848	8902.01
632.042	8863.1
632.236	8750.46
632.43	8600.96
632.624	8791.42
632.818	8750.46
633.012	8672.64
633.206	8744.31
633.4	8646.01
633.594	8316.29
633.788	8592.76
633.982	8568.19
634.176	8392.06
634.369	8463.74
634.563	8349.06
634.757	8342.91
634.951	8334.72
635.145	8328.58
635.339	8281.47
635.533	8201.6
635.726	8086.92
635.92	8052.1
636.114	8058.25
636.308	7785.87
636.501	7925.13
636.695	7939.46
636.889	8013.19
637.083	7824.78
637.276	7648.65
637.47	7632.27
637.664	7583.12
637.857	7554.44
638.051	7591.31
638.244	7464.33
638.438	7320.98
638.632	7476.62
638.825	7431.57
639.019	7437.71
639.212	7273.87
639.406	7267.73
639.599	7153.04
639.793	7292.3
639.986	7107.99
640.18	6978.97
640.373	7255.44
640.567	7054.74
640.76	7003.54
640.954	7028.12
641.147	6895
641.34	6913.43
641.534	6921.62
641.727	7019.92
641.92	6649.24
642.114	6804.89
642.307	6722.97
642.5	6532.51
642.694	6469.02
642.887	6393.25
643.08	6573.47
643.273	6489.5
643.467	6520.22
643.66	6340
643.853	6301.09
644.046	6251.94
644.239	6364.57
644.432	6247.84
644.626	6296.99
644.819	6172.07
645.012	6235.55
645.205	6178.21
645.398	6317.47
645.591	5967.27
645.784	6000.04
645.977	5985.7
646.17	5885.35
646.363	5897.64
646.556	5819.82
646.749	5795.24
646.942	5723.56
647.135	5866.92
647.328	5780.9
647.521	5696.94
647.714	5592.49
647.907	5615.02
648.099	5590.44
648.292	5533.1
648.485	5658.03
648.678	5516.72
648.871	5565.87
649.064	5330.35
649.256	5359.02
649.449	5211.57
649.642	5451.18
649.835	5412.27
650.027	5293.49
650.22	5266.86
650.413	5234.1
650.605	5340.59
650.798	5322.16
650.991	5098.93
651.183	5225.9
651.376	5107.12
651.568	5086.64
651.761	5170.61
651.954	4953.52
652.146	5082.55
652.339	4947.38
652.531	4902.33
652.724	4791.73
652.916	4836.79
653.109	4713.91
653.301	5021.11
653.494	4857.27
653.686	4826.55
653.879	4736.44
654.071	4664.76
654.263	4701.62
654.456	4703.67
654.648	4675
654.84	4720.06
655.033	4728.25
655.225	4517.31
655.417	4515.26
655.61	4515.26
655.802	4621.75
655.994	4459.96
656.186	4455.87
656.379	4347.33
656.571	4480.44
656.763	4484.54
656.955	4404.67
657.148	4439.48
657.34	4203.97
657.532	4136.38
657.724	4238.78
657.916	4341.18
658.108	4246.98
658.3	4316.61
658.492	4214.21
658.684	4177.34
658.876	4181.44
659.068	4001.22
659.26	4068.8
659.452	4054.47
659.644	3909.06
659.836	3980.74
660.028	4128.19
660.22	3937.73
660.412	3864.01
660.604	3925.44
660.796	3939.78
660.988	3904.96
661.18	3974.6
661.372	3702.22
661.563	3890.63
661.755	3739.08
661.947	3898.82
662.139	3767.75
662.331	3685.83
662.522	3806.66
662.714	3718.6
662.906	3562.95
663.097	3687.88
663.289	3612.1
663.481	3622.34
663.673	3548.62
663.864	3677.64
664.056	3552.71
664.247	3448.27
664.439	3458.51
664.631	3478.99
664.822	3472.84
665.014	3454.41
665.205	3413.45
665.397	3395.02
665.588	3446.22
665.78	3423.69
665.971	3315.15
666.163	3427.79
666.354	3276.24
666.546	3347.92
666.737	3286.48
666.929	3366.35
667.12	3210.7
667.311	3274.19
667.503	3255.76
667.694	3149.26
667.885	3122.64
668.077	3208.66
668.268	3007.95
668.459	3192.27
668.651	3059.15
668.842	3212.75
669.033	3132.88
669.224	2997.71
669.416	3122.64
669.607	3083.73
669.798	3108.3
669.989	2962.9
670.18	2987.47
670.371	2958.8
670.563	2868.69
670.754	2932.18
670.945	2944.47
671.136	2895.32
671.327	2958.8
671.518	2915.8
671.709	2938.32
671.9	2897.36
672.091	2909.65
672.282	2907.6
672.473	2858.45
672.664	2749.91
672.855	2729.43
673.046	2801.11
673.237	2850.26
673.428	2680.28
673.619	2721.24
673.809	2692.57
674	2686.42
674.191	2770.39
674.382	2706.9
674.573	2674.14
674.764	2616.79
674.954	2680.28
675.145	2637.27
675.336	2579.93
675.527	2473.43
675.717	2655.7
675.908	2520.54
676.099	2631.13
676.289	2637.27
676.48	2649.56
676.671	2647.51
676.861	2612.7
677.052	2569.69
677.243	2504.15
677.433	2565.59
677.624	2518.49
677.814	2610.65
678.005	2616.79
678.195	2510.3
678.386	2541.02
678.576	2487.77
678.767	2551.26
678.957	2477.53
679.148	2526.68
679.338	2479.58
679.529	2520.54
679.719	2465.24
679.909	2444.76
680.1	2469.34
680.29	2491.87
680.481	2475.48
680.671	2430.43
680.861	2346.46
681.052	2387.42
681.242	2653.66
681.432	2524.63
681.622	2399.71
681.813	2518.49
682.003	2479.58
682.193	2371.04
682.383	2512.35
682.573	2461.15
682.764	2477.53
682.954	2420.19
683.144	2422.24
683.334	2338.27
683.524	2405.85
683.714	2391.52
683.904	2328.03
684.094	2338.27
684.284	2475.48
684.474	2307.55
684.664	2452.95
684.854	2455
685.044	2424.28
685.234	2360.8
685.424	2336.22
685.614	2366.94
685.804	2270.69
685.994	2311.64
686.184	2375.13
686.374	2375.13
686.564	2321.88
686.753	2285.02
686.943	2213.34
687.133	2368.99
687.323	2246.11
687.513	2309.6
687.702	2340.32
687.892	2244.06
688.082	2280.93
688.272	2301.4
688.461	2268.64
688.651	2252.25
688.841	2225.63
689.03	2196.96
689.22	2219.49
689.41	2328.03
689.599	2147.81
689.789	2315.74
689.979	2248.16
690.168	2301.4
690.358	2311.64
690.547	2194.91
690.737	2166.24
690.926	2262.49
691.116	2133.47
691.305	2184.67
691.495	2041.31
691.684	2131.42
691.874	2217.44
692.063	2063.84
692.252	2201.05
692.442	2260.45
692.631	2131.42
692.82	2156
693.01	2158.05
693.199	2174.43
693.388	2092.51
693.578	2106.85
693.767	2100.7
693.956	2100.7
694.146	2078.18
694.335	2184.67
694.524	2043.36
694.713	2162.14
694.902	1988.07
695.092	2094.56
695.281	2246.11
695.47	2088.42
695.659	2057.7
695.848	2125.28
696.037	2063.84
696.226	2108.9
696.415	2078.18
696.604	2213.34
696.793	1963.49
696.982	2022.88
697.171	2018.79
697.36	2047.46
697.549	1996.26
697.738	2000.35
697.927	2078.18
698.116	1965.54
698.305	2033.12
698.494	2000.35
698.683	1961.44
698.872	1910.24
699.061	2057.7
699.25	1959.39
699.438	1977.83
699.627	1943.01
699.816	1953.25
700.005	1979.87
700.193	1983.97
700.382	2106.85
700.571	1945.06
700.76	1973.73
700.948	1943.01
701.137	1981.92
701.326	1912.29
701.514	1969.63
701.703	1859.04
701.892	1902.05
702.08	2049.5
702.269	1932.77
702.457	1949.15
702.646	1836.52
702.834	1846.76
703.023	1838.56
703.212	1869.28
703.4	1867.24
703.589	1914.34
703.777	1807.84
703.965	1863.14
704.154	1744.36
704.342	1889.76
704.531	1852.9
704.719	1861.09
704.907	1818.08
705.096	1857
705.284	1850.85
705.472	1852.9
705.661	1846.76
705.849	1801.7
706.037	1824.23
706.226	1816.04
706.414	1809.89
706.602	1770.98
706.79	1762.79
706.979	1820.13
707.167	1660.39
707.355	1885.67
707.543	1838.56
707.731	1768.93
707.919	1701.35
708.107	1746.41
708.296	1758.69
708.484	1844.71
708.672	1646.05
708.86	1746.41
709.048	1742.31
709.236	1754.6
709.424	1652.2
709.612	1701.35
709.8	1633.77
709.988	1625.58
710.176	1717.73
710.364	1691.11
710.551	1730.02
710.739	1508.84
710.927	1617.38
711.115	1687.01
711.303	1660.39
711.491	1705.45
711.679	1730.02
711.866	1654.25
712.054	1666.53
712.242	1631.72
712.43	1656.29
712.617	1639.91
712.805	1588.71
712.993	1609.19
713.181	1564.14
713.368	1609.19
713.556	1557.99
713.744	1623.53
713.931	1687.01
714.119	1670.63
714.306	1586.66
714.494	1582.57
714.682	1547.75
714.869	1514.98
715.057	1582.57
715.244	1605.1
715.432	1553.9
715.619	1506.79
715.807	1566.18
715.994	1619.43
716.182	1562.09
716.369	1551.85
716.556	1488.36
716.744	1611.24
716.931	1666.53
717.119	1582.57
717.306	1508.84
717.493	1512.94
717.681	1469.93
717.868	1564.14
718.055	1619.43
718.242	1465.83
718.43	1584.62
718.617	1502.7
718.804	1476.07
718.991	1512.94
719.179	1445.35
719.366	1496.55
719.553	1531.37
719.74	1519.08
719.927	1385.96
720.114	1512.94
720.301	1474.03
720.488	1445.35
720.676	1418.73
720.863	1398.25
721.05	1455.59
721.237	1332.72
721.424	1361.39
721.611	1461.74
721.798	1369.58
721.985	1418.73
722.172	1379.82
722.358	1314.28
722.545	1510.89
722.732	1453.55
722.919	1498.6
723.106	1451.5
723.293	1388.01
723.48	1404.39
723.667	1404.39
723.853	1275.37
724.04	1453.55
724.227	1410.54
724.414	1340.91
724.6	1355.24
724.787	1414.63
724.974	1359.34
725.161	1445.35
725.347	1322.48
725.534	1324.52
725.72	1342.96
725.907	1332.72
726.094	1287.66
726.28	1316.33
726.467	1332.72
726.653	1353.2
726.84	1336.81
727.027	1297.9
727.213	1291.76
727.4	1424.87
727.586	1369.58
727.773	1299.95
727.959	1371.63
728.145	1349.1
728.332	1369.58
728.518	1232.37
728.705	1375.72
728.891	1267.18
729.077	1279.47
729.264	1254.89
729.45	1170.93
729.636	1297.9
729.823	1244.65
730.009	1351.15
730.195	1318.38
730.382	1263.08
730.568	1330.67
730.754	1314.28
730.94	1258.99
731.126	1256.94
731.313	1328.62
731.499	1271.28
731.685	1287.66
731.871	1244.65
732.057	1265.13
732.243	1263.08
732.429	1287.66
732.615	1213.93
732.801	1283.56
732.987	1258.99
733.173	1308.14
733.359	1283.56
733.545	1275.37
733.731	1246.7
733.917	1246.7
734.103	1263.08
734.289	1254.89
734.475	1177.07
734.661	1189.36
734.847	1199.6
735.033	1187.31
735.219	1250.8
735.404	1207.79
735.59	1154.54
735.776	1256.94
735.962	1222.13
736.148	1263.08
736.333	1226.22
736.519	1197.55
736.705	1199.6
736.89	1189.36
737.076	1101.3
737.262	1140.21
737.447	1170.93
737.633	1129.97
737.819	1142.25
738.004	1134.06
738.19	1193.45
738.375	1172.97
738.561	1230.32
738.747	1158.64
738.932	1095.15
739.118	1248.75
739.303	1119.73
739.489	1142.25
739.674	1105.39
739.859	1113.58
740.045	1181.17
740.23	1125.87
740.416	1111.54
740.601	1181.17
740.786	1105.39
740.972	1084.91
741.157	1078.77
741.342	1021.42
741.528	1048.05
741.713	1035.76
741.898	1052.14
742.084	1101.3
742.269	1031.66
742.454	1017.33
742.639	1080.82
742.824	1072.62
743.01	1029.62
743.195	1037.81
743.38	1136.11
743.565	1076.72
743.75	1082.86
743.935	1089.01
744.12	945.65
744.305	1093.1
744.49	1052.14
744.675	1009.14
744.86	990.7
745.045	959.99
745.23	992.75
745.415	1035.76
745.6	1037.81
745.785	984.56
745.97	1078.77
746.155	988.66
746.34	878.07
746.525	988.66
746.71	916.98
746.895	953.84
747.079	910.83
747.264	941.55
747.449	994.8
747.634	912.88
747.819	1027.57
748.003	826.87
748.188	894.45
748.373	916.98
748.557	896.5
748.742	978.42
748.927	890.35
749.111	962.03
749.296	894.45
749.481	867.83
749.665	882.16
749.85	863.73
750.034	892.4
750.219	871.92
750.404	845.3
750.588	853.49
750.773	796.15
750.957	828.92
751.141	773.62
751.326	763.38
751.51	820.72
751.695	810.48
751.879	878.07
752.064	935.41
752.248	751.09
752.432	824.82
752.617	742.9
752.801	845.3
752.985	820.72
753.17	783.86
753.354	732.66
753.538	683.51
753.722	736.76
753.907	822.77
754.091	781.81
754.275	753.14
754.459	734.71
754.643	763.38
754.828	738.8
755.012	642.55
755.196	706.04
755.38	701.94
755.564	712.18
755.748	765.43
755.932	740.85
756.116	757.24
756.3	716.28
756.484	767.48
756.668	665.08
756.852	691.7
757.036	650.74
757.22	726.52
757.404	636.41
757.588	675.32
757.772	683.51
757.956	673.27
758.14	708.09
758.323	607.73
758.507	728.56
758.691	677.37
758.875	667.13
759.059	656.89
759.242	660.98
759.426	650.74
759.61	601.59
759.794	617.97
759.977	646.65
760.161	628.21
760.345	615.93
760.528	589.3
760.712	646.65
760.895	562.68
761.079	615.93
761.263	626.17
761.446	654.84
761.63	558.58
761.813	601.59
761.997	695.8
762.18	566.78
762.364	574.97
762.547	529.91
762.731	525.82
762.914	593.4
763.098	605.69
763.281	509.43
763.464	562.68
763.648	607.73
763.831	523.77
764.015	548.34
764.198	550.39
764.381	509.43
764.564	560.63
764.748	534.01
764.931	536.06
765.114	620.02
765.297	568.82
765.481	585.21
765.664	525.82
765.847	544.25
766.03	581.11
766.213	433.66
766.397	491
766.58	536.06
766.763	509.43
766.946	601.59
767.129	568.82
767.312	550.39
767.495	466.42
767.678	433.66
767.861	529.91
768.044	495.1
768.227	482.81
768.41	525.82
768.593	513.53
768.776	531.96
768.959	505.34
769.142	476.66
769.324	462.33
769.507	560.63
769.69	562.68
769.873	488.95
770.056	443.9
770.239	529.91
770.421	478.71
770.604	501.24
770.787	554.49
770.97	454.14
771.152	443.9
771.335	458.23
771.518	493.05
771.7	491
771.883	511.48
772.066	407.03
772.248	355.83
772.431	468.47
772.613	417.27
772.796	519.67
772.978	507.38
773.161	413.18
773.343	474.62
773.526	417.27
773.708	419.32
773.891	421.37
774.073	511.48
774.256	372.22
774.438	402.94
774.621	382.46
774.803	437.75
774.985	491
775.168	474.62
775.35	400.89
775.532	374.27
775.715	421.37
775.897	402.94
776.079	384.51
776.261	468.47
776.444	411.13
776.626	435.71
776.808	308.73
776.99	390.65
777.173	427.51
777.355	454.14
777.537	419.32
777.719	427.51
777.901	413.18
778.083	364.03
778.265	323.07
778.447	366.07
778.629	327.16
778.811	347.64
778.993	417.27
779.175	390.65
779.357	380.41
779.539	288.25
779.721	357.88
779.903	318.97
780.085	226.81
780.267	308.73
780.449	306.68
780.631	339.45
780.812	339.45
780.994	327.16
781.176	337.4
781.358	380.41
781.54	316.92
781.721	331.26
781.903	345.59
782.085	337.4
782.267	331.26
782.448	325.12
782.63	249.34
782.812	331.26
782.993	366.07
783.175	312.83
783.357	323.07
783.538	300.54
783.72	292.35
783.901	329.21
784.083	292.35
784.264	255.48
784.446	296.44
784.627	255.48
784.809	376.31
784.99	243.2
785.172	269.82
785.353	224.76
785.535	241.15
785.716	259.58
785.897	290.3
786.079	208.38
786.26	263.68
786.441	153.09
786.623	226.81
786.804	329.21
786.985	261.63
787.167	257.53
787.348	249.34
787.529	181.76
787.71	216.57
787.891	235
788.073	216.57
788.254	224.76
788.435	167.42
788.616	243.2
788.797	183.81
788.978	257.53
789.159	325.12
789.34	253.44
789.522	275.96
789.703	214.52
789.884	175.61
790.065	247.29
790.246	247.29
790.427	265.72
790.607	198.14
790.788	200.19
790.969	257.53
791.15	228.86
791.331	171.52
791.512	253.44
791.693	222.72
791.874	175.61
792.054	237.05
792.235	230.91
792.416	169.47
792.597	202.24
792.778	140.8
792.958	198.14
793.139	232.96
793.32	183.81
793.5	255.48
793.681	206.33
793.862	204.28
794.042	165.37
794.223	198.14
794.404	187.9
794.584	175.61
794.765	241.15
794.945	103.93
795.126	153.09
795.306	155.13
795.487	218.62
795.667	177.66
795.848	192
796.028	97.79
796.209	153.09
796.389	157.18
796.57	167.42
796.75	159.23
796.93	192
797.111	185.85
797.291	171.52
797.471	157.18
797.652	148.99
797.832	132.61
798.012	214.52
798.192	208.38
798.373	183.81
798.553	116.22
798.733	116.22
798.913	157.18
799.093	155.13
799.274	212.48
799.454	116.22
799.634	181.76
799.814	177.66
799.994	85.5
800.174	204.28
800.354	118.27
800.534	93.69
800.714	220.67
800.894	91.65
801.074	169.47
801.254	192
801.434	194.05
801.614	77.31
801.794	116.22
801.974	380.41
802.154	120.32
802.334	169.47
802.514	112.13
802.693	128.51
802.873	146.94
803.053	134.65
803.233	173.57
803.413	93.69
803.592	83.45
803.772	116.22
803.952	112.13
804.131	52.74
804.311	108.03
804.491	175.61
804.67	99.84
804.85	118.27
805.03	181.76
805.209	116.22
805.389	85.5
805.568	118.27
805.748	169.47
805.928	116.22
806.107	99.84
806.287	83.45
806.466	87.55
806.646	116.22
806.825	124.41
807.004	60.93
807.184	95.74
807.363	151.04
807.543	138.75
807.722	110.08
807.901	146.94
808.081	97.79
808.26	17.92
808.439	140.8
808.619	148.99
808.798	144.89
808.977	85.5
809.156	118.27
809.336	85.5
809.515	161.28
809.694	110.08
809.873	77.31
810.052	101.89
810.231	58.88
810.411	144.89
810.59	130.56
810.769	151.04
810.948	151.04
811.127	112.13
811.306	101.89
811.485	69.12
811.664	163.33
811.843	75.26
812.022	81.41
812.201	142.85
812.38	179.71
812.559	105.98
812.737	28.16
812.916	85.5
813.095	108.03
813.274	69.12
813.453	93.69
813.632	114.17
813.811	116.22
813.989	83.45
814.168	110.08
814.347	67.07
814.526	56.83
814.704	67.07
814.883	75.26
815.062	93.69
815.24	196.09
815.419	101.89
815.598	87.55
815.776	128.51
815.955	38.4
816.133	99.84
816.312	108.03
816.49	126.46
816.669	60.93
816.847	114.17
817.026	77.31
817.204	67.07
817.383	148.99
817.561	17.92
817.74	42.5
817.918	163.33
818.097	118.27
818.275	56.83
818.453	44.54
818.632	60.93
818.81	108.03
818.988	140.8
819.167	50.69
819.345	120.32
819.523	71.17
819.701	103.93
819.879	151.04
820.058	60.93
820.236	62.98
820.414	44.54
820.592	32.26
820.77	89.6
820.948	101.89
821.127	140.8
821.305	132.61
821.483	17.92
821.661	91.65
821.839	69.12
822.017	40.45
822.195	65.02
822.373	83.45
822.551	71.17
822.729	142.85
822.907	42.5
823.085	79.36
823.262	81.41
823.44	136.7
823.618	146.94
823.796	101.89
823.974	75.26
824.152	101.89
824.329	83.45
824.507	153.09
824.685	95.74
824.863	93.69
825.04	36.35
825.218	40.45
825.396	99.84
825.574	97.79
825.751	69.12
825.929	73.21
826.107	85.5
826.284	69.12
826.462	50.69
826.639	103.93
826.817	126.46
826.994	73.21
827.172	36.35
827.349	112.13
827.527	77.31
827.704	75.26
827.882	85.5
828.059	97.79
828.237	79.36
828.414	136.7
828.591	77.31
828.769	42.5
828.946	13.82
829.124	120.32
829.301	38.4
829.478	128.51
829.655	32.26
829.833	56.83
830.01	110.08
830.187	71.17
830.364	13.82
830.542	128.51
830.719	48.64
830.896	-4.61
831.073	116.22
831.25	110.08
831.427	69.12
831.604	120.32
831.782	26.11
831.959	17.92
832.136	62.98
832.313	38.4
832.49	52.74
832.667	38.4
832.844	110.08
833.021	38.4
833.198	77.31
833.374	81.41
833.551	91.65
833.728	11.78
833.905	132.61
834.082	17.92
834.259	42.5
834.436	58.88
834.612	-4.61
834.789	87.55
834.966	9.73
835.143	110.08
835.319	77.31
835.496	19.97
835.673	71.17
835.85	9.73
836.026	73.21
836.203	-12.8
836.38	105.98
836.556	93.69
836.733	-18.94
836.909	142.85
837.086	69.12
837.262	15.87
837.439	-29.18
837.616	112.13
837.792	22.02
837.968	44.54
838.145	32.26
838.321	85.5
838.498	30.21
838.674	112.13
838.851	91.65
839.027	77.31
839.203	34.3
839.38	87.55
839.556	30.21
839.732	112.13
839.909	67.07
840.085	91.65
840.261	36.35
840.437	50.69
840.614	75.26
840.79	62.98
840.966	65.02
841.142	40.45
841.318	101.89
841.494	-45.57
841.671	122.37
841.847	30.21
842.023	52.74
842.199	13.82
842.375	85.5
842.551	50.69
842.727	44.54
842.903	65.02
843.079	42.5
843.255	110.08
843.431	36.35
843.607	81.41
843.783	30.21
843.959	30.21
844.134	1.54
844.31	62.98
844.486	42.5
844.662	40.45
844.838	46.59
845.013	50.69
845.189	62.98
845.365	75.26
845.541	-37.38
845.716	19.97
845.892	-0.51
846.068	153.09
846.244	7.68
846.419	56.83
846.595	28.16
846.77	95.74
846.946	50.69
847.122	58.88
847.297	42.5
847.473	50.69
847.648	-25.09
847.824	22.02
847.999	77.31
848.175	-4.61
848.35	36.35
848.526	13.82
848.701	99.84
848.876	65.02
849.052	26.11
849.227	-12.8
849.403	34.3
849.578	28.16
849.753	54.78
849.929	81.41
850.104	38.4
850.279	28.16
850.454	52.74
850.63	75.26
850.805	15.87
850.98	32.26
851.155	38.4
851.33	-4.61
851.505	50.69
851.681	-43.52
851.856	-43.52
852.031	75.26
852.206	19.97
852.381	13.82
852.556	79.36
852.731	58.88
852.906	52.74
853.081	60.93
853.256	38.4
853.431	-8.7
853.606	30.21
853.781	-31.23
853.956	30.21
854.131	-12.8
854.305	114.17
854.48	58.88
854.655	38.4
854.83	81.41
855.005	38.4
855.18	-12.8
855.354	-2.56
855.529	32.26
855.704	69.12
855.879	13.82
856.053	40.45
856.228	19.97
856.403	34.3
856.577	5.63
856.752	50.69
856.926	-4.61
857.101	-27.14
857.276	48.64
857.45	22.02
857.625	11.78
857.799	-31.23
857.974	9.73
858.148	54.78
858.323	30.21
858.497	-61.95
858.672	58.88
858.846	-25.09
859.02	48.64
859.195	1.54
859.369	-20.99
859.543	32.26
859.718	69.12
859.892	-4.61
860.066	7.68
860.241	58.88
860.415	91.65
860.589	67.07
860.763	48.64
860.938	-18.94
861.112	38.4
861.286	77.31
861.46	50.69
861.634	-27.14
861.808	-23.04
861.982	15.87
862.157	46.59
862.331	26.11
862.505	19.97
862.679	-6.66
862.853	32.26
863.027	46.59
863.201	73.21
863.375	-6.66
863.549	15.87
863.722	26.11
863.896	79.36
864.07	36.35
864.244	50.69
864.418	24.06
864.592	7.68
864.766	-39.42
864.939	9.73
865.113	38.4
865.287	-49.66
865.461	-29.18
865.634	3.58
865.808	40.45
865.982	-39.42
866.156	22.02
866.329	22.02
866.503	99.84
866.676	79.36
866.85	44.54
867.024	-6.66
867.197	34.3
867.371	-29.18
867.544	-18.94
867.718	48.64
867.891	-20.99
868.065	36.35
868.238	-4.61
868.412	83.45
868.585	75.26
868.759	93.69
868.932	95.74
869.105	28.16
869.279	22.02
869.452	1.54
869.625	-4.61
869.799	40.45
869.972	5.63
870.145	-20.99
870.319	50.69
870.492	50.69
870.665	75.26
870.838	40.45
871.011	34.3
871.185	50.69
871.358	144.89
871.531	22.02
871.704	24.06
871.877	50.69
872.05	46.59
872.223	11.78
872.396	5.63
872.569	50.69
872.742	42.5
872.915	34.3
873.088	75.26
873.261	-18.94
873.434	-4.61
873.607	36.35
873.78	60.93
873.953	1.54
874.126	58.88
874.299	17.92
874.471	11.78
874.644	40.45
874.817	-31.23
874.99	99.84
875.163	24.06
875.335	34.3
875.508	38.4
875.681	50.69
875.853	9.73
876.026	-2.56
876.199	48.64
876.371	85.5
876.544	-10.75
876.717	3.58
876.889	44.54
877.062	34.3
877.234	50.69
877.407	36.35
877.579	13.82
877.752	60.93
877.924	3.58
878.097	112.13
878.269	42.5
878.442	77.31
878.614	93.69
878.786	30.21
878.959	22.02
879.131	75.26
879.303	11.78
879.476	42.5
879.648	48.64
879.82	34.3
879.993	-61.95
880.165	-12.8
880.337	52.74
880.509	-25.09
880.681	36.35
880.854	24.06
881.026	-0.51
881.198	-12.8
881.37	-20.99
881.542	65.02
881.714	-61.95
881.886	-20.99
882.058	-4.61
882.23	50.69
882.402	62.98
882.574	-0.51
882.746	42.5
882.918	36.35
883.09	48.64
883.262	9.73
883.434	93.69
883.606	26.11
883.778	-14.85
883.95	50.69
884.122	42.5
884.293	54.78
884.465	11.78
884.637	7.68
884.809	60.93
884.98	19.97
885.152	-12.8
885.324	58.88
885.496	36.35
885.667	85.5
885.839	40.45
886.011	60.93
886.182	-45.57
886.354	30.21
886.525	34.3
886.697	15.87
886.869	-43.52
887.04	77.31
887.212	52.74
887.383	26.11
887.555	-6.66
887.726	34.3
887.897	3.58
888.069	87.55
888.24	54.78
888.412	95.74
888.583	19.97
888.754	15.87
888.926	-45.57
889.097	-14.85
889.268	15.87
889.44	-16.9
889.611	-102.91
889.782	-0.51
889.953	-2.56
890.125	87.55
890.296	52.74
890.467	89.6
890.638	-12.8
890.809	56.83
890.98	26.11
891.151	-31.23
891.323	3.58
891.494	46.59
891.665	36.35
891.836	-0.51
892.007	-12.8
892.178	52.74
892.349	40.45
892.52	-20.99
892.691	69.12
892.862	36.35
893.032	50.69
893.203	79.36
893.374	-29.18
893.545	15.87
893.716	38.4
893.887	9.73
894.057	-4.61
894.228	-20.99
894.399	34.3
894.57	1.54
894.74	-27.14
894.911	32.26
895.082	-25.09
895.253	-25.09
895.423	-18.94
895.594	77.31
895.764	28.16
895.935	42.5
896.106	34.3
896.276	19.97
896.447	28.16
896.617	-8.7
896.788	-39.42
896.958	-18.94
897.129	22.02
897.299	34.3
897.47	-16.9
897.64	26.11
897.81	-16.9
897.981	56.83
898.151	22.02
898.322	-14.85
898.492	44.54
898.662	32.26
898.832	-12.8
899.003	-8.7
899.173	-14.85
899.343	30.21
899.513	17.92
