Data from USB4F104151__99__13-00-16-458.txt Node

Date: Fri Mar 14 13:00:16 EDT 2025
User: louis
Spectrometer: USB4F10415
Trigger mode: 4
Integration Time (sec): 1.000000E-2
Scans to average: 1
Electric dark correction enabled: true
Nonlinearity correction enabled: false
Boxcar width: 0
XAxis mode: Wavelengths
Number of Pixels in Spectrum: 3648
>>>>>Begin Spectral Data<<<<<
178.204	-52.22
178.424	-52.22
178.644	-52.22
178.864	-58.37
179.084	-29.7
179.304	-56.32
179.524	-15.36
179.744	-17.41
179.964	29.7
180.184	31.74
180.404	1.02
180.624	11.26
180.844	-33.79
181.064	-25.6
181.283	60.42
181.503	7.17
181.723	7.17
181.943	-9.22
182.163	27.65
182.383	-7.17
182.602	-7.17
182.822	-17.41
183.042	31.74
183.262	-44.03
183.482	-66.56
183.701	-15.36
183.921	50.18
184.141	-3.07
184.361	-54.27
184.58	17.41
184.8	-56.32
185.02	-35.84
185.239	-44.03
185.459	-33.79
185.679	25.6
185.898	7.17
186.118	1.02
186.338	13.31
186.557	-1.02
186.777	-93.18
186.997	25.6
187.216	15.36
187.436	29.7
187.655	-44.03
187.875	15.36
188.095	15.36
188.314	7.17
188.534	33.79
188.753	19.46
188.973	64.51
189.192	103.42
189.412	-48.13
189.631	-9.22
189.851	11.26
190.07	60.42
190.29	23.55
190.509	-23.55
190.729	-33.79
190.948	-7.17
191.168	84.99
191.387	72.7
191.607	7.17
191.826	17.41
192.045	-27.65
192.265	-23.55
192.484	7.17
192.704	7.17
192.923	-93.18
193.142	7.17
193.362	-3.07
193.581	95.23
193.8	-17.41
194.02	52.22
194.239	-60.42
194.458	15.36
194.678	3.07
194.897	29.7
195.116	-15.36
195.335	-80.89
195.555	-7.17
195.774	9.22
195.993	-41.98
196.212	46.08
196.432	-17.41
196.651	44.03
196.87	-5.12
197.089	37.89
197.308	25.6
197.528	52.22
197.747	35.84
197.966	1.02
198.185	-1.02
198.404	-23.55
198.623	-15.36
198.842	44.03
199.062	11.26
199.281	60.42
199.5	-21.5
199.719	-9.22
199.938	29.7
200.157	7.17
200.376	-1.02
200.595	-72.7
200.814	56.32
201.033	29.7
201.252	-62.46
201.471	19.46
201.69	44.03
201.909	-31.74
202.128	-66.56
202.347	-9.22
202.566	23.55
202.785	31.74
203.004	-58.37
203.223	39.94
203.442	-23.55
203.661	15.36
203.879	-50.18
204.098	-5.12
204.317	37.89
204.536	19.46
204.755	48.13
204.974	-21.5
205.193	-58.37
205.411	52.22
205.63	19.46
205.849	-33.79
206.068	31.74
206.287	44.03
206.505	15.36
206.724	1.02
206.943	15.36
207.162	35.84
207.381	7.17
207.599	31.74
207.818	3.07
208.037	-25.6
208.255	1.02
208.474	13.31
208.693	-25.6
208.911	-7.17
209.13	101.37
209.349	-50.18
209.567	72.7
209.786	1.02
210.005	1.02
210.223	-5.12
210.442	-21.5
210.661	-70.65
210.879	-17.41
211.098	-1.02
211.316	-1.02
211.535	-9.22
211.753	-58.37
211.972	-64.51
212.191	-31.74
212.409	-52.22
212.628	-21.5
212.846	35.84
213.065	1.02
213.283	72.7
213.502	-87.04
213.72	5.12
213.938	1.02
214.157	-27.65
214.375	23.55
214.594	-48.13
214.812	21.5
215.031	-60.42
215.249	-1.02
215.467	25.6
215.686	64.51
215.904	15.36
216.122	-70.65
216.341	-1.02
216.559	-7.17
216.778	54.27
216.996	-9.22
217.214	44.03
217.432	-39.94
217.651	-33.79
217.869	11.26
218.087	1.02
218.306	-39.94
218.524	-48.13
218.742	-13.31
218.96	15.36
219.179	15.36
219.397	11.26
219.615	33.79
219.833	-70.65
220.051	-76.8
220.27	78.85
220.488	-19.46
220.706	9.22
220.924	-37.89
221.142	60.42
221.36	7.17
221.578	-33.79
221.796	-19.46
222.015	23.55
222.233	64.51
222.451	44.03
222.669	21.5
222.887	58.37
223.105	-56.32
223.323	-1.02
223.541	-33.79
223.759	23.55
223.977	11.26
224.195	25.6
224.413	-21.5
224.631	19.46
224.849	52.22
225.067	70.65
225.285	9.22
225.503	-46.08
225.721	11.26
225.939	-1.02
226.157	13.31
226.375	-13.31
226.592	7.17
226.81	-3.07
227.028	-52.22
227.246	23.55
227.464	-15.36
227.682	-3.07
227.9	39.94
228.117	29.7
228.335	-23.55
228.553	-25.6
228.771	31.74
228.989	-11.26
229.206	-3.07
229.424	-50.18
229.642	29.7
229.86	-62.46
230.077	-7.17
230.295	15.36
230.513	17.41
230.731	58.37
230.948	-7.17
231.166	-9.22
231.384	50.18
231.601	91.13
231.819	101.37
232.037	21.5
232.254	7.17
232.472	-9.22
232.689	33.79
232.907	21.5
233.125	-39.94
233.342	-66.56
233.56	5.12
233.777	97.28
233.995	9.22
234.213	50.18
234.43	1.02
234.648	-3.07
234.865	-80.89
235.083	9.22
235.3	-5.12
235.518	19.46
235.735	-17.41
235.953	23.55
236.17	-5.12
236.388	7.17
236.605	31.74
236.822	44.03
237.04	37.89
237.257	-11.26
237.475	-1.02
237.692	-15.36
237.909	54.27
238.127	13.31
238.344	-15.36
238.562	93.18
238.779	13.31
238.996	-35.84
239.214	5.12
239.431	56.32
239.648	1.02
239.865	17.41
240.083	-19.46
240.3	56.32
240.517	11.26
240.735	35.84
240.952	48.13
241.169	39.94
241.386	56.32
241.603	3.07
241.821	-52.22
242.038	15.36
242.255	-3.07
242.472	-19.46
242.689	-37.89
242.907	72.7
243.124	-58.37
243.341	-5.12
243.558	60.42
243.775	-64.51
243.992	23.55
244.209	-50.18
244.426	-7.17
244.643	-9.22
244.86	3.07
245.078	-11.26
245.295	74.75
245.512	15.36
245.729	-72.7
245.946	-58.37
246.163	9.22
246.38	107.52
246.597	-39.94
246.814	33.79
247.031	1.02
247.248	-35.84
247.464	-5.12
247.681	1.02
247.898	-9.22
248.115	7.17
248.332	-3.07
248.549	7.17
248.766	31.74
248.983	-21.5
249.2	-1.02
249.417	66.56
249.633	-29.7
249.85	27.65
250.067	7.17
250.284	39.94
250.501	50.18
250.717	25.6
250.934	17.41
251.151	11.26
251.368	-11.26
251.585	21.5
251.801	25.6
252.018	-62.46
252.235	-48.13
252.451	25.6
252.668	11.26
252.885	3.07
253.102	66.56
253.318	56.32
253.535	-5.12
253.752	1.02
253.968	13.31
254.185	11.26
254.401	-29.7
254.618	99.33
254.835	-29.7
255.051	-5.12
255.268	-84.99
255.484	29.7
255.701	41.98
255.917	50.18
256.134	-78.85
256.351	9.22
256.567	-17.41
256.784	39.94
257	52.22
257.217	52.22
257.433	27.65
257.65	-5.12
257.866	-56.32
258.082	-23.55
258.299	-35.84
258.515	13.31
258.732	-68.61
258.948	60.42
259.165	-25.6
259.381	17.41
259.597	31.74
259.814	-25.6
260.03	21.5
260.246	-78.85
260.463	7.17
260.679	31.74
260.895	31.74
261.112	7.17
261.328	23.55
261.544	9.22
261.761	72.7
261.977	56.32
262.193	1.02
262.409	11.26
262.626	-19.46
262.842	-25.6
263.058	-39.94
263.274	48.13
263.49	-15.36
263.707	48.13
263.923	58.37
264.139	-29.7
264.355	-89.09
264.571	-15.36
264.787	13.31
265.004	41.98
265.22	-5.12
265.436	-19.46
265.652	21.5
265.868	15.36
266.084	-23.55
266.3	46.08
266.516	19.46
266.732	-37.89
266.948	-78.85
267.164	27.65
267.38	23.55
267.596	-27.65
267.812	29.7
268.028	-9.22
268.244	-56.32
268.46	5.12
268.676	39.94
268.892	-39.94
269.108	-27.65
269.324	-21.5
269.54	41.98
269.756	82.94
269.972	-84.99
270.188	23.55
270.403	35.84
270.619	17.41
270.835	-21.5
271.051	41.98
271.267	15.36
271.483	-31.74
271.698	-60.42
271.914	33.79
272.13	3.07
272.346	-27.65
272.562	-15.36
272.777	15.36
272.993	-15.36
273.209	15.36
273.425	-17.41
273.64	-80.89
273.856	-64.51
274.072	68.61
274.287	-23.55
274.503	52.22
274.719	-23.55
274.934	31.74
275.15	7.17
275.366	-1.02
275.581	-31.74
275.797	89.09
276.012	21.5
276.228	3.07
276.444	-29.7
276.659	15.36
276.875	31.74
277.09	-19.46
277.306	35.84
277.521	27.65
277.737	-13.31
277.952	103.42
278.168	17.41
278.383	44.03
278.599	-82.94
278.814	-5.12
279.03	17.41
279.245	70.65
279.461	7.17
279.676	33.79
279.892	-35.84
280.107	15.36
280.322	11.26
280.538	19.46
280.753	-21.5
280.969	-50.18
281.184	3.07
281.399	87.04
281.615	-3.07
281.83	37.89
282.045	-13.31
282.26	119.81
282.476	48.13
282.691	39.94
282.906	54.27
283.122	3.07
283.337	-3.07
283.552	1.02
283.767	-1.02
283.983	9.22
284.198	-25.6
284.413	-15.36
284.628	19.46
284.843	-11.26
285.058	7.17
285.274	80.89
285.489	-25.6
285.704	15.36
285.919	-1.02
286.134	7.17
286.349	-25.6
286.564	35.84
286.779	-5.12
286.995	64.51
287.21	-3.07
287.425	-9.22
287.64	29.7
287.855	-5.12
288.07	-11.26
288.285	31.74
288.5	44.03
288.715	-25.6
288.93	9.22
289.145	7.17
289.36	-29.7
289.575	44.03
289.79	123.9
290.004	15.36
290.219	-5.12
290.434	35.84
290.649	1.02
290.864	9.22
291.079	-15.36
291.294	29.7
291.509	-9.22
291.724	13.31
291.938	-41.98
292.153	17.41
292.368	-33.79
292.583	-52.22
292.798	93.18
293.012	-21.5
293.227	-15.36
293.442	33.79
293.657	29.7
293.871	-21.5
294.086	-27.65
294.301	109.57
294.516	48.13
294.73	13.31
294.945	-62.46
295.16	62.46
295.374	72.7
295.589	-15.36
295.804	-5.12
296.018	31.74
296.233	11.26
296.447	-7.17
296.662	9.22
296.877	35.84
297.091	19.46
297.306	21.5
297.52	-29.7
297.735	54.27
297.949	-64.51
298.164	-1.02
298.378	11.26
298.593	46.08
298.807	-23.55
299.022	35.84
299.236	48.13
299.451	-17.41
299.665	5.12
299.88	15.36
300.094	76.8
300.309	-29.7
300.523	25.6
300.737	23.55
300.952	-9.22
301.166	-1.02
301.381	54.27
301.595	31.74
301.809	41.98
302.024	52.22
302.238	-13.31
302.452	-1.02
302.667	-1.02
302.881	56.32
303.095	-5.12
303.309	15.36
303.524	9.22
303.738	-23.55
303.952	-5.12
304.166	33.79
304.381	48.13
304.595	54.27
304.809	-21.5
305.023	9.22
305.237	29.7
305.452	54.27
305.666	-41.98
305.88	11.26
306.094	39.94
306.308	-58.37
306.522	-15.36
306.736	58.37
306.95	33.79
307.164	64.51
307.379	-21.5
307.593	-37.89
307.807	-9.22
308.021	66.56
308.235	27.65
308.449	-29.7
308.663	-25.6
308.877	50.18
309.091	-31.74
309.305	-91.13
309.519	76.8
309.733	33.79
309.947	-21.5
310.161	17.41
310.374	-31.74
310.588	23.55
310.802	-7.17
311.016	-13.31
311.23	23.55
311.444	48.13
311.658	-23.55
311.872	17.41
312.085	-66.56
312.299	31.74
312.513	64.51
312.727	31.74
312.941	11.26
313.154	-9.22
313.368	13.31
313.582	-25.6
313.796	29.7
314.009	7.17
314.223	-13.31
314.437	23.55
314.651	1.02
314.864	3.07
315.078	-9.22
315.292	19.46
315.505	15.36
315.719	-25.6
315.933	-37.89
316.146	-13.31
316.36	-9.22
316.573	-25.6
316.787	-15.36
317.001	-27.65
317.214	33.79
317.428	11.26
317.641	-13.31
317.855	-41.98
318.068	29.7
318.282	-13.31
318.495	13.31
318.709	-3.07
318.922	-1.02
319.136	-23.55
319.349	23.55
319.563	-17.41
319.776	64.51
319.99	-72.7
320.203	46.08
320.417	39.94
320.63	39.94
320.843	68.61
321.057	11.26
321.27	15.36
321.483	17.41
321.697	41.98
321.91	27.65
322.124	23.55
322.337	-54.27
322.55	-17.41
322.763	-5.12
322.977	-15.36
323.19	-25.6
323.403	-17.41
323.617	62.46
323.83	44.03
324.043	-9.22
324.256	9.22
324.469	41.98
324.683	52.22
324.896	-1.02
325.109	21.5
325.322	25.6
325.535	25.6
325.748	-33.79
325.962	-29.7
326.175	-23.55
326.388	-44.03
326.601	-9.22
326.814	5.12
327.027	46.08
327.24	1.02
327.453	-41.98
327.666	50.18
327.879	115.71
328.092	-31.74
328.305	-29.7
328.518	19.46
328.731	19.46
328.944	7.17
329.157	15.36
329.37	37.89
329.583	-9.22
329.796	-7.17
330.009	23.55
330.222	13.31
330.435	7.17
330.648	60.42
330.861	-21.5
331.073	11.26
331.286	-58.37
331.499	23.55
331.712	31.74
331.925	44.03
332.138	-1.02
332.35	15.36
332.563	-19.46
332.776	-7.17
332.989	5.12
333.202	56.32
333.414	68.61
333.627	-48.13
333.84	-9.22
334.053	-9.22
334.265	7.17
334.478	23.55
334.691	1.02
334.903	-54.27
335.116	33.79
335.329	23.55
335.541	-39.94
335.754	35.84
335.966	7.17
336.179	13.31
336.392	-33.79
336.604	-31.74
336.817	-15.36
337.029	-25.6
337.242	33.79
337.454	82.94
337.667	-5.12
337.88	5.12
338.092	17.41
338.305	82.94
338.517	31.74
338.729	-11.26
338.942	7.17
339.154	62.46
339.367	-25.6
339.579	56.32
339.792	11.26
340.004	-31.74
340.217	21.5
340.429	-15.36
340.641	62.46
340.854	89.09
341.066	-7.17
341.278	35.84
341.491	56.32
341.703	-13.31
341.915	-9.22
342.128	62.46
342.34	46.08
342.552	148.48
342.764	31.74
342.977	13.31
343.189	27.65
343.401	-23.55
343.613	-64.51
343.826	15.36
344.038	11.26
344.25	7.17
344.462	80.89
344.674	-21.5
344.886	48.13
345.099	-1.02
345.311	-33.79
345.523	-9.22
345.735	-9.22
345.947	64.51
346.159	68.61
346.371	-9.22
346.583	39.94
346.795	52.22
347.007	-3.07
347.219	9.22
347.431	-23.55
347.643	23.55
347.855	-19.46
348.067	76.8
348.279	25.6
348.491	-37.89
348.703	3.07
348.915	72.7
349.127	-74.75
349.339	56.32
349.551	39.94
349.763	37.89
349.975	-1.02
350.187	89.09
350.399	15.36
350.61	7.17
350.822	19.46
351.034	-17.41
351.246	33.79
351.458	13.31
351.669	-21.5
351.881	1.02
352.093	5.12
352.305	1.02
352.517	-44.03
352.728	41.98
352.94	-48.13
353.152	52.22
353.363	7.17
353.575	-9.22
353.787	29.7
353.999	7.17
354.21	-29.7
354.422	68.61
354.633	-15.36
354.845	7.17
355.057	66.56
355.268	21.5
355.48	15.36
355.692	15.36
355.903	17.41
356.115	-9.22
356.326	50.18
356.538	3.07
356.749	72.7
356.961	-5.12
357.172	-19.46
357.384	-46.08
357.595	-13.31
357.807	-9.22
358.018	15.36
358.23	56.32
358.441	15.36
358.653	60.42
358.864	25.6
359.075	31.74
359.287	-60.42
359.498	11.26
359.709	15.36
359.921	-1.02
360.132	29.7
360.344	66.56
360.555	3.07
360.766	21.5
360.977	1.02
361.189	-15.36
361.4	5.12
361.611	9.22
361.823	-44.03
362.034	80.89
362.245	15.36
362.456	54.27
362.667	58.37
362.879	-1.02
363.09	58.37
363.301	87.04
363.512	19.46
363.723	-15.36
363.935	1.02
364.146	-41.98
364.357	-66.56
364.568	76.8
364.779	-7.17
364.99	-9.22
365.201	44.03
365.412	84.99
365.623	-17.41
365.834	-41.98
366.045	35.84
366.256	-15.36
366.467	9.22
366.678	35.84
366.889	50.18
367.1	31.74
367.311	-41.98
367.522	33.79
367.733	-1.02
367.944	-5.12
368.155	-7.17
368.366	44.03
368.577	-17.41
368.788	39.94
368.999	-9.22
369.209	46.08
369.42	50.18
369.631	1.02
369.842	31.74
370.053	19.46
370.264	29.7
370.474	17.41
370.685	27.65
370.896	39.94
371.107	3.07
371.317	39.94
371.528	-3.07
371.739	80.89
371.95	15.36
372.16	23.55
372.371	3.07
372.582	-7.17
372.792	56.32
373.003	60.42
373.214	9.22
373.424	66.56
373.635	-44.03
373.846	41.98
374.056	-31.74
374.267	-5.12
374.477	3.07
374.688	-7.17
374.898	31.74
375.109	-21.5
375.319	37.89
375.53	70.65
375.74	48.13
375.951	56.32
376.161	-39.94
376.372	1.02
376.582	-9.22
376.793	39.94
377.003	25.6
377.214	15.36
377.424	-13.31
377.635	48.13
377.845	-1.02
378.055	70.65
378.266	-15.36
378.476	46.08
378.686	-48.13
378.897	-60.42
379.107	5.12
379.317	11.26
379.528	-54.27
379.738	39.94
379.948	44.03
380.158	7.17
380.369	70.65
380.579	27.65
380.789	-99.33
380.999	25.6
381.21	-15.36
381.42	33.79
381.63	37.89
381.84	76.8
382.05	-17.41
382.261	-41.98
382.471	17.41
382.681	21.5
382.891	58.37
383.101	15.36
383.311	44.03
383.521	41.98
383.731	9.22
383.941	25.6
384.151	31.74
384.361	82.94
384.571	39.94
384.781	56.32
384.991	13.31
385.201	105.47
385.411	7.17
385.621	29.7
385.831	-15.36
386.041	27.65
386.251	21.5
386.461	117.76
386.671	15.36
386.881	-17.41
387.091	33.79
387.301	64.51
387.511	17.41
387.72	37.89
387.93	-3.07
388.14	-1.02
388.35	39.94
388.56	37.89
388.769	3.07
388.979	-37.89
389.189	35.84
389.399	-25.6
389.609	97.28
389.818	13.31
390.028	31.74
390.238	-25.6
390.447	35.84
390.657	35.84
390.867	-31.74
391.076	97.28
391.286	-35.84
391.496	41.98
391.705	1.02
391.915	33.79
392.125	29.7
392.334	-15.36
392.544	-31.74
392.753	27.65
392.963	27.65
393.172	52.22
393.382	-60.42
393.591	82.94
393.801	76.8
394.01	31.74
394.22	-1.02
394.429	-17.41
394.639	76.8
394.848	1.02
395.058	-33.79
395.267	54.27
395.477	-17.41
395.686	27.65
395.895	76.8
396.105	9.22
396.314	68.61
396.524	17.41
396.733	13.31
396.942	80.89
397.152	17.41
397.361	15.36
397.57	13.31
397.78	91.13
397.989	37.89
398.198	27.65
398.407	60.42
398.617	50.18
398.826	60.42
399.035	33.79
399.244	35.84
399.453	31.74
399.663	78.85
399.872	-25.6
400.081	54.27
400.29	50.18
400.499	23.55
400.708	35.84
400.917	-60.42
401.127	113.66
401.336	31.74
401.545	113.66
401.754	115.71
401.963	27.65
402.172	-1.02
402.381	-1.02
402.59	78.85
402.799	109.57
403.008	17.41
403.217	1.02
403.426	68.61
403.635	-50.18
403.844	52.22
404.053	19.46
404.262	74.75
404.471	117.76
404.68	15.36
404.888	115.71
405.097	87.04
405.306	93.18
405.515	115.71
405.724	17.41
405.933	33.79
406.142	111.61
406.35	70.65
406.559	91.13
406.768	121.85
406.977	103.42
407.185	76.8
407.394	89.09
407.603	74.75
407.812	128
408.02	62.46
408.229	87.04
408.438	93.18
408.646	115.71
408.855	52.22
409.064	119.81
409.272	109.57
409.481	91.13
409.69	44.03
409.898	197.63
410.107	107.52
410.315	119.81
410.524	140.29
410.733	103.42
410.941	29.7
411.15	226.3
411.358	74.75
411.567	109.57
411.775	207.87
411.984	148.48
412.192	197.63
412.401	164.86
412.609	125.95
412.818	263.16
413.026	218.11
413.234	166.91
413.443	259.07
413.651	207.87
413.86	158.72
414.068	228.35
414.276	240.64
414.485	291.84
414.693	226.3
414.901	271.36
415.11	338.94
415.318	300.03
415.526	310.27
415.734	340.99
415.943	220.16
416.151	340.99
416.359	293.88
416.567	334.84
416.776	316.41
416.984	379.9
417.192	416.76
417.4	433.15
417.608	455.67
417.817	441.34
418.025	443.39
418.233	506.87
418.441	474.1
418.649	431.1
418.857	506.87
419.065	570.36
419.273	599.03
419.481	678.9
419.689	623.61
419.897	592.89
420.105	566.26
420.313	588.79
420.521	633.85
420.729	674.81
420.937	656.37
421.145	771.06
421.353	789.49
421.561	787.44
421.769	881.65
421.977	789.49
422.185	668.66
422.393	867.31
422.601	916.47
422.809	918.51
423.017	969.71
423.224	910.32
423.432	953.33
423.64	1131.5
423.848	1149.93
424.056	1088.5
424.263	1104.88
424.471	1227.76
424.679	1137.65
424.887	1223.66
425.094	1278.96
425.302	1332.2
425.51	1487.85
425.718	1412.07
425.925	1381.35
426.133	1594.34
426.341	1557.48
426.548	1557.48
426.756	1659.88
426.964	1620.97
427.171	1598.44
427.379	1833.96
427.586	1827.81
427.794	1897.44
428.001	1973.22
428.209	2061.28
428.417	2079.71
428.624	2198.49
428.832	2128.86
429.039	2231.26
429.247	2116.58
429.454	2434.01
429.662	2425.82
429.869	2382.81
430.076	2575.32
430.284	2339.8
430.491	2528.22
430.699	2698.2
430.906	2722.77
431.114	2796.5
431.321	2792.41
431.528	3025.87
431.736	2937.81
431.943	3152.85
432.15	3132.37
432.358	3009.49
432.565	3261.39
432.772	3210.19
432.979	3470.28
433.187	3548.11
433.394	3580.87
433.601	3883.97
433.808	3824.58
434.016	3820.49
434.223	3845.06
434.43	4170.69
434.637	4058.05
434.844	4430.78
435.052	4453.31
435.259	4445.12
435.466	4486.08
435.673	4467.64
435.88	4686.78
436.087	4895.67
436.294	4783.03
436.501	4799.41
436.708	5000.12
436.915	5055.41
437.122	5309.36
437.329	5323.69
437.537	5444.52
437.743	5663.66
437.95	5489.58
438.157	5721
438.364	6081.44
438.571	6106.02
438.778	6077.35
438.985	6493.08
439.192	6271.9
439.399	6497.18
439.606	6470.56
439.813	6749.08
440.02	7152.53
440.227	7099.28
440.433	7058.32
440.64	7345.04
440.847	7170.96
441.054	7318.42
441.261	7881.61
441.467	7701.39
441.674	7838.6
441.881	8192.9
442.088	8174.47
442.294	8049.54
442.501	8160.13
442.708	8500.09
442.914	8854.39
443.121	9247.6
443.328	8852.34
443.534	9571.18
443.741	9237.36
443.948	9065.33
444.154	9845.61
444.361	9919.34
444.568	10062.69
444.774	9857.9
444.981	10083.17
445.187	10490.72
445.394	10834.78
445.6	10695.52
445.807	11782.99
446.013	11588.43
446.22	11473.74
446.426	11699.02
446.633	12032.84
446.839	12385.09
447.046	11899.72
447.252	12663.61
447.459	12389.19
447.665	12616.51
447.871	13257.53
448.078	13691.7
448.284	13151.03
448.491	13519.67
448.697	14072.62
448.903	14172.97
449.11	14275.37
449.316	14146.34
449.522	14408.48
449.728	14871.33
449.935	14768.93
450.141	14750.49
450.347	15317.78
450.553	14621.47
450.76	15115.03
450.966	15606.55
451.172	15366.93
451.378	15647.51
451.584	15618.83
451.791	16016.14
451.997	16079.63
452.203	16055.05
452.409	15950.6
452.615	15813.39
452.821	15315.73
453.027	15239.96
453.233	16147.21
453.44	15334.17
453.646	15504.15
453.852	15770.38
454.058	16139.02
454.264	15299.35
454.47	15866.64
454.676	15608.59
454.882	16100.11
455.088	14320.42
455.294	14641.95
455.5	15033.11
455.705	15117.08
455.911	14654.24
456.117	14541.6
456.323	14166.82
456.529	13398.84
456.735	14179.11
456.941	13615.92
457.147	13294.39
457.352	13179.7
457.558	12835.64
457.764	13108.02
457.97	12548.93
458.176	12587.84
458.381	12483.39
458.587	11776.84
458.793	11826
458.999	11103.06
459.204	12073.8
459.41	11512.66
459.616	10955.61
459.821	10779.48
460.027	10732.38
460.233	10556.25
460.438	10087.27
460.644	10146.66
460.85	9610.09
461.055	9597.81
461.261	9503.6
461.466	8811.39
461.672	8629.12
461.878	9061.24
462.083	8473.47
462.289	8305.54
462.494	8532.86
462.7	7789.45
462.905	7852.94
463.111	7916.42
463.316	8063.88
463.522	7867.27
463.727	7955.33
463.932	7787.4
464.138	7883.66
464.343	7621.52
464.549	7707.53
464.754	7844.74
464.959	7930.76
465.165	7543.69
465.37	7326.61
465.575	7320.46
465.781	7498.64
465.986	7373.71
466.191	7297.94
466.397	7089.04
466.602	6665.11
466.807	7240.59
467.012	7029.65
467.218	7023.51
467.423	7087
467.628	7027.6
467.833	7297.94
468.038	6982.55
468.244	6943.64
468.449	7076.76
468.654	6851.48
468.859	6906.77
469.064	6607.77
469.269	6503.32
469.474	6552.48
469.679	6761.37
469.885	6583.2
470.09	6521.76
470.295	6488.99
470.5	6349.73
470.705	6538.14
470.91	6138.79
471.115	6159.27
471.32	6443.93
471.525	6302.62
471.73	6089.64
471.935	6024.1
472.139	5829.54
472.344	6056.87
472.549	5872.55
472.754	5821.35
472.959	5661.61
473.164	5505.96
473.369	5530.54
473.574	5761.96
473.778	5696.43
473.983	5577.64
474.188	5567.4
474.393	5407.66
474.598	5374.89
474.802	5348.27
475.007	5258.16
475.212	5323.69
475.417	5170.1
475.621	5260.21
475.826	5284.78
476.031	5016.5
476.235	4934.58
476.44	5176.24
476.645	5036.98
476.849	4963.25
477.054	4981.68
477.259	4828.09
477.463	4801.46
477.668	4645.82
477.872	4662.2
478.077	4672.44
478.282	4424.64
478.486	4524.99
478.691	4713.4
478.895	4512.7
479.1	4565.95
479.304	4570.04
479.509	4324.29
479.713	4463.55
479.918	4361.15
480.122	4203.46
480.326	4457.4
480.531	4199.36
480.735	4223.94
480.94	4332.48
481.144	4332.48
481.348	4117.44
481.553	4254.66
481.757	4191.17
481.961	4176.83
482.166	4262.85
482.37	4219.84
482.574	4088.77
482.778	4002.75
482.983	4160.45
483.187	4101.06
483.391	4086.72
483.595	4139.97
483.8	3988.42
484.004	4289.47
484.208	4146.11
484.412	3974.08
484.616	4262.85
484.821	4078.53
485.025	4068.29
485.229	4199.36
485.433	4107.2
485.637	4113.35
485.841	4170.69
486.045	4064.19
486.249	4060.1
486.453	4160.45
486.657	4127.68
486.861	4258.75
487.065	4090.82
487.269	4144.06
487.473	4068.29
487.677	4260.8
487.881	4162.5
488.085	4103.11
488.289	4201.41
488.493	4062.15
488.697	4215.74
488.901	4156.35
489.105	4185.02
489.309	4244.42
489.512	4207.55
489.716	4189.12
489.92	4217.79
490.124	4301.76
490.328	4391.87
490.531	4316.09
490.735	4307.9
490.939	4391.87
491.143	4367.29
491.346	4250.56
491.55	4295.61
491.754	4318.14
491.958	4293.57
492.161	4383.68
492.365	4291.52
492.569	4258.75
492.772	4305.85
492.976	4416.44
493.18	4524.99
493.383	4449.21
493.587	4629.43
493.79	4578.23
493.994	4662.2
494.197	4692.92
494.401	4699.06
494.605	4715.45
494.808	4774.84
495.012	4858.81
495.215	4799.41
495.419	4797.37
495.622	4766.65
495.825	4922.29
496.029	4873.14
496.232	4967.35
496.436	5012.4
496.639	5182.38
496.843	5157.81
497.046	5333.93
497.249	5194.67
497.453	5475.24
497.656	5401.52
497.859	5387.18
498.063	5456.81
498.266	5587.88
498.469	5536.68
498.673	5583.79
498.876	5723.05
499.079	5880.74
499.282	5852.07
499.485	5802.92
499.689	5970.85
499.892	6063.01
500.095	6185.89
500.298	6230.94
500.501	6173.6
500.705	6255.52
500.908	6345.63
501.111	6558.62
501.314	6566.81
501.517	6638.49
501.72	6701.98
501.923	6654.87
502.126	6939.54
502.329	6931.35
502.532	7117.72
502.735	7140.24
502.938	7363.47
503.141	7287.7
503.344	7336.85
503.547	7416.72
503.75	7478.16
503.953	7717.77
504.156	7635.85
504.359	7828.36
504.562	7994.25
504.765	8078.21
504.968	8207.23
505.17	8176.52
505.373	8194.95
505.576	8512.38
505.779	8471.42
505.982	8776.57
506.185	8711.04
506.387	8747.9
506.59	8924.02
506.793	9321.33
506.996	9116.53
507.198	9446.26
507.401	9337.71
507.604	9489.26
507.807	9786.22
508.009	9935.72
508.212	9866.09
508.415	9999.21
508.617	10046.31
508.82	10201.96
509.022	10191.72
509.225	10441.57
509.428	10627.93
509.63	10685.28
509.833	10732.38
510.035	11135.83
510.238	11135.83
510.44	11101.01
510.643	11230.04
510.845	11578.19
511.048	11459.41
511.25	11686.73
511.453	11598.67
511.655	12337.99
511.858	11993.93
512.06	12084.04
512.262	12444.48
512.465	12239.69
512.667	12591.94
512.87	12684.09
513.072	12827.45
513.274	13054.78
513.477	13030.2
513.679	13359.92
513.881	13507.38
514.084	13595.44
514.286	13777.71
514.488	13929.26
514.69	14158.63
514.893	14144.3
515.095	14408.48
515.297	14527.27
515.499	14648.1
515.701	14551.84
515.904	15004.44
516.106	15112.99
516.308	15262.49
516.51	15395.61
516.712	15301.4
516.914	15704.85
517.116	16139.02
517.318	16210.7
517.52	16343.81
517.722	16280.33
517.925	16450.31
518.127	16818.94
518.329	17081.08
518.531	16935.68
518.733	17285.88
518.935	17226.49
519.136	17234.68
519.338	17619.7
519.54	17851.12
519.742	17801.97
519.944	18289.38
520.146	18313.96
520.348	18453.22
520.55	18594.53
520.752	18793.19
520.954	19110.62
521.155	19061.47
521.357	19221.21
521.559	19307.23
521.761	19759.83
521.963	19743.44
522.164	20073.17
522.366	19985.1
522.568	20134.6
522.77	20341.45
522.971	20896.45
523.173	20800.19
523.375	20720.32
523.576	20642.5
523.778	20990.66
523.98	21123.77
524.181	21396.15
524.383	21269.18
524.584	21607.09
524.786	21557.94
524.988	21762.74
525.189	21955.25
525.391	22037.17
525.592	22305.45
525.794	22413.99
525.995	22348.46
526.197	22334.12
526.398	22430.38
526.6	22731.43
526.801	22598.31
527.003	23128.74
527.204	22917.79
527.406	23356.06
527.607	23167.65
527.808	23335.58
528.01	22758.05
528.211	23317.15
528.412	23827.09
528.614	23532.18
528.815	23532.18
529.016	23806.61
529.218	23900.82
529.419	23917.2
529.62	23892.63
529.822	24091.28
530.023	23921.3
530.224	24271.5
530.425	24142.48
530.626	24025.75
530.828	24033.94
531.029	24306.32
531.23	24083.09
531.431	24615.56
531.632	24263.31
531.833	24277.65
532.035	24312.46
532.236	24439.44
532.437	24414.86
532.638	24310.41
532.839	24720.01
533.04	24601.22
533.241	24492.68
533.442	24783.49
533.643	24730.25
533.844	24951.43
534.045	24631.94
534.246	24636.04
534.447	25199.23
534.648	24693.38
534.849	24922.76
535.05	24859.27
535.251	24992.39
535.451	24834.69
535.652	24922.76
535.853	24584.84
536.054	25275.01
536.255	25025.15
536.456	24707.72
536.657	25287.29
536.857	25176.7
537.058	24580.74
537.259	25074.31
537.46	24818.31
537.66	25027.2
537.861	25084.55
538.062	24693.38
538.263	24959.62
538.463	24801.93
538.664	25070.21
538.865	25117.31
539.065	25105.02
539.266	24683.14
539.466	24889.99
539.667	24906.37
539.868	25182.85
540.068	25096.83
540.269	24791.69
540.469	24826.5
540.67	25143.94
540.87	25010.82
541.071	24871.56
541.271	25133.7
541.472	25055.87
541.672	24836.74
541.873	24785.54
542.073	24760.97
542.274	25191.04
542.474	24627.85
542.675	24775.3
542.875	24951.43
543.075	24816.26
543.276	24533.64
543.476	25113.22
543.676	24916.61
543.877	24943.24
544.077	24935.04
544.277	24906.37
544.478	25080.45
544.678	25164.42
544.878	24502.92
545.078	24928.9
545.279	24564.36
545.479	24824.45
545.679	24840.84
545.879	24715.91
546.079	24955.52
546.28	24547.98
546.48	24816.26
546.68	25191.04
546.88	24892.04
547.08	24617.61
547.28	24711.81
547.48	24388.24
547.68	24836.74
547.88	24662.66
548.081	24920.71
548.281	24763.01
548.481	24926.85
548.681	24955.52
548.881	24746.63
549.081	24797.83
549.28	24615.56
549.48	24779.4
549.68	24793.73
549.88	25129.6
550.08	24283.79
550.28	24910.47
550.48	24746.63
550.68	24935.04
550.88	24898.18
551.08	24865.41
551.279	24435.34
551.479	24521.35
551.679	24603.27
551.879	24746.63
552.079	24867.46
552.278	24709.77
552.478	24875.65
552.678	24838.79
552.878	24459.91
553.077	24361.61
553.277	24349.32
553.477	24709.77
553.676	24197.77
553.876	24572.55
554.076	24291.98
554.275	24279.69
554.475	24369.8
554.674	24605.32
554.874	24406.67
555.074	24513.16
555.273	24494.73
555.473	24642.18
555.672	24201.87
555.872	24558.22
556.071	24287.89
556.271	24431.24
556.47	24154.77
556.67	24013.46
556.869	23870.1
557.068	24396.43
557.268	23970.45
557.467	24044.18
557.667	23779.99
557.866	24179.34
558.065	23937.68
558.265	23949.97
558.464	23728.79
558.663	24038.03
558.863	23610.01
559.062	24156.82
559.261	23691.93
559.461	24136.34
559.66	23472.79
559.859	23650.97
560.058	23427.74
560.258	23607.96
560.457	23233.18
560.656	23548.57
560.855	23722.65
561.054	23509.66
561.253	23421.59
561.453	23268
561.652	23378.59
561.851	23505.56
562.05	23233.18
562.249	23470.75
562.448	23186.08
562.647	22917.79
562.846	23093.92
563.045	23231.13
563.244	22973.09
563.443	23128.74
563.642	22889.12
563.841	22968.99
564.04	22897.31
564.239	22932.13
564.438	22622.89
564.637	22944.42
564.836	23040.67
565.035	22432.43
565.234	22520.49
565.432	22626.98
565.631	22649.51
565.83	22260.4
566.029	22489.77
566.228	22309.55
566.427	22395.56
566.625	22227.63
566.824	22086.32
567.023	22411.95
567.222	21945.01
567.42	22121.13
567.619	22069.94
567.818	22047.41
568.016	21895.86
568.215	21834.42
568.414	21770.93
568.612	22088.37
568.811	21715.64
569.01	21721.78
569.208	21445.3
569.407	21541.56
569.605	21230.27
569.804	21420.73
570.002	21142.21
570.201	21541.56
570.4	21269.18
570.598	20847.3
570.797	21043.9
570.995	20968.13
571.193	20728.52
571.392	21177.02
571.59	20988.61
571.789	20753.09
571.987	20800.19
572.186	20585.16
572.384	20632.26
572.582	20521.67
572.781	20556.49
572.979	20009.68
573.177	20366.03
573.376	20406.98
573.574	20228.81
573.772	20435.66
573.971	20136.65
574.169	20136.65
574.367	19876.56
574.565	20144.84
574.763	19931.86
574.962	19792.59
575.16	19993.29
575.358	19974.86
575.556	19503.83
575.754	19788.5
575.952	19415.77
576.151	19722.96
576.349	19389.14
576.547	19397.34
576.745	19634.9
576.943	19409.62
577.141	19239.64
577.339	19139.29
577.537	19282.65
577.735	19155.68
577.933	18922.21
578.131	18993.89
578.329	19067.61
578.527	18873.06
578.725	18735.84
578.923	18596.58
579.121	18719.46
579.319	18608.87
579.516	18756.32
579.714	18430.69
579.912	18731.75
580.11	18565.86
580.308	18768.61
580.506	18461.41
580.704	17998.57
580.901	17949.42
581.099	18430.69
581.297	18133.74
581.495	18119.4
581.692	18182.89
581.89	17816.3
582.088	17988.33
582.285	17959.66
582.483	17750.77
582.681	17746.67
582.878	17648.37
583.076	17642.23
583.274	17709.81
583.471	17484.53
583.669	17715.95
583.866	17416.95
584.064	17482.49
584.262	17124.09
584.459	17253.11
584.657	17138.43
584.854	17318.65
585.052	17001.21
585.249	17113.85
585.447	17175.29
585.644	16976.64
585.841	17081.08
586.039	17093.37
586.236	16638.72
586.434	16972.54
586.631	16626.43
586.828	16589.57
587.026	16878.33
587.223	16683.78
587.42	16384.77
587.618	16413.45
587.815	16544.52
588.012	16302.86
588.21	16472.84
588.407	16542.47
588.604	16208.65
588.801	16048.91
588.999	16063.24
589.196	16239.37
589.393	16243.46
589.59	16091.91
589.787	15893.26
589.984	15878.93
590.182	15854.35
590.379	15864.59
590.576	15579.92
590.773	15653.65
590.97	15684.37
591.167	15696.66
591.364	15213.34
591.561	15860.49
591.758	15450.9
591.955	15633.17
592.152	15588.11
592.349	15588.11
592.546	15424.28
592.743	15309.59
592.94	15104.79
593.137	15225.62
593.334	15231.77
593.531	15031.07
593.727	14908.19
593.924	14875.42
594.121	15043.35
594.318	14990.11
594.515	14707.49
594.712	14715.68
594.908	14873.37
595.105	14809.89
595.302	14662.43
595.499	14609.19
595.696	14570.27
595.892	14471.97
596.089	14615.33
596.286	14553.89
596.482	14261.03
596.679	14656.29
596.876	14297.89
597.072	14220.07
597.269	14240.55
597.466	14152.49
597.662	14261.03
597.859	14183.21
598.055	14261.03
598.252	13855.53
598.448	14101.29
598.645	13939.5
598.841	13863.72
599.038	14029.61
599.234	13732.65
599.431	13714.22
599.627	13593.39
599.824	13665.07
600.02	13347.64
600.217	13681.46
600.413	13720.37
600.609	13380.4
600.806	13290.29
601.002	13427.51
601.198	13325.11
601.395	13357.88
601.591	13187.89
601.787	13370.16
601.984	13189.94
602.18	13169.46
602.376	13013.82
602.572	12944.19
602.769	13163.32
602.965	12809.02
603.161	13042.49
603.357	13132.6
603.553	12993.34
603.75	12905.28
603.946	12837.69
604.142	12624.7
604.338	12577.6
604.534	12782.4
604.73	12518.21
604.926	12258.12
605.122	12661.57
605.318	12573.5
605.514	12522.3
605.71	12219.21
605.906	12436.29
606.102	12305.22
606.298	12446.53
606.494	12114.76
606.69	12120.9
606.886	12235.59
607.082	11899.72
607.278	12221.25
607.474	11979.59
607.67	12305.22
607.866	11764.56
608.062	12081.99
608.257	11869
608.453	11801.42
608.649	12256.07
608.845	11944.78
609.041	11733.84
609.236	12073.8
609.432	11746.12
609.628	11701.07
609.824	11594.58
610.019	11725.65
610.215	11852.62
610.411	11615.05
610.606	11721.55
610.802	11668.3
610.998	11635.53
611.193	11338.58
611.389	11293.52
611.584	11494.22
611.78	11322.2
611.976	11281.24
612.171	11369.3
612.367	11533.14
612.562	11473.74
612.758	11076.44
612.953	11092.82
613.149	11375.44
613.344	11164.5
613.539	11342.67
613.735	11320.15
613.93	11039.58
614.126	11023.19
614.321	11176.79
614.517	11254.61
614.712	10847.07
614.907	10894.17
615.103	11072.34
615.298	10865.5
615.493	11092.82
615.688	10920.79
615.884	11039.58
616.079	11080.53
616.274	11064.15
616.47	10689.37
616.665	10759
616.86	10832.73
617.055	10617.69
617.25	10543.97
617.445	10730.33
617.641	10599.26
617.836	10613.6
618.031	10439.52
618.226	10576.73
618.421	10447.71
618.616	10607.45
618.811	10247.01
619.006	10462.05
619.201	10204
619.396	10324.83
619.591	10117.99
619.786	10476.38
619.981	10091.37
620.176	10333.03
620.371	10150.76
620.566	10003.3
620.761	9931.62
620.956	9909.1
621.151	9982.82
621.346	10036.07
621.541	9767.79
621.735	9878.38
621.93	9466.74
622.125	9624.43
622.32	9429.87
622.515	9259.89
622.709	9464.69
622.904	9452.4
623.099	9153.4
623.294	9442.16
623.488	9077.62
623.683	9411.44
623.878	9139.06
624.072	8999.8
624.267	9022.33
624.462	9005.94
624.656	8948.6
624.851	9106.29
625.046	9071.48
625.24	8878.97
625.435	8823.67
625.629	8848.25
625.824	8698.75
626.018	8704.89
626.213	8491.9
626.407	8676.22
626.602	8539.01
626.796	8350.59
626.991	8571.77
627.185	8391.55
627.38	8297.35
627.574	8227.71
627.768	8067.97
627.963	8201.09
628.157	8201.09
628.352	8067.97
628.546	7936.9
628.74	8231.81
628.935	8121.22
629.129	8012.68
629.323	7816.07
629.517	7807.88
629.712	7822.22
629.906	7814.02
630.1	7613.32
630.294	7687.05
630.489	7662.48
630.683	7652.24
630.877	7617.42
631.071	7555.98
631.265	7560.08
631.459	7408.53
631.653	7295.89
631.848	7414.67
632.042	7371.66
632.236	7291.79
632.43	7164.82
632.624	7388.05
632.818	7191.44
633.012	7101.33
633.206	7062.42
633.4	7035.8
633.594	6970.26
633.788	7041.94
633.982	6925.21
634.176	6902.68
634.369	6812.57
634.563	6902.68
634.757	6927.25
634.951	6861.72
635.145	6769.56
635.339	6775.7
635.533	6675.35
635.726	6509.47
635.92	6560.67
636.114	6605.72
636.308	6431.65
636.501	6501.28
636.695	6568.86
636.889	6497.18
637.083	6450.08
637.276	6273.95
637.47	6296.48
637.664	6345.63
637.857	6226.85
638.051	6232.99
638.244	6241.18
638.438	6114.21
638.632	6228.9
638.825	5960.61
639.019	6044.58
639.212	6056.87
639.406	6038.44
639.599	5913.51
639.793	6011.81
639.986	5909.41
640.18	5876.65
640.373	5735.34
640.567	5667.75
640.76	5618.6
640.954	5663.66
641.147	5671.85
641.34	5604.27
641.534	5612.46
641.727	5565.36
641.92	5524.4
642.114	5546.92
642.307	5432.24
642.5	5585.83
642.694	5321.65
642.887	5331.89
643.08	5456.81
643.273	5270.45
643.467	5243.82
643.66	5295.02
643.853	5073.84
644.046	5096.37
644.239	5151.67
644.432	5102.51
644.626	4903.86
644.819	5000.12
645.012	5090.23
645.205	5002.16
645.398	5039.03
645.591	4854.71
645.784	4955.06
645.977	4727.74
646.17	4981.68
646.363	4823.99
646.556	4670.39
646.749	4754.36
646.942	4692.92
647.135	4649.91
647.328	4586.43
647.521	4555.71
647.714	4441.02
647.907	4557.75
648.099	4494.27
648.292	4559.8
648.485	4518.84
648.678	4400.06
648.871	4484.03
649.064	4455.36
649.256	4404.16
649.449	4350.91
649.642	4316.09
649.835	4211.65
650.027	4340.67
650.22	4193.22
650.413	4199.36
650.605	4242.37
650.798	4264.89
650.991	4289.47
651.183	4225.98
651.376	4088.77
651.568	3996.61
651.761	3980.23
651.954	4012.99
652.146	3965.89
652.339	3892.16
652.531	3914.69
652.724	3947.46
652.916	3910.6
653.109	3859.4
653.301	3939.27
653.494	3898.31
653.686	3810.25
653.879	3832.77
654.071	3824.58
654.263	3607.5
654.456	3728.33
654.648	3750.85
654.84	3693.51
655.033	3652.55
655.225	3664.84
655.417	3707.85
655.61	3711.94
655.802	3546.06
655.994	3556.3
656.186	3664.84
656.379	3464.14
656.571	3517.39
656.763	3566.54
656.955	3619.78
657.148	3380.17
657.34	3474.38
657.532	3312.59
657.724	3331.02
657.916	3433.42
658.108	3419.08
658.3	3300.3
658.492	3353.55
658.684	3316.69
658.876	3230.67
659.068	3324.88
659.26	3222.48
659.452	3210.19
659.644	3105.74
659.836	3222.48
660.028	3132.37
660.22	3202
660.412	3064.79
660.604	3156.94
660.796	3070.93
660.988	3023.83
661.18	3032.02
661.372	3021.78
661.563	3003.35
661.755	2921.43
661.947	2970.58
662.139	2997.2
662.331	3040.21
662.522	2859.99
662.714	2907.09
662.906	2724.82
663.097	2780.12
663.289	2835.41
663.481	2833.36
663.673	2868.18
663.864	2800.6
664.056	2690.01
664.247	2735.06
664.439	2769.88
664.631	2812.89
664.822	2759.64
665.014	2802.65
665.205	2696.15
665.397	2587.61
665.588	2663.38
665.78	2507.74
665.971	2610.14
666.163	2569.18
666.354	2612.18
666.546	2474.97
666.737	2503.64
666.929	2581.46
667.12	2558.94
667.311	2507.74
667.503	2540.51
667.694	2542.55
667.885	2505.69
668.077	2460.63
668.268	2583.51
668.459	2423.77
668.651	2368.48
668.842	2464.73
669.033	2413.53
669.224	2352.09
669.416	2376.67
669.607	2468.83
669.798	2393.05
669.989	2405.34
670.18	2331.61
670.371	2513.88
670.563	2364.38
670.754	2423.77
670.945	2341.85
671.136	2370.52
671.327	2223.07
671.518	2257.89
671.709	2270.17
671.9	2247.65
672.091	2239.45
672.282	2255.84
672.473	2044.9
672.664	2315.23
672.855	2241.5
673.046	2264.03
673.237	2276.32
673.428	2284.51
673.619	2130.91
673.809	2175.97
674	2182.11
674.191	2178.01
674.382	2102.24
674.573	2108.38
674.764	2073.57
674.954	2216.93
675.145	2190.3
675.336	2100.19
675.527	2100.19
675.717	2124.77
675.908	2032.61
676.099	2034.66
676.289	2098.14
676.48	2118.62
676.671	2020.32
676.861	2132.96
677.052	2005.99
677.243	2069.47
677.433	2014.18
677.624	2112.48
677.814	2008.03
678.005	2173.92
678.195	2075.62
678.386	1942.5
678.576	2032.61
678.767	2106.34
678.957	2036.7
679.148	2059.23
679.338	1962.98
679.529	1977.31
679.719	2030.56
679.909	2044.9
680.1	2094.05
680.29	1993.7
680.481	2073.57
680.671	2106.34
680.861	1948.64
681.052	1907.68
681.242	2055.14
681.432	2038.75
681.622	2028.51
681.813	2005.99
682.003	2069.47
682.193	1981.41
682.383	1997.79
682.573	2051.04
682.764	2075.62
682.954	1997.79
683.144	2085.86
683.334	1989.6
683.524	2081.76
683.714	2087.9
683.904	2034.66
684.094	1958.88
684.284	1969.12
684.474	2067.42
684.664	2077.66
684.854	1973.22
685.044	1962.98
685.234	1989.6
685.424	1969.12
685.614	2075.62
685.804	2132.96
685.994	2018.27
686.184	2096.1
686.374	1975.27
686.564	1993.7
686.753	2051.04
686.943	1960.93
687.133	2055.14
687.323	2012.13
687.513	1891.3
687.702	1979.36
687.892	1999.84
688.082	1991.65
688.272	1965.03
688.461	1817.57
688.651	2001.89
688.841	1891.3
689.03	1977.31
689.22	1973.22
689.41	1946.59
689.599	1938.4
689.789	1868.77
689.979	1975.27
690.168	1893.35
690.358	2005.99
690.547	1772.52
690.737	1922.02
690.926	1850.34
691.116	1846.24
691.305	1997.79
691.495	1940.45
691.684	1891.3
691.874	1883.11
692.063	1905.63
692.252	1881.06
692.442	1924.07
692.631	1752.04
692.82	1911.78
693.01	1891.3
693.199	1909.73
693.388	1848.29
693.578	1903.59
693.767	1928.16
693.956	1860.58
694.146	1786.85
694.335	1836
694.524	1776.61
694.713	1811.43
694.902	1784.8
695.092	1764.33
695.281	1784.8
695.47	1803.24
695.659	1942.5
695.848	1842.15
696.037	1819.62
696.226	1903.59
696.415	1778.66
696.604	1942.5
696.793	1846.24
696.982	1815.52
697.171	1879.01
697.36	1827.81
697.549	1782.76
697.738	1901.54
697.927	1901.54
698.116	1907.68
698.305	1840.1
698.494	1938.4
698.683	1864.68
698.872	1803.24
699.061	1786.85
699.25	1891.3
699.438	1827.81
699.627	1844.2
699.816	1817.57
700.005	1684.45
700.193	1889.25
700.382	1934.31
700.571	1850.34
700.76	1772.52
700.948	1842.15
701.137	1786.85
701.326	1735.65
701.514	1766.37
701.703	1756.13
701.892	1747.94
702.08	1809.38
702.269	1836
702.457	1729.51
702.646	1670.12
702.834	1811.43
703.023	1778.66
703.212	1793
703.4	1752.04
703.589	1694.69
703.777	1752.04
703.965	1749.99
704.154	1788.9
704.342	1817.57
704.531	1821.67
704.719	1674.21
704.907	1747.94
705.096	1762.28
705.284	1754.09
705.472	1723.37
705.661	1737.7
705.849	1729.51
706.037	1754.09
706.226	1764.33
706.414	1784.8
706.602	1741.8
706.79	1698.79
706.979	1731.56
707.167	1747.94
707.355	1709.03
707.543	1721.32
707.731	1672.17
707.919	1735.65
708.107	1752.04
708.296	1678.31
708.484	1713.13
708.672	1629.16
708.86	1698.79
709.048	1723.37
709.236	1668.07
709.424	1682.41
709.612	1645.54
709.8	1674.21
709.988	1645.54
710.176	1653.73
710.364	1725.41
710.551	1647.59
710.739	1571.82
710.927	1559.53
711.115	1735.65
711.303	1747.94
711.491	1623.02
711.679	1616.87
711.866	1657.83
712.054	1633.26
712.242	1586.15
712.43	1651.69
712.617	1639.4
712.805	1528.81
712.993	1747.94
713.181	1604.58
713.368	1647.59
713.556	1602.54
713.744	1537
713.931	1684.45
714.119	1616.87
714.306	1713.13
714.494	1631.21
714.682	1631.21
714.869	1598.44
715.057	1580.01
715.244	1670.12
715.432	1610.73
715.619	1465.32
715.807	1580.01
715.994	1616.87
716.182	1625.06
716.369	1573.86
716.556	1588.2
716.744	1526.76
716.931	1514.47
717.119	1551.34
717.306	1557.48
717.493	1606.63
717.681	1512.42
717.868	1483.75
718.055	1483.75
718.242	1506.28
718.43	1483.75
718.617	1516.52
718.804	1428.46
718.991	1561.58
719.179	1483.75
719.366	1469.42
719.553	1483.75
719.74	1512.42
719.927	1506.28
720.114	1534.95
720.301	1549.29
720.488	1420.27
720.676	1547.24
720.863	1481.71
721.05	1481.71
721.237	1450.99
721.424	1514.47
721.611	1471.47
721.798	1491.95
721.985	1453.03
722.172	1410.03
722.358	1473.51
722.545	1534.95
722.732	1547.24
722.919	1481.71
723.106	1387.5
723.293	1434.6
723.48	1537
723.667	1453.03
723.853	1450.99
724.04	1461.23
724.227	1481.71
724.414	1414.12
724.6	1504.23
724.787	1457.13
724.974	1344.49
725.161	1348.59
725.347	1461.23
725.534	1309.68
725.72	1448.94
725.907	1364.97
726.094	1469.42
726.28	1491.95
726.467	1356.78
726.653	1407.98
726.84	1446.89
727.027	1471.47
727.213	1440.75
727.4	1430.51
727.586	1448.94
727.773	1362.92
727.959	1444.84
728.145	1332.2
728.332	1403.88
728.518	1328.11
728.705	1391.59
728.891	1383.4
729.077	1442.79
729.264	1387.5
729.45	1338.35
729.636	1473.51
729.823	1434.6
730.009	1346.54
730.195	1397.74
730.382	1489.9
730.568	1432.55
730.754	1393.64
730.94	1317.87
731.126	1407.98
731.313	1369.07
731.499	1418.22
731.685	1391.59
731.871	1463.27
732.057	1369.07
732.243	1383.4
732.429	1375.21
732.615	1399.79
732.801	1414.12
732.987	1344.49
733.173	1395.69
733.359	1344.49
733.545	1313.77
733.731	1301.48
733.917	1358.83
734.103	1330.16
734.289	1369.07
734.475	1260.52
734.661	1410.03
734.847	1393.64
735.033	1399.79
735.219	1313.77
735.404	1330.16
735.59	1295.34
735.776	1330.16
735.962	1283.05
736.148	1367.02
736.333	1377.26
736.519	1350.64
736.705	1293.29
736.89	1367.02
737.076	1338.35
737.262	1182.7
737.447	1244.14
737.633	1254.38
737.819	1307.63
738.004	1229.81
738.19	1225.71
738.375	1393.64
738.561	1336.3
738.747	1178.61
738.932	1338.35
739.118	1326.06
739.303	1268.72
739.489	1233.9
739.674	1250.28
739.859	1194.99
740.045	1262.57
740.23	1213.42
740.416	1235.95
740.601	1360.88
740.786	1295.34
740.972	1158.13
741.157	1305.58
741.342	1131.5
741.528	1262.57
741.713	1311.72
741.898	1299.44
742.084	1217.52
742.269	1229.81
742.454	1166.32
742.639	1145.84
742.824	1207.28
743.01	1252.33
743.195	1260.52
743.38	1154.03
743.565	1104.88
743.75	1131.5
743.935	1178.61
744.12	1246.19
744.305	1197.04
744.49	1119.21
744.675	1238
744.86	1137.65
745.045	1145.84
745.23	1219.57
745.415	1127.41
745.6	1158.13
745.785	1082.35
745.97	1164.27
746.155	1258.48
746.34	1113.07
746.525	1137.65
746.71	1143.79
746.895	1188.85
747.079	1090.54
747.264	1108.98
747.449	1113.07
747.634	1086.45
747.819	1106.93
748.003	1080.3
748.188	1035.25
748.373	1000.43
748.557	984.05
748.742	1086.45
748.927	1170.41
749.111	1041.39
749.296	1004.53
749.481	984.05
749.665	1008.62
749.85	1029.1
750.034	932.85
750.219	1002.48
750.404	996.34
750.588	959.47
750.773	941.04
750.957	1080.3
751.141	904.18
751.326	898.03
751.51	1018.86
751.695	895.99
751.879	949.23
752.064	979.95
752.248	998.38
752.432	959.47
752.617	965.62
752.801	807.92
752.985	857.07
753.17	885.75
753.354	900.08
753.538	961.52
753.722	916.47
753.907	812.02
754.091	818.16
754.275	793.59
754.459	951.28
754.643	869.36
754.828	777.2
755.012	736.24
755.196	859.12
755.38	785.4
755.564	740.34
755.748	814.07
755.932	891.89
756.116	830.45
756.3	850.93
756.484	822.26
756.668	769.01
756.852	844.79
757.036	779.25
757.22	801.78
757.404	719.86
757.588	726
757.772	746.48
757.956	750.58
758.14	726
758.323	730.1
758.507	707.57
758.691	809.97
758.875	762.87
759.059	697.33
759.242	654.33
759.426	723.96
759.61	715.77
759.794	713.72
759.977	672.76
760.161	721.91
760.345	717.81
760.528	658.42
760.712	697.33
760.895	693.24
761.079	697.33
761.263	666.61
761.446	607.22
761.63	730.1
761.813	693.24
761.997	664.57
762.18	670.71
762.364	683
762.547	674.81
762.731	615.41
762.914	586.74
763.098	623.61
763.281	607.22
763.464	623.61
763.648	615.41
763.831	574.46
764.015	674.81
764.198	580.6
764.381	637.94
764.564	601.08
764.748	674.81
764.931	484.34
765.114	605.17
765.297	582.65
765.481	519.16
765.664	578.55
765.847	551.93
766.03	629.75
766.213	560.12
766.397	609.27
766.58	547.83
766.763	654.33
766.946	594.93
767.129	574.46
767.312	498.68
767.495	584.7
767.678	498.68
767.861	617.46
768.044	666.61
768.227	506.87
768.41	523.26
768.593	553.98
768.776	502.78
768.959	566.26
769.142	590.84
769.324	584.7
769.507	584.7
769.69	547.83
769.873	521.21
770.056	459.77
770.239	498.68
770.421	441.34
770.604	531.45
770.787	508.92
770.97	556.02
771.152	496.63
771.335	533.5
771.518	488.44
771.7	519.16
771.883	568.31
772.066	584.7
772.248	508.92
772.431	474.1
772.613	549.88
772.796	494.58
772.978	439.29
773.161	476.15
773.343	508.92
773.526	435.19
773.708	519.16
773.891	410.62
774.073	441.34
774.256	396.28
774.438	492.54
774.621	449.53
774.803	498.68
774.985	392.19
775.168	461.82
775.35	412.67
775.532	525.3
775.715	465.91
775.897	408.57
776.079	404.47
776.261	418.81
776.444	441.34
776.626	338.94
776.808	504.82
776.99	461.82
777.173	429.05
777.355	396.28
777.537	400.38
777.719	336.89
777.901	345.08
778.083	394.23
778.265	363.51
778.447	404.47
778.629	394.23
778.811	343.03
778.993	318.46
779.175	383.99
779.357	437.24
779.539	383.99
779.721	400.38
779.903	334.84
780.085	392.19
780.267	449.53
780.449	330.75
780.631	353.27
780.812	482.3
780.994	312.32
781.176	357.37
781.358	306.17
781.54	324.6
781.721	422.91
781.903	316.41
782.085	320.51
782.267	306.17
782.448	283.64
782.63	347.13
782.812	293.88
782.993	295.93
783.175	334.84
783.357	261.12
783.538	277.5
783.72	295.93
783.901	240.64
784.083	375.8
784.264	302.08
784.446	312.32
784.627	195.58
784.809	304.12
784.99	289.79
785.172	287.74
785.353	234.49
785.535	355.32
785.716	302.08
785.897	214.01
786.079	203.77
786.26	259.07
786.441	340.99
786.623	271.36
786.804	302.08
786.985	250.88
787.167	261.12
787.348	275.45
787.529	265.21
787.71	259.07
787.891	252.92
788.073	199.68
788.254	236.54
788.435	275.45
788.616	228.35
788.797	293.88
788.978	230.4
789.159	211.96
789.34	236.54
789.522	160.77
789.703	275.45
789.884	185.34
790.065	246.78
790.246	195.58
790.427	185.34
790.607	183.29
790.788	259.07
790.969	175.1
791.15	246.78
791.331	203.77
791.512	214.01
791.693	74.75
791.874	224.25
792.054	240.64
792.235	209.92
792.416	214.01
792.597	195.58
792.778	148.48
792.958	201.72
793.139	164.86
793.32	150.53
793.5	179.2
793.681	244.73
793.862	189.44
794.042	138.24
794.223	138.24
794.404	177.15
794.584	230.4
794.765	193.53
794.945	97.28
795.126	107.52
795.306	205.82
795.487	211.96
795.667	160.77
795.848	146.43
796.028	162.81
796.209	209.92
796.389	93.18
796.57	146.43
796.75	164.86
796.93	203.77
797.111	222.2
797.291	187.39
797.471	216.06
797.652	171.01
797.832	140.29
798.012	148.48
798.192	128
798.373	138.24
798.553	148.48
798.733	162.81
798.913	154.62
799.093	140.29
799.274	115.71
799.454	162.81
799.634	125.95
799.814	183.29
799.994	109.57
800.174	197.63
800.354	132.09
800.534	146.43
800.714	140.29
800.894	148.48
801.074	89.09
801.254	107.52
801.434	72.7
801.614	173.05
801.794	82.94
801.974	381.95
802.154	107.52
802.334	162.81
802.514	87.04
802.693	191.49
802.873	152.57
803.053	113.66
803.233	109.57
803.413	132.09
803.592	97.28
803.772	150.53
803.952	95.23
804.131	130.05
804.311	107.52
804.491	164.86
804.67	37.89
804.85	115.71
805.03	117.76
805.209	158.72
805.389	93.18
805.568	99.33
805.748	195.58
805.928	101.37
806.107	111.61
806.287	111.61
806.466	115.71
806.646	39.94
806.825	41.98
807.004	103.42
807.184	44.03
807.363	148.48
807.543	74.75
807.722	101.37
807.901	148.48
808.081	154.62
808.26	119.81
808.439	82.94
808.619	50.18
808.798	82.94
808.977	60.42
809.156	136.19
809.336	50.18
809.515	99.33
809.694	39.94
809.873	111.61
810.052	123.9
810.231	111.61
810.411	50.18
810.59	138.24
810.769	115.71
810.948	105.47
811.127	74.75
811.306	99.33
811.485	195.58
811.664	54.27
811.843	76.8
812.022	97.28
812.201	37.89
812.38	115.71
812.559	48.13
812.737	121.85
812.916	72.7
813.095	101.37
813.274	54.27
813.453	101.37
813.632	150.53
813.811	119.81
813.989	29.7
814.168	80.89
814.347	87.04
814.526	15.36
814.704	78.85
814.883	48.13
815.062	52.22
815.24	62.46
815.419	41.98
815.598	29.7
815.776	105.47
815.955	39.94
816.133	101.37
816.312	138.24
816.49	105.47
816.669	111.61
816.847	121.85
817.026	101.37
817.204	60.42
817.383	68.61
817.561	74.75
817.74	95.23
817.918	101.37
818.097	132.09
818.275	33.79
818.453	48.13
818.632	101.37
818.81	130.05
818.988	52.22
819.167	48.13
819.345	-15.36
819.523	132.09
819.701	66.56
819.879	121.85
820.058	50.18
820.236	39.94
820.414	37.89
820.592	64.51
820.77	72.7
820.948	1.02
821.127	97.28
821.305	41.98
821.483	15.36
821.661	105.47
821.839	52.22
822.017	37.89
822.195	52.22
822.373	125.95
822.551	87.04
822.729	105.47
822.907	78.85
823.085	91.13
823.262	35.84
823.44	107.52
823.618	31.74
823.796	50.18
823.974	93.18
824.152	-7.17
824.329	48.13
824.507	52.22
824.685	119.81
824.863	62.46
825.04	48.13
825.218	99.33
825.396	-62.46
825.574	37.89
825.751	-5.12
825.929	146.43
826.107	72.7
826.284	68.61
826.462	11.26
826.639	37.89
826.817	56.32
826.994	19.46
827.172	87.04
827.349	66.56
827.527	15.36
827.704	66.56
827.882	9.22
828.059	121.85
828.237	44.03
828.414	41.98
828.591	13.31
828.769	107.52
828.946	-13.31
829.124	33.79
829.301	99.33
829.478	29.7
829.655	17.41
829.833	27.65
830.01	-1.02
830.187	105.47
830.364	25.6
830.542	17.41
830.719	80.89
830.896	56.32
831.073	62.46
831.25	41.98
831.427	41.98
831.604	31.74
831.782	35.84
831.959	39.94
832.136	39.94
832.313	105.47
832.49	56.32
832.667	62.46
832.844	46.08
833.021	39.94
833.198	-15.36
833.374	89.09
833.551	-31.74
833.728	37.89
833.905	23.55
834.082	5.12
834.259	23.55
834.436	66.56
834.612	-1.02
834.789	107.52
834.966	-7.17
835.143	23.55
835.319	-3.07
835.496	35.84
835.673	-21.5
835.85	58.37
836.026	82.94
836.203	17.41
836.38	-5.12
836.556	78.85
836.733	15.36
836.909	17.41
837.086	17.41
837.262	-1.02
837.439	78.85
837.616	-3.07
837.792	1.02
837.968	52.22
838.145	1.02
838.321	64.51
838.498	25.6
838.674	23.55
838.851	-13.31
839.027	9.22
839.203	78.85
839.38	72.7
839.556	27.65
839.732	-1.02
839.909	-37.89
840.085	31.74
840.261	62.46
840.437	-23.55
840.614	68.61
840.79	82.94
840.966	99.33
841.142	-1.02
841.318	19.46
841.494	33.79
841.671	-5.12
841.847	93.18
842.023	15.36
842.199	48.13
842.375	66.56
842.551	-9.22
842.727	31.74
842.903	31.74
843.079	37.89
843.255	60.42
843.431	35.84
843.607	52.22
843.783	39.94
843.959	31.74
844.134	1.02
844.31	33.79
844.486	29.7
844.662	72.7
844.838	35.84
845.013	82.94
845.189	17.41
845.365	5.12
845.541	5.12
845.716	-9.22
845.892	21.5
846.068	15.36
846.244	-25.6
846.419	105.47
846.595	-103.42
846.77	11.26
846.946	50.18
847.122	44.03
847.297	72.7
847.473	17.41
847.648	91.13
847.824	-9.22
847.999	1.02
848.175	39.94
848.35	-3.07
848.526	64.51
848.701	54.27
848.876	-15.36
849.052	68.61
849.227	-25.6
849.403	25.6
849.578	23.55
849.753	64.51
849.929	31.74
850.104	-29.7
850.279	-25.6
850.454	21.5
850.63	33.79
850.805	72.7
850.98	17.41
851.155	-35.84
851.33	82.94
851.505	5.12
851.681	33.79
851.856	-23.55
852.031	-3.07
852.206	23.55
852.381	33.79
852.556	19.46
852.731	50.18
852.906	46.08
853.081	-9.22
853.256	52.22
853.431	64.51
853.606	-13.31
853.781	23.55
853.956	-78.85
854.131	37.89
854.305	-11.26
854.48	15.36
854.655	-11.26
854.83	-37.89
855.005	-7.17
855.18	37.89
855.354	13.31
855.529	23.55
855.704	-3.07
855.879	-9.22
856.053	111.61
856.228	3.07
856.403	-17.41
856.577	3.07
856.752	-74.75
856.926	33.79
857.101	-11.26
857.276	19.46
857.45	-5.12
857.625	-23.55
857.799	54.27
857.974	-25.6
858.148	-48.13
858.323	21.5
858.497	-56.32
858.672	-39.94
858.846	-23.55
859.02	-11.26
859.195	1.02
859.369	27.65
859.543	17.41
859.718	5.12
859.892	7.17
860.066	50.18
860.241	-1.02
860.415	25.6
860.589	3.07
860.763	76.8
860.938	21.5
861.112	39.94
861.286	27.65
861.46	-44.03
861.634	9.22
861.808	41.98
861.982	13.31
862.157	29.7
862.331	5.12
862.505	19.46
862.679	3.07
862.853	33.79
863.027	-41.98
863.201	68.61
863.375	27.65
863.549	-31.74
863.722	48.13
863.896	15.36
864.07	-78.85
864.244	-9.22
864.418	1.02
864.592	15.36
864.766	54.27
864.939	-5.12
865.113	1.02
865.287	15.36
865.461	15.36
865.634	60.42
865.808	-25.6
865.982	33.79
866.156	41.98
866.329	35.84
866.503	27.65
866.676	23.55
866.85	37.89
867.024	-11.26
867.197	-35.84
867.371	-7.17
867.544	-17.41
867.718	-15.36
867.891	9.22
868.065	-9.22
868.238	23.55
868.412	-35.84
868.585	3.07
868.759	46.08
868.932	-58.37
869.105	33.79
869.279	25.6
869.452	-9.22
869.625	5.12
869.799	-56.32
869.972	-25.6
870.145	-50.18
870.319	1.02
870.492	11.26
870.665	7.17
870.838	-15.36
871.011	-3.07
871.185	35.84
871.358	-41.98
871.531	-31.74
871.704	-25.6
871.877	17.41
872.05	25.6
872.223	13.31
872.396	-41.98
872.569	13.31
872.742	15.36
872.915	-37.89
873.088	-7.17
873.261	-54.27
873.434	35.84
873.607	44.03
873.78	-31.74
873.953	-9.22
874.126	-7.17
874.299	62.46
874.471	-41.98
874.644	-25.6
874.817	-60.42
874.99	50.18
875.163	7.17
875.335	58.37
875.508	66.56
875.681	-31.74
875.853	-11.26
876.026	39.94
876.199	15.36
876.371	9.22
876.544	-62.46
876.717	21.5
876.889	13.31
877.062	17.41
877.234	60.42
877.407	11.26
877.579	7.17
877.752	33.79
877.924	17.41
878.097	50.18
878.269	21.5
878.442	-7.17
878.614	3.07
878.786	54.27
878.959	19.46
879.131	-7.17
879.303	52.22
879.476	56.32
879.648	-25.6
879.82	15.36
879.993	-48.13
880.165	37.89
880.337	-3.07
880.509	-21.5
880.681	-23.55
880.854	-19.46
881.026	11.26
881.198	7.17
881.37	-56.32
881.542	-25.6
881.714	-25.6
881.886	41.98
882.058	-35.84
882.23	-11.26
882.402	-82.94
882.574	-60.42
882.746	-33.79
882.918	52.22
883.09	3.07
883.262	52.22
883.434	50.18
883.606	-23.55
883.778	23.55
883.95	19.46
884.122	-15.36
884.293	7.17
884.465	-3.07
884.637	-3.07
884.809	-33.79
884.98	33.79
885.152	-68.61
885.324	23.55
885.496	3.07
885.667	50.18
885.839	52.22
886.011	9.22
886.182	-9.22
886.354	41.98
886.525	62.46
886.697	15.36
886.869	-56.32
887.04	-37.89
887.212	15.36
887.383	7.17
887.555	13.31
887.726	17.41
887.897	5.12
888.069	-33.79
888.24	-21.5
888.412	-37.89
888.583	62.46
888.754	-41.98
888.926	-23.55
889.097	-21.5
889.268	-78.85
889.44	-19.46
889.611	-31.74
889.782	-5.12
889.953	-19.46
890.125	7.17
890.296	-44.03
890.467	56.32
890.638	25.6
890.809	58.37
890.98	-13.31
891.151	48.13
891.323	46.08
891.494	-33.79
891.665	11.26
891.836	-1.02
892.007	-9.22
892.178	-1.02
892.349	35.84
892.52	7.17
892.691	7.17
892.862	-46.08
893.032	7.17
893.203	-17.41
893.374	-56.32
893.545	-15.36
893.716	-13.31
893.887	121.85
894.057	-33.79
894.228	78.85
894.399	-50.18
894.57	-15.36
894.74	-66.56
894.911	17.41
895.082	19.46
895.253	25.6
895.423	-23.55
895.594	31.74
895.764	-21.5
895.935	9.22
896.106	31.74
896.276	23.55
896.447	25.6
896.617	-11.26
896.788	-60.42
896.958	68.61
897.129	-5.12
897.299	23.55
897.47	33.79
897.64	-13.31
897.81	-62.46
897.981	-31.74
898.151	-17.41
898.322	-17.41
898.492	46.08
898.662	37.89
898.832	-25.6
899.003	-29.7
899.173	76.8
899.343	-52.22
899.513	23.55
