Data from USB4F104151__74__12-59-41-042.txt Node

Date: Fri Mar 14 12:59:41 EDT 2025
User: louis
Spectrometer: USB4F10415
Trigger mode: 4
Integration Time (sec): 1.000000E-2
Scans to average: 1
Electric dark correction enabled: true
Nonlinearity correction enabled: false
Boxcar width: 0
XAxis mode: Wavelengths
Number of Pixels in Spectrum: 3648
>>>>>Begin Spectral Data<<<<<
178.204	-38.06
178.424	-38.06
178.644	-38.06
178.864	-74.92
179.084	-46.25
179.304	-50.35
179.524	-33.96
179.744	35.67
179.964	-27.82
180.184	31.57
180.404	-27.82
180.624	35.67
180.844	0.85
181.064	-48.3
181.283	39.76
181.503	25.43
181.723	19.29
181.943	-17.58
182.163	31.57
182.383	-3.24
182.602	-9.39
182.822	-7.34
183.042	41.81
183.262	2.9
183.482	50
183.701	27.48
183.921	52.05
184.141	-48.3
184.361	15.19
184.58	-38.06
184.8	19.29
185.02	19.29
185.239	13.14
185.459	41.81
185.679	58.2
185.898	-31.91
186.118	9.05
186.338	-33.96
186.557	56.15
186.777	-38.06
186.997	-58.54
187.216	19.29
187.436	-19.63
187.655	0.85
187.875	82.77
188.095	29.52
188.314	72.53
188.534	21.33
188.753	2.9
188.973	39.76
189.192	-50.35
189.412	39.76
189.631	17.24
189.851	4.95
190.07	-29.87
190.29	13.14
190.509	-42.15
190.729	-25.77
190.948	82.77
191.168	43.86
191.387	-15.53
191.607	-62.63
191.826	-54.44
192.045	31.57
192.265	-38.06
192.484	-17.58
192.704	17.24
192.923	-21.67
193.142	74.58
193.362	-52.39
193.581	-23.72
193.8	60.24
194.02	-19.63
194.239	-62.63
194.458	15.19
194.678	11.09
194.897	2.9
195.116	-38.06
195.335	11.09
195.555	95.06
195.774	41.81
195.993	-48.3
196.212	0.85
196.432	-23.72
196.651	-3.24
196.87	47.96
197.089	17.24
197.308	-58.54
197.528	68.44
197.747	-58.54
197.966	25.43
198.185	-15.53
198.404	43.86
198.623	25.43
198.842	4.95
199.062	-7.34
199.281	33.62
199.5	7
199.719	-50.35
199.938	31.57
200.157	43.86
200.376	25.43
200.595	-27.82
200.814	-46.25
201.033	39.76
201.252	19.29
201.471	60.24
201.69	60.24
201.909	39.76
202.128	-23.72
202.347	-25.77
202.566	11.09
202.785	52.05
203.004	-33.96
203.223	4.95
203.442	-17.58
203.661	-9.39
203.879	23.38
204.098	13.14
204.317	-31.91
204.536	-9.39
204.755	-5.29
204.974	23.38
205.193	-19.63
205.411	13.14
205.63	-58.54
205.849	31.57
206.068	21.33
206.287	15.19
206.505	-33.96
206.724	15.19
206.943	15.19
207.162	2.9
207.381	-42.15
207.599	-3.24
207.818	-21.67
208.037	7
208.255	21.33
208.474	19.29
208.693	-23.72
208.911	37.72
209.13	95.06
209.349	-40.11
209.567	-46.25
209.786	19.29
210.005	9.05
210.223	58.2
210.442	39.76
210.661	31.57
210.879	-17.58
211.098	52.05
211.316	47.96
211.535	78.68
211.753	-119.98
211.972	-29.87
212.191	-13.48
212.409	-7.34
212.628	-1.19
212.846	-46.25
213.065	31.57
213.283	31.57
213.502	-23.72
213.72	0.85
213.938	64.34
214.157	21.33
214.375	27.48
214.594	37.72
214.812	0.85
215.031	-7.34
215.249	17.24
215.467	62.29
215.686	-48.3
215.904	2.9
216.122	-31.91
216.341	23.38
216.559	72.53
216.778	35.67
216.996	23.38
217.214	0.85
217.432	21.33
217.651	27.48
217.869	2.9
218.087	19.29
218.306	60.24
218.524	27.48
218.742	-5.29
218.96	74.58
219.179	-36.01
219.397	-64.68
219.615	33.62
219.833	-7.34
220.051	21.33
220.27	9.05
220.488	17.24
220.706	17.24
220.924	-15.53
221.142	-17.58
221.36	31.57
221.578	43.86
221.796	82.77
222.015	11.09
222.233	-29.87
222.451	9.05
222.669	-1.19
222.887	37.72
223.105	-3.24
223.323	-15.53
223.541	-48.3
223.759	-40.11
223.977	-9.39
224.195	-23.72
224.413	74.58
224.631	15.19
224.849	-36.01
225.067	41.81
225.285	29.52
225.503	-17.58
225.721	33.62
225.939	13.14
226.157	-31.91
226.375	15.19
226.592	-44.2
226.81	-42.15
227.028	2.9
227.246	-42.15
227.464	-31.91
227.682	-11.43
227.9	2.9
228.117	7
228.335	2.9
228.553	17.24
228.771	-54.44
228.989	58.2
229.206	-52.39
229.424	-7.34
229.642	0.85
229.86	-64.68
230.077	129.88
230.295	13.14
230.513	17.24
230.731	-17.58
230.948	-33.96
231.166	-91.31
231.384	15.19
231.601	2.9
231.819	52.05
232.037	-21.67
232.254	58.2
232.472	-60.59
232.689	15.19
232.907	-11.43
233.125	-13.48
233.342	35.67
233.56	-3.24
233.777	-27.82
233.995	37.72
234.213	-29.87
234.43	-21.67
234.648	-21.67
234.865	25.43
235.083	41.81
235.3	47.96
235.518	45.91
235.735	0.85
235.953	-17.58
236.17	31.57
236.388	66.39
236.605	54.1
236.822	-42.15
237.04	-5.29
237.257	-46.25
237.475	-15.53
237.692	17.24
237.909	25.43
238.127	21.33
238.344	37.72
238.562	17.24
238.779	-46.25
238.996	4.95
239.214	58.2
239.431	-21.67
239.648	-46.25
239.865	72.53
240.083	25.43
240.3	-54.44
240.517	-7.34
240.735	19.29
240.952	-15.53
241.169	17.24
241.386	47.96
241.603	19.29
241.821	4.95
242.038	-48.3
242.255	74.58
242.472	-72.87
242.689	-5.29
242.907	90.96
243.124	-36.01
243.341	-33.96
243.558	-17.58
243.775	17.24
243.992	7
244.209	74.58
244.426	56.15
244.643	56.15
244.86	-25.77
245.078	45.91
245.295	-3.24
245.512	2.9
245.729	52.05
245.946	7
246.163	-3.24
246.38	21.33
246.597	64.34
246.814	47.96
247.031	35.67
247.248	-7.34
247.464	-19.63
247.681	21.33
247.898	-56.49
248.115	15.19
248.332	27.48
248.549	-68.78
248.766	54.1
248.983	80.72
249.2	76.63
249.417	-3.24
249.633	52.05
249.85	-40.11
250.067	-70.83
250.284	17.24
250.501	-64.68
250.717	56.15
250.934	-7.34
251.151	7
251.368	-36.01
251.585	17.24
251.801	-7.34
252.018	-40.11
252.235	35.67
252.451	21.33
252.668	31.57
252.885	-36.01
253.102	-17.58
253.318	60.24
253.535	58.2
253.752	-91.31
253.968	-52.39
254.185	64.34
254.401	4.95
254.618	23.38
254.835	54.1
255.051	50
255.268	19.29
255.484	64.34
255.701	-50.35
255.917	17.24
256.134	2.9
256.351	-15.53
256.567	45.91
256.784	27.48
257	-7.34
257.217	15.19
257.433	66.39
257.65	-33.96
257.866	33.62
258.082	-1.19
258.299	13.14
258.515	-21.67
258.732	-7.34
258.948	31.57
259.165	39.76
259.381	-48.3
259.597	23.38
259.814	-33.96
260.03	0.85
260.246	-29.87
260.463	-19.63
260.679	45.91
260.895	-50.35
261.112	-7.34
261.328	11.09
261.544	-17.58
261.761	27.48
261.977	9.05
262.193	23.38
262.409	-23.72
262.626	-31.91
262.842	2.9
263.058	33.62
263.274	27.48
263.49	47.96
263.707	9.05
263.923	60.24
264.139	50
264.355	-9.39
264.571	31.57
264.787	-38.06
265.004	54.1
265.22	21.33
265.436	0.85
265.652	9.05
265.868	66.39
266.084	19.29
266.3	-21.67
266.516	-38.06
266.732	19.29
266.948	-46.25
267.164	9.05
267.38	31.57
267.596	66.39
267.812	-36.01
268.028	-27.82
268.244	-11.43
268.46	-17.58
268.676	-7.34
268.892	15.19
269.108	4.95
269.324	70.48
269.54	2.9
269.756	58.2
269.972	-3.24
270.188	27.48
270.403	-62.63
270.619	72.53
270.835	11.09
271.051	-17.58
271.267	37.72
271.483	-38.06
271.698	52.05
271.914	-9.39
272.13	25.43
272.346	-1.19
272.562	15.19
272.777	-7.34
272.993	-50.35
273.209	47.96
273.425	37.72
273.64	-66.73
273.856	-29.87
274.072	23.38
274.287	-27.82
274.503	52.05
274.719	-1.19
274.934	15.19
275.15	56.15
275.366	41.81
275.581	66.39
275.797	-25.77
276.012	-15.53
276.228	23.38
276.444	-25.77
276.659	9.05
276.875	19.29
277.09	-7.34
277.306	4.95
277.521	76.63
277.737	-1.19
277.952	19.29
278.168	41.81
278.383	37.72
278.599	0.85
278.814	72.53
279.03	-1.19
279.245	33.62
279.461	37.72
279.676	31.57
279.892	-15.53
280.107	66.39
280.322	58.2
280.538	-33.96
280.753	-29.87
280.969	-66.73
281.184	39.76
281.399	-72.87
281.615	76.63
281.83	-3.24
282.045	13.14
282.26	-38.06
282.476	-23.72
282.691	58.2
282.906	-31.91
283.122	-13.48
283.337	-7.34
283.552	25.43
283.767	-44.2
283.983	-7.34
284.198	-15.53
284.413	37.72
284.628	-60.59
284.843	58.2
285.058	50
285.274	-15.53
285.489	-54.44
285.704	29.52
285.919	39.76
286.134	62.29
286.349	-15.53
286.564	86.87
286.779	37.72
286.995	15.19
287.21	-17.58
287.425	19.29
287.64	33.62
287.855	-5.29
288.07	58.2
288.285	9.05
288.5	78.68
288.715	52.05
288.93	4.95
289.145	33.62
289.36	56.15
289.575	21.33
289.79	9.05
290.004	-13.48
290.219	35.67
290.434	23.38
290.649	13.14
290.864	0.85
291.079	-29.87
291.294	54.1
291.509	90.96
291.724	27.48
291.938	52.05
292.153	50
292.368	-5.29
292.583	-25.77
292.798	-23.72
293.012	56.15
293.227	0.85
293.442	-29.87
293.657	9.05
293.871	31.57
294.086	-85.16
294.301	39.76
294.516	-5.29
294.73	37.72
294.945	31.57
295.16	64.34
295.374	50
295.589	-33.96
295.804	9.05
296.018	131.92
296.233	39.76
296.447	56.15
296.662	9.05
296.877	76.63
297.091	-23.72
297.306	9.05
297.52	-40.11
297.735	103.25
297.949	21.33
298.164	33.62
298.378	7
298.593	17.24
298.807	-31.91
299.022	27.48
299.236	-13.48
299.451	25.43
299.665	-17.58
299.88	29.52
300.094	-13.48
300.309	47.96
300.523	70.48
300.737	27.48
300.952	0.85
301.166	76.63
301.381	-9.39
301.595	70.48
301.809	54.1
302.024	-48.3
302.238	-66.73
302.452	74.58
302.667	25.43
302.881	60.24
303.095	-13.48
303.309	-44.2
303.524	7
303.738	-33.96
303.952	66.39
304.166	25.43
304.381	45.91
304.595	9.05
304.809	21.33
305.023	-31.91
305.237	-15.53
305.452	-27.82
305.666	66.39
305.88	-72.87
306.094	25.43
306.308	37.72
306.522	-36.01
306.736	-11.43
306.95	78.68
307.164	52.05
307.379	-50.35
307.593	29.52
307.807	66.39
308.021	50
308.235	13.14
308.449	-11.43
308.663	-3.24
308.877	88.92
309.091	7
309.305	-38.06
309.519	15.19
309.733	15.19
309.947	19.29
310.161	35.67
310.374	-31.91
310.588	39.76
310.802	-1.19
311.016	-17.58
311.23	-23.72
311.444	-21.67
311.658	31.57
311.872	-3.24
312.085	-29.87
312.299	-42.15
312.513	4.95
312.727	-33.96
312.941	27.48
313.154	-3.24
313.368	-23.72
313.582	-46.25
313.796	39.76
314.009	35.67
314.223	52.05
314.437	80.72
314.651	-3.24
314.864	-23.72
315.078	2.9
315.292	2.9
315.505	-46.25
315.719	62.29
315.933	-17.58
316.146	37.72
316.36	56.15
316.573	21.33
316.787	-5.29
317.001	29.52
317.214	19.29
317.428	25.43
317.641	-15.53
317.855	-17.58
318.068	-3.24
318.282	41.81
318.495	13.14
318.709	66.39
318.922	15.19
319.136	-46.25
319.349	-46.25
319.563	-87.21
319.776	-64.68
319.99	2.9
320.203	-13.48
320.417	35.67
320.63	19.29
320.843	23.38
321.057	25.43
321.27	33.62
321.483	-72.87
321.697	19.29
321.91	62.29
322.124	56.15
322.337	15.19
322.55	17.24
322.763	-33.96
322.977	25.43
323.19	64.34
323.403	47.96
323.617	52.05
323.83	-44.2
324.043	-17.58
324.256	80.72
324.469	50
324.683	-9.39
324.896	-17.58
325.109	54.1
325.322	29.52
325.535	47.96
325.748	15.19
325.962	23.38
326.175	15.19
326.388	19.29
326.601	19.29
326.814	-7.34
327.027	-42.15
327.24	66.39
327.453	13.14
327.666	-11.43
327.879	4.95
328.092	33.62
328.305	15.19
328.518	9.05
328.731	23.38
328.944	97.11
329.157	-13.48
329.37	-7.34
329.583	-11.43
329.796	-13.48
330.009	-5.29
330.222	19.29
330.435	25.43
330.648	-1.19
330.861	25.43
331.073	-48.3
331.286	21.33
331.499	-11.43
331.712	-15.53
331.925	17.24
332.138	-9.39
332.35	21.33
332.563	19.29
332.776	60.24
332.989	-3.24
333.202	7
333.414	27.48
333.627	-60.59
333.84	-42.15
334.053	52.05
334.265	-29.87
334.478	-5.29
334.691	-72.87
334.903	-23.72
335.116	39.76
335.329	-19.63
335.541	19.29
335.754	17.24
335.966	56.15
336.179	17.24
336.392	54.1
336.604	-21.67
336.817	-21.67
337.029	80.72
337.242	0.85
337.454	35.67
337.667	-15.53
337.88	37.72
338.092	78.68
338.305	-1.19
338.517	72.53
338.729	31.57
338.942	11.09
339.154	15.19
339.367	-1.19
339.579	41.81
339.792	-25.77
340.004	31.57
340.217	76.63
340.429	56.15
340.641	7
340.854	37.72
341.066	25.43
341.278	-1.19
341.491	35.67
341.703	0.85
341.915	-17.58
342.128	56.15
342.34	-1.19
342.552	13.14
342.764	-5.29
342.977	-9.39
343.189	2.9
343.401	15.19
343.613	-66.73
343.826	-1.19
344.038	-36.01
344.25	21.33
344.462	-11.43
344.674	50
344.886	-29.87
345.099	27.48
345.311	-9.39
345.523	21.33
345.735	4.95
345.947	4.95
346.159	9.05
346.371	13.14
346.583	45.91
346.795	-31.91
347.007	31.57
347.219	64.34
347.431	-13.48
347.643	68.44
347.855	15.19
348.067	-38.06
348.279	-23.72
348.491	37.72
348.703	33.62
348.915	35.67
349.127	-7.34
349.339	11.09
349.551	-27.82
349.763	-19.63
349.975	58.2
350.187	43.86
350.399	-31.91
350.61	-19.63
350.822	-25.77
351.034	45.91
351.246	-15.53
351.458	-7.34
351.669	4.95
351.881	31.57
352.093	-13.48
352.305	-19.63
352.517	35.67
352.728	43.86
352.94	50
353.152	-3.24
353.363	-44.2
353.575	-17.58
353.787	66.39
353.999	2.9
354.21	-7.34
354.422	-66.73
354.633	-25.77
354.845	43.86
355.057	-31.91
355.268	103.25
355.48	-7.34
355.692	-33.96
355.903	17.24
356.115	37.72
356.326	-9.39
356.538	9.05
356.749	-58.54
356.961	50
357.172	31.57
357.384	-15.53
357.595	23.38
357.807	9.05
358.018	-38.06
358.23	-23.72
358.441	23.38
358.653	56.15
358.864	19.29
359.075	31.57
359.287	7
359.498	2.9
359.709	25.43
359.921	-13.48
360.132	23.38
360.344	-1.19
360.555	-1.19
360.766	33.62
360.977	43.86
361.189	-25.77
361.4	-3.24
361.611	31.57
361.823	50
362.034	25.43
362.245	4.95
362.456	-33.96
362.667	-50.35
362.879	2.9
363.09	105.3
363.301	2.9
363.512	-29.87
363.723	-15.53
363.935	-7.34
364.146	-13.48
364.357	-3.24
364.568	19.29
364.779	33.62
364.99	66.39
365.201	-13.48
365.412	-23.72
365.623	86.87
365.834	15.19
366.045	84.82
366.256	-27.82
366.467	17.24
366.678	-38.06
366.889	21.33
367.1	107.35
367.311	-15.53
367.522	41.81
367.733	-1.19
367.944	-15.53
368.155	0.85
368.366	35.67
368.577	-7.34
368.788	25.43
368.999	-17.58
369.209	-42.15
369.42	-9.39
369.631	11.09
369.842	-58.54
370.053	9.05
370.264	76.63
370.474	43.86
370.685	-13.48
370.896	54.1
371.107	23.38
371.317	15.19
371.528	-50.35
371.739	23.38
371.95	50
372.16	27.48
372.371	13.14
372.582	31.57
372.792	60.24
373.003	2.9
373.214	-13.48
373.424	-27.82
373.635	9.05
373.846	19.29
374.056	-13.48
374.267	15.19
374.477	4.95
374.688	13.14
374.898	17.24
375.109	52.05
375.319	-25.77
375.53	11.09
375.74	0.85
375.951	-21.67
376.161	0.85
376.372	-25.77
376.582	-5.29
376.793	-31.91
377.003	31.57
377.214	0.85
377.424	72.53
377.635	-5.29
377.845	-17.58
378.055	58.2
378.266	52.05
378.476	45.91
378.686	2.9
378.897	9.05
379.107	19.29
379.317	60.24
379.528	-27.82
379.738	23.38
379.948	11.09
380.158	58.2
380.369	-25.77
380.579	-9.39
380.789	0.85
380.999	-19.63
381.21	2.9
381.42	-1.19
381.63	-54.44
381.84	-9.39
382.05	4.95
382.261	62.29
382.471	97.11
382.681	-11.43
382.891	68.44
383.101	7
383.311	33.62
383.521	9.05
383.731	7
383.941	-11.43
384.151	27.48
384.361	2.9
384.571	58.2
384.781	109.4
384.991	25.43
385.201	99.16
385.411	39.76
385.621	37.72
385.831	-7.34
386.041	45.91
386.251	-13.48
386.461	31.57
386.671	23.38
386.881	-5.29
387.091	78.68
387.301	11.09
387.511	-3.24
387.72	33.62
387.93	-17.58
388.14	0.85
388.35	-19.63
388.56	29.52
388.769	62.29
388.979	23.38
389.189	13.14
389.399	21.33
389.609	80.72
389.818	-29.87
390.028	-44.2
390.238	33.62
390.447	-23.72
390.657	47.96
390.867	-48.3
391.076	56.15
391.286	45.91
391.496	15.19
391.705	60.24
391.915	52.05
392.125	4.95
392.334	17.24
392.544	0.85
392.753	93.01
392.963	23.38
393.172	-17.58
393.382	25.43
393.591	23.38
393.801	7
394.01	23.38
394.22	80.72
394.429	41.81
394.639	62.29
394.848	11.09
395.058	80.72
395.267	52.05
395.477	-29.87
395.686	-27.82
395.895	31.57
396.105	82.77
396.314	29.52
396.524	119.64
396.733	35.67
396.942	-33.96
397.152	-9.39
397.361	54.1
397.57	-52.39
397.78	52.05
397.989	35.67
398.198	68.44
398.407	13.14
398.617	39.76
398.826	29.52
399.035	33.62
399.244	0.85
399.453	66.39
399.663	90.96
399.872	37.72
400.081	19.29
400.29	123.73
400.499	19.29
400.708	9.05
400.917	41.81
401.127	88.92
401.336	4.95
401.545	37.72
401.754	27.48
401.963	99.16
402.172	19.29
402.381	35.67
402.59	52.05
402.799	13.14
403.008	47.96
403.217	47.96
403.426	29.52
403.635	50
403.844	35.67
404.053	70.48
404.262	86.87
404.471	43.86
404.68	19.29
404.888	27.48
405.097	-3.24
405.306	21.33
405.515	17.24
405.724	23.38
405.933	84.82
406.142	111.44
406.35	62.29
406.559	37.72
406.768	66.39
406.977	117.59
407.185	45.91
407.394	68.44
407.603	23.38
407.812	80.72
408.02	-9.39
408.229	107.35
408.438	39.76
408.646	80.72
408.855	101.2
409.064	105.3
409.272	133.97
409.481	23.38
409.69	121.68
409.898	74.58
410.107	123.73
410.315	62.29
410.524	119.64
410.733	76.63
410.941	80.72
411.15	86.87
411.358	199.51
411.567	113.49
411.775	179.03
411.984	131.92
412.192	88.92
412.401	105.3
412.609	97.11
412.818	148.31
413.026	121.68
413.234	219.99
413.443	86.87
413.651	166.74
413.86	191.31
414.068	269.14
414.276	172.88
414.485	133.97
414.693	310.1
414.901	189.27
415.11	281.43
415.318	226.13
415.526	224.08
415.734	265.04
415.943	256.85
416.151	297.81
416.359	250.71
416.567	293.71
416.776	232.27
416.984	318.29
417.192	359.25
417.4	365.39
417.608	211.79
417.817	363.34
418.025	432.97
418.233	346.96
418.441	355.15
418.649	351.06
418.857	359.25
419.065	379.73
419.273	418.64
419.481	381.78
419.689	482.13
419.897	375.63
420.105	523.09
420.313	492.37
420.521	514.89
420.729	510.8
420.937	469.84
421.145	523.09
421.353	582.48
421.561	615.24
421.769	605
421.977	635.72
422.185	684.87
422.393	695.11
422.601	598.86
422.809	635.72
423.017	746.31
423.224	715.59
423.432	641.87
423.64	871.24
423.848	801.61
424.056	828.23
424.263	887.62
424.471	920.39
424.679	858.95
424.887	865.1
425.094	998.21
425.302	1039.17
425.51	1006.41
425.718	990.02
425.925	1057.61
426.133	1024.84
426.341	1188.68
426.548	1133.38
426.756	1117
426.964	1254.21
427.171	1200.96
427.379	1391.42
427.586	1440.58
427.794	1432.38
428.001	1448.77
428.209	1547.07
428.417	1504.06
428.624	1583.93
428.832	1608.51
429.039	1604.41
429.247	1532.73
429.454	1768.25
429.662	1950.52
429.869	1768.25
430.076	1903.42
430.284	1862.46
430.491	1866.55
430.699	1987.38
430.906	1962.81
431.114	2014.01
431.321	2100.02
431.528	2114.36
431.736	2300.72
431.943	2382.64
432.15	2386.74
432.358	2431.79
432.565	2399.02
432.772	2511.66
432.979	2546.48
433.187	2546.48
433.394	2685.74
433.601	2816.81
433.808	2702.12
434.016	2775.85
434.223	2878.25
434.43	3326.75
434.637	3013.42
434.844	3291.94
435.052	3291.94
435.259	3361.57
435.466	3377.95
435.673	3259.17
435.88	3552.03
436.087	3687.2
436.294	3717.92
436.501	3615.52
436.708	3619.61
436.915	3851.03
437.122	3953.43
437.329	3904.28
437.537	4088.6
437.743	4111.13
437.95	4150.04
438.157	4315.92
438.364	4690.7
438.571	4606.74
438.778	4707.09
438.985	4854.54
439.192	4586.26
439.399	4905.74
439.606	4739.85
439.813	5094.15
440.02	5364.48
440.227	5266.18
440.433	5133.06
440.64	5436.16
440.847	5307.14
441.054	5579.52
441.261	5772.03
441.467	5806.84
441.674	5929.72
441.881	6114.04
442.088	6241.01
442.294	6021.88
442.501	6191.86
442.708	6451.95
442.914	6525.68
443.121	6898.41
443.328	6638.32
443.534	7353.06
443.741	6972.14
443.948	6978.28
444.154	7455.46
444.361	7453.41
444.568	7391.97
444.774	7398.12
444.981	7277.29
445.187	7764.7
445.394	8088.28
445.6	8014.56
445.807	8856.27
446.013	8381.14
446.22	8618.71
446.426	8764.11
446.633	8823.5
446.839	9347.78
447.046	8825.55
447.252	9407.17
447.459	9616.07
447.665	9349.83
447.871	9947.84
448.078	10154.68
448.284	9806.53
448.491	10033.85
448.697	10496.69
448.903	10730.16
449.11	10715.83
449.316	10644.15
449.522	10709.68
449.728	11037.36
449.935	10996.4
450.141	11086.51
450.347	11520.68
450.553	11018.93
450.76	10967.73
450.966	11602.6
451.172	11315.88
451.378	11801.25
451.584	11438.76
451.791	11926.18
451.997	11741.86
452.203	11991.71
452.409	11791.01
452.615	11881.12
452.821	11575.97
453.027	11496.1
453.233	11934.37
453.44	11618.98
453.646	11479.72
453.852	11885.22
454.058	11995.81
454.264	11442.85
454.47	11666.08
454.676	11590.31
454.882	11969.18
455.088	10914.48
455.294	11086.51
455.5	11274.92
455.705	11252.39
455.911	11023.02
456.117	10721.97
456.323	10572.47
456.529	9996.99
456.735	10537.65
456.941	10228.41
457.147	10066.62
457.352	9697.99
457.558	9704.13
457.764	9618.11
457.97	9497.28
458.176	9302.73
458.381	9085.64
458.587	8807.12
458.793	9067.21
458.999	8407.77
459.204	8999.63
459.41	8620.75
459.616	8059.61
459.821	8094.43
460.027	8198.87
460.233	7975.64
460.438	7629.54
460.644	7557.86
460.85	7213.8
461.055	7262.95
461.261	7125.74
461.466	6765.29
461.672	6458.1
461.878	7113.45
462.083	6402.8
462.289	6198.01
462.494	6191.86
462.7	5942.01
462.905	5782.27
463.111	6159.1
463.316	6079.22
463.522	5890.81
463.727	5978.87
463.932	6216.44
464.138	5716.73
464.343	5817.08
464.549	5634.82
464.754	5896.96
464.959	5901.05
465.165	5896.96
465.37	5679.87
465.575	5421.83
465.781	5597.95
465.986	5657.34
466.191	5622.53
466.397	5202.69
466.602	5149.45
466.807	5313.28
467.012	5313.28
467.218	5303.04
467.423	5151.49
467.628	5288.71
467.833	5534.46
468.038	5315.33
468.244	5116.68
468.449	5401.35
468.654	5116.68
468.859	5090.06
469.064	5278.47
469.269	4940.55
469.474	4809.48
469.679	5131.02
469.885	5085.96
470.09	4969.23
470.295	4856.59
470.5	4846.35
470.705	4842.25
470.91	4555.54
471.115	4684.56
471.32	4741.9
471.525	4813.58
471.73	4608.78
471.935	4555.54
472.139	4537.1
472.344	4586.26
472.549	4504.34
472.754	4338.45
472.959	4434.71
473.164	4223.76
473.369	4213.53
473.574	4418.32
473.778	4473.62
473.983	4324.12
474.188	4309.78
474.393	4088.6
474.598	4154.13
474.802	3945.24
475.007	4107.03
475.212	4031.26
475.417	3943.19
475.621	3947.29
475.826	3795.74
476.031	3793.69
476.235	3752.73
476.44	3826.46
476.645	3719.96
476.849	3652.38
477.054	3769.12
477.259	3722.01
477.463	3578.65
477.668	3535.65
477.872	3547.94
478.077	3679.01
478.282	3420.96
478.486	3433.25
478.691	3486.5
478.895	3506.98
479.1	3490.59
479.304	3400.48
479.509	3212.07
479.713	3357.47
479.918	3423.01
480.122	3293.99
480.326	3310.37
480.531	3203.88
480.735	3187.49
480.94	3277.6
481.144	3363.62
481.348	3228.45
481.553	3326.75
481.757	3144.49
481.961	3183.4
482.166	3273.51
482.37	3236.64
482.574	3154.73
482.778	3158.82
482.983	3240.74
483.187	3242.79
483.391	3248.93
483.595	3154.73
483.8	3193.64
484.004	3210.02
484.208	3210.02
484.412	3230.5
484.616	3152.68
484.821	3095.33
485.025	3066.66
485.229	3281.7
485.433	3193.64
485.637	3199.78
485.841	3169.06
486.045	3224.36
486.249	3269.41
486.453	3255.08
486.657	3302.18
486.861	3224.36
487.065	3181.35
487.269	3140.39
487.473	3164.97
487.677	3203.88
487.881	3310.37
488.085	3136.29
488.289	3261.22
488.493	3306.27
488.697	3234.6
488.901	3279.65
489.105	3271.46
489.309	3285.8
489.512	3281.7
489.716	3394.34
489.92	3285.8
490.124	3291.94
490.328	3353.38
490.531	3263.27
490.735	3398.43
490.939	3246.88
491.143	3392.29
491.346	3455.78
491.55	3304.23
491.754	3322.66
491.958	3447.58
492.161	3441.44
492.365	3300.13
492.569	3455.78
492.772	3400.48
492.976	3529.5
493.18	3533.6
493.383	3605.28
493.587	3476.26
493.79	3621.66
493.994	3619.61
494.197	3640.09
494.401	3660.57
494.605	3689.25
494.808	3810.08
495.012	3691.29
495.215	3760.92
495.419	3818.27
495.622	3879.71
495.825	3908.38
496.029	3816.22
496.232	3883.8
496.436	3992.34
496.639	4092.69
496.843	4064.02
497.046	4102.93
497.249	4139.8
497.453	4205.33
497.656	4086.55
497.859	4203.29
498.063	4203.29
498.266	4330.26
498.469	4381.46
498.673	4401.94
498.876	4440.85
499.079	4496.14
499.282	4608.78
499.485	4713.23
499.689	4780.81
499.892	4692.75
500.095	4807.44
500.298	4926.22
500.501	4846.35
500.705	4940.55
500.908	4989.71
501.111	5083.91
501.314	5118.73
501.517	5346.05
501.72	5198.6
501.923	5196.55
502.126	5227.27
502.329	5563.14
502.532	5389.06
502.735	5405.44
502.938	5835.52
503.141	5575.42
503.344	5749.5
503.547	5720.83
503.75	6013.69
503.953	5952.25
504.156	6028.03
504.359	6193.91
504.562	6148.86
504.765	6337.27
504.968	6578.93
505.17	6535.92
505.373	6462.19
505.576	6693.62
505.779	6685.42
505.982	6808.3
506.185	6935.28
506.387	6736.62
506.59	7068.39
506.793	7205.61
506.996	7131.88
507.198	7330.53
507.401	7277.29
507.604	7564
507.807	7701.22
508.009	7535.33
508.212	7688.93
508.415	7813.85
508.617	8192.73
508.82	7957.21
509.022	8067.8
509.225	8176.34
509.428	8237.78
509.63	8243.93
509.833	8395.48
510.035	8303.32
510.238	8512.21
510.44	8911.57
510.643	8792.78
510.845	8807.12
511.048	9061.07
511.25	9151.18
511.453	9247.43
511.655	9532.1
511.858	9392.84
512.06	9378.5
512.262	9640.64
512.465	9581.25
512.667	9984.7
512.87	9876.16
513.072	9929.41
513.274	10263.22
513.477	10502.84
513.679	10480.31
513.881	10470.07
514.084	10785.46
514.286	10699.44
514.488	10844.85
514.69	10988.21
514.893	11160.24
515.095	11100.84
515.297	11324.07
515.499	11213.48
515.701	11551.4
515.904	11561.64
516.106	11666.08
516.308	11917.98
516.51	12104.35
516.712	12100.25
516.914	12321.43
517.116	12565.14
517.318	12475.03
517.52	12559
517.722	12626.58
517.925	12882.58
518.127	12839.57
518.329	12980.88
518.531	13097.61
518.733	13456.01
518.935	13480.58
519.136	13447.82
519.338	13712
519.54	13757.06
519.742	13650.57
519.944	14047.87
520.146	14248.57
520.348	14320.25
520.55	14498.42
520.752	14348.92
520.954	14801.52
521.155	14715.51
521.357	14879.35
521.559	15147.63
521.761	15043.18
521.963	15108.72
522.164	15389.29
522.366	15245.93
522.568	15436.39
522.77	15749.73
522.971	16073.31
523.173	15950.43
523.375	16118.37
523.576	16046.69
523.778	15854.18
523.98	16321.12
524.181	16368.22
524.383	16487
524.584	16818.77
524.786	16603.74
524.988	16562.78
525.189	16912.98
525.391	16953.94
525.592	16876.12
525.794	17211.98
525.995	17443.4
526.197	17128.02
526.398	17289.81
526.6	17644.1
526.801	17394.25
527.003	17560.14
527.204	17887.81
527.406	18000.45
527.607	18235.97
527.808	17717.83
528.01	17646.15
528.211	17877.57
528.412	17967.68
528.614	18094.66
528.815	18340.41
529.016	18516.54
529.218	18278.97
529.419	18364.99
529.62	18563.64
529.822	18461.24
530.023	18739.77
530.224	18455.1
530.425	18678.33
530.626	18334.27
530.828	18643.51
531.029	18719.29
531.23	18496.06
531.431	18399.8
531.632	18618.94
531.833	18833.97
532.035	18604.6
532.236	18893.37
532.437	19079.73
532.638	18934.32
532.839	19159.6
533.04	18934.32
533.241	18745.91
533.442	19343.92
533.643	18852.41
533.844	19071.54
534.045	18784.82
534.246	18811.45
534.447	19077.68
534.648	18823.73
534.849	19049.01
535.05	19028.53
535.251	19210.8
535.451	19147.31
535.652	19110.45
535.853	19079.73
536.054	19028.53
536.255	19114.55
536.456	18856.5
536.657	19251.76
536.857	18915.89
537.058	19167.79
537.259	19214.9
537.46	19167.79
537.66	19143.22
537.861	19132.98
538.062	18993.72
538.263	19407.41
538.463	19044.91
538.664	19268.14
538.865	18993.72
539.065	19272.24
539.266	18915.89
539.466	19294.77
539.667	19083.83
539.868	19229.23
540.068	19493.42
540.269	18922.04
540.469	19276.34
540.67	19096.11
540.87	19083.83
541.071	18932.28
541.271	19218.99
541.472	19208.75
541.672	18985.52
541.873	19216.94
542.073	18922.04
542.274	19296.81
542.474	19122.74
542.675	19049.01
542.875	19204.66
543.075	19092.02
543.276	19012.15
543.476	19124.79
543.676	19141.17
543.877	19102.26
544.077	19120.69
544.277	19167.79
544.478	19055.15
544.678	19104.31
544.878	19061.3
545.078	19059.25
545.279	18661.94
545.479	19051.06
545.679	19182.13
545.879	18950.71
546.079	19280.43
546.28	18917.94
546.48	18764.34
546.68	19044.91
546.88	19329.58
547.08	19206.7
547.28	19014.2
547.48	18793.01
547.68	19208.75
547.88	18997.81
548.081	18903.6
548.281	19051.06
548.481	18750.01
548.681	19345.97
548.881	19137.07
549.081	19073.59
549.28	18989.62
549.48	19126.83
549.68	19110.45
549.88	19216.94
550.08	19034.67
550.28	19018.29
550.48	18905.65
550.68	19085.87
550.88	18926.13
551.08	18958.9
551.279	18969.14
551.479	18852.41
551.679	18926.13
551.879	18856.5
552.079	19251.76
552.278	18743.86
552.478	19235.38
552.678	19057.2
552.878	19128.88
553.077	18831.93
553.277	18733.62
553.477	19020.34
553.676	18805.3
553.876	18801.21
554.076	18827.83
554.275	18917.94
554.475	18651.7
554.674	19016.24
554.874	19028.53
555.074	18688.57
555.273	18731.58
555.473	18786.87
555.672	19120.69
555.872	18747.96
556.071	18647.61
556.271	18860.6
556.47	18821.69
556.67	18575.93
556.869	18455.1
557.068	18868.79
557.268	18532.92
557.467	18592.31
557.667	18715.19
557.866	18745.91
558.065	18367.04
558.265	18592.31
558.464	18375.23
558.663	18639.42
558.863	18381.37
559.062	18774.58
559.261	18233.92
559.461	18463.29
559.66	18195.01
559.859	18242.11
560.058	18131.52
560.258	18543.16
560.457	18291.26
560.656	18291.26
560.855	18061.89
561.054	18252.35
561.253	18274.88
561.453	18233.92
561.652	18068.03
561.851	18178.62
562.05	18209.34
562.249	18047.55
562.448	18221.63
562.647	18074.18
562.846	17967.68
563.045	18065.99
563.244	17689.16
563.443	18037.31
563.642	17650.25
563.841	17887.81
564.04	17568.33
564.239	17828.42
564.438	17570.38
564.637	17633.86
564.836	17660.49
565.035	17336.91
565.234	17687.11
565.432	17422.92
565.631	17613.38
565.83	17447.5
566.029	17695.3
566.228	17384.01
566.427	17437.26
566.625	17209.93
566.824	17271.37
567.023	17302.09
567.222	16915.03
567.42	17349.2
567.619	17216.08
567.818	17242.7
568.016	16865.88
568.215	17211.98
568.414	16745.05
568.612	17277.52
568.811	17060.43
569.01	16949.84
569.208	16501.34
569.407	16669.27
569.605	16476.76
569.804	17029.71
570.002	16771.67
570.201	16685.65
570.4	16624.22
570.598	16581.21
570.797	16566.87
570.995	16798.29
571.193	16218.72
571.392	16818.77
571.59	16261.73
571.789	16341.6
571.987	16147.04
572.186	16251.49
572.384	16120.42
572.582	16390.75
572.781	16386.65
572.979	15821.41
573.177	16210.53
573.376	15995.49
573.574	15895.14
573.772	15964.77
573.971	16081.5
574.169	15757.92
574.367	15815.27
574.565	16101.98
574.763	15719.01
574.962	15868.52
575.16	15833.7
575.358	15624.81
575.556	15557.22
575.754	15835.75
575.952	15370.86
576.151	15571.56
576.349	15546.98
576.547	15329.9
576.745	15444.59
576.943	15284.84
577.141	15217.26
577.339	15329.9
577.537	15039.09
577.735	15139.44
577.933	15010.42
578.131	15092.34
578.329	15000.18
578.527	15084.14
578.725	14920.31
578.923	15155.82
579.121	14688.89
579.319	14789.24
579.516	14842.48
579.714	14846.58
579.912	14787.19
580.11	14713.46
580.308	14498.42
580.506	14428.79
580.704	14531.19
580.901	14600.82
581.099	14637.69
581.297	14211.71
581.495	14508.66
581.692	14514.81
581.89	14082.69
582.088	14449.27
582.285	14221.95
582.483	14393.98
582.681	14248.57
582.878	14054.01
583.076	13924.99
583.274	14135.93
583.471	13994.62
583.669	14019.2
583.866	13904.51
584.064	14041.73
584.262	13914.75
584.459	14017.15
584.657	13992.58
584.854	13920.9
585.052	13703.81
585.249	13945.47
585.447	13615.75
585.644	13636.23
585.841	13685.38
586.039	13691.52
586.236	13349.51
586.434	13363.85
586.631	13437.58
586.828	13273.74
587.026	13234.83
587.223	13353.61
587.42	13269.64
587.618	13376.14
587.815	13173.39
588.012	13140.62
588.21	13034.13
588.407	13232.78
588.604	13030.03
588.801	12956.3
588.999	13015.69
589.196	13173.39
589.393	12886.67
589.59	12716.69
589.787	12755.6
589.984	12796.56
590.182	12724.88
590.379	12823.19
590.576	12720.79
590.773	12774.03
590.97	12761.75
591.167	12634.77
591.364	12673.68
591.561	12438.17
591.758	12812.95
591.955	12434.07
592.152	12651.16
592.349	12460.7
592.546	12395.16
592.743	12397.21
592.94	12071.58
593.137	12296.86
593.334	12356.25
593.531	12108.44
593.727	12083.87
593.924	12485.27
594.121	11967.13
594.318	12251.8
594.515	11803.3
594.712	12116.64
594.908	11883.17
595.105	12085.92
595.302	11655.84
595.499	11889.31
595.696	11780.77
595.892	11811.49
596.089	11883.17
596.286	11655.84
596.482	11711.14
596.679	11528.87
596.876	11623.08
597.072	11680.42
597.269	11512.49
597.466	11723.43
597.662	11369.13
597.859	11414.18
598.055	11528.87
598.252	11426.47
598.448	11395.75
598.645	11518.63
598.841	11178.67
599.038	11193
599.234	11229.87
599.431	11203.24
599.627	11039.4
599.824	11211.43
600.02	11094.7
600.217	11066.03
600.413	10984.11
600.609	10924.72
600.806	10967.73
601.002	10961.58
601.198	10695.35
601.395	10859.18
601.591	10721.97
601.787	10693.3
601.984	10668.72
602.18	10742.45
602.376	10719.92
602.572	10558.13
602.769	10715.83
602.965	10416.82
603.161	10543.8
603.357	10486.45
603.553	10427.06
603.75	10523.32
603.946	10285.75
604.142	10470.07
604.338	10465.97
604.534	10486.45
604.73	10144.44
604.926	10166.97
605.122	10250.94
605.318	10187.45
605.514	9972.41
605.71	10117.82
605.906	10058.43
606.102	9943.74
606.298	10148.54
606.494	9988.8
606.69	10003.13
606.886	9996.99
607.082	9949.89
607.278	9976.51
607.474	9822.91
607.67	9964.22
607.866	9831.1
608.062	9863.87
608.257	9554.63
608.453	9886.4
608.649	9689.79
608.845	9700.03
609.041	9577.16
609.236	9681.6
609.432	9593.54
609.628	9444.04
609.824	9493.19
610.019	9427.65
610.215	9700.03
610.411	9462.47
610.606	9468.61
610.802	9415.37
610.998	9413.32
611.193	9556.68
611.389	9396.93
611.584	9251.53
611.78	9366.21
611.976	9409.22
612.171	9542.34
612.367	9319.11
612.562	9335.49
612.758	9204.42
612.953	9044.68
613.149	9251.53
613.344	9128.65
613.539	9300.68
613.735	9018.06
613.93	9204.42
614.126	9179.85
614.321	9122.51
614.517	9116.36
614.712	8964.81
614.907	8956.62
615.103	9050.83
615.298	8985.29
615.493	9188.04
615.688	8948.43
615.884	9034.44
616.079	8731.34
616.274	8837.84
616.47	8839.89
616.665	8880.85
616.86	8803.02
617.055	8891.09
617.25	8534.74
617.445	8733.39
617.641	8579.79
617.836	8821.45
618.031	8524.5
618.226	8569.55
618.421	8585.94
618.616	8686.29
618.811	8577.75
619.006	8637.14
619.201	8536.79
619.396	8657.62
619.591	8301.27
619.786	8567.51
619.981	8207.06
620.176	8405.72
620.371	8071.9
620.566	8159.96
620.761	8213.21
620.956	8125.15
621.151	8295.13
621.346	8221.4
621.541	8045.27
621.735	8297.17
621.93	7719.65
622.125	7865.05
622.32	7906.01
622.515	7873.25
622.709	7748.32
622.904	7875.29
623.099	7795.42
623.294	7711.46
623.488	7701.22
623.683	7647.97
623.878	7621.35
624.072	7463.65
624.267	7576.29
624.462	7682.78
624.656	7418.6
624.851	7367.4
625.046	7412.45
625.24	7394.02
625.435	7127.78
625.629	7353.06
625.824	7187.18
626.018	7246.57
626.213	6906.6
626.407	6980.33
626.602	7060.2
626.796	6978.28
626.991	7101.16
627.185	6869.74
627.38	6900.46
627.574	6873.84
627.768	6787.82
627.963	6865.64
628.157	6699.76
628.352	6822.64
628.546	6710
628.74	6699.76
628.935	6619.89
629.129	6566.64
629.323	6529.78
629.517	6546.16
629.712	6396.66
629.906	6343.41
630.1	6331.12
630.294	6478.58
630.489	6312.69
630.683	6216.44
630.877	6374.13
631.071	6222.58
631.265	6281.97
631.459	6064.89
631.653	6134.52
631.848	6183.67
632.042	6093.56
632.236	6079.22
632.43	6120.18
632.624	6128.38
632.818	6056.7
633.012	6042.36
633.206	5946.11
633.4	5886.72
633.594	5780.22
633.788	5907.2
633.982	5710.59
634.176	5716.73
634.369	5784.32
634.563	5757.69
634.757	5593.86
634.951	5778.17
635.145	5724.93
635.339	5575.42
635.533	5595.9
635.726	5507.84
635.92	5532.42
636.114	5444.35
636.308	5438.21
636.501	5278.47
636.695	5427.97
636.889	5423.87
637.083	5348.1
637.276	5274.37
637.47	5387.01
637.664	5337.86
637.857	5270.28
638.051	5274.37
638.244	5286.66
638.438	5122.82
638.632	5126.92
638.825	4999.95
639.019	4995.85
639.212	5012.23
639.406	4870.92
639.599	4956.94
639.793	5053.19
639.986	4805.39
640.18	4909.83
640.373	4895.5
640.567	4789
640.76	4887.31
640.954	4823.82
641.147	4567.82
641.34	4805.39
641.534	4625.17
641.727	4672.27
641.92	4565.78
642.114	4668.17
642.307	4541.2
642.5	4612.88
642.694	4352.79
642.887	4446.99
643.08	4508.43
643.273	4514.58
643.467	4291.35
643.66	4383.51
643.853	4328.21
644.046	4354.83
644.239	4385.55
644.432	4283.16
644.626	4313.88
644.819	4328.21
645.012	4272.92
645.205	4221.72
645.398	4248.34
645.591	4096.79
645.784	4170.52
645.977	4107.03
646.17	3986.2
646.363	4018.97
646.556	3865.37
646.749	4021.02
646.942	4064.02
647.135	3922.71
647.328	3881.75
647.521	3781.4
647.714	3861.27
647.907	3789.6
648.099	3844.89
648.292	3889.95
648.485	3654.43
648.678	3783.45
648.871	3816.22
649.064	3744.54
649.256	3523.36
649.449	3685.15
649.642	3670.81
649.835	3558.18
650.027	3541.79
650.22	3613.47
650.413	3529.5
650.605	3461.92
650.798	3619.61
650.991	3476.26
651.183	3521.31
651.376	3441.44
651.568	3519.26
651.761	3418.91
651.954	3398.43
652.146	3439.39
652.339	3474.21
652.531	3384.1
652.724	3439.39
652.916	3326.75
653.109	3296.04
653.301	3339.04
653.494	3283.75
653.686	3316.51
653.879	3205.92
654.071	3124.01
654.263	3103.53
654.456	3154.73
654.648	3132.2
654.84	3115.81
655.033	3115.81
655.225	3058.47
655.417	3013.42
655.61	3109.67
655.802	3056.42
655.994	2960.17
656.186	3093.29
656.379	2974.5
656.571	2997.03
656.763	2999.08
656.955	2941.74
657.148	3015.46
657.34	3005.22
657.532	2771.76
657.724	2820.91
657.916	2851.63
658.108	2806.57
658.3	2898.73
658.492	2759.47
658.684	2745.13
658.876	2708.27
659.068	2751.28
659.26	2757.42
659.452	2843.43
659.644	2650.92
659.836	2671.4
660.028	2710.32
660.22	2632.49
660.412	2665.26
660.604	2632.49
660.796	2767.66
660.988	2609.97
661.18	2655.02
661.372	2571.05
661.563	2560.81
661.755	2616.11
661.947	2401.07
662.139	2628.4
662.331	2407.22
662.522	2390.83
662.714	2597.68
662.906	2456.37
663.097	2403.12
663.289	2478.9
663.481	2439.98
663.673	2419.5
663.864	2442.03
664.056	2411.31
664.247	2421.55
664.439	2341.68
664.631	2368.31
664.822	2339.63
665.014	2360.11
665.205	2364.21
665.397	2325.3
665.588	2253.62
665.78	2163.51
665.971	2267.95
666.163	2237.24
666.354	2132.79
666.546	2104.12
666.737	2255.67
666.929	2116.41
667.12	2138.93
667.311	2210.61
667.503	2227
667.694	2194.23
667.885	2145.08
668.077	2081.59
668.268	2147.12
668.459	2132.79
668.651	2163.51
668.842	2114.36
669.033	2138.93
669.224	1960.76
669.416	2069.3
669.607	2036.53
669.798	2018.1
669.989	2052.92
670.18	1985.34
670.371	2016.05
670.563	2128.69
670.754	2001.72
670.945	1971
671.136	2018.1
671.327	1874.74
671.518	1977.14
671.709	2087.73
671.9	2001.72
672.091	1925.94
672.282	2007.86
672.473	1940.28
672.664	1934.14
672.855	1854.27
673.046	1887.03
673.237	1911.61
673.428	1856.31
673.619	1864.5
673.809	1805.11
674	1813.31
674.191	1794.87
674.382	1792.83
674.573	1919.8
674.764	1825.59
674.954	1731.39
675.145	1811.26
675.336	1776.44
675.527	1825.59
675.717	1739.58
675.908	1737.53
676.099	1837.88
676.289	1721.15
676.48	1737.53
676.671	1708.86
676.861	1815.35
677.052	1715
677.243	1686.33
677.433	1696.57
677.624	1747.77
677.814	1794.87
678.005	1694.52
678.195	1719.1
678.386	1725.24
678.576	1678.14
678.767	1688.38
678.957	1704.76
679.148	1780.54
679.338	1712.96
679.529	1633.08
679.719	1743.67
679.909	1770.3
680.1	1727.29
680.29	1686.33
680.481	1700.67
680.671	1762.11
680.861	1755.96
681.052	1745.72
681.242	1712.96
681.432	1708.86
681.622	1731.39
681.813	1594.17
682.003	1649.47
682.193	1678.14
682.383	1692.48
682.573	1645.37
682.764	1721.15
682.954	1737.53
683.144	1717.05
683.334	1669.95
683.524	1725.24
683.714	1665.85
683.904	1631.04
684.094	1631.04
684.284	1645.37
684.474	1661.76
684.664	1555.26
684.854	1667.9
685.044	1680.19
685.234	1610.56
685.424	1696.57
685.614	1585.98
685.804	1618.75
685.994	1606.46
686.184	1659.71
686.374	1583.93
686.564	1700.67
686.753	1626.94
686.943	1499.97
687.133	1571.65
687.323	1631.04
687.513	1579.84
687.702	1669.95
687.892	1639.23
688.082	1725.24
688.272	1596.22
688.461	1674.04
688.651	1526.59
688.841	1579.84
689.03	1565.5
689.22	1633.08
689.41	1710.91
689.599	1583.93
689.789	1612.6
689.979	1469.25
690.168	1557.31
690.358	1561.41
690.547	1551.17
690.737	1485.63
690.926	1573.69
691.116	1481.53
691.305	1682.24
691.495	1520.45
691.684	1504.06
691.874	1549.12
692.063	1604.41
692.252	1428.29
692.442	1577.79
692.631	1565.5
692.82	1514.3
693.01	1549.12
693.199	1465.15
693.388	1471.29
693.578	1475.39
693.767	1497.92
693.956	1420.1
694.146	1379.14
694.335	1461.06
694.524	1497.92
694.713	1555.26
694.902	1483.58
695.092	1526.59
695.281	1448.77
695.47	1401.66
695.659	1530.69
695.848	1448.77
696.037	1436.48
696.226	1413.95
696.415	1524.54
696.604	1547.07
696.793	1409.86
696.982	1366.85
697.171	1461.06
697.36	1362.75
697.549	1510.21
697.738	1450.82
697.927	1493.82
698.116	1448.77
698.305	1442.62
698.494	1497.92
698.683	1383.23
698.872	1540.93
699.061	1432.38
699.25	1450.82
699.438	1461.06
699.627	1405.76
699.816	1430.34
700.005	1387.33
700.193	1346.37
700.382	1456.96
700.571	1360.7
700.76	1440.58
700.948	1459.01
701.137	1350.46
701.326	1325.89
701.514	1403.71
701.703	1264.45
701.892	1389.38
702.08	1370.94
702.269	1399.62
702.457	1334.08
702.646	1385.28
702.834	1289.03
703.023	1354.56
703.212	1401.66
703.4	1301.31
703.589	1368.9
703.777	1375.04
703.965	1366.85
704.154	1397.57
704.342	1393.47
704.531	1241.92
704.719	1432.38
704.907	1389.38
705.096	1297.22
705.284	1362.75
705.472	1340.22
705.661	1248.07
705.849	1332.03
706.037	1270.59
706.226	1346.37
706.414	1315.65
706.602	1332.03
706.79	1321.79
706.979	1162.05
707.167	1239.87
707.355	1301.31
707.543	1293.12
707.731	1366.85
707.919	1405.76
708.107	1291.07
708.296	1270.59
708.484	1286.98
708.672	1231.68
708.86	1305.41
709.048	1342.27
709.236	1291.07
709.424	1272.64
709.612	1182.53
709.8	1225.54
709.988	1250.11
710.176	1303.36
710.364	1235.78
710.551	1174.34
710.739	1241.92
710.927	1166.15
711.115	1178.44
711.303	1186.63
711.491	1254.21
711.679	1286.98
711.866	1133.38
712.054	1194.82
712.242	1223.49
712.43	1182.53
712.617	1231.68
712.805	1276.74
712.993	1215.3
713.181	1174.34
713.368	1219.39
713.556	1149.76
713.744	1174.34
713.931	1209.15
714.119	1188.68
714.306	1219.39
714.494	1164.1
714.682	1153.86
714.869	1209.15
715.057	1108.8
715.244	1143.62
715.432	1147.72
715.619	1176.39
715.807	1180.48
715.994	1123.14
716.182	1098.56
716.369	1157.96
716.556	1264.45
716.744	1129.28
716.931	1293.12
717.119	1219.39
717.306	1119.04
717.493	1170.24
717.681	1073.99
717.868	1057.61
718.055	1104.71
718.242	1102.66
718.43	1078.08
718.617	1231.68
718.804	1057.61
718.991	1133.38
719.179	1119.04
719.366	1043.27
719.553	1119.04
719.74	1092.42
719.927	971.59
720.114	1112.9
720.301	1102.66
720.488	1020.74
720.676	1026.89
720.863	1002.31
721.05	1119.04
721.237	1014.6
721.424	1119.04
721.611	1076.04
721.798	1014.6
721.985	1014.6
722.172	1030.98
722.358	992.07
722.545	1096.52
722.732	1030.98
722.919	1057.61
723.106	1002.31
723.293	1049.41
723.48	1057.61
723.667	1041.22
723.853	990.02
724.04	1008.45
724.227	1014.6
724.414	944.97
724.6	1014.6
724.787	1065.8
724.974	967.49
725.161	1028.93
725.347	1014.6
725.534	1028.93
725.72	957.25
725.907	1002.31
726.094	1012.55
726.28	875.34
726.467	944.97
726.653	987.97
726.84	1098.56
727.027	1014.6
727.213	955.21
727.4	996.17
727.586	1080.13
727.773	938.82
727.959	963.4
728.145	1039.17
728.332	1047.37
728.518	942.92
728.705	992.07
728.891	990.02
729.077	926.54
729.264	926.54
729.45	971.59
729.636	961.35
729.823	961.35
730.009	963.4
730.195	947.01
730.382	910.15
730.568	992.07
730.754	1014.6
730.94	955.21
731.126	916.3
731.313	973.64
731.499	940.87
731.685	967.49
731.871	1051.46
732.057	955.21
732.243	871.24
732.429	949.06
732.615	910.15
732.801	920.39
732.987	871.24
733.173	957.25
733.359	867.14
733.545	916.3
733.731	922.44
733.917	979.78
734.103	899.91
734.289	908.1
734.475	881.48
734.661	867.14
734.847	979.78
735.033	969.54
735.219	877.38
735.404	942.92
735.59	858.95
735.776	932.68
735.962	904.01
736.148	920.39
736.333	918.34
736.519	1016.65
736.705	916.3
736.89	809.8
737.076	803.66
737.262	918.34
737.447	934.73
737.633	875.34
737.819	883.53
738.004	822.09
738.19	809.8
738.375	940.87
738.561	901.96
738.747	897.86
738.932	854.86
739.118	949.06
739.303	824.14
739.489	940.87
739.674	736.07
739.859	772.94
740.045	799.56
740.23	910.15
740.416	848.71
740.601	893.77
740.786	791.37
740.972	908.1
741.157	877.38
741.342	785.23
741.528	793.42
741.713	807.75
741.898	781.13
742.084	799.56
742.269	852.81
742.454	826.18
742.639	863.05
742.824	795.47
743.01	779.08
743.195	844.62
743.38	861
743.565	842.57
743.75	727.88
743.935	811.85
744.12	891.72
744.305	838.47
744.49	820.04
744.675	752.46
744.86	729.93
745.045	838.47
745.23	785.23
745.415	811.85
745.6	756.55
745.785	734.03
745.97	680.78
746.155	721.74
746.34	688.97
746.525	701.26
746.71	723.79
746.895	731.98
747.079	680.78
747.264	717.64
747.449	688.97
747.634	678.73
747.819	705.35
748.003	750.41
748.188	680.78
748.373	723.79
748.557	631.63
748.742	684.87
748.927	713.55
749.111	668.49
749.296	605
749.481	615.24
749.665	629.58
749.85	695.11
750.034	623.44
750.219	662.35
750.404	570.19
750.588	705.35
750.773	613.2
750.957	557.9
751.141	592.72
751.326	613.2
751.51	695.11
751.695	611.15
751.879	566.09
752.064	645.96
752.248	621.39
752.432	652.11
752.617	582.48
752.801	621.39
752.985	574.28
753.17	633.68
753.354	615.24
753.538	545.61
753.722	566.09
753.907	549.71
754.091	605
754.275	525.13
754.459	502.61
754.643	580.43
754.828	557.9
755.012	555.85
755.196	490.32
755.38	584.52
755.564	568.14
755.748	482.13
755.932	543.57
756.116	496.46
756.3	502.61
756.484	572.24
756.668	445.26
756.852	510.8
757.036	568.14
757.22	531.28
757.404	533.33
757.588	502.61
757.772	453.45
757.956	482.13
758.14	564.04
758.323	459.6
758.507	555.85
758.691	465.74
758.875	498.51
759.059	527.18
759.242	480.08
759.426	408.4
759.61	424.78
759.794	523.09
759.977	512.85
760.161	467.79
760.345	482.13
760.528	402.26
760.712	512.85
760.895	506.7
761.079	469.84
761.263	379.73
761.446	465.74
761.63	490.32
761.813	457.55
761.997	490.32
762.18	435.02
762.364	422.73
762.547	400.21
762.731	353.1
762.914	398.16
763.098	453.45
763.281	424.78
763.464	424.78
763.648	406.35
763.831	394.06
764.015	398.16
764.198	410.45
764.381	385.87
764.564	369.49
764.748	402.26
764.931	346.96
765.114	471.89
765.297	424.78
765.481	377.68
765.664	342.86
765.847	396.11
766.03	385.87
766.213	285.52
766.397	435.02
766.58	365.39
766.763	420.69
766.946	383.82
767.129	338.77
767.312	383.82
767.495	310.1
767.678	385.87
767.861	373.58
768.044	392.02
768.227	523.09
768.41	314.19
768.593	408.4
768.776	394.06
768.959	408.4
769.142	365.39
769.324	355.15
769.507	387.92
769.69	387.92
769.873	353.1
770.056	361.3
770.239	322.38
770.421	310.1
770.604	408.4
770.787	332.62
770.97	361.3
771.152	332.62
771.335	318.29
771.518	342.86
771.7	375.63
771.883	344.91
772.066	303.95
772.248	389.97
772.431	334.67
772.613	355.15
772.796	351.06
772.978	379.73
773.161	283.47
773.343	385.87
773.526	328.53
773.708	310.1
773.891	385.87
774.073	346.96
774.256	289.62
774.438	299.86
774.621	328.53
774.803	293.71
774.985	289.62
775.168	295.76
775.35	248.66
775.532	314.19
775.715	236.37
775.897	326.48
776.079	183.12
776.261	297.81
776.444	211.79
776.626	320.34
776.808	269.14
776.99	295.76
777.173	295.76
777.355	242.51
777.537	342.86
777.719	258.9
777.901	215.89
778.083	314.19
778.265	230.23
778.447	346.96
778.629	254.8
778.811	273.23
778.993	142.16
779.175	246.61
779.357	189.27
779.539	258.9
779.721	219.99
779.903	226.13
780.085	234.32
780.267	234.32
780.449	215.89
780.631	219.99
780.812	207.7
780.994	242.51
781.176	211.79
781.358	213.84
781.54	258.9
781.721	215.89
781.903	279.38
782.085	185.17
782.267	240.47
782.448	236.37
782.63	228.18
782.812	240.47
782.993	228.18
783.175	281.43
783.357	203.6
783.538	162.64
783.72	215.89
783.901	172.88
784.083	138.07
784.264	199.51
784.446	174.93
784.627	183.12
784.809	209.75
784.99	179.03
785.172	129.88
785.353	160.59
785.535	150.36
785.716	252.75
785.897	113.49
786.079	152.4
786.26	215.89
786.441	146.26
786.623	187.22
786.804	166.74
786.985	172.88
787.167	195.41
787.348	213.84
787.529	162.64
787.71	166.74
787.891	240.47
788.073	150.36
788.254	164.69
788.435	131.92
788.616	181.07
788.797	140.12
788.978	146.26
789.159	174.93
789.34	107.35
789.522	115.54
789.703	170.83
789.884	179.03
790.065	156.5
790.246	207.7
790.427	115.54
790.607	105.3
790.788	142.16
790.969	109.4
791.15	162.64
791.331	140.12
791.512	99.16
791.693	140.12
791.874	97.11
792.054	217.94
792.235	170.83
792.416	148.31
792.597	179.03
792.778	154.45
792.958	107.35
793.139	93.01
793.32	187.22
793.5	37.72
793.681	115.54
793.862	146.26
794.042	101.2
794.223	66.39
794.404	107.35
794.584	97.11
794.765	66.39
794.945	207.7
795.126	76.63
795.306	156.5
795.487	60.24
795.667	158.55
795.848	160.59
796.028	166.74
796.209	66.39
796.389	72.53
796.57	43.86
796.75	103.25
796.93	90.96
797.111	80.72
797.291	70.48
797.471	131.92
797.652	115.54
797.832	84.82
798.012	148.31
798.192	113.49
798.373	99.16
798.553	101.2
798.733	107.35
798.913	111.44
799.093	64.34
799.274	86.87
799.454	148.31
799.634	35.67
799.814	64.34
799.994	121.68
800.174	107.35
800.354	88.92
800.534	56.15
800.714	47.96
800.894	109.4
801.074	90.96
801.254	84.82
801.434	113.49
801.614	129.88
801.794	68.44
801.974	310.1
802.154	64.34
802.334	68.44
802.514	115.54
802.693	86.87
802.873	72.53
803.053	121.68
803.233	133.97
803.413	107.35
803.592	95.06
803.772	105.3
803.952	121.68
804.131	99.16
804.311	82.77
804.491	109.4
804.67	60.24
804.85	43.86
805.03	148.31
805.209	127.83
805.389	111.44
805.568	50
805.748	47.96
805.928	82.77
806.107	109.4
806.287	88.92
806.466	58.2
806.646	64.34
806.825	119.64
807.004	115.54
807.184	-29.87
807.363	78.68
807.543	121.68
807.722	117.59
807.901	-17.58
808.081	50
808.26	-36.01
808.439	72.53
808.619	101.2
808.798	97.11
808.977	47.96
809.156	162.64
809.336	158.55
809.515	64.34
809.694	62.29
809.873	-17.58
810.052	60.24
810.231	21.33
810.411	111.44
810.59	121.68
810.769	121.68
810.948	15.19
811.127	-19.63
811.306	80.72
811.485	35.67
811.664	68.44
811.843	19.29
812.022	119.64
812.201	47.96
812.38	7
812.559	33.62
812.737	7
812.916	33.62
813.095	56.15
813.274	17.24
813.453	47.96
813.632	86.87
813.811	129.88
813.989	-36.01
814.168	43.86
814.347	43.86
814.526	52.05
814.704	52.05
814.883	136.02
815.062	4.95
815.24	84.82
815.419	99.16
815.598	68.44
815.776	52.05
815.955	90.96
816.133	101.2
816.312	131.92
816.49	-23.72
816.669	101.2
816.847	47.96
817.026	99.16
817.204	2.9
817.383	43.86
817.561	19.29
817.74	133.97
817.918	76.63
818.097	27.48
818.275	84.82
818.453	41.81
818.632	64.34
818.81	2.9
818.988	11.09
819.167	4.95
819.345	45.91
819.523	13.14
819.701	78.68
819.879	66.39
820.058	58.2
820.236	23.38
820.414	52.05
820.592	37.72
820.77	50
820.948	113.49
821.127	68.44
821.305	80.72
821.483	78.68
821.661	119.64
821.839	56.15
822.017	27.48
822.195	19.29
822.373	88.92
822.551	41.81
822.729	23.38
822.907	43.86
823.085	39.76
823.262	90.96
823.44	97.11
823.618	25.43
823.796	-74.92
823.974	-23.72
824.152	62.29
824.329	23.38
824.507	39.76
824.685	47.96
824.863	97.11
825.04	70.48
825.218	2.9
825.396	54.1
825.574	-48.3
825.751	121.68
825.929	-7.34
826.107	64.34
826.284	90.96
826.462	-9.39
826.639	17.24
826.817	41.81
826.994	88.92
827.172	37.72
827.349	41.81
827.527	27.48
827.704	25.43
827.882	21.33
828.059	21.33
828.237	0.85
828.414	72.53
828.591	72.53
828.769	11.09
828.946	56.15
829.124	31.57
829.301	37.72
829.478	-19.63
829.655	15.19
829.833	23.38
830.01	-52.39
830.187	23.38
830.364	47.96
830.542	45.91
830.719	19.29
830.896	82.77
831.073	68.44
831.25	39.76
831.427	80.72
831.604	66.39
831.782	56.15
831.959	54.1
832.136	-23.72
832.313	35.67
832.49	15.19
832.667	84.82
832.844	43.86
833.021	19.29
833.198	15.19
833.374	68.44
833.551	-5.29
833.728	0.85
833.905	17.24
834.082	35.67
834.259	68.44
834.436	56.15
834.612	54.1
834.789	-21.67
834.966	-5.29
835.143	4.95
835.319	37.72
835.496	-52.39
835.673	41.81
835.85	-33.96
836.026	-1.19
836.203	93.01
836.38	52.05
836.556	2.9
836.733	15.19
836.909	9.05
837.086	76.63
837.262	-42.15
837.439	52.05
837.616	9.05
837.792	-9.39
837.968	-38.06
838.145	50
838.321	56.15
838.498	13.14
838.674	-21.67
838.851	-7.34
839.027	41.81
839.203	17.24
839.38	-1.19
839.556	-21.67
839.732	2.9
839.909	25.43
840.085	25.43
840.261	41.81
840.437	50
840.614	68.44
840.79	27.48
840.966	60.24
841.142	17.24
841.318	39.76
841.494	80.72
841.671	21.33
841.847	31.57
842.023	9.05
842.199	54.1
842.375	56.15
842.551	11.09
842.727	-29.87
842.903	25.43
843.079	74.58
843.255	25.43
843.431	-23.72
843.607	54.1
843.783	56.15
843.959	-17.58
844.134	41.81
844.31	15.19
844.486	47.96
844.662	-21.67
844.838	37.72
845.013	-17.58
845.189	29.52
845.365	7
845.541	-1.19
845.716	35.67
845.892	29.52
846.068	47.96
846.244	15.19
846.419	27.48
846.595	-9.39
846.77	74.58
846.946	80.72
847.122	43.86
847.297	23.38
847.473	41.81
847.648	9.05
847.824	-13.48
847.999	2.9
848.175	25.43
848.35	45.91
848.526	-40.11
848.701	84.82
848.876	21.33
849.052	33.62
849.227	52.05
849.403	9.05
849.578	-36.01
849.753	-29.87
849.929	-42.15
850.104	70.48
850.279	33.62
850.454	15.19
850.63	17.24
850.805	4.95
850.98	-15.53
851.155	72.53
851.33	66.39
851.505	-56.49
851.681	15.19
851.856	19.29
852.031	-23.72
852.206	-3.24
852.381	41.81
852.556	-3.24
852.731	29.52
852.906	2.9
853.081	15.19
853.256	43.86
853.431	54.1
853.606	29.52
853.781	11.09
853.956	21.33
854.131	13.14
854.305	-40.11
854.48	21.33
854.655	64.34
854.83	25.43
855.005	17.24
855.18	39.76
855.354	31.57
855.529	-29.87
855.704	-81.07
855.879	-25.77
856.053	0.85
856.228	19.29
856.403	-31.91
856.577	52.05
856.752	-25.77
856.926	9.05
857.101	33.62
857.276	39.76
857.45	64.34
857.625	19.29
857.799	-11.43
857.974	-33.96
858.148	25.43
858.323	-11.43
858.497	25.43
858.672	15.19
858.846	4.95
859.02	11.09
859.195	-36.01
859.369	4.95
859.543	33.62
859.718	64.34
859.892	19.29
860.066	25.43
860.241	2.9
860.415	82.77
860.589	-42.15
860.763	-50.35
860.938	-42.15
861.112	-50.35
861.286	39.76
861.46	50
861.634	9.05
861.808	-7.34
861.982	-7.34
862.157	-38.06
862.331	-15.53
862.505	27.48
862.679	-31.91
862.853	25.43
863.027	62.29
863.201	-1.19
863.375	7
863.549	-76.97
863.722	25.43
863.896	52.05
864.07	64.34
864.244	-23.72
864.418	15.19
864.592	19.29
864.766	-3.24
864.939	2.9
865.113	9.05
865.287	33.62
865.461	50
865.634	52.05
865.808	9.05
865.982	80.72
866.156	-70.83
866.329	7
866.503	-1.19
866.676	37.72
866.85	-38.06
867.024	-40.11
867.197	39.76
867.371	43.86
867.544	35.67
867.718	-11.43
867.891	-48.3
868.065	13.14
868.238	-7.34
868.412	4.95
868.585	39.76
868.759	-7.34
868.932	-33.96
869.105	7
869.279	-25.77
869.452	-7.34
869.625	52.05
869.799	7
869.972	-66.73
870.145	7
870.319	-111.78
870.492	-40.11
870.665	-23.72
870.838	0.85
871.011	4.95
871.185	76.63
871.358	-19.63
871.531	23.38
871.704	-23.72
871.877	-11.43
872.05	-56.49
872.223	54.1
872.396	-33.96
872.569	-1.19
872.742	27.48
872.915	56.15
873.088	15.19
873.261	-7.34
873.434	-31.91
873.607	-3.24
873.78	29.52
873.953	-31.91
874.126	-58.54
874.299	19.29
874.471	15.19
874.644	27.48
874.817	-19.63
874.99	37.72
875.163	0.85
875.335	-42.15
875.508	15.19
875.681	4.95
875.853	2.9
876.026	33.62
876.199	-3.24
876.371	33.62
876.544	-17.58
876.717	72.53
876.889	-29.87
877.062	-11.43
877.234	50
877.407	29.52
877.579	-36.01
877.752	54.1
877.924	-40.11
878.097	15.19
878.269	78.68
878.442	9.05
878.614	19.29
878.786	-9.39
878.959	-13.48
879.131	47.96
879.303	-3.24
879.476	21.33
879.648	31.57
879.82	-79.02
879.993	-36.01
880.165	-1.19
880.337	-13.48
880.509	-17.58
880.681	11.09
880.854	2.9
881.026	9.05
881.198	41.81
881.37	-11.43
881.542	23.38
881.714	2.9
881.886	-17.58
882.058	21.33
882.23	-27.82
882.402	-38.06
882.574	-42.15
882.746	17.24
882.918	4.95
883.09	-74.92
883.262	43.86
883.434	9.05
883.606	-29.87
883.778	-25.77
883.95	17.24
884.122	23.38
884.293	-7.34
884.465	-17.58
884.637	-21.67
884.809	-19.63
884.98	-13.48
885.152	0.85
885.324	-44.2
885.496	15.19
885.667	-58.54
885.839	29.52
886.011	68.44
886.182	-1.19
886.354	-23.72
886.525	-54.44
886.697	-60.59
886.869	-31.91
887.04	-29.87
887.212	9.05
887.383	17.24
887.555	-48.3
887.726	54.1
887.897	11.09
888.069	31.57
888.24	23.38
888.412	-29.87
888.583	-56.49
888.754	-13.48
888.926	-46.25
889.097	33.62
889.268	31.57
889.44	-21.67
889.611	58.2
889.782	47.96
889.953	-17.58
890.125	35.67
890.296	-17.58
890.467	-23.72
890.638	-48.3
890.809	7
890.98	47.96
891.151	39.76
891.323	41.81
891.494	-11.43
891.665	-38.06
891.836	-1.19
892.007	15.19
892.178	29.52
892.349	-5.29
892.52	9.05
892.691	39.76
892.862	19.29
893.032	-9.39
893.203	13.14
893.374	7
893.545	-27.82
893.716	-7.34
893.887	11.09
894.057	19.29
894.228	-21.67
894.399	9.05
894.57	-33.96
894.74	-58.54
894.911	-33.96
895.082	-7.34
895.253	11.09
895.423	45.91
895.594	64.34
895.764	39.76
895.935	-29.87
896.106	15.19
896.276	-19.63
896.447	13.14
896.617	-7.34
896.788	0.85
896.958	19.29
897.129	9.05
897.299	74.58
897.47	-27.82
897.64	39.76
897.81	-13.48
897.981	-25.77
898.151	-29.87
898.322	-42.15
898.492	25.43
898.662	-9.39
898.832	-1.19
899.003	-17.58
899.173	39.76
899.343	-7.34
899.513	-1.19
