Data from USB4F104151__39__12-58-59-006.txt Node

Date: Fri Mar 14 12:58:59 EDT 2025
User: louis
Spectrometer: USB4F10415
Trigger mode: 4
Integration Time (sec): 1.000000E-2
Scans to average: 1
Electric dark correction enabled: true
Nonlinearity correction enabled: false
Boxcar width: 0
XAxis mode: Wavelengths
Number of Pixels in Spectrum: 3648
>>>>>Begin Spectral Data<<<<<
178.204	-2.39
178.424	-2.39
178.644	-2.39
178.864	-26.96
179.084	16.04
179.304	30.38
179.524	1.71
179.744	32.43
179.964	-37.2
180.184	50.86
180.404	61.1
180.624	-33.11
180.844	-63.83
181.064	5.8
181.283	-24.92
181.503	-37.2
181.723	13.99
181.943	-24.92
182.163	75.43
182.383	85.67
182.602	36.52
182.822	-26.96
183.042	40.62
183.262	61.1
183.482	16.04
183.701	20.14
183.921	-22.87
184.141	28.33
184.361	-6.49
184.58	-18.77
184.8	-24.92
185.02	40.62
185.239	34.47
185.459	46.76
185.679	11.95
185.898	-43.35
186.118	63.15
186.338	40.62
186.557	126.63
186.777	7.85
186.997	11.95
187.216	-0.34
187.436	-0.34
187.655	22.19
187.875	71.34
188.095	34.47
188.314	-20.82
188.534	22.19
188.753	67.24
188.973	-4.44
189.192	75.43
189.412	-2.39
189.631	59.05
189.851	24.23
190.07	44.71
190.29	87.72
190.509	71.34
190.729	-18.77
190.948	65.19
191.168	71.34
191.387	-22.87
191.607	-0.34
191.826	11.95
192.045	16.04
192.265	48.81
192.484	-84.31
192.704	50.86
192.923	-18.77
193.142	9.9
193.362	57
193.581	48.81
193.8	-10.58
194.02	28.33
194.239	11.95
194.458	-43.35
194.678	46.76
194.897	46.76
195.116	-84.31
195.335	16.04
195.555	85.67
195.774	122.54
195.993	-29.01
196.212	61.1
196.432	22.19
196.651	-4.44
196.87	50.86
197.089	48.81
197.308	100.01
197.528	-4.44
197.747	48.81
197.966	91.82
198.185	24.23
198.404	54.95
198.623	36.52
198.842	34.47
199.062	48.81
199.281	-4.44
199.5	32.43
199.719	-16.73
199.938	48.81
200.157	-4.44
200.376	22.19
200.595	26.28
200.814	9.9
201.033	-4.44
201.252	-6.49
201.471	20.14
201.69	-18.77
201.909	67.24
202.128	34.47
202.347	22.19
202.566	-26.96
202.785	120.49
203.004	42.67
203.223	63.15
203.442	22.19
203.661	-16.73
203.879	50.86
204.098	30.38
204.317	102.06
204.536	91.82
204.755	-4.44
204.974	102.06
205.193	24.23
205.411	36.52
205.63	22.19
205.849	-59.73
206.068	-14.68
206.287	34.47
206.505	61.1
206.724	-16.73
206.943	-39.25
207.162	5.8
207.381	44.71
207.599	11.95
207.818	32.43
208.037	36.52
208.255	28.33
208.474	16.04
208.693	13.99
208.911	-20.82
209.13	44.71
209.349	11.95
209.567	13.99
209.786	59.05
210.005	79.53
210.223	16.04
210.442	-57.68
210.661	11.95
210.879	20.14
211.098	24.23
211.316	-22.87
211.535	-12.63
211.753	50.86
211.972	71.34
212.191	63.15
212.409	36.52
212.628	-0.34
212.846	28.33
213.065	54.95
213.283	61.1
213.502	-22.87
213.72	11.95
213.938	77.48
214.157	-4.44
214.375	-41.3
214.594	71.34
214.812	-51.54
215.031	-35.16
215.249	28.33
215.467	5.8
215.686	36.52
215.904	61.1
216.122	28.33
216.341	36.52
216.559	40.62
216.778	1.71
216.996	36.52
217.214	11.95
217.432	-43.35
217.651	-49.49
217.869	54.95
218.087	-16.73
218.306	13.99
218.524	-8.53
218.742	5.8
218.96	110.25
219.179	13.99
219.397	1.71
219.615	48.81
219.833	5.8
220.051	118.44
220.27	26.28
220.488	1.71
220.706	81.58
220.924	52.91
221.142	71.34
221.36	-2.39
221.578	57
221.796	3.75
222.015	-10.58
222.233	95.91
222.451	128.68
222.669	57
222.887	44.71
223.105	65.19
223.323	-18.77
223.541	18.09
223.759	-29.01
223.977	83.63
224.195	91.82
224.413	77.48
224.631	69.29
224.849	63.15
225.067	48.81
225.285	-20.82
225.503	61.1
225.721	22.19
225.939	-10.58
226.157	-8.53
226.375	48.81
226.592	-31.06
226.81	44.71
227.028	28.33
227.246	-24.92
227.464	-49.49
227.682	3.75
227.9	3.75
228.117	-29.01
228.335	22.19
228.553	38.57
228.771	-45.4
228.989	20.14
229.206	44.71
229.424	28.33
229.642	38.57
229.86	-31.06
230.077	-20.82
230.295	34.47
230.513	28.33
230.731	85.67
230.948	-18.77
231.166	46.76
231.384	26.28
231.601	-51.54
231.819	69.29
232.037	79.53
232.254	-12.63
232.472	24.23
232.689	46.76
232.907	69.29
233.125	13.99
233.342	40.62
233.56	-18.77
233.777	-43.35
233.995	69.29
234.213	26.28
234.43	-4.44
234.648	24.23
234.865	-16.73
235.083	77.48
235.3	16.04
235.518	-8.53
235.735	91.82
235.953	-0.34
236.17	40.62
236.388	44.71
236.605	61.1
236.822	28.33
237.04	24.23
237.257	54.95
237.475	-26.96
237.692	57
237.909	40.62
238.127	-8.53
238.344	54.95
238.562	-18.77
238.779	-8.53
238.996	9.9
239.214	-94.55
239.431	120.49
239.648	7.85
239.865	16.04
240.083	73.39
240.3	11.95
240.517	-35.16
240.735	61.1
240.952	116.39
241.169	-39.25
241.386	67.24
241.603	-14.68
241.821	-76.12
242.038	36.52
242.255	11.95
242.472	13.99
242.689	40.62
242.907	22.19
243.124	11.95
243.341	44.71
243.558	20.14
243.775	-12.63
243.992	50.86
244.209	81.58
244.426	65.19
244.643	85.67
244.86	38.57
245.078	22.19
245.295	28.33
245.512	63.15
245.729	34.47
245.946	40.62
246.163	42.67
246.38	-4.44
246.597	-22.87
246.814	28.33
247.031	26.28
247.248	20.14
247.464	52.91
247.681	32.43
247.898	16.04
248.115	73.39
248.332	-0.34
248.549	-0.34
248.766	-10.58
248.983	-4.44
249.2	32.43
249.417	-41.3
249.633	50.86
249.85	63.15
250.067	5.8
250.284	11.95
250.501	50.86
250.717	16.04
250.934	26.28
251.151	40.62
251.368	5.8
251.585	-12.63
251.801	73.39
252.018	-45.4
252.235	95.91
252.451	20.14
252.668	-26.96
252.885	-57.68
253.102	-4.44
253.318	54.95
253.535	30.38
253.752	-33.11
253.968	1.71
254.185	-14.68
254.401	-14.68
254.618	-33.11
254.835	-6.49
255.051	73.39
255.268	30.38
255.484	54.95
255.701	-47.44
255.917	-18.77
256.134	-53.59
256.351	32.43
256.567	5.8
256.784	22.19
257	95.91
257.217	50.86
257.433	48.81
257.65	95.91
257.866	69.29
258.082	-16.73
258.299	11.95
258.515	22.19
258.732	-10.58
258.948	-2.39
259.165	5.8
259.381	-0.34
259.597	24.23
259.814	28.33
260.03	77.48
260.246	18.09
260.463	71.34
260.679	67.24
260.895	30.38
261.112	48.81
261.328	-0.34
261.544	136.87
261.761	120.49
261.977	52.91
262.193	-8.53
262.409	3.75
262.626	18.09
262.842	52.91
263.058	9.9
263.274	61.1
263.49	75.43
263.707	3.75
263.923	13.99
264.139	3.75
264.355	-20.82
264.571	59.05
264.787	7.85
265.004	9.9
265.22	126.63
265.436	44.71
265.652	-2.39
265.868	11.95
266.084	22.19
266.3	61.1
266.516	9.9
266.732	44.71
266.948	36.52
267.164	52.91
267.38	67.24
267.596	81.58
267.812	50.86
268.028	52.91
268.244	34.47
268.46	-20.82
268.676	38.57
268.892	-0.34
269.108	-24.92
269.324	87.72
269.54	32.43
269.756	7.85
269.972	32.43
270.188	20.14
270.403	-12.63
270.619	5.8
270.835	26.28
271.051	30.38
271.267	57
271.483	36.52
271.698	-84.31
271.914	24.23
272.13	-2.39
272.346	-18.77
272.562	-16.73
272.777	-8.53
272.993	30.38
273.209	-45.4
273.425	-6.49
273.64	5.8
273.856	32.43
274.072	61.1
274.287	-16.73
274.503	40.62
274.719	36.52
274.934	16.04
275.15	-57.68
275.366	63.15
275.581	16.04
275.797	34.47
276.012	-20.82
276.228	50.86
276.444	106.15
276.659	65.19
276.875	3.75
277.09	71.34
277.306	26.28
277.521	81.58
277.737	71.34
277.952	59.05
278.168	-31.06
278.383	57
278.599	9.9
278.814	34.47
279.03	26.28
279.245	42.67
279.461	-45.4
279.676	-20.82
279.892	20.14
280.107	11.95
280.322	11.95
280.538	73.39
280.753	48.81
280.969	79.53
281.184	22.19
281.399	77.48
281.615	-26.96
281.83	-18.77
282.045	36.52
282.26	-43.35
282.476	-16.73
282.691	71.34
282.906	-47.44
283.122	24.23
283.337	-2.39
283.552	30.38
283.767	-20.82
283.983	24.23
284.198	75.43
284.413	65.19
284.628	-49.49
284.843	38.57
285.058	61.1
285.274	44.71
285.489	36.52
285.704	93.87
285.919	16.04
286.134	77.48
286.349	50.86
286.564	11.95
286.779	100.01
286.995	48.81
287.21	5.8
287.425	77.48
287.64	-2.39
287.855	-41.3
288.07	44.71
288.285	5.8
288.5	13.99
288.715	-14.68
288.93	52.91
289.145	-22.87
289.36	97.96
289.575	95.91
289.79	18.09
290.004	20.14
290.219	85.67
290.434	57
290.649	-8.53
290.864	57
291.079	3.75
291.294	-35.16
291.509	-12.63
291.724	73.39
291.938	-0.34
292.153	-31.06
292.368	-0.34
292.583	77.48
292.798	34.47
293.012	30.38
293.227	18.09
293.442	-47.44
293.657	52.91
293.871	30.38
294.086	52.91
294.301	-33.11
294.516	67.24
294.73	-26.96
294.945	-16.73
295.16	3.75
295.374	87.72
295.589	7.85
295.804	46.76
296.018	-51.54
296.233	-10.58
296.447	20.14
296.662	77.48
296.877	69.29
297.091	22.19
297.306	22.19
297.52	3.75
297.735	38.57
297.949	-12.63
298.164	40.62
298.378	18.09
298.593	-18.77
298.807	46.76
299.022	11.95
299.236	40.62
299.451	-18.77
299.665	13.99
299.88	52.91
300.094	40.62
300.309	9.9
300.523	50.86
300.737	13.99
300.952	50.86
301.166	38.57
301.381	46.76
301.595	44.71
301.809	106.15
302.024	-18.77
302.238	42.67
302.452	59.05
302.667	11.95
302.881	87.72
303.095	71.34
303.309	42.67
303.524	-69.97
303.738	-31.06
303.952	7.85
304.166	73.39
304.381	18.09
304.595	65.19
304.809	48.81
305.023	59.05
305.237	59.05
305.452	79.53
305.666	26.28
305.88	9.9
306.094	89.77
306.308	85.67
306.522	50.86
306.736	75.43
306.95	20.14
307.164	-8.53
307.379	67.24
307.593	26.28
307.807	-59.73
308.021	30.38
308.235	26.28
308.449	-43.35
308.663	52.91
308.877	85.67
309.091	77.48
309.305	20.14
309.519	46.76
309.733	-65.88
309.947	-8.53
310.161	36.52
310.374	63.15
310.588	71.34
310.802	-4.44
311.016	1.71
311.23	18.09
311.444	38.57
311.658	30.38
311.872	44.71
312.085	48.81
312.299	34.47
312.513	-0.34
312.727	-6.49
312.941	5.8
313.154	36.52
313.368	32.43
313.582	32.43
313.796	83.63
314.009	-0.34
314.223	73.39
314.437	-14.68
314.651	-12.63
314.864	61.1
315.078	-51.54
315.292	83.63
315.505	40.62
315.719	44.71
315.933	13.99
316.146	63.15
316.36	38.57
316.573	20.14
316.787	34.47
317.001	38.57
317.214	38.57
317.428	1.71
317.641	-22.87
317.855	67.24
318.068	59.05
318.282	91.82
318.495	40.62
318.709	-2.39
318.922	63.15
319.136	97.96
319.349	108.2
319.563	36.52
319.776	3.75
319.99	52.91
320.203	-39.25
320.417	28.33
320.63	46.76
320.843	102.06
321.057	26.28
321.27	20.14
321.483	36.52
321.697	79.53
321.91	9.9
322.124	40.62
322.337	59.05
322.55	11.95
322.763	69.29
322.977	-10.58
323.19	75.43
323.403	-18.77
323.617	26.28
323.83	-35.16
324.043	22.19
324.256	71.34
324.469	-10.58
324.683	69.29
324.896	52.91
325.109	-29.01
325.322	24.23
325.535	59.05
325.748	81.58
325.962	59.05
326.175	28.33
326.388	71.34
326.601	44.71
326.814	71.34
327.027	-24.92
327.24	126.63
327.453	-65.88
327.666	71.34
327.879	69.29
328.092	61.1
328.305	57
328.518	-6.49
328.731	-0.34
328.944	85.67
329.157	-6.49
329.37	36.52
329.583	57
329.796	71.34
330.009	-14.68
330.222	-0.34
330.435	32.43
330.648	13.99
330.861	61.1
331.073	54.95
331.286	-18.77
331.499	-31.06
331.712	20.14
331.925	30.38
332.138	69.29
332.35	69.29
332.563	-18.77
332.776	3.75
332.989	1.71
333.202	38.57
333.414	-35.16
333.627	-12.63
333.84	48.81
334.053	1.71
334.265	26.28
334.478	71.34
334.691	112.3
334.903	24.23
335.116	34.47
335.329	95.91
335.541	104.11
335.754	9.9
335.966	34.47
336.179	28.33
336.392	32.43
336.604	28.33
336.817	13.99
337.029	48.81
337.242	83.63
337.454	28.33
337.667	30.38
337.88	-49.49
338.092	22.19
338.305	-33.11
338.517	-29.01
338.729	50.86
338.942	110.25
339.154	54.95
339.367	22.19
339.579	85.67
339.792	97.96
340.004	20.14
340.217	52.91
340.429	11.95
340.641	-10.58
340.854	34.47
341.066	-4.44
341.278	93.87
341.491	7.85
341.703	42.67
341.915	3.75
342.128	57
342.34	79.53
342.552	-2.39
342.764	-10.58
342.977	36.52
343.189	-8.53
343.401	77.48
343.613	-43.35
343.826	11.95
344.038	73.39
344.25	3.75
344.462	13.99
344.674	52.91
344.886	46.76
345.099	54.95
345.311	71.34
345.523	59.05
345.735	63.15
345.947	-8.53
346.159	104.11
346.371	95.91
346.583	63.15
346.795	67.24
347.007	5.8
347.219	11.95
347.431	11.95
347.643	46.76
347.855	50.86
348.067	26.28
348.279	-8.53
348.491	34.47
348.703	91.82
348.915	-10.58
349.127	5.8
349.339	20.14
349.551	-4.44
349.763	46.76
349.975	7.85
350.187	16.04
350.399	36.52
350.61	50.86
350.822	48.81
351.034	77.48
351.246	38.57
351.458	36.52
351.669	-16.73
351.881	38.57
352.093	22.19
352.305	54.95
352.517	40.62
352.728	63.15
352.94	44.71
353.152	52.91
353.363	16.04
353.575	54.95
353.787	13.99
353.999	77.48
354.21	-0.34
354.422	28.33
354.633	26.28
354.845	34.47
355.057	112.3
355.268	-37.2
355.48	16.04
355.692	-22.87
355.903	42.67
356.115	20.14
356.326	46.76
356.538	46.76
356.749	77.48
356.961	65.19
357.172	28.33
357.384	50.86
357.595	83.63
357.807	91.82
358.018	-26.96
358.23	46.76
358.441	-12.63
358.653	75.43
358.864	20.14
359.075	46.76
359.287	-39.25
359.498	38.57
359.709	65.19
359.921	44.71
360.132	34.47
360.344	26.28
360.555	54.95
360.766	44.71
360.977	32.43
361.189	40.62
361.4	16.04
361.611	106.15
361.823	87.72
362.034	38.57
362.245	16.04
362.456	34.47
362.667	-45.4
362.879	77.48
363.09	32.43
363.301	44.71
363.512	-8.53
363.723	11.95
363.935	9.9
364.146	-12.63
364.357	61.1
364.568	54.95
364.779	11.95
364.99	20.14
365.201	-4.44
365.412	32.43
365.623	20.14
365.834	13.99
366.045	50.86
366.256	-2.39
366.467	-0.34
366.678	24.23
366.889	-10.58
367.1	-6.49
367.311	73.39
367.522	1.71
367.733	-14.68
367.944	79.53
368.155	-18.77
368.366	-2.39
368.577	36.52
368.788	75.43
368.999	-76.12
369.209	81.58
369.42	20.14
369.631	71.34
369.842	-4.44
370.053	16.04
370.264	69.29
370.474	18.09
370.685	-0.34
370.896	65.19
371.107	28.33
371.317	11.95
371.528	13.99
371.739	9.9
371.95	5.8
372.16	-14.68
372.371	38.57
372.582	28.33
372.792	81.58
373.003	-2.39
373.214	67.24
373.424	9.9
373.635	3.75
373.846	93.87
374.056	13.99
374.267	97.96
374.477	100.01
374.688	38.57
374.898	-29.01
375.109	11.95
375.319	20.14
375.53	77.48
375.74	3.75
375.951	85.67
376.161	61.1
376.372	16.04
376.582	65.19
376.793	65.19
377.003	28.33
377.214	50.86
377.424	77.48
377.635	-24.92
377.845	95.91
378.055	91.82
378.266	20.14
378.476	63.15
378.686	9.9
378.897	26.28
379.107	18.09
379.317	7.85
379.528	18.09
379.738	104.11
379.948	54.95
380.158	24.23
380.369	52.91
380.579	20.14
380.789	32.43
380.999	18.09
381.21	26.28
381.42	42.67
381.63	38.57
381.84	-6.49
382.05	28.33
382.261	75.43
382.471	24.23
382.681	28.33
382.891	87.72
383.101	40.62
383.311	22.19
383.521	75.43
383.731	61.1
383.941	48.81
384.151	-18.77
384.361	138.92
384.571	77.48
384.781	83.63
384.991	3.75
385.201	48.81
385.411	95.91
385.621	34.47
385.831	71.34
386.041	85.67
386.251	38.57
386.461	67.24
386.671	5.8
386.881	-12.63
387.091	65.19
387.301	63.15
387.511	9.9
387.72	54.95
387.93	44.71
388.14	-29.01
388.35	71.34
388.56	52.91
388.769	61.1
388.979	93.87
389.189	40.62
389.399	1.71
389.609	5.8
389.818	42.67
390.028	69.29
390.238	145.06
390.447	-33.11
390.657	36.52
390.867	46.76
391.076	61.1
391.286	28.33
391.496	54.95
391.705	5.8
391.915	73.39
392.125	-43.35
392.334	63.15
392.544	32.43
392.753	-18.77
392.963	13.99
393.172	34.47
393.382	34.47
393.591	97.96
393.801	71.34
394.01	112.3
394.22	-8.53
394.429	-4.44
394.639	52.91
394.848	85.67
395.058	46.76
395.267	22.19
395.477	30.38
395.686	136.87
395.895	3.75
396.105	120.49
396.314	40.62
396.524	106.15
396.733	36.52
396.942	130.73
397.152	59.05
397.361	79.53
397.57	-4.44
397.78	100.01
397.989	134.82
398.198	34.47
398.407	24.23
398.617	63.15
398.826	71.34
399.035	20.14
399.244	44.71
399.453	48.81
399.663	71.34
399.872	114.34
400.081	48.81
400.29	61.1
400.499	104.11
400.708	52.91
400.917	69.29
401.127	30.38
401.336	71.34
401.545	69.29
401.754	57
401.963	69.29
402.172	44.71
402.381	110.25
402.59	73.39
402.799	118.44
403.008	118.44
403.217	104.11
403.426	73.39
403.635	112.3
403.844	44.71
404.053	114.34
404.262	93.87
404.471	87.72
404.68	106.15
404.888	89.77
405.097	65.19
405.306	81.58
405.515	149.16
405.724	155.3
405.933	20.14
406.142	151.21
406.35	147.11
406.559	110.25
406.768	147.11
406.977	112.3
407.185	69.29
407.394	61.1
407.603	116.39
407.812	145.06
408.02	149.16
408.229	163.5
408.438	134.82
408.646	69.29
408.855	134.82
409.064	175.78
409.272	134.82
409.481	210.6
409.69	128.68
409.898	140.97
410.107	192.17
410.315	198.31
410.524	186.02
410.733	196.26
410.941	169.64
411.15	153.26
411.358	253.61
411.567	208.55
411.775	171.69
411.984	229.03
412.192	241.32
412.401	220.84
412.609	286.37
412.818	226.98
413.026	278.18
413.234	218.79
413.443	241.32
413.651	306.85
413.86	364.2
414.068	278.18
414.276	292.52
414.485	390.82
414.693	358.05
414.901	333.48
415.11	405.16
415.318	456.36
415.526	327.33
415.734	401.06
415.943	366.25
416.151	407.2
416.359	384.68
416.567	462.5
416.776	538.27
416.984	517.79
417.192	470.69
417.4	503.46
417.608	458.4
417.817	595.62
418.025	540.32
418.233	659.1
418.441	618.15
418.649	622.24
418.857	612
419.065	612
419.273	630.43
419.481	710.3
419.689	728.74
419.897	765.6
420.105	749.22
420.313	781.98
420.521	796.32
420.729	829.09
420.937	890.53
421.145	798.37
421.353	939.68
421.561	1060.51
421.769	937.63
421.977	1033.88
422.185	1033.88
422.393	1070.75
422.601	1212.06
422.809	1216.15
423.017	1158.81
423.224	1304.21
423.432	1312.41
423.64	1277.59
423.848	1441.43
424.056	1418.9
424.263	1488.53
424.471	1488.53
424.679	1435.28
424.887	1595.03
425.094	1627.79
425.302	1642.13
425.51	1726.1
425.718	1812.11
425.925	1799.82
426.133	1863.31
426.341	1957.52
426.548	2043.53
426.756	1908.37
426.964	2059.92
427.171	2129.55
427.379	2274.95
427.586	2160.27
427.794	2328.2
428.001	2414.21
428.209	2502.28
428.417	2528.9
428.624	2555.52
428.832	2551.43
429.039	2512.52
429.247	2612.87
429.454	2840.19
429.662	3014.27
429.869	2741.89
430.076	3051.13
430.284	2967.17
430.491	3186.3
430.699	3182.2
430.906	3321.46
431.114	3239.55
431.321	3432.05
431.528	3610.23
431.736	3681.91
431.943	3966.57
432.15	3812.98
432.358	3968.62
432.565	3970.67
432.772	4025.97
432.979	4243.05
433.187	4404.84
433.394	4181.61
433.601	4542.05
433.808	4658.79
434.016	4576.87
434.223	4841.06
434.43	5199.45
434.637	4945.5
434.844	5269.08
435.052	5432.92
435.259	5299.8
435.466	5365.34
435.673	5467.74
435.88	5789.27
436.087	5938.77
436.294	6202.96
436.501	5934.67
436.708	6055.5
436.915	6166.09
437.122	6518.34
437.329	6336.07
437.537	6635.08
437.743	6778.44
437.95	6813.25
438.157	7196.22
438.364	7353.91
438.571	7347.77
438.778	7411.26
438.985	7951.92
439.192	7798.32
439.399	7841.33
439.606	7863.86
439.813	8199.73
440.02	8633.89
440.227	8721.96
440.433	8500.78
440.64	8934.95
440.847	8629.8
441.054	9145.89
441.261	9590.3
441.467	9477.66
441.674	9651.74
441.881	9987.6
442.088	9895.44
442.294	9926.16
442.501	10202.64
442.708	10413.58
442.914	10700.3
443.121	11111.94
443.328	10864.13
443.534	11685.37
443.741	11488.76
443.948	11322.88
444.154	12023.28
444.361	11703.8
444.568	12195.31
444.774	12074.48
444.981	12258.8
445.187	12856.81
445.394	13395.42
445.6	12948.97
445.807	14384.59
446.013	13745.62
446.22	13866.46
446.426	14458.32
446.633	14552.52
446.839	15160.77
447.046	14630.35
447.252	15355.33
447.459	15373.76
447.665	15103.43
447.871	16027.06
448.078	16623.02
448.284	16113.08
448.491	16373.17
448.697	16879.02
448.903	17104.29
449.11	17524.13
449.316	16881.07
449.522	17501.6
449.728	17976.73
449.935	18029.98
450.141	17958.3
450.347	18406.8
450.553	17831.32
450.76	18210.2
450.966	18937.23
451.172	18417.04
451.378	19328.39
451.584	18812.3
451.791	19328.39
451.997	19125.64
452.203	19340.68
452.409	19602.82
452.615	19576.19
452.821	18640.27
453.027	18597.26
453.233	19391.87
453.44	18666.89
453.646	18957.71
453.852	18937.23
454.058	19438.98
454.264	18836.88
454.47	19314.05
454.676	18754.96
454.882	19269
455.088	17698.2
455.294	17968.54
455.5	18185.62
455.705	18480.53
455.911	17808.79
456.117	17296.8
456.323	17100.2
456.529	16340.4
456.735	17042.85
456.941	16594.35
457.147	16162.23
457.352	15789.5
457.558	15513.02
457.764	15545.79
457.97	15324.61
458.176	14818.76
458.381	14816.71
458.587	14253.52
458.793	14429.65
458.999	13436.38
459.204	14548.43
459.41	14005.72
459.616	13088.23
459.821	13225.44
460.027	12981.73
460.233	12756.46
460.438	12049.91
460.644	12494.32
460.85	11841.01
461.055	11478.52
461.261	11486.72
461.466	10876.42
461.672	10503.69
461.878	11032.07
462.083	10296.85
462.289	10284.56
462.494	10108.43
462.7	9627.16
462.905	9471.51
463.111	9754.13
463.316	9713.17
463.522	9530.91
463.727	9823.76
463.932	9590.3
464.138	9473.56
464.343	9592.34
464.549	9115.17
464.754	9479.71
464.959	9489.95
465.165	9385.5
465.37	8855.08
465.575	8883.75
465.781	9160.22
465.986	9023.01
466.191	8963.62
466.397	8492.59
466.602	8238.64
466.807	8705.57
467.012	8586.79
467.218	8576.55
467.423	8459.82
467.628	8443.43
467.833	8850.98
468.038	8494.63
468.244	8214.06
468.449	8519.21
468.654	8236.59
468.859	8207.92
469.064	8300.08
469.269	7935.54
469.474	7910.96
469.679	8056.37
469.885	7900.72
470.09	7802.42
470.295	7892.53
470.5	7865.91
470.705	7761.46
470.91	7681.59
471.115	7638.58
471.32	7663.16
471.525	7700.02
471.73	7452.22
471.935	7376.44
472.139	7317.05
472.344	7188.03
472.549	7179.84
472.754	7128.64
472.959	6956.61
473.164	6839.87
473.369	6630.98
473.574	6970.94
473.778	6886.98
473.983	6868.55
474.188	6794.82
474.393	6557.25
474.598	6624.84
474.802	6397.51
475.007	6323.79
475.212	6401.61
475.417	6172.24
475.621	6383.18
475.826	6317.64
476.031	6215.24
476.235	6051.41
476.44	6018.64
476.645	6067.79
476.849	5983.82
477.054	5914.19
477.259	6045.26
477.463	5934.67
477.668	5699.16
477.872	5811.79
478.077	5625.43
478.282	5490.26
478.486	5502.55
478.691	5512.79
478.895	5434.97
479.1	5348.95
479.304	5441.11
479.509	5232.22
479.713	5428.82
479.918	5373.53
480.122	5113.44
480.326	5181.02
480.531	5277.27
480.735	5105.24
480.94	5164.64
481.144	5295.71
481.348	5166.68
481.553	5072.48
481.757	4963.93
481.961	5019.23
482.166	5117.53
482.37	5183.07
482.574	4941.41
482.778	5060.19
482.983	5109.34
483.187	5082.72
483.391	5023.33
483.595	5125.72
483.8	4968.03
484.004	4980.32
484.208	5178.97
484.412	5066.33
484.616	5033.57
484.821	5058.14
485.025	5029.47
485.229	5148.25
485.433	4828.77
485.637	5082.72
485.841	5015.13
486.045	4863.58
486.249	5154.4
486.453	5066.33
486.657	5113.44
486.861	5092.96
487.065	4906.59
487.269	5041.76
487.473	5049.95
487.677	5011.04
487.881	5056.09
488.085	5025.37
488.289	5236.31
488.493	5041.76
488.697	5101.15
488.901	5166.68
489.105	5191.26
489.309	4990.56
489.512	5230.17
489.716	5027.42
489.92	5176.92
490.124	5060.19
490.328	5209.69
490.531	5109.34
490.735	5236.31
490.939	5264.99
491.143	5205.6
491.346	5224.03
491.55	5391.96
491.754	5172.83
491.958	5414.49
492.161	5344.86
492.365	5408.34
492.569	5246.55
492.772	5428.82
492.976	5322.33
493.18	5289.56
493.383	5650
493.587	5570.13
493.79	5699.16
493.994	5580.37
494.197	5695.06
494.401	5736.02
494.605	5789.27
494.808	5826.13
495.012	5676.63
495.215	6049.36
495.419	5955.15
495.622	5858.9
495.825	5901.9
496.029	5895.76
496.232	6055.5
496.436	5996.11
496.639	6243.92
496.843	6129.23
497.046	6377.03
497.249	6374.99
497.453	6346.31
497.656	6417.99
497.859	6596.17
498.063	6532.68
498.266	6831.68
498.469	6782.53
498.673	6815.3
498.876	6970.94
499.079	7126.59
499.282	7050.82
499.485	7175.74
499.689	7093.82
499.892	7349.82
500.095	7491.13
500.298	7589.43
500.501	7558.71
500.705	7718.45
500.908	7904.82
501.111	7951.92
501.314	7978.54
501.517	8130.09
501.72	8064.56
501.923	7937.59
502.126	8351.28
502.329	8533.54
502.532	8615.46
502.735	8631.85
502.938	8883.75
503.141	8760.87
503.344	8986.15
503.547	8992.29
503.75	9119.26
503.953	9236
504.156	9623.06
504.359	9389.6
504.562	9690.65
504.765	9584.15
504.968	9819.67
505.17	9940.5
505.373	9997.84
505.576	10286.61
505.779	10169.87
505.982	10223.12
506.185	10610.18
506.387	10690.06
506.59	10771.97
506.793	10808.84
506.996	10866.18
507.198	11302.4
507.401	11300.35
507.604	11269.63
507.807	11580.92
508.009	11773.43
508.212	11615.74
508.415	12027.38
508.617	12174.83
508.82	12273.14
509.022	11994.61
509.225	12658.15
509.428	12563.95
509.63	12918.25
509.833	12766.7
510.035	12930.53
510.238	12963.3
510.44	13270.5
510.643	13411.81
510.845	13698.52
511.048	13475.29
511.25	13798.87
511.453	13909.46
511.655	14460.37
511.858	14153.17
512.06	14355.92
512.262	14439.89
512.465	14910.92
512.667	15015.37
512.87	14880.2
513.072	15109.57
513.274	15254.98
513.477	15504.83
513.679	15779.26
513.881	15998.39
514.084	16195
514.286	16053.69
514.488	16203.19
514.69	16739.76
514.893	16778.67
515.095	16881.07
515.297	17280.42
515.499	17139.11
515.701	17477.02
515.904	17794.46
516.106	17970.58
516.308	18058.65
516.51	18136.47
516.712	18156.95
516.914	18376.08
517.116	18369.94
517.318	18718.09
517.52	18965.9
517.722	18787.72
517.925	19602.82
518.127	19611.01
518.329	19705.21
518.531	19756.41
518.733	19826.04
518.935	20163.96
519.136	20295.03
519.338	20583.79
519.54	20737.39
519.742	20667.76
519.944	20571.5
520.146	21230.95
520.348	21370.21
520.55	21570.91
520.752	21757.28
520.954	22084.95
521.155	21767.52
521.357	22285.65
521.559	22517.08
521.761	22752.59
521.963	23016.78
522.164	23082.31
522.366	23024.97
522.568	22961.48
522.77	23393.61
522.971	23948.61
523.173	23604.55
523.375	23670.08
523.576	23860.54
523.778	23909.69
523.98	24302.9
524.181	24610.1
524.383	24442.17
524.584	25056.56
524.786	24558.9
524.988	24970.54
525.189	25273.64
525.391	25154.86
525.592	25441.57
525.794	25615.65
525.995	25505.06
526.197	25691.43
526.398	25558.31
526.6	25916.7
526.801	26139.93
527.003	26348.82
527.204	25980.19
527.406	26823.95
527.607	26414.36
527.808	26496.28
528.01	26416.41
528.211	26623.25
528.412	26803.47
528.614	26914.06
528.815	26799.38
529.016	27251.98
529.218	26875.15
529.419	27348.23
529.62	27321.61
529.822	26903.82
530.023	27329.8
530.224	27415.82
530.425	27313.42
530.626	27071.76
530.828	27268.36
531.029	27956.48
531.23	27768.07
531.431	27747.59
531.632	27780.35
531.833	27557.13
532.035	27305.23
532.236	27714.82
532.437	27729.16
532.638	28005.63
532.839	27946.24
533.04	28103.93
533.241	27637
533.442	28278.01
533.643	27899.14
533.844	28099.84
534.045	28200.19
534.246	27669.76
534.447	28296.44
534.648	27632.9
534.849	28110.08
535.05	27958.53
535.251	28210.43
535.451	28472.57
535.652	28304.63
535.853	27876.61
536.054	28159.23
536.255	28167.42
536.456	28247.29
536.657	28642.55
536.857	28048.64
537.058	28001.54
537.259	28224.76
537.46	28290.3
537.66	27976.96
537.861	27942.14
538.062	28161.28
538.263	28325.11
538.463	28386.55
538.664	28032.25
538.865	28122.37
539.065	28296.44
539.266	27936
539.466	28493.05
539.667	27757.83
539.868	28501.24
540.068	28048.64
540.269	28255.48
540.469	28306.68
540.67	28212.48
540.87	28536.06
541.071	28120.32
541.271	28099.84
541.472	28038.4
541.672	28022.02
541.873	27919.62
542.073	27845.89
542.274	28372.22
542.474	28300.54
542.675	27852.03
542.875	28237.05
543.075	28007.68
543.276	27800.83
543.476	28288.25
543.676	28175.61
543.877	28417.27
544.077	28060.93
544.277	27790.59
544.478	28153.09
544.678	28421.37
544.878	28247.29
545.078	28189.95
545.279	27536.65
545.479	27823.36
545.679	28400.89
545.879	28200.19
546.079	27829.51
546.28	27843.84
546.48	27901.18
546.68	28431.61
546.88	27809.03
547.08	28206.33
547.28	28378.36
547.48	27927.81
547.68	27962.62
547.88	27813.12
548.081	27991.3
548.281	28024.06
548.481	28019.97
548.681	28151.04
548.881	28089.6
549.081	28163.32
549.28	27778.31
549.48	28232.96
549.68	27964.67
549.88	28241.15
550.08	27921.66
550.28	28060.93
550.48	27905.28
550.68	28003.58
550.88	27618.57
551.08	27784.45
551.279	27899.14
551.479	27419.91
551.679	27923.71
551.879	27854.08
552.079	28239.1
552.278	27800.83
552.478	27806.98
552.678	27682.05
552.878	27827.46
553.077	27792.64
553.277	27815.17
553.477	28103.93
553.676	27522.31
553.876	27559.17
554.076	27634.95
554.275	27323.66
554.475	27497.74
554.674	27876.61
554.874	27731.2
555.074	27409.67
555.273	27622.66
555.473	27841.79
555.672	27452.68
555.872	27335.95
556.071	27706.63
556.271	27741.44
556.47	27528.45
556.67	27571.46
556.869	27485.45
557.068	27434.25
557.268	27016.46
557.467	27419.91
557.667	27370.76
557.866	27151.63
558.065	27434.25
558.265	27038.99
558.464	27063.57
558.663	27526.41
558.863	26844.43
559.062	27266.31
559.261	26858.77
559.461	27436.3
559.66	26819.86
559.859	27018.51
560.058	26852.62
560.258	26879.25
560.457	26756.37
560.656	26924.3
560.855	27022.61
561.054	26750.23
561.253	26621.2
561.453	26311.96
561.652	26426.65
561.851	26567.96
562.05	26395.93
562.249	26436.89
562.448	26774.8
562.647	26524.95
562.846	26504.47
563.045	26496.28
563.244	26271
563.443	26412.31
563.642	25845.02
563.841	26174.75
564.04	25802.02
564.239	26367.26
564.438	25918.75
564.637	26008.86
564.836	26285.34
565.035	25752.87
565.234	25931.04
565.432	25591.08
565.631	25898.27
565.83	25771.3
566.029	25492.77
566.228	25507.11
566.427	25271.59
566.625	25337.13
566.824	25320.74
567.023	25738.53
567.222	24941.87
567.42	25310.5
567.619	25236.78
567.818	25300.26
568.016	25101.61
568.215	25474.34
568.414	24792.37
568.612	25322.79
568.811	24745.27
569.01	25126.19
569.208	24765.74
569.407	24935.73
569.605	24597.81
569.804	24767.79
570.002	24296.76
570.201	24421.69
570.4	24409.4
570.598	24382.77
570.797	24044.86
570.995	24431.93
571.193	23954.75
571.392	24288.57
571.59	23846.21
571.789	23958.85
571.987	24022.33
572.186	23717.18
572.384	23729.47
572.582	23995.71
572.781	23819.58
572.979	23311.69
573.177	23416.13
573.376	23436.61
573.574	23508.29
573.772	23522.63
573.971	23387.46
574.169	23094.6
574.367	23119.18
574.565	23401.8
574.763	23221.58
574.962	23471.43
575.16	22992.2
575.358	23123.27
575.556	23010.64
575.754	23145.8
575.952	22494.55
576.151	23129.42
576.349	22527.31
576.547	22834.51
576.745	22343
576.943	22482.26
577.141	22273.37
577.339	22746.45
577.537	22437.2
577.735	22519.12
577.933	22105.43
578.131	22355.29
578.329	22201.69
578.527	22166.87
578.725	22009.18
578.923	22189.4
579.121	21824.86
579.319	21564.77
579.516	22261.08
579.714	21955.93
579.912	21826.91
580.11	21589.35
580.308	21566.82
580.506	21384.55
580.704	21534.05
580.901	21357.92
581.099	21581.15
581.297	21398.88
581.495	21173.61
581.692	21310.82
581.89	20847.98
582.088	21007.72
582.285	20987.24
582.483	21063.02
582.681	20897.13
582.878	20690.29
583.076	20634.99
583.274	20864.36
583.471	20405.62
583.669	20778.35
583.866	20485.49
584.064	20739.44
584.262	20288.89
584.459	20471.15
584.657	20397.43
584.854	20436.34
585.052	20051.32
585.249	20434.29
585.447	20196.73
585.644	19817.85
585.841	20135.29
586.039	20241.78
586.236	19877.24
586.434	19795.32
586.631	19893.63
586.828	19875.2
587.026	19639.68
587.223	19676.54
587.42	19670.4
587.618	19430.79
587.815	19203.46
588.012	19461.51
588.21	19107.21
588.407	19529.09
588.604	19246.47
588.801	19178.89
588.999	19166.6
589.196	18978.19
589.393	19107.21
589.59	19123.59
589.787	18806.16
589.984	18603.41
590.182	18625.93
590.379	18560.4
590.576	18539.92
590.773	18417.04
590.97	18544.02
591.167	18728.33
591.364	18675.09
591.561	18576.78
591.758	18156.95
591.955	18324.88
592.152	18478.48
592.349	18093.46
592.546	18324.88
592.743	18183.57
592.94	17708.44
593.137	18152.85
593.334	18105.75
593.531	17943.96
593.727	17659.29
593.924	18005.4
594.121	17403.3
594.318	17577.37
594.515	17567.13
594.712	17735.07
594.908	17448.35
595.105	17517.98
595.302	17266.08
595.499	17468.83
595.696	17397.15
595.892	17276.32
596.089	17274.28
596.286	17421.73
596.482	17206.69
596.679	17169.83
596.876	17315.23
597.072	16952.74
597.269	17075.62
597.466	16948.65
597.662	16762.28
597.859	16942.5
598.055	16985.51
598.252	16555.44
598.448	16819.63
598.645	16375.22
598.841	16375.22
599.038	16391.6
599.234	16289.2
599.431	16281.01
599.627	16264.63
599.824	16428.46
600.02	16364.98
600.217	16252.34
600.413	16360.88
600.609	16065.97
600.806	15814.07
601.002	16225.72
601.198	15910.33
601.395	15795.64
601.591	15857.08
601.787	15762.87
601.984	15824.31
602.18	16002.49
602.376	15752.63
602.572	15746.49
602.769	15570.37
602.965	15586.75
603.161	15678.91
603.357	15365.57
603.553	15586.75
603.75	15396.29
603.946	15261.12
604.142	15361.47
604.338	15117.76
604.534	15078.85
604.73	14966.21
604.926	15027.65
605.122	15070.66
605.318	15037.89
605.514	14837.19
605.71	14876.1
605.906	14785.99
606.102	14796.23
606.298	14939.59
606.494	14785.99
606.69	14712.27
606.886	14708.17
607.082	14679.5
607.278	14613.96
607.474	14026.2
607.67	14742.99
607.866	14620.11
608.062	14562.76
608.257	14378.45
608.453	14376.4
608.649	14413.26
608.845	14228.95
609.041	14274
609.236	14296.53
609.432	14284.24
609.628	14136.79
609.824	14110.16
610.019	14071.25
610.215	14018
610.411	13958.61
610.606	14239.19
610.802	13860.31
610.998	14087.64
611.193	13759.96
611.389	13811.16
611.584	13643.23
611.78	13704.67
611.976	13874.65
612.171	13874.65
612.367	13737.43
612.562	13589.98
612.758	13544.92
612.953	13450.72
613.149	13643.23
613.344	13458.91
613.539	13659.61
613.735	13436.38
613.93	13417.95
614.126	13389.28
614.321	13360.61
614.517	13227.49
614.712	13276.64
614.907	13262.3
615.103	13497.82
615.298	13358.56
615.493	13127.14
615.688	13139.43
615.884	13434.33
616.079	13057.51
616.274	12963.3
616.47	13264.35
616.665	13168.1
616.86	12944.87
617.055	12871.14
617.25	12844.52
617.445	12948.97
617.641	12725.74
617.836	12752.36
618.031	12662.25
618.226	12748.26
618.421	12717.54
618.616	12582.38
618.811	12402.16
619.006	12649.96
619.201	12324.33
619.396	12537.32
619.591	12316.14
619.786	12461.55
619.981	12090.87
620.176	12418.54
620.371	12021.24
620.566	12221.94
620.761	12058.1
620.956	12115.44
621.151	11875.83
621.346	12013.04
621.541	11853.3
621.735	11976.18
621.93	11593.21
622.125	11752.95
622.32	11529.72
622.515	11720.18
622.709	11505.15
622.904	11585.02
623.099	11423.23
623.294	11341.31
623.488	11173.38
623.683	11286.01
623.878	11226.62
624.072	11068.93
624.267	11341.31
624.462	11021.83
624.656	10864.13
624.851	10925.57
625.046	10812.93
625.24	10698.25
625.435	10653.19
625.629	10624.52
625.824	10587.66
626.018	10434.06
626.213	10378.76
626.407	10464.78
626.602	10401.29
626.796	10409.48
626.991	10339.85
627.185	10241.55
627.38	10001.94
627.574	10044.95
627.768	10053.14
627.963	10104.34
628.157	9936.4
628.352	10003.99
628.546	9913.88
628.74	9903.64
628.935	9659.93
629.129	9653.78
629.323	9623.06
629.517	9649.69
629.712	9424.41
629.906	9696.79
630.1	9428.51
630.294	9524.76
630.489	9430.55
630.683	9231.9
630.877	9078.3
631.071	9248.29
631.265	9258.53
631.459	9018.91
631.653	8930.85
631.848	8793.64
632.042	8896.03
632.236	9078.3
632.43	8764.96
632.624	9051.68
632.818	8633.89
633.012	8865.32
633.206	8850.98
633.4	8511.02
633.594	8621.61
633.788	8488.49
633.982	8468.01
634.176	8554.02
634.369	8556.07
634.563	8322.6
634.757	8181.29
634.951	8347.18
635.145	8263.21
635.339	8314.41
635.533	8410.67
635.726	8201.77
635.92	7882.29
636.114	8111.66
636.308	8103.47
636.501	8025.65
636.695	7960.11
636.889	7925.3
637.083	7829.04
637.276	7616.05
637.47	7650.87
637.664	7452.22
637.857	7757.36
638.051	7771.7
638.244	7487.03
638.438	7607.86
638.632	7583.29
638.825	7304.76
639.019	7482.94
639.212	7282.24
639.406	7341.63
639.599	7247.42
639.793	7458.36
639.986	7169.6
640.18	7185.98
640.373	7140.93
640.567	6991.42
640.76	6948.42
640.954	6878.79
641.147	7108.16
641.34	6960.7
641.534	7024.19
641.727	6938.18
641.92	6938.18
642.114	6809.15
642.307	6647.37
642.5	6780.48
642.694	6481.48
642.887	6678.08
643.08	6604.36
643.273	6571.59
643.467	6524.49
643.66	6516.3
643.853	6327.88
644.046	6321.74
644.239	6323.79
644.432	6372.94
644.626	6334.03
644.819	6389.32
645.012	6174.28
645.205	6274.63
645.398	6123.09
645.591	5936.72
645.784	6030.93
645.977	6049.36
646.17	5975.63
646.363	5903.95
646.556	5834.32
646.749	5959.25
646.942	5817.94
647.135	5836.37
647.328	5787.22
647.521	5822.03
647.714	5674.58
647.907	5770.83
648.099	5764.69
648.292	5674.58
648.485	5578.33
648.678	5402.2
648.871	5582.42
649.064	5457.5
649.256	5498.45
649.449	5484.12
649.642	5514.84
649.835	5324.38
650.027	5244.51
650.22	5232.22
650.413	5297.75
650.605	5254.75
650.798	5307.99
650.991	5174.88
651.183	5275.23
651.376	4943.46
651.568	5168.73
651.761	5082.72
651.954	5058.14
652.146	5037.66
652.339	4982.37
652.531	5064.29
652.724	5031.52
652.916	4959.84
653.109	4976.22
653.301	4869.73
653.494	4863.58
653.686	4714.08
653.879	4886.11
654.071	4763.23
654.263	4849.25
654.456	4830.82
654.648	4748.9
654.84	4656.74
655.033	4585.06
655.225	4703.84
655.417	4642.4
655.61	4630.12
655.802	4730.47
655.994	4390.5
656.186	4603.49
656.379	4394.6
656.571	4388.46
656.763	4230.76
656.955	4476.52
657.148	4347.5
657.34	4480.61
657.532	4157.04
657.724	4222.57
657.916	4357.74
658.108	4218.47
658.3	4241
658.492	4138.6
658.684	4185.71
658.876	4077.16
659.068	4224.62
659.26	4107.88
659.452	4183.66
659.644	3978.86
659.836	4046.44
660.028	3948.14
660.22	3923.57
660.412	4056.68
660.604	3819.12
660.796	3837.55
660.988	3892.85
661.18	3913.33
661.372	3882.61
661.563	3892.85
661.755	3812.98
661.947	3851.89
662.139	3753.59
662.331	3636.85
662.522	3698.29
662.714	3733.11
662.906	3626.61
663.097	3559.03
663.289	3528.31
663.481	3614.32
663.673	3649.14
663.864	3628.66
664.056	3458.68
664.247	3454.58
664.439	3507.83
664.631	3368.57
664.822	3575.41
665.014	3348.09
665.205	3581.56
665.397	3368.57
665.588	3446.39
665.78	3401.33
665.971	3442.29
666.163	3470.97
666.354	3321.46
666.546	3280.5
666.737	3233.4
666.929	3360.38
667.12	3341.94
667.311	3317.37
667.503	3184.25
667.694	3116.67
667.885	3116.67
668.077	3180.15
668.268	3116.67
668.459	3204.73
668.651	3104.38
668.842	3137.15
669.033	3051.13
669.224	3085.95
669.416	3100.28
669.607	3104.38
669.798	3118.72
669.989	3116.67
670.18	3016.32
670.371	3104.38
670.563	3036.8
670.754	3042.94
670.945	2965.12
671.136	2965.12
671.327	2913.92
671.518	2967.17
671.709	2899.58
671.9	2819.71
672.091	2870.91
672.282	2903.68
672.473	2834.05
672.664	2829.95
672.855	2752.13
673.046	2854.53
673.237	2864.77
673.428	2709.12
673.619	2807.42
673.809	2772.61
674	2875.01
674.191	2799.23
674.382	2739.84
674.573	2748.03
674.764	2766.46
674.954	2637.44
675.145	2698.88
675.336	2813.57
675.527	2690.69
675.717	2762.37
675.908	2633.35
676.099	2676.35
676.289	2567.81
676.48	2555.52
676.671	2776.7
676.861	2657.92
677.052	2604.67
677.243	2551.43
677.433	2506.37
677.624	2637.44
677.814	2592.39
678.005	2508.42
678.195	2594.44
678.386	2545.28
678.576	2590.34
678.767	2659.97
678.957	2619.01
679.148	2569.86
679.338	2481.8
679.529	2606.72
679.719	2633.35
679.909	2584.2
680.1	2485.89
680.29	2442.89
680.481	2584.2
680.671	2592.39
680.861	2553.48
681.052	2461.32
681.242	2430.6
681.432	2571.91
681.622	2580.1
681.813	2492.04
682.003	2475.65
682.193	2379.4
682.383	2483.84
682.573	2381.45
682.764	2440.84
682.954	2467.46
683.144	2412.17
683.334	2428.55
683.524	2406.02
683.714	2451.08
683.904	2539.14
684.094	2430.6
684.284	2530.95
684.474	2383.49
684.664	2434.69
684.854	2336.39
685.044	2475.65
685.234	2524.8
685.424	2356.87
685.614	2457.22
685.804	2416.26
685.994	2397.83
686.184	2342.53
686.374	2369.16
686.564	2399.88
686.753	2379.4
686.943	2403.97
687.133	2377.35
687.323	2365.06
687.513	2422.41
687.702	2438.79
687.892	2248.33
688.082	2367.11
688.272	2449.03
688.461	2305.67
688.651	2170.51
688.841	2221.7
689.03	2176.65
689.22	2221.7
689.41	2244.23
689.599	2274.95
689.789	2254.47
689.979	2205.32
690.168	2260.62
690.358	2242.18
690.547	2274.95
690.737	2346.63
690.926	2260.62
691.116	2309.77
691.305	2363.01
691.495	2246.28
691.684	2233.99
691.874	2266.76
692.063	2254.47
692.252	2182.79
692.442	2240.14
692.631	2188.94
692.82	2309.77
693.01	2197.13
693.199	2147.98
693.388	2244.23
693.578	2231.94
693.767	2178.7
693.956	2219.66
694.146	2184.84
694.335	2221.7
694.524	2100.87
694.713	2152.07
694.902	2078.35
695.092	2225.8
695.281	2023.05
695.47	2068.11
695.659	2141.83
695.848	2174.6
696.037	2205.32
696.226	2182.79
696.415	2156.17
696.604	2143.88
696.793	2121.35
696.982	2186.89
697.171	2102.92
697.36	2094.73
697.549	2047.63
697.738	2127.5
697.927	2150.03
698.116	2104.97
698.305	1988.24
698.494	2055.82
698.683	2127.5
698.872	2066.06
699.061	2043.53
699.25	2078.35
699.438	2031.24
699.627	2004.62
699.816	1961.61
700.005	2033.29
700.193	2084.49
700.382	2133.64
700.571	2027.15
700.76	1971.85
700.948	2156.17
701.137	2061.96
701.326	2092.68
701.514	1916.56
701.703	1994.38
701.892	1967.76
702.08	1984.14
702.269	1986.19
702.457	1918.61
702.646	2049.68
702.834	1904.27
703.023	1951.37
703.212	2047.63
703.4	1986.19
703.589	1975.95
703.777	1912.46
703.965	1955.47
704.154	1918.61
704.342	1904.27
704.531	1994.38
704.719	1945.23
704.907	1894.03
705.096	1883.79
705.284	1969.8
705.472	1922.7
705.661	1949.32
705.849	1826.45
706.037	1816.21
706.226	1775.25
706.414	1887.89
706.602	1846.93
706.79	1873.55
706.979	1953.42
707.167	1855.12
707.355	1863.31
707.543	1846.93
707.731	1851.02
707.919	1818.25
708.107	1750.67
708.296	1873.55
708.484	1803.92
708.672	1896.08
708.86	1812.11
709.048	1769.1
709.236	1713.81
709.424	1793.68
709.612	1642.13
709.8	1803.92
709.988	1799.82
710.176	1851.02
710.364	1822.35
710.551	1771.15
710.739	1756.82
710.927	1775.25
711.115	1781.39
711.303	1762.96
711.491	1726.1
711.679	1787.54
711.866	1732.24
712.054	1699.47
712.242	1713.81
712.43	1842.83
712.617	1633.94
712.805	1765.01
712.993	1846.93
713.181	1609.36
713.368	1728.14
713.556	1742.48
713.744	1676.95
713.931	1724.05
714.119	1707.66
714.306	1629.84
714.494	1713.81
714.682	1709.71
714.869	1615.51
715.057	1693.33
715.244	1676.95
715.432	1627.79
715.619	1572.5
715.807	1586.83
715.994	1617.55
716.182	1689.23
716.369	1654.42
716.556	1605.27
716.744	1633.94
716.931	1709.71
717.119	1664.66
717.306	1615.51
717.493	1697.42
717.681	1697.42
717.868	1699.47
718.055	1627.79
718.242	1611.41
718.43	1631.89
718.617	1543.83
718.804	1496.72
718.991	1599.12
719.179	1595.03
719.366	1609.36
719.553	1652.37
719.74	1601.17
719.927	1470.1
720.114	1590.93
720.301	1599.12
720.488	1543.83
720.676	1504.92
720.863	1592.98
721.05	1515.16
721.237	1578.64
721.424	1633.94
721.611	1556.11
721.798	1474.2
721.985	1392.28
722.172	1568.4
722.358	1490.58
722.545	1564.31
722.732	1531.54
722.919	1533.59
723.106	1576.59
723.293	1535.64
723.48	1455.76
723.667	1461.91
723.853	1437.33
724.04	1515.16
724.227	1525.4
724.414	1552.02
724.6	1427.09
724.787	1554.07
724.974	1451.67
725.161	1472.15
725.347	1437.33
725.534	1443.48
725.72	1504.92
725.907	1453.72
726.094	1382.04
726.28	1429.14
726.467	1515.16
726.653	1472.15
726.84	1463.96
727.027	1394.33
727.213	1388.18
727.4	1425.04
727.586	1480.34
727.773	1412.76
727.959	1418.9
728.145	1445.52
728.332	1357.46
728.518	1523.35
728.705	1474.2
728.891	1480.34
729.077	1416.85
729.264	1425.04
729.45	1392.28
729.636	1478.29
729.823	1398.42
730.009	1394.33
730.195	1392.28
730.382	1392.28
730.568	1386.13
730.754	1410.71
730.94	1486.48
731.126	1482.39
731.313	1390.23
731.499	1347.22
731.685	1398.42
731.871	1347.22
732.057	1390.23
732.243	1379.99
732.429	1379.99
732.615	1343.13
732.801	1406.61
732.987	1382.04
733.173	1334.93
733.359	1347.22
733.545	1277.59
733.731	1423
733.917	1365.65
734.103	1453.72
734.289	1382.04
734.475	1363.61
734.661	1341.08
734.847	1330.84
735.033	1396.37
735.219	1388.18
735.404	1392.28
735.59	1308.31
735.776	1336.98
735.962	1427.09
736.148	1375.89
736.333	1283.74
736.519	1277.59
736.705	1341.08
736.89	1298.07
737.076	1244.82
737.262	1234.58
737.447	1291.93
737.633	1279.64
737.819	1265.3
738.004	1283.74
738.19	1232.54
738.375	1277.59
738.561	1296.02
738.747	1203.86
738.932	1349.27
739.118	1293.97
739.303	1273.5
739.489	1244.82
739.674	1312.41
739.859	1250.97
740.045	1181.34
740.23	1359.51
740.416	1181.34
740.601	1248.92
740.786	1253.02
740.972	1123.99
741.157	1265.3
741.342	1169.05
741.528	1121.95
741.713	1371.8
741.898	1314.45
742.084	1193.62
742.269	1265.3
742.454	1171.1
742.639	1253.02
742.824	1210.01
743.01	1171.1
743.195	1191.58
743.38	1214.1
743.565	1259.16
743.75	1240.73
743.935	1146.52
744.12	1154.71
744.305	1191.58
744.49	1185.43
744.675	1134.23
744.86	1136.28
745.045	1087.13
745.23	1025.69
745.415	1189.53
745.6	1136.28
745.785	1119.9
745.97	1111.71
746.155	1160.86
746.34	1072.79
746.525	1148.57
746.71	1189.53
746.895	1066.65
747.079	1052.31
747.264	1048.22
747.449	1072.79
747.634	1070.75
747.819	1037.98
748.003	1060.51
748.188	1019.55
748.373	1076.89
748.557	1007.26
748.742	997.02
748.927	1023.64
749.111	1060.51
749.296	956.06
749.481	1087.13
749.665	1005.21
749.85	976.54
750.034	968.35
750.219	1040.03
750.404	976.54
750.588	906.91
750.773	884.38
750.957	933.53
751.141	999.07
751.326	1011.36
751.51	968.35
751.695	925.34
751.879	902.81
752.064	960.16
752.248	835.23
752.432	958.11
752.617	908.96
752.801	884.38
752.985	851.61
753.17	841.37
753.354	843.42
753.538	915.1
753.722	880.29
753.907	876.19
754.091	757.41
754.275	839.33
754.459	841.37
754.643	833.18
754.828	857.76
755.012	824.99
755.196	919.2
755.38	841.37
755.564	847.52
755.748	728.74
755.932	792.22
756.116	798.37
756.3	794.27
756.484	751.26
756.668	861.85
756.852	720.54
757.036	741.02
757.22	831.13
757.404	734.88
757.588	745.12
757.772	718.5
757.956	693.92
758.14	773.79
758.323	765.6
758.507	655.01
758.691	781.98
758.875	773.79
759.059	704.16
759.242	665.25
759.426	638.62
759.61	720.54
759.794	693.92
759.977	652.96
760.161	663.2
760.345	753.31
760.528	738.98
760.712	784.03
760.895	657.06
761.079	716.45
761.263	626.34
761.446	575.14
761.63	679.58
761.813	624.29
761.997	556.71
762.18	607.91
762.364	573.09
762.547	599.71
762.731	642.72
762.914	622.24
763.098	605.86
763.281	644.77
763.464	642.72
763.648	622.24
763.831	601.76
764.015	612
764.198	661.15
764.381	589.47
764.564	638.62
764.748	591.52
764.931	593.57
765.114	607.91
765.297	593.57
765.481	583.33
765.664	577.19
765.847	603.81
766.03	566.95
766.213	546.47
766.397	632.48
766.58	648.86
766.763	634.53
766.946	568.99
767.129	626.34
767.312	642.72
767.495	560.8
767.678	536.23
767.861	552.61
768.044	556.71
768.227	597.67
768.41	505.51
768.593	581.28
768.776	609.95
768.959	585.38
769.142	595.62
769.324	575.14
769.507	532.13
769.69	519.84
769.873	556.71
770.056	630.43
770.239	521.89
770.421	589.47
770.604	550.56
770.787	583.33
770.97	571.04
771.152	466.6
771.335	503.46
771.518	442.02
771.7	511.65
771.883	558.75
772.066	546.47
772.248	525.99
772.431	538.27
772.613	558.75
772.796	454.31
772.978	431.78
773.161	464.55
773.343	573.09
773.526	491.17
773.708	485.03
773.891	439.97
774.073	470.69
774.256	513.7
774.438	493.22
774.621	444.07
774.803	468.64
774.985	429.73
775.168	497.32
775.35	464.55
775.532	489.12
775.715	499.36
775.897	501.41
776.079	466.6
776.261	491.17
776.444	409.25
776.626	448.16
776.808	419.49
776.99	388.77
777.173	362.15
777.355	417.44
777.537	356.01
777.719	325.29
777.901	462.5
778.083	466.6
778.265	370.34
778.447	394.92
778.629	399.01
778.811	339.62
778.993	454.31
779.175	380.58
779.357	399.01
779.539	331.43
779.721	335.53
779.903	431.78
780.085	405.16
780.267	392.87
780.449	302.76
780.631	362.15
780.812	341.67
780.994	323.24
781.176	366.25
781.358	353.96
781.54	333.48
781.721	284.33
781.903	358.05
782.085	308.9
782.267	370.34
782.448	253.61
782.63	349.86
782.812	376.48
782.993	325.29
783.175	394.92
783.357	265.89
783.538	360.1
783.72	333.48
783.901	335.53
784.083	278.18
784.264	333.48
784.446	226.98
784.627	313
784.809	282.28
784.99	265.89
785.172	163.5
785.353	347.81
785.535	280.23
785.716	315.05
785.897	235.18
786.079	237.22
786.26	317.09
786.441	286.37
786.623	200.36
786.804	286.37
786.985	310.95
787.167	255.65
787.348	249.51
787.529	306.85
787.71	243.37
787.891	200.36
788.073	177.83
788.254	267.94
788.435	333.48
788.616	282.28
788.797	286.37
788.978	310.95
789.159	218.79
789.34	265.89
789.522	208.55
789.703	194.22
789.884	317.09
790.065	259.75
790.246	261.8
790.427	183.98
790.607	188.07
790.788	188.07
790.969	161.45
791.15	210.6
791.331	149.16
791.512	175.78
791.693	204.46
791.874	237.22
792.054	300.71
792.235	200.36
792.416	177.83
792.597	212.65
792.778	169.64
792.958	200.36
793.139	200.36
793.32	196.26
793.5	206.5
793.681	229.03
793.862	243.37
794.042	208.55
794.223	145.06
794.404	286.37
794.584	145.06
794.765	112.3
794.945	145.06
795.126	157.35
795.306	151.21
795.487	134.82
795.667	192.17
795.848	224.94
796.028	206.5
796.209	147.11
796.389	196.26
796.57	186.02
796.75	151.21
796.93	206.5
797.111	136.87
797.291	243.37
797.471	190.12
797.652	218.79
797.832	237.22
798.012	169.64
798.192	173.74
798.373	149.16
798.553	200.36
798.733	159.4
798.913	93.87
799.093	128.68
799.274	167.59
799.454	188.07
799.634	130.73
799.814	157.35
799.994	145.06
800.174	106.15
800.354	235.18
800.534	126.63
800.714	194.22
800.894	95.91
801.074	67.24
801.254	83.63
801.434	157.35
801.614	190.12
801.794	192.17
801.974	343.72
802.154	151.21
802.334	145.06
802.514	143.02
802.693	157.35
802.873	118.44
803.053	173.74
803.233	161.45
803.413	171.69
803.592	140.97
803.772	57
803.952	91.82
804.131	120.49
804.311	155.3
804.491	147.11
804.67	126.63
804.85	145.06
805.03	155.3
805.209	167.59
805.389	194.22
805.568	132.78
805.748	130.73
805.928	118.44
806.107	153.26
806.287	140.97
806.466	169.64
806.646	122.54
806.825	153.26
807.004	183.98
807.184	97.96
807.363	134.82
807.543	124.58
807.722	132.78
807.901	145.06
808.081	93.87
808.26	130.73
808.439	155.3
808.619	110.25
808.798	85.67
808.977	110.25
809.156	110.25
809.336	28.33
809.515	179.88
809.694	54.95
809.873	71.34
810.052	104.11
810.231	153.26
810.411	102.06
810.59	112.3
810.769	71.34
810.948	183.98
811.127	67.24
811.306	44.71
811.485	71.34
811.664	167.59
811.843	130.73
812.022	28.33
812.201	73.39
812.38	57
812.559	149.16
812.737	163.5
812.916	50.86
813.095	44.71
813.274	130.73
813.453	143.02
813.632	136.87
813.811	163.5
813.989	124.58
814.168	89.77
814.347	163.5
814.526	112.3
814.704	147.11
814.883	128.68
815.062	126.63
815.24	102.06
815.419	93.87
815.598	44.71
815.776	104.11
815.955	145.06
816.133	63.15
816.312	85.67
816.49	87.72
816.669	118.44
816.847	134.82
817.026	128.68
817.204	48.81
817.383	73.39
817.561	138.92
817.74	130.73
817.918	97.96
818.097	48.81
818.275	54.95
818.453	104.11
818.632	65.19
818.81	91.82
818.988	77.48
819.167	89.77
819.345	93.87
819.523	69.29
819.701	13.99
819.879	110.25
820.058	50.86
820.236	61.1
820.414	118.44
820.592	65.19
820.77	71.34
820.948	77.48
821.127	50.86
821.305	81.58
821.483	50.86
821.661	110.25
821.839	95.91
822.017	83.63
822.195	67.24
822.373	87.72
822.551	63.15
822.729	79.53
822.907	38.57
823.085	54.95
823.262	65.19
823.44	67.24
823.618	69.29
823.796	57
823.974	44.71
824.152	44.71
824.329	52.91
824.507	102.06
824.685	59.05
824.863	24.23
825.04	69.29
825.218	77.48
825.396	63.15
825.574	-10.58
825.751	71.34
825.929	-0.34
826.107	85.67
826.284	77.48
826.462	132.78
826.639	46.76
826.817	50.86
826.994	91.82
827.172	44.71
827.349	104.11
827.527	40.62
827.704	38.57
827.882	145.06
828.059	38.57
828.237	5.8
828.414	57
828.591	128.68
828.769	118.44
828.946	22.19
829.124	89.77
829.301	3.75
829.478	52.91
829.655	124.58
829.833	57
830.01	11.95
830.187	44.71
830.364	22.19
830.542	59.05
830.719	44.71
830.896	91.82
831.073	32.43
831.25	54.95
831.427	118.44
831.604	97.96
831.782	44.71
831.959	36.52
832.136	73.39
832.313	63.15
832.49	81.58
832.667	30.38
832.844	30.38
833.021	24.23
833.198	52.91
833.374	79.53
833.551	97.96
833.728	61.1
833.905	-8.53
834.082	22.19
834.259	46.76
834.436	71.34
834.612	5.8
834.789	120.49
834.966	79.53
835.143	91.82
835.319	-4.44
835.496	40.62
835.673	79.53
835.85	38.57
836.026	63.15
836.203	104.11
836.38	50.86
836.556	32.43
836.733	102.06
836.909	73.39
837.086	20.14
837.262	30.38
837.439	57
837.616	46.76
837.792	-0.34
837.968	11.95
838.145	100.01
838.321	44.71
838.498	77.48
838.674	61.1
838.851	48.81
839.027	48.81
839.203	50.86
839.38	18.09
839.556	85.67
839.732	40.62
839.909	75.43
840.085	65.19
840.261	-16.73
840.437	30.38
840.614	59.05
840.79	77.48
840.966	97.96
841.142	85.67
841.318	57
841.494	50.86
841.671	20.14
841.847	30.38
842.023	40.62
842.199	26.28
842.375	30.38
842.551	61.1
842.727	-4.44
842.903	63.15
843.079	-33.11
843.255	97.96
843.431	87.72
843.607	13.99
843.783	61.1
843.959	114.34
844.134	11.95
844.31	83.63
844.486	34.47
844.662	87.72
844.838	44.71
845.013	11.95
845.189	93.87
845.365	77.48
845.541	54.95
845.716	24.23
845.892	71.34
846.068	-26.96
846.244	-2.39
846.419	-14.68
846.595	48.81
846.77	44.71
846.946	9.9
847.122	48.81
847.297	38.57
847.473	-2.39
847.648	5.8
847.824	97.96
847.999	26.28
848.175	50.86
848.35	9.9
848.526	110.25
848.701	7.85
848.876	-12.63
849.052	-0.34
849.227	77.48
849.403	5.8
849.578	13.99
849.753	7.85
849.929	26.28
850.104	11.95
850.279	42.67
850.454	28.33
850.63	20.14
850.805	-33.11
850.98	65.19
851.155	24.23
851.33	63.15
851.505	9.9
851.681	46.76
851.856	28.33
852.031	77.48
852.206	77.48
852.381	9.9
852.556	20.14
852.731	-35.16
852.906	32.43
853.081	67.24
853.256	85.67
853.431	-0.34
853.606	46.76
853.781	34.47
853.956	24.23
854.131	73.39
854.305	7.85
854.48	-0.34
854.655	38.57
854.83	71.34
855.005	1.71
855.18	32.43
855.354	11.95
855.529	75.43
855.704	104.11
855.879	11.95
856.053	24.23
856.228	87.72
856.403	-100.69
856.577	16.04
856.752	13.99
856.926	61.1
857.101	48.81
857.276	46.76
857.45	93.87
857.625	-0.34
857.799	20.14
857.974	67.24
858.148	-57.68
858.323	46.76
858.497	26.28
858.672	57
858.846	-24.92
859.02	81.58
859.195	59.05
859.369	-29.01
859.543	-12.63
859.718	28.33
859.892	95.91
860.066	20.14
860.241	24.23
860.415	52.91
860.589	34.47
860.763	34.47
860.938	-31.06
861.112	57
861.286	38.57
861.46	42.67
861.634	13.99
861.808	28.33
861.982	-41.3
862.157	28.33
862.331	-20.82
862.505	38.57
862.679	38.57
862.853	1.71
863.027	54.95
863.201	-14.68
863.375	9.9
863.549	52.91
863.722	-22.87
863.896	38.57
864.07	-43.35
864.244	13.99
864.418	11.95
864.592	22.19
864.766	13.99
864.939	-10.58
865.113	36.52
865.287	106.15
865.461	30.38
865.634	34.47
865.808	-29.01
865.982	-10.58
866.156	-20.82
866.329	-4.44
866.503	-29.01
866.676	11.95
866.85	52.91
867.024	-20.82
867.197	36.52
867.371	108.2
867.544	-0.34
867.718	5.8
867.891	-4.44
868.065	65.19
868.238	24.23
868.412	-14.68
868.585	-39.25
868.759	18.09
868.932	-20.82
869.105	34.47
869.279	-10.58
869.452	-0.34
869.625	16.04
869.799	-24.92
869.972	-35.16
870.145	65.19
870.319	-0.34
870.492	32.43
870.665	30.38
870.838	16.04
871.011	-14.68
871.185	40.62
871.358	-4.44
871.531	1.71
871.704	-18.77
871.877	28.33
872.05	61.1
872.223	-16.73
872.396	-49.49
872.569	81.58
872.742	-43.35
872.915	30.38
873.088	50.86
873.261	22.19
873.434	71.34
873.607	50.86
873.78	-37.2
873.953	69.29
874.126	32.43
874.299	28.33
874.471	54.95
874.644	26.28
874.817	7.85
874.99	61.1
875.163	-24.92
875.335	32.43
875.508	34.47
875.681	34.47
875.853	-72.02
876.026	16.04
876.199	57
876.371	-43.35
876.544	-20.82
876.717	30.38
876.889	77.48
877.062	44.71
877.234	48.81
877.407	57
877.579	-49.49
877.752	69.29
877.924	20.14
878.097	20.14
878.269	-49.49
878.442	36.52
878.614	38.57
878.786	9.9
878.959	34.47
879.131	63.15
879.303	-49.49
879.476	-4.44
879.648	-53.59
879.82	50.86
879.993	38.57
880.165	-10.58
880.337	57
880.509	9.9
880.681	-35.16
880.854	20.14
881.026	1.71
881.198	85.67
881.37	32.43
881.542	3.75
881.714	-51.54
881.886	36.52
882.058	52.91
882.23	-61.78
882.402	-14.68
882.574	-41.3
882.746	24.23
882.918	20.14
883.09	-20.82
883.262	-29.01
883.434	22.19
883.606	5.8
883.778	-49.49
883.95	48.81
884.122	-8.53
884.293	40.62
884.465	-16.73
884.637	-10.58
884.809	73.39
884.98	89.77
885.152	20.14
885.324	61.1
885.496	-37.2
885.667	18.09
885.839	-0.34
886.011	-0.34
886.182	9.9
886.354	26.28
886.525	24.23
886.697	11.95
886.869	5.8
887.04	-35.16
887.212	22.19
887.383	9.9
887.555	30.38
887.726	50.86
887.897	-29.01
888.069	36.52
888.24	-6.49
888.412	30.38
888.583	-8.53
888.754	-72.02
888.926	34.47
889.097	26.28
889.268	16.04
889.44	69.29
889.611	-8.53
889.782	-0.34
889.953	22.19
890.125	5.8
890.296	46.76
890.467	28.33
890.638	65.19
890.809	79.53
890.98	3.75
891.151	11.95
891.323	75.43
891.494	30.38
891.665	-8.53
891.836	13.99
892.007	-41.3
892.178	173.74
892.349	26.28
892.52	3.75
892.691	-41.3
892.862	-22.87
893.032	54.95
893.203	59.05
893.374	-18.77
893.545	36.52
893.716	-10.58
893.887	32.43
894.057	13.99
894.228	71.34
894.399	24.23
894.57	20.14
894.74	-4.44
894.911	26.28
895.082	54.95
895.253	81.58
895.423	34.47
895.594	69.29
895.764	38.57
895.935	16.04
896.106	69.29
896.276	-4.44
896.447	46.76
896.617	-76.12
896.788	1.71
896.958	-76.12
897.129	-20.82
897.299	-4.44
897.47	50.86
897.64	-29.01
897.81	-2.39
897.981	20.14
898.151	7.85
898.322	-6.49
898.492	-2.39
898.662	16.04
898.832	36.52
899.003	20.14
899.173	28.33
899.343	5.8
899.513	65.19
