Data from USB4F104151__48__12-59-09-365.txt Node

Date: Fri Mar 14 12:59:09 EDT 2025
User: louis
Spectrometer: USB4F10415
Trigger mode: 4
Integration Time (sec): 1.000000E-2
Scans to average: 1
Electric dark correction enabled: true
Nonlinearity correction enabled: false
Boxcar width: 0
XAxis mode: Wavelengths
Number of Pixels in Spectrum: 3648
>>>>>Begin Spectral Data<<<<<
178.204	-50.35
178.424	-50.35
178.644	-50.35
178.864	11.09
179.084	-3.24
179.304	27.48
179.524	45.91
179.744	7
179.964	23.38
180.184	50
180.404	19.29
180.624	-81.07
180.844	-17.58
181.064	-3.24
181.283	19.29
181.503	-54.44
181.723	-36.01
181.943	-19.63
182.163	13.14
182.383	15.19
182.602	43.86
182.822	27.48
183.042	64.34
183.262	-27.82
183.482	-5.29
183.701	25.43
183.921	-7.34
184.141	25.43
184.361	84.82
184.58	50
184.8	-89.26
185.02	39.76
185.239	33.62
185.459	25.43
185.679	47.96
185.898	-3.24
186.118	9.05
186.338	54.1
186.557	47.96
186.777	2.9
186.997	86.87
187.216	41.81
187.436	11.09
187.655	101.2
187.875	29.52
188.095	-40.11
188.314	37.72
188.534	4.95
188.753	0.85
188.973	9.05
189.192	90.96
189.412	90.96
189.631	37.72
189.851	66.39
190.07	70.48
190.29	11.09
190.509	121.68
190.729	29.52
190.948	74.58
191.168	56.15
191.387	7
191.607	-11.43
191.826	-15.53
192.045	50
192.265	33.62
192.484	9.05
192.704	2.9
192.923	-9.39
193.142	62.29
193.362	74.58
193.581	-23.72
193.8	33.62
194.02	45.91
194.239	25.43
194.458	-9.39
194.678	2.9
194.897	-5.29
195.116	-5.29
195.335	15.19
195.555	70.48
195.774	-13.48
195.993	-36.01
196.212	31.57
196.432	17.24
196.651	27.48
196.87	-23.72
197.089	7
197.308	-9.39
197.528	33.62
197.747	-11.43
197.966	-3.24
198.185	-36.01
198.404	31.57
198.623	82.77
198.842	9.05
199.062	4.95
199.281	11.09
199.5	47.96
199.719	95.06
199.938	-9.39
200.157	45.91
200.376	9.05
200.595	11.09
200.814	21.33
201.033	-44.2
201.252	41.81
201.471	82.77
201.69	-9.39
201.909	27.48
202.128	19.29
202.347	45.91
202.566	74.58
202.785	29.52
203.004	-7.34
203.223	95.06
203.442	56.15
203.661	27.48
203.879	31.57
204.098	25.43
204.317	64.34
204.536	47.96
204.755	72.53
204.974	19.29
205.193	-13.48
205.411	72.53
205.63	-11.43
205.849	78.68
206.068	-31.91
206.287	-17.58
206.505	0.85
206.724	9.05
206.943	-9.39
207.162	13.14
207.381	4.95
207.599	66.39
207.818	-9.39
208.037	47.96
208.255	33.62
208.474	66.39
208.693	39.76
208.911	15.19
209.13	-19.63
209.349	74.58
209.567	-21.67
209.786	72.53
210.005	7
210.223	25.43
210.442	-27.82
210.661	0.85
210.879	-13.48
211.098	68.44
211.316	23.38
211.535	-7.34
211.753	-1.19
211.972	125.78
212.191	45.91
212.409	66.39
212.628	4.95
212.846	45.91
213.065	-23.72
213.283	90.96
213.502	45.91
213.72	54.1
213.938	-1.19
214.157	54.1
214.375	37.72
214.594	-74.92
214.812	33.62
215.031	41.81
215.249	7
215.467	11.09
215.686	-52.39
215.904	-3.24
216.122	21.33
216.341	66.39
216.559	27.48
216.778	2.9
216.996	35.67
217.214	54.1
217.432	39.76
217.651	64.34
217.869	60.24
218.087	58.2
218.306	50
218.524	54.1
218.742	93.01
218.96	25.43
219.179	9.05
219.397	50
219.615	66.39
219.833	-1.19
220.051	-7.34
220.27	41.81
220.488	82.77
220.706	17.24
220.924	45.91
221.142	41.81
221.36	70.48
221.578	35.67
221.796	0.85
222.015	21.33
222.233	62.29
222.451	86.87
222.669	-13.48
222.887	95.06
223.105	-1.19
223.323	13.14
223.541	29.52
223.759	45.91
223.977	33.62
224.195	21.33
224.413	29.52
224.631	7
224.849	15.19
225.067	4.95
225.285	0.85
225.503	109.4
225.721	15.19
225.939	-13.48
226.157	50
226.375	29.52
226.592	45.91
226.81	58.2
227.028	60.24
227.246	13.14
227.464	52.05
227.682	21.33
227.9	29.52
228.117	9.05
228.335	13.14
228.553	9.05
228.771	35.67
228.989	-3.24
229.206	45.91
229.424	70.48
229.642	2.9
229.86	-56.49
230.077	-19.63
230.295	31.57
230.513	-1.19
230.731	0.85
230.948	-9.39
231.166	15.19
231.384	23.38
231.601	33.62
231.819	47.96
232.037	-1.19
232.254	50
232.472	23.38
232.689	37.72
232.907	35.67
233.125	39.76
233.342	-11.43
233.56	7
233.777	47.96
233.995	35.67
234.213	27.48
234.43	62.29
234.648	39.76
234.865	-31.91
235.083	17.24
235.3	107.35
235.518	17.24
235.735	-23.72
235.953	-25.77
236.17	33.62
236.388	-60.59
236.605	33.62
236.822	62.29
237.04	41.81
237.257	47.96
237.475	11.09
237.692	88.92
237.909	0.85
238.127	-44.2
238.344	60.24
238.562	60.24
238.779	54.1
238.996	-21.67
239.214	-36.01
239.431	54.1
239.648	-1.19
239.865	-19.63
240.083	-27.82
240.3	0.85
240.517	-29.87
240.735	9.05
240.952	-5.29
241.169	52.05
241.386	41.81
241.603	-44.2
241.821	37.72
242.038	17.24
242.255	133.97
242.472	13.14
242.689	33.62
242.907	95.06
243.124	-21.67
243.341	41.81
243.558	17.24
243.775	19.29
243.992	68.44
244.209	33.62
244.426	66.39
244.643	78.68
244.86	4.95
245.078	70.48
245.295	39.76
245.512	-11.43
245.729	35.67
245.946	45.91
246.163	37.72
246.38	23.38
246.597	72.53
246.814	76.63
247.031	29.52
247.248	-50.35
247.464	80.72
247.681	-5.29
247.898	74.58
248.115	47.96
248.332	17.24
248.549	39.76
248.766	58.2
248.983	17.24
249.2	105.3
249.417	33.62
249.633	33.62
249.85	31.57
250.067	-29.87
250.284	62.29
250.501	58.2
250.717	45.91
250.934	39.76
251.151	90.96
251.368	41.81
251.585	52.05
251.801	84.82
252.018	29.52
252.235	-25.77
252.451	-17.58
252.668	29.52
252.885	86.87
253.102	99.16
253.318	60.24
253.535	52.05
253.752	29.52
253.968	11.09
254.185	-7.34
254.401	56.15
254.618	7
254.835	41.81
255.051	31.57
255.268	13.14
255.484	29.52
255.701	21.33
255.917	0.85
256.134	4.95
256.351	37.72
256.567	-27.82
256.784	56.15
257	-19.63
257.217	37.72
257.433	29.52
257.65	27.48
257.866	50
258.082	39.76
258.299	-40.11
258.515	-11.43
258.732	23.38
258.948	21.33
259.165	93.01
259.381	17.24
259.597	74.58
259.814	13.14
260.03	29.52
260.246	56.15
260.463	7
260.679	45.91
260.895	107.35
261.112	47.96
261.328	31.57
261.544	39.76
261.761	-9.39
261.977	-31.91
262.193	29.52
262.409	37.72
262.626	-1.19
262.842	82.77
263.058	54.1
263.274	35.67
263.49	-1.19
263.707	43.86
263.923	52.05
264.139	-17.58
264.355	-25.77
264.571	93.01
264.787	13.14
265.004	62.29
265.22	7
265.436	9.05
265.652	45.91
265.868	23.38
266.084	19.29
266.3	78.68
266.516	56.15
266.732	-11.43
266.948	-11.43
267.164	101.2
267.38	4.95
267.596	84.82
267.812	25.43
268.028	9.05
268.244	56.15
268.46	50
268.676	47.96
268.892	-29.87
269.108	7
269.324	39.76
269.54	37.72
269.756	4.95
269.972	31.57
270.188	2.9
270.403	-5.29
270.619	47.96
270.835	76.63
271.051	-11.43
271.267	64.34
271.483	-1.19
271.698	21.33
271.914	33.62
272.13	13.14
272.346	37.72
272.562	60.24
272.777	62.29
272.993	37.72
273.209	23.38
273.425	37.72
273.64	33.62
273.856	7
274.072	41.81
274.287	45.91
274.503	21.33
274.719	70.48
274.934	9.05
275.15	33.62
275.366	39.76
275.581	76.63
275.797	7
276.012	35.67
276.228	-3.24
276.444	-11.43
276.659	21.33
276.875	-3.24
277.09	23.38
277.306	13.14
277.521	-33.96
277.737	29.52
277.952	60.24
278.168	-17.58
278.383	-15.53
278.599	2.9
278.814	37.72
279.03	29.52
279.245	56.15
279.461	41.81
279.676	54.1
279.892	43.86
280.107	-3.24
280.322	90.96
280.538	-48.3
280.753	27.48
280.969	115.54
281.184	66.39
281.399	64.34
281.615	60.24
281.83	66.39
282.045	66.39
282.26	31.57
282.476	13.14
282.691	0.85
282.906	21.33
283.122	27.48
283.337	109.4
283.552	72.53
283.767	17.24
283.983	45.91
284.198	4.95
284.413	4.95
284.628	0.85
284.843	41.81
285.058	33.62
285.274	-25.77
285.489	9.05
285.704	107.35
285.919	25.43
286.134	72.53
286.349	31.57
286.564	47.96
286.779	66.39
286.995	-27.82
287.21	52.05
287.425	29.52
287.64	56.15
287.855	58.2
288.07	17.24
288.285	25.43
288.5	82.77
288.715	88.92
288.93	21.33
289.145	15.19
289.36	78.68
289.575	50
289.79	23.38
290.004	70.48
290.219	15.19
290.434	-33.96
290.649	19.29
290.864	17.24
291.079	60.24
291.294	-15.53
291.509	2.9
291.724	9.05
291.938	-52.39
292.153	52.05
292.368	43.86
292.583	-44.2
292.798	37.72
293.012	78.68
293.227	-42.15
293.442	41.81
293.657	-9.39
293.871	66.39
294.086	-50.35
294.301	70.48
294.516	23.38
294.73	13.14
294.945	43.86
295.16	41.81
295.374	-5.29
295.589	58.2
295.804	-7.34
296.018	-19.63
296.233	54.1
296.447	74.58
296.662	9.05
296.877	23.38
297.091	76.63
297.306	74.58
297.52	-27.82
297.735	-76.97
297.949	-27.82
298.164	45.91
298.378	29.52
298.593	9.05
298.807	17.24
299.022	47.96
299.236	-13.48
299.451	33.62
299.665	47.96
299.88	21.33
300.094	41.81
300.309	115.54
300.523	27.48
300.737	-5.29
300.952	37.72
301.166	37.72
301.381	37.72
301.595	37.72
301.809	45.91
302.024	-27.82
302.238	-1.19
302.452	13.14
302.667	39.76
302.881	7
303.095	107.35
303.309	39.76
303.524	-42.15
303.738	54.1
303.952	-5.29
304.166	35.67
304.381	-36.01
304.595	68.44
304.809	33.62
305.023	86.87
305.237	105.3
305.452	19.29
305.666	27.48
305.88	101.2
306.094	21.33
306.308	39.76
306.522	41.81
306.736	11.09
306.95	-3.24
307.164	31.57
307.379	0.85
307.593	80.72
307.807	-11.43
308.021	23.38
308.235	-19.63
308.449	15.19
308.663	31.57
308.877	82.77
309.091	64.34
309.305	27.48
309.519	27.48
309.733	19.29
309.947	86.87
310.161	45.91
310.374	17.24
310.588	-15.53
310.802	54.1
311.016	-38.06
311.23	2.9
311.444	-9.39
311.658	21.33
311.872	-27.82
312.085	70.48
312.299	80.72
312.513	33.62
312.727	-38.06
312.941	74.58
313.154	64.34
313.368	33.62
313.582	123.73
313.796	31.57
314.009	47.96
314.223	33.62
314.437	-19.63
314.651	45.91
314.864	56.15
315.078	-21.67
315.292	64.34
315.505	0.85
315.719	133.97
315.933	54.1
316.146	54.1
316.36	-11.43
316.573	-3.24
316.787	80.72
317.001	54.1
317.214	-11.43
317.428	97.11
317.641	35.67
317.855	43.86
318.068	21.33
318.282	70.48
318.495	-64.68
318.709	70.48
318.922	35.67
319.136	33.62
319.349	0.85
319.563	62.29
319.776	-19.63
319.99	74.58
320.203	70.48
320.417	78.68
320.63	88.92
320.843	66.39
321.057	47.96
321.27	29.52
321.483	15.19
321.697	60.24
321.91	17.24
322.124	-9.39
322.337	4.95
322.55	56.15
322.763	52.05
322.977	-27.82
323.19	33.62
323.403	-19.63
323.617	23.38
323.83	62.29
324.043	11.09
324.256	76.63
324.469	31.57
324.683	47.96
324.896	41.81
325.109	29.52
325.322	90.96
325.535	19.29
325.748	-7.34
325.962	25.43
326.175	31.57
326.388	45.91
326.601	-21.67
326.814	11.09
327.027	15.19
327.24	-17.58
327.453	-15.53
327.666	37.72
327.879	43.86
328.092	101.2
328.305	19.29
328.518	70.48
328.731	37.72
328.944	74.58
329.157	-5.29
329.37	21.33
329.583	86.87
329.796	47.96
330.009	15.19
330.222	23.38
330.435	23.38
330.648	15.19
330.861	56.15
331.073	-31.91
331.286	52.05
331.499	17.24
331.712	13.14
331.925	88.92
332.138	-42.15
332.35	95.06
332.563	13.14
332.776	23.38
332.989	-9.39
333.202	88.92
333.414	68.44
333.627	-5.29
333.84	21.33
334.053	31.57
334.265	-3.24
334.478	64.34
334.691	74.58
334.903	-11.43
335.116	13.14
335.329	-19.63
335.541	60.24
335.754	78.68
335.966	39.76
336.179	7
336.392	80.72
336.604	7
336.817	45.91
337.029	70.48
337.242	-7.34
337.454	-27.82
337.667	78.68
337.88	72.53
338.092	25.43
338.305	33.62
338.517	-33.96
338.729	41.81
338.942	4.95
339.154	62.29
339.367	50
339.579	103.25
339.792	-36.01
340.004	39.76
340.217	29.52
340.429	0.85
340.641	-1.19
340.854	25.43
341.066	-11.43
341.278	78.68
341.491	58.2
341.703	4.95
341.915	-21.67
342.128	50
342.34	4.95
342.552	13.14
342.764	11.09
342.977	9.05
343.189	90.96
343.401	47.96
343.613	-42.15
343.826	29.52
344.038	15.19
344.25	90.96
344.462	70.48
344.674	29.52
344.886	-62.63
345.099	2.9
345.311	33.62
345.523	11.09
345.735	-23.72
345.947	17.24
346.159	-42.15
346.371	41.81
346.583	-23.72
346.795	2.9
347.007	39.76
347.219	15.19
347.431	11.09
347.643	45.91
347.855	99.16
348.067	-7.34
348.279	-79.02
348.491	60.24
348.703	-29.87
348.915	37.72
349.127	4.95
349.339	64.34
349.551	-27.82
349.763	64.34
349.975	62.29
350.187	103.25
350.399	-11.43
350.61	27.48
350.822	37.72
351.034	95.06
351.246	-29.87
351.458	-23.72
351.669	11.09
351.881	27.48
352.093	21.33
352.305	25.43
352.517	70.48
352.728	23.38
352.94	-19.63
353.152	133.97
353.363	-27.82
353.575	56.15
353.787	80.72
353.999	70.48
354.21	45.91
354.422	39.76
354.633	-13.48
354.845	-25.77
355.057	15.19
355.268	66.39
355.48	21.33
355.692	13.14
355.903	35.67
356.115	37.72
356.326	58.2
356.538	47.96
356.749	33.62
356.961	86.87
357.172	35.67
357.384	-1.19
357.595	90.96
357.807	39.76
358.018	82.77
358.23	19.29
358.441	103.25
358.653	60.24
358.864	13.14
359.075	39.76
359.287	45.91
359.498	17.24
359.709	45.91
359.921	-1.19
360.132	7
360.344	17.24
360.555	31.57
360.766	41.81
360.977	9.05
361.189	50
361.4	50
361.611	-7.34
361.823	41.81
362.034	54.1
362.245	11.09
362.456	54.1
362.667	60.24
362.879	9.05
363.09	37.72
363.301	86.87
363.512	-40.11
363.723	37.72
363.935	45.91
364.146	78.68
364.357	50
364.568	80.72
364.779	-17.58
364.99	45.91
365.201	-9.39
365.412	95.06
365.623	37.72
365.834	19.29
366.045	31.57
366.256	33.62
366.467	37.72
366.678	-23.72
366.889	76.63
367.1	82.77
367.311	88.92
367.522	45.91
367.733	-33.96
367.944	33.62
368.155	9.05
368.366	33.62
368.577	27.48
368.788	50
368.999	-29.87
369.209	23.38
369.42	78.68
369.631	23.38
369.842	60.24
370.053	54.1
370.264	25.43
370.474	0.85
370.685	76.63
370.896	41.81
371.107	111.44
371.317	-13.48
371.528	58.2
371.739	45.91
371.95	103.25
372.16	97.11
372.371	19.29
372.582	95.06
372.792	13.14
373.003	58.2
373.214	35.67
373.424	64.34
373.635	78.68
373.846	47.96
374.056	64.34
374.267	74.58
374.477	80.72
374.688	13.14
374.898	33.62
375.109	95.06
375.319	113.49
375.53	74.58
375.74	29.52
375.951	93.01
376.161	29.52
376.372	-33.96
376.582	29.52
376.793	60.24
377.003	43.86
377.214	56.15
377.424	-3.24
377.635	-13.48
377.845	7
378.055	45.91
378.266	54.1
378.476	72.53
378.686	62.29
378.897	9.05
379.107	33.62
379.317	129.88
379.528	111.44
379.738	-1.19
379.948	-17.58
380.158	31.57
380.369	95.06
380.579	90.96
380.789	15.19
380.999	86.87
381.21	88.92
381.42	47.96
381.63	90.96
381.84	56.15
382.05	78.68
382.261	95.06
382.471	13.14
382.681	64.34
382.891	-1.19
383.101	23.38
383.311	70.48
383.521	-15.53
383.731	13.14
383.941	66.39
384.151	84.82
384.361	76.63
384.571	31.57
384.781	-19.63
384.991	82.77
385.201	56.15
385.411	101.2
385.621	84.82
385.831	-3.24
386.041	27.48
386.251	138.07
386.461	64.34
386.671	19.29
386.881	-23.72
387.091	54.1
387.301	47.96
387.511	82.77
387.72	15.19
387.93	13.14
388.14	-40.11
388.35	56.15
388.56	-5.29
388.769	11.09
388.979	50
389.189	80.72
389.399	54.1
389.609	58.2
389.818	88.92
390.028	33.62
390.238	25.43
390.447	-5.29
390.657	72.53
390.867	13.14
391.076	45.91
391.286	123.73
391.496	-42.15
391.705	82.77
391.915	7
392.125	17.24
392.334	66.39
392.544	113.49
392.753	64.34
392.963	95.06
393.172	105.3
393.382	111.44
393.591	160.59
393.801	41.81
394.01	11.09
394.22	103.25
394.429	-27.82
394.639	76.63
394.848	127.83
395.058	54.1
395.267	74.58
395.477	-21.67
395.686	29.52
395.895	117.59
396.105	90.96
396.314	84.82
396.524	78.68
396.733	58.2
396.942	66.39
397.152	29.52
397.361	78.68
397.57	31.57
397.78	7
397.989	56.15
398.198	99.16
398.407	95.06
398.617	113.49
398.826	7
399.035	138.07
399.244	88.92
399.453	31.57
399.663	76.63
399.872	27.48
400.081	80.72
400.29	111.44
400.499	99.16
400.708	101.2
400.917	56.15
401.127	119.64
401.336	111.44
401.545	168.79
401.754	39.76
401.963	13.14
402.172	90.96
402.381	138.07
402.59	62.29
402.799	25.43
403.008	78.68
403.217	60.24
403.426	115.54
403.635	160.59
403.844	123.73
404.053	-3.24
404.262	88.92
404.471	103.25
404.68	4.95
404.888	121.68
405.097	80.72
405.306	82.77
405.515	107.35
405.724	45.91
405.933	115.54
406.142	84.82
406.35	111.44
406.559	176.98
406.768	88.92
406.977	138.07
407.185	103.25
407.394	146.26
407.603	95.06
407.812	138.07
408.02	168.79
408.229	191.31
408.438	107.35
408.646	131.92
408.855	154.45
409.064	189.27
409.272	174.93
409.481	176.98
409.69	211.79
409.898	191.31
410.107	211.79
410.315	260.95
410.524	164.69
410.733	136.02
410.941	199.51
411.15	215.89
411.358	258.9
411.567	250.71
411.775	213.84
411.984	299.86
412.192	303.95
412.401	318.29
412.609	289.62
412.818	254.8
413.026	308.05
413.234	320.34
413.443	349.01
413.651	340.82
413.86	349.01
414.068	383.82
414.276	451.41
414.485	367.44
414.693	385.87
414.901	379.73
415.11	414.54
415.318	371.54
415.526	463.69
415.734	416.59
415.943	426.83
416.151	486.22
416.359	439.12
416.567	574.28
416.776	564.04
416.984	633.68
417.192	578.38
417.4	635.72
417.608	619.34
417.817	615.24
418.025	629.58
418.233	703.31
418.441	715.59
418.649	686.92
418.857	815.94
419.065	820.04
419.273	783.18
419.481	811.85
419.689	963.4
419.897	875.34
420.105	867.14
420.313	961.35
420.521	1024.84
420.729	1008.45
420.937	981.83
421.145	1084.23
421.353	1030.98
421.561	1182.53
421.769	1219.39
421.977	1303.36
422.185	1227.59
422.393	1293.12
422.601	1356.61
422.809	1424.19
423.017	1342.27
423.224	1434.43
423.432	1604.41
423.64	1465.15
423.848	1727.29
424.056	1497.92
424.263	1725.24
424.471	1803.07
424.679	1766.2
424.887	1872.7
425.094	1907.51
425.302	1846.07
425.51	1946.42
425.718	1973.05
425.925	2102.07
426.133	2171.7
426.341	2227
426.548	2233.14
426.756	2274.1
426.964	2417.46
427.171	2560.81
427.379	2544.43
427.586	2661.16
427.794	2528.05
428.001	2839.34
428.209	3017.51
428.417	2818.86
428.624	3083.05
428.832	3142.44
429.039	2968.36
429.247	3203.88
429.454	3390.24
429.662	3775.26
429.869	3289.89
430.076	3588.89
430.284	3541.79
430.491	3719.96
430.699	3842.84
430.906	3855.13
431.114	3951.39
431.321	4076.31
431.528	4111.13
431.736	4473.62
431.943	4432.66
432.15	4373.27
432.358	4674.32
432.565	4731.66
432.772	4809.48
432.979	5042.95
433.187	5157.64
433.394	5128.97
433.601	5608.19
433.808	5452.55
434.016	5509.89
434.223	5704.45
434.43	6034.17
434.637	5946.11
434.844	6238.97
435.052	6454
435.259	6324.98
435.466	6363.89
435.673	6425.33
435.88	6732.53
436.087	7041.77
436.294	7236.33
436.501	6955.76
436.708	6998.76
436.915	7183.08
437.122	7715.55
437.329	7703.26
437.537	7994.08
437.743	7928.54
437.95	8098.52
438.157	8557.27
438.364	8544.98
438.571	8757.97
438.778	8641.23
438.985	9351.88
439.192	9204.42
439.399	9325.26
439.606	9280.2
439.813	9765.57
440.02	10160.83
440.227	10199.74
440.433	10095.29
440.64	10351.29
440.847	10123.96
441.054	10613.43
441.261	11354.79
441.467	11018.93
441.674	11197.1
441.881	11784.87
442.088	11801.25
442.294	11614.88
442.501	12120.73
442.708	12239.51
442.914	12677.78
443.121	13298.31
443.328	12864.15
443.534	13759.11
443.741	13374.09
443.948	13165.2
444.154	14291.58
444.361	14056.06
444.568	14361.21
444.774	14355.07
444.981	14367.35
445.187	15051.38
445.394	15413.87
445.6	15495.78
445.807	16865.88
446.013	16132.7
446.22	16656.98
446.426	17074.77
446.633	17093.2
446.839	17803.85
447.046	17095.25
447.252	18088.51
447.459	18041.41
447.665	18094.66
447.871	18854.45
448.078	19722.79
448.284	18735.67
448.491	18938.42
448.697	19956.26
448.903	20415.01
449.11	20505.12
449.316	20038.18
449.522	20707.87
449.728	21043.73
449.935	21223.95
450.141	21320.21
450.347	22000.13
450.553	21228.05
450.76	21326.35
450.966	22161.92
451.172	21838.34
451.378	22630.91
451.584	22135.3
451.791	22573.56
451.997	22766.07
452.203	22966.77
452.409	22880.76
452.615	22731.26
452.821	21813.77
453.027	21903.88
453.233	23161.33
453.44	22309.38
453.646	22620.67
453.852	22247.94
454.058	22755.83
454.264	22262.27
454.47	22546.94
454.676	21991.94
454.882	22819.32
455.088	20851.22
455.294	21340.69
455.5	21651.98
455.705	21787.14
455.911	21058.07
456.117	20279.84
456.323	20412.96
456.529	19216.94
456.735	20173.35
456.941	19229.23
457.147	19147.31
457.352	18539.07
457.558	18360.89
457.764	18475.58
457.97	17969.73
458.176	17611.34
458.381	17723.97
458.587	17011.28
458.793	17132.11
458.999	15932
459.204	17277.52
459.41	16532.06
459.616	15616.62
459.821	15315.56
460.027	15471.21
460.233	15217.26
460.438	14232.19
460.644	14549.62
460.85	13853.31
461.055	13910.66
461.261	13462.15
461.466	12612.24
461.672	12087.96
461.878	13107.85
462.083	12427.93
462.289	12235.42
462.494	12016.29
462.7	11401.9
462.905	11219.63
463.111	11594.4
463.316	11627.17
463.522	11354.79
463.727	11301.54
463.932	11160.24
464.138	11346.6
464.343	11281.07
464.549	10695.35
464.754	11395.75
464.959	11279.02
465.165	11125.42
465.37	10707.63
465.575	10437.3
465.781	10779.31
465.986	10902.19
466.191	10638
466.397	10224.31
466.602	9734.85
466.807	10171.07
467.012	10187.45
467.218	9925.31
467.423	10007.23
467.628	10058.43
467.833	10572.47
468.038	9902.78
468.244	9706.18
468.449	10140.35
468.654	9923.26
468.859	9616.07
469.064	9853.63
469.269	9296.58
469.474	9392.84
469.679	9687.75
469.885	9441.99
470.09	9523.91
470.295	9415.37
470.5	9241.29
470.705	9253.58
470.91	8925.9
471.115	8901.33
471.32	9063.12
471.525	8932.05
471.73	8764.11
471.935	8604.37
472.139	8590.03
472.344	8536.79
472.549	8489.68
472.754	8395.48
472.959	8223.45
473.164	8020.7
473.369	8090.33
473.574	8303.32
473.778	8235.74
473.983	8221.4
474.188	8002.27
474.393	7756.51
474.598	7645.92
474.802	7664.35
475.007	7834.33
475.212	7613.15
475.417	7244.52
475.621	7262.95
475.826	7363.3
476.031	7160.55
476.235	7144.17
476.44	7271.14
476.645	6986.47
476.849	7205.61
477.054	6968.04
477.259	6972.14
477.463	6943.47
477.668	6609.65
477.872	6910.7
478.077	6714.09
478.282	6499.06
478.486	6609.65
478.691	6380.28
478.895	6435.57
479.1	6361.84
479.304	6331.12
479.509	6273.78
479.713	6304.5
479.918	6284.02
480.122	6136.57
480.326	6140.66
480.531	6167.29
480.735	6263.54
480.94	6181.62
481.144	6245.11
481.348	5843.71
481.553	5985.02
481.757	5901.05
481.961	5915.39
482.166	5987.07
482.37	6025.98
482.574	5946.11
482.778	5919.48
482.983	6120.18
483.187	5937.91
483.391	6083.32
483.595	6025.98
483.8	5925.63
484.004	6021.88
484.208	5931.77
484.412	5866.24
484.616	5944.06
484.821	5972.73
485.025	5901.05
485.229	6118.14
485.433	5931.77
485.637	6030.07
485.841	5903.1
486.045	5960.44
486.249	6015.74
486.453	5952.25
486.657	5835.52
486.861	6001.4
487.065	5839.61
487.269	6017.79
487.473	5901.05
487.677	5788.41
487.881	6032.12
488.085	5866.24
488.289	5952.25
488.493	5878.52
488.697	5860.09
488.901	5853.95
489.105	5974.78
489.309	6075.13
489.512	5960.44
489.716	6025.98
489.92	6077.18
490.124	6017.79
490.328	6384.37
490.531	6218.49
490.735	6085.37
490.939	6036.22
491.143	6054.65
491.346	5987.07
491.55	6347.51
491.754	6265.59
491.958	6224.63
492.161	6320.88
492.365	6370.04
492.569	6232.82
492.772	6294.26
492.976	6378.23
493.18	6333.17
493.383	6556.4
493.587	6564.59
493.79	6660.85
493.994	6497.01
494.197	6589.17
494.401	6699.76
494.605	6828.78
494.808	6675.18
495.012	6894.32
495.215	6857.45
495.419	6882.03
495.622	6763.25
495.825	7017.19
496.029	7060.2
496.232	7226.09
496.436	7127.78
496.639	7271.14
496.843	7256.81
497.046	7539.43
497.249	7549.67
497.453	7553.76
497.656	7607.01
497.859	7690.98
498.063	7684.83
498.266	7928.54
498.469	7965.4
498.673	7918.3
498.876	8053.47
499.079	8149.72
499.282	8051.42
499.485	8434.39
499.689	8528.6
499.892	8764.11
500.095	8581.84
500.298	8805.07
500.501	8833.74
500.705	9044.68
500.908	8946.38
501.111	9005.77
501.314	9175.75
501.517	9376.45
501.72	9636.55
501.923	9591.49
502.126	9657.03
502.329	9865.92
502.532	9845.44
502.735	10214.07
502.938	10117.82
503.141	10402.49
503.344	10562.23
503.547	10316.47
503.75	10592.95
503.953	11068.08
504.156	11123.37
504.359	11123.37
504.562	11244.2
504.765	11430.57
504.968	11479.72
505.17	11709.09
505.373	11621.03
505.576	11797.15
505.779	12145.31
505.982	12210.84
506.185	12257.95
506.387	12233.37
506.59	12604.05
506.793	12767.89
506.996	12751.51
507.198	13200.01
507.401	13073.04
507.604	12962.45
507.807	13585.03
508.009	13621.89
508.212	13589.13
508.415	14172.8
508.617	13980.29
508.82	14205.56
509.022	14094.97
509.225	14484.09
509.428	14748.28
509.63	14924.4
509.833	14912.11
510.035	15450.73
510.238	15233.64
510.44	15561.32
510.643	15651.43
510.845	15780.45
511.048	15716.97
511.25	16161.37
511.453	16196.19
511.655	16958.03
511.858	16560.73
512.06	16867.92
512.262	16906.84
512.465	17087.06
512.667	17455.69
512.87	17850.95
513.072	17623.62
513.274	17936.96
513.477	18133.57
513.679	18137.66
513.881	18479.68
514.084	18715.19
514.286	18569.79
514.488	18891.32
514.69	19501.61
514.893	19659.31
515.095	19388.97
515.297	19864.1
515.499	20101.67
515.701	20351.52
515.904	20619.8
516.106	20648.47
516.308	20865.56
516.51	21240.34
516.712	21092.88
516.914	21168.66
517.116	21692.94
517.318	21572.11
517.52	22116.87
517.722	21983.75
517.925	22233.6
518.127	22825.47
518.329	22651.39
518.531	22639.1
518.733	23161.33
518.935	23560.69
519.136	23304.69
519.338	23837.16
519.54	24033.77
519.742	24351.2
519.944	24191.46
520.146	24547.81
520.348	24619.49
520.55	25123.29
520.752	25301.46
520.954	25403.86
521.155	25266.64
521.357	25758.16
521.559	26104.26
521.761	26534.34
521.963	26313.16
522.164	26520
522.366	26573.25
522.568	27081.14
522.77	27097.53
522.971	27222.45
523.173	27519.41
523.375	27543.99
523.576	28027.31
523.778	27761.07
523.98	28367.27
524.181	28164.52
524.383	28434.85
524.584	28529.06
524.786	28840.35
524.988	28559.78
525.189	29041.05
525.391	29245.85
525.592	29675.92
525.794	29366.68
525.995	29661.58
526.197	29745.55
526.398	30116.23
526.6	30382.47
526.801	30220.68
527.003	30300.55
527.204	30443.91
527.406	30886.27
527.607	30235.02
527.808	30826.88
528.01	30181.77
528.211	30802.3
528.412	31375.73
528.614	31283.58
528.815	31502.71
529.016	31598.96
529.218	31082.88
529.419	31330.68
529.62	31582.58
529.822	31439.22
530.023	31281.53
530.224	31496.56
530.425	31887.73
530.626	31523.19
530.828	31385.97
531.029	32258.41
531.23	31740.27
531.431	32031.08
531.632	31900.01
531.833	32080.24
532.035	31986.03
532.236	32297.32
532.437	32004.46
532.638	32100.72
532.839	32522.6
533.04	32434.53
533.241	31842.67
533.442	33038.69
533.643	32600.42
533.844	32475.49
534.045	32170.35
534.246	32358.76
534.447	32506.21
534.648	32266.6
534.849	32483.69
535.05	32106.86
535.251	32321.9
535.451	32543.08
535.652	32588.13
535.853	32412.01
536.054	32592.23
536.255	32291.18
536.456	31715.7
536.657	32887.14
536.857	32522.6
537.058	32166.25
537.259	32665.95
537.46	32936.29
537.66	32829.79
537.861	32385.38
538.062	32487.78
538.263	32563.56
538.463	32516.45
538.664	32569.7
538.865	32581.99
539.065	32696.67
539.266	32043.37
539.466	33214.81
539.667	32172.39
539.868	32659.81
540.068	32645.48
540.269	32541.03
540.469	32637.28
540.67	32500.07
540.87	32579.94
541.071	32657.76
541.271	32452.97
541.472	32885.09
541.672	32575.84
541.873	32526.69
542.073	32024.94
542.274	32635.24
542.474	32313.7
542.675	32215.4
542.875	32721.25
543.075	32495.97
543.276	32115.05
543.476	32686.43
543.676	32426.34
543.877	32649.57
544.077	32633.19
544.277	31875.44
544.478	32514.41
544.678	32436.58
544.878	32184.68
545.078	32690.53
545.279	32301.42
545.479	32352.62
545.679	32434.53
545.879	32348.52
546.079	32500.07
546.28	32649.57
546.48	32037.23
546.68	32502.12
546.88	32416.1
547.08	32305.51
547.28	32346.47
547.48	32026.99
547.68	32244.07
547.88	32135.53
548.081	32274.79
548.281	32399.72
548.481	32332.14
548.681	32383.34
548.881	32541.03
549.081	32403.81
549.28	32377.19
549.48	32375.14
549.68	32057.71
549.88	32291.18
550.08	32039.28
550.28	32246.12
550.48	32252.27
550.68	32506.21
550.88	31959.41
551.08	32299.37
551.279	32369
551.479	32328.04
551.679	32360.81
551.879	31889.77
552.079	32305.51
552.278	31762.8
552.478	32184.68
552.678	32121.2
552.878	32194.92
553.077	31932.78
553.277	31859.06
553.477	32237.93
553.676	31764.85
553.876	31609.2
554.076	31613.3
554.275	32153.96
554.475	31248.76
554.674	31916.4
554.874	31951.21
555.074	31560.05
555.273	31578.48
555.473	31928.69
555.672	31760.75
555.872	31541.62
556.071	31807.86
556.271	31922.54
556.47	31805.81
556.67	31428.98
556.869	31498.61
557.068	31711.6
557.268	31469.94
557.467	31361.4
557.667	31310.2
557.866	31072.64
558.065	31453.56
558.265	31191.42
558.464	31027.58
558.663	31199.61
558.863	31396.21
559.062	31893.87
559.261	30910.85
559.461	31215.99
559.66	30638.47
559.859	31220.09
560.058	31011.2
560.258	30916.99
560.457	30812.54
560.656	31146.36
560.855	30882.17
561.054	31127.93
561.253	30581.12
561.453	30624.13
561.652	30775.68
561.851	31031.68
562.05	30720.38
562.249	30742.91
562.448	30599.55
562.647	30480.77
562.846	30437.76
563.045	30724.48
563.244	29970.83
563.443	30710.14
563.642	30249.35
563.841	30271.88
564.04	30019.98
564.239	30316.93
564.438	30163.34
564.637	30149
564.836	30284.17
565.035	29852.05
565.234	30132.62
565.432	29682.06
565.631	29792.65
565.83	29901.2
566.029	29757.84
566.228	29475.22
566.427	29575.57
566.625	29522.32
566.824	28903.84
567.023	29421.97
567.222	29125.02
567.42	29112.73
567.619	29317.53
567.818	29018.52
568.016	29049.24
568.215	29204.89
568.414	28875.16
568.612	29096.35
568.811	28821.92
569.01	28860.83
569.208	28217.77
569.407	28574.11
569.605	28504.48
569.804	28873.12
570.002	28352.93
570.201	28852.64
570.4	28471.71
570.598	28199.34
570.797	28375.46
570.995	28127.66
571.193	27756.97
571.392	28209.57
571.59	27879.85
571.789	27638.19
571.987	27771.31
572.186	27484.59
572.384	27566.51
572.582	27853.23
572.781	27607.47
572.979	27208.12
573.177	27120.06
573.376	27500.98
573.574	27095.48
573.772	27406.77
573.971	26753.47
574.169	26970.55
574.367	26851.77
574.565	27050.42
574.763	26796.48
574.962	26966.46
575.16	26347.97
575.358	26577.34
575.556	26216.9
575.754	26837.44
575.952	25952.71
576.151	26364.36
576.349	26063.3
576.547	26085.83
576.745	26106.31
576.943	25924.04
577.141	26030.54
577.339	26313.16
577.537	26225.09
577.735	25799.12
577.933	25704.91
578.131	25651.66
578.329	25485.78
578.527	25563.6
578.725	25389.52
578.923	25577.94
579.121	25317.84
579.319	25383.38
579.516	25571.79
579.714	25219.54
579.912	25067.99
580.11	25061.85
580.308	24918.49
580.506	25051.61
580.704	24369.63
580.901	24844.76
581.099	24965.59
581.297	24295.91
581.495	24437.22
581.692	24725.98
581.89	24228.32
582.088	24590.81
582.285	24189.41
582.483	24396.26
582.681	24271.33
582.878	24050.15
583.076	24138.21
583.274	24330.72
583.471	23679.47
583.669	23857.64
583.866	23814.63
584.064	23839.21
584.262	23368.18
584.459	23796.2
584.657	23632.36
584.854	23753.19
585.052	23237.11
585.249	23398.9
585.447	23630.32
585.644	23183.86
585.841	23220.72
586.039	23349.75
586.236	22694.4
586.434	22936.06
586.631	22919.67
586.828	22944.25
587.026	22874.62
587.223	22921.72
587.42	22559.23
587.618	22630.91
587.815	22645.24
588.012	22379.01
588.21	22456.83
588.407	22651.39
588.604	22571.52
588.801	22303.23
588.999	22065.67
589.196	21867.02
589.393	21950.98
589.59	22094.34
589.787	21887.5
589.984	21940.74
590.182	21719.56
590.379	21723.66
590.576	21443.09
590.773	21856.78
590.97	21527.05
591.167	21568.01
591.364	21338.64
591.561	21574.16
591.758	21256.72
591.955	21307.92
592.152	21256.72
592.349	20988.44
592.546	21125.65
592.743	20972.05
592.94	20615.71
593.137	20791.83
593.334	20877.85
593.531	20501.02
593.727	20802.07
593.924	20828.7
594.121	20648.47
594.318	20744.73
594.515	20154.91
594.712	20789.78
594.908	20224.54
595.105	20392.48
595.302	19935.78
595.499	20175.39
595.696	19964.45
595.892	19984.93
596.089	20259.36
596.286	20202.02
596.482	20228.64
596.679	19704.36
596.876	19874.34
597.072	19612.2
597.269	19626.54
597.466	19538.48
597.662	19515.95
597.859	19888.68
598.055	19622.44
598.252	19548.72
598.448	19563.05
598.645	19153.46
598.841	19331.63
599.038	19255.86
599.234	19284.53
599.431	18862.65
599.627	18793.01
599.824	18885.17
600.02	18858.55
600.217	18881.08
600.413	18895.41
600.609	18754.1
600.806	18442.81
601.002	18635.32
601.198	18674.23
601.395	18354.75
601.591	18438.72
601.787	18788.92
601.984	18203.2
602.18	18674.23
602.376	18211.39
602.572	18332.22
602.769	18092.61
602.965	17955.4
603.161	18078.27
603.357	17855.04
603.553	17885.76
603.75	18037.31
603.946	17920.58
604.142	17906.24
604.338	17498.7
604.534	17482.31
604.73	17508.94
604.926	17551.95
605.122	17656.39
605.318	17402.44
605.514	17230.41
605.71	17013.33
605.906	17123.92
606.102	17162.83
606.298	17269.33
606.494	17144.4
606.69	17005.14
606.886	17134.16
607.082	16829.01
607.278	17017.43
607.474	16743
607.67	17027.67
607.866	16530.01
608.062	16992.85
608.257	16632.41
608.453	16685.65
608.649	16564.82
608.845	16872.02
609.041	16554.58
609.236	16484.95
609.432	16542.3
609.628	16341.6
609.824	16403.04
610.019	16274.01
610.215	16288.35
610.411	16409.18
610.606	16198.24
610.802	16443.99
610.998	16300.64
611.193	16220.77
611.389	16190.05
611.584	16122.46
611.78	15913.57
611.976	15999.59
612.171	16083.55
612.367	15983.2
612.562	15860.32
612.758	15778.4
612.953	15794.79
613.149	15852.13
613.344	15700.58
613.539	15807.08
613.735	15612.52
613.93	15602.28
614.126	15819.36
614.321	15991.39
614.517	15741.54
614.712	15266.41
614.907	15565.42
615.103	15551.08
615.298	15415.91
615.493	15417.96
615.688	15166.06
615.884	15514.22
616.079	15317.61
616.274	15409.77
616.47	15114.86
616.665	15299.18
616.86	14916.21
617.055	15098.48
617.25	15123.05
617.445	15364.71
617.641	14922.35
617.836	14973.55
618.031	14676.6
618.226	14783.09
618.421	14744.18
618.616	14719.6
618.811	14502.52
619.006	15059.57
619.201	14531.19
619.396	14621.3
619.591	14348.92
619.786	14500.47
619.981	14244.48
620.176	14459.51
620.371	14242.43
620.566	14160.51
620.761	14146.17
620.956	14209.66
621.151	13990.53
621.346	13982.34
621.541	13767.3
621.735	13773.44
621.93	13679.24
622.125	13615.75
622.32	13382.28
622.515	13361.8
622.709	13632.13
622.904	13417.1
623.099	13501.06
623.294	13341.32
623.488	13046.41
623.683	13111.95
623.878	12858
624.072	12901.01
624.267	13103.76
624.462	12810.9
624.656	12540.57
624.851	13044.37
625.046	12583.57
625.24	12626.58
625.435	12479.13
625.629	12432.02
625.824	12419.74
626.018	12221.08
626.213	12169.88
626.407	12112.54
626.602	11979.42
626.796	12266.14
626.991	12038.81
627.185	12116.64
627.38	11981.47
627.574	11688.61
627.768	11678.37
627.963	11713.19
628.157	11408.04
628.352	11631.27
628.546	11518.63
628.74	11535.01
628.935	11483.81
629.129	11559.59
629.323	11231.91
629.517	11272.87
629.712	11244.2
629.906	10961.58
630.1	10830.51
630.294	10984.11
630.489	11041.45
630.683	10754.74
630.877	10472.12
631.071	10465.97
631.265	10781.36
631.459	10674.87
631.653	10588.85
631.848	10576.56
632.042	10490.55
632.236	10474.17
632.43	10269.37
632.624	10367.67
632.818	10353.34
633.012	10146.49
633.206	10220.22
633.4	10062.52
633.594	9941.69
633.788	10046.14
633.982	9958.08
634.176	9822.91
634.369	9999.04
634.563	9736.9
634.757	9712.32
634.951	9644.74
635.145	9732.8
635.339	9630.4
635.533	9556.68
635.726	9665.22
635.92	9548.48
636.114	9620.16
636.308	9345.73
636.501	9323.21
636.695	9290.44
636.889	9138.89
637.083	9054.92
637.276	9073.35
637.47	9081.55
637.664	8839.89
637.857	9083.59
638.051	8925.9
638.244	8723.15
638.438	8936.14
638.632	8803.02
638.825	8762.06
639.019	8440.53
639.212	8512.21
639.406	8522.45
639.599	8555.22
639.793	8579.79
639.986	8270.55
640.18	8321.75
640.373	8418
640.567	8026.84
640.76	8188.63
640.954	8252.12
641.147	8133.34
641.34	8174.3
641.534	8094.43
641.727	8075.99
641.92	7949.02
642.114	7813.85
642.307	7822.05
642.5	7873.25
642.694	7607.01
642.887	7602.91
643.08	7774.94
643.273	7461.6
643.467	7721.7
643.66	7434.98
643.853	7473.89
644.046	7252.71
644.239	7486.18
644.432	7391.97
644.626	7455.46
644.819	7197.42
645.012	7191.27
645.205	7262.95
645.398	7150.31
645.591	7150.31
645.784	7056.11
645.977	6953.71
646.17	7090.92
646.363	7000.81
646.556	6925.04
646.749	6879.98
646.942	6865.64
647.135	6707.95
647.328	6845.16
647.521	6722.29
647.714	6671.09
647.907	6607.6
648.099	6566.64
648.292	6617.84
648.485	6564.59
648.678	6482.67
648.871	6273.78
649.064	6302.45
649.256	6466.29
649.449	6349.56
649.642	6386.42
649.835	6228.73
650.027	6187.77
650.22	6271.73
650.413	6099.7
650.605	6275.83
650.798	6144.76
650.991	6167.29
651.183	5933.82
651.376	6097.66
651.568	6083.32
651.761	5972.73
651.954	5954.3
652.146	5896.96
652.339	5888.76
652.531	6019.83
652.724	5729.02
652.916	5821.18
653.109	5731.07
653.301	5706.49
653.494	5561.09
653.686	5647.1
653.879	5554.94
654.071	5550.85
654.263	5520.13
654.456	5481.22
654.648	5387.01
654.84	5491.46
655.033	5311.24
655.225	5294.85
655.417	5251.85
655.61	5286.66
655.802	5309.19
655.994	5063.43
656.186	5401.35
656.379	5081.86
656.571	5163.78
656.763	5118.73
656.955	5036.81
657.148	5051.14
657.34	5131.02
657.532	5077.77
657.724	5045
657.916	5116.68
658.108	4950.79
658.3	4930.31
658.492	4764.43
658.684	4807.44
658.876	4838.16
659.068	4883.21
659.26	4569.87
659.452	4766.48
659.644	4737.81
659.836	4756.24
660.028	4682.51
660.22	4455.19
660.412	4492.05
660.604	4707.09
660.796	4713.23
660.988	4598.54
661.18	4410.13
661.372	4397.84
661.563	4549.39
661.755	4369.17
661.947	4537.1
662.139	4414.23
662.331	4401.94
662.522	4369.17
662.714	4340.5
662.906	4223.76
663.097	4283.16
663.289	4238.1
663.481	4170.52
663.673	4281.11
663.864	4252.44
664.056	4141.85
664.247	4119.32
664.439	4141.85
664.631	4150.04
664.822	4086.55
665.014	4018.97
665.205	3998.49
665.397	4004.63
665.588	3951.39
665.78	3982.1
665.971	3930.91
666.163	3904.28
666.354	3765.02
666.546	3805.98
666.737	3703.58
666.929	3662.62
667.12	3885.85
667.311	3799.84
667.503	3668.77
667.694	3728.16
667.885	3650.33
668.077	3668.77
668.268	3732.25
668.459	3527.46
668.651	3547.94
668.842	3699.48
669.033	3564.32
669.224	3748.64
669.416	3629.85
669.607	3654.43
669.798	3420.96
669.989	3590.94
670.18	3672.86
670.371	3386.15
670.563	3390.24
670.754	3490.59
670.945	3517.22
671.136	3402.53
671.327	3455.78
671.518	3445.54
671.709	3388.19
671.9	3371.81
672.091	3470.11
672.282	3244.84
672.473	3300.13
672.664	3375.91
672.855	3273.51
673.046	3259.17
673.237	3148.58
673.428	3308.32
673.619	3298.08
673.809	3226.4
674	3167.01
674.191	3246.88
674.382	3296.04
674.573	3154.73
674.764	3150.63
674.954	3158.82
675.145	3150.63
675.336	3156.77
675.527	3160.87
675.717	3246.88
675.908	3117.86
676.099	3230.5
676.289	3083.05
676.48	3097.38
676.671	3099.43
676.861	2933.54
677.052	3015.46
677.243	2962.22
677.433	2917.16
677.624	3029.8
677.814	3072.81
678.005	2978.6
678.195	3109.67
678.386	3072.81
678.576	3078.95
678.767	2921.26
678.957	2935.59
679.148	3068.71
679.338	2958.12
679.529	2954.02
679.719	3037.99
679.909	3007.27
680.1	2884.39
680.29	2853.67
680.481	2868.01
680.671	2917.16
680.861	2939.69
681.052	2886.44
681.242	2880.3
681.432	2927.4
681.622	2857.77
681.813	2841.39
682.003	2970.41
682.193	2792.23
682.383	2868.01
682.573	2863.91
682.764	2896.68
682.954	2868.01
683.144	2837.29
683.334	2919.21
683.524	2945.83
683.714	2796.33
683.904	2773.8
684.094	2796.33
684.284	2728.75
684.474	2775.85
684.664	2804.52
684.854	2779.95
685.044	2847.53
685.234	2738.99
685.424	2831.15
685.614	2804.52
685.804	2792.23
685.994	2736.94
686.184	2800.43
686.374	2753.32
686.564	2738.99
686.753	2757.42
686.943	2693.93
687.133	2800.43
687.323	2814.76
687.513	2777.9
687.702	2732.84
687.892	2726.7
688.082	2812.71
688.272	2685.74
688.461	2710.32
688.651	2747.18
688.841	2702.12
689.03	2624.3
689.22	2534.19
689.41	2640.69
689.599	2632.49
689.789	2571.05
689.979	2642.73
690.168	2665.26
690.358	2583.34
690.547	2546.48
690.737	2741.04
690.926	2667.31
691.116	2507.57
691.305	2536.24
691.495	2560.81
691.684	2466.61
691.874	2599.73
692.063	2554.67
692.252	2605.87
692.442	2489.14
692.631	2470.7
692.82	2587.44
693.01	2495.28
693.199	2538.29
693.388	2487.09
693.578	2392.88
693.767	2546.48
693.956	2497.33
694.146	2511.66
694.335	2454.32
694.524	2448.18
694.713	2399.02
694.902	2552.62
695.092	2431.79
695.281	2419.5
695.47	2472.75
695.659	2468.66
695.848	2452.27
696.037	2341.68
696.226	2294.58
696.415	2480.94
696.604	2478.9
696.793	2411.31
696.982	2409.26
697.171	2450.22
697.36	2415.41
697.549	2386.74
697.738	2368.31
697.927	2331.44
698.116	2339.63
698.305	2454.32
698.494	2315.06
698.683	2345.78
698.872	2388.78
699.061	2304.82
699.25	2337.59
699.438	2286.39
699.627	2413.36
699.816	2364.21
700.005	2290.48
700.193	2419.5
700.382	2374.45
700.571	2366.26
700.76	2327.35
700.948	2290.48
701.137	2325.3
701.326	2130.74
701.514	2331.44
701.703	2220.85
701.892	2382.64
702.08	2278.19
702.269	2231.09
702.457	2282.29
702.646	2302.77
702.834	2222.9
703.023	2161.46
703.212	2208.56
703.4	2313.01
703.589	2202.42
703.777	2333.49
703.965	2208.56
704.154	2249.52
704.342	2280.24
704.531	2186.04
704.719	2161.46
704.907	2267.95
705.096	2214.71
705.284	2218.8
705.472	2210.61
705.661	2145.08
705.849	2155.32
706.037	2181.94
706.226	2108.21
706.414	2161.46
706.602	2077.49
706.79	2270
706.979	2171.7
707.167	2196.28
707.355	2120.5
707.543	2179.89
707.731	2181.94
707.919	2140.98
708.107	2104.12
708.296	1995.57
708.484	2042.68
708.672	2044.73
708.86	1985.34
709.048	2079.54
709.236	2044.73
709.424	2057.01
709.612	2063.16
709.8	2036.53
709.988	1999.67
710.176	1993.53
710.364	1993.53
710.551	1946.42
710.739	2102.07
710.927	1993.53
711.115	2071.35
711.303	1942.33
711.491	1893.18
711.679	1921.85
711.866	1934.14
712.054	1938.23
712.242	1927.99
712.43	2089.78
712.617	1968.95
712.805	1962.81
712.993	1934.14
713.181	1844.03
713.368	1911.61
713.556	1921.85
713.744	1874.74
713.931	1975.1
714.119	2014.01
714.306	1956.66
714.494	1934.14
714.682	1911.61
714.869	1938.23
715.057	1932.09
715.244	1973.05
715.432	1788.73
715.619	1815.35
715.807	1788.73
715.994	1966.9
716.182	1889.08
716.369	1854.27
716.556	1803.07
716.744	1829.69
716.931	1774.39
717.119	1940.28
717.306	1772.35
717.493	1848.12
717.681	1776.44
717.868	1848.12
718.055	1719.1
718.242	1897.27
718.43	1884.98
718.617	1848.12
718.804	1776.44
718.991	1772.35
719.179	1790.78
719.366	1758.01
719.553	1758.01
719.74	1794.87
719.927	1659.71
720.114	1733.43
720.301	1753.91
720.488	1655.61
720.676	1817.4
720.863	1807.16
721.05	1778.49
721.237	1659.71
721.424	1684.28
721.611	1778.49
721.798	1833.79
721.985	1735.48
722.172	1731.39
722.358	1688.38
722.545	1727.29
722.732	1727.29
722.919	1725.24
723.106	1731.39
723.293	1751.87
723.48	1712.96
723.667	1751.87
723.853	1721.15
724.04	1637.18
724.227	1751.87
724.414	1635.13
724.6	1606.46
724.787	1606.46
724.974	1590.08
725.161	1676.09
725.347	1579.84
725.534	1624.89
725.72	1678.14
725.907	1663.8
726.094	1659.71
726.28	1510.21
726.467	1628.99
726.653	1606.46
726.84	1661.76
727.027	1647.42
727.213	1438.53
727.4	1643.32
727.586	1590.08
727.773	1555.26
727.959	1588.03
728.145	1624.89
728.332	1545.02
728.518	1551.17
728.705	1661.76
728.891	1598.27
729.077	1659.71
729.264	1428.29
729.45	1534.78
729.636	1624.89
729.823	1604.41
730.009	1555.26
730.195	1420.1
730.382	1506.11
730.568	1526.59
730.754	1614.65
730.94	1473.34
731.126	1436.48
731.313	1504.06
731.499	1532.73
731.685	1520.45
731.871	1532.73
732.057	1485.63
732.243	1454.91
732.429	1520.45
732.615	1512.25
732.801	1491.77
732.987	1542.97
733.173	1448.77
733.359	1536.83
733.545	1506.11
733.731	1409.86
733.917	1520.45
734.103	1430.34
734.289	1571.65
734.475	1534.78
734.661	1524.54
734.847	1442.62
735.033	1497.92
735.219	1459.01
735.404	1389.38
735.59	1442.62
735.776	1387.33
735.962	1479.49
736.148	1430.34
736.333	1387.33
736.519	1473.34
736.705	1422.14
736.89	1413.95
737.076	1446.72
737.262	1465.15
737.447	1387.33
737.633	1405.76
737.819	1323.84
738.004	1377.09
738.19	1471.29
738.375	1362.75
738.561	1432.38
738.747	1334.08
738.932	1467.2
739.118	1307.46
739.303	1393.47
739.489	1352.51
739.674	1430.34
739.859	1354.56
740.045	1289.03
740.23	1364.8
740.416	1430.34
740.601	1299.27
740.786	1295.17
740.972	1364.8
741.157	1311.55
741.342	1350.46
741.528	1346.37
741.713	1303.36
741.898	1237.83
742.084	1360.7
742.269	1356.61
742.454	1286.98
742.639	1370.94
742.824	1334.08
743.01	1250.11
743.195	1340.22
743.38	1385.28
743.565	1270.59
743.75	1340.22
743.935	1268.55
744.12	1289.03
744.305	1168.2
744.49	1276.74
744.675	1243.97
744.86	1180.48
745.045	1153.86
745.23	1286.98
745.415	1274.69
745.6	1143.62
745.785	1186.63
745.97	1295.17
746.155	1209.15
746.34	1147.72
746.525	1160
746.71	1213.25
746.895	1094.47
747.079	1200.96
747.264	1117
747.449	1121.09
747.634	1096.52
747.819	1190.72
748.003	1151.81
748.188	1043.27
748.373	1121.09
748.557	1076.04
748.742	1164.1
748.927	1078.08
749.111	1037.13
749.296	1047.37
749.481	1096.52
749.665	1086.28
749.85	1037.13
750.034	1121.09
750.219	1133.38
750.404	1004.36
750.588	985.93
750.773	1049.41
750.957	922.44
751.141	1028.93
751.326	1102.66
751.51	940.87
751.695	918.34
751.879	985.93
752.064	1063.75
752.248	990.02
752.432	922.44
752.617	985.93
752.801	1020.74
752.985	1022.79
753.17	906.06
753.354	985.93
753.538	959.3
753.722	930.63
753.907	944.97
754.091	959.3
754.275	1012.55
754.459	852.81
754.643	963.4
754.828	971.59
755.012	895.82
755.196	869.19
755.38	949.06
755.564	867.14
755.748	871.24
755.932	875.34
756.116	953.16
756.3	858.95
756.484	889.67
756.668	799.56
756.852	867.14
757.036	795.47
757.22	817.99
757.404	811.85
757.588	858.95
757.772	832.33
757.956	787.27
758.14	734.03
758.323	762.7
758.507	803.66
758.691	678.73
758.875	748.36
759.059	729.93
759.242	772.94
759.426	791.37
759.61	734.03
759.794	742.22
759.977	797.51
760.161	770.89
760.345	768.84
760.528	756.55
760.712	705.35
760.895	744.27
761.079	736.07
761.263	699.21
761.446	738.12
761.63	744.27
761.813	711.5
761.997	777.03
762.18	648.01
762.364	742.22
762.547	633.68
762.731	691.02
762.914	625.48
763.098	650.06
763.281	697.16
763.464	652.11
763.648	713.55
763.831	705.35
764.015	602.96
764.198	705.35
764.381	697.16
764.564	578.38
764.748	705.35
764.931	658.25
765.114	629.58
765.297	738.12
765.481	639.82
765.664	643.92
765.847	639.82
766.03	713.55
766.213	596.81
766.397	602.96
766.58	598.86
766.763	553.8
766.946	629.58
767.129	676.68
767.312	750.41
767.495	684.87
767.678	643.92
767.861	564.04
768.044	586.57
768.227	623.44
768.41	586.57
768.593	619.34
768.776	633.68
768.959	529.23
769.142	574.28
769.324	578.38
769.507	543.57
769.69	564.04
769.873	564.04
770.056	605
770.239	535.37
770.421	568.14
770.604	547.66
770.787	514.89
770.97	516.94
771.152	557.9
771.335	656.2
771.518	529.23
771.7	580.43
771.883	523.09
772.066	547.66
772.248	559.95
772.431	564.04
772.613	508.75
772.796	523.09
772.978	568.14
773.161	578.38
773.343	629.58
773.526	529.23
773.708	514.89
773.891	492.37
774.073	496.46
774.256	527.18
774.438	545.61
774.621	488.27
774.803	506.7
774.985	453.45
775.168	467.79
775.35	473.93
775.532	375.63
775.715	488.27
775.897	484.17
776.079	447.31
776.261	465.74
776.444	455.5
776.626	494.41
776.808	471.89
776.99	478.03
777.173	531.28
777.355	455.5
777.537	432.97
777.719	482.13
777.901	387.92
778.083	512.85
778.265	441.17
778.447	508.75
778.629	320.34
778.811	437.07
778.993	443.21
779.175	392.02
779.357	394.06
779.539	394.06
779.721	439.12
779.903	439.12
780.085	357.2
780.267	373.58
780.449	430.93
780.631	373.58
780.812	443.21
780.994	387.92
781.176	400.21
781.358	359.25
781.54	387.92
781.721	365.39
781.903	381.78
782.085	387.92
782.267	387.92
782.448	377.68
782.63	306
782.812	258.9
782.993	349.01
783.175	408.4
783.357	310.1
783.538	316.24
783.72	389.97
783.901	310.1
784.083	324.43
784.264	269.14
784.446	308.05
784.627	324.43
784.809	297.81
784.99	359.25
785.172	308.05
785.353	377.68
785.535	383.82
785.716	238.42
785.897	303.95
786.079	301.9
786.26	320.34
786.441	269.14
786.623	277.33
786.804	316.24
786.985	357.2
787.167	308.05
787.348	324.43
787.529	250.71
787.71	297.81
787.891	303.95
788.073	281.43
788.254	271.19
788.435	164.69
788.616	265.04
788.797	258.9
788.978	250.71
789.159	209.75
789.34	170.83
789.522	222.03
789.703	316.24
789.884	256.85
790.065	310.1
790.246	256.85
790.427	240.47
790.607	277.33
790.788	215.89
790.969	224.08
791.15	258.9
791.331	203.6
791.512	295.76
791.693	238.42
791.874	277.33
792.054	273.23
792.235	258.9
792.416	265.04
792.597	232.27
792.778	152.4
792.958	203.6
793.139	254.8
793.32	271.19
793.5	281.43
793.681	185.17
793.862	265.04
794.042	213.84
794.223	230.23
794.404	236.37
794.584	209.75
794.765	185.17
794.945	115.54
795.126	277.33
795.306	248.66
795.487	213.84
795.667	224.08
795.848	267.09
796.028	205.65
796.209	203.6
796.389	232.27
796.57	248.66
796.75	228.18
796.93	203.6
797.111	138.07
797.291	168.79
797.471	201.55
797.652	228.18
797.832	197.46
798.012	219.99
798.192	129.88
798.373	193.36
798.553	201.55
798.733	232.27
798.913	146.26
799.093	152.4
799.274	199.51
799.454	133.97
799.634	191.31
799.814	160.59
799.994	189.27
800.174	197.46
800.354	148.31
800.534	211.79
800.714	115.54
800.894	209.75
801.074	152.4
801.254	129.88
801.434	115.54
801.614	181.07
801.794	78.68
801.974	396.11
802.154	146.26
802.334	160.59
802.514	160.59
802.693	217.94
802.873	152.4
803.053	142.16
803.233	121.68
803.413	195.41
803.592	136.02
803.772	170.83
803.952	142.16
804.131	138.07
804.311	95.06
804.491	187.22
804.67	152.4
804.85	125.78
805.03	179.03
805.209	142.16
805.389	136.02
805.568	183.12
805.748	152.4
805.928	164.69
806.107	95.06
806.287	154.45
806.466	115.54
806.646	84.82
806.825	107.35
807.004	127.83
807.184	47.96
807.363	136.02
807.543	166.74
807.722	142.16
807.901	148.31
808.081	203.6
808.26	152.4
808.439	86.87
808.619	156.5
808.798	131.92
808.977	158.55
809.156	95.06
809.336	62.29
809.515	146.26
809.694	138.07
809.873	105.3
810.052	131.92
810.231	107.35
810.411	156.5
810.59	107.35
810.769	74.58
810.948	45.91
811.127	176.98
811.306	111.44
811.485	80.72
811.664	127.83
811.843	78.68
812.022	121.68
812.201	103.25
812.38	131.92
812.559	97.11
812.737	103.25
812.916	136.02
813.095	144.21
813.274	115.54
813.453	129.88
813.632	144.21
813.811	142.16
813.989	82.77
814.168	125.78
814.347	13.14
814.526	146.26
814.704	131.92
814.883	113.49
815.062	45.91
815.24	166.74
815.419	64.34
815.598	127.83
815.776	74.58
815.955	70.48
816.133	54.1
816.312	41.81
816.49	39.76
816.669	105.3
816.847	127.83
817.026	82.77
817.204	93.01
817.383	117.59
817.561	33.62
817.74	76.63
817.918	121.68
818.097	111.44
818.275	93.01
818.453	109.4
818.632	52.05
818.81	64.34
818.988	76.63
819.167	78.68
819.345	113.49
819.523	70.48
819.701	148.31
819.879	109.4
820.058	66.39
820.236	76.63
820.414	62.29
820.592	64.34
820.77	95.06
820.948	97.11
821.127	74.58
821.305	90.96
821.483	80.72
821.661	109.4
821.839	123.73
822.017	23.38
822.195	56.15
822.373	86.87
822.551	78.68
822.729	99.16
822.907	95.06
823.085	80.72
823.262	107.35
823.44	90.96
823.618	82.77
823.796	11.09
823.974	29.52
824.152	84.82
824.329	133.97
824.507	117.59
824.685	82.77
824.863	72.53
825.04	13.14
825.218	90.96
825.396	74.58
825.574	54.1
825.751	82.77
825.929	95.06
826.107	109.4
826.284	58.2
826.462	119.64
826.639	47.96
826.817	70.48
826.994	37.72
827.172	80.72
827.349	27.48
827.527	123.73
827.704	109.4
827.882	41.81
828.059	103.25
828.237	86.87
828.414	74.58
828.591	25.43
828.769	82.77
828.946	33.62
829.124	105.3
829.301	62.29
829.478	103.25
829.655	21.33
829.833	37.72
830.01	76.63
830.187	54.1
830.364	47.96
830.542	37.72
830.719	13.14
830.896	107.35
831.073	88.92
831.25	152.4
831.427	101.2
831.604	47.96
831.782	86.87
831.959	119.64
832.136	47.96
832.313	80.72
832.49	62.29
832.667	-5.29
832.844	70.48
833.021	47.96
833.198	72.53
833.374	60.24
833.551	66.39
833.728	9.05
833.905	64.34
834.082	80.72
834.259	60.24
834.436	101.2
834.612	101.2
834.789	54.1
834.966	68.44
835.143	70.48
835.319	29.52
835.496	66.39
835.673	78.68
835.85	21.33
836.026	-25.77
836.203	107.35
836.38	90.96
836.556	37.72
836.733	21.33
836.909	31.57
837.086	33.62
837.262	15.19
837.439	136.02
837.616	80.72
837.792	99.16
837.968	80.72
838.145	9.05
838.321	52.05
838.498	72.53
838.674	86.87
838.851	119.64
839.027	29.52
839.203	15.19
839.38	41.81
839.556	101.2
839.732	33.62
839.909	-1.19
840.085	103.25
840.261	29.52
840.437	109.4
840.614	66.39
840.79	74.58
840.966	39.76
841.142	140.12
841.318	138.07
841.494	56.15
841.671	27.48
841.847	-5.29
842.023	66.39
842.199	39.76
842.375	93.01
842.551	56.15
842.727	-15.53
842.903	47.96
843.079	72.53
843.255	4.95
843.431	144.21
843.607	99.16
843.783	17.24
843.959	2.9
844.134	13.14
844.31	37.72
844.486	68.44
844.662	7
844.838	47.96
845.013	154.45
845.189	9.05
845.365	80.72
845.541	15.19
845.716	70.48
845.892	-31.91
846.068	-38.06
846.244	33.62
846.419	95.06
846.595	9.05
846.77	4.95
846.946	-11.43
847.122	29.52
847.297	39.76
847.473	60.24
847.648	-5.29
847.824	78.68
847.999	-54.44
848.175	7
848.35	70.48
848.526	33.62
848.701	86.87
848.876	99.16
849.052	90.96
849.227	90.96
849.403	39.76
849.578	107.35
849.753	0.85
849.929	86.87
850.104	21.33
850.279	19.29
850.454	-1.19
850.63	-15.53
850.805	37.72
850.98	66.39
851.155	29.52
851.33	66.39
851.505	2.9
851.681	66.39
851.856	-21.67
852.031	54.1
852.206	47.96
852.381	62.29
852.556	2.9
852.731	72.53
852.906	15.19
853.081	37.72
853.256	45.91
853.431	9.05
853.606	29.52
853.781	43.86
853.956	21.33
854.131	-33.96
854.305	54.1
854.48	31.57
854.655	-33.96
854.83	23.38
855.005	-31.91
855.18	66.39
855.354	52.05
855.529	93.01
855.704	23.38
855.879	19.29
856.053	45.91
856.228	78.68
856.403	11.09
856.577	50
856.752	82.77
856.926	35.67
857.101	66.39
857.276	-44.2
857.45	-9.39
857.625	72.53
857.799	27.48
857.974	111.44
858.148	-17.58
858.323	-1.19
858.497	-19.63
858.672	19.29
858.846	56.15
859.02	37.72
859.195	25.43
859.369	131.92
859.543	21.33
859.718	13.14
859.892	23.38
860.066	37.72
860.241	11.09
860.415	33.62
860.589	-11.43
860.763	23.38
860.938	-15.53
861.112	52.05
861.286	2.9
861.46	35.67
861.634	0.85
861.808	15.19
861.982	39.76
862.157	45.91
862.331	52.05
862.505	23.38
862.679	54.1
862.853	52.05
863.027	-29.87
863.201	15.19
863.375	21.33
863.549	47.96
863.722	-29.87
863.896	-3.24
864.07	21.33
864.244	-23.72
864.418	62.29
864.592	19.29
864.766	23.38
864.939	62.29
865.113	-68.78
865.287	-3.24
865.461	29.52
865.634	43.86
865.808	-7.34
865.982	58.2
866.156	47.96
866.329	-25.77
866.503	19.29
866.676	19.29
866.85	-9.39
867.024	111.44
867.197	78.68
867.371	-1.19
867.544	-52.39
867.718	19.29
867.891	-62.63
868.065	25.43
868.238	50
868.412	-9.39
868.585	15.19
868.759	19.29
868.932	2.9
869.105	-11.43
869.279	50
869.452	41.81
869.625	78.68
869.799	39.76
869.972	9.05
870.145	-21.67
870.319	41.81
870.492	39.76
870.665	-19.63
870.838	35.67
871.011	11.09
871.185	-52.39
871.358	13.14
871.531	33.62
871.704	-58.54
871.877	-40.11
872.05	-11.43
872.223	45.91
872.396	13.14
872.569	54.1
872.742	-9.39
872.915	56.15
873.088	68.44
873.261	76.63
873.434	0.85
873.607	80.72
873.78	50
873.953	-40.11
874.126	47.96
874.299	43.86
874.471	-3.24
874.644	25.43
874.817	23.38
874.99	37.72
875.163	29.52
875.335	-7.34
875.508	45.91
875.681	62.29
875.853	2.9
876.026	33.62
876.199	-54.44
876.371	56.15
876.544	19.29
876.717	9.05
876.889	33.62
877.062	-27.82
877.234	39.76
877.407	-31.91
877.579	35.67
877.752	86.87
877.924	29.52
878.097	58.2
878.269	72.53
878.442	66.39
878.614	29.52
878.786	95.06
878.959	-19.63
879.131	66.39
879.303	-54.44
879.476	60.24
879.648	13.14
879.82	144.21
879.993	-5.29
880.165	-38.06
880.337	29.52
880.509	7
880.681	72.53
880.854	60.24
881.026	43.86
881.198	13.14
881.37	15.19
881.542	41.81
881.714	-25.77
881.886	45.91
882.058	-5.29
882.23	-60.59
882.402	11.09
882.574	13.14
882.746	17.24
882.918	-21.67
883.09	-33.96
883.262	11.09
883.434	19.29
883.606	4.95
883.778	29.52
883.95	45.91
884.122	78.68
884.293	56.15
884.465	35.67
884.637	86.87
884.809	13.14
884.98	-25.77
885.152	54.1
885.324	56.15
885.496	50
885.667	54.1
885.839	0.85
886.011	25.43
886.182	70.48
886.354	39.76
886.525	-40.11
886.697	39.76
886.869	-13.48
887.04	37.72
887.212	52.05
887.383	-15.53
887.555	54.1
887.726	-5.29
887.897	2.9
888.069	64.34
888.24	2.9
888.412	4.95
888.583	4.95
888.754	31.57
888.926	-33.96
889.097	25.43
889.268	15.19
889.44	31.57
889.611	7
889.782	37.72
889.953	-44.2
890.125	37.72
890.296	-9.39
890.467	15.19
890.638	21.33
890.809	-36.01
890.98	25.43
891.151	37.72
891.323	82.77
891.494	86.87
891.665	9.05
891.836	56.15
892.007	29.52
892.178	-25.77
892.349	-48.3
892.52	17.24
892.691	39.76
892.862	29.52
893.032	66.39
893.203	95.06
893.374	-11.43
893.545	31.57
893.716	-15.53
893.887	-11.43
894.057	37.72
894.228	45.91
894.399	-19.63
894.57	7
894.74	-17.58
894.911	-60.59
895.082	-19.63
895.253	41.81
895.423	-40.11
895.594	54.1
895.764	60.24
895.935	-38.06
896.106	2.9
896.276	78.68
896.447	-3.24
896.617	-19.63
896.788	27.48
896.958	-19.63
897.129	62.29
897.299	11.09
897.47	72.53
897.64	64.34
897.81	-5.29
897.981	-36.01
898.151	-58.54
898.322	47.96
898.492	70.48
898.662	-11.43
898.832	-9.39
899.003	29.52
899.173	25.43
899.343	-15.53
899.513	27.48
