Data from USB4F104151__68__12-59-36-022.txt Node

Date: Fri Mar 14 12:59:36 EDT 2025
User: louis
Spectrometer: USB4F10415
Trigger mode: 4
Integration Time (sec): 1.000000E-2
Scans to average: 1
Electric dark correction enabled: true
Nonlinearity correction enabled: false
Boxcar width: 0
XAxis mode: Wavelengths
Number of Pixels in Spectrum: 3648
>>>>>Begin Spectral Data<<<<<
178.204	-23.55
178.424	-23.55
178.644	-23.55
178.864	-21.5
179.084	-31.74
179.304	-39.94
179.524	-39.94
179.744	-17.41
179.964	27.65
180.184	-13.31
180.404	-1.02
180.624	11.26
180.844	72.7
181.064	-54.27
181.283	44.03
181.503	23.55
181.723	-13.31
181.943	-35.84
182.163	39.94
182.383	37.89
182.602	19.46
182.822	72.7
183.042	31.74
183.262	39.94
183.482	39.94
183.701	-19.46
183.921	23.55
184.141	-31.74
184.361	95.23
184.58	7.17
184.8	74.75
185.02	3.07
185.239	76.8
185.459	25.6
185.679	39.94
185.898	21.5
186.118	39.94
186.338	25.6
186.557	25.6
186.777	-13.31
186.997	19.46
187.216	11.26
187.436	25.6
187.655	50.18
187.875	56.32
188.095	-9.22
188.314	27.65
188.534	23.55
188.753	9.22
188.973	39.94
189.192	48.13
189.412	33.79
189.631	3.07
189.851	-17.41
190.07	-37.89
190.29	-25.6
190.509	35.84
190.729	-15.36
190.948	62.46
191.168	41.98
191.387	1.02
191.607	39.94
191.826	19.46
192.045	70.65
192.265	31.74
192.484	17.41
192.704	-33.79
192.923	-11.26
193.142	33.79
193.362	39.94
193.581	80.89
193.8	70.65
194.02	39.94
194.239	21.5
194.458	-1.02
194.678	-23.55
194.897	7.17
195.116	15.36
195.335	64.51
195.555	48.13
195.774	-7.17
195.993	56.32
196.212	15.36
196.432	31.74
196.651	7.17
196.87	13.31
197.089	27.65
197.308	-5.12
197.528	-35.84
197.747	17.41
197.966	-3.07
198.185	23.55
198.404	19.46
198.623	64.51
198.842	-17.41
199.062	46.08
199.281	68.61
199.5	76.8
199.719	23.55
199.938	17.41
200.157	15.36
200.376	82.94
200.595	41.98
200.814	25.6
201.033	-27.65
201.252	125.95
201.471	74.75
201.69	-21.5
201.909	50.18
202.128	-7.17
202.347	46.08
202.566	-31.74
202.785	-25.6
203.004	-35.84
203.223	9.22
203.442	-15.36
203.661	-9.22
203.879	23.55
204.098	31.74
204.317	-54.27
204.536	39.94
204.755	9.22
204.974	19.46
205.193	44.03
205.411	80.89
205.63	41.98
205.849	11.26
206.068	37.89
206.287	74.75
206.505	19.46
206.724	-9.22
206.943	-11.26
207.162	64.51
207.381	5.12
207.599	-41.98
207.818	23.55
208.037	-29.7
208.255	-74.75
208.474	21.5
208.693	11.26
208.911	27.65
209.13	3.07
209.349	21.5
209.567	58.37
209.786	-33.79
210.005	-13.31
210.223	-33.79
210.442	33.79
210.661	9.22
210.879	54.27
211.098	23.55
211.316	-27.65
211.535	21.5
211.753	9.22
211.972	48.13
212.191	13.31
212.409	-17.41
212.628	-78.85
212.846	48.13
213.065	-35.84
213.283	48.13
213.502	-15.36
213.72	-19.46
213.938	72.7
214.157	13.31
214.375	3.07
214.594	-7.17
214.812	3.07
215.031	72.7
215.249	82.94
215.467	-11.26
215.686	19.46
215.904	13.31
216.122	-31.74
216.341	97.28
216.559	11.26
216.778	54.27
216.996	58.37
217.214	80.89
217.432	58.37
217.651	70.65
217.869	21.5
218.087	-35.84
218.306	-37.89
218.524	33.79
218.742	25.6
218.96	39.94
219.179	11.26
219.397	-56.32
219.615	-33.79
219.833	-5.12
220.051	80.89
220.27	52.22
220.488	33.79
220.706	7.17
220.924	17.41
221.142	56.32
221.36	-64.51
221.578	23.55
221.796	54.27
222.015	23.55
222.233	-23.55
222.451	-1.02
222.669	-21.5
222.887	-9.22
223.105	44.03
223.323	62.46
223.541	29.7
223.759	-17.41
223.977	13.31
224.195	46.08
224.413	23.55
224.631	48.13
224.849	-1.02
225.067	-54.27
225.285	9.22
225.503	7.17
225.721	132.09
225.939	-21.5
226.157	-23.55
226.375	60.42
226.592	19.46
226.81	-56.32
227.028	31.74
227.246	58.37
227.464	15.36
227.682	31.74
227.9	-54.27
228.117	-58.37
228.335	29.7
228.553	-3.07
228.771	11.26
228.989	58.37
229.206	1.02
229.424	39.94
229.642	-17.41
229.86	35.84
230.077	-23.55
230.295	-9.22
230.513	74.75
230.731	27.65
230.948	1.02
231.166	56.32
231.384	62.46
231.601	41.98
231.819	35.84
232.037	41.98
232.254	17.41
232.472	1.02
232.689	-27.65
232.907	13.31
233.125	-5.12
233.342	29.7
233.56	50.18
233.777	64.51
233.995	60.42
234.213	21.5
234.43	13.31
234.648	-1.02
234.865	15.36
235.083	5.12
235.3	58.37
235.518	35.84
235.735	72.7
235.953	68.61
236.17	35.84
236.388	27.65
236.605	113.66
236.822	5.12
237.04	48.13
237.257	-46.08
237.475	70.65
237.692	37.89
237.909	70.65
238.127	21.5
238.344	21.5
238.562	-1.02
238.779	-31.74
238.996	3.07
239.214	82.94
239.431	25.6
239.648	27.65
239.865	41.98
240.083	41.98
240.3	-66.56
240.517	72.7
240.735	-9.22
240.952	3.07
241.169	25.6
241.386	-7.17
241.603	60.42
241.821	27.65
242.038	56.32
242.255	-17.41
242.472	25.6
242.689	-9.22
242.907	-7.17
243.124	25.6
243.341	27.65
243.558	29.7
243.775	15.36
243.992	27.65
244.209	41.98
244.426	58.37
244.643	39.94
244.86	31.74
245.078	60.42
245.295	58.37
245.512	46.08
245.729	-7.17
245.946	-15.36
246.163	-1.02
246.38	41.98
246.597	19.46
246.814	-31.74
247.031	72.7
247.248	-9.22
247.464	21.5
247.681	-25.6
247.898	7.17
248.115	13.31
248.332	-19.46
248.549	138.24
248.766	23.55
248.983	-31.74
249.2	27.65
249.417	-23.55
249.633	-25.6
249.85	25.6
250.067	-46.08
250.284	31.74
250.501	-46.08
250.717	44.03
250.934	5.12
251.151	1.02
251.368	46.08
251.585	70.65
251.801	33.79
252.018	56.32
252.235	-46.08
252.451	31.74
252.668	11.26
252.885	19.46
253.102	46.08
253.318	-41.98
253.535	33.79
253.752	27.65
253.968	15.36
254.185	48.13
254.401	-48.13
254.618	58.37
254.835	41.98
255.051	-46.08
255.268	46.08
255.484	21.5
255.701	52.22
255.917	54.27
256.134	23.55
256.351	64.51
256.567	9.22
256.784	7.17
257	-17.41
257.217	27.65
257.433	62.46
257.65	33.79
257.866	74.75
258.082	27.65
258.299	-52.22
258.515	52.22
258.732	27.65
258.948	-29.7
259.165	29.7
259.381	37.89
259.597	52.22
259.814	41.98
260.03	-1.02
260.246	-3.07
260.463	-27.65
260.679	9.22
260.895	27.65
261.112	25.6
261.328	-39.94
261.544	-3.07
261.761	54.27
261.977	29.7
262.193	-17.41
262.409	39.94
262.626	-7.17
262.842	-3.07
263.058	33.79
263.274	66.56
263.49	1.02
263.707	70.65
263.923	7.17
264.139	9.22
264.355	48.13
264.571	80.89
264.787	35.84
265.004	41.98
265.22	5.12
265.436	9.22
265.652	-66.56
265.868	62.46
266.084	37.89
266.3	109.57
266.516	-27.65
266.732	-13.31
266.948	44.03
267.164	23.55
267.38	68.61
267.596	9.22
267.812	93.18
268.028	64.51
268.244	58.37
268.46	-7.17
268.676	62.46
268.892	31.74
269.108	97.28
269.324	54.27
269.54	33.79
269.756	54.27
269.972	13.31
270.188	33.79
270.403	-37.89
270.619	17.41
270.835	74.75
271.051	-66.56
271.267	-50.18
271.483	23.55
271.698	-11.26
271.914	68.61
272.13	35.84
272.346	-39.94
272.562	21.5
272.777	41.98
272.993	25.6
273.209	48.13
273.425	78.85
273.64	7.17
273.856	3.07
274.072	46.08
274.287	66.56
274.503	72.7
274.719	-31.74
274.934	27.65
275.15	60.42
275.366	27.65
275.581	35.84
275.797	58.37
276.012	21.5
276.228	31.74
276.444	31.74
276.659	35.84
276.875	-3.07
277.09	-7.17
277.306	27.65
277.521	138.24
277.737	58.37
277.952	33.79
278.168	97.28
278.383	56.32
278.599	-25.6
278.814	21.5
279.03	39.94
279.245	72.7
279.461	7.17
279.676	58.37
279.892	-3.07
280.107	13.31
280.322	3.07
280.538	-46.08
280.753	-33.79
280.969	-15.36
281.184	-11.26
281.399	23.55
281.615	-68.61
281.83	56.32
282.045	41.98
282.26	-25.6
282.476	-39.94
282.691	54.27
282.906	-7.17
283.122	19.46
283.337	-3.07
283.552	56.32
283.767	33.79
283.983	97.28
284.198	-11.26
284.413	31.74
284.628	29.7
284.843	-31.74
285.058	9.22
285.274	54.27
285.489	78.85
285.704	60.42
285.919	9.22
286.134	60.42
286.349	41.98
286.564	80.89
286.779	-25.6
286.995	-25.6
287.21	7.17
287.425	56.32
287.64	-9.22
287.855	-3.07
288.07	-9.22
288.285	52.22
288.5	-7.17
288.715	60.42
288.93	60.42
289.145	48.13
289.36	23.55
289.575	-9.22
289.79	56.32
290.004	-64.51
290.219	-39.94
290.434	9.22
290.649	-31.74
290.864	68.61
291.079	-15.36
291.294	-48.13
291.509	17.41
291.724	82.94
291.938	70.65
292.153	27.65
292.368	-39.94
292.583	41.98
292.798	-1.02
293.012	17.41
293.227	58.37
293.442	3.07
293.657	9.22
293.871	72.7
294.086	33.79
294.301	-3.07
294.516	48.13
294.73	44.03
294.945	-1.02
295.16	-48.13
295.374	97.28
295.589	70.65
295.804	-11.26
296.018	21.5
296.233	7.17
296.447	19.46
296.662	-1.02
296.877	-15.36
297.091	23.55
297.306	-19.46
297.52	-9.22
297.735	60.42
297.949	31.74
298.164	89.09
298.378	27.65
298.593	68.61
298.807	-15.36
299.022	41.98
299.236	99.33
299.451	-9.22
299.665	-25.6
299.88	15.36
300.094	-3.07
300.309	68.61
300.523	64.51
300.737	3.07
300.952	52.22
301.166	107.52
301.381	9.22
301.595	-39.94
301.809	15.36
302.024	19.46
302.238	58.37
302.452	109.57
302.667	-3.07
302.881	91.13
303.095	-39.94
303.309	-5.12
303.524	-41.98
303.738	-29.7
303.952	33.79
304.166	1.02
304.381	44.03
304.595	-5.12
304.809	19.46
305.023	29.7
305.237	-9.22
305.452	66.56
305.666	-7.17
305.88	99.33
306.094	39.94
306.308	29.7
306.522	23.55
306.736	60.42
306.95	-58.37
307.164	-13.31
307.379	-7.17
307.593	21.5
307.807	68.61
308.021	17.41
308.235	50.18
308.449	-103.42
308.663	19.46
308.877	84.99
309.091	1.02
309.305	48.13
309.519	35.84
309.733	-23.55
309.947	15.36
310.161	56.32
310.374	17.41
310.588	-7.17
310.802	-27.65
311.016	39.94
311.23	52.22
311.444	-1.02
311.658	35.84
311.872	25.6
312.085	39.94
312.299	31.74
312.513	64.51
312.727	54.27
312.941	29.7
313.154	19.46
313.368	25.6
313.582	23.55
313.796	23.55
314.009	66.56
314.223	33.79
314.437	44.03
314.651	-58.37
314.864	7.17
315.078	15.36
315.292	-5.12
315.505	-1.02
315.719	23.55
315.933	1.02
316.146	9.22
316.36	-15.36
316.573	-25.6
316.787	56.32
317.001	15.36
317.214	-1.02
317.428	-13.31
317.641	17.41
317.855	-1.02
318.068	-48.13
318.282	107.52
318.495	7.17
318.709	-17.41
318.922	29.7
319.136	70.65
319.349	-17.41
319.563	29.7
319.776	58.37
319.99	44.03
320.203	-15.36
320.417	56.32
320.63	-52.22
320.843	-29.7
321.057	13.31
321.27	15.36
321.483	-5.12
321.697	56.32
321.91	46.08
322.124	17.41
322.337	41.98
322.55	48.13
322.763	70.65
322.977	-56.32
323.19	-37.89
323.403	-1.02
323.617	68.61
323.83	11.26
324.043	-9.22
324.256	-1.02
324.469	-7.17
324.683	52.22
324.896	-1.02
325.109	35.84
325.322	21.5
325.535	68.61
325.748	-17.41
325.962	62.46
326.175	50.18
326.388	17.41
326.601	50.18
326.814	-3.07
327.027	-35.84
327.24	78.85
327.453	31.74
327.666	-13.31
327.879	74.75
328.092	-41.98
328.305	-21.5
328.518	-37.89
328.731	44.03
328.944	44.03
329.157	21.5
329.37	5.12
329.583	-15.36
329.796	7.17
330.009	-58.37
330.222	56.32
330.435	50.18
330.648	58.37
330.861	99.33
331.073	21.5
331.286	-31.74
331.499	50.18
331.712	-9.22
331.925	9.22
332.138	-1.02
332.35	9.22
332.563	-29.7
332.776	72.7
332.989	35.84
333.202	-13.31
333.414	11.26
333.627	3.07
333.84	5.12
334.053	19.46
334.265	9.22
334.478	7.17
334.691	60.42
334.903	3.07
335.116	7.17
335.329	117.76
335.541	35.84
335.754	68.61
335.966	76.8
336.179	58.37
336.392	-13.31
336.604	11.26
336.817	68.61
337.029	-19.46
337.242	1.02
337.454	15.36
337.667	-11.26
337.88	62.46
338.092	44.03
338.305	5.12
338.517	101.37
338.729	80.89
338.942	17.41
339.154	23.55
339.367	-13.31
339.579	-13.31
339.792	-72.7
340.004	-5.12
340.217	21.5
340.429	35.84
340.641	5.12
340.854	64.51
341.066	25.6
341.278	-1.02
341.491	41.98
341.703	3.07
341.915	46.08
342.128	-21.5
342.34	27.65
342.552	37.89
342.764	52.22
342.977	-39.94
343.189	-19.46
343.401	33.79
343.613	48.13
343.826	31.74
344.038	41.98
344.25	-31.74
344.462	3.07
344.674	44.03
344.886	7.17
345.099	52.22
345.311	29.7
345.523	74.75
345.735	-17.41
345.947	3.07
346.159	39.94
346.371	13.31
346.583	46.08
346.795	11.26
347.007	39.94
347.219	46.08
347.431	37.89
347.643	23.55
347.855	7.17
348.067	1.02
348.279	27.65
348.491	109.57
348.703	72.7
348.915	54.27
349.127	17.41
349.339	31.74
349.551	-25.6
349.763	27.65
349.975	25.6
350.187	-11.26
350.399	41.98
350.61	56.32
350.822	-3.07
351.034	115.71
351.246	-5.12
351.458	-21.5
351.669	7.17
351.881	-5.12
352.093	37.89
352.305	-23.55
352.517	-29.7
352.728	41.98
352.94	-21.5
353.152	52.22
353.363	31.74
353.575	87.04
353.787	17.41
353.999	15.36
354.21	46.08
354.422	56.32
354.633	-35.84
354.845	25.6
355.057	-50.18
355.268	29.7
355.48	1.02
355.692	48.13
355.903	29.7
356.115	-56.32
356.326	21.5
356.538	82.94
356.749	-31.74
356.961	37.89
357.172	-17.41
357.384	56.32
357.595	-25.6
357.807	56.32
358.018	-5.12
358.23	9.22
358.441	68.61
358.653	37.89
358.864	-46.08
359.075	27.65
359.287	-17.41
359.498	80.89
359.709	25.6
359.921	-1.02
360.132	-9.22
360.344	72.7
360.555	-7.17
360.766	46.08
360.977	-1.02
361.189	-13.31
361.4	62.46
361.611	60.42
361.823	70.65
362.034	7.17
362.245	-13.31
362.456	23.55
362.667	15.36
362.879	-52.22
363.09	13.31
363.301	9.22
363.512	-11.26
363.723	-3.07
363.935	-5.12
364.146	33.79
364.357	-23.55
364.568	31.74
364.779	33.79
364.99	27.65
365.201	74.75
365.412	-5.12
365.623	56.32
365.834	97.28
366.045	15.36
366.256	58.37
366.467	5.12
366.678	35.84
366.889	11.26
367.1	39.94
367.311	60.42
367.522	17.41
367.733	25.6
367.944	7.17
368.155	27.65
368.366	1.02
368.577	121.85
368.788	17.41
368.999	37.89
369.209	1.02
369.42	-15.36
369.631	54.27
369.842	35.84
370.053	35.84
370.264	52.22
370.474	-29.7
370.685	31.74
370.896	-9.22
371.107	-5.12
371.317	41.98
371.528	-9.22
371.739	31.74
371.95	58.37
372.16	52.22
372.371	31.74
372.582	25.6
372.792	9.22
373.003	7.17
373.214	-7.17
373.424	11.26
373.635	68.61
373.846	39.94
374.056	27.65
374.267	54.27
374.477	-13.31
374.688	138.24
374.898	-7.17
375.109	70.65
375.319	-17.41
375.53	70.65
375.74	31.74
375.951	27.65
376.161	60.42
376.372	50.18
376.582	-21.5
376.793	-7.17
377.003	-15.36
377.214	58.37
377.424	31.74
377.635	-29.7
377.845	39.94
378.055	39.94
378.266	7.17
378.476	15.36
378.686	31.74
378.897	64.51
379.107	101.37
379.317	15.36
379.528	-41.98
379.738	9.22
379.948	-7.17
380.158	31.74
380.369	-1.02
380.579	9.22
380.789	21.5
380.999	74.75
381.21	62.46
381.42	70.65
381.63	72.7
381.84	31.74
382.05	58.37
382.261	-1.02
382.471	39.94
382.681	48.13
382.891	54.27
383.101	44.03
383.311	21.5
383.521	1.02
383.731	87.04
383.941	21.5
384.151	64.51
384.361	-37.89
384.571	15.36
384.781	68.61
384.991	-17.41
385.201	15.36
385.411	27.65
385.621	-1.02
385.831	35.84
386.041	80.89
386.251	35.84
386.461	41.98
386.671	52.22
386.881	103.42
387.091	-27.65
387.301	72.7
387.511	-29.7
387.72	33.79
387.93	54.27
388.14	39.94
388.35	62.46
388.56	44.03
388.769	37.89
388.979	80.89
389.189	48.13
389.399	48.13
389.609	84.99
389.818	103.42
390.028	23.55
390.238	52.22
390.447	9.22
390.657	-9.22
390.867	41.98
391.076	33.79
391.286	23.55
391.496	13.31
391.705	50.18
391.915	5.12
392.125	62.46
392.334	99.33
392.544	29.7
392.753	56.32
392.963	17.41
393.172	60.42
393.382	-29.7
393.591	27.65
393.801	-29.7
394.01	60.42
394.22	82.94
394.429	58.37
394.639	54.27
394.848	89.09
395.058	9.22
395.267	3.07
395.477	68.61
395.686	37.89
395.895	103.42
396.105	60.42
396.314	44.03
396.524	72.7
396.733	64.51
396.942	44.03
397.152	121.85
397.361	33.79
397.57	99.33
397.78	41.98
397.989	13.31
398.198	19.46
398.407	13.31
398.617	66.56
398.826	23.55
399.035	21.5
399.244	48.13
399.453	-17.41
399.663	48.13
399.872	70.65
400.081	-7.17
400.29	7.17
400.499	31.74
400.708	15.36
400.917	11.26
401.127	33.79
401.336	50.18
401.545	39.94
401.754	25.6
401.963	58.37
402.172	23.55
402.381	19.46
402.59	52.22
402.799	101.37
403.008	105.47
403.217	130.05
403.426	48.13
403.635	27.65
403.844	35.84
404.053	23.55
404.262	41.98
404.471	52.22
404.68	-21.5
404.888	58.37
405.097	39.94
405.306	117.76
405.515	52.22
405.724	56.32
405.933	58.37
406.142	82.94
406.35	48.13
406.559	82.94
406.768	66.56
406.977	25.6
407.185	103.42
407.394	66.56
407.603	80.89
407.812	80.89
408.02	72.7
408.229	72.7
408.438	91.13
408.646	37.89
408.855	52.22
409.064	109.57
409.272	37.89
409.481	134.14
409.69	142.33
409.898	91.13
410.107	29.7
410.315	119.81
410.524	115.71
410.733	56.32
410.941	50.18
411.15	91.13
411.358	44.03
411.567	66.56
411.775	115.71
411.984	109.57
412.192	146.43
412.401	107.52
412.609	197.63
412.818	158.72
413.026	134.14
413.234	189.44
413.443	158.72
413.651	115.71
413.86	142.33
414.068	246.78
414.276	144.38
414.485	130.05
414.693	142.33
414.901	134.14
415.11	171.01
415.318	289.79
415.526	244.73
415.734	216.06
415.943	222.2
416.151	238.59
416.359	205.82
416.567	230.4
416.776	211.96
416.984	265.21
417.192	271.36
417.4	279.55
417.608	222.2
417.817	173.05
418.025	240.64
418.233	386.04
418.441	222.2
418.649	379.9
418.857	263.16
419.065	320.51
419.273	336.89
419.481	396.28
419.689	334.84
419.897	361.47
420.105	302.08
420.313	406.52
420.521	308.22
420.729	443.39
420.937	427
421.145	474.1
421.353	416.76
421.561	549.88
421.769	539.64
421.977	465.91
422.185	549.88
422.393	594.93
422.601	543.74
422.809	543.74
423.017	492.54
423.224	582.65
423.432	615.41
423.64	515.06
423.848	639.99
424.056	672.76
424.263	689.14
424.471	650.23
424.679	715.77
424.887	742.39
425.094	711.67
425.302	736.24
425.51	832.5
425.718	865.27
425.925	826.36
426.133	838.64
426.341	828.4
426.548	959.47
426.756	855.03
426.964	1006.58
427.171	1006.58
427.379	1035.25
427.586	1002.48
427.794	1123.31
428.001	1172.46
428.209	1143.79
428.417	1194.99
428.624	1240.05
428.832	1252.33
429.039	1254.38
429.247	1240.05
429.454	1410.03
429.662	1461.23
429.869	1332.2
430.076	1403.88
430.284	1496.04
430.491	1450.99
430.699	1553.38
430.906	1506.28
431.114	1555.43
431.321	1590.25
431.528	1608.68
431.736	1749.99
431.943	1788.9
432.15	1678.31
432.358	1883.11
432.565	1891.3
432.772	1913.83
432.979	1885.16
433.187	1854.44
433.394	1977.31
433.601	2161.63
433.808	2092
434.016	2071.52
434.223	2130.91
434.43	2300.89
434.637	2391
434.844	2442.2
435.052	2413.53
435.259	2466.78
435.466	2524.12
435.673	2565.08
435.88	2505.69
436.087	2872.28
436.294	2862.04
436.501	2749.4
436.708	2712.53
436.915	2837.46
437.122	2986.96
437.329	2911.19
437.537	3091.41
437.743	3107.79
437.95	3148.75
438.157	3171.28
438.364	3458
438.571	3253.2
438.778	3226.57
438.985	3752.9
439.192	3529.67
439.399	3566.54
439.606	3582.92
439.813	3840.97
440.02	3935.17
440.227	3996.61
440.433	3926.98
440.64	4004.8
440.847	4117.44
441.054	3933.12
441.261	4539.32
441.467	4185.02
441.674	4377.53
441.881	4688.82
442.088	4504.51
442.294	4498.36
442.501	4711.35
442.708	4762.55
442.914	5022.64
443.121	5209.01
443.328	5018.55
443.534	5491.63
443.741	5137.33
443.948	5170.1
444.154	5528.49
444.361	5430.19
444.568	5475.24
444.774	5532.59
444.981	5655.47
445.187	5782.44
445.394	5899.17
445.6	5931.94
445.807	6566.81
446.013	6208.42
446.22	6226.85
446.426	6634.39
446.633	6663.07
446.839	6798.23
447.046	6656.92
447.252	7048.08
447.459	7003.03
447.665	7033.75
447.871	7433.1
448.078	7545.74
448.284	7244.69
448.491	7490.45
448.697	7553.93
448.903	7844.74
449.11	7793.55
449.316	7885.7
449.522	7938.95
449.728	8311.68
449.935	8450.94
450.141	8106.88
450.347	8381.31
450.553	8338.3
450.76	8166.28
450.966	8539.01
451.172	8450.94
451.378	8598.4
451.584	8481.66
451.791	8821.63
451.997	8674.17
452.203	8885.11
452.409	8840.06
452.615	8737.66
452.821	8602.49
453.027	8491.9
453.233	8764.28
453.44	8620.92
453.646	8876.92
453.852	8692.6
454.058	8758.14
454.264	8530.81
454.47	8797.05
454.676	8655.74
454.882	8860.54
455.088	8067.97
455.294	8452.99
455.5	8424.32
455.705	8606.59
455.911	8086.4
456.117	8074.12
456.323	7699.34
456.529	7388.05
456.735	7711.63
456.941	7408.53
457.147	7404.43
457.352	7136.15
457.558	7080.85
457.764	7166.87
457.97	6896.53
458.176	6785.94
458.381	6794.14
458.587	6427.55
458.793	6701.98
458.999	6114.21
459.204	6661.02
459.41	6351.78
459.616	6116.26
459.821	5942.18
460.027	6046.63
460.233	5933.99
460.438	5665.71
460.644	5712.81
460.85	5397.42
461.055	5284.78
461.261	5458.86
461.466	4901.81
461.672	4758.46
461.878	5149.62
462.083	4805.56
462.289	4592.57
462.494	4651.96
462.7	4477.88
462.905	4410.3
463.111	4488.12
463.316	4486.08
463.522	4463.55
463.727	4291.52
463.932	4320.19
464.138	4213.7
464.343	4316.09
464.549	4307.9
464.754	4361.15
464.959	4473.79
465.165	4252.61
465.37	4094.91
465.575	3916.74
465.781	4178.88
465.986	4262.85
466.191	4086.72
466.397	4101.06
466.602	3732.42
466.807	3853.25
467.012	3865.54
467.218	3881.92
467.423	3910.6
467.628	3955.65
467.833	4082.63
468.038	3965.89
468.244	3904.45
468.449	3951.56
468.654	3861.45
468.859	3892.16
469.064	3797.96
469.269	3660.74
469.474	3640.26
469.679	3967.94
469.885	3574.73
470.09	3607.5
470.295	3666.89
470.5	3617.74
470.705	3693.51
470.91	3570.63
471.115	3521.48
471.32	3441.61
471.525	3589.07
471.73	3322.83
471.935	3359.69
472.139	3271.63
472.344	3281.87
472.549	3380.17
472.754	3320.78
472.959	3290.06
473.164	3281.87
473.369	3060.69
473.574	3210.19
473.778	3218.38
473.983	3220.43
474.188	3189.71
474.393	3105.74
474.598	3109.84
474.802	2939.86
475.007	2980.82
475.212	2989.01
475.417	3032.02
475.621	2874.32
475.826	2763.73
476.031	2878.42
476.235	2808.79
476.44	2976.72
476.645	2724.82
476.849	2943.96
477.054	2655.19
477.259	2769.88
477.463	2620.38
477.668	2603.99
477.872	2730.97
478.077	2698.2
478.282	2595.8
478.486	2599.9
478.691	2528.22
478.895	2581.46
479.1	2595.8
479.304	2501.59
479.509	2329.56
479.713	2548.7
479.918	2431.96
480.122	2515.93
480.326	2425.82
480.531	2497.5
480.735	2362.33
480.94	2479.07
481.144	2380.76
481.348	2309.08
481.553	2487.26
481.757	2309.08
481.961	2446.3
482.166	2403.29
482.37	2513.88
482.574	2333.66
482.778	2376.67
482.983	2466.78
483.187	2444.25
483.391	2429.91
483.595	2382.81
483.8	2393.05
484.004	2325.47
484.208	2438.11
484.412	2302.94
484.616	2425.82
484.821	2458.59
485.025	2378.72
485.229	2368.48
485.433	2399.2
485.637	2417.63
485.841	2409.44
486.045	2335.71
486.249	2315.23
486.453	2407.39
486.657	2403.29
486.861	2352.09
487.065	2341.85
487.269	2517.98
487.473	2499.55
487.677	2370.52
487.881	2350.04
488.085	2388.96
488.289	2452.44
488.493	2366.43
488.697	2413.53
488.901	2397.15
489.105	2540.51
489.309	2499.55
489.512	2479.07
489.716	2431.96
489.92	2472.92
490.124	2352.09
490.328	2395.1
490.531	2491.35
490.735	2536.41
490.939	2474.97
491.143	2409.44
491.346	2532.31
491.55	2577.37
491.754	2579.42
491.958	2567.13
492.161	2554.84
492.365	2616.28
492.569	2479.07
492.772	2548.7
492.976	2620.38
493.18	2532.31
493.383	2644.95
493.587	2624.47
493.79	2663.38
493.994	2816.98
494.197	2761.69
494.401	2816.98
494.605	2661.34
494.808	2737.11
495.012	2773.97
495.215	2835.41
495.419	2784.21
495.622	2866.13
495.825	2884.56
496.029	2868.18
496.232	2896.85
496.436	3075.03
496.639	2909.14
496.843	2976.72
497.046	3046.35
497.249	3263.44
497.453	3222.48
497.656	3177.42
497.859	3208.14
498.063	3302.35
498.266	3269.58
498.469	3296.21
498.673	3382.22
498.876	3296.21
499.079	3367.88
499.282	3437.52
499.485	3517.39
499.689	3507.15
499.892	3550.15
500.095	3670.98
500.298	3789.77
500.501	3584.97
500.705	3783.62
500.908	3867.59
501.111	3851.21
501.314	3920.84
501.517	3777.48
501.72	4150.21
501.923	4150.21
502.126	4058.05
502.329	4268.99
502.532	4207.55
502.735	4258.75
502.938	4301.76
503.141	4266.94
503.344	4484.03
503.547	4312
503.75	4395.96
503.953	4586.43
504.156	4735.93
504.359	4563.9
504.562	4619.19
504.765	4944.82
504.968	4944.82
505.17	4860.85
505.373	4948.92
505.576	5051.31
505.779	5008.31
505.982	5102.51
506.185	5344.17
506.387	5358.51
506.59	5245.87
506.793	5422
506.996	5348.27
507.198	5643.18
507.401	5460.91
507.604	5747.62
507.807	5628.84
508.009	5925.8
508.212	5923.75
508.415	5968.8
508.617	6118.31
508.82	6114.21
509.022	6095.78
509.225	6280.1
509.428	6462.37
509.63	6345.63
509.833	6325.15
510.035	6628.25
510.238	6493.08
510.44	6775.7
510.643	6953.88
510.845	6902.68
511.048	6925.21
511.25	6984.6
511.453	7076.76
511.655	7310.22
511.858	7265.17
512.06	7230.35
512.262	7402.38
512.465	7420.81
512.667	7517.07
512.87	7748.49
513.072	7820.17
513.274	7889.8
513.477	7949.19
513.679	7941
513.881	8045.45
514.084	8156.04
514.286	8098.69
514.488	8252.29
514.69	8412.03
514.893	8446.85
515.095	8641.4
515.297	8948.6
515.499	8864.63
515.701	8852.34
515.904	8883.06
516.106	8938.36
516.308	9294.71
516.51	9296.75
516.712	9485.17
516.914	9495.41
517.116	9595.76
517.318	9755.5
517.52	9685.87
517.722	9941.86
517.925	9841.51
518.127	9986.92
518.329	10105.7
518.531	10142.57
518.733	10226.53
518.935	10478.43
519.136	10640.22
519.338	10777.44
519.54	10685.28
519.742	10941.27
519.944	10994.52
520.146	10922.84
520.348	11127.64
520.55	11322.2
520.752	11275.09
520.954	11684.69
521.155	11432.79
521.357	11789.13
521.559	11819.85
521.761	11993.93
521.963	11961.16
522.164	11946.83
522.366	12225.35
522.568	12131.14
522.77	12329.8
522.971	12485.44
523.173	12374.85
523.375	12536.64
523.576	12731.2
523.778	12497.73
523.98	12761.92
524.181	13194.04
524.383	13120.31
524.584	12911.42
524.786	12927.8
524.988	12864.32
525.189	13429.56
525.391	13355.83
525.592	13544.24
525.794	13724.46
525.995	13527.86
526.197	13675.31
526.398	13693.74
526.6	13833
526.801	13730.61
527.003	13746.99
527.204	14095.14
527.406	14308.13
527.607	14064.43
527.808	14093.1
528.01	14175.02
528.211	14248.74
528.412	14598.95
528.614	14519.07
528.815	14467.88
529.016	14613.28
529.218	14322.47
529.419	14459.68
529.62	14484.26
529.822	14390.05
530.023	14758.69
530.224	14678.82
530.425	14875.42
530.626	14500.64
530.828	14568.23
531.029	14897.95
531.23	14689.06
531.431	14924.57
531.632	14973.72
531.833	14734.11
532.035	14738.21
532.236	14865.18
532.437	14861.09
532.638	15065.88
532.839	15006.49
533.04	15262.49
533.241	15031.07
533.442	15506.2
533.643	15026.97
533.844	15172.38
534.045	15432.47
534.246	14904.09
534.447	15262.49
534.648	15115.03
534.849	15180.57
535.05	14971.68
535.251	15209.24
535.451	15237.91
535.652	15047.45
535.853	15176.47
536.054	15203.1
536.255	15338.26
536.456	14938.91
536.657	15563.54
536.857	15260.44
537.058	15033.11
537.259	15403.8
537.46	15385.37
537.66	15137.56
537.861	15215.38
538.062	14928.67
538.263	15323.93
538.463	15434.52
538.664	15338.26
538.865	15399.7
539.065	15213.34
539.266	15119.13
539.466	15174.42
539.667	15016.73
539.868	15381.27
540.068	15311.64
540.269	15049.5
540.469	15485.72
540.67	15278.87
540.87	15242.01
541.071	15074.07
541.271	15475.48
541.472	15395.61
541.672	15264.54
541.873	15270.68
542.073	15147.8
542.274	15186.71
542.474	15301.4
542.675	15061.79
542.875	15272.73
543.075	15180.57
543.276	15366.93
543.476	15280.92
543.676	15184.66
543.877	15338.26
544.077	15344.41
544.277	15405.84
544.478	15217.43
544.678	15420.18
544.878	15360.79
545.078	15182.62
545.279	15012.63
545.479	14949.15
545.679	15373.08
545.879	15291.16
546.079	15192.86
546.28	15151.9
546.48	15106.84
546.68	15133.47
546.88	15119.13
547.08	15088.41
547.28	15178.52
547.48	15026.97
547.68	15276.82
547.88	15313.69
548.081	15270.68
548.281	15233.82
548.481	15043.35
548.681	15350.55
548.881	15196.95
549.081	15211.29
549.28	15188.76
549.48	15160.09
549.68	15117.08
549.88	15538.96
550.08	15006.49
550.28	15358.74
550.48	14994.2
550.68	15258.39
550.88	15039.26
551.08	15428.37
551.279	15313.69
551.479	14953.24
551.679	15315.73
551.879	15217.43
552.079	15069.98
552.278	15178.52
552.478	15264.54
552.678	15164.18
552.878	15182.62
553.077	15282.97
553.277	15162.14
553.477	15196.95
553.676	14842.65
553.876	15039.26
554.076	15012.63
554.275	15022.87
554.475	14641.95
554.674	15039.26
554.874	14965.53
555.074	14836.51
555.273	14998.3
555.473	14967.58
555.672	14971.68
555.872	15026.97
556.071	14734.11
556.271	15121.18
556.47	14891.8
556.67	14678.82
556.869	14730.02
557.068	14652.19
557.268	14830.37
557.467	14830.37
557.667	14596.9
557.866	14883.61
558.065	14627.62
558.265	14748.45
558.464	14713.63
558.663	14783.26
558.863	14428.96
559.062	14828.32
559.261	14471.97
559.461	14637.86
559.66	14492.45
559.859	14527.27
560.058	14258.98
560.258	14476.07
560.457	14428.96
560.656	14490.4
560.855	14269.22
561.054	14410.53
561.253	14154.54
561.453	14312.23
561.652	14336.81
561.851	14103.34
562.05	14218.02
562.249	14138.15
562.448	14469.92
562.647	14301.99
562.846	14195.5
563.045	14388
563.244	14095.14
563.443	14512.93
563.642	14181.16
563.841	14301.99
564.04	13953.84
564.239	14146.34
564.438	14164.78
564.637	13923.12
564.836	13982.51
565.035	13869.87
565.234	13798.19
565.432	13701.93
565.631	13738.8
565.83	13746.99
566.029	13732.65
566.228	13830.96
566.427	13751.09
566.625	13761.33
566.824	13601.58
567.023	13601.58
567.222	13308.72
567.42	13470.51
567.619	13587.25
567.818	13593.39
568.016	13466.42
568.215	13564.72
568.414	13476.66
568.612	13478.71
568.811	13288.25
569.01	13058.87
569.208	13132.6
569.407	13476.66
569.605	13267.77
569.804	13196.09
570.002	13142.84
570.201	13062.97
570.4	13083.45
570.598	12966.71
570.797	12921.66
570.995	12743.49
571.193	13009.72
571.392	13026.11
571.59	12804.92
571.789	12688.19
571.987	12925.75
572.186	12786.49
572.384	12596.03
572.582	12880.7
572.781	12481.35
572.979	12430.15
573.177	12350.28
573.376	12479.3
573.574	12632.9
573.772	12473.15
573.971	12438.34
574.169	12475.2
574.367	12313.41
574.565	12368.71
574.763	12356.42
574.962	12294.98
575.16	12026.7
575.358	12092.23
575.556	12198.73
575.754	12036.94
575.952	11961.16
576.151	11981.64
576.349	12030.79
576.547	11795.28
576.745	12057.42
576.943	12032.84
577.141	11705.17
577.339	11826
577.537	11936.59
577.735	11739.98
577.933	11770.7
578.131	11621.2
578.329	11582.29
578.527	11510.61
578.725	11363.15
578.923	11443.03
579.121	11457.36
579.319	11385.68
579.516	11615.05
579.714	11340.63
579.912	11262.8
580.11	11340.63
580.308	11217.75
580.506	11184.98
580.704	10984.28
580.901	11223.89
581.099	11184.98
581.297	11123.54
581.495	11219.8
581.692	11029.34
581.89	11080.53
582.088	11012.95
582.285	11139.93
582.483	11113.3
582.681	10924.89
582.878	10716
583.076	10726.24
583.274	10761.05
583.471	10756.96
583.669	10574.69
583.866	10869.59
584.064	10845.02
584.262	10419.04
584.459	10912.6
584.657	10664.8
584.854	10566.49
585.052	10529.63
585.249	10603.36
585.447	10603.36
585.644	10511.2
585.841	10404.71
586.039	10488.67
586.236	10339.17
586.434	10308.45
586.631	10224.48
586.828	10312.55
587.026	10206.05
587.223	10460
587.42	10290.02
587.618	10187.62
587.815	10165.09
588.012	10148.71
588.21	10267.49
588.407	10240.87
588.604	9806.7
588.801	9894.76
588.999	10029.93
589.196	9775.98
589.393	9943.91
589.59	9853.8
589.787	9937.77
589.984	9804.65
590.182	9479.02
590.379	9841.51
590.576	9952.1
590.773	9620.33
590.97	9669.48
591.167	9780.07
591.364	9468.78
591.561	9517.93
591.758	9692.01
591.955	9587.57
592.152	9522.03
592.349	9393.01
592.546	9546.61
592.743	9470.83
592.94	9134.96
593.137	9407.34
593.334	9110.39
593.531	9147.25
593.727	9233.27
593.924	9202.55
594.121	9397.1
594.318	9083.77
594.515	8962.94
594.712	9184.12
594.908	9079.67
595.105	8997.75
595.302	9067.38
595.499	8823.67
595.696	9022.33
595.892	8747.9
596.089	9069.43
596.286	8817.53
596.482	8768.38
596.679	8696.7
596.876	8866.68
597.072	8913.78
597.269	8649.6
597.466	8778.62
597.662	8620.92
597.859	8788.86
598.055	8602.49
598.252	8579.97
598.448	8645.5
598.645	8594.3
598.841	8366.98
599.038	8594.3
599.234	8389.5
599.431	8428.42
599.627	8504.19
599.824	8430.46
600.02	8205.19
600.217	8479.61
600.413	8291.2
600.609	8295.3
600.806	8375.17
601.002	8272.77
601.198	8455.04
601.395	8149.89
601.591	8233.86
601.787	8100.74
601.984	8043.4
602.18	8176.52
602.376	8201.09
602.572	7910.28
602.769	8000.39
602.965	7941
603.161	8096.64
603.357	7947.14
603.553	8047.49
603.75	7973.77
603.946	7975.81
604.142	7828.36
604.338	7766.92
604.534	7654.28
604.73	7703.43
604.926	7711.63
605.122	7955.33
605.318	7551.88
605.514	7386
605.71	7728.01
605.906	7633.8
606.102	7517.07
606.298	7674.76
606.494	7699.34
606.69	7502.73
606.886	7496.59
607.082	7373.71
607.278	7478.16
607.474	7369.62
607.67	7439.25
607.866	7322.51
608.062	7379.86
608.257	7310.22
608.453	7216.02
608.649	7527.31
608.845	7306.13
609.041	7277.46
609.236	7447.44
609.432	7285.65
609.628	7277.46
609.824	7232.4
610.019	7041.94
610.215	7029.65
610.411	6996.89
610.606	7173.01
610.802	7183.25
610.998	7242.64
611.193	7046.04
611.389	7170.96
611.584	7125.91
611.78	7134.1
611.976	7000.98
612.171	7089.04
612.367	6921.11
612.562	7048.08
612.758	6890.39
612.953	6906.77
613.149	6960.02
613.344	6767.51
613.539	6857.62
613.735	6978.45
613.93	6874.01
614.126	6628.25
614.321	6800.28
614.517	6816.66
614.712	6806.42
614.907	6663.07
615.103	6759.32
615.298	6601.63
615.493	6726.55
615.688	6587.29
615.884	6892.44
616.079	6689.69
616.274	6607.77
616.47	6724.51
616.665	6529.95
616.86	6605.72
617.055	6607.77
617.25	6505.37
617.445	6695.83
617.641	6509.47
617.836	6450.08
618.031	6466.46
618.226	6484.89
618.421	6409.12
618.616	6464.41
618.811	6228.9
619.006	6271.9
619.201	6284.19
619.396	6194.08
619.591	6216.61
619.786	6218.66
619.981	6200.23
620.176	6204.32
620.371	6126.5
620.566	6077.35
620.761	6060.96
620.956	6091.68
621.151	5886.89
621.346	6032.29
621.541	5874.6
621.735	5886.89
621.93	5956.52
622.125	5964.71
622.32	5897.13
622.515	5770.15
622.709	5716.9
622.904	5788.58
623.099	5718.95
623.294	5790.63
623.488	5557.16
623.683	5643.18
623.878	5561.26
624.072	5630.89
624.267	5770.15
624.462	5467.05
624.656	5417.9
624.851	5532.59
625.046	5335.98
625.24	5489.58
625.435	5266.35
625.629	5397.42
625.824	5225.39
626.018	5184.43
626.213	5133.23
626.407	5325.74
626.602	5139.38
626.796	5372.85
626.991	5262.26
627.185	5006.26
627.38	4991.92
627.574	5155.76
627.768	5022.64
627.963	4950.96
628.157	5045.17
628.352	5014.45
628.546	4957.11
628.74	5088.18
628.935	4801.46
629.129	5020.6
629.323	4768.7
629.517	4760.5
629.712	4789.17
629.906	4750.26
630.1	4582.33
630.294	4809.65
630.489	4670.39
630.683	4770.74
630.877	4565.95
631.071	4768.7
631.265	4668.34
631.459	4660.15
631.653	4545.47
631.848	4309.95
632.042	4502.46
632.236	4578.23
632.43	4461.5
632.624	4533.18
632.818	4459.45
633.012	4484.03
633.206	4387.77
633.4	4416.44
633.594	4334.53
633.788	4342.72
633.982	4283.33
634.176	4342.72
634.369	4203.46
634.563	4152.26
634.757	4135.87
634.951	4152.26
635.145	4195.26
635.339	4195.26
635.533	4197.31
635.726	4191.17
635.92	4019.14
636.114	4072.39
636.308	3953.6
636.501	3922.88
636.695	4029.38
636.889	3996.61
637.083	3953.6
637.276	4008.9
637.47	3849.16
637.664	3920.84
637.857	3838.92
638.051	4035.52
638.244	3873.73
638.438	3857.35
638.632	3810.25
638.825	3838.92
639.019	3648.46
639.212	3660.74
639.406	3578.83
639.599	3634.12
639.793	3640.26
639.986	3505.1
640.18	3683.27
640.373	3630.02
640.567	3605.45
640.76	3494.86
640.954	3472.33
641.147	3535.82
641.34	3423.18
641.534	3349.45
641.727	3484.62
641.92	3333.07
642.114	3376.08
642.307	3363.79
642.5	3339.21
642.694	3267.53
642.887	3218.38
643.08	3394.51
643.273	3193.81
643.467	3232.72
643.66	3263.44
643.853	3199.95
644.046	3218.38
644.239	3206.1
644.432	3089.36
644.626	3062.74
644.819	3109.84
645.012	3212.24
645.205	3044.31
645.398	3099.6
645.591	3032.02
645.784	2989.01
645.977	2939.86
646.17	2905.04
646.363	2989.01
646.556	2843.6
646.749	2913.24
646.942	2956.24
647.135	2956.24
647.328	2814.93
647.521	2712.53
647.714	2866.13
647.907	2802.65
648.099	2776.02
648.292	2735.06
648.485	2751.45
648.678	2671.58
648.871	2671.58
649.064	2663.38
649.256	2655.19
649.449	2659.29
649.642	2665.43
649.835	2692.05
650.027	2649.05
650.22	2673.62
650.413	2421.72
650.605	2614.23
650.798	2606.04
650.991	2495.45
651.183	2573.27
651.376	2446.3
651.568	2552.79
651.761	2415.58
651.954	2391
652.146	2487.26
652.339	2401.24
652.531	2411.48
652.724	2407.39
652.916	2427.87
653.109	2382.81
653.301	2431.96
653.494	2302.94
653.686	2253.79
653.879	2292.7
654.071	2399.2
654.263	2251.74
654.456	2341.85
654.648	2333.66
654.84	2278.37
655.033	2173.92
655.225	2268.13
655.417	2202.59
655.61	2227.17
655.802	2272.22
655.994	2184.16
656.186	2159.58
656.379	2186.21
656.571	2122.72
656.763	2112.48
656.955	2120.67
657.148	2247.65
657.34	2083.81
657.532	2118.62
657.724	2081.76
657.916	2083.81
658.108	2137.06
658.3	2102.24
658.492	2102.24
658.684	2055.14
658.876	2137.06
659.068	2026.47
659.26	1969.12
659.452	1944.55
659.644	1887.2
659.836	1950.69
660.028	1893.35
660.22	1907.68
660.412	1911.78
660.604	1905.63
660.796	1952.74
660.988	1858.53
661.18	1842.15
661.372	1860.58
661.563	1895.4
661.755	1795.04
661.947	1848.29
662.139	1825.76
662.331	1678.31
662.522	1831.91
662.714	1760.23
662.906	1723.37
663.097	1811.43
663.289	1672.17
663.481	1805.28
663.673	1762.28
663.864	1653.73
664.056	1772.52
664.247	1706.98
664.439	1661.93
664.631	1713.13
664.822	1643.49
665.014	1702.89
665.205	1623.02
665.397	1733.61
665.588	1661.93
665.78	1629.16
665.971	1663.97
666.163	1582.06
666.354	1594.34
666.546	1602.54
666.737	1448.94
666.929	1631.21
667.12	1666.02
667.311	1518.57
667.503	1559.53
667.694	1541.1
667.885	1598.44
668.077	1485.8
668.268	1485.8
668.459	1553.38
668.651	1473.51
668.842	1491.95
669.033	1504.23
669.224	1512.42
669.416	1481.71
669.607	1514.47
669.798	1635.3
669.989	1455.08
670.18	1481.71
670.371	1493.99
670.563	1442.79
670.754	1381.35
670.945	1526.76
671.136	1387.5
671.327	1403.88
671.518	1418.22
671.709	1401.83
671.9	1393.64
672.091	1383.4
672.282	1387.5
672.473	1293.29
672.664	1375.21
672.855	1293.29
673.046	1412.07
673.237	1379.31
673.428	1420.27
673.619	1424.36
673.809	1348.59
674	1432.55
674.191	1301.48
674.382	1321.96
674.573	1356.78
674.764	1367.02
674.954	1276.91
675.145	1344.49
675.336	1309.68
675.527	1293.29
675.717	1242.09
675.908	1346.54
676.099	1254.38
676.289	1301.48
676.48	1215.47
676.671	1364.97
676.861	1319.92
677.052	1401.83
677.243	1244.14
677.433	1270.76
677.624	1299.44
677.814	1324.01
678.005	1317.87
678.195	1324.01
678.386	1326.06
678.576	1266.67
678.767	1270.76
678.957	1285.1
679.148	1369.07
679.338	1295.34
679.529	1364.97
679.719	1272.81
679.909	1227.76
680.1	1238
680.29	1266.67
680.481	1233.9
680.671	1303.53
680.861	1309.68
681.052	1262.57
681.242	1229.81
681.432	1262.57
681.622	1334.25
681.813	1240.05
682.003	1235.95
682.193	1162.22
682.383	1238
682.573	1180.65
682.764	1184.75
682.954	1334.25
683.144	1209.33
683.334	1184.75
683.524	1238
683.714	1201.13
683.904	1260.52
684.094	1231.85
684.284	1223.66
684.474	1326.06
684.664	1219.57
684.854	1186.8
685.044	1176.56
685.234	1221.61
685.424	1276.91
685.614	1342.44
685.804	1297.39
685.994	1270.76
686.184	1178.61
686.374	1293.29
686.564	1238
686.753	1244.14
686.943	1207.28
687.133	1176.56
687.323	1170.41
687.513	1291.24
687.702	1248.24
687.892	1182.7
688.082	1225.71
688.272	1248.24
688.461	1385.45
688.651	1186.8
688.841	1211.37
689.03	1215.47
689.22	1299.44
689.41	1090.54
689.599	1192.94
689.789	1233.9
689.979	1291.24
690.168	1199.09
690.358	1219.57
690.547	1166.32
690.737	1246.19
690.926	1262.57
691.116	1250.28
691.305	1272.81
691.495	1209.33
691.684	1162.22
691.874	1199.09
692.063	1125.36
692.252	1174.51
692.442	1260.52
692.631	1215.47
692.82	1158.13
693.01	1137.65
693.199	1176.56
693.388	1127.41
693.578	1094.64
693.767	1199.09
693.956	1184.75
694.146	1258.48
694.335	1203.18
694.524	1174.51
694.713	1266.67
694.902	1178.61
695.092	1141.74
695.281	1164.27
695.47	1057.78
695.659	1166.32
695.848	1151.98
696.037	1129.45
696.226	1252.33
696.415	1190.89
696.604	1217.52
696.793	1166.32
696.982	1184.75
697.171	1154.03
697.36	1164.27
697.549	1221.61
697.738	1190.89
697.927	1166.32
698.116	1092.59
698.305	1166.32
698.494	1090.54
698.683	1182.7
698.872	1127.41
699.061	1096.69
699.25	1170.41
699.438	1098.74
699.627	1072.11
699.816	1190.89
700.005	1205.23
700.193	1147.89
700.382	1104.88
700.571	1164.27
700.76	1088.5
700.948	1051.63
701.137	1088.5
701.326	1246.19
701.514	1170.41
701.703	1176.56
701.892	1137.65
702.08	1139.69
702.269	1090.54
702.457	1176.56
702.646	1088.5
702.834	1055.73
703.023	1037.3
703.212	1147.89
703.4	1145.84
703.589	1078.26
703.777	1162.22
703.965	1068.02
704.154	1182.7
704.342	1065.97
704.531	1154.03
704.719	1104.88
704.907	1111.02
705.096	1111.02
705.284	1084.4
705.472	1143.79
705.661	1012.72
705.849	1063.92
706.037	1070.06
706.226	1117.17
706.414	975.86
706.602	1063.92
706.79	1092.59
706.979	1004.53
707.167	986.1
707.355	1106.93
707.543	1115.12
707.731	1123.31
707.919	1143.79
708.107	998.38
708.296	1070.06
708.484	1022.96
708.672	1168.37
708.86	1119.21
709.048	977.91
709.236	1088.5
709.424	1090.54
709.612	1016.82
709.8	1002.48
709.988	1031.15
710.176	1035.25
710.364	1070.06
710.551	1127.41
710.739	1016.82
710.927	945.14
711.115	1090.54
711.303	1020.91
711.491	932.85
711.679	1078.26
711.866	992.24
712.054	920.56
712.242	1008.62
712.43	963.57
712.617	1025.01
712.805	955.38
712.993	924.66
713.181	961.52
713.368	1090.54
713.556	957.43
713.744	1010.67
713.931	986.1
714.119	996.34
714.306	1063.92
714.494	941.04
714.682	967.67
714.869	1049.58
715.057	992.24
715.244	1063.92
715.432	1039.34
715.619	908.27
715.807	1010.67
715.994	1033.2
716.182	955.38
716.369	982
716.556	1004.53
716.744	943.09
716.931	951.28
717.119	1084.4
717.306	959.47
717.493	963.57
717.681	891.89
717.868	1031.15
718.055	936.95
718.242	1043.44
718.43	1029.1
718.617	1016.82
718.804	924.66
718.991	914.42
719.179	1090.54
719.366	924.66
719.553	969.71
719.74	963.57
719.927	932.85
720.114	945.14
720.301	869.36
720.488	924.66
720.676	926.71
720.863	912.37
721.05	963.57
721.237	996.34
721.424	957.43
721.611	963.57
721.798	895.99
721.985	941.04
722.172	908.27
722.358	1008.62
722.545	844.79
722.732	986.1
722.919	842.74
723.106	891.89
723.293	938.99
723.48	924.66
723.667	857.07
723.853	889.84
724.04	951.28
724.227	932.85
724.414	844.79
724.6	934.9
724.787	873.46
724.974	885.75
725.161	879.6
725.347	846.84
725.534	805.88
725.72	820.21
725.907	859.12
726.094	891.89
726.28	938.99
726.467	904.18
726.653	857.07
726.84	877.55
727.027	920.56
727.213	861.17
727.4	879.6
727.586	887.79
727.773	781.3
727.959	812.02
728.145	867.31
728.332	875.51
728.518	775.16
728.705	887.79
728.891	850.93
729.077	795.64
729.264	871.41
729.45	883.7
729.636	803.83
729.823	875.51
730.009	789.49
730.195	871.41
730.382	857.07
730.568	809.97
730.754	850.93
730.94	861.17
731.126	877.55
731.313	916.47
731.499	865.27
731.685	822.26
731.871	865.27
732.057	857.07
732.243	926.71
732.429	869.36
732.615	779.25
732.801	795.64
732.987	754.68
733.173	807.92
733.359	816.12
733.545	840.69
733.731	781.3
733.917	830.45
734.103	867.31
734.289	809.97
734.475	834.55
734.661	832.5
734.847	816.12
735.033	883.7
735.219	809.97
735.404	787.44
735.59	799.73
735.776	809.97
735.962	797.68
736.148	824.31
736.333	838.64
736.519	762.87
736.705	832.5
736.89	771.06
737.076	828.4
737.262	795.64
737.447	850.93
737.633	789.49
737.819	771.06
738.004	783.35
738.19	791.54
738.375	750.58
738.561	826.36
738.747	838.64
738.932	742.39
739.118	760.82
739.303	789.49
739.489	713.72
739.674	762.87
739.859	732.15
740.045	785.4
740.23	848.88
740.416	728.05
740.601	852.98
740.786	721.91
740.972	738.29
741.157	699.38
741.342	797.68
741.528	760.82
741.713	674.81
741.898	797.68
742.084	748.53
742.269	654.33
742.454	746.48
742.639	697.33
742.824	734.2
743.01	740.34
743.195	830.45
743.38	705.53
743.565	785.4
743.75	818.16
743.935	687.09
744.12	603.13
744.305	744.44
744.49	625.65
744.675	695.29
744.86	672.76
745.045	699.38
745.23	762.87
745.415	732.15
745.6	670.71
745.785	689.14
745.97	785.4
746.155	609.27
746.34	699.38
746.525	730.1
746.71	699.38
746.895	584.7
747.079	658.42
747.264	660.47
747.449	678.9
747.634	689.14
747.819	615.41
748.003	689.14
748.188	658.42
748.373	644.09
748.557	613.37
748.742	631.8
748.927	621.56
749.111	627.7
749.296	590.84
749.481	670.71
749.665	615.41
749.85	654.33
750.034	695.29
750.219	611.32
750.404	533.5
750.588	621.56
750.773	558.07
750.957	566.26
751.141	594.93
751.326	621.56
751.51	549.88
751.695	558.07
751.879	609.27
752.064	623.61
752.248	508.92
752.432	478.2
752.617	564.22
752.801	601.08
752.985	459.77
753.17	517.11
753.354	525.3
753.538	549.88
753.722	541.69
753.907	537.59
754.091	588.79
754.275	513.02
754.459	504.82
754.643	470.01
754.828	492.54
755.012	537.59
755.196	470.01
755.38	504.82
755.564	515.06
755.748	560.12
755.932	474.1
756.116	510.97
756.3	541.69
756.484	474.1
756.668	539.64
756.852	480.25
757.036	476.15
757.22	498.68
757.404	531.45
757.588	465.91
757.772	433.15
757.956	459.77
758.14	482.3
758.323	547.83
758.507	523.26
758.691	402.43
758.875	420.86
759.059	449.53
759.242	515.06
759.426	420.86
759.61	373.75
759.794	457.72
759.977	371.71
760.161	506.87
760.345	500.73
760.528	437.24
760.712	406.52
760.895	494.58
761.079	353.27
761.263	441.34
761.446	470.01
761.63	312.32
761.813	408.57
761.997	375.8
762.18	347.13
762.364	420.86
762.547	326.65
762.731	478.2
762.914	396.28
763.098	420.86
763.281	412.67
763.464	328.7
763.648	392.19
763.831	394.23
764.015	324.6
764.198	400.38
764.381	312.32
764.564	424.95
764.748	416.76
764.931	332.79
765.114	381.95
765.297	386.04
765.481	383.99
765.664	351.23
765.847	422.91
766.03	388.09
766.213	343.03
766.397	386.04
766.58	340.99
766.763	351.23
766.946	363.51
767.129	334.84
767.312	433.15
767.495	320.51
767.678	412.67
767.861	410.62
768.044	334.84
768.227	369.66
768.41	422.91
768.593	343.03
768.776	293.88
768.959	369.66
769.142	365.56
769.324	394.23
769.507	306.17
769.69	375.8
769.873	351.23
770.056	343.03
770.239	359.42
770.421	316.41
770.604	254.97
770.787	367.61
770.97	349.18
771.152	326.65
771.335	326.65
771.518	234.49
771.7	353.27
771.883	332.79
772.066	349.18
772.248	340.99
772.431	359.42
772.613	302.08
772.796	312.32
772.978	281.6
773.161	375.8
773.343	297.98
773.526	265.21
773.708	234.49
773.891	234.49
774.073	252.92
774.256	261.12
774.438	347.13
774.621	250.88
774.803	269.31
774.985	306.17
775.168	408.57
775.35	224.25
775.532	357.37
775.715	238.59
775.897	334.84
776.079	287.74
776.261	224.25
776.444	257.02
776.626	336.89
776.808	226.3
776.99	244.73
777.173	220.16
777.355	197.63
777.537	334.84
777.719	205.82
777.901	283.64
778.083	277.5
778.265	216.06
778.447	324.6
778.629	273.4
778.811	209.92
778.993	267.26
779.175	267.26
779.357	173.05
779.539	285.69
779.721	216.06
779.903	310.27
780.085	261.12
780.267	275.45
780.449	224.25
780.631	230.4
780.812	171.01
780.994	197.63
781.176	230.4
781.358	199.68
781.54	150.53
781.721	181.25
781.903	246.78
782.085	273.4
782.267	181.25
782.448	261.12
782.63	199.68
782.812	154.62
782.993	209.92
783.175	132.09
783.357	179.2
783.538	246.78
783.72	216.06
783.901	173.05
784.083	201.72
784.264	156.67
784.446	224.25
784.627	162.81
784.809	99.33
784.99	246.78
785.172	244.73
785.353	220.16
785.535	115.71
785.716	181.25
785.897	181.25
786.079	234.49
786.26	158.72
786.441	154.62
786.623	175.1
786.804	179.2
786.985	150.53
787.167	175.1
787.348	138.24
787.529	193.53
787.71	226.3
787.891	154.62
788.073	82.94
788.254	109.57
788.435	207.87
788.616	117.76
788.797	117.76
788.978	218.11
789.159	224.25
789.34	121.85
789.522	132.09
789.703	154.62
789.884	144.38
790.065	107.52
790.246	187.39
790.427	148.48
790.607	164.86
790.788	207.87
790.969	168.96
791.15	179.2
791.331	78.85
791.512	218.11
791.693	99.33
791.874	125.95
792.054	181.25
792.235	134.14
792.416	142.33
792.597	158.72
792.778	146.43
792.958	181.25
793.139	142.33
793.32	156.67
793.5	101.37
793.681	158.72
793.862	121.85
794.042	166.91
794.223	99.33
794.404	123.9
794.584	158.72
794.765	109.57
794.945	89.09
795.126	101.37
795.306	107.52
795.487	37.89
795.667	105.47
795.848	84.99
796.028	146.43
796.209	132.09
796.389	146.43
796.57	187.39
796.75	99.33
796.93	74.75
797.111	115.71
797.291	160.77
797.471	93.18
797.652	78.85
797.832	58.37
798.012	146.43
798.192	58.37
798.373	105.47
798.553	123.9
798.733	89.09
798.913	87.04
799.093	211.96
799.274	89.09
799.454	111.61
799.634	134.14
799.814	62.46
799.994	191.49
800.174	89.09
800.354	68.61
800.534	111.61
800.714	87.04
800.894	132.09
801.074	70.65
801.254	146.43
801.434	152.57
801.614	84.99
801.794	101.37
801.974	347.13
802.154	39.94
802.334	130.05
802.514	50.18
802.693	150.53
802.873	52.22
803.053	76.8
803.233	80.89
803.413	93.18
803.592	74.75
803.772	15.36
803.952	78.85
804.131	78.85
804.311	87.04
804.491	119.81
804.67	97.28
804.85	58.37
805.03	84.99
805.209	101.37
805.389	87.04
805.568	74.75
805.748	109.57
805.928	52.22
806.107	87.04
806.287	56.32
806.466	58.37
806.646	89.09
806.825	89.09
807.004	80.89
807.184	101.37
807.363	64.51
807.543	128
807.722	121.85
807.901	121.85
808.081	123.9
808.26	13.31
808.439	109.57
808.619	66.56
808.798	52.22
808.977	74.75
809.156	39.94
809.336	107.52
809.515	27.65
809.694	33.79
809.873	58.37
810.052	121.85
810.231	115.71
810.411	17.41
810.59	5.12
810.769	76.8
810.948	50.18
811.127	64.51
811.306	54.27
811.485	41.98
811.664	107.52
811.843	87.04
812.022	80.89
812.201	27.65
812.38	-5.12
812.559	54.27
812.737	52.22
812.916	68.61
813.095	50.18
813.274	58.37
813.453	97.28
813.632	25.6
813.811	103.42
813.989	52.22
814.168	80.89
814.347	31.74
814.526	74.75
814.704	56.32
814.883	142.33
815.062	105.47
815.24	89.09
815.419	74.75
815.598	60.42
815.776	70.65
815.955	89.09
816.133	60.42
816.312	31.74
816.49	68.61
816.669	113.66
816.847	13.31
817.026	48.13
817.204	41.98
817.383	111.61
817.561	80.89
817.74	91.13
817.918	60.42
818.097	48.13
818.275	70.65
818.453	72.7
818.632	93.18
818.81	3.07
818.988	97.28
819.167	9.22
819.345	54.27
819.523	58.37
819.701	66.56
819.879	54.27
820.058	54.27
820.236	-15.36
820.414	23.55
820.592	31.74
820.77	84.99
820.948	64.51
821.127	-31.74
821.305	72.7
821.483	89.09
821.661	41.98
821.839	76.8
822.017	39.94
822.195	44.03
822.373	50.18
822.551	93.18
822.729	97.28
822.907	46.08
823.085	60.42
823.262	58.37
823.44	56.32
823.618	23.55
823.796	91.13
823.974	-41.98
824.152	70.65
824.329	-37.89
824.507	74.75
824.685	50.18
824.863	58.37
825.04	68.61
825.218	123.9
825.396	46.08
825.574	99.33
825.751	9.22
825.929	66.56
826.107	13.31
826.284	54.27
826.462	52.22
826.639	48.13
826.817	50.18
826.994	19.46
827.172	48.13
827.349	46.08
827.527	80.89
827.704	21.5
827.882	93.18
828.059	7.17
828.237	50.18
828.414	87.04
828.591	58.37
828.769	162.81
828.946	60.42
829.124	35.84
829.301	-13.31
829.478	146.43
829.655	50.18
829.833	56.32
830.01	113.66
830.187	31.74
830.364	-31.74
830.542	72.7
830.719	29.7
830.896	97.28
831.073	52.22
831.25	60.42
831.427	-3.07
831.604	76.8
831.782	84.99
831.959	99.33
832.136	-13.31
832.313	35.84
832.49	58.37
832.667	-3.07
832.844	107.52
833.021	48.13
833.198	1.02
833.374	72.7
833.551	87.04
833.728	97.28
833.905	-46.08
834.082	46.08
834.259	-11.26
834.436	23.55
834.612	-25.6
834.789	115.71
834.966	27.65
835.143	27.65
835.319	52.22
835.496	72.7
835.673	46.08
835.85	21.5
836.026	15.36
836.203	72.7
836.38	3.07
836.556	66.56
836.733	44.03
836.909	140.29
837.086	11.26
837.262	25.6
837.439	-3.07
837.616	56.32
837.792	29.7
837.968	39.94
838.145	-7.17
838.321	29.7
838.498	11.26
838.674	78.85
838.851	82.94
839.027	52.22
839.203	23.55
839.38	17.41
839.556	-21.5
839.732	-7.17
839.909	33.79
840.085	1.02
840.261	19.46
840.437	50.18
840.614	31.74
840.79	78.85
840.966	41.98
841.142	80.89
841.318	-11.26
841.494	21.5
841.671	27.65
841.847	54.27
842.023	48.13
842.199	97.28
842.375	-27.65
842.551	-7.17
842.727	48.13
842.903	33.79
843.079	15.36
843.255	103.42
843.431	44.03
843.607	97.28
843.783	33.79
843.959	7.17
844.134	-5.12
844.31	60.42
844.486	56.32
844.662	25.6
844.838	97.28
845.013	50.18
845.189	-3.07
845.365	-29.7
845.541	39.94
845.716	-33.79
845.892	82.94
846.068	23.55
846.244	-13.31
846.419	23.55
846.595	48.13
846.77	-25.6
846.946	44.03
847.122	89.09
847.297	1.02
847.473	87.04
847.648	13.31
847.824	58.37
847.999	3.07
848.175	84.99
848.35	58.37
848.526	-3.07
848.701	44.03
848.876	-1.02
849.052	33.79
849.227	101.37
849.403	39.94
849.578	27.65
849.753	31.74
849.929	39.94
850.104	-33.79
850.279	97.28
850.454	44.03
850.63	89.09
850.805	80.89
850.98	-29.7
851.155	103.42
851.33	58.37
851.505	-25.6
851.681	41.98
851.856	-7.17
852.031	3.07
852.206	70.65
852.381	-5.12
852.556	17.41
852.731	48.13
852.906	7.17
853.081	31.74
853.256	31.74
853.431	17.41
853.606	56.32
853.781	52.22
853.956	27.65
854.131	5.12
854.305	-5.12
854.48	9.22
854.655	91.13
854.83	15.36
855.005	-23.55
855.18	80.89
855.354	5.12
855.529	9.22
855.704	158.72
855.879	7.17
856.053	117.76
856.228	97.28
856.403	27.65
856.577	41.98
856.752	76.8
856.926	-3.07
857.101	-29.7
857.276	21.5
857.45	-25.6
857.625	25.6
857.799	17.41
857.974	103.42
858.148	-9.22
858.323	-9.22
858.497	23.55
858.672	27.65
858.846	27.65
859.02	56.32
859.195	60.42
859.369	52.22
859.543	-33.79
859.718	64.51
859.892	25.6
860.066	25.6
860.241	78.85
860.415	9.22
860.589	5.12
860.763	15.36
860.938	91.13
861.112	29.7
861.286	1.02
861.46	37.89
861.634	-15.36
861.808	44.03
861.982	11.26
862.157	50.18
862.331	52.22
862.505	1.02
862.679	35.84
862.853	87.04
863.027	91.13
863.201	54.27
863.375	48.13
863.549	31.74
863.722	41.98
863.896	33.79
864.07	-5.12
864.244	7.17
864.418	-50.18
864.592	15.36
864.766	60.42
864.939	35.84
865.113	56.32
865.287	35.84
865.461	-41.98
865.634	101.37
865.808	60.42
865.982	25.6
866.156	50.18
866.329	7.17
866.503	48.13
866.676	31.74
866.85	7.17
867.024	25.6
867.197	58.37
867.371	56.32
867.544	13.31
867.718	1.02
867.891	31.74
868.065	15.36
868.238	-21.5
868.412	-5.12
868.585	-84.99
868.759	17.41
868.932	25.6
869.105	-33.79
869.279	84.99
869.452	39.94
869.625	-23.55
869.799	-7.17
869.972	5.12
870.145	-23.55
870.319	84.99
870.492	35.84
870.665	-19.46
870.838	72.7
871.011	23.55
871.185	46.08
871.358	5.12
871.531	58.37
871.704	-58.37
871.877	-56.32
872.05	1.02
872.223	37.89
872.396	11.26
872.569	68.61
872.742	13.31
872.915	-1.02
873.088	-44.03
873.261	82.94
873.434	9.22
873.607	68.61
873.78	-27.65
873.953	7.17
874.126	29.7
874.299	97.28
874.471	5.12
874.644	-3.07
874.817	105.47
874.99	-9.22
875.163	27.65
875.335	17.41
875.508	19.46
875.681	5.12
875.853	25.6
876.026	41.98
876.199	13.31
876.371	5.12
876.544	7.17
876.717	-56.32
876.889	41.98
877.062	-56.32
877.234	31.74
877.407	35.84
877.579	48.13
877.752	-1.02
877.924	-25.6
878.097	82.94
878.269	-33.79
878.442	117.76
878.614	-23.55
878.786	-1.02
878.959	76.8
879.131	66.56
879.303	-17.41
879.476	-25.6
879.648	25.6
879.82	-13.31
879.993	58.37
880.165	66.56
880.337	-1.02
880.509	3.07
880.681	48.13
880.854	19.46
881.026	35.84
881.198	23.55
881.37	-33.79
881.542	3.07
881.714	1.02
881.886	41.98
882.058	23.55
882.23	35.84
882.402	-25.6
882.574	33.79
882.746	-23.55
882.918	44.03
883.09	-56.32
883.262	27.65
883.434	33.79
883.606	13.31
883.778	-7.17
883.95	121.85
884.122	-9.22
884.293	-9.22
884.465	44.03
884.637	89.09
884.809	37.89
884.98	48.13
885.152	21.5
885.324	74.75
885.496	9.22
885.667	-15.36
885.839	33.79
886.011	80.89
886.182	56.32
886.354	15.36
886.525	41.98
886.697	11.26
886.869	3.07
887.04	19.46
887.212	56.32
887.383	31.74
887.555	52.22
887.726	15.36
887.897	27.65
888.069	50.18
888.24	74.75
888.412	107.52
888.583	-17.41
888.754	9.22
888.926	31.74
889.097	74.75
889.268	27.65
889.44	11.26
889.611	33.79
889.782	7.17
889.953	-39.94
890.125	-37.89
890.296	-29.7
890.467	23.55
890.638	-17.41
890.809	33.79
890.98	13.31
891.151	15.36
891.323	-7.17
891.494	31.74
891.665	31.74
891.836	35.84
892.007	21.5
892.178	-31.74
892.349	-21.5
892.52	50.18
892.691	-3.07
892.862	15.36
893.032	-11.26
893.203	31.74
893.374	-11.26
893.545	27.65
893.716	52.22
893.887	23.55
894.057	-27.65
894.228	3.07
894.399	56.32
894.57	66.56
894.74	-13.31
894.911	-48.13
895.082	-21.5
895.253	-11.26
895.423	-17.41
895.594	-9.22
895.764	-44.03
895.935	19.46
896.106	-7.17
896.276	46.08
896.447	56.32
896.617	-23.55
896.788	54.27
896.958	13.31
897.129	-5.12
897.299	-9.22
897.47	-5.12
897.64	-31.74
897.81	-11.26
897.981	48.13
898.151	-46.08
898.322	-3.07
898.492	17.41
898.662	-1.02
898.832	-15.36
899.003	-37.89
899.173	58.37
899.343	52.22
899.513	29.7
