Data from USB4F104151__3__12-58-23-571.txt Node

Date: Fri Mar 14 12:58:23 EDT 2025
User: louis
Spectrometer: USB4F10415
Trigger mode: 4
Integration Time (sec): 1.000000E-2
Scans to average: 1
Electric dark correction enabled: true
Nonlinearity correction enabled: false
Boxcar width: 0
XAxis mode: Wavelengths
Number of Pixels in Spectrum: 3648
>>>>>Begin Spectral Data<<<<<
178.204	-44.03
178.424	-44.03
178.644	-44.03
178.864	-82.94
179.084	31.74
179.304	-37.89
179.524	48.13
179.744	-31.74
179.964	-23.55
180.184	-21.5
180.404	5.12
180.624	33.79
180.844	3.07
181.064	1.02
181.283	50.18
181.503	-19.46
181.723	-7.17
181.943	-29.7
182.163	48.13
182.383	-3.07
182.602	66.56
182.822	41.98
183.042	41.98
183.262	21.5
183.482	50.18
183.701	46.08
183.921	39.94
184.141	13.31
184.361	-17.41
184.58	1.02
184.8	91.13
185.02	66.56
185.239	103.42
185.459	15.36
185.679	82.94
185.898	-27.65
186.118	7.17
186.338	60.42
186.557	50.18
186.777	35.84
186.997	62.46
187.216	48.13
187.436	93.18
187.655	15.36
187.875	21.5
188.095	-9.22
188.314	11.26
188.534	9.22
188.753	56.32
188.973	-7.17
189.192	23.55
189.412	37.89
189.631	35.84
189.851	93.18
190.07	66.56
190.29	74.75
190.509	23.55
190.729	33.79
190.948	-9.22
191.168	44.03
191.387	52.22
191.607	11.26
191.826	-1.02
192.045	19.46
192.265	23.55
192.484	48.13
192.704	76.8
192.923	15.36
193.142	107.52
193.362	25.6
193.581	-52.22
193.8	39.94
194.02	46.08
194.239	29.7
194.458	23.55
194.678	76.8
194.897	123.9
195.116	62.46
195.335	41.98
195.555	31.74
195.774	101.37
195.993	31.74
196.212	29.7
196.432	7.17
196.651	33.79
196.87	78.85
197.089	25.6
197.308	-7.17
197.528	-48.13
197.747	1.02
197.966	41.98
198.185	95.23
198.404	25.6
198.623	52.22
198.842	13.31
199.062	-19.46
199.281	17.41
199.5	-23.55
199.719	46.08
199.938	35.84
200.157	-3.07
200.376	39.94
200.595	66.56
200.814	5.12
201.033	-15.36
201.252	123.9
201.471	15.36
201.69	78.85
201.909	56.32
202.128	23.55
202.347	17.41
202.566	46.08
202.785	113.66
203.004	9.22
203.223	-9.22
203.442	50.18
203.661	9.22
203.879	107.52
204.098	64.51
204.317	-1.02
204.536	35.84
204.755	48.13
204.974	29.7
205.193	68.61
205.411	33.79
205.63	31.74
205.849	134.14
206.068	-31.74
206.287	19.46
206.505	41.98
206.724	35.84
206.943	5.12
207.162	25.6
207.381	-11.26
207.599	58.37
207.818	-91.13
208.037	29.7
208.255	19.46
208.474	29.7
208.693	7.17
208.911	82.94
209.13	-9.22
209.349	50.18
209.567	19.46
209.786	35.84
210.005	41.98
210.223	35.84
210.442	62.46
210.661	56.32
210.879	-46.08
211.098	39.94
211.316	52.22
211.535	31.74
211.753	11.26
211.972	-29.7
212.191	44.03
212.409	13.31
212.628	-19.46
212.846	-11.26
213.065	62.46
213.283	52.22
213.502	25.6
213.72	68.61
213.938	46.08
214.157	60.42
214.375	-29.7
214.594	-13.31
214.812	54.27
215.031	13.31
215.249	41.98
215.467	33.79
215.686	-13.31
215.904	46.08
216.122	15.36
216.341	109.57
216.559	19.46
216.778	76.8
216.996	-23.55
217.214	74.75
217.432	9.22
217.651	-19.46
217.869	23.55
218.087	-5.12
218.306	25.6
218.524	58.37
218.742	-31.74
218.96	48.13
219.179	84.99
219.397	62.46
219.615	1.02
219.833	84.99
220.051	13.31
220.27	37.89
220.488	33.79
220.706	33.79
220.924	9.22
221.142	-39.94
221.36	60.42
221.578	78.85
221.796	84.99
222.015	5.12
222.233	11.26
222.451	-21.5
222.669	46.08
222.887	27.65
223.105	25.6
223.323	37.89
223.541	60.42
223.759	56.32
223.977	-60.42
224.195	3.07
224.413	15.36
224.631	-39.94
224.849	93.18
225.067	25.6
225.285	7.17
225.503	60.42
225.721	52.22
225.939	78.85
226.157	84.99
226.375	33.79
226.592	50.18
226.81	52.22
227.028	5.12
227.246	13.31
227.464	15.36
227.682	99.33
227.9	33.79
228.117	13.31
228.335	72.7
228.553	-17.41
228.771	84.99
228.989	-31.74
229.206	29.7
229.424	-1.02
229.642	89.09
229.86	35.84
230.077	17.41
230.295	99.33
230.513	5.12
230.731	44.03
230.948	33.79
231.166	46.08
231.384	99.33
231.601	7.17
231.819	23.55
232.037	5.12
232.254	-17.41
232.472	72.7
232.689	27.65
232.907	-3.07
233.125	-35.84
233.342	84.99
233.56	66.56
233.777	-7.17
233.995	62.46
234.213	50.18
234.43	35.84
234.648	115.71
234.865	39.94
235.083	-7.17
235.3	-46.08
235.518	70.65
235.735	93.18
235.953	66.56
236.17	-37.89
236.388	46.08
236.605	123.9
236.822	58.37
237.04	93.18
237.257	119.81
237.475	-111.61
237.692	33.79
237.909	54.27
238.127	-35.84
238.344	111.61
238.562	39.94
238.779	41.98
238.996	19.46
239.214	29.7
239.431	107.52
239.648	37.89
239.865	62.46
240.083	-17.41
240.3	1.02
240.517	103.42
240.735	-1.02
240.952	-7.17
241.169	-35.84
241.386	46.08
241.603	58.37
241.821	-13.31
242.038	11.26
242.255	37.89
242.472	-23.55
242.689	80.89
242.907	31.74
243.124	136.19
243.341	70.65
243.558	33.79
243.775	21.5
243.992	52.22
244.209	99.33
244.426	15.36
244.643	5.12
244.86	74.75
245.078	46.08
245.295	60.42
245.512	19.46
245.729	-11.26
245.946	41.98
246.163	60.42
246.38	25.6
246.597	44.03
246.814	-21.5
247.031	31.74
247.248	66.56
247.464	33.79
247.681	62.46
247.898	17.41
248.115	50.18
248.332	-23.55
248.549	115.71
248.766	27.65
248.983	62.46
249.2	48.13
249.417	5.12
249.633	-7.17
249.85	25.6
250.067	31.74
250.284	-29.7
250.501	33.79
250.717	64.51
250.934	72.7
251.151	17.41
251.368	41.98
251.585	54.27
251.801	44.03
252.018	109.57
252.235	17.41
252.451	-7.17
252.668	3.07
252.885	82.94
253.102	-37.89
253.318	60.42
253.535	58.37
253.752	89.09
253.968	103.42
254.185	5.12
254.401	33.79
254.618	84.99
254.835	17.41
255.051	-15.36
255.268	13.31
255.484	105.47
255.701	35.84
255.917	58.37
256.134	41.98
256.351	82.94
256.567	3.07
256.784	23.55
257	60.42
257.217	50.18
257.433	9.22
257.65	101.37
257.866	74.75
258.082	-70.65
258.299	-5.12
258.515	-13.31
258.732	46.08
258.948	52.22
259.165	48.13
259.381	70.65
259.597	70.65
259.814	27.65
260.03	109.57
260.246	52.22
260.463	78.85
260.679	9.22
260.895	60.42
261.112	84.99
261.328	-70.65
261.544	46.08
261.761	68.61
261.977	-15.36
262.193	19.46
262.409	72.7
262.626	-3.07
262.842	19.46
263.058	-11.26
263.274	58.37
263.49	48.13
263.707	19.46
263.923	60.42
264.139	52.22
264.355	29.7
264.571	17.41
264.787	54.27
265.004	68.61
265.22	41.98
265.436	50.18
265.652	19.46
265.868	3.07
266.084	37.89
266.3	41.98
266.516	46.08
266.732	29.7
266.948	-23.55
267.164	35.84
267.38	27.65
267.596	17.41
267.812	97.28
268.028	23.55
268.244	95.23
268.46	46.08
268.676	-1.02
268.892	-48.13
269.108	87.04
269.324	1.02
269.54	9.22
269.756	46.08
269.972	60.42
270.188	99.33
270.403	64.51
270.619	80.89
270.835	35.84
271.051	60.42
271.267	33.79
271.483	58.37
271.698	74.75
271.914	33.79
272.13	39.94
272.346	50.18
272.562	89.09
272.777	78.85
272.993	27.65
273.209	80.89
273.425	80.89
273.64	58.37
273.856	39.94
274.072	15.36
274.287	66.56
274.503	121.85
274.719	21.5
274.934	82.94
275.15	29.7
275.366	87.04
275.581	78.85
275.797	23.55
276.012	19.46
276.228	60.42
276.444	-19.46
276.659	150.53
276.875	50.18
277.09	23.55
277.306	54.27
277.521	50.18
277.737	-7.17
277.952	89.09
278.168	64.51
278.383	-39.94
278.599	-17.41
278.814	76.8
279.03	48.13
279.245	103.42
279.461	-9.22
279.676	109.57
279.892	1.02
280.107	54.27
280.322	-33.79
280.538	95.23
280.753	-44.03
280.969	23.55
281.184	84.99
281.399	-7.17
281.615	7.17
281.83	35.84
282.045	-19.46
282.26	58.37
282.476	87.04
282.691	66.56
282.906	64.51
283.122	64.51
283.337	60.42
283.552	58.37
283.767	64.51
283.983	58.37
284.198	-13.31
284.413	93.18
284.628	-7.17
284.843	60.42
285.058	9.22
285.274	23.55
285.489	39.94
285.704	50.18
285.919	17.41
286.134	93.18
286.349	68.61
286.564	41.98
286.779	37.89
286.995	-25.6
287.21	31.74
287.425	54.27
287.64	44.03
287.855	-41.98
288.07	33.79
288.285	91.13
288.5	50.18
288.715	39.94
288.93	15.36
289.145	103.42
289.36	52.22
289.575	-7.17
289.79	101.37
290.004	-19.46
290.219	64.51
290.434	9.22
290.649	82.94
290.864	-3.07
291.079	62.46
291.294	19.46
291.509	66.56
291.724	101.37
291.938	13.31
292.153	66.56
292.368	78.85
292.583	37.89
292.798	44.03
293.012	15.36
293.227	35.84
293.442	82.94
293.657	91.13
293.871	82.94
294.086	15.36
294.301	62.46
294.516	41.98
294.73	80.89
294.945	82.94
295.16	46.08
295.374	9.22
295.589	1.02
295.804	35.84
296.018	78.85
296.233	35.84
296.447	-17.41
296.662	-25.6
296.877	66.56
297.091	66.56
297.306	54.27
297.52	54.27
297.735	-7.17
297.949	-3.07
298.164	41.98
298.378	52.22
298.593	-21.5
298.807	25.6
299.022	3.07
299.236	11.26
299.451	50.18
299.665	66.56
299.88	50.18
300.094	-76.8
300.309	7.17
300.523	21.5
300.737	31.74
300.952	130.05
301.166	95.23
301.381	64.51
301.595	84.99
301.809	-7.17
302.024	9.22
302.238	87.04
302.452	66.56
302.667	68.61
302.881	58.37
303.095	1.02
303.309	44.03
303.524	115.71
303.738	62.46
303.952	50.18
304.166	35.84
304.381	9.22
304.595	46.08
304.809	17.41
305.023	-3.07
305.237	-39.94
305.452	60.42
305.666	25.6
305.88	121.85
306.094	11.26
306.308	101.37
306.522	74.75
306.736	109.57
306.95	68.61
307.164	-1.02
307.379	68.61
307.593	46.08
307.807	91.13
308.021	130.05
308.235	146.43
308.449	93.18
308.663	123.9
308.877	25.6
309.091	9.22
309.305	62.46
309.519	50.18
309.733	60.42
309.947	7.17
310.161	46.08
310.374	5.12
310.588	-5.12
310.802	39.94
311.016	23.55
311.23	107.52
311.444	-5.12
311.658	41.98
311.872	76.8
312.085	11.26
312.299	50.18
312.513	29.7
312.727	19.46
312.941	11.26
313.154	11.26
313.368	66.56
313.582	-60.42
313.796	7.17
314.009	41.98
314.223	68.61
314.437	31.74
314.651	41.98
314.864	54.27
315.078	50.18
315.292	9.22
315.505	27.65
315.719	87.04
315.933	56.32
316.146	29.7
316.36	46.08
316.573	68.61
316.787	48.13
317.001	21.5
317.214	54.27
317.428	19.46
317.641	91.13
317.855	41.98
318.068	5.12
318.282	54.27
318.495	11.26
318.709	66.56
318.922	27.65
319.136	93.18
319.349	29.7
319.563	97.28
319.776	25.6
319.99	-3.07
320.203	25.6
320.417	11.26
320.63	44.03
320.843	105.47
321.057	39.94
321.27	33.79
321.483	39.94
321.697	46.08
321.91	78.85
322.124	101.37
322.337	7.17
322.55	72.7
322.763	60.42
322.977	70.65
323.19	35.84
323.403	74.75
323.617	15.36
323.83	41.98
324.043	7.17
324.256	9.22
324.469	74.75
324.683	-13.31
324.896	-3.07
325.109	76.8
325.322	76.8
325.535	21.5
325.748	93.18
325.962	11.26
326.175	37.89
326.388	41.98
326.601	60.42
326.814	123.9
327.027	15.36
327.24	17.41
327.453	19.46
327.666	17.41
327.879	44.03
328.092	119.81
328.305	39.94
328.518	66.56
328.731	46.08
328.944	21.5
329.157	7.17
329.37	56.32
329.583	35.84
329.796	58.37
330.009	3.07
330.222	56.32
330.435	76.8
330.648	60.42
330.861	66.56
331.073	123.9
331.286	105.47
331.499	72.7
331.712	70.65
331.925	35.84
332.138	-11.26
332.35	-3.07
332.563	29.7
332.776	103.42
332.989	13.31
333.202	72.7
333.414	80.89
333.627	-70.65
333.84	119.81
334.053	101.37
334.265	5.12
334.478	66.56
334.691	27.65
334.903	82.94
335.116	-11.26
335.329	21.5
335.541	68.61
335.754	56.32
335.966	33.79
336.179	64.51
336.392	1.02
336.604	29.7
336.817	23.55
337.029	-7.17
337.242	19.46
337.454	56.32
337.667	41.98
337.88	76.8
338.092	41.98
338.305	107.52
338.517	68.61
338.729	130.05
338.942	50.18
339.154	25.6
339.367	87.04
339.579	25.6
339.792	29.7
340.004	46.08
340.217	25.6
340.429	44.03
340.641	52.22
340.854	1.02
341.066	52.22
341.278	140.29
341.491	15.36
341.703	11.26
341.915	5.12
342.128	66.56
342.34	50.18
342.552	41.98
342.764	29.7
342.977	21.5
343.189	44.03
343.401	62.46
343.613	27.65
343.826	-21.5
344.038	-11.26
344.25	54.27
344.462	107.52
344.674	9.22
344.886	50.18
345.099	58.37
345.311	35.84
345.523	44.03
345.735	115.71
345.947	54.27
346.159	-1.02
346.371	74.75
346.583	64.51
346.795	68.61
347.007	7.17
347.219	9.22
347.431	44.03
347.643	52.22
347.855	37.89
348.067	93.18
348.279	-52.22
348.491	13.31
348.703	-7.17
348.915	54.27
349.127	107.52
349.339	80.89
349.551	68.61
349.763	93.18
349.975	107.52
350.187	5.12
350.399	93.18
350.61	21.5
350.822	21.5
351.034	91.13
351.246	54.27
351.458	-19.46
351.669	66.56
351.881	27.65
352.093	44.03
352.305	15.36
352.517	46.08
352.728	64.51
352.94	13.31
353.152	58.37
353.363	64.51
353.575	103.42
353.787	31.74
353.999	33.79
354.21	74.75
354.422	7.17
354.633	78.85
354.845	68.61
355.057	82.94
355.268	91.13
355.48	87.04
355.692	91.13
355.903	91.13
356.115	58.37
356.326	41.98
356.538	-1.02
356.749	27.65
356.961	72.7
357.172	80.89
357.384	35.84
357.595	62.46
357.807	29.7
358.018	27.65
358.23	54.27
358.441	11.26
358.653	91.13
358.864	70.65
359.075	60.42
359.287	37.89
359.498	101.37
359.709	44.03
359.921	48.13
360.132	25.6
360.344	62.46
360.555	72.7
360.766	70.65
360.977	17.41
361.189	78.85
361.4	19.46
361.611	54.27
361.823	62.46
362.034	52.22
362.245	89.09
362.456	35.84
362.667	58.37
362.879	25.6
363.09	99.33
363.301	99.33
363.512	52.22
363.723	54.27
363.935	21.5
364.146	33.79
364.357	19.46
364.568	95.23
364.779	17.41
364.99	76.8
365.201	25.6
365.412	101.37
365.623	-5.12
365.834	48.13
366.045	46.08
366.256	41.98
366.467	23.55
366.678	62.46
366.889	41.98
367.1	95.23
367.311	103.42
367.522	-48.13
367.733	27.65
367.944	89.09
368.155	7.17
368.366	146.43
368.577	29.7
368.788	70.65
368.999	62.46
369.209	33.79
369.42	60.42
369.631	37.89
369.842	27.65
370.053	-27.65
370.264	27.65
370.474	9.22
370.685	91.13
370.896	23.55
371.107	29.7
371.317	1.02
371.528	41.98
371.739	89.09
371.95	56.32
372.16	93.18
372.371	101.37
372.582	54.27
372.792	-7.17
373.003	109.57
373.214	9.22
373.424	158.72
373.635	48.13
373.846	35.84
374.056	19.46
374.267	76.8
374.477	99.33
374.688	29.7
374.898	46.08
375.109	68.61
375.319	11.26
375.53	76.8
375.74	123.9
375.951	48.13
376.161	41.98
376.372	97.28
376.582	74.75
376.793	74.75
377.003	-15.36
377.214	119.81
377.424	58.37
377.635	60.42
377.845	-15.36
378.055	107.52
378.266	21.5
378.476	17.41
378.686	11.26
378.897	82.94
379.107	89.09
379.317	54.27
379.528	78.85
379.738	150.53
379.948	50.18
380.158	95.23
380.369	60.42
380.579	52.22
380.789	25.6
380.999	101.37
381.21	48.13
381.42	48.13
381.63	66.56
381.84	50.18
382.05	15.36
382.261	7.17
382.471	54.27
382.681	52.22
382.891	19.46
383.101	23.55
383.311	52.22
383.521	84.99
383.731	109.57
383.941	54.27
384.151	89.09
384.361	93.18
384.571	25.6
384.781	82.94
384.991	-23.55
385.201	41.98
385.411	107.52
385.621	74.75
385.831	27.65
386.041	72.7
386.251	1.02
386.461	27.65
386.671	60.42
386.881	52.22
387.091	25.6
387.301	46.08
387.511	27.65
387.72	76.8
387.93	95.23
388.14	56.32
388.35	56.32
388.56	60.42
388.769	74.75
388.979	64.51
389.189	29.7
389.399	74.75
389.609	-3.07
389.818	154.62
390.028	52.22
390.238	19.46
390.447	3.07
390.657	74.75
390.867	72.7
391.076	52.22
391.286	93.18
391.496	72.7
391.705	123.9
391.915	130.05
392.125	66.56
392.334	93.18
392.544	91.13
392.753	48.13
392.963	68.61
393.172	70.65
393.382	25.6
393.591	91.13
393.801	78.85
394.01	31.74
394.22	50.18
394.429	60.42
394.639	60.42
394.848	41.98
395.058	33.79
395.267	54.27
395.477	76.8
395.686	58.37
395.895	103.42
396.105	95.23
396.314	64.51
396.524	91.13
396.733	123.9
396.942	93.18
397.152	91.13
397.361	37.89
397.57	121.85
397.78	44.03
397.989	115.71
398.198	154.62
398.407	60.42
398.617	123.9
398.826	117.76
399.035	134.14
399.244	125.95
399.453	144.38
399.663	95.23
399.872	82.94
400.081	99.33
400.29	164.86
400.499	117.76
400.708	140.29
400.917	76.8
401.127	23.55
401.336	164.86
401.545	150.53
401.754	82.94
401.963	101.37
402.172	52.22
402.381	82.94
402.59	84.99
402.799	48.13
403.008	160.77
403.217	62.46
403.426	150.53
403.635	93.18
403.844	144.38
404.053	107.52
404.262	121.85
404.471	216.06
404.68	130.05
404.888	107.52
405.097	58.37
405.306	146.43
405.515	142.33
405.724	121.85
405.933	181.25
406.142	156.67
406.35	164.86
406.559	246.78
406.768	84.99
406.977	148.48
407.185	191.49
407.394	197.63
407.603	132.09
407.812	144.38
408.02	152.57
408.229	205.82
408.438	181.25
408.646	232.44
408.855	115.71
409.064	216.06
409.272	238.59
409.481	269.31
409.69	216.06
409.898	269.31
410.107	224.25
410.315	242.68
410.524	216.06
410.733	263.16
410.941	271.36
411.15	287.74
411.358	338.94
411.567	379.9
411.775	324.6
411.984	287.74
412.192	363.51
412.401	326.65
412.609	349.18
412.818	410.62
413.026	375.8
413.234	381.95
413.443	412.67
413.651	404.47
413.86	437.24
414.068	527.35
414.276	515.06
414.485	498.68
414.693	510.97
414.901	521.21
415.11	478.2
415.318	547.83
415.526	556.02
415.734	631.8
415.943	580.6
416.151	635.89
416.359	670.71
416.567	703.48
416.776	711.67
416.984	664.57
417.192	773.11
417.4	769.01
417.608	777.2
417.817	758.77
418.025	887.79
418.233	869.36
418.441	861.17
418.649	930.8
418.857	1033.2
419.065	1008.62
419.273	1004.53
419.481	1086.45
419.689	1031.15
419.897	1111.02
420.105	1174.51
420.313	1254.38
420.521	1233.9
420.729	1330.16
420.937	1258.48
421.145	1371.12
421.353	1422.31
421.561	1512.42
421.769	1539.05
421.977	1551.34
422.185	1444.84
422.393	1684.45
422.601	1836
422.809	1674.21
423.017	1844.2
423.224	1747.94
423.432	1926.11
423.64	2065.38
423.848	2161.63
424.056	1991.65
424.263	2202.59
424.471	2235.36
424.679	2253.79
424.887	2317.28
425.094	2354.14
425.302	2522.07
425.51	2583.51
425.718	2649.05
425.925	2610.14
426.133	2782.17
426.341	2905.04
426.548	3040.21
426.756	3144.66
426.964	3007.44
427.171	3265.49
427.379	3392.46
427.586	3285.97
427.794	3412.94
428.001	3646.41
428.209	3797.96
428.417	3752.9
428.624	3998.66
428.832	4019.14
429.039	3961.8
429.247	4000.71
429.454	4359.1
429.662	4647.87
429.869	4268.99
430.076	4608.95
430.284	4512.7
430.491	4711.35
430.699	5008.31
430.906	4901.81
431.114	4981.68
431.321	5266.35
431.528	5292.98
431.736	5542.83
431.943	5919.65
432.15	5718.95
432.358	5895.08
432.565	6255.52
432.772	6222.75
432.979	6517.66
433.187	6460.32
433.394	6634.39
433.601	7099.28
433.808	7123.86
434.016	7087
434.223	7205.78
434.43	7836.55
434.637	7439.25
434.844	8002.44
435.052	8061.83
435.259	7945.09
435.466	8258.43
435.673	8221.57
435.88	8579.97
436.087	9145.2
436.294	9149.3
436.501	8930.17
436.708	9177.97
436.915	9497.46
437.122	9874.28
437.329	9771.88
437.537	10234.72
437.743	10169.19
437.95	10318.69
438.157	10795.87
438.364	11129.69
438.571	11113.3
438.778	11307.86
438.985	12292.93
439.192	11852.62
439.399	12118.86
439.606	11750.22
439.813	12559.17
440.02	13284.15
440.227	13034.3
440.433	12786.49
440.64	13527.86
440.847	13265.72
441.054	13634.35
441.261	14539.55
441.467	14205.74
441.674	14535.46
441.881	15229.72
442.088	15362.84
442.294	14928.67
442.501	15362.84
442.708	15672.08
442.914	16313.1
443.121	16972.54
443.328	16626.43
443.534	17855.22
443.741	17089.28
443.948	17070.84
444.154	18105.07
444.361	18293.48
444.568	18332.39
444.774	18416.36
444.981	18590.44
445.187	19055.33
445.394	19862.22
445.6	19753.68
445.807	21811.89
446.013	20613.83
446.22	21068.48
446.426	21858.99
446.633	21953.2
446.839	22717.09
447.046	21801.65
447.252	23278.24
447.459	23149.21
447.665	23038.62
447.871	23913.11
448.078	25139.84
448.284	24068.75
448.491	24670.86
448.697	25660.02
448.903	26073.71
449.11	26092.15
449.316	25604.73
449.522	26296.94
449.728	26722.92
449.935	27026.02
450.141	27021.92
450.347	27773.53
450.553	27089.51
450.76	27062.88
450.966	28469.84
451.172	27855.45
451.378	28940.87
451.584	27863.64
451.791	28869.19
451.997	28697.16
452.203	29364.8
452.409	29440.57
452.615	28938.82
452.821	27931.22
453.027	27652.7
453.233	29256.26
453.44	27828.82
453.646	28516.94
453.852	28430.93
454.058	29153.86
454.264	28179.03
454.47	28828.23
454.676	28093.01
454.882	29051.46
455.088	26518.12
455.294	27234.91
455.5	27218.53
455.705	27970.13
455.911	26325.61
456.117	25944.69
456.323	25864.82
456.529	24447.63
456.735	24957.57
456.941	24568.46
457.147	24128.14
457.352	23761.56
457.558	23460.51
457.764	23368.35
457.97	23020.19
458.176	22368.94
458.381	22258.35
458.587	21445.3
458.793	21553.85
458.999	20464.33
459.204	21648.05
459.41	20894.4
459.616	19847.89
459.821	19972.82
460.027	19774.16
460.233	19147.48
460.438	18649.83
460.644	18316.01
460.85	17707.76
461.055	17468.15
461.261	17130.23
461.466	15938.32
461.672	15553.3
461.878	16829.18
462.083	15567.63
462.289	15479.57
462.494	14967.58
462.7	14412.58
462.905	14146.34
463.111	14398.24
463.316	14549.79
463.522	14158.63
463.727	14299.94
463.932	14398.24
464.138	14254.89
464.343	14045.99
464.549	13947.69
464.754	14287.65
464.959	14224.17
465.165	14060.33
465.37	13499.19
465.575	13179.7
465.781	13519.67
465.986	13470.51
466.191	13146.94
466.397	12798.78
466.602	12133.19
466.807	12987.19
467.012	12766.01
467.218	12655.42
467.423	12577.6
467.628	12495.68
467.833	13200.18
468.038	12710.72
468.244	12424
468.449	12929.85
468.654	12559.17
468.859	12153.67
469.064	12264.26
469.269	11760.46
469.474	11789.13
469.679	11969.35
469.885	11684.69
470.09	11846.48
470.295	11948.87
470.5	11639.63
470.705	11793.23
470.91	11357.01
471.115	11293.52
471.32	11348.82
471.525	11391.83
471.73	11131.73
471.935	11103.06
472.139	10609.5
472.344	10759
472.549	10767.2
472.754	10498.91
472.959	10283.88
473.164	10210.15
473.369	9825.13
473.574	10324.83
473.778	10341.22
473.983	10072.93
474.188	10136.42
474.393	9767.79
474.598	9739.12
474.802	9634.67
475.007	9618.29
475.212	9571.18
475.417	9100.15
475.621	9352.05
475.826	9147.25
476.031	9077.62
476.235	9098.1
476.44	8842.11
476.645	9003.89
476.849	8987.51
477.054	8881.02
477.259	8700.8
477.463	8711.04
477.668	8371.07
477.872	8563.58
478.077	8354.69
478.282	8151.94
478.486	8274.82
478.691	7914.38
478.895	8156.04
479.1	8022.92
479.304	7943.05
479.509	7674.76
479.713	8033.16
479.918	7773.07
480.122	7742.35
480.326	7664.52
480.531	7840.65
480.735	7623.56
480.94	7531.41
481.144	7742.35
481.348	7447.44
481.553	7734.15
481.757	7349.14
481.961	7439.25
482.166	7512.97
482.37	7592.84
482.574	7437.2
482.778	7431.05
482.983	7656.33
483.187	7504.78
483.391	7453.58
483.595	7398.29
483.8	7029.65
484.004	7338.9
484.208	7547.79
484.412	7357.33
484.616	7480.21
484.821	7611.28
485.025	7250.83
485.229	7429.01
485.433	7302.03
485.637	7367.57
485.841	7429.01
486.045	7248.79
486.249	7422.86
486.453	7320.46
486.657	7445.39
486.861	7371.66
487.065	7334.8
487.269	7392.14
487.473	7218.07
487.677	7474.06
487.881	7373.71
488.085	7316.37
488.289	7390.1
488.493	7287.7
488.697	7508.88
488.901	7529.36
489.105	7291.79
489.309	7535.5
489.512	7562.12
489.716	7386
489.92	7375.76
490.124	7488.4
490.328	7547.79
490.531	7699.34
490.735	7560.08
490.939	7758.73
491.143	7517.07
491.346	7515.02
491.55	7758.73
491.754	7734.15
491.958	7711.63
492.161	7775.11
492.365	7867.27
492.569	7844.74
492.772	7854.98
492.976	7807.88
493.18	7924.62
493.383	8014.73
493.587	8199.04
493.79	8170.37
493.994	8106.88
494.197	8285.06
494.401	8166.28
494.605	8270.72
494.808	8379.26
495.012	8438.66
495.215	8514.43
495.419	8467.33
495.622	8395.65
495.825	8582.01
496.029	8727.42
496.232	8860.54
496.436	8864.63
496.639	9003.89
496.843	8760.19
497.046	9137.01
497.249	9317.23
497.453	9272.18
497.656	9274.23
497.859	9474.93
498.063	9558.89
498.266	9841.51
498.469	9640.81
498.673	9905
498.876	9956.2
499.079	10122.09
499.282	10132.33
499.485	10386.27
499.689	10259.3
499.892	10431.33
500.095	10242.92
500.298	10890.07
500.501	10634.08
500.705	10898.27
500.908	11285.33
501.111	11254.61
501.314	10998.62
501.517	11346.77
501.72	11639.63
501.923	11299.67
502.126	11959.11
502.329	11875.15
502.532	11912.01
502.735	12118.86
502.938	12454.72
503.141	12264.26
503.344	12897.08
503.547	12544.83
503.75	12884.8
503.953	12909.37
504.156	13210.42
504.359	13501.23
504.562	13220.66
504.765	13701.93
504.968	13882.16
505.17	13978.41
505.373	14228.26
505.576	14238.5
505.779	14469.92
505.982	14617.38
506.185	14822.17
506.387	14783.26
506.59	15039.26
506.793	15373.08
506.996	15362.84
507.198	15633.17
507.401	15725.33
507.604	15770.38
507.807	16345.86
508.009	16360.2
508.212	16421.64
508.415	16728.83
508.617	17027.84
508.82	17015.55
509.022	16886.53
509.225	17183.48
509.428	17521.4
509.63	17697.52
509.833	17597.17
510.035	17791.73
510.238	18129.64
510.44	18371.3
510.643	18707.17
510.845	18772.71
511.048	18719.46
511.25	19032.8
511.453	19323.61
511.655	19942.1
511.858	19843.79
512.06	19815.12
512.262	20026.06
512.465	19782.35
512.667	20560.58
512.87	20986.56
513.072	20660.93
513.274	21072.57
513.477	21322.43
513.679	21551.8
513.881	21842.61
514.084	22192.81
514.286	21932.72
514.488	22188.72
514.69	22938.27
514.893	22706.85
515.095	22717.09
515.297	23411.35
515.499	23368.35
515.701	24197.77
515.904	23782.04
516.106	23892.63
516.308	24441.48
516.51	24519.31
516.712	24435.34
516.914	24941.19
517.116	25207.42
517.318	25016.96
517.52	25389.69
517.722	25862.77
517.925	26034.8
518.127	26534.51
518.329	26362.48
518.531	26491.5
518.733	26864.23
518.935	27253.34
519.136	27413.09
519.338	27677.27
519.54	28117.59
519.742	28097.11
519.944	28318.29
520.146	28645.96
520.348	28852.81
520.55	28908.1
520.752	28840.52
520.954	29604.41
521.155	29506.11
521.357	29807.16
521.559	30313.01
521.761	30337.59
521.963	30652.97
522.164	30429.74
522.366	31154.72
522.568	31330.85
522.77	31353.38
522.971	31726.11
523.173	31478.3
523.375	31611.42
523.576	31980.06
523.778	32080.41
523.98	32492.05
524.181	32500.24
524.383	32440.85
524.584	32985.61
524.786	32893.45
524.988	32678.41
525.189	33563.14
525.391	33737.21
525.592	33591.81
525.794	33763.84
525.995	33722.88
526.197	33653.25
526.398	34062.84
526.6	34185.72
526.801	34550.26
527.003	34683.37
527.204	34640.37
527.406	34882.03
527.607	34976.23
527.808	35029.48
528.01	34519.54
528.211	34984.43
528.412	35594.72
528.614	35273.19
528.815	35312.1
529.016	35625.44
529.218	35533.28
529.419	35885.53
529.62	35695.07
529.822	35523.04
530.023	35797.47
530.224	35482.08
530.425	35686.88
530.626	35641.82
530.828	35312.1
531.029	36473.3
531.23	35652.06
531.431	35865.05
531.632	36145.62
531.833	36446.68
532.035	36004.31
532.236	36706.77
532.437	36461.01
532.638	36280.79
532.839	36329.94
533.04	36516.31
533.241	35850.72
533.442	36839.89
533.643	36694.48
533.844	36504.02
534.045	36733.39
534.246	36368.85
534.447	36878.8
534.648	36569.55
534.849	36487.64
535.05	36075.99
535.251	36401.62
535.451	36653.52
535.652	36858.32
535.853	36712.91
536.054	36547.03
536.255	37054.92
536.456	36762.06
536.657	37233.1
536.857	36286.93
537.058	36649.42
537.259	36479.44
537.46	36583.89
537.66	36526.55
537.861	36547.03
538.062	36587.99
538.263	36825.55
538.463	36311.51
538.664	36823.5
538.865	36684.24
539.065	36880.85
539.266	36401.62
539.466	37169.61
539.667	36458.96
539.868	36667.86
540.068	36768.21
540.269	36389.33
540.469	36706.77
540.67	36635.09
540.87	36319.7
541.071	36608.47
541.271	36807.12
541.472	36620.75
541.672	36190.68
541.873	36123.1
542.073	36041.18
542.274	36516.31
542.474	36491.73
542.675	36041.18
542.875	36438.48
543.075	36602.32
543.276	36037.08
543.476	36745.68
543.676	36248.02
543.877	36684.24
544.077	36336.09
544.277	36145.62
544.478	36190.68
544.678	36221.4
544.878	36561.36
545.078	36252.12
545.279	36049.37
545.479	35809.76
545.679	36491.73
545.879	36252.12
546.079	36147.67
546.28	36293.08
546.48	36032.99
546.68	36422.1
546.88	36315.61
547.08	36143.58
547.28	36264.41
547.48	35707.36
547.68	36506.07
547.88	35820
548.081	36151.77
548.281	36420.05
548.481	36092.38
548.681	36411.86
548.881	36112.86
549.081	36045.27
549.28	36110.81
549.48	36125.14
549.68	36043.23
549.88	36346.33
550.08	35770.85
550.28	36205.02
550.48	35955.16
550.68	36039.13
550.88	35836.38
551.08	35783.13
551.279	36092.38
551.479	35815.9
551.679	35807.71
551.879	35627.49
552.079	36286.93
552.278	36045.27
552.478	35287.53
552.678	35944.92
552.878	36129.24
553.077	35639.78
553.277	35594.72
553.477	35971.55
553.676	35992.03
553.876	35832.29
554.076	35545.57
554.275	35561.95
554.475	35373.54
554.674	35645.92
554.874	35551.71
555.074	35609.06
555.273	35520.99
555.473	35234.28
555.672	35650.02
555.872	35168.74
556.071	35277.29
556.271	35265
556.47	35252.71
556.67	34873.84
556.869	35133.93
557.068	35267.05
557.268	35131.88
557.467	35062.25
557.667	35062.25
557.866	35273.19
558.065	35011.05
558.265	34972.14
558.464	34959.85
558.663	35285.48
558.863	34742.77
559.062	35217.89
559.261	34687.47
559.461	35084.78
559.66	34314.74
559.859	34867.69
560.058	34277.88
560.258	34537.97
560.457	34255.35
560.656	35037.67
560.855	34398.71
561.054	34763.25
561.253	34284.02
561.453	34175.48
561.652	34294.26
561.851	34398.71
562.05	33997.31
562.249	33841.66
562.448	34208.25
562.647	33980.92
562.846	34054.65
563.045	33780.22
563.244	33513.98
563.443	34005.5
563.642	33591.81
563.841	33726.97
564.04	33493.5
564.239	33864.19
564.438	33423.87
564.637	33614.34
564.836	33542.66
565.035	33100.29
565.234	33356.29
565.432	33114.63
565.631	33219.08
565.83	33014.28
566.029	33145.35
566.228	32813.58
566.427	32891.4
566.625	32918.03
566.824	32631.31
567.023	32924.17
567.222	32197.14
567.42	32702.99
567.619	32623.12
567.818	32475.66
568.016	32207.38
568.215	32522.77
568.414	32061.97
568.612	32631.31
568.811	31949.34
569.01	32184.85
569.208	31810.07
569.407	32258.58
569.605	31580.7
569.804	32104.98
570.002	31681.05
570.201	31912.47
570.4	31607.33
570.598	31271.46
570.797	31459.87
570.995	31513.12
571.193	31171.11
571.392	31541.79
571.59	31140.39
571.789	31105.57
571.987	30855.72
572.186	30999.08
572.384	30605.87
572.582	30880.3
572.781	31136.29
572.979	30587.44
573.177	30929.45
573.376	30581.29
573.574	30370.35
573.772	30583.34
573.971	30231.09
574.169	30095.92
574.367	30298.67
574.565	30546.48
574.763	30085.68
574.962	29991.48
575.16	29549.12
575.358	29764.15
575.556	29565.5
575.754	29950.52
575.952	29282.88
576.151	29821.5
576.349	29336.13
576.547	29299.26
576.745	29469.25
576.943	29049.41
577.141	29028.93
577.339	29284.93
577.537	28918.34
577.735	28914.25
577.933	28846.66
578.131	28994.12
578.329	28742.22
578.527	28742.22
578.725	28508.75
578.923	28607.05
579.121	28607.05
579.319	28463.69
579.516	28461.65
579.714	28641.87
579.912	27933.27
580.11	28140.11
580.308	28029.52
580.506	28054.1
580.704	27664.99
580.901	27959.89
581.099	28166.74
581.297	27523.68
581.495	27525.72
581.692	27705.95
581.89	27374.17
582.088	27443.81
582.285	27333.21
582.483	27443.81
582.681	27406.94
582.878	27095.65
583.076	27046.5
583.274	27226.72
583.471	26901.09
583.669	26931.81
583.866	26888.81
584.064	27079.27
584.262	26503.79
584.459	26935.91
584.657	26268.27
584.854	26763.88
585.052	26098.29
585.249	26270.32
585.447	26389.1
585.644	26098.29
585.841	26290.8
586.039	26489.45
586.236	25694.84
586.434	25813.62
586.631	25969.27
586.828	25674.36
587.026	25657.98
587.223	25795.19
587.42	25700.98
587.618	25576.06
587.815	25270.91
588.012	25236.09
588.21	24885.89
588.407	25498.23
588.604	24976
588.801	24869.51
588.999	24793.73
589.196	24875.65
589.393	24963.72
589.59	24670.86
589.787	24478.35
589.984	24621.7
590.182	24119.95
590.379	24568.46
590.576	24359.56
590.773	24822.41
590.97	24398.48
591.167	24492.68
591.364	24017.55
591.561	24003.22
591.758	23931.54
591.955	23947.92
592.152	23765.65
592.349	23392.92
592.546	23990.93
592.743	23923.35
592.94	23454.36
593.137	23554.71
593.334	23642.78
593.531	23407.26
593.727	23503.51
593.924	23341.72
594.121	23272.09
594.318	23272.09
594.515	22882.98
594.712	23059.1
594.908	22682.28
595.105	22891.17
595.302	22577.83
595.499	22878.88
595.696	22643.37
595.892	22424.23
596.089	22461.1
596.286	22696.61
596.482	22522.54
596.679	22469.29
596.876	22444.71
597.072	22022.83
597.269	22250.16
597.466	22004.4
597.662	21877.43
597.859	21920.43
598.055	21985.97
598.252	21869.23
598.448	21805.75
598.645	21719.73
598.841	21803.7
599.038	21701.3
599.234	21512.89
599.431	21541.56
599.627	21269.18
599.824	21285.56
600.02	21066.43
600.217	21299.9
600.413	21013.18
600.609	21076.67
600.806	20839.11
601.002	21119.68
601.198	21066.43
601.395	20867.78
601.591	20423.37
601.787	20544.2
601.984	20566.73
602.18	20687.56
602.376	20310.73
602.572	20058.83
602.769	20241.1
602.965	20286.15
603.161	20220.62
603.357	20187.85
603.553	20136.65
603.75	20144.84
603.946	19956.43
604.142	20024.01
604.338	19600.08
604.534	20126.41
604.73	19929.81
604.926	19639
605.122	19448.54
605.318	19534.55
605.514	19376.86
605.71	19598.04
605.906	19284.7
606.102	19374.81
606.298	19378.9
606.494	18981.6
606.69	19266.27
606.886	19268.31
607.082	18895.58
607.278	18995.93
607.474	18567.91
607.67	18997.98
607.866	18846.43
608.062	19055.33
608.257	18727.65
608.453	18502.37
608.649	18875.1
608.845	18469.61
609.041	18641.64
609.236	18531.05
609.432	18635.49
609.628	18756.32
609.824	18340.58
610.019	18359.02
610.215	18531.05
610.411	18690.79
610.606	17898.22
610.802	18238.19
610.998	18477.8
611.193	18119.4
611.389	18090.73
611.584	18180.84
611.78	18203.37
611.976	18047.72
612.171	17974
612.367	18000.62
612.562	17836.78
612.758	17648.37
612.953	17625.84
613.149	17793.78
613.344	17763.06
613.539	17492.73
613.735	17769.2
613.93	17763.06
614.126	17386.23
614.321	17875.7
614.517	17339.13
614.712	17351.42
614.907	17355.51
615.103	17691.38
615.298	17206.01
615.493	17488.63
615.688	17228.54
615.884	17480.44
616.079	17302.26
616.274	17197.82
616.47	17019.64
616.665	17285.88
616.86	17101.56
617.055	17101.56
617.25	16702.21
617.445	17044.22
617.641	16538.37
617.836	16990.97
618.031	16732.93
618.226	16777.98
618.421	16556.8
618.616	16853.76
618.811	16552.71
619.006	16691.97
619.201	16558.85
619.396	16286.47
619.591	16057.1
619.786	16241.42
619.981	16270.09
620.176	16268.04
620.371	15856.4
620.566	16311.05
620.761	15858.45
620.956	15919.89
621.151	15565.59
621.346	15764.24
621.541	15399.7
621.735	15688.46
621.93	15176.47
622.125	15303.45
622.32	15379.22
622.515	15125.27
622.709	14965.53
622.904	15031.07
623.099	14967.58
623.294	15055.64
623.488	14813.98
623.683	14672.67
623.878	14572.32
624.072	14627.62
624.267	14713.63
624.462	14396.2
624.656	14150.44
624.851	14433.06
625.046	13974.31
625.24	14099.24
625.435	13994.79
625.629	14054.19
625.824	13923.12
626.018	13873.96
626.213	13546.29
626.407	13828.91
626.602	13517.62
626.796	13660.98
626.991	13517.62
627.185	13546.29
627.38	13247.29
627.574	13368.12
627.768	13159.22
627.963	13112.12
628.157	12966.71
628.352	12956.47
628.546	12786.49
628.74	12993.34
628.935	12698.43
629.129	12819.26
629.323	12526.4
629.517	12761.92
629.712	12362.56
629.906	12538.69
630.1	12280.64
630.294	12387.14
630.489	12010.31
630.683	12233.54
630.877	12342.08
631.071	11895.63
631.265	12057.42
631.459	11746.12
631.653	12108.62
631.848	11795.28
632.042	11844.43
632.236	11725.65
632.43	11555.66
632.624	11629.39
632.818	11504.46
633.012	11420.5
633.206	11570
633.4	11508.56
633.594	11170.65
633.788	11178.84
633.982	11205.46
634.176	11248.47
634.369	11045.72
634.563	11041.62
634.757	10879.83
634.951	10920.79
635.145	10851.16
635.339	10652.51
635.533	10697.56
635.726	10640.22
635.92	10683.23
636.114	10568.54
636.308	10509.15
636.501	10400.61
636.695	10365.79
636.889	10273.64
637.083	10244.96
637.276	10421.09
637.47	10142.57
637.664	10091.37
637.857	10101.61
638.051	9988.97
638.244	10091.37
638.438	9814.89
638.632	9849.71
638.825	9675.63
639.019	9655.15
639.212	9735.02
639.406	9554.8
639.599	9634.67
639.793	9638.76
639.986	9145.2
640.18	9409.39
640.373	9325.43
640.567	9235.32
640.76	9087.86
640.954	9274.23
641.147	9245.55
641.34	8946.55
641.534	9007.99
641.727	8975.22
641.92	9061.24
642.114	8897.4
642.307	8868.73
642.5	8711.04
642.694	8756.09
642.887	8661.88
643.08	8739.71
643.273	8661.88
643.467	8405.89
643.66	8467.33
643.853	8473.47
644.046	8280.96
644.239	8139.65
644.432	8209.28
644.626	8317.83
644.819	8119.17
645.012	8307.59
645.205	7998.34
645.398	8092.55
645.591	7967.62
645.784	8063.88
645.977	7803.78
646.17	7797.64
646.363	7768.97
646.556	7920.52
646.749	7768.97
646.942	7828.36
647.135	7588.75
647.328	7603.08
647.521	7615.37
647.714	7312.27
647.907	7465.87
648.099	7254.93
648.292	7414.67
648.485	7230.35
648.678	7369.62
648.871	7216.02
649.064	7256.98
649.256	7156.63
649.449	7338.9
649.642	6972.31
649.835	7150.48
650.027	7156.63
650.22	7064.47
650.413	6851.48
650.605	6771.61
650.798	6794.14
650.991	6720.41
651.183	6849.43
651.376	6790.04
651.568	6749.08
651.761	6691.74
651.954	6685.59
652.146	6572.96
652.339	6636.44
652.531	6484.89
652.724	6402.97
652.916	6458.27
653.109	6503.32
653.301	6376.35
653.494	6484.89
653.686	6392.73
653.879	6339.49
654.071	6140.83
654.263	6146.98
654.456	6144.93
654.648	6136.74
654.84	6058.92
655.033	6130.59
655.225	5938.09
655.417	6116.26
655.61	5854.12
655.802	6075.3
655.994	5970.85
656.186	6026.15
656.379	5809.06
656.571	5858.21
656.763	5780.39
656.955	5780.39
657.148	5749.67
657.34	5766.06
657.532	5538.73
657.724	5589.93
657.916	5606.31
658.108	5591.98
658.3	5522.35
658.492	5487.53
658.684	5378.99
658.876	5338.03
659.068	5395.37
659.26	5237.68
659.452	5305.26
659.644	5346.22
659.836	5194.67
660.028	5385.13
660.22	5188.53
660.412	5206.96
660.604	5184.43
660.796	5137.33
660.988	5092.27
661.18	5036.98
661.372	4971.44
661.563	5127.09
661.755	4897.72
661.947	4965.3
662.139	4850.61
662.331	4903.86
662.522	4737.98
662.714	4789.17
662.906	4885.43
663.097	4717.5
663.289	4688.82
663.481	4703.16
663.673	4811.7
663.864	4666.3
664.056	4670.39
664.247	4590.52
664.439	4496.32
664.631	4539.32
664.822	4363.2
665.014	4514.75
665.205	4574.14
665.397	4455.36
665.588	4488.12
665.78	4449.21
665.971	4389.82
666.163	4494.27
666.354	4309.95
666.546	4268.99
666.737	4211.65
666.929	4209.6
667.12	4207.55
667.311	4234.18
667.503	4064.19
667.694	4146.11
667.885	4195.26
668.077	4105.15
668.268	4045.76
668.459	4121.54
668.651	3974.08
668.842	4127.68
669.033	3941.32
669.224	3978.18
669.416	4045.76
669.607	3847.11
669.798	3873.73
669.989	3951.56
670.18	3838.92
670.371	3904.45
670.563	3744.71
670.754	3943.36
670.945	3765.19
671.136	3787.72
671.327	3736.52
671.518	3765.19
671.709	3625.93
671.9	3652.55
672.091	3638.22
672.282	3632.07
672.473	3523.53
672.664	3621.83
672.855	3529.67
673.046	3503.05
673.237	3494.86
673.428	3535.82
673.619	3523.53
673.809	3515.34
674	3423.18
674.191	3507.15
674.382	3582.92
674.573	3451.85
674.764	3419.08
674.954	3312.59
675.145	3285.97
675.336	3341.26
675.527	3339.21
675.717	3306.45
675.908	3308.49
676.099	3316.69
676.289	3331.02
676.48	3367.88
676.671	3259.34
676.861	3326.93
677.052	3288.01
677.243	3165.14
677.433	3163.09
677.624	3167.18
677.814	3218.38
678.005	3199.95
678.195	3167.18
678.386	3269.58
678.576	3187.66
678.767	3062.74
678.957	3040.21
679.148	3005.39
679.338	3122.13
679.529	3044.31
679.719	3009.49
679.909	3040.21
680.1	3050.45
680.29	3056.59
680.481	2989.01
680.671	2943.96
680.861	2991.06
681.052	3105.74
681.242	3011.54
681.432	2974.67
681.622	2941.91
681.813	2831.32
682.003	2911.19
682.193	2976.72
682.383	2870.23
682.573	2841.56
682.764	2722.77
682.954	2735.06
683.144	2837.46
683.334	2886.61
683.524	2786.26
683.714	2839.51
683.904	2900.95
684.094	2798.55
684.284	2737.11
684.474	2798.55
684.664	2741.21
684.854	2806.74
685.044	2745.3
685.234	2763.73
685.424	2798.55
685.614	2776.02
685.804	2771.93
685.994	2808.79
686.184	2690.01
686.374	2700.25
686.564	2683.86
686.753	2724.82
686.943	2501.59
687.133	2690.01
687.323	2567.13
687.513	2638.81
687.702	2677.72
687.892	2661.34
688.082	2589.66
688.272	2618.33
688.461	2694.1
688.651	2673.62
688.841	2542.55
689.03	2505.69
689.22	2700.25
689.41	2544.6
689.599	2540.51
689.789	2556.89
689.979	2651.1
690.168	2542.55
690.358	2515.93
690.547	2603.99
690.737	2577.37
690.926	2581.46
691.116	2391
691.305	2454.49
691.495	2497.5
691.684	2474.97
691.874	2517.98
692.063	2458.59
692.252	2384.86
692.442	2452.44
692.631	2409.44
692.82	2419.68
693.01	2442.2
693.199	2399.2
693.388	2304.99
693.578	2362.33
693.767	2362.33
693.956	2384.86
694.146	2311.13
694.335	2393.05
694.524	2446.3
694.713	2380.76
694.902	2280.41
695.092	2517.98
695.281	2360.28
695.47	2479.07
695.659	2171.87
695.848	2417.63
696.037	2360.28
696.226	2391
696.415	2278.37
696.604	2354.14
696.793	2384.86
696.982	2401.24
697.171	2227.17
697.36	2337.76
697.549	2345.95
697.738	2280.41
697.927	2286.56
698.116	2325.47
698.305	2261.98
698.494	2243.55
698.683	2278.37
698.872	2286.56
699.061	2282.46
699.25	2180.06
699.438	2245.6
699.627	2218.97
699.816	2178.01
700.005	2319.32
700.193	2261.98
700.382	2354.14
700.571	2231.26
700.76	2290.65
700.948	2237.41
701.137	2180.06
701.326	2188.25
701.514	2161.63
701.703	2108.38
701.892	2171.87
702.08	2280.41
702.269	2229.21
702.457	2098.14
702.646	2143.2
702.834	2167.77
703.023	2245.6
703.212	2227.17
703.4	2143.2
703.589	2085.86
703.777	2241.5
703.965	2206.69
704.154	2143.2
704.342	2157.54
704.531	2055.14
704.719	2132.96
704.907	2110.43
705.096	2114.53
705.284	2087.9
705.472	2096.1
705.661	2108.38
705.849	2089.95
706.037	2083.81
706.226	2038.75
706.414	2130.91
706.602	2077.66
706.79	2028.51
706.979	2030.56
707.167	1999.84
707.355	1983.46
707.543	1960.93
707.731	2036.7
707.919	2094.05
708.107	1993.7
708.296	2057.18
708.484	1893.35
708.672	2065.38
708.86	1960.93
709.048	2028.51
709.236	2012.13
709.424	2077.66
709.612	2094.05
709.8	1924.07
709.988	1891.3
710.176	1881.06
710.364	1922.02
710.551	1956.83
710.739	1924.07
710.927	2008.03
711.115	1893.35
711.303	1903.59
711.491	2010.08
711.679	2012.13
711.866	1856.48
712.054	1876.96
712.242	1897.44
712.43	1856.48
712.617	1844.2
712.805	1870.82
712.993	1897.44
713.181	1887.2
713.368	1948.64
713.556	1840.1
713.744	1876.96
713.931	1799.14
714.119	1846.24
714.306	1960.93
714.494	1739.75
714.682	1770.47
714.869	1901.54
715.057	1807.33
715.244	1825.76
715.432	1764.33
715.619	1809.38
715.807	1790.95
715.994	1706.98
716.182	1799.14
716.369	1739.75
716.556	1766.37
716.744	1602.54
716.931	1676.26
717.119	1784.8
717.306	1713.13
717.493	1774.56
717.681	1754.09
717.868	1666.02
718.055	1741.8
718.242	1641.45
718.43	1586.15
718.617	1682.41
718.804	1737.7
718.991	1674.21
719.179	1666.02
719.366	1625.06
719.553	1592.3
719.74	1672.17
719.927	1672.17
720.114	1643.49
720.301	1555.43
720.488	1555.43
720.676	1620.97
720.863	1557.48
721.05	1618.92
721.237	1672.17
721.424	1522.66
721.611	1606.63
721.798	1534.95
721.985	1571.82
722.172	1537
722.358	1559.53
722.545	1557.48
722.732	1512.42
722.919	1502.19
723.106	1524.71
723.293	1475.56
723.48	1524.71
723.667	1473.51
723.853	1551.34
724.04	1559.53
724.227	1491.95
724.414	1526.76
724.6	1491.95
724.787	1526.76
724.974	1512.42
725.161	1516.52
725.347	1561.58
725.534	1504.23
725.72	1467.37
725.907	1483.75
726.094	1584.1
726.28	1545.19
726.467	1528.81
726.653	1496.04
726.84	1520.62
727.027	1485.8
727.213	1399.79
727.4	1422.31
727.586	1467.37
727.773	1401.83
727.959	1504.23
728.145	1391.59
728.332	1436.65
728.518	1356.78
728.705	1586.15
728.891	1338.35
729.077	1405.93
729.264	1453.03
729.45	1405.93
729.636	1387.5
729.823	1350.64
730.009	1479.66
730.195	1393.64
730.382	1467.37
730.568	1342.44
730.754	1328.11
730.94	1379.31
731.126	1317.87
731.313	1344.49
731.499	1356.78
731.685	1434.6
731.871	1381.35
732.057	1428.46
732.243	1354.73
732.429	1399.79
732.615	1389.55
732.801	1381.35
732.987	1397.74
733.173	1258.48
733.359	1375.21
733.545	1434.6
733.731	1379.31
733.917	1328.11
734.103	1410.03
734.289	1395.69
734.475	1223.66
734.661	1266.67
734.847	1285.1
735.033	1321.96
735.219	1362.92
735.404	1262.57
735.59	1303.53
735.776	1340.4
735.962	1256.43
736.148	1297.39
736.333	1299.44
736.519	1272.81
736.705	1254.38
736.89	1289.2
737.076	1270.76
737.262	1270.76
737.447	1270.76
737.633	1211.37
737.819	1180.65
738.004	1172.46
738.19	1270.76
738.375	1194.99
738.561	1324.01
738.747	1256.43
738.932	1223.66
739.118	1168.37
739.303	1240.05
739.489	1287.15
739.674	1231.85
739.859	1141.74
740.045	1158.13
740.23	1194.99
740.416	1074.16
740.601	1264.62
740.786	1113.07
740.972	1108.98
741.157	1184.75
741.342	1172.46
741.528	1143.79
741.713	1197.04
741.898	1100.78
742.084	1154.03
742.269	1221.61
742.454	1231.85
742.639	1125.36
742.824	1160.17
743.01	1086.45
743.195	1111.02
743.38	1086.45
743.565	1149.93
743.75	1059.82
743.935	1106.93
744.12	1209.33
744.305	1051.63
744.49	1090.54
744.675	1088.5
744.86	1131.5
745.045	1156.08
745.23	1121.26
745.415	1117.17
745.6	1084.4
745.785	1082.35
745.97	1043.44
746.155	1059.82
746.34	1059.82
746.525	1063.92
746.71	1096.69
746.895	1025.01
747.079	1049.58
747.264	1051.63
747.449	1020.91
747.634	959.47
747.819	918.51
748.003	910.32
748.188	1002.48
748.373	979.95
748.557	1008.62
748.742	988.14
748.927	1008.62
749.111	922.61
749.296	934.9
749.481	969.71
749.665	959.47
749.85	1037.3
750.034	936.95
750.219	900.08
750.404	936.95
750.588	889.84
750.773	828.4
750.957	951.28
751.141	895.99
751.326	861.17
751.51	869.36
751.695	918.51
751.879	910.32
752.064	893.94
752.248	861.17
752.432	895.99
752.617	885.75
752.801	846.84
752.985	893.94
753.17	846.84
753.354	797.68
753.538	889.84
753.722	799.73
753.907	795.64
754.091	820.21
754.275	852.98
754.459	795.64
754.643	762.87
754.828	838.64
755.012	783.35
755.196	799.73
755.38	908.27
755.564	748.53
755.748	812.02
755.932	746.48
756.116	824.31
756.3	824.31
756.484	726
756.668	744.44
756.852	803.83
757.036	656.37
757.22	744.44
757.404	689.14
757.588	769.01
757.772	719.86
757.956	738.29
758.14	705.53
758.323	723.96
758.507	728.05
758.691	701.43
758.875	723.96
759.059	666.61
759.242	695.29
759.426	695.29
759.61	650.23
759.794	642.04
759.977	631.8
760.161	631.8
760.345	629.75
760.528	680.95
760.712	674.81
760.895	670.71
761.079	664.57
761.263	691.19
761.446	674.81
761.63	650.23
761.813	648.18
761.997	650.23
762.18	615.41
762.364	648.18
762.547	613.37
762.731	609.27
762.914	644.09
763.098	576.5
763.281	631.8
763.464	617.46
763.648	601.08
763.831	674.81
764.015	560.12
764.198	623.61
764.381	660.47
764.564	564.22
764.748	656.37
764.931	656.37
765.114	621.56
765.297	568.31
765.481	570.36
765.664	617.46
765.847	594.93
766.03	578.55
766.213	568.31
766.397	551.93
766.58	613.37
766.763	553.98
766.946	556.02
767.129	529.4
767.312	582.65
767.495	582.65
767.678	599.03
767.861	537.59
768.044	541.69
768.227	590.84
768.41	508.92
768.593	576.5
768.776	558.07
768.959	535.54
769.142	547.83
769.324	539.64
769.507	580.6
769.69	627.7
769.873	556.02
770.056	527.35
770.239	627.7
770.421	619.51
770.604	564.22
770.787	541.69
770.97	490.49
771.152	599.03
771.335	498.68
771.518	422.91
771.7	615.41
771.883	574.46
772.066	431.1
772.248	461.82
772.431	451.58
772.613	476.15
772.796	558.07
772.978	537.59
773.161	533.5
773.343	472.06
773.526	513.02
773.708	523.26
773.891	394.23
774.073	502.78
774.256	467.96
774.438	451.58
774.621	388.09
774.803	465.91
774.985	398.33
775.168	488.44
775.35	515.06
775.532	500.73
775.715	429.05
775.897	373.75
776.079	451.58
776.261	549.88
776.444	453.63
776.626	455.67
776.808	398.33
776.99	437.24
777.173	459.77
777.355	402.43
777.537	476.15
777.719	455.67
777.901	396.28
778.083	422.91
778.265	353.27
778.447	429.05
778.629	404.47
778.811	375.8
778.993	375.8
779.175	375.8
779.357	406.52
779.539	326.65
779.721	392.19
779.903	408.57
780.085	443.39
780.267	381.95
780.449	332.79
780.631	400.38
780.812	435.19
780.994	383.99
781.176	340.99
781.358	377.85
781.54	304.12
781.721	328.7
781.903	386.04
782.085	314.36
782.267	363.51
782.448	402.43
782.63	263.16
782.812	328.7
782.993	392.19
783.175	320.51
783.357	283.64
783.538	304.12
783.72	392.19
783.901	304.12
784.083	326.65
784.264	351.23
784.446	359.42
784.627	326.65
784.809	320.51
784.99	271.36
785.172	314.36
785.353	336.89
785.535	254.97
785.716	267.26
785.897	330.75
786.079	234.49
786.26	267.26
786.441	343.03
786.623	248.83
786.804	324.6
786.985	330.75
787.167	306.17
787.348	287.74
787.529	261.12
787.71	277.5
787.891	316.41
788.073	318.46
788.254	279.55
788.435	334.84
788.616	214.01
788.797	289.79
788.978	228.35
789.159	236.54
789.34	244.73
789.522	214.01
789.703	265.21
789.884	203.77
790.065	283.64
790.246	244.73
790.427	248.83
790.607	273.4
790.788	269.31
790.969	216.06
791.15	199.68
791.331	236.54
791.512	209.92
791.693	228.35
791.874	279.55
792.054	240.64
792.235	205.82
792.416	209.92
792.597	283.64
792.778	246.78
792.958	201.72
793.139	201.72
793.32	265.21
793.5	205.82
793.681	275.45
793.862	199.68
794.042	267.26
794.223	168.96
794.404	197.63
794.584	123.9
794.765	207.87
794.945	220.16
795.126	183.29
795.306	197.63
795.487	254.97
795.667	228.35
795.848	279.55
796.028	207.87
796.209	207.87
796.389	177.15
796.57	168.96
796.75	201.72
796.93	177.15
797.111	173.05
797.291	173.05
797.471	205.82
797.652	189.44
797.832	173.05
798.012	238.59
798.192	244.73
798.373	152.57
798.553	205.82
798.733	185.34
798.913	201.72
799.093	203.77
799.274	226.3
799.454	238.59
799.634	205.82
799.814	166.91
799.994	101.37
800.174	130.05
800.354	160.77
800.534	132.09
800.714	164.86
800.894	168.96
801.074	91.13
801.254	191.49
801.434	171.01
801.614	150.53
801.794	140.29
801.974	293.88
802.154	134.14
802.334	187.39
802.514	134.14
802.693	156.67
802.873	132.09
803.053	189.44
803.233	201.72
803.413	224.25
803.592	144.38
803.772	93.18
803.952	158.72
804.131	132.09
804.311	177.15
804.491	158.72
804.67	125.95
804.85	144.38
805.03	162.81
805.209	160.77
805.389	68.61
805.568	162.81
805.748	134.14
805.928	191.49
806.107	164.86
806.287	103.42
806.466	156.67
806.646	146.43
806.825	185.34
807.004	97.28
807.184	144.38
807.363	160.77
807.543	173.05
807.722	80.89
807.901	107.52
808.081	107.52
808.26	97.28
808.439	248.83
808.619	130.05
808.798	123.9
808.977	99.33
809.156	171.01
809.336	136.19
809.515	132.09
809.694	78.85
809.873	82.94
810.052	136.19
810.231	111.61
810.411	130.05
810.59	132.09
810.769	162.81
810.948	87.04
811.127	121.85
811.306	156.67
811.485	115.71
811.664	177.15
811.843	134.14
812.022	128
812.201	218.11
812.38	132.09
812.559	121.85
812.737	56.32
812.916	74.75
813.095	138.24
813.274	123.9
813.453	66.56
813.632	70.65
813.811	199.68
813.989	99.33
814.168	105.47
814.347	70.65
814.526	115.71
814.704	107.52
814.883	203.77
815.062	95.23
815.24	150.53
815.419	44.03
815.598	115.71
815.776	60.42
815.955	168.96
816.133	70.65
816.312	148.48
816.49	121.85
816.669	125.95
816.847	99.33
817.026	72.7
817.204	74.75
817.383	117.76
817.561	134.14
817.74	111.61
817.918	70.65
818.097	68.61
818.275	70.65
818.453	107.52
818.632	84.99
818.81	44.03
818.988	93.18
819.167	115.71
819.345	123.9
819.523	-3.07
819.701	173.05
819.879	91.13
820.058	87.04
820.236	117.76
820.414	146.43
820.592	33.79
820.77	132.09
820.948	68.61
821.127	74.75
821.305	140.29
821.483	50.18
821.661	84.99
821.839	136.19
822.017	58.37
822.195	97.28
822.373	115.71
822.551	52.22
822.729	84.99
822.907	76.8
823.085	27.65
823.262	62.46
823.44	78.85
823.618	107.52
823.796	150.53
823.974	62.46
824.152	66.56
824.329	138.24
824.507	89.09
824.685	50.18
824.863	46.08
825.04	99.33
825.218	74.75
825.396	68.61
825.574	156.67
825.751	173.05
825.929	41.98
826.107	76.8
826.284	46.08
826.462	74.75
826.639	93.18
826.817	78.85
826.994	52.22
827.172	91.13
827.349	117.76
827.527	29.7
827.704	-33.79
827.882	48.13
828.059	91.13
828.237	-3.07
828.414	78.85
828.591	95.23
828.769	115.71
828.946	64.51
829.124	72.7
829.301	31.74
829.478	50.18
829.655	60.42
829.833	78.85
830.01	48.13
830.187	80.89
830.364	111.61
830.542	68.61
830.719	56.32
830.896	103.42
831.073	50.18
831.25	136.19
831.427	3.07
831.604	58.37
831.782	44.03
831.959	76.8
832.136	5.12
832.313	140.29
832.49	158.72
832.667	113.66
832.844	101.37
833.021	41.98
833.198	9.22
833.374	101.37
833.551	19.46
833.728	72.7
833.905	58.37
834.082	5.12
834.259	89.09
834.436	101.37
834.612	101.37
834.789	72.7
834.966	-3.07
835.143	29.7
835.319	84.99
835.496	62.46
835.673	62.46
835.85	64.51
836.026	80.89
836.203	50.18
836.38	29.7
836.556	41.98
836.733	25.6
836.909	113.66
837.086	72.7
837.262	29.7
837.439	111.61
837.616	44.03
837.792	91.13
837.968	64.51
838.145	82.94
838.321	41.98
838.498	-33.79
838.674	107.52
838.851	52.22
839.027	58.37
839.203	78.85
839.38	25.6
839.556	80.89
839.732	33.79
839.909	87.04
840.085	-1.02
840.261	103.42
840.437	54.27
840.614	3.07
840.79	23.55
840.966	60.42
841.142	74.75
841.318	37.89
841.494	21.5
841.671	74.75
841.847	-23.55
842.023	82.94
842.199	76.8
842.375	52.22
842.551	41.98
842.727	62.46
842.903	35.84
843.079	48.13
843.255	78.85
843.431	66.56
843.607	39.94
843.783	64.51
843.959	37.89
844.134	72.7
844.31	25.6
844.486	1.02
844.662	60.42
844.838	27.65
845.013	60.42
845.189	21.5
845.365	19.46
845.541	54.27
845.716	95.23
845.892	60.42
846.068	35.84
846.244	33.79
846.419	21.5
846.595	15.36
846.77	68.61
846.946	21.5
847.122	70.65
847.297	3.07
847.473	99.33
847.648	21.5
847.824	56.32
847.999	41.98
848.175	33.79
848.35	87.04
848.526	99.33
848.701	15.36
848.876	50.18
849.052	66.56
849.227	74.75
849.403	58.37
849.578	27.65
849.753	-21.5
849.929	25.6
850.104	25.6
850.279	82.94
850.454	44.03
850.63	54.27
850.805	44.03
850.98	74.75
851.155	13.31
851.33	74.75
851.505	-25.6
851.681	78.85
851.856	44.03
852.031	15.36
852.206	87.04
852.381	60.42
852.556	60.42
852.731	109.57
852.906	25.6
853.081	-15.36
853.256	21.5
853.431	-9.22
853.606	-13.31
853.781	39.94
853.956	-37.89
854.131	66.56
854.305	66.56
854.48	1.02
854.655	-13.31
854.83	1.02
855.005	74.75
855.18	66.56
855.354	15.36
855.529	64.51
855.704	35.84
855.879	128
856.053	35.84
856.228	39.94
856.403	52.22
856.577	41.98
856.752	3.07
856.926	89.09
857.101	17.41
857.276	62.46
857.45	44.03
857.625	62.46
857.799	-35.84
857.974	44.03
858.148	-21.5
858.323	25.6
858.497	64.51
858.672	25.6
858.846	62.46
859.02	64.51
859.195	3.07
859.369	23.55
859.543	-58.37
859.718	82.94
859.892	70.65
860.066	74.75
860.241	-15.36
860.415	-19.46
860.589	9.22
860.763	70.65
860.938	-13.31
861.112	115.71
861.286	76.8
861.46	9.22
861.634	21.5
861.808	62.46
861.982	-3.07
862.157	5.12
862.331	23.55
862.505	19.46
862.679	41.98
862.853	41.98
863.027	3.07
863.201	93.18
863.375	15.36
863.549	64.51
863.722	56.32
863.896	29.7
864.07	105.47
864.244	82.94
864.418	7.17
864.592	87.04
864.766	-5.12
864.939	46.08
865.113	-62.46
865.287	35.84
865.461	-17.41
865.634	78.85
865.808	115.71
865.982	-5.12
866.156	68.61
866.329	82.94
866.503	-15.36
866.676	58.37
866.85	35.84
867.024	3.07
867.197	-70.65
867.371	58.37
867.544	-23.55
867.718	-37.89
867.891	23.55
868.065	19.46
868.238	-3.07
868.412	27.65
868.585	46.08
868.759	44.03
868.932	-21.5
869.105	-44.03
869.279	13.31
869.452	31.74
869.625	84.99
869.799	39.94
869.972	-33.79
870.145	9.22
870.319	-19.46
870.492	35.84
870.665	9.22
870.838	29.7
871.011	-31.74
871.185	60.42
871.358	97.28
871.531	50.18
871.704	-82.94
871.877	17.41
872.05	46.08
872.223	31.74
872.396	19.46
872.569	23.55
872.742	25.6
872.915	52.22
873.088	-5.12
873.261	52.22
873.434	89.09
873.607	11.26
873.78	11.26
873.953	-50.18
874.126	-11.26
874.299	111.61
874.471	52.22
874.644	9.22
874.817	27.65
874.99	58.37
875.163	35.84
875.335	46.08
875.508	-29.7
875.681	41.98
875.853	23.55
876.026	-3.07
876.199	15.36
876.371	74.75
876.544	41.98
876.717	33.79
876.889	64.51
877.062	62.46
877.234	17.41
877.407	-7.17
877.579	17.41
877.752	48.13
877.924	-9.22
878.097	-19.46
878.269	17.41
878.442	74.75
878.614	62.46
878.786	121.85
878.959	29.7
879.131	33.79
879.303	15.36
879.476	21.5
879.648	9.22
879.82	25.6
879.993	64.51
880.165	58.37
880.337	74.75
880.509	11.26
880.681	56.32
880.854	54.27
881.026	15.36
881.198	80.89
881.37	54.27
881.542	23.55
881.714	11.26
881.886	33.79
882.058	-19.46
882.23	56.32
882.402	-23.55
882.574	21.5
882.746	1.02
882.918	52.22
883.09	-48.13
883.262	33.79
883.434	11.26
883.606	44.03
883.778	-25.6
883.95	-23.55
884.122	27.65
884.293	-37.89
884.465	9.22
884.637	-9.22
884.809	-3.07
884.98	11.26
885.152	-23.55
885.324	25.6
885.496	-29.7
885.667	68.61
885.839	37.89
886.011	17.41
886.182	35.84
886.354	41.98
886.525	109.57
886.697	97.28
886.869	119.81
887.04	39.94
887.212	-3.07
887.383	54.27
887.555	80.89
887.726	-7.17
887.897	17.41
888.069	11.26
888.24	31.74
888.412	107.52
888.583	70.65
888.754	70.65
888.926	35.84
889.097	68.61
889.268	-37.89
889.44	33.79
889.611	-5.12
889.782	5.12
889.953	23.55
890.125	-31.74
890.296	-62.46
890.467	107.52
890.638	-25.6
890.809	44.03
890.98	91.13
891.151	58.37
891.323	25.6
891.494	7.17
891.665	-1.02
891.836	1.02
892.007	17.41
892.178	54.27
892.349	7.17
892.52	58.37
892.691	35.84
892.862	-37.89
893.032	-35.84
893.203	35.84
893.374	5.12
893.545	68.61
893.716	64.51
893.887	33.79
894.057	48.13
894.228	27.65
894.399	54.27
894.57	17.41
894.74	11.26
894.911	37.89
895.082	11.26
895.253	56.32
895.423	13.31
895.594	11.26
895.764	25.6
895.935	21.5
896.106	107.52
896.276	60.42
896.447	3.07
896.617	1.02
896.788	46.08
896.958	74.75
897.129	29.7
897.299	-25.6
897.47	31.74
897.64	48.13
897.81	25.6
897.981	25.6
898.151	5.12
898.322	41.98
898.492	-15.36
898.662	21.5
898.832	66.56
899.003	17.41
899.173	58.37
899.343	-15.36
899.513	84.99
