Data from USB4F104151__75__12-59-41-362.txt Node

Date: Fri Mar 14 12:59:41 EDT 2025
User: louis
Spectrometer: USB4F10415
Trigger mode: 4
Integration Time (sec): 1.000000E-2
Scans to average: 1
Electric dark correction enabled: true
Nonlinearity correction enabled: false
Boxcar width: 0
XAxis mode: Wavelengths
Number of Pixels in Spectrum: 3648
>>>>>Begin Spectral Data<<<<<
178.204	-5.29
178.424	-5.29
178.644	-5.29
178.864	-132.26
179.084	-21.67
179.304	-17.58
179.524	19.29
179.744	0.85
179.964	82.77
180.184	-103.59
180.404	29.52
180.624	-3.24
180.844	35.67
181.064	15.19
181.283	13.14
181.503	-62.63
181.723	-9.39
181.943	-31.91
182.163	21.33
182.383	-23.72
182.602	33.62
182.822	-40.11
183.042	-46.25
183.262	-70.83
183.482	-7.34
183.701	-44.2
183.921	-21.67
184.141	-40.11
184.361	-74.92
184.58	19.29
184.8	-27.82
185.02	-21.67
185.239	-79.02
185.459	-17.58
185.679	-36.01
185.898	-58.54
186.118	-11.43
186.338	0.85
186.557	-17.58
186.777	-21.67
186.997	-52.39
187.216	-19.63
187.436	4.95
187.655	-40.11
187.875	-58.54
188.095	-62.63
188.314	-7.34
188.534	-3.24
188.753	-5.29
188.973	-31.91
189.192	-44.2
189.412	-9.39
189.631	23.38
189.851	-68.78
190.07	23.38
190.29	-19.63
190.509	39.76
190.729	-17.58
190.948	-76.97
191.168	-25.77
191.387	17.24
191.607	-117.93
191.826	-13.48
192.045	-56.49
192.265	-15.53
192.484	-1.19
192.704	62.29
192.923	-7.34
193.142	-1.19
193.362	-33.96
193.581	-79.02
193.8	-85.16
194.02	-58.54
194.239	15.19
194.458	13.14
194.678	23.38
194.897	-91.31
195.116	-11.43
195.335	-17.58
195.555	-31.91
195.774	-3.24
195.993	7
196.212	25.43
196.432	-15.53
196.651	-27.82
196.87	11.09
197.089	-27.82
197.308	-29.87
197.528	-11.43
197.747	-7.34
197.966	11.09
198.185	27.48
198.404	-66.73
198.623	0.85
198.842	-23.72
199.062	29.52
199.281	-1.19
199.5	-50.35
199.719	9.05
199.938	52.05
200.157	52.05
200.376	-66.73
200.595	-48.3
200.814	-76.97
201.033	-38.06
201.252	-19.63
201.471	-31.91
201.69	-58.54
201.909	56.15
202.128	37.72
202.347	21.33
202.566	-1.19
202.785	-25.77
203.004	11.09
203.223	17.24
203.442	-31.91
203.661	7
203.879	-27.82
204.098	41.81
204.317	-64.68
204.536	25.43
204.755	-85.16
204.974	-9.39
205.193	-7.34
205.411	-19.63
205.63	2.9
205.849	-74.92
206.068	43.86
206.287	-3.24
206.505	-13.48
206.724	-11.43
206.943	-1.19
207.162	-44.2
207.381	-40.11
207.599	-54.44
207.818	-3.24
208.037	23.38
208.255	47.96
208.474	-23.72
208.693	-70.83
208.911	-19.63
209.13	19.29
209.349	17.24
209.567	-17.58
209.786	37.72
210.005	-15.53
210.223	29.52
210.442	-3.24
210.661	35.67
210.879	-29.87
211.098	-56.49
211.316	35.67
211.535	-17.58
211.753	-23.72
211.972	-21.67
212.191	-72.87
212.409	-81.07
212.628	-105.64
212.846	15.19
213.065	17.24
213.283	7
213.502	29.52
213.72	4.95
213.938	0.85
214.157	-60.59
214.375	-31.91
214.594	-42.15
214.812	82.77
215.031	11.09
215.249	-25.77
215.467	-27.82
215.686	4.95
215.904	2.9
216.122	-11.43
216.341	-21.67
216.559	-48.3
216.778	4.95
216.996	13.14
217.214	35.67
217.432	4.95
217.651	29.52
217.869	4.95
218.087	7
218.306	-42.15
218.524	11.09
218.742	-15.53
218.96	21.33
219.179	-33.96
219.397	33.62
219.615	-3.24
219.833	-33.96
220.051	-99.5
220.27	2.9
220.488	-36.01
220.706	62.29
220.924	-52.39
221.142	-7.34
221.36	-48.3
221.578	-56.49
221.796	-42.15
222.015	13.14
222.233	-44.2
222.451	4.95
222.669	-27.82
222.887	-11.43
223.105	54.1
223.323	-66.73
223.541	21.33
223.759	4.95
223.977	-50.35
224.195	-42.15
224.413	13.14
224.631	-23.72
224.849	-33.96
225.067	4.95
225.285	-13.48
225.503	-15.53
225.721	-68.78
225.939	-42.15
226.157	29.52
226.375	-3.24
226.592	52.05
226.81	-1.19
227.028	31.57
227.246	13.14
227.464	52.05
227.682	-60.59
227.9	-36.01
228.117	-42.15
228.335	0.85
228.553	4.95
228.771	37.72
228.989	13.14
229.206	-56.49
229.424	-23.72
229.642	17.24
229.86	-1.19
230.077	-27.82
230.295	-3.24
230.513	-11.43
230.731	-9.39
230.948	-13.48
231.166	-23.72
231.384	-29.87
231.601	35.67
231.819	-3.24
232.037	7
232.254	-97.45
232.472	-13.48
232.689	-25.77
232.907	29.52
233.125	2.9
233.342	-3.24
233.56	-58.54
233.777	-1.19
233.995	13.14
234.213	45.91
234.43	-40.11
234.648	-46.25
234.865	-23.72
235.083	-58.54
235.3	-27.82
235.518	29.52
235.735	-15.53
235.953	-9.39
236.17	-1.19
236.388	9.05
236.605	2.9
236.822	-83.11
237.04	7
237.257	-9.39
237.475	-7.34
237.692	-38.06
237.909	-11.43
238.127	-60.59
238.344	23.38
238.562	31.57
238.779	2.9
238.996	-15.53
239.214	-56.49
239.431	-19.63
239.648	-17.58
239.865	29.52
240.083	-81.07
240.3	-21.67
240.517	9.05
240.735	-29.87
240.952	27.48
241.169	-40.11
241.386	-9.39
241.603	21.33
241.821	-11.43
242.038	37.72
242.255	9.05
242.472	-23.72
242.689	-29.87
242.907	17.24
243.124	-60.59
243.341	56.15
243.558	-33.96
243.775	-33.96
243.992	-5.29
244.209	-9.39
244.426	-64.68
244.643	-19.63
244.86	-46.25
245.078	37.72
245.295	0.85
245.512	-25.77
245.729	-54.44
245.946	2.9
246.163	15.19
246.38	-29.87
246.597	-36.01
246.814	-9.39
247.031	62.29
247.248	37.72
247.464	-17.58
247.681	-5.29
247.898	-19.63
248.115	-3.24
248.332	-5.29
248.549	-27.82
248.766	-3.24
248.983	-7.34
249.2	-3.24
249.417	50
249.633	0.85
249.85	19.29
250.067	-31.91
250.284	-3.24
250.501	33.62
250.717	-1.19
250.934	70.48
251.151	-19.63
251.368	-27.82
251.585	21.33
251.801	27.48
252.018	25.43
252.235	-5.29
252.451	-38.06
252.668	0.85
252.885	23.38
253.102	-99.5
253.318	-42.15
253.535	39.76
253.752	90.96
253.968	54.1
254.185	13.14
254.401	7
254.618	0.85
254.835	-36.01
255.051	-36.01
255.268	-50.35
255.484	-9.39
255.701	17.24
255.917	2.9
256.134	-27.82
256.351	29.52
256.567	-19.63
256.784	39.76
257	-56.49
257.217	-42.15
257.433	-72.87
257.65	27.48
257.866	29.52
258.082	-83.11
258.299	-44.2
258.515	43.86
258.732	9.05
258.948	-21.67
259.165	27.48
259.381	-68.78
259.597	-50.35
259.814	-36.01
260.03	-19.63
260.246	-3.24
260.463	25.43
260.679	29.52
260.895	-13.48
261.112	-25.77
261.328	-1.19
261.544	-68.78
261.761	-48.3
261.977	25.43
262.193	-38.06
262.409	45.91
262.626	-3.24
262.842	29.52
263.058	-23.72
263.274	60.24
263.49	-50.35
263.707	54.1
263.923	-3.24
264.139	-52.39
264.355	-31.91
264.571	-7.34
264.787	-60.59
265.004	68.44
265.22	-56.49
265.436	27.48
265.652	-17.58
265.868	-52.39
266.084	2.9
266.3	56.15
266.516	-42.15
266.732	23.38
266.948	-40.11
267.164	-3.24
267.38	27.48
267.596	-66.73
267.812	9.05
268.028	-31.91
268.244	4.95
268.46	-44.2
268.676	-25.77
268.892	17.24
269.108	-7.34
269.324	-36.01
269.54	-44.2
269.756	4.95
269.972	0.85
270.188	-52.39
270.403	2.9
270.619	-9.39
270.835	50
271.051	7
271.267	-48.3
271.483	-1.19
271.698	-66.73
271.914	4.95
272.13	-1.19
272.346	-52.39
272.562	0.85
272.777	13.14
272.993	-36.01
273.209	21.33
273.425	-27.82
273.64	-17.58
273.856	-3.24
274.072	7
274.287	-11.43
274.503	-27.82
274.719	52.05
274.934	35.67
275.15	-3.24
275.366	2.9
275.581	15.19
275.797	-11.43
276.012	-50.35
276.228	-46.25
276.444	-31.91
276.659	66.39
276.875	-76.97
277.09	-54.44
277.306	-25.77
277.521	-5.29
277.737	7
277.952	13.14
278.168	19.29
278.383	7
278.599	-25.77
278.814	-25.77
279.03	-13.48
279.245	-27.82
279.461	-33.96
279.676	11.09
279.892	-36.01
280.107	-7.34
280.322	7
280.538	-56.49
280.753	-36.01
280.969	21.33
281.184	58.2
281.399	56.15
281.615	-1.19
281.83	-15.53
282.045	-52.39
282.26	-50.35
282.476	7
282.691	-23.72
282.906	25.43
283.122	-11.43
283.337	56.15
283.552	-15.53
283.767	-54.44
283.983	-3.24
284.198	-48.3
284.413	-1.19
284.628	25.43
284.843	-9.39
285.058	-36.01
285.274	9.05
285.489	-5.29
285.704	-42.15
285.919	-7.34
286.134	-7.34
286.349	-15.53
286.564	-42.15
286.779	4.95
286.995	9.05
287.21	2.9
287.425	7
287.64	9.05
287.855	-5.29
288.07	-60.59
288.285	0.85
288.5	-7.34
288.715	33.62
288.93	-54.44
289.145	15.19
289.36	-42.15
289.575	25.43
289.79	-9.39
290.004	-3.24
290.219	4.95
290.434	-50.35
290.649	-54.44
290.864	-36.01
291.079	-68.78
291.294	-50.35
291.509	25.43
291.724	-76.97
291.938	0.85
292.153	-7.34
292.368	19.29
292.583	13.14
292.798	-3.24
293.012	62.29
293.227	-72.87
293.442	-3.24
293.657	-15.53
293.871	-5.29
294.086	62.29
294.301	23.38
294.516	17.24
294.73	23.38
294.945	7
295.16	-33.96
295.374	-3.24
295.589	-68.78
295.804	-62.63
296.018	-56.49
296.233	35.67
296.447	-31.91
296.662	-25.77
296.877	-42.15
297.091	-74.92
297.306	-17.58
297.52	-1.19
297.735	-29.87
297.949	11.09
298.164	-48.3
298.378	54.1
298.593	21.33
298.807	-3.24
299.022	13.14
299.236	-23.72
299.451	-25.77
299.665	19.29
299.88	13.14
300.094	-23.72
300.309	15.19
300.523	-40.11
300.737	35.67
300.952	-13.48
301.166	-11.43
301.381	-33.96
301.595	23.38
301.809	0.85
302.024	78.68
302.238	-38.06
302.452	9.05
302.667	-72.87
302.881	45.91
303.095	0.85
303.309	-36.01
303.524	-23.72
303.738	21.33
303.952	-11.43
304.166	11.09
304.381	-95.4
304.595	-11.43
304.809	-33.96
305.023	-17.58
305.237	-3.24
305.452	39.76
305.666	-46.25
305.88	-5.29
306.094	-11.43
306.308	45.91
306.522	37.72
306.736	-15.53
306.95	-36.01
307.164	-9.39
307.379	-52.39
307.593	15.19
307.807	-17.58
308.021	33.62
308.235	-36.01
308.449	-36.01
308.663	41.81
308.877	-7.34
309.091	-46.25
309.305	-15.53
309.519	-42.15
309.733	-1.19
309.947	13.14
310.161	13.14
310.374	27.48
310.588	31.57
310.802	-46.25
311.016	-50.35
311.23	-5.29
311.444	-5.29
311.658	-25.77
311.872	37.72
312.085	-13.48
312.299	15.19
312.513	-27.82
312.727	-27.82
312.941	68.44
313.154	-62.63
313.368	19.29
313.582	50
313.796	-29.87
314.009	7
314.223	37.72
314.437	23.38
314.651	-3.24
314.864	25.43
315.078	-42.15
315.292	-42.15
315.505	-54.44
315.719	15.19
315.933	-17.58
316.146	-23.72
316.36	-68.78
316.573	74.58
316.787	17.24
317.001	13.14
317.214	39.76
317.428	2.9
317.641	0.85
317.855	0.85
318.068	-7.34
318.282	21.33
318.495	-15.53
318.709	21.33
318.922	-36.01
319.136	21.33
319.349	37.72
319.563	-25.77
319.776	21.33
319.99	-101.55
320.203	-66.73
320.417	23.38
320.63	-64.68
320.843	41.81
321.057	29.52
321.27	-9.39
321.483	-11.43
321.697	86.87
321.91	27.48
322.124	-7.34
322.337	-15.53
322.55	-38.06
322.763	-27.82
322.977	-40.11
323.19	64.34
323.403	-17.58
323.617	-3.24
323.83	-1.19
324.043	-9.39
324.256	33.62
324.469	-38.06
324.683	-15.53
324.896	13.14
325.109	27.48
325.322	-5.29
325.535	9.05
325.748	27.48
325.962	9.05
326.175	29.52
326.388	-9.39
326.601	-56.49
326.814	-40.11
327.027	17.24
327.24	-13.48
327.453	-36.01
327.666	-31.91
327.879	-25.77
328.092	-19.63
328.305	-11.43
328.518	9.05
328.731	-11.43
328.944	-70.83
329.157	13.14
329.37	-23.72
329.583	41.81
329.796	-40.11
330.009	45.91
330.222	-1.19
330.435	0.85
330.648	27.48
330.861	-62.63
331.073	-27.82
331.286	-36.01
331.499	-15.53
331.712	-27.82
331.925	29.52
332.138	-15.53
332.35	-58.54
332.563	15.19
332.776	76.63
332.989	-13.48
333.202	-27.82
333.414	-42.15
333.627	4.95
333.84	-11.43
334.053	31.57
334.265	-15.53
334.478	4.95
334.691	-25.77
334.903	-9.39
335.116	68.44
335.329	-15.53
335.541	39.76
335.754	4.95
335.966	21.33
336.179	-1.19
336.392	17.24
336.604	-56.49
336.817	-15.53
337.029	52.05
337.242	27.48
337.454	-19.63
337.667	-33.96
337.88	-38.06
338.092	-85.16
338.305	27.48
338.517	23.38
338.729	-19.63
338.942	-17.58
339.154	41.81
339.367	-19.63
339.579	39.76
339.792	43.86
340.004	-29.87
340.217	23.38
340.429	-56.49
340.641	-19.63
340.854	-11.43
341.066	-81.07
341.278	29.52
341.491	-11.43
341.703	2.9
341.915	4.95
342.128	-21.67
342.34	-36.01
342.552	-9.39
342.764	-21.67
342.977	-42.15
343.189	31.57
343.401	-3.24
343.613	-7.34
343.826	-7.34
344.038	-17.58
344.25	-11.43
344.462	17.24
344.674	-5.29
344.886	-1.19
345.099	-15.53
345.311	29.52
345.523	-42.15
345.735	2.9
345.947	-36.01
346.159	35.67
346.371	39.76
346.583	-44.2
346.795	13.14
347.007	2.9
347.219	-19.63
347.431	13.14
347.643	-1.19
347.855	58.2
348.067	15.19
348.279	29.52
348.491	-36.01
348.703	0.85
348.915	11.09
349.127	-36.01
349.339	2.9
349.551	25.43
349.763	-13.48
349.975	23.38
350.187	-48.3
350.399	-70.83
350.61	39.76
350.822	-21.67
351.034	27.48
351.246	-31.91
351.458	35.67
351.669	-3.24
351.881	29.52
352.093	13.14
352.305	4.95
352.517	7
352.728	7
352.94	-33.96
353.152	31.57
353.363	-46.25
353.575	-25.77
353.787	2.9
353.999	-50.35
354.21	-46.25
354.422	-21.67
354.633	-42.15
354.845	37.72
355.057	-19.63
355.268	-25.77
355.48	33.62
355.692	-60.59
355.903	0.85
356.115	11.09
356.326	-74.92
356.538	-17.58
356.749	13.14
356.961	35.67
357.172	-15.53
357.384	45.91
357.595	25.43
357.807	23.38
358.018	-27.82
358.23	-36.01
358.441	-27.82
358.653	-85.16
358.864	-76.97
359.075	-9.39
359.287	-52.39
359.498	31.57
359.709	-42.15
359.921	-74.92
360.132	43.86
360.344	52.05
360.555	-9.39
360.766	-50.35
360.977	-33.96
361.189	7
361.4	17.24
361.611	2.9
361.823	-36.01
362.034	-25.77
362.245	-11.43
362.456	-25.77
362.667	-87.21
362.879	-72.87
363.09	50
363.301	25.43
363.512	-3.24
363.723	4.95
363.935	-31.91
364.146	35.67
364.357	-54.44
364.568	-42.15
364.779	54.1
364.99	-83.11
365.201	-27.82
365.412	-74.92
365.623	7
365.834	-19.63
366.045	-21.67
366.256	13.14
366.467	43.86
366.678	50
366.889	-52.39
367.1	19.29
367.311	-9.39
367.522	47.96
367.733	-48.3
367.944	19.29
368.155	9.05
368.366	-25.77
368.577	13.14
368.788	-50.35
368.999	-70.83
369.209	-5.29
369.42	-27.82
369.631	68.44
369.842	-11.43
370.053	15.19
370.264	-3.24
370.474	47.96
370.685	11.09
370.896	-70.83
371.107	33.62
371.317	15.19
371.528	31.57
371.739	45.91
371.95	13.14
372.16	-25.77
372.371	62.29
372.582	-46.25
372.792	-42.15
373.003	-58.54
373.214	15.19
373.424	-11.43
373.635	-52.39
373.846	-11.43
374.056	-70.83
374.267	-56.49
374.477	7
374.688	0.85
374.898	-5.29
375.109	-21.67
375.319	-9.39
375.53	2.9
375.74	27.48
375.951	39.76
376.161	-87.21
376.372	43.86
376.582	-36.01
376.793	64.34
377.003	-15.53
377.214	4.95
377.424	-31.91
377.635	-17.58
377.845	-27.82
378.055	39.76
378.266	-99.5
378.476	27.48
378.686	-13.48
378.897	-19.63
379.107	29.52
379.317	-27.82
379.528	-7.34
379.738	-25.77
379.948	-48.3
380.158	25.43
380.369	39.76
380.579	-66.73
380.789	29.52
380.999	33.62
381.21	-60.59
381.42	-29.87
381.63	-21.67
381.84	23.38
382.05	56.15
382.261	-58.54
382.471	-19.63
382.681	7
382.891	39.76
383.101	9.05
383.311	-5.29
383.521	33.62
383.731	47.96
383.941	-40.11
384.151	35.67
384.361	-64.68
384.571	-13.48
384.781	-3.24
384.991	47.96
385.201	0.85
385.411	11.09
385.621	19.29
385.831	-23.72
386.041	90.96
386.251	-25.77
386.461	27.48
386.671	2.9
386.881	13.14
387.091	-50.35
387.301	93.01
387.511	13.14
387.72	-52.39
387.93	-36.01
388.14	-95.4
388.35	60.24
388.56	39.76
388.769	-11.43
388.979	-50.35
389.189	-42.15
389.399	-38.06
389.609	23.38
389.818	-3.24
390.028	72.53
390.238	-19.63
390.447	-25.77
390.657	84.82
390.867	80.72
391.076	21.33
391.286	4.95
391.496	68.44
391.705	39.76
391.915	11.09
392.125	21.33
392.334	-36.01
392.544	29.52
392.753	56.15
392.963	11.09
393.172	-42.15
393.382	-19.63
393.591	35.67
393.801	17.24
394.01	33.62
394.22	-56.49
394.429	62.29
394.639	-36.01
394.848	-31.91
395.058	-79.02
395.267	-7.34
395.477	-17.58
395.686	27.48
395.895	27.48
396.105	21.33
396.314	4.95
396.524	9.05
396.733	50
396.942	52.05
397.152	7
397.361	-38.06
397.57	66.39
397.78	35.67
397.989	-9.39
398.198	45.91
398.407	52.05
398.617	35.67
398.826	56.15
399.035	39.76
399.244	-50.35
399.453	-25.77
399.663	29.52
399.872	29.52
400.081	7
400.29	54.1
400.499	33.62
400.708	7
400.917	-13.48
401.127	45.91
401.336	-27.82
401.545	-9.39
401.754	-13.48
401.963	-17.58
402.172	66.39
402.381	-13.48
402.59	-33.96
402.799	-19.63
403.008	52.05
403.217	-46.25
403.426	9.05
403.635	39.76
403.844	7
404.053	17.24
404.262	-9.39
404.471	62.29
404.68	47.96
404.888	13.14
405.097	17.24
405.306	80.72
405.515	121.68
405.724	17.24
405.933	-64.68
406.142	9.05
406.35	37.72
406.559	-21.67
406.768	-58.54
406.977	41.81
407.185	99.16
407.394	54.1
407.603	9.05
407.812	27.48
408.02	54.1
408.229	64.34
408.438	-9.39
408.646	58.2
408.855	111.44
409.064	45.91
409.272	39.76
409.481	121.68
409.69	144.21
409.898	17.24
410.107	66.39
410.315	123.73
410.524	138.07
410.733	129.88
410.941	140.12
411.15	138.07
411.358	11.09
411.567	107.35
411.775	111.44
411.984	107.35
412.192	162.64
412.401	95.06
412.609	138.07
412.818	125.78
413.026	129.88
413.234	84.82
413.443	125.78
413.651	156.5
413.86	172.88
414.068	142.16
414.276	66.39
414.485	185.17
414.693	144.21
414.901	224.08
415.11	183.12
415.318	267.09
415.526	226.13
415.734	195.41
415.943	189.27
416.151	246.61
416.359	281.43
416.567	265.04
416.776	254.8
416.984	269.14
417.192	285.52
417.4	232.27
417.608	316.24
417.817	297.81
418.025	385.87
418.233	389.97
418.441	301.9
418.649	418.64
418.857	332.62
419.065	392.02
419.273	301.9
419.481	396.11
419.689	373.58
419.897	383.82
420.105	459.6
420.313	467.79
420.521	473.93
420.729	514.89
420.937	465.74
421.145	455.5
421.353	473.93
421.561	553.8
421.769	527.18
421.977	545.61
422.185	605
422.393	633.68
422.601	623.44
422.809	664.4
423.017	639.82
423.224	648.01
423.432	721.74
423.64	701.26
423.848	799.56
424.056	742.22
424.263	793.42
424.471	832.33
424.679	813.9
424.887	838.47
425.094	832.33
425.302	918.34
425.51	1037.13
425.718	1010.5
425.925	881.48
426.133	1065.8
426.341	1139.52
426.548	1131.33
426.756	1213.25
426.964	1178.44
427.171	1207.11
427.379	1227.59
427.586	1393.47
427.794	1243.97
428.001	1317.7
428.209	1444.67
428.417	1440.58
428.624	1504.06
428.832	1442.62
429.039	1612.6
429.247	1473.34
429.454	1610.56
429.662	1774.39
429.869	1624.89
430.076	1731.39
430.284	1719.1
430.491	1796.92
430.699	1815.35
430.906	1844.03
431.114	1993.53
431.321	2016.05
431.528	2030.39
431.736	2065.21
431.943	2343.73
432.15	2259.76
432.358	2161.46
432.565	2439.98
432.772	2331.44
432.979	2569.01
433.187	2415.41
433.394	2489.14
433.601	2554.67
433.808	2814.76
434.016	2587.44
434.223	2755.37
434.43	3066.66
434.637	2921.26
434.844	3121.96
435.052	3173.16
435.259	3011.37
435.466	3287.84
435.673	3191.59
435.88	3400.48
436.087	3597.09
436.294	3474.21
436.501	3423.01
436.708	3566.37
436.915	3568.41
437.122	3732.25
437.329	3988.25
437.537	3994.39
437.743	4074.26
437.95	3826.46
438.157	4158.23
438.364	4285.2
438.571	4281.11
438.778	4303.64
438.985	4852.49
439.192	4475.67
439.399	4625.17
439.606	4563.73
439.813	4829.96
440.02	5083.91
440.227	5024.52
440.433	5032.71
440.64	5182.21
440.847	5100.3
441.054	5274.37
441.261	5419.78
441.467	5493.51
441.674	5657.34
441.881	5753.6
442.088	5987.07
442.294	5702.4
442.501	5929.72
442.708	5976.83
442.914	6206.2
443.121	6451.95
443.328	6361.84
443.534	6771.44
443.741	6601.46
443.948	6558.45
444.154	7176.94
444.361	7058.15
444.568	6957.8
444.774	7025.39
444.981	7195.37
445.187	7326.44
445.394	7629.54
445.6	7674.59
445.807	8336.09
446.013	7873.25
446.22	8043.23
446.426	8497.88
446.633	8487.64
446.839	8854.22
447.046	8600.27
447.252	8958.67
447.459	9097.93
447.665	8927.95
447.871	9427.65
448.078	9925.31
448.284	9274.06
448.491	9679.55
448.697	9892.54
448.903	10013.37
449.11	10224.31
449.316	10048.19
449.522	10150.59
449.728	10678.96
449.935	10537.65
450.141	10619.57
450.347	10787.5
450.553	10580.66
450.76	10601.14
450.966	11080.36
451.172	10894
451.378	11420.33
451.584	10975.92
451.791	11203.24
451.997	11197.1
452.203	11326.12
452.409	11561.64
452.615	11362.98
452.821	10850.99
453.027	10965.68
453.233	11420.33
453.44	10949.29
453.646	11027.12
453.852	11242.15
454.058	11477.67
454.264	11113.13
454.47	11252.39
454.676	11082.41
454.882	11367.08
455.088	10425.01
455.294	10644.15
455.5	10621.62
455.705	10844.85
455.911	10312.38
456.117	10117.82
456.323	10101.44
456.529	9474.76
456.735	9994.94
456.941	9714.37
457.147	9523.91
457.352	9456.33
457.558	9194.19
457.764	9147.08
457.97	9159.37
458.176	8848.08
458.381	9059.02
458.587	8487.64
458.793	8651.47
458.999	8194.78
459.204	8596.18
459.41	8362.71
459.616	7836.38
459.821	7860.96
460.027	7793.37
460.233	7639.78
460.438	7199.46
460.644	7367.4
460.85	6961.9
461.055	6920.94
461.261	6910.7
461.466	6476.53
461.672	6218.49
461.878	6691.57
462.083	6005.5
462.289	5942.01
462.494	6241.01
462.7	5774.08
462.905	5616.38
463.111	5808.89
463.316	5794.56
463.522	5718.78
463.727	5542.66
463.932	5686.01
464.138	5513.99
464.343	5640.96
464.549	5372.68
464.754	5772.03
464.959	5612.29
465.165	5657.34
465.37	5352.2
465.575	5239.56
465.781	5466.88
465.986	5344
466.191	5315.33
466.397	5368.58
466.602	4832.01
466.807	5106.44
467.012	4987.66
467.218	5126.92
467.423	4977.42
467.628	5096.2
467.833	5301
468.038	4985.61
468.244	4997.9
468.449	5102.34
468.654	4969.23
468.859	4963.08
469.064	4834.06
469.269	4627.21
469.474	4766.48
469.679	4887.31
469.885	4666.13
470.09	4809.48
470.295	4725.52
470.5	4629.26
470.705	4576.02
470.91	4477.71
471.115	4397.84
471.32	4528.91
471.525	4553.49
471.73	4459.28
471.935	4418.32
472.139	4236.05
472.344	4315.92
472.549	4283.16
472.754	4350.74
472.959	4193.05
473.164	4064.02
473.369	4031.26
473.574	4123.41
473.778	4236.05
473.983	4184.85
474.188	4088.6
474.393	3857.18
474.598	3881.75
474.802	3828.51
475.007	3771.16
475.212	3904.28
475.417	3732.25
475.621	3793.69
475.826	3574.56
476.031	3748.64
476.235	3562.27
476.44	3642.14
476.645	3521.31
476.849	3517.22
477.054	3646.24
477.259	3488.54
477.463	3500.83
477.668	3359.52
477.872	3541.79
478.077	3380
478.282	3281.7
478.486	3273.51
478.691	3347.23
478.895	3281.7
479.1	3232.55
479.304	3250.98
479.509	3121.96
479.713	3169.06
479.918	3148.58
480.122	3148.58
480.326	3193.64
480.531	3277.6
480.735	3068.71
480.94	3064.61
481.144	3273.51
481.348	3054.37
481.553	3128.1
481.757	2925.35
481.961	3107.62
482.166	3265.32
482.37	2927.4
482.574	3056.42
482.778	3164.97
482.983	3029.8
483.187	2997.03
483.391	3113.77
483.595	2978.6
483.8	3083.05
484.004	3109.67
484.208	3019.56
484.412	2939.69
484.616	3068.71
484.821	2990.89
485.025	2872.11
485.229	3142.44
485.433	2945.83
485.637	3087.14
485.841	3072.81
486.045	3175.2
486.249	3027.75
486.453	2962.22
486.657	3087.14
486.861	3023.66
487.065	3017.51
487.269	3042.09
487.473	3070.76
487.677	3134.25
487.881	3068.71
488.085	2947.88
488.289	2982.7
488.493	3081
488.697	3193.64
488.901	3044.13
489.105	3171.11
489.309	3099.43
489.512	3148.58
489.716	3148.58
489.92	3056.42
490.124	3212.07
490.328	3314.47
490.531	3126.05
490.735	3242.79
490.939	3240.74
491.143	3121.96
491.346	3257.12
491.55	3398.43
491.754	3181.35
491.958	3259.17
492.161	3365.67
492.365	3334.95
492.569	3240.74
492.772	3330.85
492.976	3361.57
493.18	3506.98
493.383	3316.51
493.587	3382.05
493.79	3316.51
493.994	3336.99
494.197	3377.95
494.401	3468.06
494.605	3494.69
494.808	3439.39
495.012	3515.17
495.215	3648.29
495.419	3650.33
495.622	3549.98
495.825	3715.87
496.029	3681.05
496.232	3713.82
496.436	3818.27
496.639	3844.89
496.843	3805.98
497.046	3859.23
497.249	3982.1
497.453	3986.2
497.656	4127.51
497.859	3953.43
498.063	3953.43
498.266	4102.93
498.469	4061.98
498.673	4229.91
498.876	4272.92
499.079	4350.74
499.282	4250.39
499.485	4580.11
499.689	4453.14
499.892	4461.33
500.095	4598.54
500.298	4647.69
500.501	4621.07
500.705	4983.56
500.908	4819.72
501.111	4940.55
501.314	4952.84
501.517	4944.65
501.72	4969.23
501.923	5171.97
502.126	5182.21
502.329	5202.69
502.532	5348.1
502.735	5446.4
502.938	5350.15
503.141	5600
503.344	5595.9
503.547	5526.27
503.75	5561.09
503.953	5751.55
504.156	5833.47
504.359	5882.62
504.562	5899
504.765	6056.7
504.968	6050.55
505.17	6130.42
505.373	6245.11
505.576	6314.74
505.779	6279.93
505.982	6503.15
506.185	6484.72
506.387	6621.94
506.59	6599.41
506.793	6861.55
506.996	6882.03
507.198	7148.26
507.401	6970.09
507.604	7166.7
507.807	7140.07
508.009	7355.11
508.212	7312.1
508.415	7523.04
508.617	7557.86
508.82	7715.55
509.022	7494.37
509.225	7762.65
509.428	7975.64
509.63	8301.27
509.833	8116.95
510.035	8241.88
510.238	8233.69
510.44	8409.81
510.643	8340.18
510.845	8522.45
511.048	8671.95
511.25	8680.14
511.453	8821.45
511.655	9155.27
511.858	9122.51
512.06	8903.37
512.262	9169.61
512.465	9351.88
512.667	9304.78
512.87	9462.47
513.072	9626.31
513.274	9976.51
513.477	9716.42
513.679	9968.32
513.881	10076.86
514.084	10177.21
514.286	10123.96
514.488	10441.4
514.69	10740.4
514.893	10775.22
515.095	10760.88
515.297	10961.58
515.499	10764.98
515.701	11319.98
515.904	11166.38
516.106	11412.14
516.308	11305.64
516.51	11612.84
516.712	11506.34
516.914	11901.6
517.116	12024.48
517.318	12133.02
517.52	12008.09
517.722	12231.32
517.925	12278.43
518.127	12360.34
518.329	12542.61
518.531	12708.5
518.733	12849.81
518.935	12782.23
519.136	12927.63
519.338	13128.33
519.54	13193.87
519.742	13486.73
519.944	13634.18
520.146	13724.29
520.348	13611.65
520.55	13742.72
520.752	13838.98
520.954	14037.63
521.155	14260.86
521.357	14410.36
521.559	14490.23
521.761	14498.42
521.963	14615.16
522.164	14776.95
522.366	14738.04
522.568	14924.4
522.77	14942.83
522.971	15114.86
523.173	15202.93
523.375	15387.24
523.576	15518.31
523.778	15186.54
523.98	15661.67
524.181	15579.75
524.383	15895.14
524.584	16089.7
524.786	16065.12
524.988	15753.83
525.189	16265.82
525.391	16331.36
525.592	16263.77
525.794	16513.63
525.995	16443.99
526.197	16501.34
526.398	16542.3
526.6	16759.38
526.801	17001.04
527.003	16861.78
527.204	17044.05
527.406	17066.58
527.607	17160.78
527.808	17130.06
528.01	17132.11
528.211	17185.36
528.412	17455.69
528.614	17334.86
528.815	17381.96
529.016	17726.02
529.218	17498.7
529.419	17734.21
529.62	17631.82
529.822	17689.16
530.023	17711.69
530.224	17756.74
530.425	17750.6
530.626	17891.91
530.828	17611.34
531.029	17998.4
531.23	17951.3
531.431	17683.02
531.632	17783.37
531.833	17859.14
532.035	17830.47
532.236	18117.18
532.437	18133.57
532.638	18080.32
532.839	18158.14
533.04	18106.95
533.241	17973.83
533.442	18190.91
533.643	18010.69
533.844	18156.1
534.045	18356.8
534.246	18055.75
534.447	18235.97
534.648	18086.47
534.849	18207.3
535.05	18303.55
535.251	18348.61
535.451	18256.45
535.652	18350.65
535.853	18293.31
536.054	18395.71
536.255	18295.36
536.456	18020.93
536.657	18678.33
536.857	18309.69
537.058	18313.79
537.259	18397.76
537.46	18502.2
537.66	18195.01
537.861	18504.25
538.062	18399.8
538.263	18162.24
538.463	18369.09
538.664	18356.8
538.865	18475.58
539.065	18766.39
539.266	18416.19
539.466	18496.06
539.667	18260.54
539.868	18635.32
540.068	18293.31
540.269	18352.7
540.469	18436.67
540.67	18143.81
540.87	18408
541.071	18211.39
541.271	18205.25
541.472	18459.2
541.672	18362.94
541.873	18070.08
542.073	17904.2
542.274	18446.91
542.474	18149.95
542.675	18287.17
542.875	18569.79
543.075	18129.47
543.276	18395.71
543.476	18790.97
543.676	18453.05
543.877	18383.42
544.077	18233.92
544.277	18180.67
544.478	18100.8
544.678	18479.68
544.878	18313.79
545.078	18428.48
545.279	18362.94
545.479	18317.89
545.679	18299.45
545.879	18496.06
546.079	18469.44
546.28	18387.52
546.48	18152
546.68	18340.41
546.88	18283.07
547.08	18354.75
547.28	18217.54
547.48	18252.35
547.68	18502.2
547.88	18377.28
548.081	18451
548.281	18338.37
548.481	18133.57
548.681	18231.87
548.881	18027.07
549.081	18166.34
549.28	18248.25
549.48	18231.87
549.68	18098.75
549.88	18506.3
550.08	18250.3
550.28	18246.21
550.48	17953.35
550.68	18285.12
550.88	18240.06
551.08	18324.03
551.279	18371.13
551.479	17916.48
551.679	18211.39
551.879	18481.72
552.079	18698.81
552.278	17816.13
552.478	18385.47
552.678	18264.64
552.878	18166.34
553.077	18147.9
553.277	17846.85
553.477	18250.3
553.676	18262.59
553.876	18084.42
554.076	17779.27
554.275	18063.94
554.475	18033.22
554.674	17975.88
554.874	18162.24
555.074	18074.18
555.273	17953.35
555.473	18313.79
555.672	17881.67
555.872	17965.64
556.071	18219.58
556.271	18229.82
556.47	17889.86
556.67	17969.73
556.869	17734.21
557.068	18008.64
557.268	17844.81
557.467	17844.81
557.667	17914.44
557.866	17885.76
558.065	17807.94
558.265	17812.04
558.464	17539.66
558.663	17853
558.863	17543.75
559.062	17611.34
559.261	17777.22
559.461	17859.14
559.66	17689.16
559.859	17779.27
560.058	17355.34
560.258	17726.02
560.457	17287.76
560.656	17472.07
560.855	17222.22
561.054	17355.34
561.253	17291.85
561.453	17504.84
561.652	17410.64
561.851	17570.38
562.05	17431.12
562.249	17171.02
562.448	17408.59
562.647	17312.33
562.846	17314.38
563.045	17293.9
563.244	17177.17
563.443	17355.34
563.642	17074.77
563.841	16939.6
564.04	17105.49
564.239	17326.67
564.438	16982.61
564.637	17146.45
564.836	16949.84
565.035	16665.18
565.234	17058.39
565.432	16734.81
565.631	16964.18
565.83	16634.46
566.029	16589.4
566.228	16677.46
566.427	16720.47
566.625	16548.44
566.824	16691.8
567.023	16487
567.222	16286.3
567.42	16835.16
567.619	16441.95
567.818	16691.8
568.016	16382.56
568.215	16646.74
568.414	16310.88
568.612	16519.77
568.811	16450.14
569.01	16337.5
569.208	16116.32
569.407	16505.43
569.605	15868.52
569.804	16171.61
570.002	15784.55
570.201	16321.12
570.4	16126.56
570.598	15915.62
570.797	15743.59
570.995	15798.88
571.193	15835.75
571.392	16007.78
571.59	15702.63
571.789	15741.54
571.987	15927.91
572.186	15764.07
572.384	15460.97
572.582	15714.92
572.781	15899.23
572.979	15364.71
573.177	15473.26
573.376	15602.28
573.574	15305.32
573.772	15141.49
573.971	15108.72
574.169	15198.83
574.367	15172.21
574.565	15225.45
574.763	15182.45
574.962	14987.89
575.16	14996.08
575.358	15153.77
575.556	14783.09
575.754	15334
575.952	14824.05
576.151	15198.83
576.349	15045.23
576.547	14570.1
576.745	14783.09
576.943	14783.09
577.141	14647.93
577.339	14527.1
577.537	14488.18
577.735	14457.46
577.933	14348.92
578.131	14484.09
578.329	14369.4
578.527	14436.99
578.725	14598.77
578.923	14377.59
579.121	14353.02
579.319	14199.42
579.516	14224
579.714	14377.59
579.912	14226.04
580.11	14195.32
580.308	14176.89
580.506	13824.64
580.704	13683.33
580.901	13836.93
581.099	14078.59
581.297	13841.03
581.495	13941.38
581.692	13802.11
581.89	13587.08
582.088	13605.51
582.285	13677.19
582.483	13775.49
582.681	13822.59
582.878	13578.89
583.076	13386.38
583.274	13372.04
583.471	13501.06
583.669	13435.53
583.866	13453.96
584.064	13384.33
584.262	13159.05
584.459	13490.82
584.657	13392.52
584.854	13283.98
585.052	13185.68
585.249	13195.92
585.447	13208.2
585.644	13030.03
585.841	12919.44
586.039	13191.82
586.236	12712.6
586.434	13050.51
586.631	12968.59
586.828	12710.55
587.026	12755.6
587.223	12833.43
587.42	12790.42
587.618	12669.59
587.815	12669.59
588.012	12507.8
588.21	12589.72
588.407	12655.25
588.604	12626.58
588.801	12360.34
588.999	12485.27
589.196	12620.44
589.393	12350.1
589.59	12104.35
589.787	12202.65
589.984	12216.99
590.182	11960.99
590.379	12458.65
590.576	12108.44
590.773	12098.2
590.97	12016.29
591.167	12042.91
591.364	12049.05
591.561	12094.11
591.758	11989.66
591.955	12012.19
592.152	12004
592.349	11971.23
592.546	11772.58
592.743	11981.47
592.94	11723.43
593.137	11846.3
593.334	11846.3
593.531	11754.15
593.727	11637.41
593.924	11610.79
594.121	11522.73
594.318	11526.82
594.515	11301.54
594.712	11455.14
594.908	11287.21
595.105	11635.36
595.302	11485.86
595.499	11375.27
595.696	11236.01
595.892	11184.81
596.089	11137.71
596.286	11371.18
596.482	11119.28
596.679	11180.71
596.876	11225.77
597.072	11010.73
597.269	10963.63
597.466	11027.12
597.662	10842.8
597.859	10982.06
598.055	10683.06
598.252	10820.27
598.448	10750.64
598.645	10834.61
598.841	10785.46
599.038	10773.17
599.234	10648.24
599.431	10738.35
599.627	10586.8
599.824	10517.17
600.02	10691.25
600.217	10586.8
600.413	10574.52
600.609	10599.09
600.806	10449.59
601.002	10478.26
601.198	10263.22
601.395	10187.45
601.591	10543.8
601.787	10300.09
601.984	10183.35
602.18	10351.29
602.376	10189.5
602.572	10050.24
602.769	10193.59
602.965	10031.8
603.161	10007.23
603.357	10171.07
603.553	10095.29
603.75	10021.56
603.946	9788.1
604.142	9992.89
604.338	9904.83
604.534	9913.02
604.73	9818.82
604.926	9740.99
605.122	9933.5
605.318	9734.85
605.514	9728.7
605.71	9646.79
605.906	9577.16
606.102	9855.68
606.298	9630.4
606.494	9607.87
606.69	9562.82
606.886	9437.89
607.082	9454.28
607.278	9487.04
607.474	9521.86
607.67	9347.78
607.866	9323.21
608.062	9485
608.257	9310.92
608.453	9382.6
608.649	9489.09
608.845	9196.23
609.041	9132.75
609.236	9493.19
609.432	9136.84
609.628	9183.95
609.824	9136.84
610.019	9075.4
610.215	9124.55
610.411	9216.71
610.606	9120.46
610.802	9093.83
610.998	8905.42
611.193	9038.54
611.389	8966.86
611.584	8901.33
611.78	8839.89
611.976	8977.1
612.171	9073.35
612.367	8950.48
612.562	9063.12
612.758	8575.7
612.953	8766.16
613.149	8809.17
613.344	8776.4
613.539	8901.33
613.735	8704.72
613.93	8886.99
614.126	8706.77
614.321	8757.97
614.517	8616.66
614.712	8598.23
614.907	8698.58
615.103	8659.67
615.298	8383.19
615.493	8854.22
615.688	8512.21
615.884	8813.26
616.079	8628.95
616.274	8528.6
616.47	8573.65
616.665	8577.75
616.86	8514.26
617.055	8547.03
617.25	8405.72
617.445	8577.75
617.641	8164.06
617.836	8557.27
618.031	8354.52
618.226	8248.02
618.421	8444.63
618.616	8192.73
618.811	8194.78
619.006	8297.17
619.201	8006.36
619.396	8184.54
619.591	8032.99
619.786	8129.24
619.981	7799.52
620.176	7858.91
620.371	7764.7
620.566	7994.08
620.761	7844.57
620.956	7754.46
621.151	7869.15
621.346	7854.81
621.541	7607.01
621.735	7764.7
621.93	7686.88
622.125	7736.03
622.32	7545.57
622.515	7643.87
622.709	7402.21
622.904	7451.36
623.099	7437.03
623.294	7359.21
623.488	7181.03
623.683	7346.92
623.878	7236.33
624.072	7400.16
624.267	7303.91
624.462	7123.69
624.656	7224.04
624.851	6980.33
625.046	7187.18
625.24	7037.67
625.435	6970.09
625.629	7027.43
625.824	6879.98
626.018	6839.02
626.213	6830.83
626.407	6732.53
626.602	6761.2
626.796	6689.52
626.991	6832.88
627.185	6630.13
627.38	6494.96
627.574	6671.09
627.768	6568.69
627.963	6533.87
628.157	6437.62
628.352	6599.41
628.546	6286.07
628.74	6365.94
628.935	6329.08
629.129	6329.08
629.323	6247.16
629.517	6290.17
629.712	6189.81
629.906	6048.51
630.1	6148.86
630.294	6081.27
630.489	6040.31
630.683	6048.51
630.877	6054.65
631.071	6073.08
631.265	5923.58
631.459	5985.02
631.653	5849.85
631.848	5907.2
632.042	5767.93
632.236	5759.74
632.43	5794.56
632.624	5702.4
632.818	5724.93
633.012	5649.15
633.206	5692.16
633.4	5669.63
633.594	5542.66
633.788	5448.45
633.982	5575.42
634.176	5487.36
634.369	5470.98
634.563	5552.9
634.757	5438.21
634.951	5325.57
635.145	5214.98
635.339	5333.76
635.533	5419.78
635.726	5278.47
635.92	5272.32
636.114	5202.69
636.308	5116.68
636.501	5280.52
636.695	5180.17
636.889	5200.65
637.083	5096.2
637.276	5053.19
637.47	4850.44
637.664	4991.75
637.857	5085.96
638.051	5036.81
638.244	4883.21
638.438	4887.31
638.632	4659.98
638.825	4803.34
639.019	4789
639.212	4791.05
639.406	4746
639.599	4809.48
639.793	4741.9
639.986	4588.3
640.18	4592.4
640.373	4561.68
640.567	4641.55
640.76	4641.55
640.954	4490
641.147	4588.3
641.34	4438.8
641.534	4551.44
641.727	4522.77
641.92	4496.14
642.114	4518.67
642.307	4289.3
642.5	4434.71
642.694	4242.2
642.887	4238.1
643.08	4264.72
643.273	4277.01
643.467	4143.89
643.66	4252.44
643.853	4178.71
644.046	4154.13
644.239	4000.54
644.432	4051.74
644.626	3982.1
644.819	3947.29
645.012	3920.67
645.205	4039.45
645.398	4016.92
645.591	3941.15
645.784	3908.38
645.977	3851.03
646.17	3834.65
646.363	3758.88
646.556	3787.55
646.749	3863.32
646.942	3695.39
647.135	3746.59
647.328	3744.54
647.521	3730.2
647.714	3685.15
647.907	3666.72
648.099	3666.72
648.292	3699.48
648.485	3617.57
648.678	3570.46
648.871	3646.24
649.064	3461.92
649.256	3609.37
649.449	3457.82
649.642	3386.15
649.835	3457.82
650.027	3453.73
650.22	3453.73
650.413	3296.04
650.605	3375.91
650.798	3502.88
650.991	3316.51
651.183	3367.71
651.376	3259.17
651.568	3293.99
651.761	3304.23
651.954	3232.55
652.146	3386.15
652.339	3195.68
652.531	3285.8
652.724	3097.38
652.916	3177.25
653.109	3158.82
653.301	3101.48
653.494	3107.62
653.686	3044.13
653.879	3132.2
654.071	3064.61
654.263	2980.65
654.456	2974.5
654.648	2878.25
654.84	2974.5
655.033	2884.39
655.225	2890.54
655.417	2923.3
655.61	3005.22
655.802	2865.96
655.994	2939.69
656.186	2921.26
656.379	2790.19
656.571	2743.08
656.763	2833.19
656.955	2730.8
657.148	2749.23
657.34	2683.69
657.532	2806.57
657.724	2724.65
657.916	2788.14
658.108	2738.99
658.3	2798.38
658.492	2687.79
658.684	2693.93
658.876	2657.07
659.068	2609.97
659.26	2626.35
659.452	2685.74
659.644	2661.16
659.836	2575.15
660.028	2560.81
660.22	2497.33
660.412	2564.91
660.604	2450.22
660.796	2562.86
660.988	2437.94
661.18	2530.09
661.372	2497.33
661.563	2337.59
661.755	2482.99
661.947	2358.07
662.139	2399.02
662.331	2401.07
662.522	2274.1
662.714	2448.18
662.906	2306.87
663.097	2362.16
663.289	2306.87
663.481	2347.83
663.673	2323.25
663.864	2200.37
664.056	2282.29
664.247	2349.87
664.439	2159.41
664.631	2216.76
664.822	2300.72
665.014	2181.94
665.205	2212.66
665.397	2181.94
665.588	2054.97
665.78	2044.73
665.971	2183.99
666.163	2233.14
666.354	2194.23
666.546	2159.41
666.737	2149.17
666.929	2095.93
667.12	2089.78
667.311	2032.44
667.503	2083.64
667.694	2106.17
667.885	2079.54
668.077	2104.12
668.268	2143.03
668.459	1911.61
668.651	2040.63
668.842	1893.18
669.033	1917.75
669.224	1991.48
669.416	1938.23
669.607	1932.09
669.798	1946.42
669.989	1880.89
670.18	1962.81
670.371	1958.71
670.563	1897.27
670.754	1876.79
670.945	1948.47
671.136	1889.08
671.327	1809.21
671.518	1856.31
671.709	1897.27
671.9	1848.12
672.091	1942.33
672.282	1778.49
672.473	1866.55
672.664	1807.16
672.855	1815.35
673.046	1809.21
673.237	1819.45
673.428	1805.11
673.619	1700.67
673.809	1794.87
674	1827.64
674.191	1776.44
674.382	1774.39
674.573	1803.07
674.764	1753.91
674.954	1782.59
675.145	1694.52
675.336	1717.05
675.527	1733.43
675.717	1753.91
675.908	1719.1
676.099	1753.91
676.289	1653.56
676.48	1733.43
676.671	1678.14
676.861	1598.27
677.052	1602.36
677.243	1647.42
677.433	1704.76
677.624	1633.08
677.814	1614.65
678.005	1602.36
678.195	1696.57
678.386	1686.33
678.576	1651.52
678.767	1594.17
678.957	1604.41
679.148	1600.32
679.338	1628.99
679.529	1676.09
679.719	1614.65
679.909	1608.51
680.1	1637.18
680.29	1577.79
680.481	1635.13
680.671	1606.46
680.861	1559.36
681.052	1616.7
681.242	1602.36
681.432	1600.32
681.622	1575.74
681.813	1606.46
682.003	1610.56
682.193	1524.54
682.383	1651.52
682.573	1579.84
682.764	1493.82
682.954	1622.84
683.144	1643.32
683.334	1530.69
683.524	1569.6
683.714	1559.36
683.904	1530.69
684.094	1606.46
684.284	1569.6
684.474	1565.5
684.664	1596.22
684.854	1551.17
685.044	1551.17
685.234	1522.49
685.424	1588.03
685.614	1450.82
685.804	1524.54
685.994	1463.1
686.184	1542.97
686.374	1440.58
686.564	1512.25
686.753	1651.52
686.943	1475.39
687.133	1522.49
687.323	1473.34
687.513	1520.45
687.702	1401.66
687.892	1530.69
688.082	1575.74
688.272	1516.35
688.461	1510.21
688.651	1553.21
688.841	1442.62
689.03	1514.3
689.22	1479.49
689.41	1454.91
689.599	1528.64
689.789	1489.73
689.979	1502.01
690.168	1495.87
690.358	1440.58
690.547	1452.86
690.737	1542.97
690.926	1557.31
691.116	1481.53
691.305	1446.72
691.495	1395.52
691.684	1379.14
691.874	1383.23
692.063	1485.63
692.252	1471.29
692.442	1479.49
692.631	1524.54
692.82	1483.58
693.01	1407.81
693.199	1495.87
693.388	1438.53
693.578	1573.69
693.767	1418.05
693.956	1420.1
694.146	1428.29
694.335	1467.2
694.524	1422.14
694.713	1405.76
694.902	1497.92
695.092	1442.62
695.281	1444.67
695.47	1409.86
695.659	1377.09
695.848	1360.7
696.037	1391.42
696.226	1456.96
696.415	1295.17
696.604	1440.58
696.793	1203.01
696.982	1413.95
697.171	1454.91
697.36	1340.22
697.549	1362.75
697.738	1274.69
697.927	1391.42
698.116	1409.86
698.305	1329.99
698.494	1338.18
698.683	1381.18
698.872	1340.22
699.061	1321.79
699.25	1286.98
699.438	1209.15
699.627	1366.85
699.816	1358.66
700.005	1319.75
700.193	1366.85
700.382	1399.62
700.571	1311.55
700.76	1301.31
700.948	1368.9
701.137	1303.36
701.326	1323.84
701.514	1334.08
701.703	1348.42
701.892	1356.61
702.08	1315.65
702.269	1229.63
702.457	1305.41
702.646	1295.17
702.834	1293.12
703.023	1297.22
703.212	1346.37
703.4	1237.83
703.589	1379.14
703.777	1258.31
703.965	1213.25
704.154	1231.68
704.342	1149.76
704.531	1297.22
704.719	1270.59
704.907	1248.07
705.096	1274.69
705.284	1184.58
705.472	1243.97
705.661	1256.26
705.849	1235.78
706.037	1252.16
706.226	1176.39
706.414	1246.02
706.602	1248.07
706.79	1215.3
706.979	1293.12
707.167	1254.21
707.355	1241.92
707.543	1198.92
707.731	1223.49
707.919	1215.3
708.107	1284.93
708.296	1172.29
708.484	1180.48
708.672	1223.49
708.86	1200.96
709.048	1252.16
709.236	1114.95
709.424	1162.05
709.612	1235.78
709.8	1311.55
709.988	1168.2
710.176	1260.35
710.364	1241.92
710.551	1094.47
710.739	1135.43
710.927	1137.48
711.115	1117
711.303	1219.39
711.491	1123.14
711.679	1151.81
711.866	1160
712.054	1207.11
712.242	1110.85
712.43	1192.77
712.617	1207.11
712.805	1102.66
712.993	1170.24
713.181	1155.91
713.368	1172.29
713.556	1119.04
713.744	1065.8
713.931	1127.24
714.119	1155.91
714.306	1114.95
714.494	1200.96
714.682	1024.84
714.869	1061.7
715.057	1065.8
715.244	1170.24
715.432	1129.28
715.619	1149.76
715.807	1168.2
715.994	990.02
716.182	1067.85
716.369	1090.37
716.556	1073.99
716.744	1065.8
716.931	1037.13
717.119	1051.46
717.306	1071.94
717.493	1151.81
717.681	1016.65
717.868	1030.98
718.055	1067.85
718.242	1045.32
718.43	1100.61
718.617	969.54
718.804	1039.17
718.991	1051.46
719.179	1047.37
719.366	1000.26
719.553	1065.8
719.74	1012.55
719.927	1059.65
720.114	932.68
720.301	1106.76
720.488	1020.74
720.676	1092.42
720.863	1094.47
721.05	1008.45
721.237	1080.13
721.424	965.45
721.611	1033.03
721.798	992.07
721.985	846.66
722.172	1061.7
722.358	994.12
722.545	942.92
722.732	932.68
722.919	949.06
723.106	1045.32
723.293	981.83
723.48	942.92
723.667	965.45
723.853	914.25
724.04	1092.42
724.227	944.97
724.414	975.69
724.6	983.88
724.787	1002.31
724.974	1028.93
725.161	985.93
725.347	949.06
725.534	947.01
725.72	985.93
725.907	922.44
726.094	955.21
726.28	987.97
726.467	904.01
726.653	904.01
726.84	932.68
727.027	973.64
727.213	899.91
727.4	852.81
727.586	1010.5
727.773	951.11
727.959	863.05
728.145	955.21
728.332	965.45
728.518	895.82
728.705	1002.31
728.891	916.3
729.077	944.97
729.264	901.96
729.45	996.17
729.636	932.68
729.823	895.82
730.009	918.34
730.195	824.14
730.382	852.81
730.568	908.1
730.754	879.43
730.94	996.17
731.126	953.16
731.313	992.07
731.499	887.62
731.685	856.9
731.871	981.83
732.057	877.38
732.243	856.9
732.429	924.49
732.615	863.05
732.801	871.24
732.987	846.66
733.173	873.29
733.359	897.86
733.545	869.19
733.731	803.66
733.917	858.95
734.103	901.96
734.289	977.73
734.475	934.73
734.661	887.62
734.847	774.99
735.033	844.62
735.219	787.27
735.404	838.47
735.59	848.71
735.776	817.99
735.962	830.28
736.148	846.66
736.333	854.86
736.519	850.76
736.705	918.34
736.89	834.38
737.076	910.15
737.262	826.18
737.447	807.75
737.633	838.47
737.819	834.38
738.004	807.75
738.19	770.89
738.375	858.95
738.561	832.33
738.747	852.81
738.932	813.9
739.118	865.1
739.303	805.71
739.489	795.47
739.674	768.84
739.859	734.03
740.045	826.18
740.23	760.65
740.416	777.03
740.601	817.99
740.786	811.85
740.972	799.56
741.157	789.32
741.342	738.12
741.528	777.03
741.713	766.79
741.898	754.51
742.084	824.14
742.269	824.14
742.454	787.27
742.639	734.03
742.824	744.27
743.01	803.66
743.195	795.47
743.38	731.98
743.565	729.93
743.75	727.88
743.935	764.75
744.12	658.25
744.305	736.07
744.49	719.69
744.675	719.69
744.86	672.59
745.045	656.2
745.23	715.59
745.415	766.79
745.6	750.41
745.785	770.89
745.97	684.87
746.155	758.6
746.34	699.21
746.525	662.35
746.71	723.79
746.895	701.26
747.079	734.03
747.264	676.68
747.449	703.31
747.634	729.93
747.819	660.3
748.003	535.37
748.188	654.16
748.373	654.16
748.557	545.61
748.742	623.44
748.927	602.96
749.111	541.52
749.296	611.15
749.481	695.11
749.665	627.53
749.85	637.77
750.034	615.24
750.219	596.81
750.404	711.5
750.588	611.15
750.773	590.67
750.957	557.9
751.141	609.1
751.326	533.33
751.51	545.61
751.695	586.57
751.879	547.66
752.064	672.59
752.248	602.96
752.432	578.38
752.617	525.13
752.801	557.9
752.985	586.57
753.17	602.96
753.354	566.09
753.538	475.98
753.722	596.81
753.907	613.2
754.091	537.42
754.275	521.04
754.459	443.21
754.643	582.48
754.828	518.99
755.012	594.76
755.196	500.56
755.38	523.09
755.564	430.93
755.748	504.65
755.932	441.17
756.116	469.84
756.3	373.58
756.484	416.59
756.668	430.93
756.852	537.42
757.036	549.71
757.22	512.85
757.404	410.45
757.588	490.32
757.772	455.5
757.956	459.6
758.14	457.55
758.323	471.89
758.507	396.11
758.691	457.55
758.875	508.75
759.059	523.09
759.242	437.07
759.426	394.06
759.61	398.16
759.794	422.73
759.977	400.21
760.161	426.83
760.345	471.89
760.528	424.78
760.712	398.16
760.895	426.83
761.079	451.41
761.263	377.68
761.446	445.26
761.63	379.73
761.813	471.89
761.997	355.15
762.18	351.06
762.364	449.36
762.547	336.72
762.731	453.45
762.914	400.21
763.098	420.69
763.281	437.07
763.464	465.74
763.648	432.97
763.831	342.86
764.015	508.75
764.198	439.12
764.381	398.16
764.564	357.2
764.748	308.05
764.931	301.9
765.114	320.34
765.297	396.11
765.481	242.51
765.664	318.29
765.847	381.78
766.03	340.82
766.213	330.58
766.397	316.24
766.58	314.19
766.763	338.77
766.946	355.15
767.129	361.3
767.312	392.02
767.495	416.59
767.678	308.05
767.861	353.1
768.044	299.86
768.227	355.15
768.41	351.06
768.593	375.63
768.776	422.73
768.959	342.86
769.142	287.57
769.324	402.26
769.507	260.95
769.69	373.58
769.873	334.67
770.056	367.44
770.239	275.28
770.421	310.1
770.604	308.05
770.787	301.9
770.97	297.81
771.152	316.24
771.335	207.7
771.518	256.85
771.7	355.15
771.883	344.91
772.066	271.19
772.248	328.53
772.431	324.43
772.613	271.19
772.796	340.82
772.978	416.59
773.161	283.47
773.343	322.38
773.526	215.89
773.708	334.67
773.891	303.95
774.073	275.28
774.256	334.67
774.438	318.29
774.621	228.18
774.803	271.19
774.985	320.34
775.168	283.47
775.35	318.29
775.532	293.71
775.715	346.96
775.897	285.52
776.079	258.9
776.261	277.33
776.444	262.99
776.626	275.28
776.808	252.75
776.99	183.12
777.173	170.83
777.355	146.26
777.537	299.86
777.719	269.14
777.901	273.23
778.083	238.42
778.265	160.59
778.447	213.84
778.629	246.61
778.811	187.22
778.993	265.04
779.175	265.04
779.357	281.43
779.539	275.28
779.721	176.98
779.903	250.71
780.085	136.02
780.267	207.7
780.449	195.41
780.631	215.89
780.812	201.55
780.994	179.03
781.176	258.9
781.358	252.75
781.54	215.89
781.721	189.27
781.903	136.02
782.085	162.64
782.267	199.51
782.448	211.79
782.63	154.45
782.812	150.36
782.993	185.17
783.175	176.98
783.357	172.88
783.538	144.21
783.72	199.51
783.901	168.79
784.083	125.78
784.264	211.79
784.446	119.64
784.627	152.4
784.809	113.49
784.99	103.25
785.172	154.45
785.353	150.36
785.535	222.03
785.716	144.21
785.897	172.88
786.079	226.13
786.26	129.88
786.441	156.5
786.623	133.97
786.804	127.83
786.985	154.45
787.167	158.55
787.348	158.55
787.529	144.21
787.71	170.83
787.891	58.2
788.073	138.07
788.254	125.78
788.435	281.43
788.616	111.44
788.797	117.59
788.978	136.02
789.159	119.64
789.34	181.07
789.522	93.01
789.703	78.68
789.884	193.36
790.065	117.59
790.246	176.98
790.427	95.06
790.607	205.65
790.788	64.34
790.969	109.4
791.15	119.64
791.331	111.44
791.512	168.79
791.693	136.02
791.874	154.45
792.054	58.2
792.235	84.82
792.416	88.92
792.597	156.5
792.778	136.02
792.958	111.44
793.139	29.52
793.32	119.64
793.5	62.29
793.681	97.11
793.862	119.64
794.042	115.54
794.223	121.68
794.404	123.73
794.584	99.16
794.765	133.97
794.945	148.31
795.126	99.16
795.306	129.88
795.487	93.01
795.667	95.06
795.848	78.68
796.028	93.01
796.209	119.64
796.389	103.25
796.57	119.64
796.75	60.24
796.93	78.68
797.111	35.67
797.291	131.92
797.471	82.77
797.652	97.11
797.832	62.29
798.012	107.35
798.192	37.72
798.373	82.77
798.553	90.96
798.733	146.26
798.913	78.68
799.093	64.34
799.274	80.72
799.454	95.06
799.634	88.92
799.814	90.96
799.994	86.87
800.174	125.78
800.354	35.67
800.534	160.59
800.714	15.19
800.894	111.44
801.074	50
801.254	45.91
801.434	90.96
801.614	101.2
801.794	54.1
801.974	312.14
802.154	37.72
802.334	107.35
802.514	-3.24
802.693	97.11
802.873	103.25
803.053	90.96
803.233	93.01
803.413	121.68
803.592	111.44
803.772	23.38
803.952	33.62
804.131	70.48
804.311	66.39
804.491	64.34
804.67	60.24
804.85	103.25
805.03	-42.15
805.209	60.24
805.389	56.15
805.568	31.57
805.748	35.67
805.928	41.81
806.107	103.25
806.287	119.64
806.466	54.1
806.646	54.1
806.825	82.77
807.004	64.34
807.184	45.91
807.363	103.25
807.543	23.38
807.722	95.06
807.901	58.2
808.081	39.76
808.26	76.63
808.439	-5.29
808.619	17.24
808.798	62.29
808.977	37.72
809.156	86.87
809.336	97.11
809.515	50
809.694	13.14
809.873	62.29
810.052	45.91
810.231	45.91
810.411	107.35
810.59	138.07
810.769	15.19
810.948	23.38
811.127	52.05
811.306	31.57
811.485	47.96
811.664	29.52
811.843	138.07
812.022	21.33
812.201	33.62
812.38	31.57
812.559	25.43
812.737	25.43
812.916	37.72
813.095	58.2
813.274	47.96
813.453	-23.72
813.632	58.2
813.811	72.53
813.989	66.39
814.168	25.43
814.347	84.82
814.526	4.95
814.704	11.09
814.883	62.29
815.062	29.52
815.24	54.1
815.419	86.87
815.598	4.95
815.776	60.24
815.955	-7.34
816.133	33.62
816.312	27.48
816.49	15.19
816.669	39.76
816.847	-19.63
817.026	140.12
817.204	-25.77
817.383	-38.06
817.561	11.09
817.74	-81.07
817.918	-7.34
818.097	47.96
818.275	52.05
818.453	52.05
818.632	31.57
818.81	72.53
818.988	31.57
819.167	-9.39
819.345	62.29
819.523	-11.43
819.701	19.29
819.879	56.15
820.058	41.81
820.236	37.72
820.414	-48.3
820.592	52.05
820.77	29.52
820.948	-31.91
821.127	54.1
821.305	33.62
821.483	-48.3
821.661	37.72
821.839	-11.43
822.017	9.05
822.195	33.62
822.373	29.52
822.551	45.91
822.729	41.81
822.907	29.52
823.085	97.11
823.262	21.33
823.44	0.85
823.618	-3.24
823.796	13.14
823.974	-17.58
824.152	-42.15
824.329	50
824.507	119.64
824.685	2.9
824.863	23.38
825.04	-25.77
825.218	-7.34
825.396	31.57
825.574	17.24
825.751	2.9
825.929	66.39
826.107	-46.25
826.284	93.01
826.462	84.82
826.639	-21.67
826.817	-31.91
826.994	21.33
827.172	99.16
827.349	13.14
827.527	41.81
827.704	23.38
827.882	-11.43
828.059	68.44
828.237	47.96
828.414	54.1
828.591	27.48
828.769	29.52
828.946	-40.11
829.124	131.92
829.301	-19.63
829.478	-60.59
829.655	64.34
829.833	50
830.01	52.05
830.187	45.91
830.364	11.09
830.542	37.72
830.719	-21.67
830.896	-1.19
831.073	-15.53
831.25	2.9
831.427	-50.35
831.604	-1.19
831.782	27.48
831.959	9.05
832.136	45.91
832.313	0.85
832.49	-3.24
832.667	11.09
832.844	70.48
833.021	27.48
833.198	54.1
833.374	-1.19
833.551	4.95
833.728	-7.34
833.905	54.1
834.082	-48.3
834.259	-38.06
834.436	-11.43
834.612	17.24
834.789	43.86
834.966	-3.24
835.143	-42.15
835.319	-50.35
835.496	7
835.673	-3.24
835.85	66.39
836.026	7
836.203	17.24
836.38	13.14
836.556	37.72
836.733	21.33
836.909	27.48
837.086	45.91
837.262	21.33
837.439	25.43
837.616	-33.96
837.792	-33.96
837.968	-23.72
838.145	-27.82
838.321	-3.24
838.498	-60.59
838.674	25.43
838.851	-19.63
839.027	7
839.203	-58.54
839.38	-3.24
839.556	-44.2
839.732	-25.77
839.909	-52.39
840.085	29.52
840.261	-31.91
840.437	-5.29
840.614	-3.24
840.79	-29.87
840.966	31.57
841.142	4.95
841.318	-62.63
841.494	15.19
841.671	-25.77
841.847	-27.82
842.023	13.14
842.199	15.19
842.375	4.95
842.551	-17.58
842.727	-1.19
842.903	-1.19
843.079	21.33
843.255	52.05
843.431	-74.92
843.607	31.57
843.783	2.9
843.959	-19.63
844.134	-54.44
844.31	43.86
844.486	33.62
844.662	-1.19
844.838	54.1
845.013	-99.5
845.189	-27.82
845.365	-46.25
845.541	33.62
845.716	-58.54
845.892	43.86
846.068	-42.15
846.244	2.9
846.419	-5.29
846.595	13.14
846.77	78.68
846.946	-21.67
847.122	7
847.297	-83.11
847.473	-38.06
847.648	-42.15
847.824	23.38
847.999	-29.87
848.175	4.95
848.35	-29.87
848.526	-19.63
848.701	41.81
848.876	-3.24
849.052	2.9
849.227	-7.34
849.403	-21.67
849.578	17.24
849.753	9.05
849.929	52.05
850.104	-11.43
850.279	4.95
850.454	-25.77
850.63	-56.49
850.805	-44.2
850.98	13.14
851.155	-19.63
851.33	50
851.505	-11.43
851.681	86.87
851.856	11.09
852.031	-19.63
852.206	-27.82
852.381	-7.34
852.556	29.52
852.731	-9.39
852.906	60.24
853.081	101.2
853.256	-9.39
853.431	33.62
853.606	-109.74
853.781	13.14
853.956	-64.68
854.131	58.2
854.305	-19.63
854.48	-3.24
854.655	9.05
854.83	-5.29
855.005	-81.07
855.18	-3.24
855.354	-13.48
855.529	-1.19
855.704	-9.39
855.879	-36.01
856.053	7
856.228	11.09
856.403	-56.49
856.577	-42.15
856.752	-70.83
856.926	4.95
857.101	35.67
857.276	-3.24
857.45	-5.29
857.625	-66.73
857.799	21.33
857.974	17.24
858.148	-66.73
858.323	17.24
858.497	-7.34
858.672	2.9
858.846	17.24
859.02	7
859.195	-11.43
859.369	-40.11
859.543	-68.78
859.718	-9.39
859.892	-25.77
860.066	-29.87
860.241	-44.2
860.415	-17.58
860.589	-11.43
860.763	-23.72
860.938	35.67
861.112	9.05
861.286	-23.72
861.46	-81.07
861.634	-19.63
861.808	-42.15
861.982	-17.58
862.157	-25.77
862.331	-66.73
862.505	-42.15
862.679	-62.63
862.853	-19.63
863.027	7
863.201	19.29
863.375	-101.55
863.549	-76.97
863.722	-62.63
863.896	35.67
864.07	31.57
864.244	4.95
864.418	15.19
864.592	4.95
864.766	-54.44
864.939	-23.72
865.113	-48.3
865.287	25.43
865.461	17.24
865.634	4.95
865.808	-23.72
865.982	-21.67
866.156	-38.06
866.329	-81.07
866.503	9.05
866.676	52.05
866.85	23.38
867.024	-48.3
867.197	-81.07
867.371	7
867.544	-5.29
867.718	39.76
867.891	-19.63
868.065	-46.25
868.238	33.62
868.412	-56.49
868.585	-11.43
868.759	9.05
868.932	47.96
869.105	13.14
869.279	-85.16
869.452	-19.63
869.625	15.19
869.799	-21.67
869.972	27.48
870.145	-42.15
870.319	31.57
870.492	47.96
870.665	68.44
870.838	-19.63
871.011	-9.39
871.185	-46.25
871.358	-11.43
871.531	68.44
871.704	-31.91
871.877	21.33
872.05	-66.73
872.223	-44.2
872.396	-13.48
872.569	-5.29
872.742	-42.15
872.915	0.85
873.088	-76.97
873.261	37.72
873.434	-27.82
873.607	-13.48
873.78	-70.83
873.953	0.85
874.126	19.29
874.299	-33.96
874.471	2.9
874.644	-25.77
874.817	-56.49
874.99	-15.53
875.163	33.62
875.335	-9.39
875.508	-85.16
875.681	-70.83
875.853	-21.67
876.026	11.09
876.199	54.1
876.371	21.33
876.544	-44.2
876.717	60.24
876.889	-13.48
877.062	15.19
877.234	-38.06
877.407	21.33
877.579	43.86
877.752	-44.2
877.924	-21.67
878.097	-46.25
878.269	-25.77
878.442	17.24
878.614	39.76
878.786	-27.82
878.959	-21.67
879.131	-64.68
879.303	-13.48
879.476	-68.78
879.648	-36.01
879.82	0.85
879.993	-7.34
880.165	33.62
880.337	-93.35
880.509	13.14
880.681	13.14
880.854	9.05
881.026	17.24
881.198	-15.53
881.37	-27.82
881.542	-29.87
881.714	-17.58
881.886	-101.55
882.058	-74.92
882.23	21.33
882.402	-9.39
882.574	70.48
882.746	-7.34
882.918	-31.91
883.09	-33.96
883.262	-3.24
883.434	-19.63
883.606	-89.26
883.778	-99.5
883.95	-1.19
884.122	0.85
884.293	31.57
884.465	-66.73
884.637	-33.96
884.809	-46.25
884.98	-46.25
885.152	-68.78
885.324	-3.24
885.496	-25.77
885.667	-15.53
885.839	-21.67
886.011	-29.87
886.182	-42.15
886.354	15.19
886.525	-64.68
886.697	-60.59
886.869	-15.53
887.04	-17.58
887.212	15.19
887.383	54.1
887.555	2.9
887.726	-44.2
887.897	-1.19
888.069	-25.77
888.24	29.52
888.412	-52.39
888.583	-64.68
888.754	-3.24
888.926	7
889.097	-23.72
889.268	37.72
889.44	47.96
889.611	0.85
889.782	60.24
889.953	-46.25
890.125	50
890.296	50
890.467	9.05
890.638	-42.15
890.809	50
890.98	-19.63
891.151	-1.19
891.323	-17.58
891.494	-36.01
891.665	31.57
891.836	62.29
892.007	-52.39
892.178	-42.15
892.349	-13.48
892.52	-29.87
892.691	-81.07
892.862	-23.72
893.032	-29.87
893.203	-23.72
893.374	-36.01
893.545	-79.02
893.716	-23.72
893.887	54.1
894.057	-64.68
894.228	4.95
894.399	-15.53
894.57	41.81
894.74	-62.63
894.911	-27.82
895.082	-1.19
895.253	-76.97
895.423	-19.63
895.594	-7.34
895.764	-95.4
895.935	-7.34
896.106	-38.06
896.276	27.48
896.447	-60.59
896.617	-11.43
896.788	35.67
896.958	23.38
897.129	-76.97
897.299	-36.01
897.47	7
897.64	-60.59
897.81	15.19
897.981	-85.16
898.151	-36.01
898.322	43.86
898.492	-9.39
898.662	-56.49
898.832	-81.07
899.003	-19.63
899.173	-21.67
899.343	11.09
899.513	19.29
