Data from USB4F104151__78__12-59-42-402.txt Node

Date: Fri Mar 14 12:59:42 EDT 2025
User: louis
Spectrometer: USB4F10415
Trigger mode: 4
Integration Time (sec): 1.000000E-2
Scans to average: 1
Electric dark correction enabled: true
Nonlinearity correction enabled: false
Boxcar width: 0
XAxis mode: Wavelengths
Number of Pixels in Spectrum: 3648
>>>>>Begin Spectral Data<<<<<
178.204	-7.85
178.424	-7.85
178.644	-7.85
178.864	-93.87
179.084	-30.38
179.304	-28.33
179.524	-40.62
179.744	35.16
179.964	-30.38
180.184	39.25
180.404	22.87
180.624	-63.15
180.844	-20.14
181.064	76.12
181.283	-16.04
181.503	-1.71
181.723	26.96
181.943	100.69
182.163	-7.85
182.383	-20.14
182.602	63.83
182.822	14.68
183.042	18.77
183.262	8.53
183.482	2.39
183.701	-38.57
183.921	39.25
184.141	-3.75
184.361	-3.75
184.58	-57
184.8	29.01
185.02	6.49
185.239	76.12
185.459	-3.75
185.679	-26.28
185.898	-22.19
186.118	37.2
186.338	24.92
186.557	29.01
186.777	-71.34
186.997	59.73
187.216	-5.8
187.436	43.35
187.655	2.39
187.875	14.68
188.095	4.44
188.314	26.96
188.534	-30.38
188.753	37.2
188.973	26.96
189.192	45.4
189.412	-3.75
189.631	22.87
189.851	-44.71
190.07	37.2
190.29	-44.71
190.509	20.82
190.729	-22.19
190.948	55.64
191.168	22.87
191.387	51.54
191.607	41.3
191.826	-7.85
192.045	-42.67
192.265	35.16
192.484	2.39
192.704	24.92
192.923	10.58
193.142	61.78
193.362	8.53
193.581	-38.57
193.8	33.11
194.02	18.77
194.239	-30.38
194.458	20.82
194.678	10.58
194.897	-7.85
195.116	-48.81
195.335	-3.75
195.555	53.59
195.774	14.68
195.993	12.63
196.212	-24.23
196.432	-40.62
196.651	2.39
196.87	33.11
197.089	63.83
197.308	-38.57
197.528	31.06
197.747	67.92
197.966	10.58
198.185	0.34
198.404	-13.99
198.623	6.49
198.842	57.68
199.062	-3.75
199.281	10.58
199.5	18.77
199.719	-30.38
199.938	43.35
200.157	49.49
200.376	39.25
200.595	-5.8
200.814	74.07
201.033	37.2
201.252	55.64
201.471	-13.99
201.69	57.68
201.909	-32.43
202.128	8.53
202.347	18.77
202.566	31.06
202.785	14.68
203.004	-9.9
203.223	0.34
203.442	-5.8
203.661	-50.86
203.879	2.39
204.098	-7.85
204.317	8.53
204.536	26.96
204.755	94.55
204.974	45.4
205.193	-32.43
205.411	43.35
205.63	67.92
205.849	18.77
206.068	-11.95
206.287	-42.67
206.505	26.96
206.724	-11.95
206.943	-28.33
207.162	49.49
207.381	51.54
207.599	61.78
207.818	-34.47
208.037	82.26
208.255	90.45
208.474	-22.19
208.693	8.53
208.911	18.77
209.13	102.74
209.349	20.82
209.567	125.27
209.786	-30.38
210.005	12.63
210.223	8.53
210.442	35.16
210.661	-5.8
210.879	26.96
211.098	-9.9
211.316	78.16
211.535	53.59
211.753	-7.85
211.972	20.82
212.191	45.4
212.409	10.58
212.628	16.73
212.846	8.53
213.065	53.59
213.283	-1.71
213.502	-7.85
213.72	12.63
213.938	59.73
214.157	14.68
214.375	-13.99
214.594	-24.23
214.812	35.16
215.031	41.3
215.249	4.44
215.467	67.92
215.686	69.97
215.904	37.2
216.122	-13.99
216.341	20.82
216.559	43.35
216.778	78.16
216.996	-5.8
217.214	-36.52
217.432	43.35
217.651	-26.28
217.869	61.78
218.087	-40.62
218.306	2.39
218.524	12.63
218.742	-16.04
218.96	49.49
219.179	-38.57
219.397	12.63
219.615	-13.99
219.833	-54.95
220.051	-5.8
220.27	6.49
220.488	-5.8
220.706	53.59
220.924	8.53
221.142	45.4
221.36	2.39
221.578	47.44
221.796	-20.14
222.015	-24.23
222.233	-11.95
222.451	26.96
222.669	-40.62
222.887	35.16
223.105	8.53
223.323	-32.43
223.541	61.78
223.759	-16.04
223.977	84.31
224.195	8.53
224.413	-36.52
224.631	29.01
224.849	2.39
225.067	35.16
225.285	8.53
225.503	74.07
225.721	4.44
225.939	24.92
226.157	55.64
226.375	37.2
226.592	55.64
226.81	6.49
227.028	-26.28
227.246	29.01
227.464	-13.99
227.682	106.84
227.9	14.68
228.117	45.4
228.335	47.44
228.553	51.54
228.771	-9.9
228.989	67.92
229.206	57.68
229.424	49.49
229.642	-54.95
229.86	76.12
230.077	61.78
230.295	-9.9
230.513	-38.57
230.731	-46.76
230.948	47.44
231.166	67.92
231.384	-50.86
231.601	24.92
231.819	6.49
232.037	-3.75
232.254	26.96
232.472	0.34
232.689	-44.71
232.907	20.82
233.125	-18.09
233.342	-24.23
233.56	-71.34
233.777	20.82
233.995	6.49
234.213	-24.23
234.43	24.92
234.648	6.49
234.865	-112.3
235.083	18.77
235.3	37.2
235.518	35.16
235.735	45.4
235.953	43.35
236.17	-22.19
236.388	35.16
236.605	47.44
236.822	-48.81
237.04	-52.91
237.257	69.97
237.475	6.49
237.692	18.77
237.909	-16.04
238.127	-52.91
238.344	-91.82
238.562	4.44
238.779	14.68
238.996	-24.23
239.214	-22.19
239.431	14.68
239.648	51.54
239.865	33.11
240.083	-18.09
240.3	29.01
240.517	-44.71
240.735	6.49
240.952	-44.71
241.169	2.39
241.386	47.44
241.603	-20.14
241.821	16.73
242.038	33.11
242.255	12.63
242.472	16.73
242.689	20.82
242.907	31.06
243.124	-5.8
243.341	-9.9
243.558	26.96
243.775	33.11
243.992	2.39
244.209	29.01
244.426	47.44
244.643	53.59
244.86	-69.29
245.078	72.02
245.295	-40.62
245.512	53.59
245.729	-46.76
245.946	-11.95
246.163	45.4
246.38	-5.8
246.597	92.5
246.814	18.77
247.031	41.3
247.248	-22.19
247.464	-46.76
247.681	-1.71
247.898	-40.62
248.115	72.02
248.332	-26.28
248.549	-44.71
248.766	-36.52
248.983	63.83
249.2	8.53
249.417	6.49
249.633	55.64
249.85	41.3
250.067	29.01
250.284	35.16
250.501	14.68
250.717	2.39
250.934	18.77
251.151	10.58
251.368	-26.28
251.585	61.78
251.801	-5.8
252.018	-7.85
252.235	29.01
252.451	61.78
252.668	-13.99
252.885	-3.75
253.102	39.25
253.318	10.58
253.535	-85.67
253.752	45.4
253.968	-30.38
254.185	16.73
254.401	-52.91
254.618	-1.71
254.835	-22.19
255.051	24.92
255.268	80.21
255.484	29.01
255.701	-9.9
255.917	35.16
256.134	-9.9
256.351	8.53
256.567	26.96
256.784	29.01
257	10.58
257.217	-1.71
257.433	-61.1
257.65	-32.43
257.866	74.07
258.082	29.01
258.299	-42.67
258.515	10.58
258.732	-36.52
258.948	-7.85
259.165	-11.95
259.381	37.2
259.597	-20.14
259.814	4.44
260.03	33.11
260.246	20.82
260.463	20.82
260.679	20.82
260.895	37.2
261.112	80.21
261.328	-9.9
261.544	53.59
261.761	51.54
261.977	33.11
262.193	-44.71
262.409	37.2
262.626	55.64
262.842	10.58
263.058	4.44
263.274	6.49
263.49	-54.95
263.707	-1.71
263.923	20.82
264.139	0.34
264.355	20.82
264.571	33.11
264.787	14.68
265.004	43.35
265.22	10.58
265.436	26.96
265.652	-1.71
265.868	-44.71
266.084	20.82
266.3	55.64
266.516	-46.76
266.732	20.82
266.948	-1.71
267.164	20.82
267.38	16.73
267.596	69.97
267.812	47.44
268.028	2.39
268.244	-13.99
268.46	14.68
268.676	14.68
268.892	18.77
269.108	-36.52
269.324	6.49
269.54	-18.09
269.756	59.73
269.972	8.53
270.188	-46.76
270.403	22.87
270.619	-28.33
270.835	0.34
271.051	12.63
271.267	-5.8
271.483	49.49
271.698	14.68
271.914	8.53
272.13	-26.28
272.346	-3.75
272.562	39.25
272.777	-1.71
272.993	-36.52
273.209	-48.81
273.425	104.79
273.64	67.92
273.856	43.35
274.072	57.68
274.287	0.34
274.503	20.82
274.719	-44.71
274.934	0.34
275.15	31.06
275.366	-30.38
275.581	100.69
275.797	-11.95
276.012	39.25
276.228	-16.04
276.444	-28.33
276.659	94.55
276.875	8.53
277.09	59.73
277.306	2.39
277.521	22.87
277.737	-34.47
277.952	43.35
278.168	10.58
278.383	10.58
278.599	31.06
278.814	35.16
279.03	-36.52
279.245	-20.14
279.461	-30.38
279.676	-22.19
279.892	29.01
280.107	43.35
280.322	29.01
280.538	-13.99
280.753	74.07
280.969	29.01
281.184	22.87
281.399	-75.43
281.615	-42.67
281.83	37.2
282.045	-52.91
282.26	69.97
282.476	-18.09
282.691	-38.57
282.906	41.3
283.122	18.77
283.337	74.07
283.552	-5.8
283.767	-1.71
283.983	24.92
284.198	47.44
284.413	-87.72
284.628	-11.95
284.843	-18.09
285.058	20.82
285.274	16.73
285.489	63.83
285.704	-1.71
285.919	-13.99
286.134	-9.9
286.349	78.16
286.564	63.83
286.779	39.25
286.995	43.35
287.21	0.34
287.425	43.35
287.64	-3.75
287.855	53.59
288.07	90.45
288.285	61.78
288.5	37.2
288.715	63.83
288.93	-9.9
289.145	29.01
289.36	82.26
289.575	6.49
289.79	39.25
290.004	20.82
290.219	-13.99
290.434	-44.71
290.649	20.82
290.864	-20.14
291.079	-34.47
291.294	4.44
291.509	-59.05
291.724	49.49
291.938	45.4
292.153	26.96
292.368	59.73
292.583	43.35
292.798	6.49
293.012	-3.75
293.227	-5.8
293.442	-42.67
293.657	41.3
293.871	2.39
294.086	63.83
294.301	47.44
294.516	24.92
294.73	43.35
294.945	-38.57
295.16	20.82
295.374	14.68
295.589	37.2
295.804	18.77
296.018	22.87
296.233	-5.8
296.447	2.39
296.662	47.44
296.877	31.06
297.091	49.49
297.306	69.97
297.52	-46.76
297.735	-11.95
297.949	26.96
298.164	47.44
298.378	-9.9
298.593	6.49
298.807	51.54
299.022	26.96
299.236	8.53
299.451	43.35
299.665	47.44
299.88	86.36
300.094	29.01
300.309	-38.57
300.523	-30.38
300.737	8.53
300.952	-13.99
301.166	4.44
301.381	-67.24
301.595	29.01
301.809	-3.75
302.024	4.44
302.238	-24.23
302.452	16.73
302.667	37.2
302.881	47.44
303.095	47.44
303.309	29.01
303.524	26.96
303.738	63.83
303.952	18.77
304.166	20.82
304.381	22.87
304.595	16.73
304.809	16.73
305.023	35.16
305.237	16.73
305.452	6.49
305.666	39.25
305.88	43.35
306.094	24.92
306.308	-46.76
306.522	72.02
306.736	47.44
306.95	-32.43
307.164	2.39
307.379	22.87
307.593	-28.33
307.807	35.16
308.021	86.36
308.235	47.44
308.449	22.87
308.663	22.87
308.877	6.49
309.091	-18.09
309.305	8.53
309.519	-9.9
309.733	-9.9
309.947	6.49
310.161	16.73
310.374	45.4
310.588	29.01
310.802	-13.99
311.016	-20.14
311.23	51.54
311.444	-59.05
311.658	29.01
311.872	-22.19
312.085	0.34
312.299	41.3
312.513	2.39
312.727	-30.38
312.941	24.92
313.154	-28.33
313.368	61.78
313.582	-102.06
313.796	4.44
314.009	-7.85
314.223	16.73
314.437	26.96
314.651	24.92
314.864	4.44
315.078	-5.8
315.292	-1.71
315.505	6.49
315.719	43.35
315.933	-63.15
316.146	-57
316.36	-1.71
316.573	67.92
316.787	96.6
317.001	24.92
317.214	-18.09
317.428	10.58
317.641	-42.67
317.855	-32.43
318.068	-63.15
318.282	-5.8
318.495	31.06
318.709	14.68
318.922	20.82
319.136	43.35
319.349	-16.04
319.563	51.54
319.776	-40.62
319.99	88.4
320.203	16.73
320.417	-26.28
320.63	39.25
320.843	18.77
321.057	10.58
321.27	57.68
321.483	16.73
321.697	82.26
321.91	74.07
322.124	41.3
322.337	-13.99
322.55	12.63
322.763	69.97
322.977	20.82
323.19	-81.58
323.403	29.01
323.617	-34.47
323.83	18.77
324.043	-48.81
324.256	112.98
324.469	-3.75
324.683	24.92
324.896	51.54
325.109	-5.8
325.322	-46.76
325.535	43.35
325.748	72.02
325.962	12.63
326.175	59.73
326.388	16.73
326.601	-30.38
326.814	29.01
327.027	51.54
327.24	43.35
327.453	20.82
327.666	-52.91
327.879	14.68
328.092	47.44
328.305	12.63
328.518	65.88
328.731	-7.85
328.944	59.73
329.157	47.44
329.37	-34.47
329.583	20.82
329.796	35.16
330.009	-28.33
330.222	-22.19
330.435	106.84
330.648	6.49
330.861	14.68
331.073	26.96
331.286	80.21
331.499	43.35
331.712	14.68
331.925	16.73
332.138	16.73
332.35	59.73
332.563	26.96
332.776	-63.15
332.989	33.11
333.202	-13.99
333.414	-30.38
333.627	67.92
333.84	-1.71
334.053	41.3
334.265	-5.8
334.478	-24.23
334.691	88.4
334.903	-11.95
335.116	10.58
335.329	31.06
335.541	-38.57
335.754	65.88
335.966	-1.71
336.179	-1.71
336.392	10.58
336.604	10.58
336.817	37.2
337.029	4.44
337.242	35.16
337.454	67.92
337.667	35.16
337.88	59.73
338.092	65.88
338.305	45.4
338.517	-42.67
338.729	29.01
338.942	26.96
339.154	0.34
339.367	-24.23
339.579	29.01
339.792	12.63
340.004	-38.57
340.217	33.11
340.429	12.63
340.641	22.87
340.854	20.82
341.066	-7.85
341.278	100.69
341.491	57.68
341.703	43.35
341.915	-40.62
342.128	-22.19
342.34	20.82
342.552	31.06
342.764	14.68
342.977	29.01
343.189	-9.9
343.401	10.58
343.613	-13.99
343.826	-22.19
344.038	-18.09
344.25	-18.09
344.462	24.92
344.674	-30.38
344.886	-11.95
345.099	8.53
345.311	29.01
345.523	-36.52
345.735	4.44
345.947	-5.8
346.159	-26.28
346.371	80.21
346.583	55.64
346.795	51.54
347.007	35.16
347.219	-28.33
347.431	-38.57
347.643	12.63
347.855	-20.14
348.067	43.35
348.279	-18.09
348.491	53.59
348.703	61.78
348.915	12.63
349.127	16.73
349.339	-18.09
349.551	-3.75
349.763	100.69
349.975	12.63
350.187	-20.14
350.399	51.54
350.61	0.34
350.822	35.16
351.034	43.35
351.246	-54.95
351.458	22.87
351.669	-5.8
351.881	10.58
352.093	45.4
352.305	63.83
352.517	10.58
352.728	18.77
352.94	-5.8
353.152	43.35
353.363	18.77
353.575	43.35
353.787	-61.1
353.999	33.11
354.21	33.11
354.422	43.35
354.633	20.82
354.845	35.16
355.057	72.02
355.268	6.49
355.48	12.63
355.692	26.96
355.903	8.53
356.115	20.82
356.326	0.34
356.538	20.82
356.749	14.68
356.961	45.4
357.172	22.87
357.384	45.4
357.595	0.34
357.807	22.87
358.018	51.54
358.23	-34.47
358.441	41.3
358.653	29.01
358.864	24.92
359.075	12.63
359.287	-1.71
359.498	35.16
359.709	18.77
359.921	12.63
360.132	-1.71
360.344	-50.86
360.555	-57
360.766	39.25
360.977	10.58
361.189	-3.75
361.4	-36.52
361.611	88.4
361.823	-5.8
362.034	-3.75
362.245	-16.04
362.456	10.58
362.667	31.06
362.879	-18.09
363.09	20.82
363.301	92.5
363.512	-67.24
363.723	-36.52
363.935	35.16
364.146	41.3
364.357	26.96
364.568	18.77
364.779	6.49
364.99	55.64
365.201	-11.95
365.412	-24.23
365.623	-1.71
365.834	24.92
366.045	24.92
366.256	55.64
366.467	-79.53
366.678	-24.23
366.889	37.2
367.1	41.3
367.311	65.88
367.522	63.83
367.733	-26.28
367.944	69.97
368.155	63.83
368.366	29.01
368.577	-13.99
368.788	22.87
368.999	-20.14
369.209	-26.28
369.42	47.44
369.631	67.92
369.842	2.39
370.053	76.12
370.264	37.2
370.474	-5.8
370.685	45.4
370.896	-36.52
371.107	57.68
371.317	-13.99
371.528	35.16
371.739	119.12
371.95	-34.47
372.16	-20.14
372.371	-67.24
372.582	76.12
372.792	12.63
373.003	12.63
373.214	94.55
373.424	-20.14
373.635	-18.09
373.846	2.39
374.056	65.88
374.267	37.2
374.477	26.96
374.688	63.83
374.898	61.78
375.109	18.77
375.319	39.25
375.53	12.63
375.74	24.92
375.951	-20.14
376.161	14.68
376.372	-36.52
376.582	16.73
376.793	-22.19
377.003	67.92
377.214	59.73
377.424	57.68
377.635	-20.14
377.845	-5.8
378.055	14.68
378.266	-11.95
378.476	-5.8
378.686	2.39
378.897	26.96
379.107	-18.09
379.317	-13.99
379.528	31.06
379.738	51.54
379.948	-40.62
380.158	61.78
380.369	24.92
380.579	16.73
380.789	-30.38
380.999	43.35
381.21	-38.57
381.42	39.25
381.63	55.64
381.84	47.44
382.05	16.73
382.261	72.02
382.471	12.63
382.681	10.58
382.891	86.36
383.101	57.68
383.311	-42.67
383.521	-13.99
383.731	6.49
383.941	59.73
384.151	51.54
384.361	-32.43
384.571	41.3
384.781	10.58
384.991	-18.09
385.201	67.92
385.411	29.01
385.621	86.36
385.831	65.88
386.041	100.69
386.251	-11.95
386.461	10.58
386.671	-18.09
386.881	2.39
387.091	-18.09
387.301	-16.04
387.511	6.49
387.72	26.96
387.93	0.34
388.14	-42.67
388.35	51.54
388.56	-1.71
388.769	-22.19
388.979	43.35
389.189	16.73
389.399	-5.8
389.609	-5.8
389.818	24.92
390.028	31.06
390.238	43.35
390.447	37.2
390.657	8.53
390.867	14.68
391.076	-38.57
391.286	-59.05
391.496	35.16
391.705	10.58
391.915	-83.63
392.125	-7.85
392.334	119.12
392.544	10.58
392.753	-3.75
392.963	29.01
393.172	-20.14
393.382	-20.14
393.591	43.35
393.801	6.49
394.01	51.54
394.22	26.96
394.429	72.02
394.639	78.16
394.848	121.17
395.058	16.73
395.267	-7.85
395.477	-9.9
395.686	43.35
395.895	82.26
396.105	47.44
396.314	41.3
396.524	14.68
396.733	47.44
396.942	-57
397.152	76.12
397.361	35.16
397.57	14.68
397.78	78.16
397.989	39.25
398.198	98.64
398.407	2.39
398.617	18.77
398.826	6.49
399.035	51.54
399.244	92.5
399.453	16.73
399.663	53.59
399.872	12.63
400.081	45.4
400.29	33.11
400.499	35.16
400.708	47.44
400.917	12.63
401.127	6.49
401.336	69.97
401.545	125.27
401.754	72.02
401.963	78.16
402.172	-9.9
402.381	-3.75
402.59	22.87
402.799	61.78
403.008	92.5
403.217	-13.99
403.426	61.78
403.635	33.11
403.844	72.02
404.053	-11.95
404.262	35.16
404.471	88.4
404.68	51.54
404.888	37.2
405.097	6.49
405.306	104.79
405.515	59.73
405.724	22.87
405.933	14.68
406.142	158.03
406.35	72.02
406.559	76.12
406.768	84.31
406.977	72.02
407.185	59.73
407.394	35.16
407.603	74.07
407.812	65.88
408.02	65.88
408.229	18.77
408.438	26.96
408.646	63.83
408.855	102.74
409.064	65.88
409.272	110.93
409.481	41.3
409.69	18.77
409.898	59.73
410.107	133.46
410.315	219.47
410.524	16.73
410.733	78.16
410.941	45.4
411.15	104.79
411.358	80.21
411.567	160.08
411.775	115.03
411.984	67.92
412.192	104.79
412.401	104.79
412.609	151.89
412.818	160.08
413.026	182.61
413.234	129.36
413.443	192.85
413.651	155.99
413.86	196.95
414.068	198.99
414.276	168.27
414.485	239.95
414.693	201.04
414.901	147.8
415.11	198.99
415.318	203.09
415.526	198.99
415.734	282.96
415.943	158.03
416.151	301.39
416.359	239.95
416.567	246.1
416.776	254.29
416.984	332.11
417.192	342.35
417.4	274.77
417.608	248.15
417.817	250.19
418.025	307.54
418.233	338.26
418.441	352.59
418.649	366.93
418.857	381.26
419.065	389.46
419.273	354.64
419.481	391.5
419.689	401.74
419.897	395.6
420.105	461.13
420.313	469.33
420.521	545.1
420.729	438.61
420.937	522.57
421.145	604.49
421.353	563.53
421.561	545.1
421.769	586.06
421.977	596.3
422.185	575.82
422.393	616.78
422.601	678.22
422.809	678.22
423.017	655.69
423.224	696.65
423.432	692.55
423.64	774.47
423.848	731.47
424.056	698.7
424.263	786.76
424.471	846.15
424.679	915.78
424.887	926.02
425.094	944.45
425.302	969.03
425.51	1067.33
425.718	960.84
425.925	1007.94
426.133	1067.33
426.341	1116.48
426.548	1157.44
426.756	1175.88
426.964	1143.11
427.171	1268.03
427.379	1241.41
427.586	1263.94
427.794	1378.62
428.001	1411.39
428.209	1378.62
428.417	1448.26
428.624	1499.45
428.832	1599.8
429.039	1601.85
429.247	1491.26
429.454	1644.86
429.662	1689.92
429.869	1716.54
430.076	1728.83
430.284	1777.98
430.491	1734.97
430.699	1870.14
430.906	1921.34
431.114	1880.38
431.321	2062.65
431.528	2126.13
431.736	2111.8
431.943	2197.81
432.15	2103.61
432.358	2242.87
432.565	2371.89
432.772	2369.84
432.979	2447.66
433.187	2447.66
433.394	2498.86
433.601	2634.03
433.808	2662.7
434.016	2652.46
434.223	2777.39
434.43	2959.66
434.637	2906.41
434.844	3111.21
435.052	3098.92
435.259	3111.21
435.466	3123.49
435.673	3129.64
435.88	3248.42
436.087	3551.52
436.294	3420.45
436.501	3402.02
436.708	3481.89
436.915	3498.27
437.122	3737.88
437.329	3549.47
437.537	3844.38
437.743	3881.24
437.95	3787.04
438.157	4055.32
438.364	4184.34
438.571	4204.82
438.778	4268.31
438.985	4595.98
439.192	4462.87
439.399	4536.59
439.606	4479.25
439.813	4714.77
440.02	4933.9
440.227	4897.03
440.433	4800.78
440.64	4927.75
440.847	4892.94
441.054	5081.35
441.261	5562.62
441.467	5449.99
441.674	5482.75
441.881	5714.17
442.088	5603.58
442.294	5603.58
442.501	5794.04
442.708	6002.94
442.914	6080.76
443.121	6246.65
443.328	6279.41
443.534	6834.41
443.741	6744.3
443.948	6396.15
444.154	6822.13
444.361	7024.87
444.568	7090.41
444.774	7006.44
444.981	7053.55
445.187	7207.14
445.394	7647.46
445.6	7440.61
445.807	8181.98
446.013	7897.31
446.22	8009.95
446.426	8259.8
446.633	8300.76
446.839	8605.91
447.046	8374.49
447.252	8847.57
447.459	8816.85
447.665	8931.53
447.871	9029.84
448.078	9578.69
448.284	9296.07
448.491	9486.53
448.697	9660.61
448.903	10062.01
449.11	9922.75
449.316	9875.65
449.522	10111.16
449.728	10309.82
449.935	10328.25
450.141	10449.08
450.347	10748.08
450.553	10373.3
450.76	10678.45
450.966	10825.9
451.172	10770.61
451.378	10916.01
451.584	10944.69
451.791	11202.73
451.997	10991.79
452.203	11174.06
452.409	11346.09
452.615	11028.65
452.821	10668.21
453.027	10811.57
453.233	11143.34
453.44	11022.51
453.646	10897.58
453.852	10989.74
454.058	11176.11
454.264	10946.73
454.47	11133.1
454.676	10791.09
454.882	11446.44
455.088	10244.28
455.294	10412.21
455.5	10682.55
455.705	10608.82
455.911	10176.7
456.117	10098.88
456.323	9793.73
456.529	9414.85
456.735	9771.2
456.941	9494.72
457.147	9494.72
457.352	9085.13
457.558	9165
457.764	9169.1
457.97	8945.87
458.176	8575.19
458.381	8720.59
458.587	8280.28
458.793	8151.26
458.999	7895.26
459.204	8419.54
459.41	8276.18
459.616	7682.27
459.821	7577.83
460.027	7446.76
460.233	7360.74
460.438	7108.84
460.644	7217.38
460.85	6744.3
461.055	6748.4
461.261	6738.16
461.466	6172.92
461.672	6058.23
461.878	6428.92
462.083	5976.31
462.289	5912.83
462.494	5888.25
462.7	5597.44
462.905	5499.14
463.111	5669.12
463.316	5718.27
463.522	5581.06
463.727	5523.71
463.932	5695.74
464.138	5544.19
464.343	5601.54
464.549	5425.41
464.754	5634.3
464.959	5517.57
465.165	5527.81
465.37	5282.05
465.575	5056.78
465.781	5245.19
465.986	5345.54
466.191	5331.2
466.397	5132.55
466.602	4808.97
466.807	4915.47
467.012	4944.14
467.218	5062.92
467.423	4886.79
467.628	4923.66
467.833	5140.74
468.038	4954.38
468.244	4813.07
468.449	4882.7
468.654	4970.76
468.859	4702.48
469.064	4806.92
469.269	4690.19
469.474	4630.8
469.679	4835.6
469.885	4735.25
470.09	4555.02
470.295	4530.45
470.5	4526.35
470.705	4559.12
470.91	4409.62
471.115	4426
471.32	4579.6
471.525	4499.73
471.73	4399.38
471.935	4432.15
472.139	4172.05
472.344	4311.32
472.549	4090.13
472.754	4227.35
472.959	4090.13
473.164	4020.5
473.369	4028.7
473.574	4135.19
473.778	4075.8
473.983	4069.66
474.188	4182.29
474.393	3871
474.598	3846.43
474.802	3914.01
475.007	3795.23
475.212	3721.5
475.417	3768.6
475.621	3598.62
475.826	3731.74
476.031	3658.01
476.235	3467.55
476.44	3582.24
476.645	3619.1
476.849	3635.49
477.054	3422.5
477.259	3477.79
477.463	3512.61
477.668	3395.87
477.872	3240.23
478.077	3434.78
478.282	3322.15
478.486	3232.04
478.691	3227.94
478.895	3197.22
479.1	3141.93
479.304	3289.38
479.509	3137.83
479.713	3080.49
479.918	3113.25
480.122	3055.91
480.326	3152.17
480.531	3031.34
480.735	3121.45
480.94	3086.63
481.144	3176.74
481.348	3078.44
481.553	2994.47
481.757	2961.7
481.961	3062.05
482.166	3092.77
482.37	3062.05
482.574	2976.04
482.778	3035.43
482.983	3115.3
483.187	2918.7
483.391	2953.51
483.595	2928.94
483.8	3027.24
484.004	2969.9
484.208	3017
484.412	3002.66
484.616	3062.05
484.821	3010.86
485.025	2957.61
485.229	3043.62
485.433	3008.81
485.637	3006.76
485.841	3014.95
486.045	2982.18
486.249	3010.86
486.453	2808.11
486.657	3066.15
486.861	3037.48
487.065	2945.32
487.269	3029.29
487.473	3098.92
487.677	3070.25
487.881	2920.74
488.085	3004.71
488.289	3123.49
488.493	3037.48
488.697	3127.59
488.901	2971.94
489.105	3045.67
489.309	3172.64
489.512	3092.77
489.716	2992.42
489.92	3168.55
490.124	3078.44
490.328	3066.15
490.531	3135.78
490.735	3068.2
490.939	3227.94
491.143	3092.77
491.346	3213.6
491.55	3215.65
491.754	3150.12
491.958	3234.08
492.161	3246.37
492.365	3209.51
492.569	3287.33
492.772	3131.69
492.976	3336.48
493.18	3377.44
493.383	3258.66
493.587	3311.91
493.79	3375.39
493.994	3236.13
494.197	3283.24
494.401	3502.37
494.605	3526.94
494.808	3365.15
495.012	3496.22
495.215	3615.01
495.419	3561.76
495.622	3516.7
495.825	3602.72
496.029	3557.66
496.232	3690.78
496.436	3770.65
496.639	3803.42
496.843	3723.55
497.046	3862.81
497.249	3926.3
497.453	3977.5
497.656	4008.22
497.859	3862.81
498.063	4067.61
498.266	4180.25
498.469	4008.22
498.673	4061.46
498.876	4213.01
499.079	4393.23
499.282	4172.05
499.485	4305.17
499.689	4370.71
499.892	4419.86
500.095	4385.04
500.298	4737.29
500.501	4526.35
500.705	4833.55
500.908	4731.15
501.111	4821.26
501.314	4929.8
501.517	4950.28
501.72	4862.22
501.923	4989.19
502.126	5097.74
502.329	5134.6
502.532	5300.48
502.735	5081.35
502.938	5406.98
503.141	5208.33
503.344	5507.33
503.547	5583.1
503.75	5574.91
503.953	5597.44
504.156	5712.13
504.359	5906.68
504.562	5771.52
504.765	5929.21
504.968	6004.99
505.17	6265.08
505.373	5986.55
505.576	6152.44
505.779	6330.61
505.982	6277.37
506.185	6533.36
506.387	6715.63
506.59	6656.24
506.793	6785.26
506.996	6648.05
507.198	7080.17
507.401	6828.27
507.604	7094.51
507.807	7129.32
508.009	7233.77
508.212	7450.85
508.415	7332.07
508.617	7475.43
508.82	7479.52
509.022	7555.3
509.225	7829.73
509.428	7727.33
509.63	7803.1
509.833	7788.77
510.035	8186.07
510.238	8106.2
510.44	8409.3
510.643	8302.81
510.845	8603.86
511.048	8468.69
511.25	8577.23
511.453	8513.75
511.655	8956.11
511.858	8923.34
512.06	9111.75
512.262	8988.88
512.465	9167.05
512.667	9212.1
512.87	9406.66
513.072	9478.34
513.274	9593.03
513.477	9656.51
513.679	9926.85
513.881	9904.32
514.084	10045.63
514.286	10033.34
514.488	9937.09
514.69	10420.41
514.893	10487.99
515.095	10565.81
515.297	10719.41
515.499	10737.84
515.701	10897.58
515.904	10862.77
516.106	11143.34
516.308	11186.35
516.51	11290.79
516.712	11462.82
516.914	11421.86
517.116	11651.24
517.318	11851.94
517.52	11772.07
517.722	11880.61
517.925	12253.34
518.127	12325.02
518.329	12304.54
518.531	12441.75
518.733	12695.7
518.935	12714.13
519.136	12677.27
519.338	13033.61
519.54	13031.57
519.742	13271.18
519.944	13113.49
520.146	13445.26
520.348	13537.41
520.55	13768.84
520.752	13719.68
520.954	13904
521.155	13961.34
521.357	14190.72
521.559	14278.78
521.761	14442.62
521.963	14499.96
522.164	14497.91
522.366	14456.95
522.568	14856.31
522.77	14854.26
522.971	14864.5
523.173	15089.78
523.375	14991.47
523.576	15358.06
523.778	15270
523.98	15452.27
524.181	15460.46
524.383	15435.88
524.584	15728.74
524.786	15890.53
524.988	15812.71
525.189	15876.2
525.391	16017.5
525.592	16316.51
525.794	16314.46
525.995	16316.51
526.197	16216.16
526.398	16230.49
526.6	16676.95
526.801	16697.43
527.003	16595.03
527.204	16734.29
527.406	16554.07
527.607	16830.55
527.808	16906.32
528.01	16777.3
528.211	16887.89
528.412	17381.45
528.614	17190.99
528.815	17268.81
529.016	17446.99
529.218	17262.67
529.419	17211.47
529.62	17563.72
529.822	17168.46
530.023	17598.54
530.224	17647.69
530.425	17688.65
530.626	17221.71
530.828	17188.94
531.029	17795.14
531.23	17508.43
531.431	17631.3
531.632	17664.07
531.833	17721.41
532.035	17866.82
532.236	17948.74
532.437	17887.3
532.638	17827.91
532.839	18137.15
533.04	17741.89
533.241	17616.97
533.442	18067.52
533.643	17983.55
533.844	17684.55
534.045	17698.89
534.246	17958.98
534.447	17954.88
534.648	17926.21
534.849	18020.42
535.05	18073.67
535.251	18223.17
535.451	18122.82
535.652	18073.67
535.853	17967.17
536.054	18141.25
536.255	18108.48
536.456	18020.42
536.657	18083.91
536.857	17938.5
537.058	17887.3
537.259	18182.21
537.46	18155.58
537.66	18120.77
537.861	18233.41
538.062	18102.34
538.263	18104.39
538.463	17989.7
538.664	18047.04
538.865	18376.76
539.065	18245.69
539.266	17930.31
539.466	17924.16
539.667	17948.74
539.868	18114.62
540.068	18034.75
540.269	18036.8
540.469	18305.09
540.67	17854.53
540.87	18040.9
541.071	18085.95
541.271	18374.72
541.472	17993.79
541.672	18090.05
541.873	17848.39
542.073	17846.34
542.274	17999.94
542.474	17774.66
542.675	18067.52
542.875	18231.36
543.075	17956.93
543.276	17905.73
543.476	18069.57
543.676	17799.24
543.877	18024.51
544.077	18221.12
544.277	17864.77
544.478	17872.96
544.678	18159.68
544.878	18169.92
545.078	18008.13
545.279	18042.95
545.479	17934.4
545.679	18157.63
545.879	18071.62
546.079	18092.1
546.28	18325.57
546.48	18174.02
546.68	18139.2
546.88	18188.35
547.08	18112.58
547.28	18042.95
547.48	17920.07
547.68	17764.42
547.88	18014.27
548.081	18001.99
548.281	17985.6
548.481	18090.05
548.681	17793.09
548.881	18034.75
549.081	17829.96
549.28	17754.18
549.48	18104.39
549.68	18067.52
549.88	18262.08
550.08	17762.37
550.28	18116.67
550.48	18014.27
550.68	18102.34
550.88	17756.23
551.08	17991.75
551.279	17856.58
551.479	17662.02
551.679	17862.72
551.879	17756.23
552.079	18094.15
552.278	17844.29
552.478	17995.84
552.678	17840.2
552.878	17977.41
553.077	17809.48
553.277	17789
553.477	18229.31
553.676	17915.97
553.876	17508.43
554.076	17823.81
554.275	17840.2
554.475	17401.93
554.674	17721.41
554.874	17623.11
555.074	17846.34
555.273	17922.12
555.473	17967.17
555.672	17492.04
555.872	17799.24
556.071	17821.77
556.271	17786.95
556.47	17610.82
556.67	17373.26
556.869	17516.62
557.068	17619.02
557.268	17483.85
557.467	17694.79
557.667	17489.99
557.866	17328.2
558.065	17141.84
558.265	17449.04
558.464	17516.62
558.663	17827.91
558.863	17485.9
559.062	17328.2
559.261	17383.5
559.461	17739.85
559.66	17113.17
559.859	17277.01
560.058	17227.85
560.258	17154.13
560.457	17156.18
560.656	17266.77
560.855	17016.91
561.054	17279.05
561.253	17035.35
561.453	17195.09
561.652	17252.43
561.851	17190.99
562.05	16992.34
562.249	16926.8
562.448	17178.7
562.647	16863.32
562.846	16857.17
563.045	16828.5
563.244	16767.06
563.443	17031.25
563.642	16873.56
563.841	16887.89
564.04	16650.33
564.239	16898.13
564.438	16791.64
564.637	16873.56
564.836	16762.97
565.035	16580.7
565.234	16699.48
565.432	16574.55
565.631	16527.45
565.83	16658.52
566.029	16498.78
566.228	16388.19
566.427	16377.95
566.625	16457.82
566.824	16167.01
567.023	16449.63
567.222	16253.02
567.42	16205.92
567.619	16162.91
567.818	16375.9
568.016	16027.74
568.215	16248.93
568.414	16121.95
568.612	16222.3
568.811	15904.87
569.01	15880.29
569.208	15837.28
569.407	15796.32
569.605	15906.91
569.804	15941.73
570.002	15921.25
570.201	15835.24
570.4	15485.03
570.598	15683.69
570.797	15587.43
570.995	15655.01
571.193	15667.3
571.392	15673.45
571.59	15564.9
571.789	15341.68
571.987	15468.65
572.186	15323.24
572.384	15249.52
572.582	15206.51
572.781	15523.94
572.979	15054.96
573.177	15175.79
573.376	15140.97
573.574	15038.58
573.772	15132.78
573.971	15097.97
574.169	15005.81
574.367	14770.29
574.565	15009.9
574.763	14968.94
574.962	14850.16
575.16	14852.21
575.358	14884.98
575.556	14561.4
575.754	14919.79
575.952	14274.68
576.151	14907.51
576.349	14440.57
576.547	14659.7
576.745	14524.54
576.943	14536.82
577.141	14530.68
577.339	14493.82
577.537	14348.41
577.735	14467.19
577.933	14207.1
578.131	14317.69
578.329	14424.19
578.527	14037.12
578.725	14084.22
578.923	14280.83
579.121	13951.1
579.319	14006.4
579.516	14266.49
579.714	13957.25
579.912	13820.03
580.11	13711.49
580.308	13981.82
580.506	13994.11
580.704	13713.54
580.901	13793.41
581.099	13854.85
581.297	13691.01
581.495	13576.33
581.692	13664.39
581.89	13695.11
582.088	13420.68
582.285	13465.74
582.483	13361.29
582.681	13482.12
582.878	13379.72
583.076	13568.13
583.274	13242.51
583.471	13322.38
583.669	13353.1
583.866	13025.42
584.064	12918.93
584.262	13219.98
584.459	13146.25
584.657	12959.89
584.854	13250.7
585.052	12994.7
585.249	12857.49
585.447	13107.34
585.644	12814.48
585.841	13045.9
586.039	12783.76
586.236	12699.8
586.434	12593.3
586.631	12421.27
586.828	12740.75
587.026	12525.72
587.223	12771.47
587.42	12593.3
587.618	12660.88
587.815	12337.31
588.012	12343.45
588.21	12562.58
588.407	12503.19
588.604	12368.02
588.801	12169.37
588.999	12263.58
589.196	12103.84
589.393	12232.86
589.59	12259.48
589.787	12161.18
589.984	12062.88
590.182	11896.99
590.379	12212.38
590.576	11931.81
590.773	12116.12
590.97	11827.36
591.167	11946.14
591.364	11759.78
591.561	12032.16
591.758	11823.26
591.955	11759.78
592.152	11786.4
592.349	11491.49
592.546	11724.96
592.743	11614.37
592.94	11311.27
593.137	11686.05
593.334	11464.87
593.531	11348.14
593.727	11589.8
593.924	11505.83
594.121	11385
594.318	11399.34
594.515	11307.18
594.712	11407.53
594.908	11110.57
595.105	11428.01
595.302	11278.51
595.499	11077.8
595.696	11143.34
595.892	10973.36
596.089	11071.66
596.286	11108.52
596.482	11106.48
596.679	10868.91
596.876	10971.31
597.072	11020.46
597.269	10905.77
597.466	10651.83
597.662	10752.18
597.859	11030.7
598.055	10840.24
598.252	10635.44
598.448	10743.99
598.645	10760.37
598.841	10442.93
599.038	10692.79
599.234	10586.29
599.431	10649.78
599.627	10565.81
599.824	10584.24
600.02	10518.71
600.217	10434.74
600.413	10420.41
600.609	10268.86
600.806	10242.23
601.002	10428.6
601.198	10193.08
601.395	10055.87
601.591	10324.15
601.787	10254.52
601.984	10143.93
602.18	10207.42
602.376	10014.91
602.572	9900.22
602.769	10031.29
602.965	9881.79
603.161	9842.88
603.357	9980.09
603.553	9877.69
603.75	9832.64
603.946	9863.36
604.142	9908.41
604.338	9779.39
604.534	9644.23
604.73	9681.09
604.926	9511.11
605.122	9654.47
605.318	9623.75
605.514	9691.33
605.71	9382.09
605.906	9500.87
606.102	9527.49
606.298	9615.55
606.494	9679.04
606.69	9398.47
606.886	9328.84
607.082	9412.81
607.278	9267.4
607.474	9048.27
607.67	9283.78
607.866	9128.14
608.062	9212.1
608.257	9343.17
608.453	9359.56
608.649	9234.63
608.845	9136.33
609.041	9017.55
609.236	9240.78
609.432	9189.58
609.628	9038.03
609.824	8992.97
610.019	9138.38
610.215	9150.67
610.411	9003.21
610.606	8909.01
610.802	8956.11
610.998	8849.61
611.193	8792.27
611.389	8722.64
611.584	8777.94
611.78	8779.98
611.976	8730.83
612.171	8796.37
612.367	8751.31
612.562	8825.04
612.758	8614.1
612.953	8638.67
613.149	8843.47
613.344	8657.11
613.539	8741.07
613.735	8724.69
613.93	8749.26
614.126	8497.36
614.321	8730.83
614.517	8450.26
614.712	8509.65
614.907	8521.94
615.103	8669.39
615.298	8356.05
615.493	8415.44
615.688	8341.72
615.884	8724.69
616.079	8415.44
616.274	8462.55
616.47	8349.91
616.665	8382.68
616.86	8394.97
617.055	8255.7
617.25	8138.97
617.445	8327.38
617.641	8261.85
617.836	8257.75
618.031	8298.71
618.226	8149.21
618.421	8337.62
618.616	8112.35
618.811	8046.81
619.006	8136.92
619.201	7973.08
619.396	8028.38
619.591	7856.35
619.786	7987.42
619.981	7870.69
620.176	7893.21
620.371	7696.61
620.566	7907.55
620.761	7811.29
620.956	7706.85
621.151	7663.84
621.346	7725.28
621.541	7676.13
621.735	7604.45
621.93	7526.63
622.125	7520.48
622.32	7416.04
622.515	7500
622.709	7258.34
622.904	7633.12
623.099	7280.87
623.294	7276.77
623.488	7071.98
623.683	7160.04
623.878	7311.59
624.072	7069.93
624.267	7129.32
624.462	7211.24
624.656	7065.83
624.851	7080.17
625.046	6887.66
625.24	6883.56
625.435	6809.84
625.629	6879.47
625.824	6732.01
626.018	6869.23
626.213	6725.87
626.407	6844.65
626.602	6680.82
626.796	6580.46
626.991	6623.47
627.185	6625.52
627.38	6347
627.574	6297.85
627.768	6494.45
627.963	6476.02
628.157	6392.05
628.352	6451.44
628.546	6387.96
628.74	6295.8
628.935	6220.02
629.129	6144.25
629.323	6154.49
629.517	6088.95
629.712	6402.29
629.906	6236.41
630.1	6050.04
630.294	6035.71
630.489	5976.31
630.683	6000.89
630.877	6101.24
631.071	5849.34
631.265	5767.42
631.459	5779.71
631.653	5988.6
631.848	5816.57
632.042	5853.44
632.236	5626.11
632.43	5804.28
632.624	5777.66
632.818	5662.97
633.012	5564.67
633.206	5482.75
633.4	5703.93
633.594	5662.97
633.788	5517.57
633.982	5486.85
634.176	5468.42
634.369	5449.99
634.563	5402.88
634.757	5384.45
634.951	5363.97
635.145	5228.81
635.339	5302.53
635.533	5165.32
635.726	5310.72
635.92	5024.01
636.114	5185.8
636.308	5028.1
636.501	5146.89
636.695	5130.5
636.889	4940.04
637.083	4991.24
637.276	4935.95
637.47	5019.91
637.664	4933.9
637.857	5124.36
638.051	4905.23
638.244	4862.22
638.438	4878.6
638.632	4845.84
638.825	4733.2
639.019	4786.44
639.212	4706.57
639.406	4575.5
639.599	4733.2
639.793	4692.24
639.986	4485.39
640.18	4534.54
640.373	4477.2
640.567	4593.94
640.76	4540.69
640.954	4598.03
641.147	4278.55
641.34	4419.86
641.534	4440.34
641.727	4419.86
641.92	4401.43
642.114	4305.17
642.307	4327.7
642.5	4458.77
642.694	4200.73
642.887	4045.08
643.08	4348.18
643.273	4081.94
643.467	4217.11
643.66	4188.44
643.853	3891.48
644.046	3987.74
644.239	3991.83
644.432	4034.84
644.626	4094.23
644.819	3934.49
645.012	3975.45
645.205	3954.97
645.398	3936.54
645.591	3969.3
645.784	3823.9
645.977	3920.15
646.17	3883.29
646.363	3961.11
646.556	3612.96
646.749	3737.88
646.942	3719.45
647.135	3672.35
647.328	3805.47
647.521	3666.21
647.714	3496.22
647.907	3664.16
648.099	3612.96
648.292	3514.66
648.485	3610.91
648.678	3426.59
648.871	3522.85
649.064	3551.52
649.256	3504.42
649.449	3356.96
649.642	3485.98
649.835	3297.57
650.027	3385.63
650.22	3488.03
650.413	3311.91
650.605	3168.55
650.798	3332.39
650.991	3205.41
651.183	3248.42
651.376	3191.08
651.568	3285.28
651.761	3125.54
651.954	3254.56
652.146	3221.8
652.339	3242.28
652.531	3186.98
652.724	3189.03
652.916	3164.45
653.109	3057.96
653.301	3113.25
653.494	3041.57
653.686	2904.36
653.879	2984.23
654.071	2963.75
654.263	3094.82
654.456	2930.98
654.648	2978.09
654.84	2879.79
655.033	2910.5
655.225	3023.14
655.417	3014.95
655.61	2943.27
655.802	3033.38
655.994	2877.74
656.186	2771.24
656.379	2996.52
656.571	2826.54
656.763	2705.71
656.955	2865.45
657.148	2728.24
657.34	2750.76
657.532	2758.96
657.724	2744.62
657.916	2707.76
658.108	2787.63
658.3	2660.65
658.492	2586.93
658.684	2554.16
658.876	2652.46
659.068	2648.36
659.26	2609.45
659.452	2660.65
659.644	2623.79
659.836	2574.64
660.028	2664.75
660.22	2425.14
660.412	2533.68
660.604	2449.71
660.796	2474.29
660.988	2511.15
661.18	2429.23
661.372	2388.27
661.563	2287.92
661.755	2298.16
661.947	2384.18
662.139	2328.88
662.331	2457.9
662.522	2396.46
662.714	2339.12
662.906	2353.46
663.097	2310.45
663.289	2271.54
663.481	2300.21
663.673	2310.45
663.864	2292.02
664.056	2146.61
664.247	2306.35
664.439	2160.95
664.631	2181.43
664.822	2236.72
665.014	2169.14
665.205	2251.06
665.397	2197.81
665.588	2167.09
665.78	2169.14
665.971	2076.98
666.163	2091.32
666.354	2038.07
666.546	2122.04
666.737	2107.7
666.929	1974.58
667.12	2042.17
667.311	2046.26
667.503	2031.93
667.694	2050.36
667.885	2097.46
668.077	2015.54
668.268	1927.48
668.459	2029.88
668.651	2038.07
668.842	1962.3
669.033	1925.43
669.224	1845.56
669.416	1911.1
669.607	1974.58
669.798	1878.33
669.989	1851.71
670.18	1917.24
670.371	1870.14
670.563	1943.86
670.754	1833.27
670.945	1866.04
671.136	1853.75
671.327	1794.36
671.518	1884.47
671.709	1843.51
671.9	1771.83
672.091	1894.71
672.282	1792.31
672.473	1780.03
672.664	1753.4
672.855	1786.17
673.046	1919.29
673.237	1763.64
673.428	1814.84
673.619	1782.07
673.809	1767.74
674	1800.51
674.191	1757.5
674.382	1667.39
674.573	1788.22
674.764	1730.87
674.954	1788.22
675.145	1616.19
675.336	1646.91
675.527	1730.87
675.717	1722.68
675.908	1724.73
676.099	1665.34
676.289	1667.39
676.48	1730.87
676.671	1601.85
676.861	1696.06
677.052	1780.03
677.243	1679.68
677.433	1642.81
677.624	1620.28
677.814	1626.43
678.005	1634.62
678.195	1671.48
678.386	1630.52
678.576	1634.62
678.767	1546.56
678.957	1548.61
679.148	1648.96
679.338	1571.13
679.529	1507.65
679.719	1620.28
679.909	1669.44
680.1	1624.38
680.29	1567.04
680.481	1583.42
680.671	1583.42
680.861	1601.85
681.052	1661.24
681.242	1657.15
681.432	1599.8
681.622	1560.89
681.813	1562.94
682.003	1569.09
682.193	1536.32
682.383	1630.52
682.573	1608
682.764	1585.47
682.954	1517.89
683.144	1501.5
683.334	1550.65
683.524	1583.42
683.714	1657.15
683.904	1689.92
684.094	1478.97
684.284	1517.89
684.474	1648.96
684.664	1552.7
684.854	1509.69
685.044	1487.17
685.234	1546.56
685.424	1628.48
685.614	1591.61
685.804	1556.8
685.994	1513.79
686.184	1499.45
686.374	1558.85
686.564	1519.93
686.753	1495.36
686.943	1517.89
687.133	1585.47
687.323	1431.87
687.513	1569.09
687.702	1415.49
687.892	1550.65
688.082	1470.78
688.272	1491.26
688.461	1438.02
688.651	1567.04
688.841	1448.26
689.03	1548.61
689.22	1452.35
689.41	1497.41
689.599	1485.12
689.789	1513.79
689.979	1564.99
690.168	1427.78
690.358	1534.27
690.547	1536.32
690.737	1460.54
690.926	1507.65
691.116	1419.58
691.305	1417.54
691.495	1403.2
691.684	1456.45
691.874	1425.73
692.063	1442.11
692.252	1509.69
692.442	1462.59
692.631	1390.91
692.82	1431.87
693.01	1495.36
693.199	1411.39
693.388	1397.06
693.578	1429.82
693.767	1517.89
693.956	1431.87
694.146	1517.89
694.335	1413.44
694.524	1468.73
694.713	1335.62
694.902	1413.44
695.092	1388.86
695.281	1366.34
695.47	1380.67
695.659	1444.16
695.848	1407.3
696.037	1392.96
696.226	1415.49
696.415	1476.93
696.604	1438.02
696.793	1272.13
696.982	1448.26
697.171	1352
697.36	1341.76
697.549	1333.57
697.738	1343.81
697.927	1304.9
698.116	1431.87
698.305	1358.14
698.494	1366.34
698.683	1345.86
698.872	1329.47
699.061	1460.54
699.25	1411.39
699.438	1300.8
699.627	1315.14
699.816	1337.66
700.005	1390.91
700.193	1368.38
700.382	1274.18
700.571	1294.66
700.76	1323.33
700.948	1298.75
701.137	1257.79
701.326	1296.71
701.514	1358.14
701.703	1395.01
701.892	1435.97
702.08	1349.95
702.269	1276.23
702.457	1300.8
702.646	1347.9
702.834	1325.38
703.023	1243.46
703.212	1395.01
703.4	1280.32
703.589	1265.99
703.777	1278.27
703.965	1263.94
704.154	1202.5
704.342	1292.61
704.531	1239.36
704.719	1231.17
704.907	1253.7
705.096	1333.57
705.284	1339.71
705.472	1261.89
705.661	1249.6
705.849	1354.05
706.037	1204.55
706.226	1255.75
706.414	1239.36
706.602	1259.84
706.79	1225.03
706.979	1149.25
707.167	1206.59
707.355	1194.31
707.543	1179.97
707.731	1327.43
707.919	1227.07
708.107	1104.2
708.296	1149.25
708.484	1206.59
708.672	1233.22
708.86	1239.36
709.048	1188.16
709.236	1202.5
709.424	1179.97
709.612	1149.25
709.8	1163.59
709.988	1126.72
710.176	1212.74
710.364	1214.79
710.551	1161.54
710.739	1145.16
710.927	1218.88
711.115	1198.4
711.303	1102.15
711.491	1200.45
711.679	1116.48
711.866	1192.26
712.054	1139.01
712.242	1153.35
712.43	1145.16
712.617	1157.44
712.805	1126.72
712.993	1163.59
713.181	1026.37
713.368	1190.21
713.556	1114.44
713.744	1046.85
713.931	1038.66
714.119	1141.06
714.306	1200.45
714.494	1053
714.682	1128.77
714.869	1077.57
715.057	1075.52
715.244	1102.15
715.432	1116.48
715.619	1075.52
715.807	1100.1
715.994	1157.44
716.182	1104.2
716.369	1182.02
716.556	1042.76
716.744	1055.05
716.931	1024.33
717.119	1124.68
717.306	1016.13
717.493	1091.91
717.681	1016.13
717.868	989.51
718.055	1050.95
718.242	962.89
718.43	1040.71
718.617	1161.54
718.804	942.41
718.991	1075.52
719.179	1132.87
719.366	1003.85
719.553	1018.18
719.74	1108.29
719.927	1079.62
720.114	1083.72
720.301	985.41
720.488	1036.61
720.676	1046.85
720.863	1065.29
721.05	1114.44
721.237	960.84
721.424	1059.14
721.611	1069.38
721.798	1091.91
721.985	1042.76
722.172	997.7
722.358	948.55
722.545	997.7
722.732	995.65
722.919	979.27
723.106	1014.09
723.293	966.98
723.48	1022.28
723.667	903.5
723.853	938.31
724.04	950.6
724.227	1048.9
724.414	934.22
724.6	930.12
724.787	973.13
724.974	1050.95
725.161	973.13
725.347	960.84
725.534	921.93
725.72	966.98
725.907	938.31
726.094	1009.99
726.28	921.93
726.467	1007.94
726.653	987.46
726.84	940.36
727.027	964.93
727.213	952.65
727.4	915.78
727.586	923.98
727.773	1001.8
727.959	930.12
728.145	897.35
728.332	954.69
728.518	844.1
728.705	973.13
728.891	907.59
729.077	958.79
729.264	993.61
729.45	891.21
729.636	940.36
729.823	960.84
730.009	878.92
730.195	897.35
730.382	964.93
730.568	948.55
730.754	872.78
730.94	891.21
731.126	887.11
731.313	995.65
731.499	952.65
731.685	950.6
731.871	944.45
732.057	934.22
732.243	825.67
732.429	895.3
732.615	948.55
732.801	825.67
732.987	864.58
733.173	889.16
733.359	934.22
733.545	938.31
733.731	860.49
733.917	807.24
734.103	899.4
734.289	915.78
734.475	903.5
734.661	969.03
734.847	856.39
735.033	926.02
735.219	846.15
735.404	766.28
735.59	850.25
735.776	821.58
735.962	938.31
736.148	907.59
736.333	891.21
736.519	803.15
736.705	831.82
736.89	831.82
737.076	876.87
737.262	840.01
737.447	858.44
737.633	811.34
737.819	817.48
738.004	780.62
738.19	829.77
738.375	926.02
738.561	866.63
738.747	815.43
738.932	813.38
739.118	770.38
739.303	807.24
739.489	876.87
739.674	739.66
739.859	801.1
740.045	821.58
740.23	821.58
740.416	747.85
740.601	811.34
740.786	854.34
740.972	799.05
741.157	788.81
741.342	739.66
741.528	776.52
741.713	741.71
741.898	833.86
742.084	821.58
742.269	758.09
742.454	874.82
742.639	805.19
742.824	745.8
743.01	631.12
743.195	778.57
743.38	848.2
743.565	741.71
743.75	817.48
743.935	794.95
744.12	729.42
744.305	739.66
744.49	764.23
744.675	764.23
744.86	756.04
745.045	731.47
745.23	749.9
745.415	745.8
745.6	758.09
745.785	739.66
745.97	756.04
746.155	737.61
746.34	788.81
746.525	624.97
746.71	661.84
746.895	676.17
747.079	706.89
747.264	631.12
747.449	676.17
747.634	643.4
747.819	670.03
748.003	688.46
748.188	655.69
748.373	727.37
748.557	643.4
748.742	680.27
748.927	647.5
749.111	641.36
749.296	663.88
749.481	686.41
749.665	637.26
749.85	637.26
750.034	667.98
750.219	667.98
750.404	698.7
750.588	641.36
750.773	647.5
750.957	616.78
751.141	616.78
751.326	616.78
751.51	559.44
751.695	627.02
751.879	563.53
752.064	586.06
752.248	659.79
752.432	635.21
752.617	563.53
752.801	559.44
752.985	520.53
753.17	510.29
753.354	569.68
753.538	549.2
753.722	543.05
753.907	584.01
754.091	532.81
754.275	518.48
754.459	477.52
754.643	545.1
754.828	520.53
755.012	438.61
755.196	567.63
755.38	563.53
755.564	536.91
755.748	543.05
755.932	489.81
756.116	592.2
756.3	547.15
756.484	471.37
756.668	510.29
756.852	477.52
757.036	444.75
757.22	549.2
757.404	485.71
757.588	469.33
757.772	487.76
757.956	459.09
758.14	436.56
758.323	526.67
758.507	563.53
758.691	448.85
758.875	448.85
759.059	450.89
759.242	469.33
759.426	444.75
759.61	471.37
759.794	381.26
759.977	436.56
760.161	534.86
760.345	375.12
760.528	481.61
760.712	414.03
760.895	424.27
761.079	477.52
761.263	444.75
761.446	373.07
761.63	446.8
761.813	430.41
761.997	395.6
762.18	454.99
762.364	420.17
762.547	440.65
762.731	342.35
762.914	493.9
763.098	371.02
763.281	291.15
763.464	438.61
763.648	405.84
763.831	407.89
764.015	373.07
764.198	377.17
764.381	332.11
764.564	430.41
764.748	405.84
764.931	379.22
765.114	430.41
765.297	409.94
765.481	364.88
765.664	440.65
765.847	393.55
766.03	368.98
766.213	375.12
766.397	387.41
766.58	334.16
766.763	448.85
766.946	364.88
767.129	436.56
767.312	360.78
767.495	291.15
767.678	344.4
767.861	379.22
768.044	350.54
768.227	346.45
768.41	364.88
768.593	379.22
768.776	401.74
768.959	395.6
769.142	352.59
769.324	379.22
769.507	379.22
769.69	387.41
769.873	352.59
770.056	399.7
770.239	301.39
770.421	344.4
770.604	311.63
770.787	364.88
770.97	366.93
771.152	256.34
771.335	373.07
771.518	321.87
771.7	338.26
771.883	350.54
772.066	356.69
772.248	354.64
772.431	297.3
772.613	289.1
772.796	317.78
772.978	338.26
773.161	362.83
773.343	287.06
773.526	244.05
773.708	385.36
773.891	274.77
774.073	323.92
774.256	321.87
774.438	325.97
774.621	301.39
774.803	297.3
774.985	266.58
775.168	334.16
775.35	276.82
775.532	313.68
775.715	328.02
775.897	307.54
776.079	256.34
776.261	356.69
776.444	282.96
776.626	270.67
776.808	282.96
776.99	276.82
777.173	266.58
777.355	223.57
777.537	301.39
777.719	311.63
777.901	289.1
778.083	254.29
778.265	254.29
778.447	196.95
778.629	346.45
778.811	280.91
778.993	223.57
779.175	317.78
779.357	211.28
779.539	264.53
779.721	319.82
779.903	252.24
780.085	211.28
780.267	235.86
780.449	209.23
780.631	252.24
780.812	209.23
780.994	246.1
781.176	274.77
781.358	205.14
781.54	201.04
781.721	196.95
781.903	252.24
782.085	176.47
782.267	192.85
782.448	164.18
782.63	198.99
782.812	151.89
782.993	223.57
783.175	182.61
783.357	211.28
783.538	264.53
783.72	211.28
783.901	233.81
784.083	172.37
784.264	201.04
784.446	141.65
784.627	203.09
784.809	233.81
784.99	102.74
785.172	174.42
785.353	176.47
785.535	180.56
785.716	209.23
785.897	162.13
786.079	254.29
786.26	158.03
786.441	190.8
786.623	172.37
786.804	211.28
786.985	196.95
787.167	125.27
787.348	108.88
787.529	151.89
787.71	139.6
787.891	246.1
788.073	162.13
788.254	190.8
788.435	174.42
788.616	221.52
788.797	153.94
788.978	141.65
789.159	166.23
789.34	149.84
789.522	145.75
789.703	104.79
789.884	158.03
790.065	149.84
790.246	254.29
790.427	72.02
790.607	149.84
790.788	104.79
790.969	80.21
791.15	129.36
791.331	153.94
791.512	37.2
791.693	121.17
791.874	125.27
792.054	168.27
792.235	100.69
792.416	102.74
792.597	182.61
792.778	145.75
792.958	143.7
793.139	194.9
793.32	125.27
793.5	149.84
793.681	100.69
793.862	151.89
794.042	117.08
794.223	145.75
794.404	121.17
794.584	115.03
794.765	39.25
794.945	119.12
795.126	112.98
795.306	80.21
795.487	121.17
795.667	80.21
795.848	121.17
796.028	196.95
796.209	135.51
796.389	74.07
796.57	131.41
796.75	121.17
796.93	108.88
797.111	117.08
797.291	166.23
797.471	112.98
797.652	100.69
797.832	110.93
798.012	102.74
798.192	133.46
798.373	127.32
798.553	166.23
798.733	55.64
798.913	29.01
799.093	129.36
799.274	115.03
799.454	31.06
799.634	80.21
799.814	123.22
799.994	182.61
800.174	143.7
800.354	76.12
800.534	43.35
800.714	69.97
800.894	31.06
801.074	98.64
801.254	192.85
801.434	112.98
801.614	69.97
801.794	86.36
801.974	430.41
802.154	59.73
802.334	119.12
802.514	117.08
802.693	102.74
802.873	125.27
803.053	123.22
803.233	41.3
803.413	170.32
803.592	61.78
803.772	67.92
803.952	69.97
804.131	135.51
804.311	72.02
804.491	29.01
804.67	92.5
804.85	119.12
805.03	121.17
805.209	121.17
805.389	63.83
805.568	74.07
805.748	33.11
805.928	133.46
806.107	69.97
806.287	84.31
806.466	88.4
806.646	53.59
806.825	51.54
807.004	90.45
807.184	-3.75
807.363	125.27
807.543	84.31
807.722	88.4
807.901	65.88
808.081	76.12
808.26	35.16
808.439	110.93
808.619	67.92
808.798	55.64
808.977	4.44
809.156	18.77
809.336	74.07
809.515	145.75
809.694	72.02
809.873	117.08
810.052	102.74
810.231	51.54
810.411	102.74
810.59	47.44
810.769	104.79
810.948	10.58
811.127	10.58
811.306	51.54
811.485	51.54
811.664	51.54
811.843	-5.8
812.022	0.34
812.201	74.07
812.38	110.93
812.559	104.79
812.737	57.68
812.916	26.96
813.095	35.16
813.274	80.21
813.453	51.54
813.632	53.59
813.811	84.31
813.989	108.88
814.168	59.73
814.347	-11.95
814.526	12.63
814.704	37.2
814.883	108.88
815.062	4.44
815.24	51.54
815.419	8.53
815.598	117.08
815.776	-18.09
815.955	12.63
816.133	92.5
816.312	41.3
816.49	10.58
816.669	96.6
816.847	45.4
817.026	37.2
817.204	63.83
817.383	123.22
817.561	8.53
817.74	29.01
817.918	-1.71
818.097	57.68
818.275	-59.05
818.453	53.59
818.632	47.44
818.81	84.31
818.988	80.21
819.167	0.34
819.345	12.63
819.523	63.83
819.701	4.44
819.879	65.88
820.058	37.2
820.236	47.44
820.414	39.25
820.592	51.54
820.77	-28.33
820.948	18.77
821.127	106.84
821.305	127.32
821.483	72.02
821.661	22.87
821.839	-16.04
822.017	24.92
822.195	2.39
822.373	49.49
822.551	26.96
822.729	135.51
822.907	2.39
823.085	47.44
823.262	76.12
823.44	47.44
823.618	45.4
823.796	59.73
823.974	74.07
824.152	14.68
824.329	-30.38
824.507	115.03
824.685	24.92
824.863	41.3
825.04	20.82
825.218	18.77
825.396	65.88
825.574	57.68
825.751	16.73
825.929	45.4
826.107	4.44
826.284	14.68
826.462	33.11
826.639	12.63
826.817	31.06
826.994	76.12
827.172	53.59
827.349	55.64
827.527	-44.71
827.704	39.25
827.882	26.96
828.059	53.59
828.237	80.21
828.414	51.54
828.591	-59.05
828.769	86.36
828.946	26.96
829.124	31.06
829.301	20.82
829.478	61.78
829.655	18.77
829.833	59.73
830.01	51.54
830.187	10.58
830.364	-9.9
830.542	55.64
830.719	51.54
830.896	110.93
831.073	-50.86
831.25	26.96
831.427	8.53
831.604	29.01
831.782	67.92
831.959	59.73
832.136	51.54
832.313	72.02
832.49	18.77
832.667	61.78
832.844	-9.9
833.021	-13.99
833.198	67.92
833.374	-48.81
833.551	-1.71
833.728	18.77
833.905	8.53
834.082	35.16
834.259	37.2
834.436	20.82
834.612	18.77
834.789	20.82
834.966	12.63
835.143	-1.71
835.319	100.69
835.496	80.21
835.673	6.49
835.85	47.44
836.026	-13.99
836.203	53.59
836.38	-11.95
836.556	29.01
836.733	-1.71
836.909	29.01
837.086	51.54
837.262	-18.09
837.439	92.5
837.616	-3.75
837.792	-5.8
837.968	26.96
838.145	-16.04
838.321	88.4
838.498	-52.91
838.674	10.58
838.851	4.44
839.027	26.96
839.203	12.63
839.38	20.82
839.556	18.77
839.732	35.16
839.909	16.73
840.085	96.6
840.261	8.53
840.437	10.58
840.614	26.96
840.79	12.63
840.966	33.11
841.142	8.53
841.318	-20.14
841.494	26.96
841.671	8.53
841.847	-44.71
842.023	14.68
842.199	47.44
842.375	-16.04
842.551	69.97
842.727	-1.71
842.903	-3.75
843.079	8.53
843.255	76.12
843.431	-1.71
843.607	20.82
843.783	24.92
843.959	-9.9
844.134	45.4
844.31	61.78
844.486	-26.28
844.662	-3.75
844.838	43.35
845.013	18.77
845.189	-36.52
845.365	86.36
845.541	26.96
845.716	80.21
845.892	12.63
846.068	29.01
846.244	-75.43
846.419	-28.33
846.595	29.01
846.77	51.54
846.946	-5.8
847.122	20.82
847.297	2.39
847.473	37.2
847.648	45.4
847.824	53.59
847.999	55.64
848.175	37.2
848.35	45.4
848.526	59.73
848.701	59.73
848.876	26.96
849.052	35.16
849.227	26.96
849.403	12.63
849.578	61.78
849.753	41.3
849.929	26.96
850.104	2.39
850.279	35.16
850.454	-16.04
850.63	-1.71
850.805	53.59
850.98	39.25
851.155	39.25
851.33	-22.19
851.505	24.92
851.681	80.21
851.856	72.02
852.031	43.35
852.206	8.53
852.381	55.64
852.556	6.49
852.731	61.78
852.906	14.68
853.081	26.96
853.256	39.25
853.431	10.58
853.606	26.96
853.781	-36.52
853.956	-9.9
854.131	-59.05
854.305	47.44
854.48	35.16
854.655	84.31
854.83	-34.47
855.005	39.25
855.18	20.82
855.354	-36.52
855.529	2.39
855.704	4.44
855.879	59.73
856.053	102.74
856.228	4.44
856.403	6.49
856.577	39.25
856.752	-20.14
856.926	4.44
857.101	-50.86
857.276	-65.19
857.45	12.63
857.625	31.06
857.799	-18.09
857.974	43.35
858.148	-18.09
858.323	-3.75
858.497	14.68
858.672	37.2
858.846	-16.04
859.02	51.54
859.195	26.96
859.369	43.35
859.543	29.01
859.718	78.16
859.892	16.73
860.066	-11.95
860.241	31.06
860.415	53.59
860.589	-30.38
860.763	-32.43
860.938	45.4
861.112	35.16
861.286	12.63
861.46	43.35
861.634	90.45
861.808	43.35
861.982	55.64
862.157	-22.19
862.331	45.4
862.505	8.53
862.679	-20.14
862.853	14.68
863.027	51.54
863.201	35.16
863.375	-26.28
863.549	-28.33
863.722	0.34
863.896	51.54
864.07	47.44
864.244	-22.19
864.418	-26.28
864.592	-5.8
864.766	-38.57
864.939	10.58
865.113	-22.19
865.287	-9.9
865.461	-3.75
865.634	-11.95
865.808	-20.14
865.982	2.39
866.156	-18.09
866.329	4.44
866.503	12.63
866.676	47.44
866.85	18.77
867.024	-13.99
867.197	-9.9
867.371	20.82
867.544	69.97
867.718	-5.8
867.891	-52.91
868.065	-36.52
868.238	-61.1
868.412	47.44
868.585	-28.33
868.759	-3.75
868.932	-18.09
869.105	74.07
869.279	14.68
869.452	-5.8
869.625	-32.43
869.799	14.68
869.972	-16.04
870.145	-24.23
870.319	6.49
870.492	-46.76
870.665	-13.99
870.838	-34.47
871.011	-16.04
871.185	80.21
871.358	16.73
871.531	-71.34
871.704	8.53
871.877	43.35
872.05	-54.95
872.223	16.73
872.396	10.58
872.569	47.44
872.742	-40.62
872.915	-5.8
873.088	-1.71
873.261	-22.19
873.434	22.87
873.607	24.92
873.78	20.82
873.953	47.44
874.126	-48.81
874.299	-18.09
874.471	39.25
874.644	53.59
874.817	-7.85
874.99	35.16
875.163	-9.9
875.335	10.58
875.508	-22.19
875.681	-40.62
875.853	-28.33
876.026	31.06
876.199	-26.28
876.371	26.96
876.544	24.92
876.717	-52.91
876.889	37.2
877.062	-24.23
877.234	-16.04
877.407	-73.39
877.579	8.53
877.752	-71.34
877.924	53.59
878.097	-13.99
878.269	31.06
878.442	-5.8
878.614	18.77
878.786	45.4
878.959	2.39
879.131	4.44
879.303	-20.14
879.476	18.77
879.648	86.36
879.82	4.44
879.993	-40.62
880.165	-22.19
880.337	18.77
880.509	61.78
880.681	14.68
880.854	8.53
881.026	-24.23
881.198	-16.04
881.37	39.25
881.542	22.87
881.714	55.64
881.886	-40.62
882.058	-9.9
882.23	-30.38
882.402	-16.04
882.574	-50.86
882.746	18.77
882.918	31.06
883.09	-61.1
883.262	65.88
883.434	-34.47
883.606	20.82
883.778	29.01
883.95	14.68
884.122	26.96
884.293	35.16
884.465	12.63
884.637	90.45
884.809	-59.05
884.98	-20.14
885.152	-28.33
885.324	20.82
885.496	0.34
885.667	2.39
885.839	-13.99
886.011	0.34
886.182	22.87
886.354	-7.85
886.525	-32.43
886.697	-38.57
886.869	-16.04
887.04	-79.53
887.212	2.39
887.383	45.4
887.555	-16.04
887.726	-9.9
887.897	18.77
888.069	-26.28
888.24	72.02
888.412	-48.81
888.583	-46.76
888.754	39.25
888.926	-28.33
889.097	-46.76
889.268	-9.9
889.44	72.02
889.611	-20.14
889.782	14.68
889.953	-5.8
890.125	-16.04
890.296	-44.71
890.467	-11.95
890.638	20.82
890.809	39.25
890.98	-20.14
891.151	24.92
891.323	-13.99
891.494	2.39
891.665	67.92
891.836	14.68
892.007	-9.9
892.178	-38.57
892.349	-36.52
892.52	0.34
892.691	-46.76
892.862	29.01
893.032	31.06
893.203	-20.14
893.374	39.25
893.545	-18.09
893.716	2.39
893.887	-5.8
894.057	4.44
894.228	88.4
894.399	-5.8
894.57	53.59
894.74	35.16
894.911	53.59
895.082	26.96
895.253	26.96
895.423	0.34
895.594	61.78
895.764	-20.14
895.935	41.3
896.106	-1.71
896.276	-30.38
896.447	84.31
896.617	45.4
896.788	20.82
896.958	86.36
897.129	12.63
897.299	-16.04
897.47	-5.8
897.64	10.58
897.81	31.06
897.981	-44.71
898.151	-65.19
898.322	2.39
898.492	10.58
898.662	2.39
898.832	53.59
899.003	0.34
899.173	47.44
899.343	-20.14
899.513	-22.19
