Data from USB4F104151__4__12-58-23-790.txt Node

Date: Fri Mar 14 12:58:23 EDT 2025
User: louis
Spectrometer: USB4F10415
Trigger mode: 4
Integration Time (sec): 1.000000E-2
Scans to average: 1
Electric dark correction enabled: true
Nonlinearity correction enabled: false
Boxcar width: 0
XAxis mode: Wavelengths
Number of Pixels in Spectrum: 3648
>>>>>Begin Spectral Data<<<<<
178.204	16.9
178.424	16.9
178.644	16.9
178.864	-26.11
179.084	-5.63
179.304	4.61
179.524	-11.78
179.744	8.7
179.964	-7.68
180.184	-60.93
180.404	31.23
180.624	31.23
180.844	-13.82
181.064	6.66
181.283	-7.68
181.503	20.99
181.723	-1.54
181.943	-9.73
182.163	55.81
182.383	47.62
182.602	64
182.822	2.56
183.042	-22.02
183.262	43.52
183.482	43.52
183.701	-19.97
183.921	47.62
184.141	2.56
184.361	45.57
184.58	-34.3
184.8	-28.16
185.02	8.7
185.239	-9.73
185.459	25.09
185.679	33.28
185.898	35.33
186.118	-13.82
186.338	78.33
186.557	57.86
186.777	37.38
186.997	31.23
187.216	23.04
187.436	37.38
187.655	47.62
187.875	-15.87
188.095	-9.73
188.314	66.05
188.534	-69.12
188.753	-42.5
188.973	35.33
189.192	0.51
189.412	-1.54
189.631	47.62
189.851	2.56
190.07	68.09
190.29	76.29
190.509	14.85
190.729	31.23
190.948	14.85
191.168	86.53
191.387	10.75
191.607	-1.54
191.826	55.81
192.045	-5.63
192.265	39.42
192.484	10.75
192.704	-58.88
192.923	25.09
193.142	10.75
193.362	25.09
193.581	23.04
193.8	23.04
194.02	64
194.239	18.94
194.458	68.09
194.678	131.58
194.897	35.33
195.116	4.61
195.335	47.62
195.555	0.51
195.774	-22.02
195.993	59.9
196.212	20.99
196.432	-44.54
196.651	27.14
196.87	68.09
197.089	23.04
197.308	29.18
197.528	53.76
197.747	-1.54
197.966	55.81
198.185	20.99
198.404	-26.11
198.623	14.85
198.842	57.86
199.062	14.85
199.281	2.56
199.5	66.05
199.719	74.24
199.938	55.81
200.157	82.43
200.376	6.66
200.595	-7.68
200.814	18.94
201.033	35.33
201.252	35.33
201.471	2.56
201.69	27.14
201.909	68.09
202.128	8.7
202.347	-1.54
202.566	-30.21
202.785	25.09
203.004	0.51
203.223	-38.4
203.442	12.8
203.661	47.62
203.879	35.33
204.098	94.72
204.317	35.33
204.536	39.42
204.755	6.66
204.974	-36.35
205.193	47.62
205.411	39.42
205.63	31.23
205.849	23.04
206.068	-9.73
206.287	27.14
206.505	-79.36
206.724	0.51
206.943	61.95
207.162	10.75
207.381	-30.21
207.599	68.09
207.818	20.99
208.037	92.67
208.255	66.05
208.474	39.42
208.693	20.99
208.911	12.8
209.13	6.66
209.349	-19.97
209.567	31.23
209.786	64
210.005	20.99
210.223	18.94
210.442	-19.97
210.661	41.47
210.879	49.66
211.098	43.52
211.316	57.86
211.535	31.23
211.753	2.56
211.972	12.8
212.191	45.57
212.409	12.8
212.628	25.09
212.846	47.62
213.065	70.14
213.283	94.72
213.502	20.99
213.72	12.8
213.938	49.66
214.157	27.14
214.375	57.86
214.594	2.56
214.812	10.75
215.031	2.56
215.249	-15.87
215.467	78.33
215.686	-19.97
215.904	47.62
216.122	-58.88
216.341	68.09
216.559	10.75
216.778	66.05
216.996	-11.78
217.214	12.8
217.432	-36.35
217.651	14.85
217.869	78.33
218.087	12.8
218.306	-7.68
218.524	25.09
218.742	8.7
218.96	-5.63
219.179	0.51
219.397	92.67
219.615	39.42
219.833	25.09
220.051	23.04
220.27	18.94
220.488	-17.92
220.706	-19.97
220.924	37.38
221.142	55.81
221.36	39.42
221.578	-30.21
221.796	-15.87
222.015	43.52
222.233	18.94
222.451	68.09
222.669	-24.06
222.887	51.71
223.105	49.66
223.323	41.47
223.541	-1.54
223.759	72.19
223.977	-1.54
224.195	55.81
224.413	31.23
224.631	51.71
224.849	37.38
225.067	41.47
225.285	49.66
225.503	39.42
225.721	39.42
225.939	57.86
226.157	-17.92
226.375	37.38
226.592	-7.68
226.81	6.66
227.028	-24.06
227.246	92.67
227.464	4.61
227.682	33.28
227.9	33.28
228.117	133.63
228.335	-22.02
228.553	31.23
228.771	31.23
228.989	-11.78
229.206	-11.78
229.424	20.99
229.642	12.8
229.86	90.62
230.077	76.29
230.295	-26.11
230.513	39.42
230.731	4.61
230.948	45.57
231.166	10.75
231.384	-60.93
231.601	33.28
231.819	70.14
232.037	47.62
232.254	-5.63
232.472	102.91
232.689	72.19
232.907	14.85
233.125	25.09
233.342	31.23
233.56	35.33
233.777	12.8
233.995	10.75
234.213	64
234.43	0.51
234.648	39.42
234.865	-52.74
235.083	33.28
235.3	104.96
235.518	61.95
235.735	61.95
235.953	94.72
236.17	35.33
236.388	39.42
236.605	55.81
236.822	37.38
237.04	74.24
237.257	49.66
237.475	20.99
237.692	72.19
237.909	31.23
238.127	49.66
238.344	-28.16
238.562	29.18
238.779	-26.11
238.996	49.66
239.214	2.56
239.431	23.04
239.648	20.99
239.865	8.7
240.083	59.9
240.3	-28.16
240.517	35.33
240.735	16.9
240.952	-50.69
241.169	86.53
241.386	20.99
241.603	43.52
241.821	39.42
242.038	64
242.255	-13.82
242.472	45.57
242.689	31.23
242.907	18.94
243.124	16.9
243.341	4.61
243.558	2.56
243.775	74.24
243.992	47.62
244.209	43.52
244.426	68.09
244.643	59.9
244.86	-1.54
245.078	37.38
245.295	4.61
245.512	0.51
245.729	82.43
245.946	6.66
246.163	-26.11
246.38	78.33
246.597	94.72
246.814	59.9
247.031	51.71
247.248	23.04
247.464	12.8
247.681	12.8
247.898	18.94
248.115	6.66
248.332	-34.3
248.549	59.9
248.766	-11.78
248.983	33.28
249.2	6.66
249.417	41.47
249.633	-13.82
249.85	-30.21
250.067	-24.06
250.284	-58.88
250.501	72.19
250.717	72.19
250.934	-1.54
251.151	14.85
251.368	51.71
251.585	64
251.801	31.23
252.018	51.71
252.235	82.43
252.451	-17.92
252.668	47.62
252.885	57.86
253.102	76.29
253.318	29.18
253.535	25.09
253.752	31.23
253.968	-1.54
254.185	27.14
254.401	-3.58
254.618	47.62
254.835	57.86
255.051	4.61
255.268	-28.16
255.484	47.62
255.701	-34.3
255.917	37.38
256.134	-9.73
256.351	23.04
256.567	25.09
256.784	51.71
257	-60.93
257.217	43.52
257.433	35.33
257.65	20.99
257.866	68.09
258.082	-11.78
258.299	59.9
258.515	23.04
258.732	-3.58
258.948	0.51
259.165	-44.54
259.381	35.33
259.597	2.56
259.814	92.67
260.03	-17.92
260.246	76.29
260.463	45.57
260.679	2.56
260.895	-15.87
261.112	51.71
261.328	47.62
261.544	31.23
261.761	37.38
261.977	4.61
262.193	0.51
262.409	68.09
262.626	14.85
262.842	47.62
263.058	-7.68
263.274	47.62
263.49	39.42
263.707	35.33
263.923	-19.97
264.139	-7.68
264.355	8.7
264.571	16.9
264.787	35.33
265.004	14.85
265.22	53.76
265.436	0.51
265.652	25.09
265.868	27.14
266.084	4.61
266.3	-13.82
266.516	27.14
266.732	61.95
266.948	47.62
267.164	-1.54
267.38	4.61
267.596	129.53
267.812	37.38
268.028	29.18
268.244	35.33
268.46	64
268.676	47.62
268.892	-11.78
269.108	14.85
269.324	12.8
269.54	23.04
269.756	25.09
269.972	10.75
270.188	27.14
270.403	-42.5
270.619	57.86
270.835	51.71
271.051	-24.06
271.267	-42.5
271.483	23.04
271.698	18.94
271.914	2.56
272.13	35.33
272.346	-7.68
272.562	49.66
272.777	66.05
272.993	-1.54
273.209	45.57
273.425	-17.92
273.64	109.05
273.856	41.47
274.072	49.66
274.287	14.85
274.503	43.52
274.719	-9.73
274.934	100.86
275.15	0.51
275.366	70.14
275.581	-7.68
275.797	-11.78
276.012	51.71
276.228	-1.54
276.444	35.33
276.659	92.67
276.875	27.14
277.09	-13.82
277.306	18.94
277.521	51.71
277.737	23.04
277.952	-17.92
278.168	-13.82
278.383	12.8
278.599	37.38
278.814	57.86
279.03	8.7
279.245	6.66
279.461	53.76
279.676	6.66
279.892	-40.45
280.107	-38.4
280.322	88.57
280.538	29.18
280.753	12.8
280.969	55.81
281.184	88.57
281.399	57.86
281.615	-5.63
281.83	43.52
282.045	27.14
282.26	20.99
282.476	12.8
282.691	96.77
282.906	53.76
283.122	49.66
283.337	-22.02
283.552	-7.68
283.767	-22.02
283.983	82.43
284.198	64
284.413	39.42
284.628	-15.87
284.843	33.28
285.058	8.7
285.274	90.62
285.489	16.9
285.704	68.09
285.919	55.81
286.134	29.18
286.349	49.66
286.564	70.14
286.779	-1.54
286.995	8.7
287.21	-15.87
287.425	27.14
287.64	23.04
287.855	-9.73
288.07	-3.58
288.285	-19.97
288.5	39.42
288.715	80.38
288.93	35.33
289.145	74.24
289.36	68.09
289.575	-34.3
289.79	12.8
290.004	53.76
290.219	10.75
290.434	37.38
290.649	20.99
290.864	-11.78
291.079	74.24
291.294	47.62
291.509	-3.58
291.724	18.94
291.938	8.7
292.153	72.19
292.368	8.7
292.583	39.42
292.798	49.66
293.012	43.52
293.227	35.33
293.442	49.66
293.657	43.52
293.871	92.67
294.086	31.23
294.301	12.8
294.516	96.77
294.73	-1.54
294.945	43.52
295.16	74.24
295.374	25.09
295.589	76.29
295.804	-17.92
296.018	88.57
296.233	8.7
296.447	55.81
296.662	8.7
296.877	18.94
297.091	-1.54
297.306	88.57
297.52	43.52
297.735	37.38
297.949	10.75
298.164	4.61
298.378	68.09
298.593	68.09
298.807	-7.68
299.022	-5.63
299.236	14.85
299.451	-3.58
299.665	2.56
299.88	25.09
300.094	47.62
300.309	59.9
300.523	107.01
300.737	80.38
300.952	-17.92
301.166	64
301.381	121.34
301.595	18.94
301.809	8.7
302.024	66.05
302.238	33.28
302.452	31.23
302.667	-24.06
302.881	51.71
303.095	76.29
303.309	-40.45
303.524	14.85
303.738	80.38
303.952	-79.36
304.166	20.99
304.381	66.05
304.595	20.99
304.809	2.56
305.023	-24.06
305.237	27.14
305.452	37.38
305.666	55.81
305.88	-1.54
306.094	39.42
306.308	31.23
306.522	33.28
306.736	-1.54
306.95	25.09
307.164	55.81
307.379	-9.73
307.593	57.86
307.807	-26.11
308.021	57.86
308.235	76.29
308.449	8.7
308.663	98.81
308.877	-32.26
309.091	88.57
309.305	20.99
309.519	2.56
309.733	2.56
309.947	6.66
310.161	14.85
310.374	35.33
310.588	127.49
310.802	55.81
311.016	6.66
311.23	35.33
311.444	90.62
311.658	96.77
311.872	16.9
312.085	-9.73
312.299	43.52
312.513	86.53
312.727	-3.58
312.941	64
313.154	25.09
313.368	-1.54
313.582	78.33
313.796	39.42
314.009	41.47
314.223	61.95
314.437	31.23
314.651	55.81
314.864	47.62
315.078	98.81
315.292	16.9
315.505	29.18
315.719	43.52
315.933	64
316.146	6.66
316.36	88.57
316.573	90.62
316.787	27.14
317.001	20.99
317.214	-24.06
317.428	53.76
317.641	39.42
317.855	-19.97
318.068	41.47
318.282	61.95
318.495	47.62
318.709	47.62
318.922	-24.06
319.136	29.18
319.349	74.24
319.563	96.77
319.776	43.52
319.99	6.66
320.203	47.62
320.417	0.51
320.63	10.75
320.843	35.33
321.057	-46.59
321.27	10.75
321.483	-26.11
321.697	92.67
321.91	14.85
322.124	59.9
322.337	-15.87
322.55	35.33
322.763	27.14
322.977	55.81
323.19	-54.78
323.403	-3.58
323.617	12.8
323.83	2.56
324.043	27.14
324.256	-26.11
324.469	107.01
324.683	35.33
324.896	-17.92
325.109	51.71
325.322	-11.78
325.535	119.29
325.748	10.75
325.962	51.71
326.175	-3.58
326.388	102.91
326.601	39.42
326.814	64
327.027	-3.58
327.24	49.66
327.453	94.72
327.666	59.9
327.879	20.99
328.092	0.51
328.305	-30.21
328.518	35.33
328.731	23.04
328.944	84.48
329.157	31.23
329.37	76.29
329.583	43.52
329.796	25.09
330.009	25.09
330.222	0.51
330.435	29.18
330.648	-15.87
330.861	98.81
331.073	6.66
331.286	18.94
331.499	20.99
331.712	31.23
331.925	23.04
332.138	53.76
332.35	74.24
332.563	41.47
332.776	-19.97
332.989	64
333.202	35.33
333.414	20.99
333.627	18.94
333.84	43.52
334.053	49.66
334.265	100.86
334.478	4.61
334.691	-7.68
334.903	-22.02
335.116	72.19
335.329	74.24
335.541	25.09
335.754	51.71
335.966	37.38
336.179	74.24
336.392	8.7
336.604	64
336.817	96.77
337.029	27.14
337.242	55.81
337.454	68.09
337.667	16.9
337.88	68.09
338.092	25.09
338.305	-15.87
338.517	55.81
338.729	86.53
338.942	68.09
339.154	2.56
339.367	16.9
339.579	12.8
339.792	6.66
340.004	74.24
340.217	74.24
340.429	74.24
340.641	-38.4
340.854	37.38
341.066	47.62
341.278	59.9
341.491	72.19
341.703	51.71
341.915	82.43
342.128	72.19
342.34	41.47
342.552	78.33
342.764	53.76
342.977	100.86
343.189	-1.54
343.401	82.43
343.613	20.99
343.826	20.99
344.038	16.9
344.25	23.04
344.462	-32.26
344.674	41.47
344.886	74.24
345.099	66.05
345.311	-30.21
345.523	-15.87
345.735	12.8
345.947	0.51
346.159	6.66
346.371	74.24
346.583	43.52
346.795	80.38
347.007	12.8
347.219	57.86
347.431	66.05
347.643	115.2
347.855	-17.92
348.067	66.05
348.279	12.8
348.491	14.85
348.703	92.67
348.915	41.47
349.127	10.75
349.339	31.23
349.551	-32.26
349.763	74.24
349.975	59.9
350.187	96.77
350.399	-19.97
350.61	53.76
350.822	57.86
351.034	53.76
351.246	53.76
351.458	8.7
351.669	20.99
351.881	45.57
352.093	47.62
352.305	98.81
352.517	23.04
352.728	47.62
352.94	31.23
353.152	-7.68
353.363	25.09
353.575	82.43
353.787	35.33
353.999	-32.26
354.21	51.71
354.422	27.14
354.633	121.34
354.845	20.99
355.057	43.52
355.268	31.23
355.48	25.09
355.692	98.81
355.903	51.71
356.115	16.9
356.326	23.04
356.538	66.05
356.749	35.33
356.961	18.94
357.172	59.9
357.384	16.9
357.595	31.23
357.807	25.09
358.018	55.81
358.23	76.29
358.441	43.52
358.653	111.1
358.864	2.56
359.075	57.86
359.287	10.75
359.498	37.38
359.709	64
359.921	51.71
360.132	123.39
360.344	-40.45
360.555	-1.54
360.766	123.39
360.977	-22.02
361.189	47.62
361.4	59.9
361.611	20.99
361.823	66.05
362.034	12.8
362.245	4.61
362.456	-34.3
362.667	33.28
362.879	47.62
363.09	27.14
363.301	-28.16
363.512	31.23
363.723	111.1
363.935	31.23
364.146	41.47
364.357	-83.45
364.568	92.67
364.779	16.9
364.99	39.42
365.201	70.14
365.412	4.61
365.623	72.19
365.834	64
366.045	39.42
366.256	47.62
366.467	10.75
366.678	16.9
366.889	66.05
367.1	25.09
367.311	57.86
367.522	72.19
367.733	-62.98
367.944	66.05
368.155	94.72
368.366	53.76
368.577	16.9
368.788	94.72
368.999	39.42
369.209	64
369.42	41.47
369.631	-26.11
369.842	51.71
370.053	33.28
370.264	88.57
370.474	33.28
370.685	27.14
370.896	39.42
371.107	53.76
371.317	49.66
371.528	39.42
371.739	37.38
371.95	123.39
372.16	16.9
372.371	35.33
372.582	41.47
372.792	61.95
373.003	51.71
373.214	8.7
373.424	12.8
373.635	59.9
373.846	82.43
374.056	25.09
374.267	-7.68
374.477	66.05
374.688	72.19
374.898	119.29
375.109	-28.16
375.319	4.61
375.53	8.7
375.74	49.66
375.951	143.87
376.161	39.42
376.372	18.94
376.582	12.8
376.793	43.52
377.003	-46.59
377.214	94.72
377.424	78.33
377.635	68.09
377.845	-28.16
378.055	66.05
378.266	64
378.476	-15.87
378.686	0.51
378.897	127.49
379.107	41.47
379.317	78.33
379.528	8.7
379.738	64
379.948	47.62
380.158	82.43
380.369	14.85
380.579	-28.16
380.789	66.05
380.999	33.28
381.21	33.28
381.42	96.77
381.63	102.91
381.84	96.77
382.05	18.94
382.261	70.14
382.471	94.72
382.681	23.04
382.891	-5.63
383.101	152.06
383.311	-7.68
383.521	29.18
383.731	84.48
383.941	66.05
384.151	16.9
384.361	14.85
384.571	76.29
384.781	74.24
384.991	88.57
385.201	74.24
385.411	-38.4
385.621	66.05
385.831	100.86
386.041	94.72
386.251	90.62
386.461	64
386.671	88.57
386.881	74.24
387.091	31.23
387.301	80.38
387.511	-5.63
387.72	2.56
387.93	94.72
388.14	80.38
388.35	25.09
388.56	41.47
388.769	2.56
388.979	6.66
389.189	45.57
389.399	82.43
389.609	76.29
389.818	68.09
390.028	43.52
390.238	84.48
390.447	84.48
390.657	27.14
390.867	-26.11
391.076	27.14
391.286	35.33
391.496	70.14
391.705	104.96
391.915	137.73
392.125	70.14
392.334	51.71
392.544	109.05
392.753	-3.58
392.963	47.62
393.172	92.67
393.382	74.24
393.591	121.34
393.801	59.9
394.01	131.58
394.22	104.96
394.429	31.23
394.639	68.09
394.848	147.97
395.058	104.96
395.267	-15.87
395.477	45.57
395.686	131.58
395.895	35.33
396.105	172.54
396.314	100.86
396.524	14.85
396.733	80.38
396.942	102.91
397.152	59.9
397.361	145.92
397.57	74.24
397.78	53.76
397.989	-9.73
398.198	90.62
398.407	117.25
398.617	47.62
398.826	74.24
399.035	49.66
399.244	80.38
399.453	72.19
399.663	14.85
399.872	41.47
400.081	96.77
400.29	94.72
400.499	57.86
400.708	131.58
400.917	68.09
401.127	78.33
401.336	51.71
401.545	86.53
401.754	90.62
401.963	59.9
402.172	100.86
402.381	141.82
402.59	104.96
402.799	96.77
403.008	123.39
403.217	86.53
403.426	84.48
403.635	127.49
403.844	78.33
404.053	125.44
404.262	61.95
404.471	80.38
404.68	133.63
404.888	145.92
405.097	82.43
405.306	131.58
405.515	152.06
405.724	92.67
405.933	190.97
406.142	150.01
406.35	174.59
406.559	160.25
406.768	119.29
406.977	96.77
407.185	160.25
407.394	203.26
407.603	135.68
407.812	139.77
408.02	240.12
408.229	219.64
408.438	205.31
408.646	236.03
408.855	195.07
409.064	219.64
409.272	260.6
409.481	166.4
409.69	221.69
409.898	233.98
410.107	309.76
410.315	229.88
410.524	244.22
410.733	270.84
410.941	262.65
411.15	383.48
411.358	283.13
411.567	326.14
411.775	340.47
411.984	326.14
412.192	324.09
412.401	399.87
412.609	287.23
412.818	387.58
413.026	336.38
413.234	354.81
413.443	446.97
413.651	432.63
413.86	473.59
414.068	530.94
414.276	461.3
414.485	489.98
414.693	494.07
414.901	600.57
415.11	530.94
415.318	575.99
415.526	608.76
415.734	616.95
415.943	633.33
416.151	596.47
416.359	725.49
416.567	631.29
416.776	754.16
416.984	702.97
417.192	801.27
417.4	707.06
417.608	801.27
417.817	877.04
418.025	874.99
418.233	948.72
418.441	834.04
418.649	973.3
418.857	973.3
419.065	997.87
419.273	995.82
419.481	1014.26
419.689	1128.94
419.897	1149.42
420.105	1137.13
420.313	1227.25
420.521	1227.25
420.729	1202.67
420.937	1262.06
421.145	1350.12
421.353	1282.54
421.561	1466.86
421.769	1454.57
421.977	1579.5
422.185	1542.63
422.393	1710.57
422.601	1825.25
422.809	1831.4
423.017	1731.05
423.224	1851.88
423.432	1972.71
423.64	1860.07
423.848	2015.71
424.056	2040.29
424.263	2208.22
424.471	2269.66
424.679	2122.21
424.887	2384.35
425.094	2435.55
425.302	2402.78
425.51	2591.19
425.718	2683.35
425.925	2699.73
426.133	2714.07
426.341	3000.79
426.548	2961.87
426.756	2972.11
426.964	3097.04
427.171	3295.69
427.379	3377.61
427.586	3451.34
427.794	3508.68
428.001	3649.99
428.209	3817.93
428.417	3652.04
428.624	3969.48
428.832	4096.45
429.039	3934.66
429.247	4006.34
429.454	4551.1
429.662	4512.19
429.869	4272.57
430.076	4587.96
430.284	4426.17
430.491	4567.48
430.699	4954.55
430.906	4964.79
431.114	5011.89
431.321	5116.34
431.528	5390.77
431.736	5765.54
431.943	5818.79
432.15	5769.64
432.358	5890.47
432.565	6089.12
432.772	6146.47
432.979	6578.59
433.187	6556.06
433.394	6482.33
433.601	7008.66
433.808	7023
434.016	6992.28
434.223	7332.24
434.43	7680.39
434.637	7532.94
434.844	8032.65
435.052	8288.64
435.259	8081.8
435.466	8006.02
435.673	8321.41
435.88	8636.8
436.087	9341.3
436.294	9277.81
436.501	8812.92
436.708	9140.6
436.915	9441.65
437.122	9912.68
437.329	9800.04
437.537	10090.85
437.743	10484.06
437.95	10191.2
438.157	10754.4
438.364	11258.2
438.571	11166.04
438.778	11178.33
438.985	12200.26
439.192	11712.85
439.399	12134.73
439.606	12058.95
439.813	12425.54
440.02	13220.15
440.227	13136.18
440.433	12994.87
440.64	13150.52
440.847	13261.11
441.054	13601.07
441.261	14567.71
441.467	14209.32
441.674	14657.82
441.881	14987.55
442.088	15067.42
442.294	15005.98
442.501	15325.46
442.708	15677.71
442.914	16361.73
443.121	17092.86
443.328	16324.87
443.534	18010.35
443.741	16986.36
443.948	16965.89
444.154	18473.19
444.361	18340.07
444.568	18391.27
444.774	18254.06
444.981	18434.28
445.187	18854.11
445.394	19945.68
445.6	19632.34
445.807	21465.27
446.013	20807.87
446.22	21002.43
446.426	21786.8
446.633	21868.72
446.839	22845.6
447.046	22243.5
447.252	23335.07
447.459	23394.46
447.665	23124.13
447.871	23959.7
448.078	25168
448.284	23996.56
448.491	24498.31
448.697	25690.23
448.903	26226.8
449.11	25882.74
449.316	25630.84
449.522	26278
449.728	26902.63
449.935	27332.7
450.141	27170.91
450.347	27869.27
450.553	27379.81
450.76	27271.26
450.966	28565.58
451.172	28031.06
451.378	28586.06
451.584	28121.17
451.791	28684.36
451.997	28704.84
452.203	29251.65
452.409	29265.99
452.615	28649.55
452.821	27963.48
453.027	27631.71
453.233	29245.51
453.44	28201.04
453.646	28647.5
453.852	28538.96
454.058	29112.39
454.264	28213.33
454.47	28708.94
454.676	28358.74
454.882	29042.76
455.088	26325.1
455.294	26863.72
455.5	27228.26
455.705	27410.53
455.911	26564.71
456.117	25925.75
456.323	25702.52
456.529	24230.03
456.735	25421.95
456.941	24658.06
457.147	24357
457.352	23765.14
457.558	23320.73
457.764	23543.96
457.97	22919.33
458.176	22421.67
458.381	22585.51
458.587	21588.15
458.793	21686.45
458.999	20338.89
459.204	21739.7
459.41	21254.33
459.616	19749.07
459.821	19562.71
460.027	19654.87
460.233	19296.47
460.438	18366.7
460.644	18608.36
460.85	17531.12
461.055	17287.42
461.261	17164.54
461.466	16093.45
461.672	15538.45
461.878	16556.29
462.083	15726.86
462.289	15030.55
462.494	15198.49
462.7	14375.2
462.905	13875.5
463.111	14858.53
463.316	14512.42
463.522	14301.48
463.727	14430.5
463.932	14190.89
464.138	14068.01
464.343	14160.17
464.549	13654.32
464.754	14154.02
464.959	13928.75
465.165	14223.65
465.37	13349.17
465.575	13154.62
465.781	13564.21
465.986	13789.49
466.191	13062.46
466.397	12943.67
466.602	12159.3
466.807	12874.04
467.012	12644.67
467.218	12613.95
467.423	12529.98
467.628	12771.65
467.833	13148.47
468.038	12765.5
468.244	12364.1
468.449	12595.52
468.654	12476.74
468.859	12290.37
469.064	12216.65
469.269	11637.07
469.474	11784.52
469.679	12083.53
469.885	11897.16
470.09	11809.1
470.295	11876.68
470.5	11448.66
470.705	11555.15
470.91	11444.56
471.115	11264.34
471.32	11430.23
471.525	11319.64
471.73	11159.89
471.935	11018.58
472.139	10576.22
472.344	10686.81
472.549	10686.81
472.754	10637.66
472.959	10262.88
473.164	10185.06
473.369	10013.03
473.574	10365.28
473.778	10232.16
473.983	10168.68
474.188	10084.71
474.393	9718.12
474.598	9765.23
474.802	9720.17
475.007	9714.03
475.212	9435.5
475.417	9269.62
475.621	9462.13
475.826	9318.77
476.031	9081.21
476.235	8790.39
476.44	9173.36
476.645	8802.68
476.849	9013.62
477.054	8774.01
477.259	8769.91
477.463	8665.47
477.668	8395.14
477.872	8530.3
478.077	8106.37
478.282	8098.18
478.486	8184.2
478.691	7963.01
478.895	8018.31
479.1	7895.43
479.304	8059.27
479.509	7881.1
479.713	7942.53
479.918	7600.52
480.122	7790.99
480.326	7694.73
480.531	7711.11
480.735	7692.68
480.94	7588.24
481.144	7664.01
481.348	7379.34
481.553	7276.94
481.757	7412.11
481.961	7575.95
482.166	7489.93
482.37	7440.78
482.574	7201.17
482.778	7446.93
482.983	7428.49
483.187	7496.08
483.391	7369.1
483.595	7401.87
483.8	7315.86
484.004	7299.47
484.208	7621
484.412	7238.03
484.616	7475.6
484.821	7463.31
485.025	7383.44
485.229	7528.85
485.433	7418.25
485.637	7465.36
485.841	7154.07
486.045	7342.48
486.249	7385.49
486.453	7340.43
486.657	7362.96
486.861	7516.56
487.065	7244.18
487.269	7446.93
487.473	7233.94
487.677	7420.3
487.881	7367.06
488.085	7424.4
488.289	7362.96
488.493	7342.48
488.697	7496.08
488.901	7369.1
489.105	7428.49
489.309	7582.09
489.512	7567.76
489.716	7489.93
489.92	7446.93
490.124	7477.65
490.328	7502.22
490.531	7360.91
490.735	7502.22
490.939	7625.1
491.143	7616.91
491.346	7590.28
491.55	7739.79
491.754	7754.12
491.958	7770.51
492.161	7731.59
492.365	7813.51
492.569	7760.27
492.772	7754.12
492.976	7840.14
493.18	7846.28
493.383	7795.08
493.587	8036.74
493.79	7920.01
493.994	8042.89
494.197	7977.35
494.401	8055.17
494.605	8116.61
494.808	8464.77
495.012	8468.86
495.215	8642.94
495.419	8493.44
495.622	8423.81
495.825	8731
496.029	8569.21
496.232	8642.94
496.436	8778.11
496.639	9056.63
496.843	8796.54
497.046	9199.99
497.249	9175.41
497.453	9404.78
497.656	9347.44
497.859	9412.98
498.063	9410.93
498.266	9673.07
498.469	9646.44
498.673	9738.6
498.876	10094.95
499.079	9988.46
499.282	10150.25
499.485	10223.97
499.689	10318.18
499.892	10500.45
500.095	10606.94
500.298	10662.24
500.501	10639.71
500.705	11002.2
500.908	11018.58
501.111	11159.89
501.314	11379.03
501.517	11462.99
501.72	11682.13
501.923	11596.11
502.126	11751.76
502.329	11954.51
502.532	11960.65
502.735	12104.01
502.938	12360
503.141	12480.83
503.344	12765.5
503.547	12708.16
503.75	12839.23
503.953	12847.42
504.156	13324.6
504.359	13400.37
504.562	13470
504.765	13682.99
504.968	13777.2
505.17	13951.28
505.373	13941.04
505.576	14385.44
505.779	14481.7
505.982	14547.23
506.185	14721.31
506.387	14815.52
506.59	15030.55
506.793	15257.88
506.996	15218.97
507.198	15630.61
507.401	15737.1
507.604	15888.65
507.807	16421.13
508.009	16402.69
508.212	16470.28
508.415	16912.64
508.617	16890.11
508.82	16908.54
509.022	16908.54
509.225	17232.12
509.428	17537.27
509.63	17645.81
509.833	17881.33
510.035	18180.33
510.238	18094.32
510.44	18616.55
510.643	18749.67
510.845	19034.33
511.048	18690.27
511.25	19110.11
511.453	19103.96
511.655	20050.13
511.858	19855.57
512.06	19818.71
512.262	20086.99
512.465	20203.72
512.667	20240.59
512.87	20906.18
513.072	20764.87
513.274	21188.8
513.477	21465.27
513.679	21797.04
513.881	21848.24
514.084	22055.09
514.286	21915.83
514.488	22202.54
514.69	22700.2
514.893	22902.95
515.095	23044.26
515.297	23165.09
515.499	23156.89
515.701	23738.52
515.904	23953.55
516.106	24244.37
516.308	24283.28
516.51	24483.98
516.712	24866.95
516.914	24760.45
517.116	25436.28
517.318	25245.82
517.52	25649.27
517.722	25522.3
517.925	26179.7
518.127	26660.97
518.329	26404.97
518.531	26042.48
518.733	27146.34
518.935	27355.23
519.136	27557.98
519.338	27316.32
519.54	27596.89
519.742	28221.52
519.944	28321.87
520.146	28725.32
520.348	29012.04
520.55	29233.22
520.752	28979.27
520.954	29745.21
521.155	29837.37
521.357	30124.08
521.559	30056.5
521.761	30537.77
521.963	30304.31
522.164	30572.59
522.366	30617.64
522.568	31119.4
522.77	31184.93
522.971	31926.3
523.173	31578.14
523.375	31459.36
523.576	31645.73
523.778	31832.09
523.98	32325.65
524.181	32675.85
524.383	32290.84
524.584	32964.62
524.786	32964.62
524.988	32835.59
525.189	33622.01
525.391	33439.75
525.592	33837.05
525.794	33677.31
525.995	34144.25
526.197	34177.01
526.398	33865.72
526.6	34091
526.801	34387.96
527.003	34295.8
527.204	34334.71
527.406	35112.94
527.607	34619.38
527.808	34969.58
528.01	34713.58
528.211	34990.06
528.412	35831.77
528.614	35174.38
528.815	35270.63
529.016	35741.66
529.218	35270.63
529.419	35272.68
529.62	35604.45
529.822	35616.74
530.023	36208.6
530.224	35825.63
530.425	35792.86
530.626	35375.08
530.828	35391.46
531.029	36407.25
531.23	35934.17
531.431	36341.72
531.632	36356.05
531.833	36100.06
532.035	36349.91
532.236	36425.68
532.437	36218.84
532.638	36233.18
532.839	36116.44
533.04	36546.51
533.241	36388.82
533.442	36566.99
533.643	36401.11
533.844	36300.76
534.045	36413.4
534.246	35811.29
534.447	36749.26
534.648	36884.43
534.849	36675.54
535.05	36696.02
535.251	36935.63
535.451	36204.5
535.652	36839.37
535.853	36636.62
536.054	36466.64
536.255	36657.1
536.456	36591.57
536.657	37117.9
536.857	36415.44
537.058	36597.71
537.259	37025.74
537.46	36726.74
537.66	36816.85
537.861	36646.86
538.062	36493.27
538.263	36511.7
538.463	36722.64
538.664	36798.41
538.865	36397.01
539.065	36726.74
539.266	36554.71
539.466	36749.26
539.667	36280.28
539.868	36841.42
540.068	36364.25
540.269	36327.38
540.469	36599.76
540.67	36204.5
540.87	36239.32
541.071	36224.98
541.271	36296.66
541.472	36501.46
541.672	36495.32
541.873	36489.17
542.073	36204.5
542.274	36605.91
542.474	36245.46
542.675	36192.22
542.875	36489.17
543.075	36505.55
543.276	36153.3
543.476	36323.29
543.676	36362.2
543.877	36337.62
544.077	36026.33
544.277	36190.17
544.478	35966.94
544.678	36057.05
544.878	36278.23
545.078	36397.01
545.279	36282.33
545.479	36321.24
545.679	36474.84
545.879	36112.34
546.079	36429.78
546.28	36083.67
546.48	36321.24
546.68	36278.23
546.88	36181.98
547.08	36055
547.28	36073.43
547.48	35868.64
547.68	36024.28
547.88	35784.67
548.081	36157.4
548.281	36059.1
548.481	36093.91
548.681	36042.71
548.881	36270.04
549.081	35870.68
549.28	35815.39
549.48	36100.06
549.68	35819.49
549.88	36466.64
550.08	35919.84
550.28	36335.57
550.48	35485.67
550.68	36110.3
550.88	35952.6
551.08	35813.34
551.279	36130.78
551.479	35678.18
551.679	35551.2
551.879	35764.19
552.079	36106.2
552.278	35762.14
552.478	35506.15
552.678	35727.33
552.878	36087.77
553.077	35968.99
553.277	35555.3
553.477	36075.48
553.676	35743.71
553.876	35600.35
554.076	35571.68
554.275	35381.22
554.475	35209.19
554.674	35643.36
554.874	35389.41
555.074	35481.57
555.273	35452.9
555.473	35356.64
555.672	35321.83
555.872	35403.75
556.071	35489.76
556.271	35610.59
556.47	35586.02
556.67	35334.12
556.869	35297.25
557.068	35207.14
557.268	35170.28
557.467	35051.5
557.667	34881.52
557.866	35074.02
558.065	35327.97
558.265	34818.03
558.464	35114.98
558.663	35383.27
558.863	34535.41
559.062	35047.4
559.261	34332.66
559.461	34830.32
559.66	34521.07
559.859	34383.86
560.058	34590.7
560.258	34390
560.457	34568.18
560.656	34740.21
560.855	34535.41
561.054	34426.87
561.253	34066.42
561.453	34566.13
561.652	34291.7
561.851	34385.91
562.05	33875.96
562.249	33988.6
562.448	34041.85
562.647	33982.46
562.846	33918.97
563.045	34002.94
563.244	33230.85
563.443	33974.27
563.642	33480.71
563.841	33734.65
564.04	33312.77
564.239	33978.36
564.438	33576.96
564.637	33458.18
564.836	33662.97
565.035	33087.5
565.234	33552.38
565.432	33359.87
565.631	33363.97
565.83	33476.61
566.029	32720.91
566.228	32886.79
566.427	33007.62
566.625	32630.8
566.824	32634.89
567.023	33067.02
567.222	32272.4
567.42	33017.86
567.619	32776.2
567.818	32763.92
568.016	32346.13
568.215	32638.99
568.414	32497.68
568.612	32520.21
568.811	32063.51
569.01	32434.19
569.208	31746.08
569.407	32380.95
569.605	31535.13
569.804	32385.04
570.002	31492.13
570.201	31610.91
570.4	31676.44
570.598	31307.81
570.797	30875.69
570.995	31615.01
571.193	31275.04
571.392	31381.54
571.59	31064.1
571.789	30994.47
571.987	31170.6
572.186	31119.4
572.384	30877.74
572.582	31199.27
572.781	30902.31
572.979	30435.38
573.177	30607.4
573.376	30930.98
573.574	30720.04
573.772	30548.01
573.971	30199.86
574.169	30001.21
574.367	30185.52
574.565	30269.49
574.763	29976.63
574.962	30062.65
575.16	29853.75
575.358	30339.12
575.556	29390.91
575.754	29980.73
575.952	29651
576.151	29777.98
576.349	29354.05
576.547	29327.42
576.745	29382.72
576.943	29657.15
577.141	29012.04
577.339	29347.9
577.537	29071.43
577.735	29245.51
577.933	28870.73
578.131	28803.14
578.329	28772.42
578.527	28518.48
578.725	28559.44
578.923	28756.04
579.121	28667.98
579.319	28242
579.516	28522.57
579.714	28293.2
579.912	27754.58
580.11	27877.46
580.308	28301.39
580.506	27707.48
580.704	27566.17
580.901	27611.23
581.099	27887.7
581.297	27660.38
581.495	27600.99
581.692	27805.78
581.89	27246.69
582.088	27633.75
582.285	27261.02
582.483	27736.15
582.681	27234.4
582.878	27342.94
583.076	27418.72
583.274	27160.67
583.471	26519.66
583.669	26882.15
583.866	26740.84
584.064	26941.54
584.262	26351.73
584.459	26724.46
584.657	26402.93
584.854	26781.8
585.052	26157.17
585.249	26413.16
585.447	26480.75
585.644	26273.9
585.841	26007.67
586.039	26251.38
586.236	26071.15
586.434	25952.37
586.631	25704.57
586.828	26122.35
587.026	25706.62
587.223	25766.01
587.42	25145.47
587.618	25585.79
587.815	25464.96
588.012	25342.08
588.21	25041.03
588.407	25204.86
588.604	25004.16
588.801	24836.23
588.999	25288.83
589.196	24977.54
589.393	24979.59
589.59	24635.53
589.787	24762.5
589.984	24707.21
590.182	24324.24
590.379	24576.14
590.576	24598.66
590.773	24223.89
590.97	24367.24
591.167	24299.66
591.364	24111.25
591.561	24131.73
591.758	23912.6
591.955	23591.06
592.152	23845.01
592.349	23865.49
592.546	23769.24
592.743	23847.06
592.94	23519.39
593.137	23580.82
593.334	23468.19
593.531	23152.8
593.727	23646.36
593.924	23298.2
594.121	23105.7
594.318	23302.3
594.515	22982.82
594.712	23468.19
594.908	23019.68
595.105	23023.78
595.302	22761.64
595.499	22927.52
595.696	22608.04
595.892	22517.93
596.089	22517.93
596.286	22624.42
596.482	22503.59
596.679	22280.36
596.876	22417.58
597.072	22157.49
597.269	22352.04
597.466	22014.13
597.662	21860.53
597.859	21825.71
598.055	22032.56
598.252	21569.72
598.448	21647.54
598.645	21668.02
598.841	21264.57
599.038	21432.5
599.234	21457.08
599.431	21276.86
599.627	21190.84
599.824	21385.4
600.02	21139.65
600.217	21211.32
600.413	20992.19
600.609	21207.23
600.806	20750.53
601.002	21115.07
601.198	20881.6
601.395	20781.25
601.591	20639.94
601.787	20830.4
601.984	20652.23
602.18	20750.53
602.376	20474.06
602.572	20478.15
602.769	20283.59
602.965	20293.83
603.161	20011.21
603.357	19767.51
603.553	20154.57
603.75	20086.99
603.946	19861.71
604.142	19740.88
604.338	19876.05
604.534	20152.52
604.73	19429.59
604.926	19839.19
605.122	19675.35
605.318	19560.66
605.514	19476.69
605.71	19335.38
605.906	19372.25
606.102	19599.57
606.298	19034.33
606.494	19177.69
606.69	19024.09
606.886	19085.53
607.082	18999.52
607.278	19437.78
607.474	18815.2
607.67	18929.89
607.866	18731.23
608.062	18856.16
608.257	18778.34
608.453	18970.85
608.649	18677.99
608.845	18409.7
609.041	18561.25
609.236	18684.13
609.432	18450.66
609.628	18669.8
609.824	18741.47
610.019	18266.35
610.215	18258.15
610.411	18237.67
610.606	18217.19
610.802	18286.82
610.998	18198.76
611.193	18245.87
611.389	18071.79
611.584	18112.75
611.78	17869.04
611.976	18159.85
612.171	18094.32
612.367	17881.33
612.562	17889.52
612.758	17611
612.953	17651.95
613.149	17944.81
613.344	17641.71
613.539	17934.57
613.735	17608.95
613.93	17520.88
614.126	17371.38
614.321	17725.68
614.517	17490.17
614.712	17432.82
614.907	17064.19
615.103	17465.59
615.298	17365.24
615.493	17539.32
615.688	17205.5
615.884	17563.89
616.079	17060.09
616.274	17119.48
616.47	17115.39
616.665	16998.65
616.86	16943.36
617.055	17008.89
617.25	17035.52
617.445	17164.54
617.641	16832.77
617.836	16920.83
618.031	16451.84
618.226	16961.79
618.421	16572.68
618.616	16650.5
618.811	16496.9
619.006	17066.24
619.201	16091.4
619.396	16546.05
619.591	16189.7
619.786	16632.07
619.981	16122.12
620.176	16185.61
620.371	16236.81
620.566	15993.1
620.761	15718.67
620.956	15870.22
621.151	15616.27
621.346	15808.78
621.541	15534.35
621.735	15827.21
621.93	15333.65
622.125	15536.4
622.32	15370.52
622.515	15393.05
622.709	15018.27
622.904	15077.66
623.099	14879
623.294	15046.94
623.488	14792.99
623.683	14911.77
623.878	14512.42
624.072	14833.95
624.267	15008.03
624.462	14440.74
624.656	14266.66
624.851	14534.95
625.046	14100.78
625.24	14094.63
625.435	13977.9
625.629	14186.79
625.824	13803.82
626.018	13855.02
626.213	13439.28
626.407	13730.09
626.602	13484.34
626.796	13705.52
626.991	13529.39
627.185	13549.87
627.38	13519.15
627.574	13246.77
627.768	13349.17
627.963	13140.28
628.157	12792.12
628.352	13138.23
628.546	12820.8
628.74	12953.91
628.935	12562.75
629.129	12900.67
629.323	12570.94
629.517	12394.82
629.712	12566.85
629.906	12570.94
630.1	12466.5
630.294	12257.6
630.489	12233.03
630.683	12122.44
630.877	12015.94
631.071	12114.25
631.265	11970.89
631.459	12009.8
631.653	12028.23
631.848	11716.94
632.042	11839.82
632.236	11727.18
632.43	11737.42
632.624	11790.67
632.818	11549.01
633.012	11393.36
633.206	11376.98
633.4	11540.82
633.594	10932.57
633.788	11350.35
633.982	11336.02
634.176	11104.6
634.369	11168.09
634.563	10942.81
634.757	10903.9
634.951	10803.55
635.145	10676.57
635.339	10895.71
635.533	10699.1
635.726	10545.5
635.92	10510.69
636.114	10699.1
636.308	10596.7
636.501	10494.3
636.695	10211.68
636.889	10230.12
637.083	10281.32
637.276	10254.69
637.47	10119.53
637.664	10101.09
637.857	10086.76
638.051	9945.45
638.244	9914.73
638.438	9886.06
638.632	9818.47
638.825	9632.11
639.019	9652.59
639.212	9730.41
639.406	9552.24
639.599	9623.92
639.793	9544.05
639.986	9419.12
640.18	9617.77
640.373	9326.96
640.567	9226.61
640.76	9259.38
640.954	9150.84
641.147	8829.31
641.34	8989.05
641.534	8886.65
641.727	8960.38
641.92	9048.44
642.114	8724.86
642.307	8851.83
642.5	9109.88
642.694	8765.82
642.887	8583.55
643.08	8714.62
643.273	8573.31
643.467	8413.57
643.66	8192.39
643.853	8354.18
644.046	8075.65
644.239	8186.24
644.432	8407.42
644.626	8206.72
644.819	8229.25
645.012	8165.76
645.205	8321.41
645.398	7952.77
645.591	7971.21
645.784	7967.11
645.977	7864.71
646.17	7989.64
646.363	7790.99
646.556	7850.38
646.749	7825.8
646.942	7725.45
647.135	7596.43
647.328	7448.97
647.521	7659.92
647.714	7549.32
647.907	7346.58
648.099	7504.27
648.292	7440.78
648.485	7412.11
648.678	7131.54
648.871	7119.25
649.064	7283.09
649.256	7432.59
649.449	7139.73
649.642	7149.97
649.835	6943.13
650.027	7063.96
650.22	6965.65
650.413	6926.74
650.605	6853.02
650.798	6742.43
650.991	6767
651.183	6902.17
651.376	6707.61
651.568	6594.97
651.761	6754.71
651.954	6752.66
652.146	6810.01
652.339	6840.73
652.531	6361.5
652.724	6640.03
652.916	6508.96
653.109	6480.29
653.301	6310.3
653.494	6306.21
653.686	6162.85
653.879	6332.83
654.071	6201.76
654.263	6173.09
654.456	6295.97
654.648	6164.9
654.84	6001.06
655.033	6099.36
655.225	6189.47
655.417	6103.46
655.61	5865.89
655.802	5974.44
655.994	5851.56
656.186	5933.48
656.379	5886.37
656.571	5810.6
656.763	5714.34
656.955	5767.59
657.148	5824.94
657.34	5693.87
657.532	5511.6
657.724	5597.61
657.916	5495.21
658.108	5677.48
658.3	5505.45
658.492	5544.36
658.684	5464.49
658.876	5376.43
659.068	5355.95
659.26	5284.27
659.452	5269.94
659.644	5306.8
659.836	5052.85
660.028	5181.87
660.22	5239.22
660.412	5173.68
660.604	5159.35
660.796	5081.52
660.988	5124.53
661.18	4962.74
661.372	4995.51
661.563	5007.8
661.755	4872.63
661.947	4891.06
662.139	4889.01
662.331	4903.35
662.522	4772.28
662.714	4972.98
662.906	4862.39
663.097	4702.65
663.289	4792.76
663.481	4702.65
663.673	4663.74
663.864	4704.7
664.056	4669.88
664.247	4581.82
664.439	4420.03
664.631	4759.99
664.822	4600.25
665.014	4444.6
665.205	4479.42
665.397	4454.84
665.588	4383.17
665.78	4327.87
665.971	4293.05
666.163	4258.24
666.354	4258.24
666.546	4305.34
666.737	4268.48
666.929	4245.95
667.12	4297.15
667.311	4213.18
667.503	4073.92
667.694	4018.63
667.885	4090.31
668.077	4080.07
668.268	4133.31
668.459	4078.02
668.651	3944.9
668.842	4020.67
669.033	4035.01
669.224	3979.72
669.416	3977.67
669.607	4065.73
669.798	3949
669.989	4002.24
670.18	3883.46
670.371	3813.83
670.563	3779.01
670.754	3785.16
670.945	3693
671.136	3660.23
671.327	3725.77
671.518	3664.33
671.709	3649.99
671.9	3713.48
672.091	3758.53
672.282	3707.34
672.473	3566.03
672.664	3482.06
672.855	3574.22
673.046	3512.78
673.237	3643.85
673.428	3617.22
673.619	3434.96
673.809	3602.89
674	3328.46
674.191	3477.96
674.382	3463.63
674.573	3471.82
674.764	3297.74
674.954	3430.86
675.145	3412.43
675.336	3293.65
675.527	3453.39
675.717	3353.04
675.908	3400.14
676.099	3305.93
676.289	3301.84
676.48	3402.19
676.671	3326.41
676.861	3287.5
677.052	3162.58
677.243	3193.3
677.433	3250.64
677.624	3154.38
677.814	3187.15
678.005	3238.35
678.195	3205.58
678.386	3172.82
678.576	3060.18
678.767	3043.79
678.957	3037.65
679.148	3154.38
679.338	3066.32
679.529	3107.28
679.719	3037.65
679.909	3017.17
680.1	3047.89
680.29	2939.35
680.481	2996.69
680.671	2972.11
680.861	2920.92
681.052	3045.84
681.242	3006.93
681.432	3080.66
681.622	3011.03
681.813	2943.44
682.003	2818.52
682.193	2957.78
682.383	2965.97
682.573	2841.04
682.764	2957.78
682.954	2812.37
683.144	2750.93
683.334	2851.28
683.524	2857.43
683.714	2818.52
683.904	2695.64
684.094	2759.13
684.284	2771.41
684.474	2810.33
684.664	2894.29
684.854	2894.29
685.044	2681.3
685.234	2699.73
685.424	2640.34
685.614	2787.8
685.804	2701.78
685.994	2724.31
686.184	2685.4
686.374	2687.45
686.564	2732.5
686.753	2636.25
686.943	2720.21
687.133	2589.14
687.323	2752.98
687.513	2656.73
687.702	2712.02
687.892	2734.55
688.082	2621.91
688.272	2673.11
688.461	2591.19
688.651	2685.4
688.841	2599.38
689.03	2601.43
689.22	2562.52
689.41	2574.81
689.599	2558.42
689.789	2517.47
689.979	2562.52
690.168	2466.27
690.358	2576.86
690.547	2539.99
690.737	2519.51
690.926	2470.36
691.116	2503.13
691.305	2529.75
691.495	2494.94
691.684	2398.68
691.874	2308.57
692.063	2380.25
692.252	2474.46
692.442	2488.79
692.631	2443.74
692.82	2419.16
693.01	2367.96
693.199	2394.59
693.388	2413.02
693.578	2406.88
693.767	2367.96
693.956	2480.6
694.146	2464.22
694.335	2378.2
694.524	2394.59
694.713	2267.61
694.902	2396.64
695.092	2271.71
695.281	2396.64
695.47	2286.05
695.659	2302.43
695.848	2341.34
696.037	2357.72
696.226	2341.34
696.415	2257.37
696.604	2370.01
696.793	2331.1
696.982	2322.91
697.171	2343.39
697.36	2212.32
697.549	2331.1
697.738	2292.19
697.927	2292.19
698.116	2337.24
698.305	2265.57
698.494	2257.37
698.683	2195.93
698.872	2187.74
699.061	2288.09
699.25	2187.74
699.438	2191.84
699.627	2257.37
699.816	2220.51
700.005	2187.74
700.193	2316.76
700.382	2210.27
700.571	2197.98
700.76	2310.62
700.948	2269.66
701.137	2216.41
701.326	2269.66
701.514	2179.55
701.703	2204.13
701.892	2187.74
702.08	2146.78
702.269	2159.07
702.457	2216.41
702.646	2214.37
702.834	2208.22
703.023	2247.13
703.212	2161.12
703.4	2052.58
703.589	2066.91
703.777	2116.06
703.965	2071.01
704.154	2210.27
704.342	2204.13
704.531	2202.08
704.719	2191.84
704.907	2101.73
705.096	2050.53
705.284	2099.68
705.472	2128.35
705.661	1968.61
705.849	1984.99
706.037	2005.47
706.226	1923.55
706.414	2003.43
706.602	2015.71
706.79	1966.56
706.979	2015.71
707.167	1982.95
707.355	1991.14
707.543	2050.53
707.731	2034.14
707.919	2032.1
708.107	1962.47
708.296	1993.19
708.484	2062.82
708.672	1890.79
708.86	2077.15
709.048	2001.38
709.236	2064.86
709.424	2077.15
709.612	1980.9
709.8	1970.66
709.988	1845.73
710.176	1839.59
710.364	1941.99
710.551	1868.26
710.739	1849.83
710.927	1911.27
711.115	1913.31
711.303	2048.48
711.491	1829.35
711.679	1974.75
711.866	1784.29
712.054	1874.4
712.242	1952.23
712.43	1874.4
712.617	1833.44
712.805	1845.73
712.993	1931.75
713.181	1765.86
713.368	1849.83
713.556	1800.68
713.744	1792.48
713.931	1858.02
714.119	1780.2
714.306	1843.68
714.494	1864.16
714.682	1755.62
714.869	1833.44
715.057	1802.72
715.244	1817.06
715.432	1804.77
715.619	1698.28
715.807	1784.29
715.994	1776.1
716.182	1671.65
716.369	1798.63
716.556	1735.14
716.744	1755.62
716.931	1661.41
717.119	1673.7
717.306	1800.68
717.493	1663.46
717.681	1739.24
717.868	1757.67
718.055	1591.78
718.242	1638.89
718.43	1722.85
718.617	1755.62
718.804	1669.61
718.991	1587.69
719.179	1737.19
719.366	1575.4
719.553	1702.37
719.74	1663.46
719.927	1663.46
720.114	1645.03
720.301	1583.59
720.488	1604.07
720.676	1563.11
720.863	1655.27
721.05	1661.41
721.237	1630.7
721.424	1677.8
721.611	1583.59
721.798	1532.39
721.985	1526.25
722.172	1491.43
722.358	1591.78
722.545	1602.02
722.732	1505.77
722.919	1587.69
723.106	1556.97
723.293	1509.86
723.48	1452.52
723.667	1530.34
723.853	1608.17
724.04	1436.14
724.227	1548.78
724.414	1604.07
724.6	1528.3
724.787	1413.61
724.974	1405.42
725.161	1501.67
725.347	1440.23
725.534	1532.39
725.72	1516.01
725.907	1499.63
726.094	1540.58
726.28	1473
726.467	1497.58
726.653	1429.99
726.84	1444.33
727.027	1499.63
727.213	1395.18
727.4	1468.91
727.586	1454.57
727.773	1509.86
727.959	1429.99
728.145	1438.19
728.332	1528.3
728.518	1442.28
728.705	1434.09
728.891	1462.76
729.077	1407.47
729.264	1370.6
729.45	1401.32
729.636	1427.95
729.823	1346.03
730.009	1323.5
730.195	1458.67
730.382	1378.79
730.568	1331.69
730.754	1386.99
730.94	1362.41
731.126	1348.08
731.313	1436.14
731.499	1440.23
731.685	1446.38
731.871	1327.6
732.057	1343.98
732.243	1444.33
732.429	1413.61
732.615	1399.27
732.801	1372.65
732.987	1335.79
733.173	1417.71
733.359	1325.55
733.545	1309.16
733.731	1327.6
733.917	1362.41
734.103	1341.93
734.289	1278.44
734.475	1282.54
734.661	1335.79
734.847	1163.76
735.033	1296.88
735.219	1255.92
735.404	1333.74
735.59	1335.79
735.776	1384.94
735.962	1198.57
736.148	1268.2
736.333	1270.25
736.519	1270.25
736.705	1343.98
736.89	1280.49
737.076	1255.92
737.262	1233.39
737.447	1307.12
737.633	1255.92
737.819	1190.38
738.004	1196.53
738.19	1116.65
738.375	1247.72
738.561	1307.12
738.747	1200.62
738.932	1219.05
739.118	1362.41
739.303	1169.9
739.489	1260.01
739.674	1208.81
739.859	1126.89
740.045	1157.61
740.23	1130.99
740.416	1130.99
740.601	1178.09
740.786	1192.43
740.972	1280.49
741.157	1235.44
741.342	1165.81
741.528	1118.7
741.713	1135.09
741.898	1090.03
742.084	1188.33
742.269	1057.26
742.454	1100.27
742.639	1124.85
742.824	1143.28
743.01	1143.28
743.195	1063.41
743.38	1130.99
743.565	1184.24
743.75	1167.85
743.935	1090.03
744.12	1167.85
744.305	1034.74
744.49	1040.88
744.675	1061.36
744.86	1063.41
745.045	1124.85
745.23	1071.6
745.415	1120.75
745.6	1063.41
745.785	1024.5
745.97	1024.5
746.155	1059.31
746.34	1055.22
746.525	993.78
746.71	1102.32
746.895	973.3
747.079	1010.16
747.264	930.29
747.449	1069.55
747.634	1059.31
747.819	1004.02
748.003	1032.69
748.188	1022.45
748.373	958.96
748.557	995.82
748.742	881.14
748.927	991.73
749.111	973.3
749.296	924.15
749.481	905.71
749.665	973.3
749.85	907.76
750.034	983.54
750.219	928.24
750.404	922.1
750.588	836.08
750.773	907.76
750.957	946.67
751.141	893.43
751.326	915.95
751.51	870.9
751.695	784.88
751.879	850.42
752.064	860.66
752.248	897.52
752.432	813.56
752.617	842.23
752.801	858.61
752.985	801.27
753.17	827.89
753.354	838.13
753.538	838.13
753.722	874.99
753.907	926.19
754.091	788.98
754.275	782.84
754.459	805.36
754.643	795.12
754.828	809.46
755.012	815.6
755.196	735.73
755.38	782.84
755.564	760.31
755.748	711.16
755.932	774.64
756.116	725.49
756.3	735.73
756.484	795.12
756.668	786.93
756.852	686.58
757.036	768.5
757.22	737.78
757.404	694.77
757.588	711.16
757.772	637.43
757.956	739.83
758.14	715.25
758.323	678.39
758.507	694.77
758.691	653.81
758.875	725.49
759.059	721.4
759.242	684.53
759.426	705.01
759.61	592.37
759.794	649.72
759.977	707.06
760.161	686.58
760.345	713.21
760.528	713.21
760.712	694.77
760.895	702.97
761.079	602.61
761.263	670.2
761.446	629.24
761.63	639.48
761.813	612.85
761.997	664.05
762.18	590.33
762.364	619
762.547	532.98
762.731	602.61
762.914	614.9
763.098	635.38
763.281	487.93
763.464	586.23
763.648	565.75
763.831	629.24
764.015	518.65
764.198	549.37
764.381	596.47
764.564	494.07
764.748	588.28
764.931	608.76
765.114	616.95
765.297	590.33
765.481	606.71
765.664	596.47
765.847	561.66
766.03	569.85
766.213	598.52
766.397	543.22
766.58	569.85
766.763	590.33
766.946	449.02
767.129	551.42
767.312	524.79
767.495	571.9
767.678	528.89
767.861	559.61
768.044	518.65
768.227	494.07
768.41	518.65
768.593	506.36
768.776	551.42
768.959	514.55
769.142	500.22
769.324	557.56
769.507	522.74
769.69	424.44
769.873	524.79
770.056	541.18
770.239	481.78
770.421	571.9
770.604	469.5
770.787	526.84
770.97	535.03
771.152	500.22
771.335	516.6
771.518	510.46
771.7	449.02
771.883	457.21
772.066	565.75
772.248	530.94
772.431	557.56
772.613	498.17
772.796	467.45
772.978	500.22
773.161	498.17
773.343	469.5
773.526	444.92
773.708	459.26
773.891	459.26
774.073	479.74
774.256	471.54
774.438	588.28
774.621	500.22
774.803	500.22
774.985	442.87
775.168	444.92
775.35	375.29
775.532	475.64
775.715	453.11
775.897	457.21
776.079	444.92
776.261	477.69
776.444	451.07
776.626	418.3
776.808	397.82
776.99	416.25
777.173	381.43
777.355	432.63
777.537	410.11
777.719	422.39
777.901	369.15
778.083	426.49
778.265	338.43
778.447	408.06
778.629	363
778.811	350.71
778.993	418.3
779.175	397.82
779.357	410.11
779.539	397.82
779.721	348.67
779.903	416.25
780.085	420.35
780.267	266.75
780.449	393.72
780.631	352.76
780.812	344.57
780.994	334.33
781.176	367.1
781.358	428.54
781.54	371.19
781.721	424.44
781.903	279.04
782.085	334.33
782.267	348.67
782.448	320
782.63	373.24
782.812	311.8
782.993	385.53
783.175	326.14
783.357	371.19
783.538	303.61
783.72	401.91
783.901	279.04
784.083	367.1
784.264	276.99
784.446	334.33
784.627	268.8
784.809	383.48
784.99	262.65
785.172	285.18
785.353	305.66
785.535	317.95
785.716	408.06
785.897	305.66
786.079	233.98
786.26	260.6
786.441	281.08
786.623	326.14
786.804	274.94
786.985	348.67
787.167	279.04
787.348	201.21
787.529	279.04
787.71	334.33
787.891	227.84
788.073	244.22
788.254	276.99
788.435	291.32
788.616	283.13
788.797	256.51
788.978	248.32
789.159	207.36
789.34	186.88
789.522	231.93
789.703	326.14
789.884	295.42
790.065	150.01
790.246	186.88
790.427	254.46
790.607	250.36
790.788	221.69
790.969	156.16
791.15	270.84
791.331	244.22
791.512	270.84
791.693	215.55
791.874	211.45
792.054	268.8
792.235	215.55
792.416	188.93
792.597	238.08
792.778	180.73
792.958	279.04
793.139	231.93
793.32	244.22
793.5	236.03
793.681	197.12
793.862	219.64
794.042	274.94
794.223	119.29
794.404	178.69
794.584	236.03
794.765	180.73
794.945	203.26
795.126	186.88
795.306	162.3
795.487	166.4
795.667	172.54
795.848	268.8
796.028	145.92
796.209	236.03
796.389	170.49
796.57	180.73
796.75	188.93
796.93	207.36
797.111	242.17
797.291	90.62
797.471	186.88
797.652	197.12
797.832	137.73
798.012	227.84
798.192	145.92
798.373	129.53
798.553	190.97
798.733	209.4
798.913	92.67
799.093	180.73
799.274	197.12
799.454	254.46
799.634	215.55
799.814	203.26
799.994	104.96
800.174	156.16
800.354	125.44
800.534	199.16
800.714	211.45
800.894	147.97
801.074	137.73
801.254	162.3
801.434	190.97
801.614	197.12
801.794	150.01
801.974	381.43
802.154	190.97
802.334	123.39
802.514	123.39
802.693	156.16
802.873	205.31
803.053	219.64
803.233	170.49
803.413	145.92
803.592	96.77
803.772	127.49
803.952	156.16
804.131	125.44
804.311	182.78
804.491	137.73
804.67	215.55
804.85	154.11
805.03	170.49
805.209	94.72
805.389	102.91
805.568	115.2
805.748	129.53
805.928	162.3
806.107	139.77
806.287	123.39
806.466	111.1
806.646	184.83
806.825	47.62
807.004	109.05
807.184	143.87
807.363	170.49
807.543	129.53
807.722	104.96
807.901	127.49
808.081	162.3
808.26	143.87
808.439	145.92
808.619	92.67
808.798	164.35
808.977	172.54
809.156	78.33
809.336	51.71
809.515	131.58
809.694	133.63
809.873	123.39
810.052	125.44
810.231	121.34
810.411	160.25
810.59	102.91
810.769	39.42
810.948	96.77
811.127	109.05
811.306	168.45
811.485	78.33
811.664	133.63
811.843	113.15
812.022	145.92
812.201	37.38
812.38	98.81
812.559	121.34
812.737	84.48
812.916	145.92
813.095	123.39
813.274	39.42
813.453	72.19
813.632	68.09
813.811	213.5
813.989	160.25
814.168	104.96
814.347	70.14
814.526	150.01
814.704	96.77
814.883	119.29
815.062	84.48
815.24	117.25
815.419	88.57
815.598	80.38
815.776	160.25
815.955	78.33
816.133	47.62
816.312	68.09
816.49	102.91
816.669	107.01
816.847	156.16
817.026	107.01
817.204	88.57
817.383	59.9
817.561	143.87
817.74	76.29
817.918	68.09
818.097	82.43
818.275	113.15
818.453	64
818.632	123.39
818.81	51.71
818.988	98.81
819.167	109.05
819.345	59.9
819.523	43.52
819.701	88.57
819.879	113.15
820.058	131.58
820.236	150.01
820.414	131.58
820.592	96.77
820.77	27.14
820.948	113.15
821.127	55.81
821.305	-3.58
821.483	111.1
821.661	121.34
821.839	129.53
822.017	96.77
822.195	92.67
822.373	104.96
822.551	82.43
822.729	133.63
822.907	119.29
823.085	92.67
823.262	129.53
823.44	68.09
823.618	61.95
823.796	61.95
823.974	37.38
824.152	107.01
824.329	72.19
824.507	88.57
824.685	125.44
824.863	51.71
825.04	139.77
825.218	68.09
825.396	96.77
825.574	80.38
825.751	92.67
825.929	72.19
826.107	145.92
826.284	98.81
826.462	96.77
826.639	100.86
826.817	72.19
826.994	49.66
827.172	53.76
827.349	57.86
827.527	64
827.704	45.57
827.882	61.95
828.059	74.24
828.237	127.49
828.414	33.28
828.591	125.44
828.769	72.19
828.946	35.33
829.124	104.96
829.301	-13.82
829.478	104.96
829.655	6.66
829.833	90.62
830.01	104.96
830.187	37.38
830.364	84.48
830.542	20.99
830.719	64
830.896	72.19
831.073	20.99
831.25	137.73
831.427	66.05
831.604	29.18
831.782	119.29
831.959	43.52
832.136	82.43
832.313	111.1
832.49	66.05
832.667	64
832.844	123.39
833.021	61.95
833.198	53.76
833.374	41.47
833.551	96.77
833.728	0.51
833.905	68.09
834.082	57.86
834.259	72.19
834.436	39.42
834.612	68.09
834.789	115.2
834.966	31.23
835.143	68.09
835.319	-15.87
835.496	8.7
835.673	66.05
835.85	49.66
836.026	88.57
836.203	25.09
836.38	-1.54
836.556	76.29
836.733	39.42
836.909	53.76
837.086	88.57
837.262	-22.02
837.439	80.38
837.616	33.28
837.792	80.38
837.968	41.47
838.145	45.57
838.321	94.72
838.498	70.14
838.674	25.09
838.851	72.19
839.027	14.85
839.203	94.72
839.38	92.67
839.556	25.09
839.732	31.23
839.909	55.81
840.085	82.43
840.261	31.23
840.437	147.97
840.614	100.86
840.79	154.11
840.966	35.33
841.142	12.8
841.318	150.01
841.494	78.33
841.671	72.19
841.847	33.28
842.023	115.2
842.199	31.23
842.375	92.67
842.551	31.23
842.727	-3.58
842.903	70.14
843.079	31.23
843.255	20.99
843.431	51.71
843.607	55.81
843.783	10.75
843.959	94.72
844.134	39.42
844.31	64
844.486	6.66
844.662	27.14
844.838	47.62
845.013	51.71
845.189	33.28
845.365	55.81
845.541	55.81
845.716	84.48
845.892	-17.92
846.068	6.66
846.244	51.71
846.419	104.96
846.595	51.71
846.77	29.18
846.946	-22.02
847.122	-9.73
847.297	70.14
847.473	64
847.648	-26.11
847.824	27.14
847.999	12.8
848.175	74.24
848.35	78.33
848.526	64
848.701	68.09
848.876	74.24
849.052	107.01
849.227	31.23
849.403	37.38
849.578	33.28
849.753	64
849.929	29.18
850.104	33.28
850.279	-32.26
850.454	88.57
850.63	41.47
850.805	14.85
850.98	57.86
851.155	76.29
851.33	49.66
851.505	12.8
851.681	10.75
851.856	31.23
852.031	66.05
852.206	33.28
852.381	12.8
852.556	-17.92
852.731	37.38
852.906	-50.69
853.081	10.75
853.256	57.86
853.431	25.09
853.606	55.81
853.781	41.47
853.956	-32.26
854.131	53.76
854.305	-24.06
854.48	-32.26
854.655	2.56
854.83	-1.54
855.005	23.04
855.18	45.57
855.354	-17.92
855.529	14.85
855.704	49.66
855.879	45.57
856.053	76.29
856.228	27.14
856.403	90.62
856.577	-9.73
856.752	6.66
856.926	109.05
857.101	66.05
857.276	90.62
857.45	-19.97
857.625	45.57
857.799	27.14
857.974	18.94
858.148	72.19
858.323	-42.5
858.497	37.38
858.672	-30.21
858.846	-50.69
859.02	55.81
859.195	18.94
859.369	12.8
859.543	12.8
859.718	76.29
859.892	-7.68
860.066	59.9
860.241	45.57
860.415	-9.73
860.589	10.75
860.763	43.52
860.938	72.19
861.112	74.24
861.286	14.85
861.46	-1.54
861.634	41.47
861.808	39.42
861.982	0.51
862.157	70.14
862.331	-69.12
862.505	14.85
862.679	-40.45
862.853	47.62
863.027	29.18
863.201	43.52
863.375	-17.92
863.549	39.42
863.722	4.61
863.896	29.18
864.07	-40.45
864.244	57.86
864.418	82.43
864.592	41.47
864.766	43.52
864.939	64
865.113	18.94
865.287	55.81
865.461	-54.78
865.634	84.48
865.808	53.76
865.982	90.62
866.156	-5.63
866.329	14.85
866.503	57.86
866.676	59.9
866.85	-5.63
867.024	53.76
867.197	25.09
867.371	16.9
867.544	-42.5
867.718	74.24
867.891	-22.02
868.065	18.94
868.238	29.18
868.412	94.72
868.585	78.33
868.759	43.52
868.932	-22.02
869.105	51.71
869.279	10.75
869.452	-5.63
869.625	-15.87
869.799	8.7
869.972	-30.21
870.145	80.38
870.319	23.04
870.492	55.81
870.665	-32.26
870.838	29.18
871.011	-40.45
871.185	-9.73
871.358	88.57
871.531	-9.73
871.704	-17.92
871.877	20.99
872.05	39.42
872.223	-9.73
872.396	29.18
872.569	35.33
872.742	-89.6
872.915	72.19
873.088	2.56
873.261	8.7
873.434	25.09
873.607	-17.92
873.78	-15.87
873.953	29.18
874.126	23.04
874.299	14.85
874.471	20.99
874.644	-17.92
874.817	-1.54
874.99	27.14
875.163	25.09
875.335	61.95
875.508	2.56
875.681	-15.87
875.853	-22.02
876.026	61.95
876.199	18.94
876.371	82.43
876.544	0.51
876.717	-1.54
876.889	-40.45
877.062	-1.54
877.234	-26.11
877.407	10.75
877.579	-50.69
877.752	-1.54
877.924	39.42
878.097	33.28
878.269	4.61
878.442	121.34
878.614	-19.97
878.786	41.47
878.959	45.57
879.131	-24.06
879.303	16.9
879.476	74.24
879.648	10.75
879.82	31.23
879.993	-24.06
880.165	53.76
880.337	43.52
880.509	104.96
880.681	12.8
880.854	55.81
881.026	55.81
881.198	107.01
881.37	-1.54
881.542	76.29
881.714	-34.3
881.886	16.9
882.058	39.42
882.23	-1.54
882.402	39.42
882.574	35.33
882.746	0.51
882.918	129.53
883.09	12.8
883.262	55.81
883.434	74.24
883.606	18.94
883.778	29.18
883.95	80.38
884.122	94.72
884.293	47.62
884.465	14.85
884.637	25.09
884.809	2.56
884.98	-36.35
885.152	33.28
885.324	66.05
885.496	68.09
885.667	4.61
885.839	-60.93
886.011	-5.63
886.182	0.51
886.354	16.9
886.525	20.99
886.697	-1.54
886.869	59.9
887.04	33.28
887.212	8.7
887.383	20.99
887.555	6.66
887.726	64
887.897	-9.73
888.069	-77.31
888.24	43.52
888.412	2.56
888.583	2.56
888.754	12.8
888.926	82.43
889.097	18.94
889.268	90.62
889.44	27.14
889.611	-54.78
889.782	57.86
889.953	49.66
890.125	18.94
890.296	-42.5
890.467	-11.78
890.638	64
890.809	-32.26
890.98	100.86
891.151	2.56
891.323	8.7
891.494	33.28
891.665	-1.54
891.836	10.75
892.007	-17.92
892.178	84.48
892.349	82.43
892.52	43.52
892.691	59.9
892.862	-7.68
893.032	53.76
893.203	6.66
893.374	25.09
893.545	33.28
893.716	10.75
893.887	43.52
894.057	-17.92
894.228	41.47
894.399	-38.4
894.57	-3.58
894.74	31.23
894.911	-13.82
895.082	43.52
895.253	23.04
895.423	16.9
895.594	-40.45
895.764	39.42
895.935	10.75
896.106	-19.97
896.276	-17.92
896.447	18.94
896.617	12.8
896.788	37.38
896.958	-24.06
897.129	18.94
897.299	39.42
897.47	-13.82
897.64	-34.3
897.81	-30.21
897.981	72.19
898.151	23.04
898.322	-11.78
898.492	8.7
898.662	-34.3
898.832	39.42
899.003	4.61
899.173	-36.35
899.343	27.14
899.513	88.57
