Data from USB4F104151__56__12-59-18-664.txt Node

Date: Fri Mar 14 12:59:18 EDT 2025
User: louis
Spectrometer: USB4F10415
Trigger mode: 4
Integration Time (sec): 1.000000E-2
Scans to average: 1
Electric dark correction enabled: true
Nonlinearity correction enabled: false
Boxcar width: 0
XAxis mode: Wavelengths
Number of Pixels in Spectrum: 3648
>>>>>Begin Spectral Data<<<<<
178.204	-39.76
178.424	-39.76
178.644	-39.76
178.864	-95.06
179.084	-31.57
179.304	11.43
179.524	13.48
179.744	-39.76
179.964	48.3
180.184	-17.24
180.404	38.06
180.624	-31.57
180.844	23.72
181.064	19.63
181.283	17.58
181.503	-17.24
181.723	-66.39
181.943	36.01
182.163	60.59
182.383	-7
182.602	27.82
182.822	-25.43
183.042	7.34
183.262	23.72
183.482	-9.05
183.701	29.87
183.921	42.15
184.141	40.11
184.361	31.91
184.58	-9.05
184.8	79.02
185.02	-27.48
185.239	23.72
185.459	40.11
185.679	-11.09
185.898	-37.72
186.118	-37.72
186.338	-2.9
186.557	74.92
186.777	19.63
186.997	56.49
187.216	15.53
187.436	7.34
187.655	3.24
187.875	89.26
188.095	-7
188.314	64.68
188.534	36.01
188.753	-21.33
188.973	-52.05
189.192	89.26
189.412	7.34
189.631	-7
189.851	-17.24
190.07	40.11
190.29	-62.29
190.509	-29.52
190.729	-19.29
190.948	-52.05
191.168	-9.05
191.387	-80.72
191.607	60.59
191.826	-68.44
192.045	-52.05
192.265	-7
192.484	-31.57
192.704	-37.72
192.923	9.39
193.142	17.58
193.362	-21.33
193.581	-29.52
193.8	7.34
194.02	19.63
194.239	44.2
194.458	23.72
194.678	64.68
194.897	33.96
195.116	70.83
195.335	-2.9
195.555	-9.05
195.774	60.59
195.993	-33.62
196.212	107.69
196.432	29.87
196.651	-17.24
196.87	36.01
197.089	7.34
197.308	-60.24
197.528	62.63
197.747	3.24
197.966	56.49
198.185	13.48
198.404	3.24
198.623	36.01
198.842	13.48
199.062	44.2
199.281	1.19
199.5	29.87
199.719	-17.24
199.938	48.3
200.157	33.96
200.376	-56.15
200.595	-15.19
200.814	13.48
201.033	25.77
201.252	72.87
201.471	52.39
201.69	9.39
201.909	58.54
202.128	-25.43
202.347	91.31
202.566	15.53
202.785	1.19
203.004	29.87
203.223	31.91
203.442	-31.57
203.661	21.67
203.879	-13.14
204.098	36.01
204.317	33.96
204.536	13.48
204.755	23.72
204.974	95.4
205.193	-13.14
205.411	126.12
205.63	23.72
205.849	23.72
206.068	40.11
206.287	-35.67
206.505	-17.24
206.724	-15.19
206.943	25.77
207.162	36.01
207.381	56.49
207.599	11.43
207.818	-47.96
208.037	-13.14
208.255	97.45
208.474	7.34
208.693	19.63
208.911	-7
209.13	33.96
209.349	17.58
209.567	11.43
209.786	-2.9
210.005	50.35
210.223	-7
210.442	-37.72
210.661	-11.09
210.879	11.43
211.098	15.53
211.316	-11.09
211.535	15.53
211.753	-9.05
211.972	89.26
212.191	15.53
212.409	17.58
212.628	15.53
212.846	70.83
213.065	-39.76
213.283	48.3
213.502	9.39
213.72	-9.05
213.938	-17.24
214.157	74.92
214.375	-60.24
214.594	31.91
214.812	70.83
215.031	3.24
215.249	19.63
215.467	74.92
215.686	40.11
215.904	7.34
216.122	-17.24
216.341	9.39
216.559	7.34
216.778	23.72
216.996	-62.29
217.214	42.15
217.432	48.3
217.651	11.43
217.869	-21.33
218.087	25.77
218.306	23.72
218.524	7.34
218.742	54.44
218.96	83.11
219.179	50.35
219.397	-25.43
219.615	-17.24
219.833	9.39
220.051	-2.9
220.27	72.87
220.488	17.58
220.706	9.39
220.924	-9.05
221.142	-0.85
221.36	27.82
221.578	13.48
221.796	91.31
222.015	15.53
222.233	-31.57
222.451	25.77
222.669	5.29
222.887	29.87
223.105	38.06
223.323	40.11
223.541	9.39
223.759	52.39
223.977	5.29
224.195	23.72
224.413	29.87
224.631	36.01
224.849	66.73
225.067	7.34
225.285	-23.38
225.503	15.53
225.721	-33.62
225.939	-15.19
226.157	23.72
226.375	52.39
226.592	-56.15
226.81	60.59
227.028	17.58
227.246	21.67
227.464	-9.05
227.682	56.49
227.9	11.43
228.117	-25.43
228.335	-15.19
228.553	23.72
228.771	-25.43
228.989	-25.43
229.206	56.49
229.424	-13.14
229.642	-17.24
229.86	27.82
230.077	38.06
230.295	25.77
230.513	58.54
230.731	48.3
230.948	5.29
231.166	33.96
231.384	-35.67
231.601	11.43
231.819	-17.24
232.037	7.34
232.254	25.77
232.472	9.39
232.689	-9.05
232.907	-4.95
233.125	-11.09
233.342	36.01
233.56	-2.9
233.777	-11.09
233.995	101.55
234.213	-2.9
234.43	-17.24
234.648	54.44
234.865	17.58
235.083	25.77
235.3	72.87
235.518	25.77
235.735	1.19
235.953	27.82
236.17	-45.91
236.388	-31.57
236.605	33.96
236.822	9.39
237.04	-17.24
237.257	31.91
237.475	72.87
237.692	-47.96
237.909	-29.52
238.127	-58.2
238.344	-4.95
238.562	-2.9
238.779	-17.24
238.996	-23.38
239.214	11.43
239.431	60.59
239.648	-0.85
239.865	7.34
240.083	29.87
240.3	23.72
240.517	-41.81
240.735	5.29
240.952	42.15
241.169	128.17
241.386	-19.29
241.603	-25.43
241.821	21.67
242.038	66.73
242.255	-4.95
242.472	36.01
242.689	44.2
242.907	31.91
243.124	-45.91
243.341	46.25
243.558	-15.19
243.775	58.54
243.992	-50
244.209	15.53
244.426	5.29
244.643	76.97
244.86	-29.52
245.078	-21.33
245.295	60.59
245.512	31.91
245.729	-43.86
245.946	-33.62
246.163	23.72
246.38	46.25
246.597	-11.09
246.814	44.2
247.031	-21.33
247.248	70.83
247.464	52.39
247.681	-35.67
247.898	7.34
248.115	29.87
248.332	-50
248.549	60.59
248.766	33.96
248.983	-31.57
249.2	-17.24
249.417	54.44
249.633	17.58
249.85	-17.24
250.067	15.53
250.284	-0.85
250.501	23.72
250.717	7.34
250.934	-4.95
251.151	33.96
251.368	3.24
251.585	9.39
251.801	68.78
252.018	-15.19
252.235	23.72
252.451	-7
252.668	-31.57
252.885	54.44
253.102	33.96
253.318	56.49
253.535	7.34
253.752	9.39
253.968	58.54
254.185	-4.95
254.401	-58.2
254.618	97.45
254.835	-29.52
255.051	46.25
255.268	64.68
255.484	19.63
255.701	-7
255.917	27.82
256.134	1.19
256.351	9.39
256.567	-9.05
256.784	-19.29
257	25.77
257.217	52.39
257.433	13.48
257.65	15.53
257.866	27.82
258.082	58.54
258.299	-39.76
258.515	58.54
258.732	-2.9
258.948	-21.33
259.165	-25.43
259.381	-2.9
259.597	-4.95
259.814	7.34
260.03	-0.85
260.246	3.24
260.463	9.39
260.679	68.78
260.895	-60.24
261.112	25.77
261.328	23.72
261.544	29.87
261.761	64.68
261.977	117.93
262.193	38.06
262.409	25.77
262.626	27.82
262.842	68.78
263.058	-41.81
263.274	33.96
263.49	-4.95
263.707	27.82
263.923	23.72
264.139	9.39
264.355	97.45
264.571	13.48
264.787	-29.52
265.004	-4.95
265.22	36.01
265.436	52.39
265.652	-17.24
265.868	13.48
266.084	-11.09
266.3	-7
266.516	-7
266.732	19.63
266.948	7.34
267.164	46.25
267.38	15.53
267.596	27.82
267.812	36.01
268.028	115.88
268.244	1.19
268.46	-64.34
268.676	7.34
268.892	93.35
269.108	91.31
269.324	5.29
269.54	29.87
269.756	50.35
269.972	-4.95
270.188	-25.43
270.403	27.82
270.619	72.87
270.835	36.01
271.051	70.83
271.267	-68.44
271.483	68.78
271.698	-9.05
271.914	-2.9
272.13	-13.14
272.346	44.2
272.562	36.01
272.777	31.91
272.993	-9.05
273.209	58.54
273.425	-56.15
273.64	-21.33
273.856	42.15
274.072	-25.43
274.287	-7
274.503	79.02
274.719	-37.72
274.934	60.59
275.15	-17.24
275.366	33.96
275.581	7.34
275.797	15.53
276.012	11.43
276.228	46.25
276.444	-41.81
276.659	72.87
276.875	-97.11
277.09	-13.14
277.306	44.2
277.521	40.11
277.737	46.25
277.952	42.15
278.168	9.39
278.383	23.72
278.599	21.67
278.814	15.53
279.03	33.96
279.245	79.02
279.461	46.25
279.676	23.72
279.892	44.2
280.107	-25.43
280.322	-0.85
280.538	-68.44
280.753	-7
280.969	-43.86
281.184	-15.19
281.399	91.31
281.615	56.49
281.83	-19.29
282.045	19.63
282.26	68.78
282.476	81.07
282.691	56.49
282.906	3.24
283.122	17.58
283.337	36.01
283.552	87.21
283.767	40.11
283.983	31.91
284.198	85.16
284.413	9.39
284.628	-29.52
284.843	-17.24
285.058	-56.15
285.274	58.54
285.489	-4.95
285.704	99.5
285.919	-23.38
286.134	-31.57
286.349	76.97
286.564	7.34
286.779	23.72
286.995	9.39
287.21	9.39
287.425	44.2
287.64	-17.24
287.855	23.72
288.07	-62.29
288.285	48.3
288.5	5.29
288.715	13.48
288.93	42.15
289.145	21.67
289.36	42.15
289.575	5.29
289.79	5.29
290.004	-45.91
290.219	1.19
290.434	-7
290.649	-37.72
290.864	79.02
291.079	36.01
291.294	-37.72
291.509	1.19
291.724	-21.33
291.938	-56.15
292.153	54.44
292.368	40.11
292.583	3.24
292.798	-0.85
293.012	-23.38
293.227	-13.14
293.442	-21.33
293.657	48.3
293.871	25.77
294.086	21.67
294.301	52.39
294.516	40.11
294.73	1.19
294.945	-33.62
295.16	7.34
295.374	15.53
295.589	95.4
295.804	-31.57
296.018	74.92
296.233	-50
296.447	-9.05
296.662	46.25
296.877	58.54
297.091	-29.52
297.306	-33.62
297.52	-0.85
297.735	40.11
297.949	95.4
298.164	31.91
298.378	25.77
298.593	23.72
298.807	-11.09
299.022	7.34
299.236	50.35
299.451	91.31
299.665	-39.76
299.88	-4.95
300.094	-25.43
300.309	142.5
300.523	-21.33
300.737	89.26
300.952	17.58
301.166	58.54
301.381	-39.76
301.595	27.82
301.809	33.96
302.024	50.35
302.238	40.11
302.452	107.69
302.667	-50
302.881	33.96
303.095	-17.24
303.309	-17.24
303.524	19.63
303.738	-33.62
303.952	13.48
304.166	48.3
304.381	-31.57
304.595	17.58
304.809	-13.14
305.023	-17.24
305.237	19.63
305.452	-33.62
305.666	87.21
305.88	-39.76
306.094	60.59
306.308	44.2
306.522	-11.09
306.736	17.58
306.95	42.15
307.164	15.53
307.379	-25.43
307.593	-7
307.807	38.06
308.021	23.72
308.235	17.58
308.449	-78.68
308.663	-17.24
308.877	56.49
309.091	-86.87
309.305	7.34
309.519	-60.24
309.733	27.82
309.947	3.24
310.161	15.53
310.374	56.49
310.588	142.5
310.802	-19.29
311.016	-25.43
311.23	15.53
311.444	33.96
311.658	-0.85
311.872	60.59
312.085	38.06
312.299	81.07
312.513	52.39
312.727	74.92
312.941	46.25
313.154	21.67
313.368	36.01
313.582	25.77
313.796	-39.76
314.009	60.59
314.223	48.3
314.437	-45.91
314.651	50.35
314.864	-9.05
315.078	25.77
315.292	-17.24
315.505	27.82
315.719	25.77
315.933	-11.09
316.146	66.73
316.36	-43.86
316.573	31.91
316.787	23.72
317.001	97.45
317.214	17.58
317.428	-9.05
317.641	5.29
317.855	15.53
318.068	44.2
318.282	62.63
318.495	56.49
318.709	7.34
318.922	-4.95
319.136	56.49
319.349	38.06
319.563	42.15
319.776	33.96
319.99	40.11
320.203	29.87
320.417	50.35
320.63	27.82
320.843	-23.38
321.057	23.72
321.27	-11.09
321.483	50.35
321.697	-45.91
321.91	33.96
322.124	54.44
322.337	19.63
322.55	-37.72
322.763	-15.19
322.977	-2.9
323.19	25.77
323.403	31.91
323.617	-47.96
323.83	-45.91
324.043	40.11
324.256	7.34
324.469	-13.14
324.683	66.73
324.896	-70.48
325.109	17.58
325.322	-45.91
325.535	70.83
325.748	66.73
325.962	3.24
326.175	-37.72
326.388	-0.85
326.601	36.01
326.814	7.34
327.027	-35.67
327.24	9.39
327.453	-0.85
327.666	-33.62
327.879	60.59
328.092	21.67
328.305	36.01
328.518	-9.05
328.731	-27.48
328.944	-4.95
329.157	5.29
329.37	54.44
329.583	11.43
329.796	23.72
330.009	64.68
330.222	-19.29
330.435	62.63
330.648	9.39
330.861	31.91
331.073	23.72
331.286	-25.43
331.499	-17.24
331.712	81.07
331.925	5.29
332.138	-29.52
332.35	74.92
332.563	-11.09
332.776	25.77
332.989	79.02
333.202	38.06
333.414	-17.24
333.627	-45.91
333.84	31.91
334.053	40.11
334.265	15.53
334.478	23.72
334.691	23.72
334.903	58.54
335.116	15.53
335.329	21.67
335.541	17.58
335.754	-4.95
335.966	48.3
336.179	1.19
336.392	-7
336.604	101.55
336.817	-29.52
337.029	64.68
337.242	42.15
337.454	79.02
337.667	93.35
337.88	3.24
338.092	58.54
338.305	44.2
338.517	7.34
338.729	25.77
338.942	62.63
339.154	31.91
339.367	-13.14
339.579	25.77
339.792	9.39
340.004	-21.33
340.217	11.43
340.429	-4.95
340.641	-45.91
340.854	95.4
341.066	-31.57
341.278	-13.14
341.491	58.54
341.703	40.11
341.915	-4.95
342.128	15.53
342.34	17.58
342.552	5.29
342.764	23.72
342.977	-0.85
343.189	1.19
343.401	58.54
343.613	17.58
343.826	56.49
344.038	-9.05
344.25	70.83
344.462	-15.19
344.674	31.91
344.886	-7
345.099	-29.52
345.311	-23.38
345.523	36.01
345.735	11.43
345.947	5.29
346.159	81.07
346.371	64.68
346.583	31.91
346.795	60.59
347.007	33.96
347.219	64.68
347.431	-41.81
347.643	36.01
347.855	25.77
348.067	29.87
348.279	15.53
348.491	44.2
348.703	-39.76
348.915	1.19
349.127	5.29
349.339	60.59
349.551	46.25
349.763	-50
349.975	13.48
350.187	60.59
350.399	70.83
350.61	-17.24
350.822	-9.05
351.034	70.83
351.246	7.34
351.458	44.2
351.669	-21.33
351.881	74.92
352.093	25.77
352.305	11.43
352.517	33.96
352.728	54.44
352.94	-17.24
353.152	54.44
353.363	-27.48
353.575	-13.14
353.787	27.82
353.999	48.3
354.21	46.25
354.422	36.01
354.633	74.92
354.845	21.67
355.057	-41.81
355.268	89.26
355.48	-47.96
355.692	72.87
355.903	40.11
356.115	-17.24
356.326	33.96
356.538	-11.09
356.749	-35.67
356.961	-7
357.172	29.87
357.384	-37.72
357.595	-41.81
357.807	9.39
358.018	17.58
358.23	9.39
358.441	105.64
358.653	79.02
358.864	-35.67
359.075	1.19
359.287	11.43
359.498	72.87
359.709	64.68
359.921	-2.9
360.132	81.07
360.344	62.63
360.555	54.44
360.766	-62.29
360.977	64.68
361.189	31.91
361.4	25.77
361.611	25.77
361.823	23.72
362.034	40.11
362.245	-9.05
362.456	70.83
362.667	25.77
362.879	42.15
363.09	48.3
363.301	-68.44
363.512	48.3
363.723	-56.15
363.935	7.34
364.146	42.15
364.357	-43.86
364.568	38.06
364.779	1.19
364.99	-0.85
365.201	62.63
365.412	-2.9
365.623	40.11
365.834	25.77
366.045	40.11
366.256	31.91
366.467	44.2
366.678	25.77
366.889	-2.9
367.1	-33.62
367.311	54.44
367.522	-11.09
367.733	5.29
367.944	97.45
368.155	36.01
368.366	-2.9
368.577	23.72
368.788	11.43
368.999	23.72
369.209	-25.43
369.42	97.45
369.631	-15.19
369.842	-37.72
370.053	23.72
370.264	48.3
370.474	-9.05
370.685	31.91
370.896	27.82
371.107	48.3
371.317	85.16
371.528	-19.29
371.739	89.26
371.95	48.3
372.16	56.49
372.371	29.87
372.582	70.83
372.792	19.63
373.003	115.88
373.214	9.39
373.424	23.72
373.635	72.87
373.846	-17.24
374.056	58.54
374.267	40.11
374.477	11.43
374.688	60.59
374.898	-37.72
375.109	-19.29
375.319	-15.19
375.53	60.59
375.74	23.72
375.951	31.91
376.161	76.97
376.372	50.35
376.582	7.34
376.793	36.01
377.003	31.91
377.214	25.77
377.424	79.02
377.635	9.39
377.845	38.06
378.055	52.39
378.266	66.73
378.476	72.87
378.686	93.35
378.897	1.19
379.107	23.72
379.317	33.96
379.528	46.25
379.738	54.44
379.948	-27.48
380.158	-0.85
380.369	17.58
380.579	21.67
380.789	38.06
380.999	21.67
381.21	40.11
381.42	93.35
381.63	27.82
381.84	40.11
382.05	13.48
382.261	66.73
382.471	48.3
382.681	68.78
382.891	29.87
383.101	9.39
383.311	-13.14
383.521	40.11
383.731	13.48
383.941	91.31
384.151	-64.34
384.361	-82.77
384.571	11.43
384.781	38.06
384.991	25.77
385.201	50.35
385.411	29.87
385.621	3.24
385.831	52.39
386.041	58.54
386.251	15.53
386.461	72.87
386.671	27.82
386.881	40.11
387.091	29.87
387.301	56.49
387.511	85.16
387.72	64.68
387.93	-17.24
388.14	15.53
388.35	60.59
388.56	42.15
388.769	17.58
388.979	56.49
389.189	66.73
389.399	15.53
389.609	72.87
389.818	38.06
390.028	-2.9
390.238	89.26
390.447	83.11
390.657	31.91
390.867	9.39
391.076	64.68
391.286	15.53
391.496	60.59
391.705	9.39
391.915	70.83
392.125	9.39
392.334	99.5
392.544	23.72
392.753	29.87
392.963	13.48
393.172	52.39
393.382	-23.38
393.591	105.64
393.801	42.15
394.01	62.63
394.22	9.39
394.429	-7
394.639	1.19
394.848	72.87
395.058	74.92
395.267	89.26
395.477	56.49
395.686	48.3
395.895	23.72
396.105	66.73
396.314	44.2
396.524	19.63
396.733	27.82
396.942	21.67
397.152	13.48
397.361	70.83
397.57	19.63
397.78	91.31
397.989	25.77
398.198	87.21
398.407	99.5
398.617	-17.24
398.826	87.21
399.035	46.25
399.244	130.22
399.453	36.01
399.663	83.11
399.872	87.21
400.081	13.48
400.29	95.4
400.499	64.68
400.708	40.11
400.917	91.31
401.127	3.24
401.336	44.2
401.545	101.55
401.754	7.34
401.963	122.02
402.172	103.59
402.381	-21.33
402.59	31.91
402.799	97.45
403.008	79.02
403.217	76.97
403.426	50.35
403.635	89.26
403.844	29.87
404.053	72.87
404.262	76.97
404.471	105.64
404.68	85.16
404.888	122.02
405.097	52.39
405.306	68.78
405.515	122.02
405.724	58.54
405.933	126.12
406.142	93.35
406.35	91.31
406.559	42.15
406.768	95.4
406.977	115.88
407.185	97.45
407.394	132.26
407.603	74.92
407.812	162.98
408.02	117.93
408.229	132.26
408.438	68.78
408.646	175.27
408.855	191.66
409.064	146.6
409.272	122.02
409.481	142.5
409.69	175.27
409.898	158.89
410.107	187.56
410.315	169.13
410.524	150.7
410.733	195.75
410.941	169.13
411.15	244.9
411.358	281.77
411.567	220.33
411.775	232.62
411.984	253.09
412.192	220.33
412.401	193.7
412.609	267.43
412.818	273.57
413.026	298.15
413.234	298.15
413.443	361.64
413.651	375.97
413.86	265.38
414.068	277.67
414.276	341.16
414.485	326.82
414.693	359.59
414.901	347.3
415.11	373.92
415.318	443.56
415.526	441.51
415.734	502.95
415.943	447.65
416.151	478.37
416.359	478.37
416.567	449.7
416.776	488.61
416.984	550.05
417.192	507.04
417.4	531.62
417.608	548
417.817	560.29
418.025	572.58
418.233	617.63
418.441	687.26
418.649	699.55
418.857	758.94
419.065	789.66
419.273	734.37
419.481	775.33
419.689	781.47
419.897	865.44
420.105	785.57
420.313	935.07
420.521	908.44
420.729	912.54
420.937	902.3
421.145	1006.75
421.353	1027.23
421.561	1107.1
421.769	1051.8
421.977	1201.3
422.185	1189.02
422.393	1211.54
422.601	1332.37
422.809	1328.28
423.017	1225.88
423.224	1359
423.432	1373.33
423.64	1483.92
423.848	1543.32
424.056	1483.92
424.263	1588.37
424.471	1522.84
424.679	1664.15
424.887	1725.58
425.094	1834.13
425.302	1672.34
425.51	1893.52
425.718	1875.09
425.925	1987.72
426.133	2008.2
426.341	2067.6
426.548	2221.19
426.756	2253.96
426.964	2192.52
427.171	2370.69
427.379	2507.91
427.586	2483.33
427.794	2524.29
428.001	2643.07
428.209	2874.49
428.417	2739.33
428.624	2999.42
428.832	2892.93
429.039	2956.41
429.247	2837.63
429.454	3136.63
429.662	3376.25
429.869	3185.79
430.076	3323
430.284	3325.05
430.491	3390.58
430.699	3691.63
430.906	3667.06
431.114	3808.37
431.321	3828.85
431.528	3953.77
431.736	4148.33
431.943	4316.26
432.15	4279.4
432.358	4344.94
432.565	4600.93
432.772	4537.45
432.979	4809.83
433.187	4877.41
433.394	4832.35
433.601	5127.26
433.808	5215.32
434.016	5243.99
434.223	5428.31
434.43	5766.23
434.637	5645.4
434.844	5973.07
435.052	6159.44
435.259	5950.54
435.466	6028.37
435.673	6087.76
435.88	6460.49
436.087	6595.65
436.294	6732.87
436.501	6808.64
436.708	6788.16
436.915	7078.97
437.122	7386.17
437.329	7271.48
437.537	7584.82
437.743	7719.99
437.95	7584.82
438.157	8043.57
438.364	8289.32
438.571	8315.95
438.778	8234.03
438.985	9063.46
439.192	8768.55
439.399	8905.76
439.606	8750.12
439.813	9313.31
440.02	9901.08
440.227	9630.74
440.433	9563.16
440.64	9870.36
440.847	9853.97
441.054	10011.67
441.261	10746.89
441.467	10785.8
441.674	10832.9
441.881	11197.44
442.088	10949.64
442.294	11168.77
442.501	11418.62
442.708	11709.43
442.914	12010.48
443.121	12520.43
443.328	12237.81
443.534	13231.07
443.741	12852.2
443.948	12702.7
444.154	13648.86
444.361	13663.19
444.568	13611.99
444.774	13755.35
444.981	13693.91
445.187	14289.87
445.394	14916.55
445.6	14558.16
445.807	15995.83
446.013	15199.17
446.22	15782.84
446.426	16395.18
446.633	16540.59
446.839	17118.12
447.046	16442.29
447.252	17400.74
447.459	17578.91
447.665	17179.56
447.871	18176.92
448.078	19149.7
448.284	17961.88
448.491	18357.14
448.697	18912.14
448.903	19323.78
449.11	19643.26
449.316	19354.5
449.522	19579.78
449.728	20327.28
449.935	20394.87
450.141	20515.7
450.347	20726.64
450.553	20198.26
450.76	20140.92
450.966	21330.79
451.172	20802.41
451.378	21627.74
451.584	21263.21
451.791	21478.24
451.997	21793.63
452.203	22102.87
452.409	22143.83
452.615	21936.99
452.821	21250.92
453.027	21052.27
453.233	22072.15
453.44	21328.74
453.646	21179.24
453.852	21425
454.058	22172.5
454.264	21136.23
454.47	21490.53
454.676	21367.65
454.882	22166.36
455.088	20044.66
455.294	20358
455.5	20626.29
455.705	20738.93
455.911	20188.02
456.117	19692.41
456.323	19436.42
456.529	18146.2
456.735	18994.06
456.941	18807.69
457.147	18520.98
457.352	17955.74
457.558	17683.36
457.764	17869.72
457.97	17523.62
458.176	16774.06
458.381	17195.94
458.587	15788.99
458.793	16182.2
458.999	15166.4
459.204	16380.85
459.41	16081.85
459.616	15049.67
459.821	15021
460.027	14930.89
460.233	14429.13
460.438	13937.62
460.644	14111.7
460.85	13302.75
461.055	13286.37
461.261	13237.22
461.466	12426.22
461.672	11895.8
461.878	12692.46
462.083	11932.66
462.289	11711.48
462.494	11408.38
462.7	11013.12
462.905	10626.06
463.111	10859.52
463.316	11043.84
463.522	11006.98
463.727	10982.4
463.932	10851.33
464.138	10793.99
464.343	10982.4
464.549	10460.17
464.754	10955.78
464.959	10710.02
465.165	10798.09
465.37	10306.57
465.575	10159.12
465.781	10296.33
465.986	10249.23
466.191	10089.49
466.397	9907.22
466.602	9237.53
466.807	9790.49
467.012	9862.16
467.218	9765.91
467.423	9571.35
467.628	9667.61
467.833	10064.91
468.038	9638.94
468.244	9399.32
468.449	9913.36
468.654	9151.52
468.859	9509.91
469.064	9391.13
469.269	9022.5
469.474	8938.53
469.679	9376.8
469.885	8997.92
470.09	9077.79
470.295	9049.12
470.5	8834.08
470.705	8836.13
470.91	8535.08
471.115	8522.79
471.32	8682.53
471.525	8594.47
471.73	8397.87
471.935	8215.6
472.139	8072.24
472.344	8107.05
472.549	8281.13
472.754	8137.77
472.959	7949.36
473.164	7699.51
473.369	7654.45
473.574	7914.55
473.778	7779.38
473.983	8062
474.188	7781.43
474.393	7425.08
474.598	7324.73
474.802	7560.25
475.007	7308.35
475.212	7453.75
475.417	6997.06
475.621	7140.41
475.826	6988.86
476.031	7167.04
476.235	6814.79
476.44	7115.84
476.645	6816.83
476.849	6812.74
477.054	6593.61
477.259	6759.49
477.463	6829.12
477.668	6548.55
477.872	6458.44
478.077	6390.86
478.282	6206.54
478.486	6098
478.691	6222.92
478.895	6343.75
479.1	6095.95
479.304	6313.03
479.509	5958.74
479.713	6032.46
479.918	5864.53
480.122	5907.54
480.326	5997.65
480.531	6063.18
480.735	5770.32
480.94	5874.77
481.144	5938.26
481.348	5760.08
481.553	5784.66
481.757	5790.8
481.961	5741.65
482.166	5880.91
482.37	5987.41
482.574	5639.25
482.778	5794.9
482.983	5952.59
483.187	5737.56
483.391	5663.83
483.595	5676.12
483.8	5733.46
484.004	5680.21
484.208	5813.33
484.412	5659.73
484.616	5784.66
484.821	5889.1
485.025	5792.85
485.229	5567.57
485.433	5743.7
485.637	5731.41
485.841	5655.64
486.045	5581.91
486.249	5723.22
486.453	5641.3
486.657	5710.93
486.861	5842
487.065	5782.61
487.269	5633.11
487.473	5870.67
487.677	5727.32
487.881	5729.36
488.085	5749.84
488.289	5839.95
488.493	5952.59
488.697	5887.06
488.901	5764.18
489.105	5893.2
489.309	5860.43
489.512	5827.67
489.716	5792.85
489.92	5905.49
490.124	5934.16
490.328	5956.69
490.531	5960.78
490.735	5950.54
490.939	5829.71
491.143	5858.39
491.346	5958.74
491.55	6032.46
491.754	6048.85
491.958	6087.76
492.161	5946.45
492.365	6280.27
492.569	6089.81
492.772	6077.52
492.976	6089.81
493.18	6270.03
493.383	6282.31
493.587	6255.69
493.79	6374.47
493.994	6448.2
494.197	6419.53
494.401	6485.06
494.605	6523.98
494.808	6562.89
495.012	6575.17
495.215	6757.44
495.419	6671.43
495.622	6679.62
495.825	6671.43
496.029	6833.22
496.232	6943.81
496.436	7021.63
496.639	7214.14
496.843	7115.84
497.046	7236.67
497.249	7175.23
497.453	7386.17
497.656	7529.53
497.859	7568.44
498.063	7461.94
498.266	7480.38
498.469	7750.71
498.673	7672.89
498.876	8070.19
499.079	7990.32
499.282	8133.68
499.485	8309.8
499.689	8195.12
499.892	8213.55
500.095	8469.55
500.298	8676.39
500.501	8453.16
500.705	8805.41
500.908	8969.25
501.111	9073.7
501.314	9116.7
501.517	9081.89
501.72	9174.05
501.923	9503.77
502.126	9370.65
502.329	9597.98
502.532	9856.02
502.735	9927.7
502.938	10095.63
503.141	10007.57
503.344	10271.76
503.547	10206.22
503.75	10370.06
503.953	10550.28
504.156	10748.93
504.359	10763.27
504.562	11031.55
504.765	11019.27
504.968	11289.6
505.17	11297.79
505.373	11355.13
505.576	11564.03
505.779	11686.9
505.982	11740.15
506.185	12106.74
506.387	12196.85
506.59	12393.45
506.793	12481.52
506.996	12323.82
507.198	12809.19
507.401	12870.63
507.604	12999.65
507.807	13218.78
508.009	13089.76
508.212	13210.59
508.415	13566.94
508.617	13759.45
508.82	13779.93
509.022	13974.49
509.225	14271.44
509.428	14586.83
509.63	14603.21
509.833	14445.52
510.035	14918.6
510.238	14908.36
510.44	15082.44
510.643	15485.89
510.845	15481.79
511.048	15633.34
511.25	15854.52
511.453	15907.77
511.655	16645.04
511.858	16210.87
512.06	16534.45
512.262	16722.86
512.465	16851.88
512.667	17218.47
512.87	17400.74
513.072	17419.17
513.274	17804.19
513.477	17810.33
513.679	18289.56
513.881	17978.26
514.084	18518.93
514.286	18252.69
514.488	18594.7
514.69	19092.36
514.893	19215.24
515.095	19444.61
515.297	19446.66
515.499	19485.57
515.701	19909.5
515.904	20370.29
516.106	20204.41
516.308	20482.93
516.51	20855.66
516.712	20841.32
516.914	20982.63
517.116	21398.37
517.318	21789.53
517.52	21799.77
517.722	21900.12
517.925	22049.63
518.127	22199.13
518.329	22401.88
518.531	22330.2
518.733	22903.63
518.935	23302.98
519.136	23169.87
519.338	23972.67
519.54	23540.55
519.742	24001.34
519.944	24134.46
520.146	24548.15
520.348	24920.88
520.55	24519.48
520.752	25004.85
520.954	25355.05
521.155	25326.38
521.357	25901.86
521.559	25877.28
521.761	26104.6
521.963	26186.52
522.164	26241.82
522.366	26477.33
522.568	26512.15
522.77	26864.4
522.971	27486.98
523.173	27267.85
523.375	27292.43
523.576	27357.96
523.778	27556.61
523.98	27763.46
524.181	28113.66
524.383	27947.78
524.584	28355.32
524.786	28578.55
524.988	28445.43
525.189	28834.55
525.391	28957.42
525.592	29197.04
525.794	29430.51
525.995	29444.84
526.197	29223.66
526.398	29389.55
526.6	29565.67
526.801	30016.22
527.003	30384.86
527.204	30040.8
527.406	30489.31
527.607	30556.89
527.808	30622.42
528.01	29956.83
528.211	30350.04
528.412	31445.71
528.614	30829.27
528.815	30747.35
529.016	31621.83
529.218	30534.36
529.419	31132.37
529.62	31263.44
529.822	31728.33
530.023	31486.67
530.224	31335.12
530.425	31449.8
530.626	31343.31
530.828	31111.89
531.029	31892.16
531.23	31374.03
531.431	31535.82
531.632	31806.15
531.833	31859.4
532.035	31918.79
532.236	32113.34
532.437	32344.77
532.638	31718.09
532.839	32492.22
533.04	32178.88
533.241	31834.82
533.442	32289.47
533.643	32342.72
533.844	31951.56
534.045	32578.23
534.246	32082.63
534.447	32629.43
534.648	32109.25
534.849	31998.66
535.05	32107.2
535.251	32383.68
535.451	32193.22
535.652	32615.1
535.853	32379.58
536.054	32451.26
536.255	32416.44
536.456	32309.95
536.657	32881.33
536.857	32271.04
537.058	32367.29
537.259	32785.08
537.46	32447.16
537.66	32328.38
537.861	32936.63
538.062	32529.08
538.263	32373.44
538.463	32326.33
538.664	32158.4
538.865	32475.84
539.065	32465.6
539.266	32113.34
539.466	32637.62
539.667	32361.15
539.868	32508.6
540.068	32846.52
540.269	32479.93
540.469	32711.35
540.67	32316.09
540.87	32604.86
541.071	32416.44
541.271	32602.81
541.472	32293.57
541.672	32645.82
541.873	32338.62
542.073	32244.41
542.274	32721.59
542.474	32342.72
542.675	32127.68
542.875	32547.51
543.075	32617.14
543.276	32033.47
543.476	32621.24
543.676	31986.37
543.877	32604.86
544.077	32324.29
544.277	32119.49
544.478	32252.61
544.678	32549.56
544.878	32316.09
545.078	32305.85
545.279	31980.23
545.479	32047.81
545.679	32543.42
545.879	32377.53
546.079	32139.97
546.28	32223.93
546.48	32211.65
546.68	32422.59
546.88	32332.48
547.08	32477.88
547.28	32340.67
547.48	32006.85
547.68	31900.36
547.88	32289.47
548.081	32469.69
548.281	32217.79
548.481	32342.72
548.681	32148.16
548.881	32088.77
549.081	32254.65
549.28	32004.8
549.48	32164.54
549.68	32367.29
549.88	32697.02
550.08	32244.41
550.28	31881.92
550.48	32281.28
550.68	32086.72
550.88	32266.94
551.08	32031.43
551.279	32070.34
551.479	31935.17
551.679	32029.38
551.879	32043.71
552.079	32135.87
552.278	31951.56
552.478	31929.03
552.678	32266.94
552.878	32244.41
553.077	31992.51
553.277	31818.44
553.477	32262.85
553.676	31945.41
553.876	31978.18
554.076	31859.4
554.275	31750.85
554.475	31462.09
554.674	32139.97
554.874	32049.86
555.074	31675.08
555.273	31763.14
555.473	31900.36
555.672	31677.13
555.872	31537.87
556.071	31726.28
556.271	31759.05
556.47	31724.23
556.67	31707.85
556.869	31808.2
557.068	31439.56
557.268	31496.91
557.467	31357.64
557.667	31404.75
557.866	31515.34
558.065	31513.29
558.265	31263.44
558.464	31435.47
558.663	31857.35
558.863	30859.99
559.062	31453.9
559.261	31007.44
559.461	31525.58
559.66	30712.53
559.859	31161.04
560.058	30765.78
560.258	31081.17
560.457	30485.21
560.656	31075.02
560.855	30624.47
561.054	30982.87
561.253	30649.05
561.453	31138.51
561.652	30978.77
561.851	30806.74
562.05	30534.36
562.249	30763.73
562.448	30843.6
562.647	30694.1
562.846	30505.69
563.045	30591.7
563.244	30251.74
563.443	30608.09
563.642	29979.36
563.841	29958.88
564.04	30319.32
564.239	30307.04
564.438	29649.64
564.637	30141.15
564.836	30335.71
565.035	29870.82
565.234	30278.36
565.432	29641.45
565.631	29567.72
565.83	29919.97
566.029	29453.03
566.228	29690.6
566.427	29278.96
566.625	29231.85
566.824	29442.79
567.023	29481.7
567.222	29461.23
567.42	29481.7
567.619	29149.93
567.818	29479.66
568.016	29076.21
568.215	29106.93
568.414	29063.92
568.612	28967.66
568.811	28973.81
569.01	28836.59
569.208	28273.4
569.407	28799.73
569.605	28611.32
569.804	28977.9
570.002	28461.82
570.201	28410.62
570.4	28410.62
570.598	27949.82
570.797	28060.41
570.995	28214.01
571.193	27851.52
571.392	28027.65
571.59	27562.76
571.789	27546.37
571.987	28015.36
572.186	27898.62
572.384	27710.21
572.582	27749.12
572.781	27814.66
572.979	27661.06
573.177	27745.03
573.376	27669.25
573.574	27452.17
573.772	27616.01
573.971	27009.81
574.169	26782.48
574.367	26917.65
574.565	26872.59
574.763	26598.16
574.962	26784.53
575.16	26540.82
575.358	26718.99
575.556	26366.74
575.754	26780.43
575.952	26444.57
576.151	26559.25
576.349	26118.94
576.547	26141.47
576.745	26354.46
576.943	26092.32
577.141	26295.07
577.339	26221.34
577.537	26120.99
577.735	26139.42
577.933	25492.26
578.131	26196.76
578.329	25613.09
578.527	25279.27
578.725	25551.65
578.923	25697.06
579.121	25426.73
579.319	25332.52
579.516	25500.45
579.714	25674.53
579.912	25506.6
580.11	24955.69
580.308	25238.31
580.506	24959.79
580.704	24691.51
580.901	24859.44
581.099	24912.69
581.297	24744.75
581.495	24687.41
581.692	24642.35
581.89	24617.78
582.088	24781.62
582.285	24290.1
582.483	24496.95
582.681	24324.92
582.878	24396.6
583.076	24034.11
583.274	24372.02
583.471	23599.94
583.669	23878.46
583.866	23976.76
584.064	24023.87
584.262	23946.05
584.459	24079.16
584.657	23700.29
584.854	23735.1
585.052	23362.37
585.249	23728.96
585.447	23640.9
585.644	23380.81
585.841	23253.83
586.039	23364.42
586.236	22860.62
586.434	22999.88
586.631	22983.5
586.828	23120.71
587.026	22868.81
587.223	22494.04
587.42	22821.71
587.618	22635.35
587.815	22637.39
588.012	22770.51
588.21	22287.19
588.407	22592.34
588.604	22281.05
588.801	22297.43
588.999	22264.66
589.196	22195.03
589.393	22246.23
589.59	22371.16
589.787	22025.05
589.984	21803.87
590.182	21717.86
590.379	22205.27
590.576	21742.43
590.773	21900.12
590.97	21574.5
591.167	21558.11
591.364	21431.14
591.561	21420.9
591.758	21533.54
591.955	21214.05
592.152	21267.3
592.349	21070.7
592.546	21164.9
592.743	21338.98
592.94	20933.48
593.137	20919.15
593.334	21338.98
593.531	20644.72
593.727	20890.48
593.924	20943.72
594.121	20530.03
594.318	21062.51
594.515	20487.03
594.712	20603.76
594.908	20781.93
595.105	20593.52
595.302	20214.65
595.499	20456.31
595.696	20394.87
595.892	20226.93
596.089	20390.77
596.286	20069.24
596.482	20128.63
596.679	19843.96
596.876	19886.97
597.072	19831.68
597.269	20173.69
597.466	19712.89
597.662	19745.66
597.859	19753.85
598.055	19796.86
598.252	19585.92
598.448	19436.42
598.645	19397.51
598.841	19127.17
599.038	19299.2
599.234	19258.24
599.431	18871.18
599.627	19037.06
599.824	19372.93
600.02	18912.14
600.217	18973.58
600.413	18832.27
600.609	18709.39
600.806	18805.64
601.002	19100.55
601.198	18740.11
601.395	18756.49
601.591	18594.7
601.787	18631.57
601.984	18283.41
602.18	18733.96
602.376	18299.8
602.572	18457.49
602.769	18328.47
602.965	18074.52
603.161	18131.86
603.357	18201.49
603.553	18090.9
603.75	17820.57
603.946	17974.17
604.142	18084.76
604.338	17697.69
604.534	18023.32
604.73	17464.22
604.926	17597.34
605.122	17628.06
605.318	17226.66
605.514	17251.24
605.71	17439.65
605.906	17236.9
606.102	17333.15
606.298	17243.04
606.494	17144.74
606.69	17353.63
606.886	17189.8
607.082	17107.88
607.278	16790.44
607.474	16681.9
607.67	17019.81
607.866	16767.91
608.062	16956.33
608.257	16753.58
608.453	16761.77
608.649	16733.1
608.845	16755.63
609.041	16870.31
609.236	16706.48
609.432	16565.17
609.628	16499.63
609.824	16604.08
610.019	16425.9
610.215	16348.08
610.411	16513.97
610.606	16475.06
610.802	16374.7
610.998	16393.14
611.193	16260.02
611.389	16202.68
611.584	16167.86
611.78	15819.71
611.976	16360.37
612.171	15913.91
612.367	16165.81
612.562	15870.9
612.758	15778.75
612.953	15662.01
613.149	16161.72
613.344	15633.34
613.539	16008.12
613.735	15809.47
613.93	15829.95
614.126	15748.03
614.321	15872.95
614.517	15717.31
614.712	15727.55
614.907	15651.77
615.103	15692.73
615.298	15272.9
615.493	15268.8
615.688	15231.94
615.884	15655.87
616.079	15330.24
616.274	15530.94
616.47	15426.5
616.665	15459.26
616.86	15322.05
617.055	15170.5
617.25	14980.04
617.445	15190.98
617.641	14994.37
617.836	15031.24
618.031	14699.47
618.226	14881.74
618.421	14996.42
618.616	15076.29
618.811	14797.77
619.006	14791.62
619.201	14486.48
619.396	14873.54
619.591	14513.1
619.786	14367.7
619.981	14320.59
620.176	14484.43
620.371	14181.33
620.566	14293.97
620.761	14162.9
620.956	14433.23
621.151	13976.53
621.346	13882.33
621.541	13949.91
621.735	14111.7
621.93	13929.43
622.125	13675.48
622.32	13650.91
622.515	13693.91
622.709	13579.23
622.904	13616.09
623.099	13482.97
623.294	13546.46
623.488	13396.96
623.683	13108.19
623.878	12884.97
624.072	13077.48
624.267	12942.31
624.462	12962.79
624.656	12934.12
624.851	12934.12
625.046	12651.5
625.24	12690.41
625.435	12583.91
625.629	12518.38
625.824	12502
626.018	12338.16
626.213	12125.17
626.407	12311.53
626.602	12006.39
626.796	12272.62
626.991	12254.19
627.185	12123.12
627.38	12114.93
627.574	11990
627.768	11725.82
627.963	11647.99
628.157	11557.88
628.352	11701.24
628.546	11469.82
628.74	11777.01
628.935	11641.85
629.129	11369.47
629.323	11435
629.517	11230.21
629.712	11357.18
629.906	11174.91
630.1	11160.58
630.294	11256.83
630.489	11150.34
630.683	11269.12
630.877	10724.36
631.071	10947.59
631.265	10982.4
631.459	10626.06
631.653	10779.65
631.848	10468.36
632.042	10507.27
632.236	10470.41
632.43	10486.79
632.624	10155.02
632.818	10411.02
633.012	10312.72
633.206	10249.23
633.4	10411.02
633.594	10263.57
633.788	10177.55
633.982	9964.56
634.176	9948.18
634.369	9960.47
634.563	10034.19
634.757	9927.7
634.951	9894.93
635.145	9913.36
635.339	9698.33
635.533	9823.25
635.726	9550.87
635.92	9528.35
636.114	9589.78
636.308	9339.93
636.501	9468.95
636.695	9305.12
636.889	9258.01
637.083	9075.74
637.276	9045.02
637.47	9071.65
637.664	9083.94
637.857	9096.22
638.051	9174.05
638.244	9028.64
638.438	8959.01
638.632	8789.03
638.825	8754.21
639.019	8776.74
639.212	8735.78
639.406	8592.42
639.599	8619.05
639.793	8584.23
639.986	8309.8
640.18	8535.08
640.373	8447.02
640.567	8250.41
640.76	8318
640.954	8279.08
641.147	8307.76
641.34	8043.57
641.534	8264.75
641.727	8152.11
641.92	8057.9
642.114	8217.65
642.307	7990.32
642.5	8057.9
642.694	7738.42
642.887	7842.87
643.08	7949.36
643.273	7695.41
643.467	7629.88
643.66	7660.6
643.853	7498.81
644.046	7560.25
644.239	7562.3
644.432	7398.46
644.626	7259.2
644.819	7402.55
645.012	7392.31
645.205	7380.03
645.398	7275.58
645.591	7208
645.784	7298.11
645.977	7113.79
646.17	7179.33
646.363	7040.06
646.556	6880.32
646.749	6966.34
646.942	6908.99
647.135	6782.02
647.328	6788.16
647.521	6972.48
647.714	6777.92
647.907	6773.83
648.099	6827.07
648.292	6646.85
648.485	6655.05
648.678	6573.13
648.871	6579.27
649.064	6577.22
649.256	6458.44
649.449	6345.8
649.642	6306.89
649.835	6255.69
650.027	6194.25
650.22	6245.45
650.413	6315.08
650.605	6302.79
650.798	6110.29
650.991	6122.57
651.183	6116.43
651.376	6065.23
651.568	6155.34
651.761	6032.46
651.954	6052.94
652.146	5925.97
652.339	5885.01
652.531	5842
652.724	5653.59
652.916	5784.66
653.109	5823.57
653.301	5573.72
653.494	5760.08
653.686	5526.61
653.879	5629.01
654.071	5669.97
654.263	5575.77
654.456	5614.68
654.648	5639.25
654.84	5272.67
655.033	5430.36
655.225	5354.58
655.417	5516.37
655.61	5362.78
655.802	5448.79
655.994	5299.29
656.186	5260.38
656.379	5188.7
656.571	5243.99
656.763	5221.47
656.955	5403.74
657.148	5221.47
657.34	5192.8
657.532	5016.67
657.724	5041.25
657.916	4996.19
658.108	5094.49
658.3	4926.56
658.492	5104.73
658.684	4891.74
658.876	4811.87
659.068	4928.61
659.26	4750.43
659.452	4815.97
659.644	4869.22
659.836	4752.48
660.028	4738.15
660.22	4752.48
660.412	4607.08
660.604	4611.17
660.796	4709.47
660.988	4686.95
661.18	4521.06
661.372	4488.29
661.563	4430.95
661.755	4451.43
661.947	4441.19
662.139	4494.44
662.331	4377.7
662.522	4359.27
662.714	4318.31
662.906	4465.77
663.097	4326.5
663.289	4220.01
663.481	4314.22
663.673	4181.1
663.864	4115.56
664.056	4203.63
664.247	4086.89
664.439	4209.77
664.631	4119.66
664.822	4129.9
665.014	4066.41
665.205	3980.4
665.397	4033.65
665.588	3927.15
665.78	3812.46
665.971	3951.73
666.163	3966.06
666.354	3787.89
666.546	3957.87
666.737	3951.73
666.929	3853.42
667.12	3961.97
667.311	3746.93
667.503	3589.24
667.694	3914.86
667.885	3675.25
668.077	3703.92
668.268	3791.98
668.459	3611.76
668.651	3710.07
668.842	3654.77
669.033	3708.02
669.224	3546.23
669.416	3675.25
669.607	3574.9
669.798	3630.2
669.989	3695.73
670.18	3529.84
670.371	3499.13
670.563	3521.65
670.754	3363.96
670.945	3470.45
671.136	3398.77
671.327	3480.69
671.518	3308.66
671.709	3398.77
671.9	3449.97
672.091	3368.06
672.282	3443.83
672.473	3359.86
672.664	3439.73
672.855	3378.3
673.046	3335.29
673.237	3359.86
673.428	3275.9
673.619	3292.28
673.809	3300.47
674	3189.88
674.191	3204.22
674.382	3243.13
674.573	3255.42
674.764	3282.04
674.954	3349.62
675.145	3165.31
675.336	3144.83
675.527	3255.42
675.717	3146.87
675.908	3015.8
676.099	3056.76
676.289	3136.63
676.48	3120.25
676.671	3013.76
676.861	3054.72
677.052	3071.1
677.243	2931.84
677.433	3028.09
677.624	2954.37
677.814	2985.09
678.005	3093.63
678.195	3003.52
678.386	3021.95
678.576	3030.14
678.767	2966.65
678.957	3005.56
679.148	2983.04
679.338	3036.28
679.529	3024
679.719	2892.93
679.909	2942.08
680.1	2940.03
680.29	2989.18
680.481	2851.97
680.671	3064.96
680.861	2962.56
681.052	2878.59
681.242	2894.97
681.432	2989.18
681.622	2901.12
681.813	2876.54
682.003	2884.73
682.193	2931.84
682.383	2897.02
682.573	2989.18
682.764	2784.38
682.954	2800.77
683.144	2841.73
683.334	2763.9
683.524	2819.2
683.714	2763.9
683.904	2815.1
684.094	2790.53
684.284	2706.56
684.474	2796.67
684.664	2745.47
684.854	2854.02
685.044	2808.96
685.234	2839.68
685.424	2888.83
685.614	2823.3
685.804	2630.79
685.994	2808.96
686.184	2794.62
686.374	2747.52
686.564	2606.21
686.753	2778.24
686.943	2692.23
687.133	2759.81
687.323	2794.62
687.513	2772.1
687.702	2751.62
687.892	2620.55
688.082	2696.32
688.272	2727.04
688.461	2661.51
688.651	2716.8
688.841	2702.47
689.03	2817.15
689.22	2638.98
689.41	2620.55
689.599	2665.6
689.789	2624.64
689.979	2610.31
690.168	2727.04
690.358	2649.22
690.547	2522.24
690.737	2645.12
690.926	2782.34
691.116	2688.13
691.305	2575.49
691.495	2530.44
691.684	2647.17
691.874	2614.4
692.063	2583.68
692.252	2686.08
692.442	2575.49
692.631	2563.2
692.82	2602.11
693.01	2518.15
693.199	2532.48
693.388	2516.1
693.578	2522.24
693.767	2524.29
693.956	2493.57
694.146	2573.44
694.335	2452.61
694.524	2417.8
694.713	2452.61
694.902	2555.01
695.092	2524.29
695.281	2477.19
695.47	2372.74
695.659	2522.24
695.848	2532.48
696.037	2579.59
696.226	2448.52
696.415	2548.87
696.604	2565.25
696.793	2452.61
696.982	2495.62
697.171	2473.09
697.36	2520.2
697.549	2389.13
697.738	2403.46
697.927	2423.94
698.116	2495.62
698.305	2409.61
698.494	2473.09
698.683	2391.17
698.872	2374.79
699.061	2405.51
699.25	2393.22
699.438	2425.99
699.627	2409.61
699.816	2497.67
700.005	2309.26
700.193	2264.2
700.382	2411.65
700.571	2378.89
700.76	2405.51
700.948	2344.07
701.137	2317.45
701.326	2327.69
701.514	2352.26
701.703	2321.54
701.892	2292.87
702.08	2460.81
702.269	2325.64
702.457	2333.83
702.646	2284.68
702.834	2305.16
703.023	2223.24
703.212	2296.97
703.4	2352.26
703.589	2210.95
703.777	2282.63
703.965	2153.61
704.154	2245.77
704.342	2317.45
704.531	2165.9
704.719	2239.62
704.907	2241.67
705.096	2239.62
705.284	2286.73
705.472	2067.6
705.661	2186.38
705.849	2311.3
706.037	2102.41
706.226	2155.66
706.414	2253.96
706.602	2149.51
706.79	2249.86
706.979	2213
707.167	2167.95
707.355	2139.27
707.543	2151.56
707.731	2129.03
707.919	2098.31
708.107	2096.27
708.296	2104.46
708.484	2098.31
708.672	2110.6
708.86	2049.16
709.048	2083.98
709.236	1981.58
709.424	2040.97
709.612	2014.35
709.8	2139.27
709.988	2002.06
710.176	2063.5
710.364	2098.31
710.551	2032.78
710.739	2026.64
710.927	1993.87
711.115	2032.78
711.303	2030.73
711.491	2133.13
711.679	1991.82
711.866	2006.16
712.054	1948.81
712.242	1957
712.43	1946.76
712.617	2010.25
712.805	1993.87
712.993	1961.1
713.181	1977.48
713.368	1983.63
713.556	1891.47
713.744	1971.34
713.931	1920.14
714.119	2038.92
714.306	1965.2
714.494	1950.86
714.682	1957
714.869	1957
715.057	1850.51
715.244	1807.5
715.432	1875.09
715.619	1911.95
715.807	1856.65
715.994	1920.14
716.182	1916.05
716.369	1899.66
716.556	1870.99
716.744	1797.26
716.931	1807.5
717.119	1842.32
717.306	1903.76
717.493	1787.02
717.681	1827.98
717.868	1868.94
718.055	1834.13
718.242	1911.95
718.43	1985.68
718.617	1821.84
718.804	1836.17
718.991	1727.63
719.179	1750.16
719.366	1928.33
719.553	1821.84
719.74	1750.16
719.927	1799.31
720.114	1772.69
720.301	1795.22
720.488	1795.22
720.676	1586.32
720.863	1825.93
721.05	1836.17
721.237	1766.54
721.424	1836.17
721.611	1811.6
721.798	1713.3
721.985	1653.91
722.172	1664.15
722.358	1625.23
722.545	1690.77
722.732	1748.11
722.919	1701.01
723.106	1651.86
723.293	1655.95
723.48	1678.48
723.667	1641.62
723.853	1664.15
724.04	1655.95
724.227	1696.91
724.414	1647.76
724.6	1580.18
724.787	1592.47
724.974	1694.86
725.161	1649.81
725.347	1643.67
725.534	1635.47
725.72	1727.63
725.907	1668.24
726.094	1590.42
726.28	1703.06
726.467	1598.61
726.653	1668.24
726.84	1719.44
727.027	1582.23
727.213	1614.99
727.4	1604.75
727.586	1547.41
727.773	1571.99
727.959	1637.52
728.145	1547.41
728.332	1584.27
728.518	1606.8
728.705	1592.47
728.891	1621.14
729.077	1588.37
729.264	1461.4
729.45	1531.03
729.636	1592.47
729.823	1621.14
730.009	1545.36
730.195	1508.5
730.382	1600.66
730.568	1526.93
730.754	1535.12
730.94	1467.54
731.126	1547.41
731.313	1539.22
731.499	1512.6
731.685	1514.64
731.871	1490.07
732.057	1555.6
732.243	1526.93
732.429	1647.76
732.615	1504.4
732.801	1514.64
732.987	1494.16
733.173	1571.99
733.359	1502.36
733.545	1508.5
733.731	1455.25
733.917	1393.81
734.103	1477.78
734.289	1432.72
734.475	1479.83
734.661	1528.98
734.847	1422.48
735.033	1352.85
735.219	1514.64
735.404	1526.93
735.59	1457.3
735.776	1412.25
735.962	1424.53
736.148	1459.35
736.333	1473.68
736.519	1553.55
736.705	1408.15
736.89	1522.84
737.076	1397.91
737.262	1434.77
737.447	1510.55
737.633	1322.13
737.819	1365.14
738.004	1381.53
738.19	1410.2
738.375	1451.16
738.561	1442.96
738.747	1350.81
738.932	1258.65
739.118	1426.58
739.303	1395.86
739.489	1420.44
739.674	1309.85
739.859	1379.48
740.045	1315.99
740.23	1416.34
740.416	1391.77
740.601	1332.37
740.786	1293.46
740.972	1285.27
741.157	1426.58
741.342	1361.05
741.528	1309.85
741.713	1344.66
741.898	1420.44
742.084	1268.89
742.269	1397.91
742.454	1389.72
742.639	1234.07
742.824	1322.13
743.01	1352.85
743.195	1301.65
743.38	1266.84
743.565	1180.82
743.75	1365.14
743.935	1246.36
744.12	1307.8
744.305	1270.94
744.49	1270.94
744.675	1213.59
744.86	1219.74
745.045	1160.34
745.23	1334.42
745.415	1131.67
745.6	1221.78
745.785	1059.99
745.97	1209.5
746.155	1260.7
746.34	1199.26
746.525	1203.35
746.71	1182.87
746.895	1219.74
747.079	1156.25
747.264	1158.3
747.449	1240.22
747.634	1201.3
747.819	1123.48
748.003	1080.47
748.188	1139.87
748.373	1193.11
748.557	1225.88
748.742	1166.49
748.927	988.32
749.111	1041.56
749.296	994.46
749.481	1096.86
749.665	1123.48
749.85	1080.47
750.034	1051.8
750.219	1002.65
750.404	998.56
750.588	1072.28
750.773	1002.65
750.957	943.26
751.141	988.32
751.326	1012.89
751.51	1039.51
751.695	1039.51
751.879	1033.37
752.064	943.26
752.248	965.79
752.432	1008.8
752.617	992.41
752.801	971.93
752.985	1000.6
753.17	957.6
753.354	1014.94
753.538	959.64
753.722	828.57
753.907	828.57
754.091	928.92
754.275	912.54
754.459	873.63
754.643	851.1
754.828	832.67
755.012	840.86
755.196	877.73
755.38	847.01
755.564	890.01
755.748	791.71
755.932	869.53
756.116	742.56
756.3	849.05
756.484	801.95
756.668	855.2
756.852	806.05
757.036	822.43
757.22	816.29
757.404	910.49
757.588	840.86
757.772	777.37
757.956	715.94
758.14	722.08
758.323	722.08
758.507	795.81
758.691	806.05
758.875	806.05
759.059	734.37
759.242	715.94
759.426	746.66
759.61	703.65
759.794	818.33
759.977	752.8
760.161	808.09
760.345	763.04
760.528	720.03
760.712	715.94
760.895	760.99
761.079	767.13
761.263	703.65
761.446	722.08
761.63	789.66
761.813	717.98
761.997	691.36
762.18	763.04
762.364	677.02
762.547	742.56
762.731	670.88
762.914	619.68
763.098	666.78
763.281	646.3
763.464	717.98
763.648	654.5
763.831	621.73
764.015	705.7
764.198	668.83
764.381	677.02
764.564	693.41
764.748	605.35
764.931	654.5
765.114	564.39
765.297	638.11
765.481	605.35
765.664	613.54
765.847	646.3
766.03	683.17
766.213	623.78
766.397	597.15
766.58	580.77
766.763	634.02
766.946	652.45
767.129	607.39
767.312	638.11
767.495	601.25
767.678	603.3
767.861	599.2
768.044	588.96
768.227	654.5
768.41	613.54
768.593	638.11
768.776	615.59
768.959	593.06
769.142	638.11
769.324	638.11
769.507	517.28
769.69	558.24
769.873	527.52
770.056	644.26
770.239	607.39
770.421	558.24
770.604	500.9
770.787	599.2
770.97	517.28
771.152	525.47
771.335	535.71
771.518	490.66
771.7	564.39
771.883	574.63
772.066	558.24
772.248	576.67
772.431	543.91
772.613	533.67
772.796	529.57
772.978	507.04
773.161	595.11
773.343	548
773.526	535.71
773.708	572.58
773.891	478.37
774.073	607.39
774.256	474.28
774.438	517.28
774.621	500.9
774.803	560.29
774.985	511.14
775.168	552.1
775.35	517.28
775.532	533.67
775.715	418.98
775.897	484.52
776.079	476.32
776.261	525.47
776.444	500.9
776.626	498.85
776.808	425.12
776.99	474.28
777.173	449.7
777.355	388.26
777.537	375.97
777.719	425.12
777.901	484.52
778.083	412.84
778.265	433.32
778.447	443.56
778.629	404.64
778.811	375.97
778.993	511.14
779.175	412.84
779.357	482.47
779.539	388.26
779.721	357.54
779.903	386.21
780.085	443.56
780.267	330.92
780.449	382.12
780.631	414.88
780.812	421.03
780.994	449.7
781.176	306.34
781.358	412.84
781.54	459.94
781.721	320.68
781.903	363.69
782.085	335.01
782.267	361.64
782.448	369.83
782.63	289.96
782.812	253.09
782.993	298.15
783.175	363.69
783.357	369.83
783.538	257.19
783.72	253.09
783.901	394.4
784.083	339.11
784.264	375.97
784.446	306.34
784.627	371.88
784.809	339.11
784.99	337.06
785.172	316.58
785.353	341.16
785.535	357.54
785.716	335.01
785.897	294.05
786.079	228.52
786.26	279.72
786.441	326.82
786.623	330.92
786.804	255.14
786.985	249
787.167	277.67
787.348	328.87
787.529	308.39
787.71	265.38
787.891	259.24
788.073	236.71
788.254	251.05
788.435	302.25
788.616	294.05
788.797	210.09
788.978	216.23
789.159	228.52
789.34	281.77
789.522	187.56
789.703	259.24
789.884	271.53
790.065	281.77
790.246	328.87
790.427	214.18
790.607	298.15
790.788	226.47
790.969	201.9
791.15	212.14
791.331	222.38
791.512	203.94
791.693	244.9
791.874	142.5
792.054	242.85
792.235	212.14
792.416	251.05
792.597	146.6
792.778	201.9
792.958	222.38
793.139	197.8
793.32	255.14
793.5	234.66
793.681	238.76
793.862	277.67
794.042	253.09
794.223	214.18
794.404	140.46
794.584	214.18
794.765	222.38
794.945	279.72
795.126	220.33
795.306	224.42
795.487	199.85
795.667	162.98
795.848	222.38
796.028	179.37
796.209	177.32
796.389	195.75
796.57	167.08
796.75	158.89
796.93	197.8
797.111	167.08
797.291	167.08
797.471	138.41
797.652	140.46
797.832	165.03
798.012	236.71
798.192	195.75
798.373	240.81
798.553	183.46
798.733	142.5
798.913	130.22
799.093	183.46
799.274	150.7
799.454	179.37
799.634	187.56
799.814	269.48
799.994	130.22
800.174	171.18
800.354	126.12
800.534	146.6
800.714	173.22
800.894	128.17
801.074	126.12
801.254	281.77
801.434	165.03
801.614	119.98
801.794	99.5
801.974	404.64
802.154	117.93
802.334	154.79
802.514	154.79
802.693	154.79
802.873	148.65
803.053	115.88
803.233	191.66
803.413	122.02
803.592	126.12
803.772	107.69
803.952	95.4
804.131	74.92
804.311	191.66
804.491	187.56
804.67	91.31
804.85	122.02
805.03	101.55
805.209	140.46
805.389	142.5
805.568	97.45
805.748	173.22
805.928	169.13
806.107	122.02
806.287	171.18
806.466	150.7
806.646	103.59
806.825	66.73
807.004	122.02
807.184	179.37
807.363	179.37
807.543	158.89
807.722	97.45
807.901	185.51
808.081	107.69
808.26	130.22
808.439	148.65
808.619	195.75
808.798	81.07
808.977	27.82
809.156	138.41
809.336	146.6
809.515	122.02
809.694	99.5
809.873	124.07
810.052	29.87
810.231	89.26
810.411	150.7
810.59	56.49
810.769	97.45
810.948	109.74
811.127	132.26
811.306	197.8
811.485	140.46
811.664	85.16
811.843	119.98
812.022	111.78
812.201	134.31
812.38	103.59
812.559	68.78
812.737	115.88
812.916	148.65
813.095	130.22
813.274	99.5
813.453	105.64
813.632	130.22
813.811	136.36
813.989	44.2
814.168	103.59
814.347	105.64
814.526	56.49
814.704	126.12
814.883	105.64
815.062	81.07
815.24	72.87
815.419	64.68
815.598	21.67
815.776	64.68
815.955	101.55
816.133	48.3
816.312	81.07
816.49	40.11
816.669	81.07
816.847	128.17
817.026	138.41
817.204	87.21
817.383	79.02
817.561	27.82
817.74	154.79
817.918	44.2
818.097	64.68
818.275	66.73
818.453	42.15
818.632	58.54
818.81	31.91
818.988	146.6
819.167	50.35
819.345	60.59
819.523	52.39
819.701	74.92
819.879	101.55
820.058	93.35
820.236	-7
820.414	48.3
820.592	40.11
820.77	44.2
820.948	124.07
821.127	40.11
821.305	97.45
821.483	124.07
821.661	11.43
821.839	15.53
822.017	101.55
822.195	27.82
822.373	25.77
822.551	48.3
822.729	72.87
822.907	81.07
823.085	23.72
823.262	48.3
823.44	134.31
823.618	7.34
823.796	68.78
823.974	68.78
824.152	126.12
824.329	83.11
824.507	29.87
824.685	58.54
824.863	93.35
825.04	23.72
825.218	56.49
825.396	99.5
825.574	89.26
825.751	64.68
825.929	64.68
826.107	11.43
826.284	54.44
826.462	89.26
826.639	103.59
826.817	60.59
826.994	74.92
827.172	48.3
827.349	40.11
827.527	50.35
827.704	60.59
827.882	33.96
828.059	38.06
828.237	-47.96
828.414	42.15
828.591	-21.33
828.769	50.35
828.946	79.02
829.124	126.12
829.301	56.49
829.478	52.39
829.655	9.39
829.833	58.54
830.01	19.63
830.187	91.31
830.364	85.16
830.542	68.78
830.719	115.88
830.896	46.25
831.073	-23.38
831.25	25.77
831.427	-15.19
831.604	56.49
831.782	48.3
831.959	81.07
832.136	5.29
832.313	64.68
832.49	33.96
832.667	31.91
832.844	66.73
833.021	27.82
833.198	72.87
833.374	38.06
833.551	64.68
833.728	38.06
833.905	-17.24
834.082	74.92
834.259	9.39
834.436	33.96
834.612	38.06
834.789	33.96
834.966	42.15
835.143	29.87
835.319	11.43
835.496	72.87
835.673	33.96
835.85	42.15
836.026	-7
836.203	19.63
836.38	-39.76
836.556	89.26
836.733	74.92
836.909	33.96
837.086	23.72
837.262	-35.67
837.439	36.01
837.616	-4.95
837.792	17.58
837.968	40.11
838.145	1.19
838.321	19.63
838.498	25.77
838.674	72.87
838.851	-0.85
839.027	52.39
839.203	56.49
839.38	60.59
839.556	31.91
839.732	107.69
839.909	7.34
840.085	23.72
840.261	27.82
840.437	-25.43
840.614	70.83
840.79	146.6
840.966	31.91
841.142	44.2
841.318	-23.38
841.494	9.39
841.671	13.48
841.847	52.39
842.023	70.83
842.199	85.16
842.375	83.11
842.551	-15.19
842.727	15.53
842.903	-25.43
843.079	79.02
843.255	93.35
843.431	89.26
843.607	52.39
843.783	-62.29
843.959	23.72
844.134	-15.19
844.31	31.91
844.486	31.91
844.662	9.39
844.838	-23.38
845.013	15.53
845.189	13.48
845.365	74.92
845.541	-37.72
845.716	-13.14
845.892	97.45
846.068	-74.58
846.244	36.01
846.419	-7
846.595	38.06
846.77	1.19
846.946	23.72
847.122	-23.38
847.297	21.67
847.473	56.49
847.648	58.54
847.824	72.87
847.999	64.68
848.175	54.44
848.35	1.19
848.526	1.19
848.701	-4.95
848.876	42.15
849.052	31.91
849.227	13.48
849.403	11.43
849.578	23.72
849.753	-4.95
849.929	-21.33
850.104	66.73
850.279	56.49
850.454	44.2
850.63	48.3
850.805	7.34
850.98	-19.29
851.155	60.59
851.33	56.49
851.505	1.19
851.681	-27.48
851.856	33.96
852.031	42.15
852.206	33.96
852.381	50.35
852.556	85.16
852.731	-47.96
852.906	62.63
853.081	38.06
853.256	1.19
853.431	76.97
853.606	60.59
853.781	48.3
853.956	-4.95
854.131	23.72
854.305	81.07
854.48	56.49
854.655	1.19
854.83	1.19
855.005	-64.34
855.18	72.87
855.354	48.3
855.529	-13.14
855.704	111.78
855.879	15.53
856.053	-4.95
856.228	-33.62
856.403	25.77
856.577	27.82
856.752	-31.57
856.926	23.72
857.101	42.15
857.276	-0.85
857.45	64.68
857.625	-60.24
857.799	15.53
857.974	66.73
858.148	-9.05
858.323	33.96
858.497	1.19
858.672	66.73
858.846	-50
859.02	68.78
859.195	1.19
859.369	7.34
859.543	-105.3
859.718	-43.86
859.892	9.39
860.066	19.63
860.241	5.29
860.415	-29.52
860.589	36.01
860.763	-72.53
860.938	-7
861.112	54.44
861.286	11.43
861.46	44.2
861.634	13.48
861.808	97.45
861.982	23.72
862.157	31.91
862.331	70.83
862.505	-31.57
862.679	25.77
862.853	11.43
863.027	27.82
863.201	60.59
863.375	31.91
863.549	-0.85
863.722	29.87
863.896	-13.14
864.07	15.53
864.244	-21.33
864.418	40.11
864.592	38.06
864.766	-0.85
864.939	-17.24
865.113	13.48
865.287	9.39
865.461	54.44
865.634	56.49
865.808	-17.24
865.982	66.73
866.156	-9.05
866.329	-17.24
866.503	56.49
866.676	-9.05
866.85	-7
867.024	1.19
867.197	5.29
867.371	15.53
867.544	-31.57
867.718	-17.24
867.891	-50
868.065	19.63
868.238	-0.85
868.412	31.91
868.585	-15.19
868.759	31.91
868.932	-21.33
869.105	21.67
869.279	-29.52
869.452	-54.1
869.625	1.19
869.799	13.48
869.972	1.19
870.145	15.53
870.319	-25.43
870.492	-15.19
870.665	58.54
870.838	11.43
871.011	-23.38
871.185	-13.14
871.358	-31.57
871.531	-74.58
871.704	27.82
871.877	46.25
872.05	5.29
872.223	27.82
872.396	-33.62
872.569	29.87
872.742	5.29
872.915	5.29
873.088	31.91
873.261	33.96
873.434	66.73
873.607	3.24
873.78	31.91
873.953	68.78
874.126	-21.33
874.299	23.72
874.471	7.34
874.644	21.67
874.817	-21.33
874.99	-7
875.163	-9.05
875.335	19.63
875.508	-47.96
875.681	-29.52
875.853	-7
876.026	48.3
876.199	-0.85
876.371	70.83
876.544	81.07
876.717	9.39
876.889	-70.48
877.062	74.92
877.234	-13.14
877.407	-58.2
877.579	31.91
877.752	17.58
877.924	48.3
878.097	-25.43
878.269	-58.2
878.442	17.58
878.614	-33.62
878.786	23.72
878.959	-15.19
879.131	-13.14
879.303	-7
879.476	-64.34
879.648	31.91
879.82	33.96
879.993	-50
880.165	9.39
880.337	-45.91
880.509	31.91
880.681	-35.67
880.854	17.58
881.026	-2.9
881.198	36.01
881.37	-2.9
881.542	-37.72
881.714	-13.14
881.886	44.2
882.058	17.58
882.23	-9.05
882.402	13.48
882.574	-52.05
882.746	11.43
882.918	11.43
883.09	-33.62
883.262	23.72
883.434	-2.9
883.606	17.58
883.778	11.43
883.95	19.63
884.122	-9.05
884.293	66.73
884.465	36.01
884.637	44.2
884.809	-19.29
884.98	5.29
885.152	-33.62
885.324	3.24
885.496	15.53
885.667	3.24
885.839	-2.9
886.011	-0.85
886.182	-47.96
886.354	33.96
886.525	-7
886.697	3.24
886.869	31.91
887.04	7.34
887.212	-15.19
887.383	23.72
887.555	-31.57
887.726	-4.95
887.897	42.15
888.069	-15.19
888.24	21.67
888.412	76.97
888.583	44.2
888.754	-39.76
888.926	15.53
889.097	64.68
889.268	-33.62
889.44	58.54
889.611	-33.62
889.782	42.15
889.953	42.15
890.125	19.63
890.296	-31.57
890.467	74.92
890.638	23.72
890.809	50.35
890.98	19.63
891.151	-80.72
891.323	31.91
891.494	-35.67
891.665	-31.57
891.836	17.58
892.007	-29.52
892.178	-25.43
892.349	38.06
892.52	11.43
892.691	-7
892.862	-2.9
893.032	13.48
893.203	66.73
893.374	-7
893.545	68.78
893.716	-45.91
893.887	70.83
894.057	76.97
894.228	15.53
894.399	-17.24
894.57	21.67
894.74	7.34
894.911	3.24
895.082	-39.76
895.253	-25.43
895.423	-7
895.594	-58.2
895.764	21.67
895.935	-27.48
896.106	-35.67
896.276	-37.72
896.447	25.77
896.617	-0.85
896.788	36.01
896.958	31.91
897.129	-50
897.299	40.11
897.47	9.39
897.64	9.39
897.81	-45.91
897.981	-80.72
898.151	25.77
898.322	3.24
898.492	-29.52
898.662	25.77
898.832	-23.38
899.003	-0.85
899.173	31.91
899.343	-23.38
899.513	11.43
