Data from USB4F104151__100__13-00-16-818.txt Node

Date: Fri Mar 14 13:00:16 EDT 2025
User: louis
Spectrometer: USB4F10415
Trigger mode: 4
Integration Time (sec): 1.000000E-2
Scans to average: 1
Electric dark correction enabled: true
Nonlinearity correction enabled: false
Boxcar width: 0
XAxis mode: Wavelengths
Number of Pixels in Spectrum: 3648
>>>>>Begin Spectral Data<<<<<
178.204	-149.5
178.424	-149.5
178.644	-149.5
178.864	-59.39
179.084	-20.48
179.304	20.48
179.524	-22.53
179.744	38.91
179.964	-28.67
180.184	43.01
180.404	-14.34
180.624	-12.29
180.844	-8.19
181.064	-75.77
181.283	22.53
181.503	16.38
181.723	20.48
181.943	-32.77
182.163	-92.16
182.383	14.34
182.602	-38.91
182.822	-6.14
183.042	55.3
183.262	-45.06
183.482	55.3
183.701	-24.58
183.921	77.82
184.141	-8.19
184.361	65.53
184.58	-49.15
184.8	-6.14
185.02	-34.82
185.239	-22.53
185.459	4.1
185.679	22.53
185.898	-81.92
186.118	-10.24
186.338	-73.73
186.557	47.1
186.777	-4.1
186.997	-71.68
187.216	-26.62
187.436	-10.24
187.655	-59.39
187.875	-30.72
188.095	-49.15
188.314	24.58
188.534	-26.62
188.753	-32.77
188.973	75.77
189.192	10.24
189.412	8.19
189.631	18.43
189.851	-26.62
190.07	-10.24
190.29	-6.14
190.509	-4.1
190.729	-18.43
190.948	-38.91
191.168	-43.01
191.387	-16.38
191.607	0
191.826	26.62
192.045	-6.14
192.265	-47.1
192.484	2.05
192.704	75.77
192.923	14.34
193.142	-24.58
193.362	-38.91
193.581	26.62
193.8	-30.72
194.02	8.19
194.239	-26.62
194.458	24.58
194.678	-22.53
194.897	16.38
195.116	2.05
195.335	2.05
195.555	53.25
195.774	16.38
195.993	77.82
196.212	-26.62
196.432	16.38
196.651	6.14
196.87	-10.24
197.089	18.43
197.308	40.96
197.528	0
197.747	-28.67
197.966	10.24
198.185	-6.14
198.404	14.34
198.623	6.14
198.842	57.34
199.062	40.96
199.281	90.11
199.5	36.86
199.719	-47.1
199.938	-67.58
200.157	6.14
200.376	-14.34
200.595	20.48
200.814	32.77
201.033	14.34
201.252	-22.53
201.471	-4.1
201.69	-30.72
201.909	-73.73
202.128	-34.82
202.347	-63.49
202.566	20.48
202.785	65.53
203.004	4.1
203.223	-63.49
203.442	2.05
203.661	10.24
203.879	116.73
204.098	14.34
204.317	30.72
204.536	-2.05
204.755	55.3
204.974	28.67
205.193	-83.97
205.411	-34.82
205.63	-28.67
205.849	-28.67
206.068	-51.2
206.287	-8.19
206.505	18.43
206.724	-47.1
206.943	22.53
207.162	0
207.381	-34.82
207.599	-8.19
207.818	14.34
208.037	-20.48
208.255	10.24
208.474	-26.62
208.693	-26.62
208.911	-67.58
209.13	43.01
209.349	-71.68
209.567	-14.34
209.786	36.86
210.005	-34.82
210.223	51.2
210.442	6.14
210.661	-14.34
210.879	-2.05
211.098	-18.43
211.316	6.14
211.535	47.1
211.753	-32.77
211.972	8.19
212.191	-36.86
212.409	-40.96
212.628	-20.48
212.846	8.19
213.065	24.58
213.283	4.1
213.502	0
213.72	32.77
213.938	0
214.157	-6.14
214.375	-30.72
214.594	-43.01
214.812	-12.29
215.031	-14.34
215.249	12.29
215.467	-81.92
215.686	26.62
215.904	90.11
216.122	-34.82
216.341	18.43
216.559	-10.24
216.778	-55.3
216.996	-10.24
217.214	-18.43
217.432	-79.87
217.651	51.2
217.869	-98.3
218.087	20.48
218.306	-18.43
218.524	20.48
218.742	2.05
218.96	-6.14
219.179	32.77
219.397	-75.77
219.615	0
219.833	-100.35
220.051	-10.24
220.27	-40.96
220.488	22.53
220.706	-22.53
220.924	18.43
221.142	61.44
221.36	-30.72
221.578	32.77
221.796	38.91
222.015	-32.77
222.233	-8.19
222.451	-10.24
222.669	-2.05
222.887	-4.1
223.105	12.29
223.323	22.53
223.541	-49.15
223.759	6.14
223.977	-4.1
224.195	-18.43
224.413	6.14
224.631	-14.34
224.849	-45.06
225.067	26.62
225.285	-4.1
225.503	-59.39
225.721	-8.19
225.939	-32.77
226.157	14.34
226.375	16.38
226.592	14.34
226.81	8.19
227.028	-30.72
227.246	40.96
227.464	-10.24
227.682	-16.38
227.9	2.05
228.117	-2.05
228.335	-55.3
228.553	14.34
228.771	2.05
228.989	-18.43
229.206	24.58
229.424	47.1
229.642	-18.43
229.86	32.77
230.077	2.05
230.295	65.53
230.513	-12.29
230.731	-12.29
230.948	28.67
231.166	-34.82
231.384	-18.43
231.601	18.43
231.819	12.29
232.037	-26.62
232.254	28.67
232.472	-43.01
232.689	-18.43
232.907	-34.82
233.125	22.53
233.342	30.72
233.56	2.05
233.777	-47.1
233.995	-32.77
234.213	-2.05
234.43	92.16
234.648	-24.58
234.865	26.62
235.083	71.68
235.3	36.86
235.518	-24.58
235.735	-14.34
235.953	53.25
236.17	18.43
236.388	24.58
236.605	-51.2
236.822	30.72
237.04	6.14
237.257	-20.48
237.475	-16.38
237.692	-8.19
237.909	20.48
238.127	6.14
238.344	22.53
238.562	-16.38
238.779	-43.01
238.996	-40.96
239.214	-32.77
239.431	73.73
239.648	22.53
239.865	12.29
240.083	-45.06
240.3	12.29
240.517	-38.91
240.735	8.19
240.952	-40.96
241.169	10.24
241.386	-38.91
241.603	-2.05
241.821	-61.44
242.038	24.58
242.255	18.43
242.472	-47.1
242.689	40.96
242.907	-28.67
243.124	12.29
243.341	10.24
243.558	22.53
243.775	-63.49
243.992	34.82
244.209	6.14
244.426	-10.24
244.643	-49.15
244.86	-67.58
245.078	-79.87
245.295	22.53
245.512	-2.05
245.729	-8.19
245.946	16.38
246.163	-73.73
246.38	-16.38
246.597	-51.2
246.814	0
247.031	0
247.248	-16.38
247.464	30.72
247.681	0
247.898	22.53
248.115	-51.2
248.332	-6.14
248.549	-67.58
248.766	59.39
248.983	45.06
249.2	43.01
249.417	57.34
249.633	-73.73
249.85	-81.92
250.067	-22.53
250.284	-20.48
250.501	-34.82
250.717	129.02
250.934	-36.86
251.151	-18.43
251.368	38.91
251.585	45.06
251.801	0
252.018	-2.05
252.235	30.72
252.451	-8.19
252.668	-24.58
252.885	14.34
253.102	-47.1
253.318	45.06
253.535	36.86
253.752	-32.77
253.968	-12.29
254.185	-47.1
254.401	28.67
254.618	10.24
254.835	-49.15
255.051	59.39
255.268	-22.53
255.484	22.53
255.701	-63.49
255.917	86.01
256.134	36.86
256.351	0
256.567	-40.96
256.784	43.01
257	10.24
257.217	-8.19
257.433	-38.91
257.65	24.58
257.866	-12.29
258.082	-86.01
258.299	6.14
258.515	26.62
258.732	79.87
258.948	10.24
259.165	73.73
259.381	10.24
259.597	30.72
259.814	-2.05
260.03	-81.92
260.246	-28.67
260.463	28.67
260.679	6.14
260.895	28.67
261.112	-14.34
261.328	12.29
261.544	6.14
261.761	-24.58
261.977	-8.19
262.193	-4.1
262.409	26.62
262.626	30.72
262.842	45.06
263.058	36.86
263.274	57.34
263.49	-57.34
263.707	-59.39
263.923	16.38
264.139	-55.3
264.355	-47.1
264.571	-12.29
264.787	16.38
265.004	-24.58
265.22	-18.43
265.436	-18.43
265.652	-28.67
265.868	14.34
266.084	14.34
266.3	-2.05
266.516	-6.14
266.732	-12.29
266.948	-16.38
267.164	57.34
267.38	32.77
267.596	26.62
267.812	-2.05
268.028	49.15
268.244	26.62
268.46	-96.25
268.676	16.38
268.892	8.19
269.108	-16.38
269.324	-6.14
269.54	16.38
269.756	8.19
269.972	-28.67
270.188	0
270.403	40.96
270.619	10.24
270.835	-12.29
271.051	-4.1
271.267	-14.34
271.483	83.97
271.698	6.14
271.914	2.05
272.13	-16.38
272.346	90.11
272.562	38.91
272.777	40.96
272.993	26.62
273.209	16.38
273.425	26.62
273.64	16.38
273.856	36.86
274.072	63.49
274.287	4.1
274.503	16.38
274.719	-22.53
274.934	-20.48
275.15	-18.43
275.366	-2.05
275.581	-55.3
275.797	-59.39
276.012	-45.06
276.228	49.15
276.444	-22.53
276.659	22.53
276.875	14.34
277.09	-40.96
277.306	47.1
277.521	-67.58
277.737	-6.14
277.952	-6.14
278.168	18.43
278.383	-43.01
278.599	-61.44
278.814	36.86
279.03	51.2
279.245	0
279.461	-14.34
279.676	14.34
279.892	-59.39
280.107	49.15
280.322	-55.3
280.538	-53.25
280.753	14.34
280.969	45.06
281.184	-38.91
281.399	-51.2
281.615	2.05
281.83	-2.05
282.045	45.06
282.26	-20.48
282.476	-59.39
282.691	73.73
282.906	-24.58
283.122	18.43
283.337	40.96
283.552	61.44
283.767	47.1
283.983	-16.38
284.198	-12.29
284.413	63.49
284.628	-26.62
284.843	-49.15
285.058	22.53
285.274	-30.72
285.489	-8.19
285.704	40.96
285.919	-36.86
286.134	26.62
286.349	-4.1
286.564	-26.62
286.779	-43.01
286.995	-24.58
287.21	16.38
287.425	-40.96
287.64	-71.68
287.855	-34.82
288.07	-69.63
288.285	2.05
288.5	-4.1
288.715	88.06
288.93	-16.38
289.145	16.38
289.36	26.62
289.575	-4.1
289.79	30.72
290.004	-57.34
290.219	-6.14
290.434	-14.34
290.649	-28.67
290.864	0
291.079	-36.86
291.294	8.19
291.509	0
291.724	20.48
291.938	10.24
292.153	-20.48
292.368	-34.82
292.583	-26.62
292.798	-24.58
293.012	-6.14
293.227	-26.62
293.442	12.29
293.657	14.34
293.871	16.38
294.086	20.48
294.301	-4.1
294.516	43.01
294.73	36.86
294.945	14.34
295.16	59.39
295.374	28.67
295.589	43.01
295.804	22.53
296.018	-47.1
296.233	2.05
296.447	-26.62
296.662	28.67
296.877	20.48
297.091	-55.3
297.306	-36.86
297.52	38.91
297.735	51.2
297.949	67.58
298.164	-18.43
298.378	32.77
298.593	14.34
298.807	-10.24
299.022	55.3
299.236	-34.82
299.451	18.43
299.665	-22.53
299.88	18.43
300.094	-57.34
300.309	32.77
300.523	28.67
300.737	6.14
300.952	-34.82
301.166	28.67
301.381	38.91
301.595	-28.67
301.809	-12.29
302.024	22.53
302.238	-20.48
302.452	45.06
302.667	51.2
302.881	22.53
303.095	14.34
303.309	-88.06
303.524	6.14
303.738	-8.19
303.952	2.05
304.166	-34.82
304.381	8.19
304.595	10.24
304.809	-22.53
305.023	65.53
305.237	-47.1
305.452	10.24
305.666	2.05
305.88	-12.29
306.094	12.29
306.308	-10.24
306.522	-16.38
306.736	20.48
306.95	-18.43
307.164	-10.24
307.379	-43.01
307.593	-22.53
307.807	55.3
308.021	-16.38
308.235	57.34
308.449	90.11
308.663	-18.43
308.877	8.19
309.091	-59.39
309.305	129.02
309.519	-51.2
309.733	-36.86
309.947	-38.91
310.161	32.77
310.374	-10.24
310.588	63.49
310.802	-86.01
311.016	-4.1
311.23	-14.34
311.444	43.01
311.658	-20.48
311.872	57.34
312.085	-18.43
312.299	22.53
312.513	-38.91
312.727	40.96
312.941	22.53
313.154	-16.38
313.368	34.82
313.582	69.63
313.796	4.1
314.009	43.01
314.223	-14.34
314.437	65.53
314.651	34.82
314.864	51.2
315.078	-22.53
315.292	-30.72
315.505	2.05
315.719	45.06
315.933	-59.39
316.146	-26.62
316.36	24.58
316.573	18.43
316.787	2.05
317.001	43.01
317.214	57.34
317.428	8.19
317.641	-57.34
317.855	-18.43
318.068	55.3
318.282	47.1
318.495	-32.77
318.709	0
318.922	-34.82
319.136	14.34
319.349	20.48
319.563	14.34
319.776	45.06
319.99	51.2
320.203	10.24
320.417	-26.62
320.63	83.97
320.843	32.77
321.057	-36.86
321.27	26.62
321.483	-26.62
321.697	43.01
321.91	-18.43
322.124	18.43
322.337	2.05
322.55	-20.48
322.763	6.14
322.977	8.19
323.19	-14.34
323.403	-36.86
323.617	14.34
323.83	-10.24
324.043	12.29
324.256	38.91
324.469	2.05
324.683	55.3
324.896	-14.34
325.109	16.38
325.322	6.14
325.535	10.24
325.748	104.45
325.962	6.14
326.175	16.38
326.388	16.38
326.601	43.01
326.814	18.43
327.027	-26.62
327.24	34.82
327.453	51.2
327.666	4.1
327.879	-20.48
328.092	-67.58
328.305	-55.3
328.518	0
328.731	-8.19
328.944	26.62
329.157	49.15
329.37	6.14
329.583	-22.53
329.796	57.34
330.009	22.53
330.222	49.15
330.435	24.58
330.648	-12.29
330.861	-30.72
331.073	20.48
331.286	28.67
331.499	63.49
331.712	53.25
331.925	16.38
332.138	-88.06
332.35	22.53
332.563	18.43
332.776	45.06
332.989	-34.82
333.202	49.15
333.414	20.48
333.627	22.53
333.84	-30.72
334.053	-32.77
334.265	-34.82
334.478	38.91
334.691	24.58
334.903	-6.14
335.116	-8.19
335.329	16.38
335.541	-26.62
335.754	-28.67
335.966	-30.72
336.179	-34.82
336.392	-40.96
336.604	-14.34
336.817	79.87
337.029	73.73
337.242	-63.49
337.454	-49.15
337.667	-61.44
337.88	32.77
338.092	-28.67
338.305	-18.43
338.517	6.14
338.729	-4.1
338.942	-6.14
339.154	-10.24
339.367	-10.24
339.579	81.92
339.792	57.34
340.004	30.72
340.217	-8.19
340.429	45.06
340.641	32.77
340.854	-22.53
341.066	-28.67
341.278	22.53
341.491	-10.24
341.703	38.91
341.915	22.53
342.128	30.72
342.34	-24.58
342.552	-57.34
342.764	-38.91
342.977	49.15
343.189	-22.53
343.401	-12.29
343.613	-22.53
343.826	-22.53
344.038	-47.1
344.25	67.58
344.462	-53.25
344.674	6.14
344.886	38.91
345.099	59.39
345.311	77.82
345.523	-12.29
345.735	-83.97
345.947	-28.67
346.159	45.06
346.371	-38.91
346.583	-26.62
346.795	63.49
347.007	79.87
347.219	67.58
347.431	30.72
347.643	6.14
347.855	22.53
348.067	24.58
348.279	14.34
348.491	20.48
348.703	36.86
348.915	22.53
349.127	-38.91
349.339	32.77
349.551	-63.49
349.763	-47.1
349.975	26.62
350.187	57.34
350.399	-57.34
350.61	57.34
350.822	-22.53
351.034	-16.38
351.246	-28.67
351.458	55.3
351.669	30.72
351.881	-8.19
352.093	0
352.305	59.39
352.517	63.49
352.728	14.34
352.94	-51.2
353.152	-36.86
353.363	-12.29
353.575	-40.96
353.787	12.29
353.999	61.44
354.21	51.2
354.422	-14.34
354.633	45.06
354.845	49.15
355.057	38.91
355.268	-18.43
355.48	-4.1
355.692	-20.48
355.903	116.73
356.115	8.19
356.326	-47.1
356.538	6.14
356.749	71.68
356.961	-55.3
357.172	-86.01
357.384	-24.58
357.595	24.58
357.807	-51.2
358.018	-92.16
358.23	47.1
358.441	63.49
358.653	-6.14
358.864	-26.62
359.075	28.67
359.287	0
359.498	98.3
359.709	-6.14
359.921	-34.82
360.132	-45.06
360.344	16.38
360.555	-10.24
360.766	75.77
360.977	24.58
361.189	20.48
361.4	-45.06
361.611	26.62
361.823	53.25
362.034	69.63
362.245	16.38
362.456	38.91
362.667	0
362.879	-18.43
363.09	6.14
363.301	14.34
363.512	51.2
363.723	26.62
363.935	8.19
364.146	16.38
364.357	-77.82
364.568	6.14
364.779	-24.58
364.99	65.53
365.201	75.77
365.412	24.58
365.623	59.39
365.834	-18.43
366.045	4.1
366.256	30.72
366.467	22.53
366.678	36.86
366.889	-2.05
367.1	-22.53
367.311	0
367.522	-32.77
367.733	2.05
367.944	-16.38
368.155	10.24
368.366	22.53
368.577	-8.19
368.788	40.96
368.999	14.34
369.209	-20.48
369.42	4.1
369.631	75.77
369.842	-4.1
370.053	20.48
370.264	88.06
370.474	-32.77
370.685	-22.53
370.896	124.93
371.107	-12.29
371.317	30.72
371.528	-14.34
371.739	24.58
371.95	-18.43
372.16	55.3
372.371	20.48
372.582	8.19
372.792	38.91
373.003	18.43
373.214	24.58
373.424	-34.82
373.635	-2.05
373.846	55.3
374.056	-14.34
374.267	43.01
374.477	32.77
374.688	-45.06
374.898	-26.62
375.109	10.24
375.319	-51.2
375.53	-20.48
375.74	-61.44
375.951	8.19
376.161	-40.96
376.372	-6.14
376.582	-6.14
376.793	65.53
377.003	53.25
377.214	8.19
377.424	-55.3
377.635	40.96
377.845	12.29
378.055	61.44
378.266	-32.77
378.476	14.34
378.686	-38.91
378.897	2.05
379.107	34.82
379.317	-53.25
379.528	8.19
379.738	57.34
379.948	22.53
380.158	8.19
380.369	-36.86
380.579	12.29
380.789	-63.49
380.999	51.2
381.21	14.34
381.42	-40.96
381.63	10.24
381.84	-32.77
382.05	8.19
382.261	51.2
382.471	28.67
382.681	-65.54
382.891	8.19
383.101	75.77
383.311	55.3
383.521	-24.58
383.731	-14.34
383.941	32.77
384.151	14.34
384.361	6.14
384.571	18.43
384.781	16.38
384.991	30.72
385.201	34.82
385.411	4.1
385.621	30.72
385.831	-47.1
386.041	51.2
386.251	-8.19
386.461	34.82
386.671	73.73
386.881	53.25
387.091	-18.43
387.301	32.77
387.511	61.44
387.72	8.19
387.93	22.53
388.14	4.1
388.35	-32.77
388.56	34.82
388.769	-20.48
388.979	14.34
389.189	22.53
389.399	88.06
389.609	73.73
389.818	-55.3
390.028	38.91
390.238	47.1
390.447	-43.01
390.657	16.38
390.867	-59.39
391.076	-4.1
391.286	28.67
391.496	-53.25
391.705	-14.34
391.915	75.77
392.125	67.58
392.334	6.14
392.544	12.29
392.753	14.34
392.963	-14.34
393.172	22.53
393.382	55.3
393.591	135.17
393.801	63.49
394.01	22.53
394.22	34.82
394.429	12.29
394.639	12.29
394.848	124.93
395.058	-2.05
395.267	49.15
395.477	10.24
395.686	36.86
395.895	43.01
396.105	96.25
396.314	0
396.524	83.97
396.733	12.29
396.942	-8.19
397.152	12.29
397.361	59.39
397.57	120.83
397.78	55.3
397.989	10.24
398.198	18.43
398.407	47.1
398.617	81.92
398.826	30.72
399.035	2.05
399.244	40.96
399.453	122.88
399.663	34.82
399.872	55.3
400.081	-10.24
400.29	6.14
400.499	16.38
400.708	26.62
400.917	-10.24
401.127	18.43
401.336	71.68
401.545	32.77
401.754	12.29
401.963	4.1
402.172	90.11
402.381	38.91
402.59	30.72
402.799	-2.05
403.008	47.1
403.217	43.01
403.426	110.59
403.635	38.91
403.844	16.38
404.053	28.67
404.262	22.53
404.471	63.49
404.68	90.11
404.888	90.11
405.097	106.49
405.306	102.4
405.515	38.91
405.724	14.34
405.933	28.67
406.142	88.06
406.35	55.3
406.559	34.82
406.768	59.39
406.977	79.87
407.185	51.2
407.394	34.82
407.603	63.49
407.812	104.45
408.02	126.97
408.229	98.3
408.438	49.15
408.646	137.21
408.855	161.79
409.064	79.87
409.272	108.54
409.481	81.92
409.69	88.06
409.898	155.65
410.107	110.59
410.315	120.83
410.524	122.88
410.733	112.64
410.941	153.6
411.15	174.08
411.358	153.6
411.567	165.89
411.775	118.78
411.984	147.45
412.192	135.17
412.401	167.93
412.609	215.04
412.818	163.84
413.026	172.03
413.234	237.56
413.443	229.37
413.651	182.27
413.86	198.65
414.068	204.8
414.276	292.86
414.485	212.99
414.693	253.95
414.901	268.28
415.11	305.15
415.318	321.53
415.526	249.85
415.734	262.14
415.943	366.59
416.151	317.44
416.359	374.78
416.567	362.49
416.776	309.24
416.984	364.54
417.192	452.6
417.4	403.45
417.608	352.25
417.817	485.37
418.025	454.65
418.233	440.31
418.441	471.03
418.649	489.46
418.857	501.75
419.065	595.96
419.273	579.58
419.481	581.62
419.689	505.85
419.897	669.69
420.105	550.9
420.313	657.4
420.521	704.5
420.729	739.32
420.937	784.37
421.145	757.75
421.353	774.13
421.561	780.28
421.769	731.12
421.977	860.15
422.185	755.7
422.393	923.63
422.601	909.3
422.809	958.45
423.017	894.96
423.224	1021.94
423.432	1064.94
423.64	972.79
423.848	1196.01
424.056	1091.57
424.263	1193.97
424.471	1228.78
424.679	1251.31
424.887	1236.97
425.094	1288.17
425.302	1316.84
425.51	1300.46
425.718	1384.43
425.925	1443.82
426.133	1523.69
426.341	1572.84
426.548	1621.99
426.756	1632.23
426.964	1624.04
427.171	1617.9
427.379	1832.93
427.586	1660.9
427.794	1906.66
428.001	1980.39
428.209	2101.22
428.417	1896.42
428.624	2136.03
428.832	2158.56
429.039	2123.74
429.247	2201.57
429.454	2287.58
429.662	2457.56
429.869	2299.87
430.076	2519
430.284	2432.99
430.491	2629.59
430.699	2713.56
430.906	2746.33
431.114	2619.35
431.321	2867.16
431.528	2914.26
431.736	3061.71
431.943	3192.78
432.15	2990.03
432.358	2959.31
432.565	3381.2
432.772	3307.47
432.979	3499.98
433.187	3522.51
433.394	3553.23
433.601	3669.96
433.808	3866.56
434.016	3907.52
434.223	3960.77
434.43	4161.47
434.637	4046.79
434.844	4308.93
435.052	4392.89
435.259	4351.93
435.466	4485.05
435.673	4384.7
435.88	4798.39
436.087	4974.52
436.294	4937.65
436.501	4904.89
436.708	4802.49
436.915	5027.76
437.122	5279.66
437.329	5253.04
437.537	5332.91
437.743	5494.7
437.95	5494.7
438.157	5779.37
438.364	5992.36
438.571	5922.73
438.778	5961.64
438.985	6596.51
439.192	6326.18
439.399	6514.59
439.606	6559.64
439.813	6715.29
440.02	7251.86
440.227	6889.37
440.433	7053.2
440.64	7157.65
440.847	7176.08
441.054	7325.58
441.261	7882.63
441.467	7731.08
441.674	7853.96
441.881	8118.15
442.088	8150.92
442.294	8198.02
442.501	8277.89
442.708	8529.79
442.914	8939.38
443.121	9179
443.328	8865.66
443.534	9445.23
443.741	9391.98
443.948	9185.14
444.154	9858.92
444.361	9811.82
444.568	9996.14
444.774	9930.6
444.981	9961.32
445.187	10516.32
445.394	10684.25
445.6	10614.62
445.807	11513.68
446.013	11335.51
446.22	11468.62
446.426	11933.51
446.633	11974.47
446.839	12588.86
447.046	11872.07
447.252	12568.38
447.459	12513.09
447.665	12635.97
447.871	12750.65
448.078	13842.22
448.284	13152.06
448.491	13289.27
448.697	13948.72
448.903	14442.28
449.11	14276.39
449.316	14098.22
449.522	14395.17
449.728	14702.37
449.935	14911.26
450.141	15087.39
450.347	15171.35
450.553	14745.38
450.76	14962.46
450.966	15413.01
451.172	15226.65
451.378	15605.52
451.584	15318.81
451.791	15736.59
451.997	15640.34
452.203	16137.99
452.409	15914.77
452.615	15974.16
452.821	15529.75
453.027	15429.4
453.233	16082.7
453.44	15509.27
453.646	15732.5
453.852	15394.58
454.058	16221.96
454.264	15400.72
454.47	15986.44
454.676	15312.66
454.882	15914.77
455.088	14587.68
455.294	14833.44
455.5	15005.47
455.705	15075.1
455.911	14802.72
456.117	14499.62
456.323	13946.67
456.529	13672.24
456.735	14081.83
456.941	13483.83
457.147	13334.32
457.352	13279.03
457.558	13197.11
457.764	12879.68
457.97	12592.96
458.176	12326.72
458.381	12281.67
458.587	11851.6
458.793	11798.35
458.999	11251.54
459.204	12089.16
459.41	11636.56
459.616	10876.76
459.821	10919.77
460.027	10895.19
460.233	10653.53
460.438	10098.53
460.644	10151.78
460.85	9768.81
461.055	9508.72
461.261	9578.35
461.466	8875.9
461.672	8660.86
461.878	9326.45
462.083	8548.22
462.289	8415.1
462.494	8189.83
462.7	7925.64
462.905	7831.43
463.111	8034.18
463.316	7847.82
463.522	8025.99
463.727	7982.98
463.932	7847.82
464.138	7872.39
464.343	8050.57
464.549	7651.21
464.754	7675.79
464.959	7769.99
465.165	7864.2
465.37	7368.59
465.575	7167.89
465.781	7454.61
465.986	7659.4
466.191	7188.37
466.397	7090.07
466.602	6797.21
466.807	7128.98
467.012	6991.77
467.218	7030.68
467.423	6854.55
467.628	7024.53
467.833	7165.84
468.038	6995.86
468.244	6860.7
468.449	7309.2
468.654	6809.5
468.859	6748.06
469.064	6639.51
469.269	6426.53
469.474	6449.05
469.679	6627.23
469.885	6438.81
470.09	6657.95
470.295	6746.01
470.5	6387.61
470.705	6510.49
470.91	6291.36
471.115	6383.52
471.32	6395.81
471.525	6057.89
471.73	6074.28
471.935	6311.84
472.139	5916.58
472.344	6070.18
472.549	5830.57
472.754	5885.86
472.959	5644.2
473.164	5752.74
473.369	5572.52
473.574	5765.03
473.778	5767.08
473.983	5552.04
474.188	5517.23
474.393	5324.72
474.598	5357.49
474.802	5283.76
475.007	5412.78
475.212	5447.6
475.417	5269.42
475.621	5001.14
475.826	5210.03
476.031	5025.72
476.235	4874.17
476.44	5193.65
476.645	4902.84
476.849	4972.47
477.054	4863.93
477.259	4968.37
477.463	4814.77
477.668	4751.29
477.872	4700.09
478.077	4616.12
478.282	4476.86
478.486	4562.87
478.691	4534.2
478.895	4419.52
479.1	4437.95
479.304	4425.66
479.509	4259.77
479.713	4345.79
479.918	4421.56
480.122	4167.62
480.326	4411.32
480.531	4431.8
480.735	4259.77
480.94	4388.8
481.144	4343.74
481.348	4095.94
481.553	4251.58
481.757	4122.56
481.961	4140.99
482.166	4276.16
482.37	4302.78
482.574	4085.7
482.778	4089.79
482.983	4151.23
483.187	4239.3
483.391	4159.42
483.595	4106.18
483.8	4169.66
484.004	4116.42
484.208	4054.98
484.412	4016.07
484.616	4284.35
484.821	4108.23
485.025	4020.16
485.229	4188.1
485.433	4206.53
485.637	4163.52
485.841	4186.05
486.045	3977.16
486.249	4212.67
486.453	4091.84
486.657	4071.36
486.861	4270.01
487.065	3940.29
487.269	4231.1
487.473	4087.75
487.677	4140.99
487.881	4204.48
488.085	4128.7
488.289	4014.02
488.493	4122.56
488.697	4286.4
488.901	4188.1
489.105	4175.81
489.309	4396.99
489.512	4315.07
489.716	4134.85
489.92	4128.7
490.124	4253.63
490.328	4405.18
490.531	4102.08
490.735	4239.3
490.939	4292.54
491.143	4261.82
491.346	4304.83
491.55	4405.18
491.754	4341.69
491.958	4425.66
492.161	4331.45
492.365	4356.03
492.569	4528.06
492.772	4392.89
492.976	4368.32
493.18	4499.39
493.383	4667.32
493.587	4566.97
493.79	4712.38
493.994	4577.21
494.197	4679.61
494.401	4765.62
494.605	4562.87
494.808	4532.15
495.012	4790.2
495.215	4868.02
495.419	4851.64
495.622	4911.03
495.825	5005.24
496.029	5005.24
496.232	4995
496.436	4954.04
496.639	5169.07
496.843	5068.72
497.046	5191.6
497.249	5347.25
497.453	5361.58
497.656	5304.24
497.859	5269.42
498.063	5353.39
498.266	5396.4
498.469	5617.58
498.673	5582.76
498.876	5808.04
499.079	5828.52
499.282	5793.7
499.485	5875.62
499.689	5969.83
499.892	5978.02
500.095	6080.42
500.298	6272.93
500.501	6094.75
500.705	6352.8
500.908	6416.29
501.111	6586.27
501.314	6481.82
501.517	6764.44
501.72	6766.49
501.923	6627.23
502.126	6907.8
502.329	6932.37
502.532	7024.53
502.735	7116.69
502.938	7268.24
503.141	7231.38
503.344	7382.93
503.547	7354.26
503.75	7413.65
503.953	7761.8
504.156	7784.33
504.359	7829.38
504.562	7759.75
504.765	7993.22
504.968	8218.5
505.17	8159.11
505.373	8322.94
505.576	8447.87
505.779	8437.63
505.982	8523.65
506.185	8732.54
506.387	8705.92
506.59	8894.33
506.793	9082.74
506.996	9273.2
507.198	9211.76
507.401	9303.92
507.604	9484.14
507.807	9656.17
508.009	9932.65
508.212	9680.75
508.415	9928.55
508.617	9977.7
508.82	10340.19
509.022	10291.04
509.225	10278.76
509.428	10798.94
509.63	10553.18
509.833	10815.32
510.035	10962.78
510.238	10938.2
510.44	11063.13
510.643	11249.49
510.845	11294.55
511.048	11679.57
511.25	11659.09
511.453	11712.33
511.655	12218.18
511.858	11970.38
512.06	12396.35
512.262	12265.28
512.465	12511.04
512.667	12656.45
512.87	12777.28
513.072	12900.16
513.274	13098.81
513.477	13049.66
513.679	13332.28
513.881	13467.44
514.084	13694.77
514.286	13649.71
514.488	13907.76
514.69	14114.6
514.893	14249.77
515.095	14311.21
515.297	14427.94
515.499	14706.46
515.701	14673.7
515.904	14917.4
516.106	15081.24
516.308	15398.68
516.51	15576.85
516.712	15759.12
516.914	15527.7
517.116	15898.38
517.318	16111.37
517.52	15920.91
517.722	16213.77
517.925	16439.05
518.127	16928.51
518.329	16940.8
518.531	16912.13
518.733	17020.67
518.935	17374.97
519.136	17571.57
519.338	17819.38
519.54	17872.62
519.742	17878.77
519.944	17891.06
520.146	18478.82
520.348	18573.03
520.55	18697.95
520.752	18826.98
520.954	18695.91
521.155	18716.39
521.357	19156.7
521.559	19463.9
521.761	19691.22
521.963	19644.12
522.164	19752.66
522.366	20192.97
522.568	20297.42
522.77	20276.94
522.971	20614.85
523.173	20582.09
523.375	20788.93
523.576	20686.53
523.778	20741.83
523.98	21075.65
524.181	21188.28
524.383	21210.81
524.584	21630.65
524.786	21651.13
524.988	21489.34
525.189	22062.77
525.391	21935.79
525.592	22214.32
525.794	22306.48
525.995	22531.75
526.197	22367.91
526.398	22341.29
526.6	22406.83
526.801	22845.09
527.003	22949.54
527.204	23209.63
527.406	23045.79
527.607	23051.94
527.808	23293.6
528.01	23019.17
528.211	23096.99
528.412	23787.16
528.614	23547.54
528.815	23821.97
529.016	23797.4
529.218	23670.42
529.419	23983.76
529.62	24290.96
529.822	23844.5
530.023	23899.8
530.224	24260.24
530.425	24080.02
530.626	23836.31
530.828	23887.51
531.029	24264.33
531.23	24243.85
531.431	24215.18
531.632	24397.45
531.833	24266.38
532.035	24237.71
532.236	24575.62
532.437	24802.95
532.638	24596.1
532.839	24954.5
533.04	24841.86
533.241	24510.09
533.442	24938.12
533.643	25046.66
533.844	24788.61
534.045	24551.05
534.246	24708.74
534.447	25071.23
534.648	24798.85
534.849	25210.5
535.05	24520.33
535.251	24788.61
535.451	25044.61
535.652	25007.75
535.853	25081.47
536.054	24772.23
536.255	25026.18
536.456	24811.14
536.657	25095.81
536.857	24518.28
537.058	24895.11
537.259	25044.61
537.46	25077.38
537.66	24632.97
537.861	25009.79
538.062	25024.13
538.263	24995.46
538.463	24727.17
538.664	24753.8
538.865	25210.5
539.065	25077.38
539.266	24723.08
539.466	25239.17
539.667	24661.64
539.868	25165.44
540.068	24583.82
540.269	25040.51
540.469	25153.15
540.67	25015.94
540.87	24862.34
541.071	25024.13
541.271	25106.05
541.472	25020.03
541.672	24647.3
541.873	24862.34
542.073	24237.71
542.274	24854.15
542.474	24827.53
542.675	24780.42
542.875	24987.27
543.075	24757.89
543.276	24604.3
543.476	24845.96
543.676	24891.01
543.877	25034.37
544.077	24827.53
544.277	24747.65
544.478	24704.65
544.678	24712.84
544.878	24628.87
545.078	24886.92
545.279	24772.23
545.479	24798.85
545.679	25077.38
545.879	24673.93
546.079	24489.61
546.28	24635.02
546.48	24647.3
546.68	24880.77
546.88	25030.27
547.08	24880.77
547.28	24905.35
547.48	24442.51
547.68	24635.02
547.88	24647.3
548.081	24895.11
548.281	24776.33
548.481	24622.73
548.681	24768.13
548.881	24725.13
549.081	24743.56
549.28	24704.65
549.48	24745.61
549.68	24663.69
549.88	24901.25
550.08	24579.72
550.28	24858.24
550.48	24905.35
550.68	24862.34
550.88	24442.51
551.08	24569.48
551.279	24729.22
551.479	24422.03
551.679	24589.96
551.879	24538.76
552.079	24712.84
552.278	24344.2
552.478	24395.4
552.678	24430.22
552.878	24596.1
553.077	24360.59
553.277	24475.27
553.477	24589.96
553.676	24344.2
553.876	24528.52
554.076	24206.99
554.275	24589.96
554.475	24237.71
554.674	24452.75
554.874	24419.98
555.074	24209.04
555.273	24014.48
555.473	24200.85
555.672	24123.02
555.872	24256.14
556.071	24174.22
556.271	24592.01
556.47	24116.88
556.67	24127.12
556.869	24288.91
557.068	24084.11
557.268	24133.26
557.467	24090.26
557.667	24082.06
557.866	23950.99
558.065	24356.49
558.265	23807.64
558.464	23871.12
558.663	24176.27
558.863	23664.28
559.062	23971.47
559.261	23410.33
559.461	23910.04
559.66	23723.67
559.859	23557.78
560.058	23398.04
560.258	23549.59
560.457	23471.77
560.656	23486.11
560.855	23518.87
561.054	23725.72
561.253	23152.29
561.453	23398.04
561.652	23529.11
561.851	23551.64
562.05	23246.49
562.249	22914.72
562.448	23641.75
562.647	23176.86
562.846	23135.9
563.045	23297.69
563.244	22734.5
563.443	23330.46
563.642	22970.02
563.841	22603.43
564.04	22886.05
564.239	23146.14
564.438	22466.22
564.637	22914.72
564.836	22714.02
565.035	22451.88
565.234	22785.7
565.432	22662.82
565.631	22222.51
565.83	22412.97
566.029	22464.17
566.228	22273.71
566.427	21903.03
566.625	21915.31
566.824	21986.99
567.023	22286
567.222	21749.43
567.42	22161.07
567.619	22060.72
567.818	21970.61
568.016	21784.24
568.215	22113.97
568.414	21763.76
568.612	21753.52
568.811	21653.17
569.01	21804.72
569.208	21444.28
569.407	21786.29
569.605	21239.48
569.804	21604.02
570.002	21307.07
570.201	21163.71
570.4	20965.06
570.598	21038.78
570.797	21163.71
570.995	20915.9
571.193	20799.17
571.392	20815.55
571.59	20659.91
571.789	21022.4
571.987	20709.06
572.186	20571.85
572.384	20604.61
572.582	20475.59
572.781	20633.29
572.979	20475.59
573.177	20274.89
573.376	20360.91
573.574	20276.94
573.772	20530.89
573.971	19957.46
574.169	20133.58
574.367	19916.5
574.565	20137.68
574.763	19670.74
574.962	19939.02
575.16	19613.4
575.358	20041.42
575.556	19674.84
575.754	19795.67
575.952	19424.98
576.151	19517.14
576.349	19371.74
576.547	19445.46
576.745	19179.23
576.943	19494.61
577.141	19267.29
577.339	19242.71
577.537	19037.92
577.735	18988.77
577.933	18872.03
578.131	19318.49
578.329	18835.17
578.527	18663.14
578.725	18902.75
578.923	18763.49
579.121	18560.74
579.319	18654.95
579.516	18716.39
579.714	18554.6
579.912	18738.91
580.11	18411.24
580.308	18366.18
580.506	18161.39
580.704	17983.21
580.901	18452.2
581.099	18327.27
581.297	18188.01
581.495	17882.86
581.692	18183.91
581.89	17841.9
582.088	17987.31
582.285	17780.46
582.483	18091.76
582.681	17886.96
582.878	17657.59
583.076	17413.88
583.274	17671.92
583.471	17473.27
583.669	17483.51
583.866	17338.1
584.064	17633.01
584.262	17247.99
584.459	17469.17
584.657	17282.81
584.854	17420.02
585.052	16805.63
585.249	17164.03
585.447	17313.53
585.644	16979.71
585.841	16914.17
586.039	17067.77
586.236	16697.09
586.434	16797.44
586.631	16736
586.828	16785.15
587.026	16584.45
587.223	16439.05
587.42	16690.95
587.618	16422.66
587.815	16508.68
588.012	16269.06
588.21	16455.43
588.407	16482.05
588.604	16346.89
588.801	15959.82
588.999	16193.29
589.196	16142.09
589.393	16285.45
589.59	16176.91
589.787	15939.34
589.984	15980.3
590.182	15718.16
590.379	15800.08
590.576	15630.1
590.773	15785.74
590.97	15519.51
591.167	15664.91
591.364	15560.47
591.561	15542.03
591.758	15490.84
591.955	15243.03
592.152	15376.15
592.349	15408.92
592.546	15533.84
592.743	15361.81
592.94	15048.47
593.137	15109.91
593.334	15400.72
593.531	15120.15
593.727	15247.13
593.924	15095.58
594.121	14907.16
594.318	14999.32
594.515	14724.9
594.712	15079.19
594.908	14647.07
595.105	14774.05
595.302	14583.59
595.499	14858.01
595.696	14581.54
595.892	14403.36
596.089	14409.51
596.286	14679.84
596.482	14309.16
596.679	14657.31
596.876	14171.94
597.072	14393.12
597.269	14284.58
597.466	13973.29
597.662	14108.46
597.859	14204.71
598.055	14341.93
598.252	14100.26
598.448	13956.91
598.645	13909.8
598.841	14067.5
599.038	14026.54
599.234	13870.89
599.431	13893.42
599.627	13442.87
599.824	13571.89
600.02	13793.07
600.217	13580.08
600.413	13518.64
600.609	13461.3
600.806	13711.15
601.002	13641.52
601.198	13492.02
601.395	13111.1
601.591	13258.55
601.787	13481.78
601.984	13164.34
602.18	13311.8
602.376	13307.7
602.572	13078.33
602.769	13020.99
602.965	12820.28
603.161	12959.55
603.357	12771.13
603.553	12697.41
603.75	12969.79
603.946	12760.89
604.142	12726.08
604.338	12523.33
604.534	12721.98
604.73	12451.65
604.926	12599.1
605.122	12638.02
605.318	12320.58
605.514	12427.07
605.71	12453.7
605.906	12265.28
606.102	12240.71
606.298	12351.3
606.494	12279.62
606.69	12347.2
606.886	12119.88
607.082	12013.38
607.278	12508.99
607.474	12037.96
607.67	12058.44
607.866	11962.19
608.062	12171.08
608.257	12066.63
608.453	11872.07
608.649	11861.83
608.845	11808.59
609.041	11673.42
609.236	11593.55
609.432	11947.85
609.628	11552.59
609.824	11769.68
610.019	11829.07
610.215	11638.61
610.411	11575.12
610.606	11415.38
610.802	11607.89
610.998	11622.22
611.193	11380.56
611.389	11482.96
611.584	11607.89
611.78	11343.7
611.976	11446.1
612.171	11382.61
612.367	11214.68
612.562	11263.83
612.758	11253.59
612.953	11140.95
613.149	11366.23
613.344	11134.81
613.539	11130.71
613.735	11081.56
613.93	11249.49
614.126	11110.23
614.321	11132.76
614.517	11138.9
614.712	10835.8
614.907	10880.86
615.103	10962.78
615.298	10903.39
615.493	11032.41
615.688	10755.93
615.884	11050.84
616.079	10596.19
616.274	10692.44
616.47	10800.99
616.665	10848.09
616.86	10788.7
617.055	10868.57
617.25	10676.06
617.445	10510.18
617.641	10377.06
617.836	10565.47
618.031	10266.47
618.226	10612.57
618.421	10415.97
618.616	10633.05
618.811	10172.26
619.006	10544.99
619.201	10149.73
619.396	10205.03
619.591	10028.9
619.786	10137.45
619.981	10129.25
620.176	10088.29
620.371	10098.53
620.566	10096.49
620.761	9992.04
620.956	10010.47
621.151	9830.25
621.346	9854.83
621.541	9783.15
621.735	10045.29
621.93	9666.41
622.125	9832.3
622.32	9371.51
622.515	9553.77
622.709	9465.71
622.904	9480.05
623.099	9312.11
623.294	9508.72
623.488	9242.48
623.683	9193.33
623.878	9111.41
624.072	9168.76
624.267	9080.69
624.462	8988.53
624.656	9070.45
624.851	8869.75
625.046	8839.03
625.24	9023.35
625.435	8791.93
625.629	8806.27
625.824	8654.72
626.018	8804.22
626.213	8503.17
626.407	8771.45
626.602	8488.83
626.796	8341.38
626.991	8599.42
627.185	8384.38
627.38	8271.75
627.574	8394.62
627.768	8271.75
627.963	8267.65
628.157	8134.53
628.352	7995.27
628.546	8087.43
628.74	8214.4
628.935	8021.89
629.129	8083.33
629.323	7802.76
629.517	7683.98
629.712	7772.04
629.906	7845.77
630.1	7706.51
630.294	7726.99
630.489	7616.4
630.683	7673.74
630.877	7380.88
631.071	7620.49
631.265	7577.48
631.459	7358.35
631.653	7327.63
631.848	7417.74
632.042	7382.93
632.236	7307.15
632.43	7384.98
632.624	7274.38
632.818	7212.95
633.012	7272.34
633.206	7159.7
633.4	7114.64
633.594	6942.61
633.788	7151.51
633.982	7008.15
634.176	6975.38
634.369	6686.62
634.563	6832.02
634.757	6907.8
634.951	6911.89
635.145	6832.02
635.339	6786.97
635.533	6696.86
635.726	6707.1
635.92	6586.27
636.114	6522.78
636.308	6522.78
636.501	6600.6
636.695	6475.68
636.889	6305.7
637.083	6477.73
637.276	6363.04
637.47	6285.22
637.664	6172.58
637.857	6365.09
638.051	6180.77
638.244	6195.11
638.438	6168.48
638.632	6076.32
638.825	6031.27
639.019	6002.6
639.212	5859.24
639.406	5990.31
639.599	5865.38
639.793	5885.86
639.986	5824.42
640.18	5832.61
640.373	5681.07
640.567	5924.77
640.76	5777.32
640.954	5711.78
641.147	5668.78
641.34	5588.91
641.534	5654.44
641.727	5568.43
641.92	5560.24
642.114	5377.97
642.307	5349.29
642.5	5576.62
642.694	5375.92
642.887	5296.05
643.08	5341.1
643.273	5220.27
643.467	5164.98
643.66	5326.77
643.853	5177.26
644.046	5201.84
644.239	5103.54
644.432	4995
644.626	5107.63
644.819	5060.53
645.012	5132.21
645.205	5021.62
645.398	5021.62
645.591	4882.36
645.784	4865.97
645.977	4712.38
646.17	4818.87
646.363	4796.34
646.556	4835.25
646.749	4640.7
646.942	4736.95
647.135	4548.54
647.328	4667.32
647.521	4667.32
647.714	4548.54
647.907	4362.17
648.099	4603.83
648.292	4519.87
648.485	4511.68
648.678	4478.91
648.871	4564.92
649.064	4401.08
649.256	4419.52
649.449	4300.73
649.642	4306.88
649.835	4308.93
650.027	4327.36
650.22	4155.33
650.413	4231.1
650.605	4239.3
650.798	4227.01
650.991	4061.12
651.183	4079.55
651.376	4095.94
651.568	4259.77
651.761	3964.87
651.954	3966.92
652.146	4046.79
652.339	3835.85
652.531	3833.8
652.724	3846.09
652.916	3772.36
653.109	3749.83
653.301	4054.98
653.494	3776.45
653.686	3786.69
653.879	3909.57
654.071	3637.19
654.263	3829.7
654.456	3874.76
654.648	3794.89
654.84	3610.57
655.033	3592.14
655.225	3719.11
655.417	3633.1
655.61	3612.62
655.802	3633.1
655.994	3524.55
656.186	3538.89
656.379	3604.42
656.571	3489.74
656.763	3522.51
656.955	3379.15
657.148	3579.85
657.34	3338.19
657.532	3436.49
657.724	3330
657.916	3497.93
658.108	3321.81
658.3	3299.28
658.492	3217.36
658.684	3366.86
658.876	3229.65
659.068	3307.47
659.26	3160.02
659.452	3397.58
659.644	3258.32
659.836	3127.25
660.028	3041.23
660.22	3231.69
660.412	3160.02
660.604	2951.12
660.796	3147.73
660.988	2998.23
661.18	3190.74
661.372	2901.97
661.563	2906.07
661.755	2934.74
661.947	3016.66
662.139	2951.12
662.331	2891.73
662.522	2891.73
662.714	2998.23
662.906	3043.28
663.097	2848.72
663.289	2830.29
663.481	2961.36
663.673	2914.26
663.864	2840.53
664.056	2736.09
664.247	2824.15
664.439	2699.22
664.631	2711.51
664.822	2727.89
665.014	2721.75
665.205	2725.85
665.397	2701.27
665.588	2680.79
665.78	2555.86
665.971	2564.06
666.163	2676.7
666.354	2717.65
666.546	2572.25
666.737	2580.44
666.929	2645.98
667.12	2516.95
667.311	2482.14
667.503	2553.82
667.694	2545.63
667.885	2471.9
668.077	2443.23
668.268	2439.13
668.459	2475.99
668.651	2494.43
668.842	2426.84
669.033	2414.56
669.224	2375.64
669.416	2361.31
669.607	2398.17
669.798	2367.45
669.989	2478.04
670.18	2336.73
670.371	2338.78
670.563	2363.36
670.754	2336.73
670.945	2437.08
671.136	2375.64
671.327	2326.49
671.518	2320.35
671.709	2340.83
671.9	2244.57
672.091	2365.4
672.282	2127.84
672.473	2398.17
672.664	2285.53
672.855	2156.51
673.046	2185.18
673.237	2174.94
673.428	2217.95
673.619	2191.33
673.809	2127.84
674	2158.56
674.191	2150.37
674.382	2170.85
674.573	2064.35
674.764	2058.21
674.954	2183.13
675.145	2097.12
675.336	2086.88
675.527	2099.17
675.717	2058.21
675.908	2201.57
676.099	2265.05
676.289	2152.42
676.48	2140.13
676.671	2068.45
676.861	2217.95
677.052	2168.8
677.243	2062.3
677.433	1966.05
677.624	2031.58
677.814	2131.94
678.005	2158.56
678.195	2066.4
678.386	2082.78
678.576	2156.51
678.767	1990.63
678.957	1920.99
679.148	2047.97
679.338	2060.26
679.529	2050.02
679.719	2070.5
679.909	1968.1
680.1	2015.2
680.29	2000.87
680.481	2054.11
680.671	2056.16
680.861	2082.78
681.052	2095.07
681.242	2029.54
681.432	2222.05
681.622	2029.54
681.813	2084.83
682.003	2074.59
682.193	2050.02
682.383	2045.92
682.573	2021.35
682.764	2009.06
682.954	1918.95
683.144	2017.25
683.334	1947.62
683.524	2047.97
683.714	1906.66
683.904	2050.02
684.094	2062.3
684.284	2033.63
684.474	2064.35
684.664	1865.7
684.854	1959.91
685.044	2105.31
685.234	1904.61
685.424	1957.86
685.614	1945.57
685.804	1959.91
685.994	2072.54
686.184	1964
686.374	2017.25
686.564	1912.8
686.753	1964
686.943	1906.66
687.133	2031.58
687.323	1964
687.513	2004.96
687.702	2031.58
687.892	1896.42
688.082	1947.62
688.272	1961.95
688.461	2027.49
688.651	2035.68
688.841	1980.39
689.03	1898.47
689.22	1914.85
689.41	1843.17
689.599	1877.99
689.789	1871.84
689.979	1990.63
690.168	1990.63
690.358	1816.55
690.547	1898.47
690.737	1988.58
690.926	1882.08
691.116	1931.23
691.305	1843.17
691.495	1892.32
691.684	1927.14
691.874	1990.63
692.063	1988.58
692.252	1906.66
692.442	1830.88
692.631	1923.04
692.82	2004.96
693.01	1724.39
693.199	1935.33
693.388	1810.4
693.578	1968.1
693.767	1890.28
693.956	1894.37
694.146	1964
694.335	1861.6
694.524	1744.87
694.713	1765.35
694.902	1894.37
695.092	1972.19
695.281	1802.21
695.47	1890.28
695.659	1841.12
695.848	1777.64
696.037	1920.99
696.226	1937.38
696.415	1916.9
696.604	1914.85
696.793	1791.97
696.982	1910.75
697.171	1910.75
697.36	1843.17
697.549	1808.36
697.738	1906.66
697.927	1728.49
698.116	1845.22
698.305	1849.32
698.494	1740.77
698.683	1814.5
698.872	1947.62
699.061	1794.02
699.25	1834.98
699.438	1804.26
699.627	1789.92
699.816	1839.08
700.005	1722.34
700.193	1800.16
700.382	1894.37
700.571	1822.69
700.76	1828.84
700.948	1761.25
701.137	1691.62
701.326	1800.16
701.514	1744.87
701.703	1802.21
701.892	1759.21
702.08	1812.45
702.269	1742.82
702.457	1751.01
702.646	1806.31
702.834	1746.92
703.023	1791.97
703.212	1791.97
703.4	1845.22
703.589	1785.83
703.777	1785.83
703.965	1712.1
704.154	1742.82
704.342	1726.44
704.531	1847.27
704.719	1726.44
704.907	1796.07
705.096	1697.77
705.284	1726.44
705.472	1642.47
705.661	1724.39
705.849	1734.63
706.037	1746.92
706.226	1689.57
706.414	1748.97
706.602	1701.86
706.79	1699.81
706.979	1708.01
707.167	1736.68
707.355	1722.34
707.543	1744.87
707.731	1722.34
707.919	1619.94
708.107	1658.85
708.296	1687.53
708.484	1626.09
708.672	1648.61
708.86	1611.75
709.048	1720.29
709.236	1736.68
709.424	1675.24
709.612	1562.6
709.8	1642.47
709.988	1605.61
710.176	1679.33
710.364	1648.61
710.551	1765.35
710.739	1519.59
710.927	1621.99
711.115	1624.04
711.303	1587.18
711.491	1703.91
711.679	1562.6
711.866	1558.5
712.054	1646.57
712.242	1572.84
712.43	1699.81
712.617	1609.7
712.805	1673.19
712.993	1595.37
713.181	1566.7
713.368	1658.85
713.556	1542.12
713.744	1640.42
713.931	1566.7
714.119	1658.85
714.306	1673.19
714.494	1533.93
714.682	1630.18
714.869	1554.41
715.057	1503.21
715.244	1540.07
715.432	1540.07
715.619	1591.27
715.807	1456.11
715.994	1519.59
716.182	1611.75
716.369	1535.98
716.556	1611.75
716.744	1460.2
716.931	1585.13
717.119	1581.03
717.306	1587.18
717.493	1525.74
717.681	1615.85
717.868	1515.5
718.055	1531.88
718.242	1564.65
718.43	1578.98
718.617	1560.55
718.804	1548.26
718.991	1576.94
719.179	1474.54
719.366	1476.59
719.553	1511.4
719.74	1576.94
719.927	1501.16
720.114	1591.27
720.301	1480.68
720.488	1472.49
720.676	1548.26
720.863	1488.87
721.05	1472.49
721.237	1554.41
721.424	1521.64
721.611	1517.54
721.798	1464.3
721.985	1540.07
722.172	1398.76
722.358	1400.81
722.545	1509.35
722.732	1486.83
722.919	1351.66
723.106	1372.14
723.293	1425.39
723.48	1521.64
723.667	1404.91
723.853	1546.22
724.04	1511.4
724.227	1458.15
724.414	1421.29
724.6	1370.09
724.787	1415.15
724.974	1417.19
725.161	1523.69
725.347	1333.23
725.534	1368.04
725.72	1415.15
725.907	1361.9
726.094	1425.39
726.28	1474.54
726.467	1378.28
726.653	1351.66
726.84	1445.87
727.027	1431.53
727.213	1341.42
727.4	1349.61
727.586	1390.57
727.773	1513.45
727.959	1382.38
728.145	1329.13
728.332	1452.01
728.518	1288.17
728.705	1413.1
728.891	1419.24
729.077	1392.62
729.264	1402.86
729.45	1400.81
729.636	1454.06
729.823	1458.15
730.009	1441.77
730.195	1357.8
730.382	1411.05
730.568	1331.18
730.754	1529.83
730.94	1310.7
731.126	1443.82
731.313	1437.67
731.499	1386.47
731.685	1376.23
731.871	1345.52
732.057	1286.12
732.243	1378.28
732.429	1404.91
732.615	1300.46
732.801	1357.8
732.987	1343.47
733.173	1310.7
733.359	1366
733.545	1349.61
733.731	1378.28
733.917	1368.04
734.103	1294.32
734.289	1349.61
734.475	1306.6
734.661	1382.38
734.847	1286.12
735.033	1384.43
735.219	1304.56
735.404	1359.85
735.59	1327.08
735.776	1294.32
735.962	1372.14
736.148	1316.84
736.333	1298.41
736.519	1394.67
736.705	1296.36
736.89	1339.37
737.076	1359.85
737.262	1288.17
737.447	1372.14
737.633	1345.52
737.819	1245.16
738.004	1298.41
738.19	1298.41
738.375	1288.17
738.561	1357.8
738.747	1251.31
738.932	1230.83
739.118	1282.03
739.303	1226.73
739.489	1284.08
739.674	1214.45
739.859	1255.4
740.045	1345.52
740.23	1220.59
740.416	1347.56
740.601	1204.21
740.786	1198.06
740.972	1245.16
741.157	1277.93
741.342	1234.93
741.528	1230.83
741.713	1279.98
741.898	1306.6
742.084	1294.32
742.269	1277.93
742.454	1191.92
742.639	1138.67
742.824	1212.4
743.01	1157.1
743.195	1202.16
743.38	1230.83
743.565	1173.49
743.75	1132.53
743.935	1196.01
744.12	1230.83
744.305	1159.15
744.49	1187.82
744.675	1189.87
744.86	1146.86
745.045	1220.59
745.23	1081.33
745.415	1163.25
745.6	1155.05
745.785	1144.81
745.97	1146.86
746.155	1087.47
746.34	1097.71
746.525	1155.05
746.71	1169.39
746.895	1169.39
747.079	1077.23
747.264	1101.81
747.449	1120.24
747.634	1030.13
747.819	1054.7
748.003	1042.42
748.188	1085.42
748.373	1095.66
748.557	1036.27
748.742	1073.14
748.927	993.26
749.111	1048.56
749.296	1028.08
749.481	1073.14
749.665	1048.56
749.85	989.17
750.034	993.26
750.219	1005.55
750.404	872.43
750.588	987.12
750.773	1052.66
750.957	1064.94
751.141	917.49
751.326	886.77
751.51	897.01
751.695	931.83
751.879	995.31
752.064	1021.94
752.248	927.73
752.432	919.54
752.617	890.87
752.801	907.25
752.985	813.04
753.17	913.39
753.354	835.57
753.538	890.87
753.722	825.33
753.907	854
754.091	802.8
754.275	868.34
754.459	821.24
754.643	770.04
754.828	819.19
755.012	825.33
755.196	800.76
755.38	792.56
755.564	800.76
755.748	745.46
755.932	786.42
756.116	757.75
756.3	788.47
756.484	819.19
756.668	786.42
756.852	688.12
757.036	729.08
757.22	700.41
757.404	757.75
757.588	702.45
757.772	745.46
757.956	745.46
758.14	722.93
758.323	747.51
758.507	751.6
758.691	673.78
758.875	790.52
759.059	698.36
759.242	737.27
759.426	675.83
759.61	770.04
759.794	698.36
759.977	589.81
760.161	774.13
760.345	591.86
760.528	702.45
760.712	679.93
760.895	573.43
761.079	727.03
761.263	610.29
761.446	698.36
761.63	614.39
761.813	686.07
761.997	739.32
762.18	708.6
762.364	591.86
762.547	636.92
762.731	684.02
762.914	696.31
763.098	706.55
763.281	598.01
763.464	684.02
763.648	690.17
763.831	620.53
764.015	577.53
764.198	638.97
764.381	653.3
764.564	638.97
764.748	624.63
764.931	612.34
765.114	649.21
765.297	581.62
765.481	587.77
765.664	550.9
765.847	573.43
766.03	587.77
766.213	526.33
766.397	638.97
766.58	516.09
766.763	608.25
766.946	612.34
767.129	526.33
767.312	589.81
767.495	540.66
767.678	538.62
767.861	565.24
768.044	561.14
768.227	585.72
768.41	604.15
768.593	600.05
768.776	503.8
768.959	505.85
769.142	518.14
769.324	491.51
769.507	495.61
769.69	509.94
769.873	550.9
770.056	604.15
770.239	481.27
770.421	475.13
770.604	579.58
770.787	499.7
770.97	538.62
771.152	522.23
771.335	485.37
771.518	464.89
771.7	487.42
771.883	628.73
772.066	432.12
772.248	530.42
772.431	516.09
772.613	493.56
772.796	432.12
772.978	487.42
773.161	440.31
773.343	501.75
773.526	471.03
773.708	419.83
773.891	434.17
774.073	458.74
774.256	497.66
774.438	505.85
774.621	473.08
774.803	440.31
774.985	430.07
775.168	526.33
775.35	409.59
775.532	362.49
775.715	473.08
775.897	393.21
776.079	505.85
776.261	366.59
776.444	380.92
776.626	335.87
776.808	421.88
776.99	411.64
777.173	466.94
777.355	395.26
777.537	356.35
777.719	374.78
777.901	331.77
778.083	419.83
778.265	378.87
778.447	385.02
778.629	382.97
778.811	317.44
778.993	440.31
779.175	376.83
779.357	333.82
779.539	354.3
779.721	362.49
779.903	329.72
780.085	358.39
780.267	401.4
780.449	274.43
780.631	258.04
780.812	358.39
780.994	325.63
781.176	401.4
781.358	245.76
781.54	329.72
781.721	342.01
781.903	311.29
782.085	292.86
782.267	364.54
782.448	317.44
782.63	376.83
782.812	278.52
782.993	315.39
783.175	221.18
783.357	352.25
783.538	288.76
783.72	270.33
783.901	305.15
784.083	272.38
784.264	346.11
784.446	188.41
784.627	256
784.809	278.52
784.99	229.37
785.172	307.2
785.353	313.34
785.535	282.62
785.716	231.42
785.897	256
786.079	331.77
786.26	288.76
786.441	204.8
786.623	212.99
786.804	194.56
786.985	243.71
787.167	290.81
787.348	239.61
787.529	208.89
787.71	198.65
787.891	227.32
788.073	194.56
788.254	186.37
788.435	184.32
788.616	212.99
788.797	231.42
788.978	284.67
789.159	120.83
789.34	245.76
789.522	219.13
789.703	266.24
789.884	196.61
790.065	284.67
790.246	233.47
790.427	231.42
790.607	229.37
790.788	186.37
790.969	186.37
791.15	135.17
791.331	212.99
791.512	215.04
791.693	198.65
791.874	247.8
792.054	229.37
792.235	280.57
792.416	215.04
792.597	184.32
792.778	180.22
792.958	161.79
793.139	147.45
793.32	141.31
793.5	169.98
793.681	231.42
793.862	229.37
794.042	174.08
794.223	180.22
794.404	200.7
794.584	122.88
794.765	169.98
794.945	145.41
795.126	202.75
795.306	141.31
795.487	147.45
795.667	133.12
795.848	155.65
796.028	126.97
796.209	110.59
796.389	262.14
796.57	147.45
796.75	204.8
796.93	198.65
797.111	108.54
797.291	167.93
797.471	225.28
797.652	143.36
797.832	196.61
798.012	184.32
798.192	157.69
798.373	208.89
798.553	141.31
798.733	161.79
798.913	192.51
799.093	169.98
799.274	180.22
799.454	194.56
799.634	161.79
799.814	204.8
799.994	124.93
800.174	153.6
800.354	77.82
800.534	108.54
800.714	165.89
800.894	112.64
801.074	124.93
801.254	79.87
801.434	77.82
801.614	86.01
801.794	131.07
801.974	432.12
802.154	180.22
802.334	163.84
802.514	94.21
802.693	88.06
802.873	161.79
803.053	143.36
803.233	137.21
803.413	182.27
803.592	69.63
803.772	135.17
803.952	67.58
804.131	135.17
804.311	100.35
804.491	106.49
804.67	120.83
804.85	108.54
805.03	108.54
805.209	155.65
805.389	108.54
805.568	57.34
805.748	161.79
805.928	112.64
806.107	108.54
806.287	65.53
806.466	126.97
806.646	75.77
806.825	96.25
807.004	137.21
807.184	149.5
807.363	124.93
807.543	61.44
807.722	65.53
807.901	83.97
808.081	73.73
808.26	75.77
808.439	196.61
808.619	120.83
808.798	114.69
808.977	77.82
809.156	139.26
809.336	40.96
809.515	118.78
809.694	135.17
809.873	36.86
810.052	51.2
810.231	112.64
810.411	129.02
810.59	124.93
810.769	94.21
810.948	96.25
811.127	122.88
811.306	98.3
811.485	114.69
811.664	106.49
811.843	88.06
812.022	104.45
812.201	63.49
812.38	61.44
812.559	92.16
812.737	124.93
812.916	12.29
813.095	73.73
813.274	73.73
813.453	34.82
813.632	51.2
813.811	69.63
813.989	63.49
814.168	86.01
814.347	131.07
814.526	18.43
814.704	126.97
814.883	104.45
815.062	28.67
815.24	45.06
815.419	49.15
815.598	120.83
815.776	118.78
815.955	22.53
816.133	53.25
816.312	61.44
816.49	28.67
816.669	120.83
816.847	161.79
817.026	102.4
817.204	129.02
817.383	143.36
817.561	71.68
817.74	114.69
817.918	73.73
818.097	120.83
818.275	18.43
818.453	88.06
818.632	-34.82
818.81	34.82
818.988	24.58
819.167	120.83
819.345	118.78
819.523	10.24
819.701	53.25
819.879	98.3
820.058	43.01
820.236	79.87
820.414	38.91
820.592	98.3
820.77	63.49
820.948	34.82
821.127	51.2
821.305	77.82
821.483	71.68
821.661	26.62
821.839	43.01
822.017	45.06
822.195	20.48
822.373	12.29
822.551	10.24
822.729	104.45
822.907	63.49
823.085	65.53
823.262	-10.24
823.44	51.2
823.618	18.43
823.796	36.86
823.974	55.3
824.152	53.25
824.329	75.77
824.507	38.91
824.685	0
824.863	45.06
825.04	63.49
825.218	104.45
825.396	51.2
825.574	-10.24
825.751	59.39
825.929	106.49
826.107	38.91
826.284	8.19
826.462	51.2
826.639	69.63
826.817	43.01
826.994	30.72
827.172	-12.29
827.349	118.78
827.527	32.77
827.704	83.97
827.882	108.54
828.059	155.65
828.237	34.82
828.414	67.58
828.591	34.82
828.769	45.06
828.946	38.91
829.124	69.63
829.301	-61.44
829.478	65.53
829.655	2.05
829.833	79.87
830.01	16.38
830.187	22.53
830.364	38.91
830.542	83.97
830.719	77.82
830.896	55.3
831.073	0
831.25	30.72
831.427	49.15
831.604	65.53
831.782	-16.38
831.959	6.14
832.136	-2.05
832.313	-16.38
832.49	53.25
832.667	71.68
832.844	65.53
833.021	43.01
833.198	47.1
833.374	49.15
833.551	-4.1
833.728	106.49
833.905	-6.14
834.082	55.3
834.259	63.49
834.436	96.25
834.612	-16.38
834.789	73.73
834.966	77.82
835.143	-4.1
835.319	-24.58
835.496	-4.1
835.673	32.77
835.85	77.82
836.026	88.06
836.203	-10.24
836.38	24.58
836.556	0
836.733	12.29
836.909	14.34
837.086	30.72
837.262	-32.77
837.439	61.44
837.616	26.62
837.792	55.3
837.968	24.58
838.145	-51.2
838.321	16.38
838.498	-6.14
838.674	92.16
838.851	61.44
839.027	8.19
839.203	-18.43
839.38	-43.01
839.556	-47.1
839.732	8.19
839.909	53.25
840.085	32.77
840.261	24.58
840.437	4.1
840.614	88.06
840.79	36.86
840.966	14.34
841.142	8.19
841.318	61.44
841.494	6.14
841.671	43.01
841.847	45.06
842.023	-6.14
842.199	-32.77
842.375	-18.43
842.551	79.87
842.727	16.38
842.903	-24.58
843.079	98.3
843.255	26.62
843.431	51.2
843.607	28.67
843.783	0
843.959	-16.38
844.134	-12.29
844.31	63.49
844.486	-10.24
844.662	-43.01
844.838	47.1
845.013	61.44
845.189	14.34
845.365	51.2
845.541	2.05
845.716	47.1
845.892	-2.05
846.068	94.21
846.244	-18.43
846.419	-30.72
846.595	18.43
846.77	-40.96
846.946	-12.29
847.122	75.77
847.297	-45.06
847.473	-2.05
847.648	-24.58
847.824	55.3
847.999	-32.77
848.175	6.14
848.35	57.34
848.526	18.43
848.701	-10.24
848.876	38.91
849.052	20.48
849.227	-4.1
849.403	71.68
849.578	-16.38
849.753	30.72
849.929	-51.2
850.104	2.05
850.279	-2.05
850.454	30.72
850.63	45.06
850.805	38.91
850.98	16.38
851.155	22.53
851.33	43.01
851.505	55.3
851.681	96.25
851.856	-40.96
852.031	75.77
852.206	-6.14
852.381	55.3
852.556	-43.01
852.731	45.06
852.906	59.39
853.081	-2.05
853.256	24.58
853.431	14.34
853.606	-57.34
853.781	38.91
853.956	10.24
854.131	18.43
854.305	18.43
854.48	24.58
854.655	-34.82
854.83	4.1
855.005	6.14
855.18	77.82
855.354	32.77
855.529	-18.43
855.704	6.14
855.879	-8.19
856.053	2.05
856.228	-12.29
856.403	104.45
856.577	40.96
856.752	-32.77
856.926	-38.91
857.101	59.39
857.276	16.38
857.45	-4.1
857.625	-10.24
857.799	38.91
857.974	45.06
858.148	49.15
858.323	20.48
858.497	-2.05
858.672	-83.97
858.846	-38.91
859.02	34.82
859.195	26.62
859.369	0
859.543	-88.06
859.718	-2.05
859.892	-18.43
860.066	28.67
860.241	-40.96
860.415	16.38
860.589	-63.49
860.763	71.68
860.938	-40.96
861.112	38.91
861.286	24.58
861.46	-34.82
861.634	40.96
861.808	8.19
861.982	43.01
862.157	-47.1
862.331	32.77
862.505	32.77
862.679	10.24
862.853	45.06
863.027	-10.24
863.201	-16.38
863.375	8.19
863.549	-2.05
863.722	16.38
863.896	34.82
864.07	-26.62
864.244	-6.14
864.418	-55.3
864.592	-6.14
864.766	-14.34
864.939	-10.24
865.113	-28.67
865.287	30.72
865.461	-63.49
865.634	0
865.808	18.43
865.982	-38.91
866.156	16.38
866.329	28.67
866.503	-18.43
866.676	-32.77
866.85	10.24
867.024	28.67
867.197	-75.77
867.371	32.77
867.544	-53.25
867.718	-24.58
867.891	-18.43
868.065	22.53
868.238	-10.24
868.412	-10.24
868.585	8.19
868.759	53.25
868.932	6.14
869.105	-8.19
869.279	6.14
869.452	-47.1
869.625	-32.77
869.799	49.15
869.972	-45.06
870.145	-38.91
870.319	-14.34
870.492	-40.96
870.665	73.73
870.838	14.34
871.011	-14.34
871.185	-24.58
871.358	47.1
871.531	-51.2
871.704	-16.38
871.877	-57.34
872.05	24.58
872.223	-69.63
872.396	-2.05
872.569	-12.29
872.742	-22.53
872.915	-18.43
873.088	-65.54
873.261	28.67
873.434	49.15
873.607	-8.19
873.78	6.14
873.953	-26.62
874.126	30.72
874.299	-38.91
874.471	71.68
874.644	-20.48
874.817	32.77
874.99	-18.43
875.163	-18.43
875.335	8.19
875.508	2.05
875.681	-8.19
875.853	-30.72
876.026	-92.16
876.199	-63.49
876.371	-38.91
876.544	-100.35
876.717	-47.1
876.889	-4.1
877.062	49.15
877.234	22.53
877.407	0
877.579	43.01
877.752	61.44
877.924	4.1
878.097	63.49
878.269	-20.48
878.442	4.1
878.614	-34.82
878.786	22.53
878.959	8.19
879.131	0
879.303	-22.53
879.476	12.29
879.648	-14.34
879.82	-10.24
879.993	-2.05
880.165	18.43
880.337	-10.24
880.509	63.49
880.681	-32.77
880.854	-61.44
881.026	-67.58
881.198	49.15
881.37	14.34
881.542	63.49
881.714	16.38
881.886	30.72
882.058	-43.01
882.23	47.1
882.402	-14.34
882.574	22.53
882.746	0
882.918	38.91
883.09	-2.05
883.262	0
883.434	75.77
883.606	-61.44
883.778	-16.38
883.95	12.29
884.122	-22.53
884.293	38.91
884.465	-26.62
884.637	24.58
884.809	-38.91
884.98	-26.62
885.152	-20.48
885.324	12.29
885.496	16.38
885.667	-49.15
885.839	-75.77
886.011	14.34
886.182	24.58
886.354	22.53
886.525	-2.05
886.697	47.1
886.869	16.38
887.04	34.82
887.212	2.05
887.383	2.05
887.555	34.82
887.726	-2.05
887.897	98.3
888.069	14.34
888.24	-24.58
888.412	10.24
888.583	-14.34
888.754	2.05
888.926	-30.72
889.097	6.14
889.268	8.19
889.44	51.2
889.611	-40.96
889.782	38.91
889.953	-40.96
890.125	38.91
890.296	-86.01
890.467	47.1
890.638	-22.53
890.809	-12.29
890.98	12.29
891.151	30.72
891.323	-2.05
891.494	30.72
891.665	-28.67
891.836	-12.29
892.007	-8.19
892.178	28.67
892.349	2.05
892.52	73.73
892.691	-6.14
892.862	16.38
893.032	51.2
893.203	-16.38
893.374	-16.38
893.545	-6.14
893.716	-34.82
893.887	43.01
894.057	-49.15
894.228	71.68
894.399	49.15
894.57	-6.14
894.74	-38.91
894.911	32.77
895.082	22.53
895.253	-24.58
895.423	-10.24
895.594	-28.67
895.764	-30.72
895.935	-26.62
896.106	12.29
896.276	-2.05
896.447	0
896.617	8.19
896.788	-67.58
896.958	-49.15
897.129	-2.05
897.299	12.29
897.47	-10.24
897.64	67.58
897.81	20.48
897.981	38.91
898.151	-51.2
898.322	-61.44
898.492	10.24
898.662	-67.58
898.832	-71.68
899.003	-12.29
899.173	-24.58
899.343	-26.62
899.513	14.34
