Data from USB4F104151__5__12-58-23-991.txt Node

Date: Fri Mar 14 12:58:23 EDT 2025
User: louis
Spectrometer: USB4F10415
Trigger mode: 4
Integration Time (sec): 1.000000E-2
Scans to average: 1
Electric dark correction enabled: true
Nonlinearity correction enabled: false
Boxcar width: 0
XAxis mode: Wavelengths
Number of Pixels in Spectrum: 3648
>>>>>Begin Spectral Data<<<<<
178.204	-65.19
178.424	-65.19
178.644	-65.19
178.864	-11.95
179.084	-110.25
179.304	24.92
179.524	-50.86
179.744	-77.48
179.964	18.77
180.184	-36.52
180.404	72.02
180.624	-85.67
180.844	20.82
181.064	59.73
181.283	43.35
181.503	45.4
181.723	-34.47
181.943	-24.23
182.163	41.3
182.383	-26.28
182.602	55.64
182.822	-46.76
183.042	8.53
183.262	-16.04
183.482	-1.71
183.701	8.53
183.921	-46.76
184.141	0.34
184.361	-38.57
184.58	20.82
184.8	-24.23
185.02	-16.04
185.239	-16.04
185.459	-13.99
185.679	-3.75
185.898	-22.19
186.118	65.88
186.338	14.68
186.557	-65.19
186.777	-44.71
186.997	24.92
187.216	0.34
187.436	20.82
187.655	-73.39
187.875	72.02
188.095	-46.76
188.314	18.77
188.534	-9.9
188.753	-24.23
188.973	-24.23
189.192	0.34
189.412	6.49
189.631	10.58
189.851	-30.38
190.07	-1.71
190.29	-7.85
190.509	-30.38
190.729	-18.09
190.948	-9.9
191.168	47.44
191.387	16.73
191.607	16.73
191.826	35.16
192.045	6.49
192.265	65.88
192.484	6.49
192.704	22.87
192.923	-13.99
193.142	10.58
193.362	-20.14
193.581	43.35
193.8	26.96
194.02	31.06
194.239	-79.53
194.458	-30.38
194.678	-48.81
194.897	-9.9
195.116	69.97
195.335	65.88
195.555	-3.75
195.774	96.6
195.993	41.3
196.212	96.6
196.432	14.68
196.651	-18.09
196.87	-36.52
197.089	53.59
197.308	14.68
197.528	-18.09
197.747	-18.09
197.966	-59.05
198.185	-3.75
198.404	14.68
198.623	22.87
198.842	8.53
199.062	-42.67
199.281	22.87
199.5	-13.99
199.719	-13.99
199.938	-32.43
200.157	43.35
200.376	10.58
200.595	55.64
200.814	-42.67
201.033	6.49
201.252	14.68
201.471	-32.43
201.69	4.44
201.909	-3.75
202.128	-52.91
202.347	63.83
202.566	-9.9
202.785	-32.43
203.004	43.35
203.223	76.12
203.442	-36.52
203.661	-16.04
203.879	-1.71
204.098	35.16
204.317	24.92
204.536	35.16
204.755	33.11
204.974	12.63
205.193	-3.75
205.411	63.83
205.63	-79.53
205.849	12.63
206.068	-79.53
206.287	6.49
206.505	-13.99
206.724	51.54
206.943	12.63
207.162	94.55
207.381	41.3
207.599	-20.14
207.818	4.44
208.037	-59.05
208.255	2.39
208.474	-36.52
208.693	51.54
208.911	22.87
209.13	-63.15
209.349	41.3
209.567	-122.54
209.786	35.16
210.005	16.73
210.223	51.54
210.442	55.64
210.661	-34.47
210.879	45.4
211.098	-61.1
211.316	-32.43
211.535	-46.76
211.753	6.49
211.972	43.35
212.191	31.06
212.409	-18.09
212.628	10.58
212.846	8.53
213.065	12.63
213.283	57.68
213.502	-32.43
213.72	-18.09
213.938	-30.38
214.157	63.83
214.375	43.35
214.594	-26.28
214.812	6.49
215.031	-13.99
215.249	-18.09
215.467	-16.04
215.686	-13.99
215.904	72.02
216.122	-32.43
216.341	-30.38
216.559	41.3
216.778	-24.23
216.996	43.35
217.214	16.73
217.432	-5.8
217.651	39.25
217.869	-89.77
218.087	-13.99
218.306	-30.38
218.524	-26.28
218.742	2.39
218.96	-1.71
219.179	-13.99
219.397	33.11
219.615	55.64
219.833	-7.85
220.051	-24.23
220.27	-46.76
220.488	29.01
220.706	0.34
220.924	84.31
221.142	39.25
221.36	37.2
221.578	29.01
221.796	24.92
222.015	37.2
222.233	-54.95
222.451	-16.04
222.669	-20.14
222.887	43.35
223.105	24.92
223.323	-11.95
223.541	12.63
223.759	33.11
223.977	8.53
224.195	-36.52
224.413	12.63
224.631	20.82
224.849	6.49
225.067	-5.8
225.285	45.4
225.503	20.82
225.721	8.53
225.939	39.25
226.157	-32.43
226.375	18.77
226.592	-81.58
226.81	55.64
227.028	16.73
227.246	72.02
227.464	4.44
227.682	8.53
227.9	-13.99
228.117	-18.09
228.335	14.68
228.553	-7.85
228.771	33.11
228.989	12.63
229.206	-26.28
229.424	0.34
229.642	-24.23
229.86	20.82
230.077	-44.71
230.295	8.53
230.513	22.87
230.731	22.87
230.948	-42.67
231.166	22.87
231.384	-7.85
231.601	26.96
231.819	92.5
232.037	-13.99
232.254	-1.71
232.472	20.82
232.689	8.53
232.907	88.4
233.125	-28.33
233.342	119.12
233.56	-44.71
233.777	55.64
233.995	8.53
234.213	6.49
234.43	-5.8
234.648	-34.47
234.865	-69.29
235.083	-26.28
235.3	-40.62
235.518	4.44
235.735	-7.85
235.953	6.49
236.17	-1.71
236.388	55.64
236.605	41.3
236.822	-57
237.04	-22.19
237.257	35.16
237.475	-5.8
237.692	-3.75
237.909	14.68
238.127	20.82
238.344	72.02
238.562	10.58
238.779	-5.8
238.996	35.16
239.214	14.68
239.431	31.06
239.648	41.3
239.865	29.01
240.083	55.64
240.3	35.16
240.517	-52.91
240.735	39.25
240.952	-24.23
241.169	-36.52
241.386	16.73
241.603	8.53
241.821	-11.95
242.038	-26.28
242.255	4.44
242.472	35.16
242.689	-52.91
242.907	35.16
243.124	-16.04
243.341	-38.57
243.558	-63.15
243.775	35.16
243.992	-13.99
244.209	-1.71
244.426	108.88
244.643	0.34
244.86	-34.47
245.078	4.44
245.295	33.11
245.512	26.96
245.729	-1.71
245.946	16.73
246.163	76.12
246.38	12.63
246.597	6.49
246.814	55.64
247.031	-5.8
247.248	72.02
247.464	63.83
247.681	45.4
247.898	41.3
248.115	-22.19
248.332	57.68
248.549	55.64
248.766	-44.71
248.983	-20.14
249.2	31.06
249.417	26.96
249.633	49.49
249.85	18.77
250.067	37.2
250.284	22.87
250.501	20.82
250.717	129.36
250.934	-3.75
251.151	14.68
251.368	33.11
251.585	43.35
251.801	37.2
252.018	51.54
252.235	31.06
252.451	55.64
252.668	4.44
252.885	-7.85
253.102	16.73
253.318	14.68
253.535	0.34
253.752	14.68
253.968	-42.67
254.185	-34.47
254.401	67.92
254.618	43.35
254.835	33.11
255.051	-1.71
255.268	29.01
255.484	-1.71
255.701	-11.95
255.917	26.96
256.134	-36.52
256.351	-26.28
256.567	41.3
256.784	-9.9
257	26.96
257.217	41.3
257.433	65.88
257.65	2.39
257.866	45.4
258.082	-9.9
258.299	-28.33
258.515	24.92
258.732	0.34
258.948	-59.05
259.165	10.58
259.381	-22.19
259.597	-20.14
259.814	57.68
260.03	-5.8
260.246	6.49
260.463	31.06
260.679	-38.57
260.895	72.02
261.112	41.3
261.328	-50.86
261.544	0.34
261.761	26.96
261.977	6.49
262.193	37.2
262.409	-13.99
262.626	6.49
262.842	22.87
263.058	-13.99
263.274	-13.99
263.49	-18.09
263.707	0.34
263.923	96.6
264.139	47.44
264.355	4.44
264.571	-28.33
264.787	31.06
265.004	0.34
265.22	110.93
265.436	22.87
265.652	2.39
265.868	-16.04
266.084	16.73
266.3	-9.9
266.516	-13.99
266.732	49.49
266.948	24.92
267.164	33.11
267.38	14.68
267.596	37.2
267.812	57.68
268.028	47.44
268.244	22.87
268.46	-32.43
268.676	10.58
268.892	115.03
269.108	-1.71
269.324	-52.91
269.54	18.77
269.756	-20.14
269.972	-1.71
270.188	63.83
270.403	4.44
270.619	55.64
270.835	-9.9
271.051	-7.85
271.267	-42.67
271.483	43.35
271.698	51.54
271.914	16.73
272.13	14.68
272.346	104.79
272.562	-32.43
272.777	51.54
272.993	-1.71
273.209	14.68
273.425	12.63
273.64	-46.76
273.856	16.73
274.072	26.96
274.287	18.77
274.503	-28.33
274.719	41.3
274.934	-1.71
275.15	33.11
275.366	41.3
275.581	-5.8
275.797	33.11
276.012	45.4
276.228	26.96
276.444	12.63
276.659	33.11
276.875	26.96
277.09	8.53
277.306	-16.04
277.521	55.64
277.737	-11.95
277.952	39.25
278.168	-71.34
278.383	35.16
278.599	-36.52
278.814	10.58
279.03	20.82
279.245	59.73
279.461	-16.04
279.676	61.78
279.892	102.74
280.107	-34.47
280.322	18.77
280.538	20.82
280.753	-18.09
280.969	22.87
281.184	-13.99
281.399	51.54
281.615	31.06
281.83	33.11
282.045	-46.76
282.26	-16.04
282.476	12.63
282.691	-57
282.906	8.53
283.122	33.11
283.337	-20.14
283.552	-20.14
283.767	-18.09
283.983	14.68
284.198	26.96
284.413	31.06
284.628	-46.76
284.843	39.25
285.058	31.06
285.274	0.34
285.489	-1.71
285.704	8.53
285.919	74.07
286.134	-1.71
286.349	-46.76
286.564	-24.23
286.779	39.25
286.995	51.54
287.21	14.68
287.425	57.68
287.64	41.3
287.855	-11.95
288.07	-1.71
288.285	55.64
288.5	-16.04
288.715	-5.8
288.93	-26.28
289.145	26.96
289.36	-9.9
289.575	-18.09
289.79	22.87
290.004	55.64
290.219	31.06
290.434	6.49
290.649	-16.04
290.864	-38.57
291.079	-46.76
291.294	-30.38
291.509	22.87
291.724	47.44
291.938	8.53
292.153	0.34
292.368	-5.8
292.583	-16.04
292.798	-32.43
293.012	-3.75
293.227	51.54
293.442	-22.19
293.657	-7.85
293.871	53.59
294.086	8.53
294.301	47.44
294.516	100.69
294.73	31.06
294.945	37.2
295.16	12.63
295.374	31.06
295.589	45.4
295.804	-24.23
296.018	-5.8
296.233	0.34
296.447	26.96
296.662	80.21
296.877	12.63
297.091	20.82
297.306	69.97
297.52	-50.86
297.735	51.54
297.949	-9.9
298.164	8.53
298.378	4.44
298.593	33.11
298.807	51.54
299.022	-34.47
299.236	20.82
299.451	-9.9
299.665	-46.76
299.88	41.3
300.094	22.87
300.309	57.68
300.523	0.34
300.737	33.11
300.952	6.49
301.166	-50.86
301.381	49.49
301.595	37.2
301.809	24.92
302.024	41.3
302.238	-22.19
302.452	65.88
302.667	51.54
302.881	65.88
303.095	37.2
303.309	16.73
303.524	0.34
303.738	24.92
303.952	-40.62
304.166	45.4
304.381	59.73
304.595	39.25
304.809	33.11
305.023	-67.24
305.237	-1.71
305.452	94.55
305.666	10.58
305.88	67.92
306.094	24.92
306.308	41.3
306.522	-22.19
306.736	-3.75
306.95	47.44
307.164	47.44
307.379	65.88
307.593	-38.57
307.807	-24.23
308.021	22.87
308.235	65.88
308.449	29.01
308.663	53.59
308.877	-18.09
309.091	72.02
309.305	10.58
309.519	-18.09
309.733	22.87
309.947	0.34
310.161	41.3
310.374	14.68
310.588	43.35
310.802	24.92
311.016	-36.52
311.23	-42.67
311.444	-9.9
311.658	-1.71
311.872	10.58
312.085	53.59
312.299	69.97
312.513	63.83
312.727	61.78
312.941	18.77
313.154	16.73
313.368	39.25
313.582	65.88
313.796	108.88
314.009	18.77
314.223	51.54
314.437	-5.8
314.651	-20.14
314.864	-7.85
315.078	29.01
315.292	49.49
315.505	65.88
315.719	43.35
315.933	-9.9
316.146	-22.19
316.36	-83.63
316.573	-30.38
316.787	-3.75
317.001	16.73
317.214	96.6
317.428	-3.75
317.641	18.77
317.855	10.58
318.068	82.26
318.282	22.87
318.495	-9.9
318.709	31.06
318.922	10.58
319.136	16.73
319.349	-5.8
319.563	78.16
319.776	33.11
319.99	82.26
320.203	14.68
320.417	43.35
320.63	-5.8
320.843	92.5
321.057	0.34
321.27	26.96
321.483	29.01
321.697	26.96
321.91	-24.23
322.124	-24.23
322.337	24.92
322.55	35.16
322.763	-24.23
322.977	49.49
323.19	47.44
323.403	88.4
323.617	63.83
323.83	74.07
324.043	14.68
324.256	16.73
324.469	16.73
324.683	31.06
324.896	72.02
325.109	33.11
325.322	-26.28
325.535	45.4
325.748	10.58
325.962	61.78
326.175	43.35
326.388	-3.75
326.601	63.83
326.814	41.3
327.027	-1.71
327.24	33.11
327.453	0.34
327.666	14.68
327.879	59.73
328.092	-18.09
328.305	37.2
328.518	45.4
328.731	10.58
328.944	8.53
329.157	12.63
329.37	67.92
329.583	47.44
329.796	-7.85
330.009	-3.75
330.222	49.49
330.435	92.5
330.648	12.63
330.861	-52.91
331.073	57.68
331.286	-59.05
331.499	-1.71
331.712	-34.47
331.925	51.54
332.138	4.44
332.35	51.54
332.563	6.49
332.776	22.87
332.989	-22.19
333.202	24.92
333.414	14.68
333.627	-5.8
333.84	80.21
334.053	63.83
334.265	-48.81
334.478	18.77
334.691	26.96
334.903	31.06
335.116	43.35
335.329	8.53
335.541	-67.24
335.754	47.44
335.966	43.35
336.179	8.53
336.392	-46.76
336.604	16.73
336.817	47.44
337.029	22.87
337.242	90.45
337.454	-42.67
337.667	-48.81
337.88	55.64
338.092	16.73
338.305	31.06
338.517	6.49
338.729	43.35
338.942	-26.28
339.154	51.54
339.367	31.06
339.579	43.35
339.792	4.44
340.004	45.4
340.217	0.34
340.429	14.68
340.641	33.11
340.854	26.96
341.066	69.97
341.278	82.26
341.491	8.53
341.703	74.07
341.915	-5.8
342.128	8.53
342.34	0.34
342.552	80.21
342.764	33.11
342.977	45.4
343.189	41.3
343.401	22.87
343.613	-32.43
343.826	61.78
344.038	29.01
344.25	22.87
344.462	-46.76
344.674	59.73
344.886	-48.81
345.099	-7.85
345.311	31.06
345.523	39.25
345.735	-24.23
345.947	4.44
346.159	53.59
346.371	20.82
346.583	24.92
346.795	59.73
347.007	-63.15
347.219	16.73
347.431	31.06
347.643	-59.05
347.855	37.2
348.067	6.49
348.279	-71.34
348.491	-30.38
348.703	4.44
348.915	6.49
349.127	-24.23
349.339	-26.28
349.551	29.01
349.763	47.44
349.975	16.73
350.187	74.07
350.399	106.84
350.61	59.73
350.822	6.49
351.034	31.06
351.246	14.68
351.458	55.64
351.669	-44.71
351.881	61.78
352.093	-22.19
352.305	55.64
352.517	-20.14
352.728	67.92
352.94	-30.38
353.152	18.77
353.363	37.2
353.575	24.92
353.787	67.92
353.999	63.83
354.21	37.2
354.422	-22.19
354.633	-63.15
354.845	92.5
355.057	-5.8
355.268	102.74
355.48	33.11
355.692	2.39
355.903	-26.28
356.115	104.79
356.326	-3.75
356.538	26.96
356.749	-40.62
356.961	31.06
357.172	-3.75
357.384	96.6
357.595	90.45
357.807	33.11
358.018	-32.43
358.23	14.68
358.441	41.3
358.653	31.06
358.864	18.77
359.075	-11.95
359.287	57.68
359.498	-9.9
359.709	20.82
359.921	47.44
360.132	47.44
360.344	37.2
360.555	8.53
360.766	-34.47
360.977	10.58
361.189	6.49
361.4	-11.95
361.611	33.11
361.823	20.82
362.034	74.07
362.245	29.01
362.456	14.68
362.667	20.82
362.879	-26.28
363.09	8.53
363.301	24.92
363.512	43.35
363.723	65.88
363.935	57.68
364.146	67.92
364.357	24.92
364.568	35.16
364.779	12.63
364.99	10.58
365.201	2.39
365.412	47.44
365.623	14.68
365.834	20.82
366.045	-30.38
366.256	72.02
366.467	-1.71
366.678	18.77
366.889	-20.14
367.1	16.73
367.311	-36.52
367.522	57.68
367.733	35.16
367.944	18.77
368.155	78.16
368.366	26.96
368.577	14.68
368.788	74.07
368.999	-7.85
369.209	16.73
369.42	55.64
369.631	26.96
369.842	-5.8
370.053	72.02
370.264	-13.99
370.474	84.31
370.685	0.34
370.896	-73.39
371.107	29.01
371.317	94.55
371.528	55.64
371.739	65.88
371.95	35.16
372.16	69.97
372.371	-9.9
372.582	84.31
372.792	26.96
373.003	-1.71
373.214	24.92
373.424	67.92
373.635	-32.43
373.846	41.3
374.056	72.02
374.267	-102.06
374.477	-5.8
374.688	24.92
374.898	-48.81
375.109	-9.9
375.319	61.78
375.53	49.49
375.74	26.96
375.951	10.58
376.161	4.44
376.372	65.88
376.582	-18.09
376.793	-22.19
377.003	-22.19
377.214	31.06
377.424	26.96
377.635	29.01
377.845	43.35
378.055	55.64
378.266	33.11
378.476	63.83
378.686	12.63
378.897	49.49
379.107	59.73
379.317	-42.67
379.528	33.11
379.738	39.25
379.948	33.11
380.158	-1.71
380.369	55.64
380.579	16.73
380.789	16.73
380.999	59.73
381.21	-32.43
381.42	-18.09
381.63	29.01
381.84	94.55
382.05	33.11
382.261	131.41
382.471	-1.71
382.681	6.49
382.891	2.39
383.101	14.68
383.311	-20.14
383.521	16.73
383.731	16.73
383.941	74.07
384.151	24.92
384.361	84.31
384.571	98.64
384.781	67.92
384.991	-7.85
385.201	65.88
385.411	31.06
385.621	35.16
385.831	-24.23
386.041	-16.04
386.251	12.63
386.461	41.3
386.671	-7.85
386.881	31.06
387.091	6.49
387.301	149.84
387.511	10.58
387.72	18.77
387.93	-22.19
388.14	12.63
388.35	6.49
388.56	61.78
388.769	41.3
388.979	6.49
389.189	6.49
389.399	67.92
389.609	59.73
389.818	47.44
390.028	2.39
390.238	26.96
390.447	-34.47
390.657	61.78
390.867	72.02
391.076	98.64
391.286	-3.75
391.496	59.73
391.705	18.77
391.915	86.36
392.125	8.53
392.334	51.54
392.544	55.64
392.753	49.49
392.963	-38.57
393.172	33.11
393.382	2.39
393.591	24.92
393.801	-24.23
394.01	24.92
394.22	16.73
394.429	16.73
394.639	4.44
394.848	51.54
395.058	10.58
395.267	10.58
395.477	86.36
395.686	4.44
395.895	168.27
396.105	69.97
396.314	80.21
396.524	47.44
396.733	35.16
396.942	80.21
397.152	65.88
397.361	33.11
397.57	-34.47
397.78	20.82
397.989	72.02
398.198	145.75
398.407	98.64
398.617	102.74
398.826	88.4
399.035	29.01
399.244	51.54
399.453	112.98
399.663	31.06
399.872	45.4
400.081	84.31
400.29	72.02
400.499	100.69
400.708	35.16
400.917	76.12
401.127	96.6
401.336	8.53
401.545	69.97
401.754	51.54
401.963	158.03
402.172	98.64
402.381	92.5
402.59	65.88
402.799	96.6
403.008	104.79
403.217	61.78
403.426	72.02
403.635	108.88
403.844	112.98
404.053	110.93
404.262	43.35
404.471	133.46
404.68	43.35
404.888	129.36
405.097	96.6
405.306	129.36
405.515	67.92
405.724	137.56
405.933	86.36
406.142	149.84
406.35	151.89
406.559	203.09
406.768	129.36
406.977	112.98
407.185	168.27
407.394	219.47
407.603	117.08
407.812	90.45
408.02	198.99
408.229	141.65
408.438	117.08
408.646	192.85
408.855	172.37
409.064	207.19
409.272	213.33
409.481	166.23
409.69	225.62
409.898	194.9
410.107	162.13
410.315	219.47
410.524	166.23
410.733	309.58
410.941	254.29
411.15	235.86
411.358	223.57
411.567	282.96
411.775	346.45
411.984	268.63
412.192	282.96
412.401	336.21
412.609	342.35
412.818	344.4
413.026	319.82
413.234	330.06
413.443	432.46
413.651	414.03
413.86	379.22
414.068	432.46
414.276	418.13
414.485	555.34
414.693	498
414.901	481.61
415.11	541.01
415.318	524.62
415.526	571.72
415.734	573.77
415.943	596.3
416.151	588.11
416.359	561.48
416.567	588.11
416.776	645.45
416.984	733.51
417.192	768.33
417.4	768.33
417.608	710.99
417.817	790.86
418.025	797
418.233	772.43
418.441	840.01
418.649	868.68
418.857	915.78
419.065	1014.09
419.273	960.84
419.481	1057.09
419.689	1124.68
419.897	1063.24
420.105	1136.96
420.313	1147.2
420.521	1098.05
420.729	1210.69
420.937	1294.66
421.145	1354.05
421.353	1317.19
421.561	1472.83
421.769	1468.73
421.977	1591.61
422.185	1495.36
422.393	1618.24
422.601	1749.31
422.809	1823.03
423.017	1712.44
423.224	1755.45
423.432	1913.14
423.64	1915.19
423.848	2081.08
424.056	1993.01
424.263	2195.76
424.471	2189.62
424.679	2222.39
424.887	2337.07
425.094	2392.37
425.302	2431.28
425.51	2515.25
425.718	2539.82
425.925	2660.65
426.133	2636.08
426.341	2869.55
426.548	2994.47
426.756	3070.25
426.964	3137.83
427.171	3076.39
427.379	3123.49
427.586	3232.04
427.794	3307.81
428.001	3533.09
428.209	3758.36
428.417	3563.81
428.624	4040.98
428.832	3864.86
429.039	3936.54
429.247	3877.15
429.454	4286.74
429.662	4614.41
429.869	4364.56
430.076	4653.33
430.284	4497.68
430.491	4634.89
430.699	4946.19
430.906	4813.07
431.114	4962.57
431.321	5138.69
431.528	5120.26
431.736	5464.32
431.943	5708.03
432.15	5650.69
432.358	5798.14
432.565	6109.43
432.772	6199.54
432.979	6224.12
433.187	6453.49
433.394	6467.83
433.601	7092.46
433.808	6936.81
434.016	6910.19
434.223	7278.82
434.43	7733.47
434.637	7487.72
434.844	7934.17
435.052	8110.3
435.259	7993.56
435.466	8376.53
435.673	8108.25
435.88	8534.23
436.087	8839.37
436.294	9035.98
436.501	8833.23
436.708	8968.4
436.915	9410.76
437.122	9832.64
437.329	9740.48
437.537	10012.86
437.743	10346.68
437.95	10176.7
438.157	10666.16
438.364	11096.24
438.571	11020.46
438.778	11104.43
438.985	12118.17
439.192	11810.98
439.399	12171.42
439.606	11757.73
439.813	12511.38
440.02	12994.7
440.227	12826.77
440.433	12691.6
440.64	13385.87
440.847	13213.84
441.054	13539.46
441.261	14254.2
441.467	14055.55
441.674	14499.96
441.881	15251.56
442.088	14946.42
442.294	14993.52
442.501	15317.1
442.708	15499.37
442.914	16023.65
443.121	17082.45
443.328	16222.3
443.534	17563.72
443.741	17117.26
443.948	16861.27
444.154	17963.08
444.361	18094.15
444.568	18225.22
444.774	18253.89
444.981	18456.64
445.187	19134.51
445.394	19597.35
445.6	19458.09
445.807	21413.9
446.013	20627.48
446.22	20641.82
446.426	21426.19
446.633	21803.02
446.839	22915.06
447.046	21424.14
447.252	22818.81
447.459	22906.87
447.665	23060.47
447.871	24131.56
448.078	25147.35
448.284	23697.39
448.491	24332.26
448.697	25374.67
448.903	25724.88
449.11	26273.73
449.316	25290.71
449.522	25913.29
449.728	26902.46
449.935	27039.67
450.141	26990.52
450.347	27500.47
450.553	26843.07
450.76	27021.24
450.966	27975.59
451.172	27977.64
451.378	28268.45
451.584	28030.89
451.791	28276.65
451.997	28317.61
452.203	28936.09
452.409	28884.89
452.615	28565.41
452.821	27723.69
453.027	27697.07
453.233	29061.02
453.44	27778.99
453.646	28448.68
453.852	28286.89
454.058	28891.04
454.264	27770.8
454.47	28329.89
454.676	27801.52
454.882	28686.24
455.088	26386.37
455.294	26570.69
455.5	26994.62
455.705	27504.56
455.911	26298.31
456.117	25907.15
456.323	25421.78
456.529	23898.09
456.735	25384.91
456.941	24567.77
457.147	24297.44
457.352	23625.71
457.558	23429.1
457.764	23009.27
457.97	22999.03
458.176	22177.79
458.381	22425.6
458.587	21209.11
458.793	21075.99
458.999	20174.88
459.204	21370.9
459.41	20930.58
459.616	19466.28
459.821	19591.21
460.027	19466.28
460.233	19185.71
460.438	18053.19
460.644	18118.72
460.85	17719.37
461.055	17256.53
461.261	16797.78
461.466	15980.64
461.672	15282.28
461.878	16380
462.083	15384.68
462.289	14981.23
462.494	14993.52
462.7	14256.25
462.905	13627.53
463.111	14229.63
463.316	14540.92
463.522	14164.09
463.727	14237.82
463.932	13936.77
464.138	14020.74
464.343	14108.8
464.549	13539.46
464.754	14114.94
464.959	14030.98
465.165	13932.67
465.37	13408.39
465.575	12781.71
465.781	13541.51
465.986	13645.96
466.191	12961.94
466.397	12898.45
466.602	12161.18
466.807	12693.65
467.012	12834.96
467.218	12796.05
467.423	12507.29
467.628	12564.63
467.833	13099.15
468.038	12685.46
468.244	12230.81
468.449	12787.86
468.654	12329.11
468.859	12015.77
469.064	12122.27
469.269	11579.56
469.474	11737.25
469.679	11997.34
469.885	11425.96
470.09	11612.32
470.295	11706.53
470.5	11397.29
470.705	11528.36
470.91	11303.08
471.115	11004.08
471.32	11131.05
471.525	11294.89
471.73	10862.77
471.935	10596.53
472.139	10498.23
472.344	10543.28
472.549	10672.31
472.754	10477.75
472.959	10279.1
473.164	9965.76
473.369	9877.69
473.574	10283.19
473.778	10209.47
473.983	10295.48
474.188	10117.31
474.393	9650.37
474.598	9740.48
474.802	9435.33
475.007	9558.21
475.212	9590.98
475.417	9251.02
475.621	9201.86
475.826	9119.95
476.031	8954.06
476.235	8820.94
476.44	9156.81
476.645	8868.05
476.849	8849.61
477.054	8894.67
477.259	8478.93
477.463	8407.25
477.668	8239.32
477.872	8448.21
478.077	8116.44
478.282	8159.45
478.486	8018.14
478.691	7960.8
478.895	7936.22
479.1	7903.45
479.304	7891.16
479.509	7620.83
479.713	7667.94
479.918	7749.86
480.122	7487.72
480.326	7667.94
480.531	7672.03
480.735	7649.5
480.94	7516.39
481.144	7782.62
481.348	7301.35
481.553	7516.39
481.757	7280.87
481.961	7446.76
482.166	7483.62
482.37	7493.86
482.574	7225.58
482.778	7438.56
482.983	7606.5
483.187	7409.89
483.391	7315.69
483.595	7262.44
483.8	7235.81
484.004	7188.71
484.208	7489.76
484.412	7424.23
484.616	7434.47
484.821	7358.69
485.025	7127.27
485.229	7389.41
485.433	7246.05
485.637	7192.81
485.841	7254.25
486.045	7403.75
486.249	7248.1
486.453	7219.43
486.657	7416.04
486.861	7375.08
487.065	7125.22
487.269	7338.21
487.473	7196.9
487.677	7370.98
487.881	7459.04
488.085	7241.96
488.289	7422.18
488.493	7217.38
488.697	7551.2
488.901	7454.95
489.105	7284.97
489.309	7403.75
489.512	7422.18
489.716	7545.06
489.92	7332.07
490.124	7260.39
490.328	7532.77
490.531	7606.5
490.735	7756
490.939	7561.44
491.143	7471.33
491.346	7413.99
491.55	7792.86
491.754	7706.85
491.958	7657.7
492.161	7672.03
492.365	7756
492.569	7848.16
492.772	7487.72
492.976	7848.16
493.18	7659.74
493.383	7930.08
493.587	7913.69
493.79	8100.06
493.994	7899.36
494.197	8112.35
494.401	8212.7
494.605	8200.41
494.808	8210.65
495.012	8489.17
495.215	8411.35
495.419	8343.77
495.622	8446.16
495.825	8358.1
496.029	8448.21
496.232	8519.89
496.436	8763.6
496.639	9029.84
496.843	8804.56
497.046	8896.72
497.249	9009.36
497.453	9173.19
497.656	9285.83
497.859	9199.82
498.063	9263.3
498.266	9658.56
498.469	9642.18
498.673	9779.39
498.876	9932.99
499.079	9908.41
499.282	9918.65
499.485	10199.23
499.689	10168.51
499.892	10354.87
500.095	10422.45
500.298	10733.75
500.501	10479.8
500.705	10770.61
500.908	10903.73
501.111	11161.77
501.314	11264.17
501.517	11337.9
501.72	11376.81
501.923	11399.34
502.126	11763.87
502.329	11937.95
502.532	12050.59
502.735	12198.04
502.938	12249.24
503.141	12556.44
503.344	12613.78
503.547	12359.83
503.75	12861.59
503.953	13133.96
504.156	13236.36
504.359	13299.85
504.562	13080.72
504.765	13588.61
504.968	13594.76
505.17	13746.31
505.373	13770.88
505.576	14282.88
505.779	14313.59
505.982	14430.33
506.185	14706.8
506.387	14743.67
506.59	14909.55
506.793	15183.98
506.996	15165.55
507.198	15599.72
507.401	15310.96
507.604	15724.65
507.807	16005.22
508.009	16113.76
508.212	16324.7
508.415	16646.23
508.617	16881.75
508.82	16898.13
509.022	16742.49
509.225	17248.33
509.428	17123.41
509.63	17743.94
509.833	17444.94
510.035	18288.7
510.238	17875.01
510.44	18020.42
510.643	18522.17
510.845	18524.22
511.048	18651.19
511.25	18944.05
511.453	19030.07
511.655	19640.36
511.858	19544.11
512.06	19783.72
512.262	20045.86
512.465	19941.41
512.667	20391.97
512.87	20574.24
513.072	20609.05
513.274	20754.46
513.477	20903.96
513.679	21481.49
513.881	21805.06
514.084	21786.63
514.286	21862.41
514.488	22026.25
514.69	22712.31
514.893	22736.89
515.095	22767.61
515.297	22976.5
515.499	23013.37
515.701	23257.07
515.904	23926.76
516.106	23773.16
516.308	24016.87
516.51	24426.46
516.712	24231.91
516.914	24813.53
517.116	25124.82
517.318	25227.22
517.52	25178.07
517.722	25567.18
517.925	25892.81
518.127	26232.77
518.329	26681.28
518.531	26472.39
518.733	26951.61
518.935	27068.34
519.136	26732.48
519.338	27232.18
519.54	27570.1
519.742	27742.13
519.944	27936.68
520.146	28473.25
520.348	28522.4
520.55	28540.83
520.752	28653.47
520.954	29144.98
521.155	29206.42
521.357	29345.69
521.559	29769.62
521.761	30314.37
521.963	30160.78
522.164	30357.38
522.366	30300.04
522.568	30693.25
522.77	30977.92
522.971	31350.65
523.173	31166.33
523.375	31360.89
523.576	31418.23
523.778	31799.15
523.98	31907.69
524.181	32204.65
524.383	32302.95
524.584	32819.04
524.786	32974.69
524.988	32548.71
525.189	33173.34
525.391	33075.04
525.592	33505.11
525.794	33646.42
525.995	33539.93
526.197	33451.86
526.398	33673.04
526.6	33886.03
526.801	34121.55
527.003	34283.34
527.204	34299.72
527.406	34504.52
527.607	34817.86
527.808	34856.77
528.01	34379.59
528.211	34631.49
528.412	35292.99
528.614	34971.46
528.815	35209.02
529.016	35598.13
529.218	35368.76
529.419	35223.36
529.62	35602.23
529.822	35123.01
530.023	35727.16
530.224	35598.13
530.425	35436.34
530.626	35438.39
530.828	35344.19
531.029	36013.87
531.23	35354.43
531.431	36050.74
531.632	36118.32
531.833	35874.61
532.035	35784.5
532.236	36034.35
532.437	36337.45
532.638	35766.07
532.839	35794.74
533.04	36552.49
533.241	36136.75
533.442	36609.83
533.643	36296.49
533.844	36110.13
534.045	36452.14
534.246	35837.75
534.447	36394.79
534.648	35989.3
534.849	36695.85
535.05	36026.16
535.251	36620.07
535.451	36149.04
535.652	36550.44
535.853	36327.21
536.054	36378.41
536.255	36423.47
536.456	36185.9
536.657	36357.93
536.857	36255.53
537.058	36278.06
537.259	36435.75
537.46	36466.47
537.66	36298.54
537.861	36134.7
538.062	36081.45
538.263	36722.47
538.463	35960.62
538.664	36472.62
538.865	36560.68
539.065	36548.39
539.266	36212.52
539.466	36437.8
539.667	35938.1
539.868	36607.78
540.068	36179.76
540.269	36276.01
540.469	36896.55
540.67	36067.12
540.87	36124.46
541.071	36067.12
541.271	36280.11
541.472	36353.83
541.672	36349.74
541.873	35940.14
542.073	35684.15
542.274	36276.01
542.474	36157.23
542.675	35813.17
542.875	36294.44
543.075	36210.48
543.276	36069.17
543.476	36505.38
543.676	35571.51
543.877	35780.4
544.077	36245.29
544.277	36030.26
544.478	35692.34
544.678	36587.3
544.878	36210.48
545.078	36210.48
545.279	35381.05
545.479	35727.16
545.679	36200.24
545.879	35817.27
546.079	36034.35
546.28	36099.89
546.48	35893.04
546.68	36116.27
546.88	35985.2
547.08	35897.14
547.28	35811.12
547.48	35454.78
547.68	36015.92
547.88	35385.15
548.081	35923.76
548.281	35645.24
548.481	35753.78
548.681	35884.85
548.881	35909.43
549.081	35606.33
549.28	35665.72
549.48	35870.51
549.68	35548.98
549.88	36431.66
550.08	35548.98
550.28	35686.2
550.48	35610.42
550.68	35876.66
550.88	35706.68
551.08	35673.91
551.279	35792.69
551.479	35622.71
551.679	35843.89
551.879	35192.64
552.079	35608.37
552.278	35622.71
552.478	35307.32
552.678	35342.14
552.878	35766.07
553.077	35292.99
553.277	35350.33
553.477	35653.43
553.676	35630.9
553.876	35532.6
554.076	35204.92
554.275	35340.09
554.475	34955.07
554.674	35174.2
554.874	35223.36
555.074	35254.08
555.273	34834.24
555.473	35338.04
555.672	34832.19
555.872	34817.86
556.071	35426.1
556.271	35346.23
556.47	35073.85
556.67	34694.98
556.869	35239.74
557.068	35012.42
557.268	34477.9
557.467	34766.66
557.667	34711.36
557.866	34756.42
558.065	34987.84
558.265	34529.09
558.464	34832.19
558.663	34987.84
558.863	34303.82
559.062	35166.01
559.261	34363.21
559.461	34498.37
559.66	34361.16
559.859	34565.96
560.058	34336.59
560.258	34324.3
560.457	34131.79
560.656	34223.95
560.855	34299.72
561.054	33996.62
561.253	33746.77
561.453	34139.98
561.652	34187.08
561.851	34051.92
562.05	33832.79
562.249	33789.78
562.448	33974.09
562.647	33642.32
562.846	33656.66
563.045	33814.35
563.244	33478.49
563.443	33601.36
563.642	33263.45
563.841	33392.47
564.04	33191.77
564.239	33644.37
564.438	33271.64
564.637	33167.2
564.836	33277.79
565.035	32878.43
565.234	33099.61
565.432	33185.63
565.631	32882.53
565.83	33046.37
566.029	32915.3
566.228	32798.56
566.427	32978.78
566.625	32550.76
566.824	32411.49
567.023	32489.32
567.222	31971.18
567.42	32771.94
567.619	32395.11
567.818	32354.15
568.016	32233.32
568.215	32350.06
568.414	31823.73
568.612	32352.1
568.811	32122.73
569.01	32130.92
569.208	31676.27
569.407	32175.98
569.605	31496.05
569.804	31496.05
570.002	31379.32
570.201	31663.99
570.4	31418.23
570.598	31061.88
570.797	31254.39
570.995	31379.32
571.193	30998.4
571.392	31448.95
571.59	30775.17
571.789	30924.67
571.987	30818.18
572.186	30785.41
572.384	30560.13
572.582	30373.77
572.781	30936.96
572.979	30285.7
573.177	30396.29
573.376	30855.04
573.574	30132.11
573.772	30144.39
573.971	30132.11
574.169	29882.25
574.367	29955.98
574.565	30095.24
574.763	29712.27
574.962	29650.83
575.16	29570.96
575.358	29898.64
575.556	29478.8
575.754	29960.08
575.952	29456.28
576.151	29968.27
576.349	29132.7
576.547	29216.66
576.745	29038.49
576.943	29069.21
577.141	28893.08
577.339	29034.39
577.537	28800.93
577.735	29009.82
577.933	28757.92
578.131	28866.46
578.329	28360.61
578.527	28471.2
578.725	28413.86
578.923	28401.57
579.121	28116.9
579.319	28622.75
579.516	28047.27
579.714	28034.99
579.912	28020.65
580.11	28030.89
580.308	27746.22
580.506	27932.59
580.704	27572.14
580.901	27697.07
581.099	27852.72
581.297	27357.11
581.495	27871.15
581.692	27508.66
581.89	27426.74
582.088	27115.45
582.285	27127.74
582.483	27277.24
582.681	27412.4
582.878	26996.67
583.076	26830.78
583.274	26898.36
583.471	26378.18
583.669	26746.81
583.866	26709.95
584.064	26664.89
584.262	26363.84
584.459	26570.69
584.657	26286.02
584.854	26476.48
585.052	25927.63
585.249	26122.18
585.447	26165.19
585.644	26130.37
585.841	25896.91
586.039	26046.41
586.236	25688.01
586.434	25548.75
586.631	25645.01
586.828	25358.29
587.026	25208.79
587.223	25448.4
587.42	25321.43
587.618	25370.58
587.815	24893.4
588.012	25034.71
588.21	25219.03
588.407	25227.22
588.604	24756.19
588.801	24817.63
588.999	24764.38
589.196	24510.43
589.393	24661.98
589.59	24580.06
589.787	24190.95
589.984	24535.01
590.182	24377.31
590.379	24068.07
590.576	24086.5
590.773	24340.45
590.97	23838.7
591.167	24367.07
591.364	23656.43
591.561	24010.73
591.758	23844.84
591.955	23855.08
592.152	23689.2
592.349	23445.49
592.546	23488.49
592.743	23527.41
592.94	23175.16
593.137	23220.21
593.334	23355.38
593.531	23140.34
593.727	23406.58
593.924	23132.15
594.121	22786.04
594.318	23132.15
594.515	22874.1
594.712	23091.19
594.908	22599.68
595.105	22841.34
595.302	22452.22
595.499	22747.13
595.696	22552.57
595.892	22069.25
596.089	22425.6
596.286	22421.5
596.482	22370.3
596.679	22132.74
596.876	22052.87
597.072	21749.77
597.269	22079.49
597.466	21633.04
597.662	22034.44
597.859	21942.28
598.055	21516.3
598.252	21612.56
598.448	21598.22
598.645	21370.9
598.841	21458.96
599.038	21616.65
599.234	21481.49
599.431	21110.8
599.627	21166.1
599.824	21323.79
600.02	20852.76
600.217	21159.95
600.413	21000.21
600.609	20764.7
600.806	20680.73
601.002	20895.77
601.198	20719.64
601.395	20520.99
601.591	20471.84
601.787	20590.62
601.984	20539.42
602.18	20570.14
602.376	20092.96
602.572	20193.31
602.769	20391.97
602.965	19998.76
603.161	19671.08
603.357	19658.79
603.553	19824.68
603.75	19814.44
603.946	19757.1
604.142	19929.13
604.338	19755.05
604.534	19611.69
604.73	19556.39
604.926	19404.85
605.122	19519.53
605.318	19191.86
605.514	19028.02
605.71	19236.91
605.906	19144.75
606.102	19273.78
606.298	19335.21
606.494	19216.43
606.69	19208.24
606.886	19249.2
607.082	18858.04
607.278	18710.58
607.474	18585.66
607.67	19048.5
607.866	18612.28
608.062	18554.94
608.257	18544.7
608.453	18509.88
608.649	18538.55
608.845	18659.38
609.041	18473.02
609.236	18425.92
609.432	18208.83
609.628	18499.64
609.824	18047.04
610.019	18139.2
610.215	18436.16
610.411	18239.55
610.606	18051.14
610.802	17936.45
610.998	18094.15
611.193	17858.63
611.389	17895.49
611.584	17868.87
611.78	18110.53
611.976	18067.52
612.171	17834.05
612.367	18094.15
612.562	17498.19
612.758	17526.86
612.953	17473.61
613.149	17659.98
613.344	17528.91
613.539	17659.98
613.735	17836.1
613.93	17565.77
614.126	17360.97
614.321	17639.5
614.517	17453.13
614.712	17422.41
614.907	17174.61
615.103	17260.62
615.298	17176.66
615.493	17326.16
615.688	16857.17
615.884	17436.75
616.079	16830.55
616.274	16961.62
616.47	16883.8
616.665	17053.78
616.86	16869.46
617.055	16744.53
617.25	16656.47
617.445	16779.35
617.641	16441.43
617.836	16705.62
618.031	16494.68
618.226	16715.86
618.421	16343.13
618.616	16670.81
618.811	16230.49
619.006	16742.49
619.201	16291.93
619.396	16257.12
619.591	15956.07
619.786	16363.61
619.981	15800.42
620.176	16103.52
620.371	15980.64
620.566	16074.85
620.761	15579.24
620.956	16062.56
621.151	15491.18
621.346	15601.77
621.541	15708.26
621.735	15571.05
621.93	15476.84
622.125	15450.22
622.32	14917.75
622.515	15046.77
622.709	14983.28
622.904	14958.71
623.099	15091.82
623.294	14960.75
623.488	14819.44
623.683	14766.2
623.878	14422.14
624.072	14411.9
624.267	14641.27
624.462	14323.83
624.656	14282.88
624.851	14262.4
625.046	14180.48
625.24	14203
625.435	14080.13
625.629	13688.96
625.824	13801.6
626.018	13574.28
626.213	13680.77
626.407	13643.91
626.602	13539.46
626.796	13482.12
626.991	13588.61
627.185	13222.03
627.38	13183.12
627.574	13379.72
627.768	12994.7
627.963	12902.54
628.157	12609.68
628.352	12957.84
628.546	12816.53
628.74	12849.3
628.935	12734.61
629.129	12736.66
629.323	12253.34
629.517	12466.33
629.712	12482.71
629.906	12218.52
630.1	12066.97
630.294	12466.33
630.489	12138.65
630.683	12165.28
630.877	11880.61
631.071	11858.08
631.265	11983.01
631.459	11878.56
631.653	11684
631.848	11722.91
632.042	11776.16
632.236	11616.42
632.43	11376.81
632.624	11583.65
632.818	11442.34
633.012	11479.21
633.206	11329.7
633.4	11305.13
633.594	11096.24
633.788	11122.86
633.982	11124.91
634.176	10942.64
634.369	10971.31
634.563	10844.34
634.757	10873.01
634.951	10903.73
635.145	10713.27
635.339	10770.61
635.533	10680.5
635.726	10631.35
635.92	10502.33
636.114	10289.34
636.308	10502.33
636.501	10315.96
636.695	10287.29
636.889	10143.93
637.083	10082.49
637.276	10053.82
637.47	9969.85
637.664	9965.76
637.857	9973.95
638.051	9713.86
638.244	9695.43
638.438	9629.89
638.632	9781.44
638.825	9711.81
639.019	9484.48
639.212	9494.72
639.406	9582.79
639.599	9509.06
639.793	9466.05
639.986	9259.21
640.18	9386.18
640.373	9203.91
640.567	8986.83
640.76	9208.01
640.954	8945.87
641.147	9093.32
641.34	8859.85
641.534	8845.52
641.727	8845.52
641.92	9029.84
642.114	8952.01
642.307	8616.15
642.5	8698.06
642.694	8532.18
642.887	8620.24
643.08	8591.57
643.273	8419.54
643.467	8335.57
643.66	8261.85
643.853	8331.48
644.046	8091.87
644.239	8296.66
644.432	8394.97
644.626	8171.74
644.819	8050.91
645.012	8126.68
645.205	8012
645.398	7907.55
645.591	7784.67
645.784	7858.4
645.977	7807.2
646.17	7870.69
646.363	7719.14
646.556	7420.13
646.749	7641.31
646.942	7543.01
647.135	7694.56
647.328	7440.61
647.521	7667.94
647.714	7297.25
647.907	7463.14
648.099	7381.22
648.292	7168.23
648.485	7397.6
648.678	7149.8
648.871	7188.71
649.064	7026.92
649.256	7262.44
649.449	7254.25
649.642	7076.07
649.835	6840.56
650.027	6979.82
650.22	6850.8
650.413	6998.25
650.605	6932.72
650.798	6662.38
650.991	6832.37
651.183	6732.01
651.376	6574.32
651.568	6707.44
651.761	6674.67
651.954	6480.11
652.146	6574.32
652.339	6666.48
652.531	6490.35
652.724	6519.03
652.916	6224.12
653.109	6363.38
653.301	6256.89
653.494	6433.01
653.686	6297.85
653.879	6035.71
654.071	6189.3
654.263	6064.38
654.456	6183.16
654.648	6166.78
654.84	6013.18
655.033	5953.79
655.225	5970.17
655.417	5880.06
655.61	5888.25
655.802	5980.41
655.994	5697.79
656.186	5841.15
656.379	5665.02
656.571	5697.79
656.763	5660.93
656.955	5611.78
657.148	5681.41
657.34	5609.73
657.532	5470.47
657.724	5570.82
657.916	5581.06
658.108	5466.37
658.3	5382.4
658.492	5492.99
658.684	5540.1
658.876	5327.11
659.068	5343.49
659.26	5431.55
659.452	5331.2
659.644	5247.24
659.836	5243.14
660.028	5284.1
660.22	5095.69
660.412	5077.26
660.604	5017.86
660.796	5024.01
660.988	4901.13
661.18	4921.61
661.372	4870.41
661.563	4860.17
661.755	4792.59
661.947	4759.82
662.139	4950.28
662.331	4790.54
662.522	4722.96
662.714	4860.17
662.906	4659.47
663.097	4788.49
663.289	4690.19
663.481	4546.83
663.673	4696.33
663.864	4632.85
664.056	4561.17
664.247	4530.45
664.439	4477.2
664.631	4526.35
664.822	4634.89
665.014	4518.16
665.205	4413.71
665.397	4421.91
665.588	4387.09
665.78	4319.51
665.971	4403.47
666.163	4282.64
666.354	4225.3
666.546	4284.69
666.737	4133.14
666.929	3942.68
667.12	3959.06
667.311	4124.95
667.503	4071.7
667.694	4219.16
667.885	4071.7
668.077	4022.55
668.268	4094.23
668.459	3987.74
668.651	3989.78
668.842	4010.26
669.033	3914.01
669.224	3883.29
669.416	3889.43
669.607	3784.99
669.798	3836.19
669.989	3827.99
670.18	3803.42
670.371	3770.65
670.563	3750.17
670.754	3774.75
670.945	3823.9
671.136	3856.67
671.327	3623.2
671.518	3717.4
671.709	3741.98
671.9	3655.97
672.091	3627.29
672.282	3580.19
672.473	3492.13
672.664	3621.15
672.855	3588.38
673.046	3604.77
673.237	3604.77
673.428	3504.42
673.619	3522.85
673.809	3352.87
674	3471.65
674.191	3367.2
674.382	3297.57
674.573	3469.6
674.764	3277.09
674.954	3391.78
675.145	3236.13
675.336	3402.02
675.527	3336.48
675.717	3490.08
675.908	3246.37
676.099	3209.51
676.289	3264.8
676.48	3289.38
676.671	3229.99
676.861	3062.05
677.052	3105.06
677.243	3168.55
677.433	3182.88
677.624	3078.44
677.814	3168.55
678.005	3166.5
678.195	3160.36
678.386	3172.64
678.576	2928.94
678.767	3047.72
678.957	3156.26
679.148	3014.95
679.338	2992.42
679.529	2986.28
679.719	2922.79
679.909	3008.81
680.1	2971.94
680.29	2988.33
680.481	2969.9
680.671	2922.79
680.861	2857.26
681.052	2973.99
681.242	2963.75
681.432	2947.37
681.622	2826.54
681.813	2912.55
682.003	2881.83
682.193	2777.39
682.383	2883.88
682.573	2801.96
682.764	2781.48
682.954	2703.66
683.144	2916.65
683.334	2791.72
683.524	2822.44
683.714	2740.52
683.904	2713.9
684.094	2701.61
684.284	2728.24
684.474	2769.2
684.664	2715.95
684.854	2761
685.044	2750.76
685.234	2713.9
685.424	2636.08
685.614	2697.52
685.804	2640.17
685.994	2621.74
686.184	2666.8
686.374	2738.48
686.564	2568.49
686.753	2695.47
686.943	2613.55
687.133	2683.18
687.323	2588.97
687.513	2644.27
687.702	2599.21
687.892	2472.24
688.082	2599.21
688.272	2640.17
688.461	2631.98
688.651	2541.87
688.841	2494.77
689.03	2560.3
689.22	2541.87
689.41	2488.62
689.599	2597.17
689.789	2459.95
689.979	2472.24
690.168	2533.68
690.358	2484.53
690.547	2515.25
690.737	2441.52
690.926	2492.72
691.116	2502.96
691.305	2502.96
691.495	2398.51
691.684	2482.48
691.874	2457.9
692.063	2345.27
692.252	2369.84
692.442	2335.03
692.631	2451.76
692.82	2439.47
693.01	2445.62
693.199	2349.36
693.388	2384.18
693.578	2392.37
693.767	2361.65
693.956	2478.38
694.146	2453.81
694.335	2242.87
694.524	2388.27
694.713	2402.61
694.902	2400.56
695.092	2400.56
695.281	2326.83
695.47	2353.46
695.659	2242.87
695.848	2337.07
696.037	2271.54
696.226	2318.64
696.415	2406.7
696.604	2234.68
696.793	2267.44
696.982	2308.4
697.171	2277.68
697.36	2351.41
697.549	2296.11
697.738	2195.76
697.927	2240.82
698.116	2208.05
698.305	2249.01
698.494	2208.05
698.683	2320.69
698.872	2136.37
699.061	2152.76
699.25	2195.76
699.438	2304.31
699.627	2208.05
699.816	2072.89
700.005	2191.67
700.193	2224.44
700.382	2326.83
700.571	2220.34
700.76	2068.79
700.948	2142.52
701.137	2210.1
701.326	2097.46
701.514	2249.01
701.703	2193.72
701.892	2109.75
702.08	2195.76
702.269	2197.81
702.457	2187.57
702.646	2046.26
702.834	2130.23
703.023	2154.8
703.212	2160.95
703.4	2056.5
703.589	1976.63
703.777	2185.52
703.965	2056.5
704.154	2019.64
704.342	2070.84
704.531	2054.45
704.719	2062.65
704.907	2054.45
705.096	1990.97
705.284	2060.6
705.472	2066.74
705.661	2097.46
705.849	2113.85
706.037	2163
706.226	2007.35
706.414	2076.98
706.602	2079.03
706.79	1995.06
706.979	2079.03
707.167	1982.78
707.355	1935.67
707.543	1980.73
707.731	1937.72
707.919	2019.64
708.107	2003.25
708.296	1900.86
708.484	1931.58
708.672	1968.44
708.86	1900.86
709.048	1886.52
709.236	1876.28
709.424	1911.1
709.612	1960.25
709.8	1921.34
709.988	1882.42
710.176	1888.57
710.364	1931.58
710.551	1956.15
710.739	1962.3
710.927	1909.05
711.115	1884.47
711.303	1941.82
711.491	1831.23
711.679	1843.51
711.866	1925.43
712.054	1782.07
712.242	1702.2
712.43	1765.69
712.617	1784.12
712.805	1763.64
712.993	1814.84
713.181	1749.31
713.368	1775.93
713.556	1917.24
713.744	1759.55
713.931	1859.9
714.119	1737.02
714.306	1702.2
714.494	1794.36
714.682	1745.21
714.869	1747.26
715.057	1759.55
715.244	1792.31
715.432	1804.6
715.619	1675.58
715.807	1782.07
715.994	1632.57
716.182	1757.5
716.369	1677.63
716.556	1644.86
716.744	1700.16
716.931	1777.98
717.119	1712.44
717.306	1712.44
717.493	1718.59
717.681	1728.83
717.868	1648.96
718.055	1716.54
718.242	1663.29
718.43	1648.96
718.617	1679.68
718.804	1700.16
718.991	1601.85
719.179	1741.11
719.366	1591.61
719.553	1614.14
719.74	1587.52
719.927	1651
720.114	1675.58
720.301	1638.72
720.488	1659.2
720.676	1503.55
720.863	1538.37
721.05	1628.48
721.237	1540.41
721.424	1562.94
721.611	1595.71
721.798	1538.37
721.985	1511.74
722.172	1567.04
722.358	1550.65
722.545	1464.64
722.732	1485.12
722.919	1562.94
723.106	1560.89
723.293	1548.61
723.48	1526.08
723.667	1515.84
723.853	1515.84
724.04	1472.83
724.227	1448.26
724.414	1454.4
724.6	1454.4
724.787	1468.73
724.974	1448.26
725.161	1489.21
725.347	1364.29
725.534	1448.26
725.72	1435.97
725.907	1409.34
726.094	1485.12
726.28	1411.39
726.467	1481.02
726.653	1472.83
726.84	1458.5
727.027	1476.93
727.213	1438.02
727.4	1517.89
727.586	1435.97
727.773	1331.52
727.959	1470.78
728.145	1481.02
728.332	1415.49
728.518	1364.29
728.705	1487.17
728.891	1450.3
729.077	1380.67
729.264	1378.62
729.45	1292.61
729.636	1491.26
729.823	1395.01
730.009	1429.82
730.195	1423.68
730.382	1380.67
730.568	1284.42
730.754	1358.14
730.94	1319.23
731.126	1356.1
731.313	1268.03
731.499	1300.8
731.685	1294.66
731.871	1376.58
732.057	1292.61
732.243	1366.34
732.429	1308.99
732.615	1407.3
732.801	1308.99
732.987	1243.46
733.173	1325.38
733.359	1261.89
733.545	1317.19
733.731	1327.43
733.917	1227.07
734.103	1282.37
734.289	1395.01
734.475	1222.98
734.661	1272.13
734.847	1241.41
735.033	1231.17
735.219	1329.47
735.404	1257.79
735.59	1278.27
735.776	1153.35
735.962	1218.88
736.148	1225.03
736.333	1247.55
736.519	1200.45
736.705	1208.64
736.89	1210.69
737.076	1249.6
737.262	1190.21
737.447	1194.31
737.633	1208.64
737.819	1349.95
738.004	1227.07
738.19	1218.88
738.375	1206.59
738.561	1292.61
738.747	1210.69
738.932	1214.79
739.118	1231.17
739.303	1104.2
739.489	1173.83
739.674	1194.31
739.859	1255.75
740.045	1143.11
740.23	1149.25
740.416	1085.76
740.601	1120.58
740.786	1075.52
740.972	1163.59
741.157	1165.64
741.342	1165.64
741.528	1157.44
741.713	1169.73
741.898	1122.63
742.084	1114.44
742.269	1108.29
742.454	1130.82
742.639	1149.25
742.824	1188.16
743.01	1018.18
743.195	1065.29
743.38	1079.62
743.565	1055.05
743.75	1087.81
743.935	1007.94
744.12	1081.67
744.305	1030.47
744.49	1073.48
744.675	1110.34
744.86	1143.11
745.045	993.61
745.23	1018.18
745.415	1030.47
745.6	995.65
745.785	1067.33
745.97	1055.05
746.155	1024.33
746.34	1007.94
746.525	915.78
746.71	936.26
746.895	948.55
747.079	971.08
747.264	983.37
747.449	997.7
747.634	952.65
747.819	973.13
748.003	940.36
748.188	993.61
748.373	1075.52
748.557	989.51
748.742	1022.28
748.927	960.84
749.111	872.78
749.296	848.2
749.481	1030.47
749.665	850.25
749.85	940.36
750.034	946.5
750.219	960.84
750.404	805.19
750.588	919.88
750.773	870.73
750.957	827.72
751.141	915.78
751.326	870.73
751.51	856.39
751.695	827.72
751.879	899.4
752.064	911.69
752.248	835.91
752.432	809.29
752.617	840.01
752.801	866.63
752.985	758.09
753.17	797
753.354	811.34
753.538	766.28
753.722	764.23
753.907	833.86
754.091	809.29
754.275	801.1
754.459	727.37
754.643	858.44
754.828	770.38
755.012	735.56
755.196	747.85
755.38	741.71
755.564	749.9
755.748	696.65
755.932	753.99
756.116	729.42
756.3	745.8
756.484	706.89
756.668	698.7
756.852	723.27
757.036	670.03
757.22	727.37
757.404	727.37
757.588	776.52
757.772	680.27
757.956	713.03
758.14	643.4
758.323	631.12
758.507	710.99
758.691	624.97
758.875	635.21
759.059	637.26
759.242	590.16
759.426	753.99
759.61	680.27
759.794	713.03
759.977	616.78
760.161	663.88
760.345	639.31
760.528	674.12
760.712	604.49
760.895	672.08
761.079	620.88
761.263	555.34
761.446	577.87
761.63	565.58
761.813	643.4
761.997	614.73
762.18	571.72
762.364	622.92
762.547	555.34
762.731	643.4
762.914	551.24
763.098	561.48
763.281	541.01
763.464	526.67
763.648	553.29
763.831	463.18
764.015	569.68
764.198	614.73
764.381	577.87
764.564	608.59
764.748	571.72
764.931	547.15
765.114	555.34
765.297	538.96
765.481	579.92
765.664	559.44
765.847	498
766.03	598.35
766.213	596.3
766.397	502.09
766.58	479.57
766.763	555.34
766.946	584.01
767.129	500.05
767.312	532.81
767.495	498
767.678	522.57
767.861	559.44
768.044	534.86
768.227	469.33
768.41	467.28
768.593	524.62
768.776	549.2
768.959	502.09
769.142	555.34
769.324	506.19
769.507	469.33
769.69	565.58
769.873	479.57
770.056	498
770.239	440.65
770.421	571.72
770.604	457.04
770.787	532.81
770.97	483.66
771.152	491.85
771.335	485.71
771.518	631.12
771.7	524.62
771.883	438.61
772.066	522.57
772.248	516.43
772.431	442.7
772.613	516.43
772.796	520.53
772.978	467.28
773.161	506.19
773.343	489.81
773.526	422.22
773.708	461.13
773.891	434.51
774.073	366.93
774.256	379.22
774.438	495.95
774.621	411.98
774.803	407.89
774.985	438.61
775.168	500.05
775.35	416.08
775.532	483.66
775.715	420.17
775.897	352.59
776.079	432.46
776.261	381.26
776.444	352.59
776.626	385.36
776.808	457.04
776.99	391.5
777.173	393.55
777.355	407.89
777.537	401.74
777.719	414.03
777.901	424.27
778.083	393.55
778.265	452.94
778.447	371.02
778.629	381.26
778.811	309.58
778.993	311.63
779.175	405.84
779.357	366.93
779.539	354.64
779.721	401.74
779.903	346.45
780.085	332.11
780.267	342.35
780.449	256.34
780.631	334.16
780.812	325.97
780.994	325.97
781.176	368.98
781.358	340.3
781.54	344.4
781.721	364.88
781.903	278.87
782.085	266.58
782.267	291.15
782.448	391.5
782.63	272.72
782.812	270.67
782.993	334.16
783.175	387.41
783.357	242
783.538	307.54
783.72	270.67
783.901	334.16
784.083	258.39
784.264	334.16
784.446	252.24
784.627	309.58
784.809	280.91
784.99	246.1
785.172	215.38
785.353	246.1
785.535	278.87
785.716	330.06
785.897	305.49
786.079	211.28
786.26	221.52
786.441	317.78
786.623	264.53
786.804	242
786.985	237.91
787.167	237.91
787.348	176.47
787.529	252.24
787.71	250.19
787.891	348.5
788.073	221.52
788.254	213.33
788.435	313.68
788.616	330.06
788.797	297.3
788.978	334.16
789.159	272.72
789.34	235.86
789.522	162.13
789.703	215.38
789.884	59.73
790.065	231.76
790.246	221.52
790.427	203.09
790.607	237.91
790.788	235.86
790.969	239.95
791.15	246.1
791.331	190.8
791.512	203.09
791.693	184.66
791.874	244.05
792.054	227.67
792.235	205.14
792.416	178.51
792.597	219.47
792.778	237.91
792.958	211.28
793.139	180.56
793.32	244.05
793.5	186.71
793.681	166.23
793.862	106.84
794.042	188.75
794.223	117.08
794.404	211.28
794.584	158.03
794.765	153.94
794.945	190.8
795.126	190.8
795.306	139.6
795.487	203.09
795.667	133.46
795.848	231.76
796.028	162.13
796.209	196.95
796.389	125.27
796.57	174.42
796.75	211.28
796.93	262.48
797.111	135.51
797.291	186.71
797.471	153.94
797.652	115.03
797.832	153.94
798.012	104.79
798.192	80.21
798.373	106.84
798.553	162.13
798.733	121.17
798.913	162.13
799.093	133.46
799.274	178.51
799.454	194.9
799.634	190.8
799.814	190.8
799.994	106.84
800.174	215.38
800.354	88.4
800.534	117.08
800.714	203.09
800.894	164.18
801.074	104.79
801.254	143.7
801.434	59.73
801.614	203.09
801.794	145.75
801.974	381.26
802.154	135.51
802.334	198.99
802.514	106.84
802.693	158.03
802.873	194.9
803.053	209.23
803.233	117.08
803.413	160.08
803.592	131.41
803.772	108.88
803.952	145.75
804.131	112.98
804.311	49.49
804.491	147.8
804.67	139.6
804.85	100.69
805.03	90.45
805.209	133.46
805.389	108.88
805.568	104.79
805.748	47.44
805.928	127.32
806.107	143.7
806.287	117.08
806.466	84.31
806.646	63.83
806.825	139.6
807.004	96.6
807.184	88.4
807.363	90.45
807.543	63.83
807.722	123.22
807.901	129.36
808.081	104.79
808.26	102.74
808.439	108.88
808.619	16.73
808.798	47.44
808.977	57.68
809.156	92.5
809.336	18.77
809.515	147.8
809.694	26.96
809.873	33.11
810.052	139.6
810.231	88.4
810.411	67.92
810.59	112.98
810.769	67.92
810.948	110.93
811.127	88.4
811.306	96.6
811.485	123.22
811.664	65.88
811.843	106.84
812.022	74.07
812.201	110.93
812.38	61.78
812.559	88.4
812.737	104.79
812.916	41.3
813.095	47.44
813.274	94.55
813.453	131.41
813.632	76.12
813.811	117.08
813.989	43.35
814.168	115.03
814.347	45.4
814.526	82.26
814.704	98.64
814.883	104.79
815.062	29.01
815.24	78.16
815.419	82.26
815.598	112.98
815.776	63.83
815.955	133.46
816.133	-28.33
816.312	110.93
816.49	108.88
816.669	55.64
816.847	76.12
817.026	39.25
817.204	59.73
817.383	88.4
817.561	86.36
817.74	100.69
817.918	55.64
818.097	90.45
818.275	20.82
818.453	65.88
818.632	31.06
818.81	35.16
818.988	98.64
819.167	63.83
819.345	117.08
819.523	47.44
819.701	57.68
819.879	121.17
820.058	18.77
820.236	112.98
820.414	129.36
820.592	78.16
820.77	112.98
820.948	55.64
821.127	100.69
821.305	69.97
821.483	24.92
821.661	47.44
821.839	92.5
822.017	67.92
822.195	80.21
822.373	76.12
822.551	47.44
822.729	6.49
822.907	8.53
823.085	24.92
823.262	57.68
823.44	90.45
823.618	47.44
823.796	43.35
823.974	65.88
824.152	33.11
824.329	49.49
824.507	12.63
824.685	0.34
824.863	10.58
825.04	117.08
825.218	51.54
825.396	33.11
825.574	72.02
825.751	51.54
825.929	47.44
826.107	35.16
826.284	49.49
826.462	-61.1
826.639	57.68
826.817	100.69
826.994	37.2
827.172	18.77
827.349	8.53
827.527	29.01
827.704	14.68
827.882	20.82
828.059	16.73
828.237	63.83
828.414	82.26
828.591	65.88
828.769	76.12
828.946	59.73
829.124	2.39
829.301	49.49
829.478	92.5
829.655	53.59
829.833	31.06
830.01	59.73
830.187	45.4
830.364	88.4
830.542	76.12
830.719	35.16
830.896	29.01
831.073	-20.14
831.25	26.96
831.427	-57
831.604	-44.71
831.782	12.63
831.959	104.79
832.136	-26.28
832.313	39.25
832.49	26.96
832.667	-9.9
832.844	-16.04
833.021	63.83
833.198	88.4
833.374	29.01
833.551	74.07
833.728	2.39
833.905	-13.99
834.082	51.54
834.259	-32.43
834.436	24.92
834.612	8.53
834.789	96.6
834.966	53.59
835.143	-1.71
835.319	22.87
835.496	26.96
835.673	-30.38
835.85	29.01
836.026	123.22
836.203	55.64
836.38	-1.71
836.556	8.53
836.733	82.26
836.909	24.92
837.086	10.58
837.262	10.58
837.439	90.45
837.616	49.49
837.792	16.73
837.968	31.06
838.145	33.11
838.321	33.11
838.498	55.64
838.674	74.07
838.851	-13.99
839.027	20.82
839.203	-9.9
839.38	-7.85
839.556	74.07
839.732	-7.85
839.909	-61.1
840.085	-3.75
840.261	31.06
840.437	-24.23
840.614	-57
840.79	51.54
840.966	59.73
841.142	39.25
841.318	88.4
841.494	-16.04
841.671	49.49
841.847	96.6
842.023	22.87
842.199	100.69
842.375	67.92
842.551	84.31
842.727	78.16
842.903	72.02
843.079	20.82
843.255	-24.23
843.431	-18.09
843.607	24.92
843.783	24.92
843.959	10.58
844.134	41.3
844.31	96.6
844.486	-26.28
844.662	16.73
844.838	47.44
845.013	35.16
845.189	78.16
845.365	4.44
845.541	115.03
845.716	-5.8
845.892	47.44
846.068	24.92
846.244	-11.95
846.419	31.06
846.595	-30.38
846.77	20.82
846.946	59.73
847.122	-28.33
847.297	-11.95
847.473	-5.8
847.648	-48.81
847.824	41.3
847.999	8.53
848.175	10.58
848.35	22.87
848.526	121.17
848.701	18.77
848.876	4.44
849.052	49.49
849.227	-13.99
849.403	-24.23
849.578	74.07
849.753	-5.8
849.929	10.58
850.104	16.73
850.279	94.55
850.454	6.49
850.63	51.54
850.805	-61.1
850.98	41.3
851.155	117.08
851.33	26.96
851.505	31.06
851.681	63.83
851.856	-38.57
852.031	31.06
852.206	-13.99
852.381	0.34
852.556	-26.28
852.731	72.02
852.906	2.39
853.081	29.01
853.256	47.44
853.431	57.68
853.606	53.59
853.781	-34.47
853.956	61.78
854.131	63.83
854.305	-5.8
854.48	-91.82
854.655	8.53
854.83	-5.8
855.005	-22.19
855.18	106.84
855.354	-9.9
855.529	26.96
855.704	18.77
855.879	80.21
856.053	16.73
856.228	10.58
856.403	-38.57
856.577	14.68
856.752	-11.95
856.926	22.87
857.101	22.87
857.276	-24.23
857.45	-20.14
857.625	37.2
857.799	-16.04
857.974	-3.75
858.148	10.58
858.323	39.25
858.497	24.92
858.672	-24.23
858.846	-9.9
859.02	10.58
859.195	-48.81
859.369	51.54
859.543	-50.86
859.718	6.49
859.892	-77.48
860.066	84.31
860.241	-13.99
860.415	63.83
860.589	31.06
860.763	-13.99
860.938	24.92
861.112	76.12
861.286	-18.09
861.46	78.16
861.634	8.53
861.808	20.82
861.982	47.44
862.157	24.92
862.331	69.97
862.505	4.44
862.679	-36.52
862.853	59.73
863.027	16.73
863.201	35.16
863.375	-38.57
863.549	57.68
863.722	-3.75
863.896	18.77
864.07	-46.76
864.244	65.88
864.418	-57
864.592	24.92
864.766	53.59
864.939	-42.67
865.113	88.4
865.287	53.59
865.461	-1.71
865.634	6.49
865.808	-26.28
865.982	12.63
866.156	-40.62
866.329	-26.28
866.503	-20.14
866.676	31.06
866.85	-36.52
867.024	-7.85
867.197	-87.72
867.371	-34.47
867.544	24.92
867.718	33.11
867.891	18.77
868.065	-16.04
868.238	31.06
868.412	-24.23
868.585	-67.24
868.759	-18.09
868.932	-7.85
869.105	-44.71
869.279	22.87
869.452	24.92
869.625	-9.9
869.799	33.11
869.972	18.77
870.145	35.16
870.319	61.78
870.492	-7.85
870.665	-26.28
870.838	-16.04
871.011	-36.52
871.185	16.73
871.358	-42.67
871.531	-5.8
871.704	35.16
871.877	6.49
872.05	-44.71
872.223	0.34
872.396	16.73
872.569	35.16
872.742	-22.19
872.915	-36.52
873.088	-59.05
873.261	33.11
873.434	-9.9
873.607	76.12
873.78	-3.75
873.953	-5.8
874.126	-28.33
874.299	41.3
874.471	-1.71
874.644	-22.19
874.817	-52.91
874.99	18.77
875.163	26.96
875.335	-30.38
875.508	26.96
875.681	57.68
875.853	-24.23
876.026	-42.67
876.199	20.82
876.371	10.58
876.544	-1.71
876.717	43.35
876.889	-26.28
877.062	18.77
877.234	-61.1
877.407	2.39
877.579	33.11
877.752	55.64
877.924	-1.71
878.097	49.49
878.269	-48.81
878.442	-38.57
878.614	18.77
878.786	16.73
878.959	-73.39
879.131	18.77
879.303	-18.09
879.476	12.63
879.648	6.49
879.82	10.58
879.993	-73.39
880.165	96.6
880.337	-87.72
880.509	8.53
880.681	49.49
880.854	41.3
881.026	22.87
881.198	18.77
881.37	-38.57
881.542	16.73
881.714	-11.95
881.886	-30.38
882.058	-26.28
882.23	14.68
882.402	-36.52
882.574	4.44
882.746	-24.23
882.918	18.77
883.09	6.49
883.262	6.49
883.434	-26.28
883.606	18.77
883.778	6.49
883.95	8.53
884.122	33.11
884.293	10.58
884.465	-3.75
884.637	-24.23
884.809	-18.09
884.98	-30.38
885.152	-50.86
885.324	-5.8
885.496	-34.47
885.667	-13.99
885.839	8.53
886.011	16.73
886.182	-79.53
886.354	22.87
886.525	-18.09
886.697	31.06
886.869	-57
887.04	6.49
887.212	-18.09
887.383	35.16
887.555	-26.28
887.726	-63.15
887.897	-57
888.069	8.53
888.24	-57
888.412	-9.9
888.583	-87.72
888.754	72.02
888.926	-48.81
889.097	-75.43
889.268	0.34
889.44	-9.9
889.611	-32.43
889.782	-30.38
889.953	-26.28
890.125	-48.81
890.296	33.11
890.467	82.26
890.638	-59.05
890.809	-7.85
890.98	-36.52
891.151	6.49
891.323	-85.67
891.494	24.92
891.665	-71.34
891.836	55.64
892.007	-9.9
892.178	51.54
892.349	49.49
892.52	22.87
892.691	-16.04
892.862	6.49
893.032	-46.76
893.203	33.11
893.374	-26.28
893.545	-36.52
893.716	-57
893.887	-32.43
894.057	8.53
894.228	33.11
894.399	-18.09
894.57	22.87
894.74	-40.62
894.911	-26.28
895.082	4.44
895.253	72.02
895.423	31.06
895.594	29.01
895.764	-22.19
895.935	-20.14
896.106	43.35
896.276	-11.95
896.447	-67.24
896.617	-83.63
896.788	-46.76
896.958	16.73
897.129	-16.04
897.299	-24.23
897.47	41.3
897.64	-1.71
897.81	-34.47
897.981	-40.62
898.151	22.87
898.322	57.68
898.492	-40.62
898.662	-40.62
898.832	-26.28
899.003	33.11
899.173	14.68
899.343	-18.09
899.513	43.35
