Data from USB4F104151__45__12-59-08-186.txt Node

Date: Fri Mar 14 12:59:08 EDT 2025
User: louis
Spectrometer: USB4F10415
Trigger mode: 4
Integration Time (sec): 1.000000E-2
Scans to average: 1
Electric dark correction enabled: true
Nonlinearity correction enabled: false
Boxcar width: 0
XAxis mode: Wavelengths
Number of Pixels in Spectrum: 3648
>>>>>Begin Spectral Data<<<<<
178.204	-68.09
178.424	-68.09
178.644	-68.09
178.864	-33.28
179.084	24.06
179.304	54.78
179.524	-8.7
179.744	-31.23
179.964	-18.94
180.184	-33.28
180.404	40.45
180.624	-12.8
180.844	-25.09
181.064	-37.38
181.283	67.07
181.503	-6.66
181.723	11.78
181.943	7.68
182.163	24.06
182.383	-18.94
182.602	36.35
182.822	-31.23
183.042	-4.61
183.262	15.87
183.482	11.78
183.701	1.54
183.921	52.74
184.141	-12.8
184.361	9.73
184.58	-0.51
184.8	7.68
185.02	32.26
185.239	44.54
185.459	15.87
185.679	-74.24
185.898	-57.86
186.118	71.17
186.338	3.58
186.557	13.82
186.777	-53.76
186.997	40.45
187.216	-33.28
187.436	40.45
187.655	-16.9
187.875	58.88
188.095	30.21
188.314	-35.33
188.534	40.45
188.753	32.26
188.973	-10.75
189.192	3.58
189.412	-23.04
189.631	40.45
189.851	13.82
190.07	50.69
190.29	7.68
190.509	11.78
190.729	19.97
190.948	40.45
191.168	22.02
191.387	-14.85
191.607	36.35
191.826	7.68
192.045	71.17
192.265	-16.9
192.484	34.3
192.704	3.58
192.923	-68.09
193.142	73.21
193.362	-35.33
193.581	32.26
193.8	9.73
194.02	-18.94
194.239	-8.7
194.458	19.97
194.678	-2.56
194.897	26.11
195.116	3.58
195.335	30.21
195.555	-31.23
195.774	-41.47
195.993	-10.75
196.212	22.02
196.432	52.74
196.651	26.11
196.87	-55.81
197.089	-2.56
197.308	24.06
197.528	95.74
197.747	7.68
197.966	46.59
198.185	50.69
198.404	-18.94
198.623	-10.75
198.842	30.21
199.062	32.26
199.281	24.06
199.5	30.21
199.719	-0.51
199.938	50.69
200.157	44.54
200.376	-8.7
200.595	9.73
200.814	36.35
201.033	-74.24
201.252	40.45
201.471	58.88
201.69	26.11
201.909	30.21
202.128	34.3
202.347	44.54
202.566	46.59
202.785	-18.94
203.004	28.16
203.223	38.4
203.442	22.02
203.661	15.87
203.879	15.87
204.098	85.5
204.317	-33.28
204.536	28.16
204.755	22.02
204.974	-25.09
205.193	-6.66
205.411	-43.52
205.63	-35.33
205.849	32.26
206.068	71.17
206.287	-25.09
206.505	-8.7
206.724	40.45
206.943	26.11
207.162	-6.66
207.381	11.78
207.599	67.07
207.818	-6.66
208.037	38.4
208.255	15.87
208.474	19.97
208.693	30.21
208.911	-8.7
209.13	5.63
209.349	-20.99
209.567	30.21
209.786	-23.04
210.005	1.54
210.223	13.82
210.442	-20.99
210.661	15.87
210.879	28.16
211.098	-4.61
211.316	-8.7
211.535	-8.7
211.753	73.21
211.972	-43.52
212.191	-20.99
212.409	22.02
212.628	-90.62
212.846	-57.86
213.065	28.16
213.283	42.5
213.502	-4.61
213.72	22.02
213.938	-31.23
214.157	-8.7
214.375	-6.66
214.594	65.02
214.812	65.02
215.031	-0.51
215.249	30.21
215.467	69.12
215.686	22.02
215.904	87.55
216.122	-0.51
216.341	5.63
216.559	50.69
216.778	-47.62
216.996	-57.86
217.214	9.73
217.432	22.02
217.651	-14.85
217.869	62.98
218.087	52.74
218.306	34.3
218.524	7.68
218.742	-18.94
218.96	-18.94
219.179	-0.51
219.397	46.59
219.615	-0.51
219.833	81.41
220.051	-35.33
220.27	-10.75
220.488	-25.09
220.706	-55.81
220.924	-27.14
221.142	-70.14
221.36	30.21
221.578	-33.28
221.796	7.68
222.015	5.63
222.233	-25.09
222.451	34.3
222.669	-27.14
222.887	-8.7
223.105	1.54
223.323	11.78
223.541	28.16
223.759	24.06
223.977	38.4
224.195	62.98
224.413	-16.9
224.631	7.68
224.849	50.69
225.067	3.58
225.285	13.82
225.503	40.45
225.721	40.45
225.939	3.58
226.157	7.68
226.375	103.93
226.592	34.3
226.81	24.06
227.028	22.02
227.246	24.06
227.464	30.21
227.682	-27.14
227.9	36.35
228.117	-4.61
228.335	32.26
228.553	5.63
228.771	-45.57
228.989	-70.14
229.206	22.02
229.424	17.92
229.642	28.16
229.86	34.3
230.077	32.26
230.295	71.17
230.513	30.21
230.731	1.54
230.948	-27.14
231.166	3.58
231.384	17.92
231.601	42.5
231.819	-4.61
232.037	9.73
232.254	-20.99
232.472	52.74
232.689	-55.81
232.907	17.92
233.125	-43.52
233.342	36.35
233.56	-25.09
233.777	-14.85
233.995	65.02
234.213	-45.57
234.43	54.78
234.648	24.06
234.865	3.58
235.083	-4.61
235.3	13.82
235.518	44.54
235.735	-10.75
235.953	22.02
236.17	-33.28
236.388	-12.8
236.605	38.4
236.822	7.68
237.04	15.87
237.257	40.45
237.475	48.64
237.692	26.11
237.909	-18.94
238.127	-31.23
238.344	1.54
238.562	7.68
238.779	-31.23
238.996	73.21
239.214	-33.28
239.431	-4.61
239.648	-18.94
239.865	-23.04
240.083	-27.14
240.3	-31.23
240.517	32.26
240.735	52.74
240.952	30.21
241.169	69.12
241.386	-27.14
241.603	50.69
241.821	-25.09
242.038	42.5
242.255	11.78
242.472	-51.71
242.689	-43.52
242.907	5.63
243.124	36.35
243.341	5.63
243.558	-14.85
243.775	9.73
243.992	-0.51
244.209	50.69
244.426	-33.28
244.643	44.54
244.86	32.26
245.078	65.02
245.295	97.79
245.512	17.92
245.729	-10.75
245.946	-51.71
246.163	-27.14
246.38	124.41
246.597	-53.76
246.814	46.59
247.031	7.68
247.248	38.4
247.464	-8.7
247.681	32.26
247.898	-47.62
248.115	50.69
248.332	-37.38
248.549	28.16
248.766	-0.51
248.983	56.83
249.2	24.06
249.417	62.98
249.633	-16.9
249.85	5.63
250.067	-41.47
250.284	22.02
250.501	38.4
250.717	11.78
250.934	-12.8
251.151	54.78
251.368	-14.85
251.585	34.3
251.801	-113.15
252.018	-8.7
252.235	81.41
252.451	-45.57
252.668	9.73
252.885	48.64
253.102	-23.04
253.318	67.07
253.535	-8.7
253.752	-55.81
253.968	-20.99
254.185	15.87
254.401	30.21
254.618	3.58
254.835	13.82
255.051	-18.94
255.268	19.97
255.484	9.73
255.701	-78.33
255.917	60.93
256.134	-33.28
256.351	58.88
256.567	7.68
256.784	5.63
257	62.98
257.217	13.82
257.433	-10.75
257.65	48.64
257.866	75.26
258.082	-57.86
258.299	-4.61
258.515	15.87
258.732	15.87
258.948	13.82
259.165	34.3
259.381	40.45
259.597	-18.94
259.814	26.11
260.03	9.73
260.246	-41.47
260.463	11.78
260.679	5.63
260.895	19.97
261.112	52.74
261.328	-80.38
261.544	-14.85
261.761	-12.8
261.977	40.45
262.193	-25.09
262.409	73.21
262.626	-45.57
262.842	7.68
263.058	71.17
263.274	54.78
263.49	28.16
263.707	17.92
263.923	-53.76
264.139	-31.23
264.355	-12.8
264.571	24.06
264.787	-78.33
265.004	7.68
265.22	7.68
265.436	26.11
265.652	-68.09
265.868	38.4
266.084	1.54
266.3	40.45
266.516	-12.8
266.732	58.88
266.948	17.92
267.164	32.26
267.38	-27.14
267.596	3.58
267.812	32.26
268.028	-10.75
268.244	17.92
268.46	91.65
268.676	-0.51
268.892	24.06
269.108	56.83
269.324	69.12
269.54	-25.09
269.756	30.21
269.972	11.78
270.188	-8.7
270.403	22.02
270.619	-4.61
270.835	75.26
271.051	54.78
271.267	-14.85
271.483	19.97
271.698	15.87
271.914	42.5
272.13	5.63
272.346	-14.85
272.562	22.02
272.777	38.4
272.993	-53.76
273.209	-35.33
273.425	-27.14
273.64	28.16
273.856	60.93
274.072	103.93
274.287	30.21
274.503	9.73
274.719	-6.66
274.934	30.21
275.15	-6.66
275.366	7.68
275.581	17.92
275.797	-6.66
276.012	36.35
276.228	52.74
276.444	-14.85
276.659	-8.7
276.875	-2.56
277.09	38.4
277.306	40.45
277.521	19.97
277.737	40.45
277.952	62.98
278.168	-20.99
278.383	56.83
278.599	-31.23
278.814	91.65
279.03	-2.56
279.245	46.59
279.461	-51.71
279.676	56.83
279.892	44.54
280.107	-37.38
280.322	9.73
280.538	24.06
280.753	40.45
280.969	-2.56
281.184	17.92
281.399	11.78
281.615	19.97
281.83	13.82
282.045	15.87
282.26	-10.75
282.476	-12.8
282.691	26.11
282.906	19.97
283.122	54.78
283.337	-18.94
283.552	-53.76
283.767	26.11
283.983	34.3
284.198	-23.04
284.413	-18.94
284.628	-16.9
284.843	50.69
285.058	-23.04
285.274	13.82
285.489	-8.7
285.704	28.16
285.919	9.73
286.134	-10.75
286.349	30.21
286.564	46.59
286.779	-8.7
286.995	22.02
287.21	-14.85
287.425	5.63
287.64	30.21
287.855	-10.75
288.07	7.68
288.285	83.45
288.5	28.16
288.715	-10.75
288.93	9.73
289.145	-2.56
289.36	-18.94
289.575	17.92
289.79	19.97
290.004	-39.42
290.219	48.64
290.434	15.87
290.649	-68.09
290.864	-0.51
291.079	-4.61
291.294	-10.75
291.509	-18.94
291.724	40.45
291.938	65.02
292.153	26.11
292.368	-59.9
292.583	40.45
292.798	9.73
293.012	-0.51
293.227	5.63
293.442	7.68
293.657	-2.56
293.871	42.5
294.086	26.11
294.301	26.11
294.516	-37.38
294.73	46.59
294.945	38.4
295.16	-16.9
295.374	15.87
295.589	-25.09
295.804	5.63
296.018	-70.14
296.233	42.5
296.447	-18.94
296.662	-59.9
296.877	13.82
297.091	9.73
297.306	7.68
297.52	17.92
297.735	44.54
297.949	28.16
298.164	1.54
298.378	-49.66
298.593	-47.62
298.807	54.78
299.022	87.55
299.236	-14.85
299.451	26.11
299.665	17.92
299.88	89.6
300.094	30.21
300.309	60.93
300.523	-33.28
300.737	83.45
300.952	32.26
301.166	46.59
301.381	46.59
301.595	-8.7
301.809	48.64
302.024	-16.9
302.238	-49.66
302.452	-6.66
302.667	85.5
302.881	22.02
303.095	52.74
303.309	48.64
303.524	-100.86
303.738	9.73
303.952	17.92
304.166	30.21
304.381	-20.99
304.595	13.82
304.809	-35.33
305.023	50.69
305.237	-8.7
305.452	24.06
305.666	65.02
305.88	60.93
306.094	-25.09
306.308	5.63
306.522	-2.56
306.736	38.4
306.95	-2.56
307.164	24.06
307.379	73.21
307.593	9.73
307.807	28.16
308.021	19.97
308.235	15.87
308.449	38.4
308.663	-25.09
308.877	-6.66
309.091	-66.05
309.305	50.69
309.519	36.35
309.733	9.73
309.947	-23.04
310.161	-49.66
310.374	-8.7
310.588	75.26
310.802	46.59
311.016	-45.57
311.23	7.68
311.444	22.02
311.658	15.87
311.872	105.98
312.085	15.87
312.299	50.69
312.513	24.06
312.727	40.45
312.941	-4.61
313.154	48.64
313.368	-70.14
313.582	44.54
313.796	-14.85
314.009	24.06
314.223	-6.66
314.437	-16.9
314.651	58.88
314.864	58.88
315.078	1.54
315.292	-18.94
315.505	-12.8
315.719	9.73
315.933	-35.33
316.146	13.82
316.36	-25.09
316.573	11.78
316.787	-35.33
317.001	22.02
317.214	-10.75
317.428	9.73
317.641	-47.62
317.855	9.73
318.068	-45.57
318.282	50.69
318.495	83.45
318.709	105.98
318.922	79.36
319.136	-16.9
319.349	9.73
319.563	-18.94
319.776	52.74
319.99	-0.51
320.203	54.78
320.417	38.4
320.63	22.02
320.843	28.16
321.057	-33.28
321.27	5.63
321.483	54.78
321.697	40.45
321.91	-4.61
322.124	-29.18
322.337	44.54
322.55	15.87
322.763	17.92
322.977	65.02
323.19	-59.9
323.403	54.78
323.617	-16.9
323.83	-2.56
324.043	-8.7
324.256	58.88
324.469	-37.38
324.683	73.21
324.896	32.26
325.109	46.59
325.322	-47.62
325.535	28.16
325.748	17.92
325.962	73.21
326.175	38.4
326.388	9.73
326.601	22.02
326.814	15.87
327.027	50.69
327.24	30.21
327.453	-8.7
327.666	44.54
327.879	15.87
328.092	9.73
328.305	3.58
328.518	17.92
328.731	-10.75
328.944	56.83
329.157	54.78
329.37	-33.28
329.583	5.63
329.796	13.82
330.009	-8.7
330.222	54.78
330.435	11.78
330.648	-45.57
330.861	-6.66
331.073	7.68
331.286	11.78
331.499	38.4
331.712	3.58
331.925	3.58
332.138	-35.33
332.35	48.64
332.563	58.88
332.776	19.97
332.989	-45.57
333.202	13.82
333.414	9.73
333.627	13.82
333.84	38.4
334.053	50.69
334.265	17.92
334.478	-8.7
334.691	42.5
334.903	13.82
335.116	22.02
335.329	7.68
335.541	-12.8
335.754	67.07
335.966	-8.7
336.179	-64
336.392	36.35
336.604	-20.99
336.817	36.35
337.029	50.69
337.242	110.08
337.454	79.36
337.667	56.83
337.88	77.31
338.092	54.78
338.305	95.74
338.517	28.16
338.729	38.4
338.942	-39.42
339.154	44.54
339.367	46.59
339.579	-18.94
339.792	56.83
340.004	-12.8
340.217	-0.51
340.429	-8.7
340.641	67.07
340.854	99.84
341.066	-16.9
341.278	60.93
341.491	42.5
341.703	46.59
341.915	-31.23
342.128	-16.9
342.34	-59.9
342.552	81.41
342.764	19.97
342.977	-4.61
343.189	24.06
343.401	-6.66
343.613	28.16
343.826	1.54
344.038	5.63
344.25	54.78
344.462	103.93
344.674	56.83
344.886	3.58
345.099	22.02
345.311	-78.33
345.523	-10.75
345.735	-14.85
345.947	-43.52
346.159	17.92
346.371	46.59
346.583	7.68
346.795	62.98
347.007	81.41
347.219	-4.61
347.431	15.87
347.643	99.84
347.855	-45.57
348.067	34.3
348.279	32.26
348.491	5.63
348.703	-47.62
348.915	81.41
349.127	34.3
349.339	-16.9
349.551	-12.8
349.763	48.64
349.975	52.74
350.187	77.31
350.399	54.78
350.61	38.4
350.822	-8.7
351.034	34.3
351.246	19.97
351.458	34.3
351.669	24.06
351.881	-43.52
352.093	44.54
352.305	28.16
352.517	89.6
352.728	19.97
352.94	50.69
353.152	-2.56
353.363	60.93
353.575	71.17
353.787	11.78
353.999	-43.52
354.21	105.98
354.422	-23.04
354.633	71.17
354.845	13.82
355.057	32.26
355.268	9.73
355.48	28.16
355.692	-27.14
355.903	42.5
356.115	56.83
356.326	7.68
356.538	28.16
356.749	32.26
356.961	22.02
357.172	17.92
357.384	15.87
357.595	26.11
357.807	73.21
358.018	-51.71
358.23	-14.85
358.441	32.26
358.653	65.02
358.864	7.68
359.075	-20.99
359.287	36.35
359.498	22.02
359.709	17.92
359.921	13.82
360.132	7.68
360.344	9.73
360.555	60.93
360.766	44.54
360.977	52.74
361.189	50.69
361.4	-8.7
361.611	65.02
361.823	-0.51
362.034	77.31
362.245	-14.85
362.456	11.78
362.667	-43.52
362.879	48.64
363.09	-23.04
363.301	-16.9
363.512	13.82
363.723	34.3
363.935	1.54
364.146	56.83
364.357	13.82
364.568	-6.66
364.779	11.78
364.99	42.5
365.201	-6.66
365.412	-12.8
365.623	54.78
365.834	54.78
366.045	-18.94
366.256	-27.14
366.467	24.06
366.678	22.02
366.889	-27.14
367.1	87.55
367.311	67.07
367.522	13.82
367.733	24.06
367.944	46.59
368.155	5.63
368.366	22.02
368.577	32.26
368.788	-4.61
368.999	30.21
369.209	87.55
369.42	79.36
369.631	46.59
369.842	-14.85
370.053	50.69
370.264	-25.09
370.474	46.59
370.685	-2.56
370.896	-2.56
371.107	5.63
371.317	69.12
371.528	-0.51
371.739	24.06
371.95	75.26
372.16	26.11
372.371	24.06
372.582	30.21
372.792	44.54
373.003	-0.51
373.214	-43.52
373.424	-0.51
373.635	56.83
373.846	1.54
374.056	-43.52
374.267	48.64
374.477	42.5
374.688	-27.14
374.898	30.21
375.109	46.59
375.319	-4.61
375.53	48.64
375.74	67.07
375.951	-57.86
376.161	46.59
376.372	11.78
376.582	65.02
376.793	13.82
377.003	-0.51
377.214	-33.28
377.424	50.69
377.635	11.78
377.845	17.92
378.055	38.4
378.266	36.35
378.476	22.02
378.686	-25.09
378.897	9.73
379.107	44.54
379.317	93.69
379.528	3.58
379.738	-2.56
379.948	24.06
380.158	62.98
380.369	-39.42
380.579	3.58
380.789	-80.38
380.999	13.82
381.21	62.98
381.42	50.69
381.63	24.06
381.84	65.02
382.05	116.22
382.261	62.98
382.471	7.68
382.681	30.21
382.891	11.78
383.101	34.3
383.311	65.02
383.521	9.73
383.731	22.02
383.941	38.4
384.151	-14.85
384.361	81.41
384.571	28.16
384.781	13.82
384.991	46.59
385.201	28.16
385.411	-33.28
385.621	95.74
385.831	-2.56
386.041	71.17
386.251	44.54
386.461	15.87
386.671	36.35
386.881	7.68
387.091	40.45
387.301	83.45
387.511	22.02
387.72	58.88
387.93	38.4
388.14	1.54
388.35	54.78
388.56	19.97
388.769	32.26
388.979	17.92
389.189	19.97
389.399	77.31
389.609	32.26
389.818	87.55
390.028	32.26
390.238	11.78
390.447	54.78
390.657	89.6
390.867	38.4
391.076	17.92
391.286	54.78
391.496	58.88
391.705	9.73
391.915	46.59
392.125	65.02
392.334	85.5
392.544	148.99
392.753	118.27
392.963	30.21
393.172	93.69
393.382	22.02
393.591	48.64
393.801	-4.61
394.01	5.63
394.22	54.78
394.429	-16.9
394.639	60.93
394.848	87.55
395.058	28.16
395.267	103.93
395.477	22.02
395.686	67.07
395.895	32.26
396.105	87.55
396.314	-10.75
396.524	105.98
396.733	36.35
396.942	91.65
397.152	87.55
397.361	108.03
397.57	71.17
397.78	62.98
397.989	120.32
398.198	73.21
398.407	36.35
398.617	32.26
398.826	48.64
399.035	40.45
399.244	65.02
399.453	67.07
399.663	65.02
399.872	30.21
400.081	91.65
400.29	67.07
400.499	60.93
400.708	99.84
400.917	42.5
401.127	42.5
401.336	101.89
401.545	89.6
401.754	58.88
401.963	116.22
402.172	105.98
402.381	38.4
402.59	87.55
402.799	28.16
403.008	58.88
403.217	128.51
403.426	122.37
403.635	118.27
403.844	65.02
404.053	91.65
404.262	67.07
404.471	24.06
404.68	54.78
404.888	62.98
405.097	85.5
405.306	112.13
405.515	83.45
405.724	183.81
405.933	17.92
406.142	122.37
406.35	97.79
406.559	118.27
406.768	108.03
406.977	161.28
407.185	108.03
407.394	159.23
407.603	126.46
407.812	153.09
408.02	89.6
408.229	89.6
408.438	194.05
408.646	95.74
408.855	148.99
409.064	146.94
409.272	144.89
409.481	126.46
409.69	134.65
409.898	192
410.107	155.13
410.315	218.62
410.524	214.52
410.733	155.13
410.941	146.94
411.15	275.96
411.358	222.72
411.567	216.57
411.775	187.9
411.984	204.28
412.192	337.4
412.401	245.24
412.609	300.54
412.818	310.78
413.026	257.53
413.234	292.35
413.443	341.5
413.651	288.25
413.86	257.53
414.068	294.4
414.276	382.46
414.485	310.78
414.693	374.27
414.901	384.51
415.11	423.42
415.318	409.08
415.526	447.99
415.734	417.27
415.943	491
416.151	456.19
416.359	546.3
416.567	480.76
416.776	611.83
416.984	570.87
417.192	593.4
417.4	620.02
417.608	509.43
417.817	703.99
418.025	579.06
418.233	671.22
418.441	683.51
418.649	747
418.857	749.04
419.065	800.24
419.273	771.57
419.481	837.11
419.689	796.15
419.897	959.99
420.105	871.92
420.313	992.75
420.521	959.99
420.729	1027.57
420.937	1068.53
421.145	988.66
421.353	1105.39
421.561	1115.63
421.769	1162.73
421.977	1267.18
422.185	1230.32
422.393	1324.52
422.601	1398.25
422.809	1289.71
423.017	1390.06
423.224	1488.36
423.432	1371.63
423.64	1500.65
423.848	1629.67
424.056	1601
424.263	1650.15
424.471	1783.27
424.679	1787.36
424.887	1777.12
425.094	1943.01
425.302	1936.87
425.51	1967.59
425.718	1971.68
425.925	2084.32
426.133	2131.42
426.341	2256.35
426.548	2276.83
426.756	2307.55
426.964	2301.4
427.171	2516.44
427.379	2577.88
427.586	2725.33
427.794	2655.7
428.001	2760.15
428.209	2917.84
428.417	2979.28
428.624	3141.07
428.832	3003.86
429.039	3069.39
429.247	2950.61
429.454	3429.84
429.662	3579.34
429.869	3407.31
430.076	3646.92
430.284	3511.75
430.491	3614.15
430.699	3913.16
430.906	3741.13
431.114	3950.02
431.321	4136.38
431.528	4261.31
431.736	4203.97
431.943	4539.83
432.15	4421.05
432.358	4548.03
432.565	4683.19
432.772	4806.07
432.979	4836.79
433.187	5070.26
433.394	5135.79
433.601	5350.83
433.808	5490.09
434.016	5430.7
434.223	5625.26
434.43	5911.97
434.637	5780.9
434.844	6208.93
435.052	6335.9
435.259	6460.83
435.466	6546.84
435.673	6337.95
435.88	6849.94
436.087	7085.46
436.294	7200.15
436.501	6948.25
436.708	7097.75
436.915	7308.69
437.122	7558.54
437.329	7683.47
437.537	7765.39
437.743	8183.17
437.95	7914.89
438.157	8277.38
438.364	8678.78
438.571	8527.23
438.778	8603
438.985	9352.56
439.192	9266.55
439.399	9375.09
439.606	9055.61
439.813	9618.8
440.02	10323.3
440.227	10202.47
440.433	10065.25
440.64	10499.42
440.847	10425.7
441.054	10536.29
441.261	11191.64
441.467	11187.54
441.674	11431.25
441.881	11814.22
442.088	11634
442.294	11668.81
442.501	11863.37
442.708	12164.42
442.914	12764.48
443.121	13210.93
443.328	12965.18
443.534	13933.87
443.741	13419.83
443.948	13448.5
444.154	14171.43
444.361	14208.3
444.568	14251.3
444.774	14275.88
444.981	14470.44
445.187	15138.07
445.394	15744.27
445.6	15533.33
445.807	16590.08
446.013	16254.22
446.22	16205.06
446.426	17020.16
446.633	17048.83
446.839	17595.64
447.046	17339.64
447.252	18007.28
447.459	18148.59
447.665	18197.74
447.871	19193.05
448.078	19776.72
448.284	18717.92
448.491	19244.25
448.697	20456.65
448.903	20399.3
449.11	20583.62
449.316	20159.69
449.522	20776.13
449.728	20966.59
449.935	21353.66
450.141	21212.35
450.347	21728.44
450.553	21380.28
450.76	21312.7
450.966	22238.38
451.172	22037.68
451.378	22496.42
451.584	21900.47
451.791	22631.59
451.997	22457.51
452.203	22977.7
452.409	22979.75
452.615	22920.35
452.821	22076.59
453.027	21953.71
453.233	23047.33
453.44	21918.9
453.646	22258.86
453.852	22557.86
454.058	22748.32
454.264	22381.74
454.47	22701.22
454.676	22217.9
454.882	22713.51
455.088	21105.85
455.294	21107.9
455.5	21437.62
455.705	21834.93
455.911	21095.61
456.117	20458.7
456.323	20098.25
456.529	19274.97
456.735	19981.52
456.941	19379.42
457.147	19045.6
457.352	18480.36
457.558	18599.14
457.764	18498.79
457.97	18255.08
458.176	17773.81
458.381	17831.15
458.587	16616.71
458.793	16737.54
458.999	15961.36
459.204	17300.73
459.41	16753.92
459.616	15494.42
459.821	15521.04
460.027	15412.5
460.233	15170.84
460.438	14441.76
460.644	14415.14
460.85	13755.69
461.055	13561.14
461.261	13712.69
461.466	12631.36
461.672	12408.13
461.878	13010.23
462.083	12213.57
462.289	12084.55
462.494	11773.26
462.7	11371.86
462.905	11058.52
463.111	11339.09
463.316	11650.38
463.522	11466.07
463.727	11318.61
463.932	11408.72
464.138	11158.87
464.343	11144.53
464.549	10718.56
464.754	11369.81
464.959	11074.9
465.165	11234.64
465.37	10554.72
465.575	10337.63
465.781	10927.45
465.986	10990.94
466.191	10261.86
466.397	10227.04
466.602	9868.65
466.807	10138.98
467.012	10093.93
467.218	10220.9
467.423	9944.42
467.628	10106.21
467.833	10450.27
468.038	10003.82
468.244	9848.17
468.449	10106.21
468.654	10042.73
468.859	9913.7
469.064	9590.13
469.269	9340.27
469.474	9307.51
469.679	9633.13
469.885	9291.12
470.09	9530.73
470.295	9207.16
470.5	9074.04
470.705	9348.47
470.91	9043.32
471.115	8969.59
471.32	9049.46
471.525	9160.05
471.73	8537.47
471.935	8576.38
472.139	8445.31
472.344	8580.48
472.549	8607.1
472.754	8314.24
472.959	8299.91
473.164	8056.2
473.369	8033.67
473.574	8244.61
473.778	8107.4
473.983	8095.11
474.188	8127.88
474.393	7568.78
474.598	7687.56
474.802	7671.18
475.007	7769.48
475.212	7675.27
475.417	7159.19
475.621	7329.17
475.826	7470.48
476.031	7150.99
476.235	6985.11
476.44	7189.91
476.645	7026.07
476.849	7148.95
477.054	6995.35
477.259	6788.5
477.463	6993.3
477.668	6808.98
477.872	6657.43
478.077	6682.01
478.282	6495.64
478.486	6538.65
478.691	6567.32
478.895	6452.64
479.1	6534.56
479.304	6399.39
479.509	6270.37
479.713	6407.58
479.918	6141.35
480.122	6012.32
480.326	6272.42
480.531	6157.73
480.735	5963.17
480.94	6086.05
481.144	6137.25
481.348	6055.33
481.553	6106.53
481.757	5916.07
481.961	6004.13
482.166	6143.39
482.37	5944.74
482.574	5848.49
482.778	5995.94
482.983	6034.85
483.187	6028.71
483.391	6032.8
483.595	5836.2
483.8	6069.67
484.004	5899.69
484.208	5916.07
484.412	5817.77
484.616	5973.41
484.821	5957.03
485.025	5873.06
485.229	6000.04
485.433	5995.94
485.637	5967.27
485.841	5969.32
486.045	5879.21
486.249	6067.62
486.453	6088.1
486.657	5858.73
486.861	5985.7
487.065	5789.1
487.269	5930.41
487.473	5823.91
487.677	6032.8
487.881	5969.32
488.085	5871.01
488.289	5954.98
488.493	6122.91
488.697	5977.51
488.901	5926.31
489.105	6086.05
489.309	6036.9
489.512	5985.7
489.716	5981.6
489.92	6096.29
490.124	5877.16
490.328	6419.87
490.531	6067.62
490.735	6165.92
490.939	6139.3
491.143	6198.69
491.346	6174.11
491.55	6272.42
491.754	6325.66
491.958	6335.9
492.161	6264.22
492.365	6428.06
492.569	6184.35
492.772	6401.44
492.976	6325.66
493.18	6495.64
493.383	6585.76
493.587	6557.08
493.79	6608.28
493.994	6315.42
494.197	6653.34
494.401	6577.56
494.605	6643.1
494.808	6839.7
495.012	6966.68
495.215	6907.29
495.419	6788.5
495.622	6958.49
495.825	6784.41
496.029	7048.6
496.232	7148.95
496.436	7214.48
496.639	7300.5
496.843	7302.54
497.046	7335.31
497.249	7433.61
497.453	7591.31
497.656	7560.59
497.859	7656.84
498.063	7691.66
498.266	7904.65
498.469	7988.61
498.673	8021.38
498.876	8142.21
499.079	8123.78
499.282	8093.06
499.485	8201.6
499.689	8443.26
499.892	8576.38
500.095	8723.83
500.298	8777.08
500.501	8715.64
500.705	8981.88
500.908	9133.43
501.111	9186.68
501.314	9379.18
501.517	9626.99
501.72	9485.68
501.923	9442.67
502.126	9618.8
502.329	9917.8
502.532	9885.03
502.735	9946.47
502.938	10392.93
503.141	10235.24
503.344	10478.94
503.547	10558.81
503.75	10700.12
503.953	10763.61
504.156	10886.49
504.359	11099.48
504.562	10984.79
504.765	11490.64
504.968	11517.26
505.17	11664.72
505.373	11695.44
505.576	11879.75
505.779	12041.54
505.982	12096.84
506.185	12096.84
506.387	12436.8
506.59	12410.18
506.793	12680.51
506.996	12791.1
507.198	13178.17
507.401	12926.27
507.604	13284.66
507.807	13538.61
508.009	13501.75
508.212	13866.28
508.415	13817.13
508.617	13829.42
508.82	14374.18
509.022	14142.76
509.225	14802.21
509.428	14654.75
509.63	14804.25
509.833	14839.07
510.035	15154.46
510.238	15252.76
510.44	15693.07
510.643	15426.84
510.845	15904.01
511.048	15889.68
511.25	15936.78
511.453	16045.32
511.655	16583.94
511.858	16479.49
512.06	16928
512.262	17071.36
512.465	17134.84
512.667	17417.46
512.87	17609.97
513.072	17577.2
513.274	17923.31
513.477	18064.62
513.679	18203.88
513.881	18666.72
514.084	19037.41
514.286	18769.12
514.488	18988.25
514.69	19508.44
514.893	19440.86
515.095	19682.52
515.297	20006.09
515.499	19797.2
515.701	20233.42
515.904	20487.37
516.106	20612.29
516.308	20806.85
516.51	21339.32
516.712	21226.68
516.914	21320.89
517.116	21849.27
517.318	21927.09
517.52	21859.51
517.722	21947.57
517.925	22451.37
518.127	22729.89
518.329	22725.8
518.531	22793.38
518.733	23465.11
518.935	23155.87
519.136	23493.79
519.338	23800.98
519.54	23729.3
519.742	24368.27
519.944	24142.99
520.146	24513.67
520.348	24870.02
520.55	25091.2
520.752	25080.96
520.954	25638.01
521.155	25586.81
521.357	25791.61
521.559	25744.5
521.761	26723.43
521.963	26276.98
522.164	26555.5
522.366	26696.81
522.568	27077.73
522.77	27032.68
522.971	27303.01
523.173	27448.41
523.375	27995.22
523.576	27765.85
523.778	27649.11
523.98	28298.32
524.181	28066.9
524.383	28695.63
524.584	28658.76
524.786	28705.87
524.988	28474.45
525.189	28978.25
525.391	29344.83
525.592	29662.27
525.794	29776.95
525.995	29396.03
526.197	29715.51
526.398	29674.56
526.6	29762.62
526.801	30129.2
527.003	30395.44
527.204	30164.02
527.406	30647.34
527.607	30553.13
527.808	30794.79
528.01	30282.8
528.211	30542.89
528.412	31573.02
528.614	30948.39
528.815	31071.27
529.016	31329.31
529.218	31294.5
529.419	31296.55
529.62	31411.23
529.822	31360.03
530.023	31276.07
530.224	31671.32
530.425	31564.83
530.626	31521.82
530.828	31601.69
531.029	32187.41
531.23	31927.32
531.431	31728.67
531.632	32201.75
531.833	32013.34
532.035	32048.15
532.236	32017.43
532.437	32398.35
532.638	32101.4
532.839	32492.56
533.04	32281.62
533.241	31992.86
533.442	32525.33
533.643	32422.93
533.844	32373.78
534.045	32357.39
534.246	32150.55
534.447	32326.67
534.648	32478.22
534.849	32353.3
535.05	32250.9
535.251	32519.18
535.451	32224.28
535.652	33002.5
535.853	32666.64
536.054	32543.76
536.255	32496.66
536.456	31962.14
536.657	32652.3
536.857	32324.63
537.058	32261.14
537.259	32666.64
537.46	32740.36
537.66	32494.61
537.861	32719.88
538.062	32273.43
538.263	32517.14
538.463	32576.53
538.664	32457.74
538.865	32695.31
539.065	32461.84
539.266	32504.85
539.466	32789.52
539.667	32195.6
539.868	32826.38
540.068	32543.76
540.269	32707.6
540.469	32875.53
540.67	32447.5
540.87	32576.53
541.071	32474.13
541.271	32537.62
541.472	32369.68
541.672	32515.09
541.873	32347.15
542.073	32429.07
542.274	32826.38
542.474	32330.77
542.675	32384.02
542.875	32592.91
543.075	32250.9
543.276	31955.99
543.476	32437.27
543.676	32375.83
543.877	32517.14
544.077	32619.53
544.277	32361.49
544.478	32599.05
544.678	32496.66
544.878	32302.1
545.078	32252.95
545.279	32338.96
545.479	32394.26
545.679	32439.31
545.879	32195.6
546.079	32373.78
546.28	32275.48
546.48	32173.08
546.68	32486.42
546.88	32521.23
547.08	32697.36
547.28	32388.11
547.48	32119.83
547.68	32144.41
547.88	32504.85
548.081	32949.26
548.281	32216.08
548.481	32158.74
548.681	32807.95
548.881	32234.52
549.081	32369.68
549.28	32191.51
549.48	32338.96
549.68	32109.59
549.88	32449.55
550.08	31931.42
550.28	32406.55
550.48	32236.56
550.68	32259.09
550.88	31720.48
551.08	32310.29
551.279	32267.28
551.479	32400.4
551.679	32150.55
551.879	32093.21
552.079	32115.73
552.278	32060.44
552.478	32005.14
552.678	31999
552.878	32150.55
553.077	32060.44
553.277	31632.41
553.477	32289.81
553.676	32074.77
553.876	31915.03
554.076	31751.2
554.275	31806.49
554.475	31601.69
554.674	32105.49
554.874	31990.81
555.074	31671.32
555.273	32025.62
555.473	32279.57
555.672	31765.53
555.872	31566.88
556.071	31986.71
556.271	32115.73
556.47	31429.66
556.67	31689.76
556.869	31194.15
557.068	31427.62
557.268	31231.01
557.467	31581.21
557.667	31745.05
557.866	31190.05
558.065	31372.32
558.265	31327.27
558.464	31231.01
558.663	31460.38
558.863	31188
559.062	31433.76
559.261	31145
559.461	31458.34
559.66	31009.83
559.859	31542.3
560.058	30778.41
560.258	31009.83
560.457	30913.58
560.656	31022.12
560.855	30618.67
561.054	30606.38
561.253	30581.81
561.453	30542.89
561.652	30839.85
561.851	31216.68
562.05	30813.23
562.249	30430.26
562.448	30737.45
562.647	30776.36
562.846	30516.27
563.045	30475.31
563.244	30129.2
563.443	30719.02
563.642	29850.68
563.841	30172.21
564.04	30479.41
564.239	30708.78
564.438	29953.08
564.637	30274.61
564.836	30366.77
565.035	29574.2
565.234	30127.16
565.432	29434.94
565.631	29635.64
565.83	29815.87
566.029	29383.74
566.228	29541.44
566.427	29649.98
566.625	29307.97
566.824	29129.8
567.023	29260.87
567.222	29051.97
567.42	29373.5
567.619	29205.57
567.818	29168.71
568.016	28804.17
568.215	29236.29
568.414	28877.9
568.612	29023.3
568.811	29256.77
569.01	28730.44
569.208	28478.54
569.407	28605.52
569.605	28333.14
569.804	28871.75
570.002	28517.45
570.201	28486.73
570.4	28171.35
570.598	28030.04
570.797	28271.7
570.995	28245.07
571.193	27487.32
571.392	28353.62
571.59	27683.93
571.789	27886.68
571.987	27403.36
572.186	27589.72
572.384	27614.3
572.582	27300.96
572.781	27841.62
572.979	27362.4
573.177	27722.84
573.376	27530.33
573.574	27341.92
573.772	27206.75
573.971	27319.39
574.169	26938.47
574.367	26520.68
574.565	26842.21
574.763	26795.11
574.962	26567.79
575.16	26657.9
575.358	26672.23
575.556	26219.63
575.754	26799.21
575.952	26186.86
576.151	26373.23
576.349	25984.12
576.547	26399.85
576.745	26186.86
576.943	26223.73
577.141	26213.49
577.339	26264.69
577.537	25691.26
577.735	26082.42
577.933	25523.32
578.131	25939.06
578.329	25818.23
578.527	25339.01
578.725	25521.27
578.923	25500.79
579.121	25455.74
579.319	25558.14
579.516	25465.98
579.714	25480.32
579.912	25230.46
580.11	24847.49
580.308	25070.72
580.506	24876.16
580.704	24525.96
580.901	24908.93
581.099	24861.83
581.297	24226.96
581.495	24642.7
581.692	25087.11
581.89	24474.76
582.088	24671.37
582.285	24423.56
582.483	24452.23
582.681	24388.75
582.878	24063.12
583.076	23891.09
583.274	24196.24
583.471	23911.57
583.669	23762.07
583.866	23764.12
584.064	23663.77
584.262	23409.82
584.459	23835.8
584.657	23508.12
584.854	23403.67
585.052	23434.39
585.249	23442.59
585.447	23442.59
585.644	22994.08
585.841	23473.31
586.039	23389.34
586.236	22803.62
586.434	23192.73
586.631	23184.54
586.828	23032.99
587.026	22668.45
587.223	22625.45
587.42	22576.3
587.618	22666.41
587.815	22207.66
588.012	22465.71
588.21	22133.93
588.407	22682.79
588.604	22508.71
588.801	22113.45
588.999	22170.8
589.196	22164.65
589.393	22133.93
589.59	21933.23
589.787	21787.83
589.984	21783.73
590.182	21636.28
590.379	21675.19
590.576	21417.15
590.773	21673.14
590.97	21609.65
591.167	21734.58
591.364	21497.02
591.561	21288.12
591.758	21329.08
591.955	21312.7
592.152	21337.27
592.349	21144.77
592.546	21269.69
592.743	20841.67
592.94	20692.16
593.137	20677.83
593.334	20933.82
593.531	20763.84
593.727	20958.4
593.924	20563.14
594.121	20350.15
594.318	20559.05
594.515	20188.36
594.712	20518.09
594.908	20331.72
595.105	20188.36
595.302	20229.32
595.499	20053.2
595.696	20090.06
595.892	20006.09
596.089	20229.32
596.286	20120.78
596.482	19952.85
596.679	19887.31
596.876	19825.87
597.072	19684.56
597.269	19606.74
597.466	19510.49
597.662	19309.79
597.859	19514.58
598.055	19584.21
598.252	19344.6
598.448	19395.8
598.645	19360.98
598.841	18928.86
599.038	19133.66
599.234	19111.13
599.431	18941.15
599.627	18722.02
599.824	19242.2
600.02	18746.59
600.217	18928.86
600.413	18588.9
600.609	18754.79
600.806	18625.76
601.002	18584.8
601.198	18552.04
601.395	18449.64
601.591	18283.75
601.787	18255.08
601.984	18179.31
602.18	18588.9
602.376	18306.28
602.572	18117.87
602.769	18064.62
602.965	17804.53
603.161	18042.09
603.357	17818.86
603.553	17880.3
603.75	17820.91
603.946	17775.86
604.142	17927.41
604.338	17695.99
604.534	17816.82
604.73	17409.27
604.926	17587.44
605.122	17683.7
605.318	17282.3
605.514	17237.24
605.71	17450.23
605.906	17183.99
606.102	17169.66
606.298	17112.31
606.494	17005.82
606.69	17014.01
606.886	16907.52
607.082	16852.22
607.278	16919.81
607.474	16596.23
607.67	16743.68
607.866	16624.9
608.062	17112.31
608.257	16614.66
608.453	16729.34
608.649	16667.91
608.845	16549.12
609.041	16790.78
609.236	16475.4
609.432	16350.47
609.628	16424.2
609.824	16348.42
610.019	16348.42
610.215	16360.71
610.411	16209.16
610.606	16213.26
610.802	16387.33
610.998	16090.38
611.193	16397.57
611.389	16016.65
611.584	15957.26
611.78	16030.99
611.976	15873.29
612.171	16059.66
612.367	16024.84
612.562	15879.44
612.758	15492.37
612.953	15691.02
613.149	16022.8
613.344	15639.83
613.539	15963.4
613.735	15551.76
613.93	15867.15
614.126	15580.43
614.321	15650.07
614.517	15508.76
614.712	15564.05
614.907	15660.31
615.103	15508.76
615.298	15349.01
615.493	15607.06
615.688	15232.28
615.884	15617.3
616.079	15099.16
616.274	15197.46
616.47	15072.54
616.665	15236.38
616.86	15131.93
617.055	15107.35
617.25	15199.51
617.445	15256.86
617.641	14798.11
617.836	14771.49
618.031	14701.86
618.226	15023.39
618.421	14611.75
618.616	14818.59
618.811	14279.97
619.006	14515.49
619.201	14431.52
619.396	14425.38
619.591	14236.97
619.786	14548.26
619.981	14331.17
620.176	14517.54
620.371	14087.47
620.566	14175.53
620.761	13907.24
620.956	14236.97
621.151	13751.6
621.346	13905.2
621.541	13827.37
621.735	14001.45
621.93	13718.83
622.125	13798.7
622.32	13454.64
622.515	13458.74
622.709	13763.89
622.904	13362.48
623.099	13278.52
623.294	13131.06
623.488	13360.44
623.683	13387.06
623.878	13018.43
624.072	13028.67
624.267	12959.03
624.462	12926.27
624.656	12815.68
624.851	12787
625.046	12444.99
625.24	12719.42
625.435	12449.09
625.629	12367.17
625.824	12391.75
626.018	12350.79
626.213	11918.67
626.407	12379.46
626.602	11910.47
626.796	12041.54
626.991	11939.15
627.185	12037.45
627.38	11795.79
627.574	11853.13
627.768	11523.41
627.963	11566.42
628.157	11386.19
628.352	11365.71
628.546	11363.67
628.74	11394.39
628.935	11433.3
629.129	11445.59
629.323	11072.86
629.517	11015.51
629.712	11126.1
629.906	11392.34
630.1	10954.07
630.294	11115.86
630.489	10855.77
630.683	10886.49
630.877	10706.27
631.071	10700.12
631.265	10882.39
631.459	10765.66
631.653	10640.73
631.848	10577.25
632.042	10575.2
632.236	10507.62
632.43	10212.71
632.624	10470.75
632.818	10311.01
633.012	10071.4
633.206	10012.01
633.4	10114.41
633.594	10159.46
633.788	9852.27
633.982	9856.36
634.176	9962.86
634.369	9876.84
634.563	9919.85
634.757	9788.78
634.951	9770.35
635.145	9614.7
635.339	9778.54
635.533	9549.17
635.726	9504.11
635.92	9330.03
636.114	9264.5
636.308	9495.92
636.501	9338.23
636.695	9262.45
636.889	9139.57
637.083	9168.24
637.276	9061.75
637.47	9166.2
637.664	8981.88
637.857	8922.49
638.051	8820.09
638.244	8670.59
638.438	8785.27
638.632	8725.88
638.825	8676.73
639.019	8725.88
639.212	8484.22
639.406	8631.68
639.599	8529.28
639.793	8527.23
639.986	8226.18
640.18	8344.96
640.373	8267.14
640.567	8318.34
640.76	8340.86
640.954	8260.99
641.147	8138.12
641.34	7941.51
641.534	8019.33
641.727	8138.12
641.92	8066.44
642.114	8127.88
642.307	7914.89
642.5	7650.7
642.694	7609.74
642.887	7617.93
643.08	7880.07
643.273	7611.79
643.467	7654.8
643.66	7349.65
643.853	7380.37
644.046	7363.98
644.239	7404.94
644.432	7445.9
644.626	7310.74
644.819	7208.34
645.012	7255.44
645.205	7169.43
645.398	7198.1
645.591	7288.21
645.784	7073.17
645.977	7220.63
646.17	6800.79
646.363	6972.82
646.556	6872.47
646.749	6878.62
646.942	6880.66
647.135	6546.84
647.328	6757.78
647.521	6643.1
647.714	6757.78
647.907	6708.63
648.099	6454.69
648.292	6426.01
648.485	6493.6
648.678	6440.35
648.871	6333.86
649.064	6356.38
649.256	6475.17
649.449	6307.23
649.642	6337.95
649.835	6395.29
650.027	6294.94
650.22	6321.57
650.413	6198.69
650.605	6159.78
650.798	6120.87
650.991	5979.56
651.183	6075.81
651.376	5961.13
651.568	5866.92
651.761	5838.25
651.954	5817.77
652.146	5879.21
652.339	5830.06
652.531	5676.46
652.724	5850.53
652.916	5698.99
653.109	5744.04
653.301	5608.87
653.494	5645.74
653.686	5547.44
653.879	5608.87
654.071	5541.29
654.263	5486
654.456	5414.32
654.648	5617.07
654.84	5492.14
655.033	5416.37
655.225	5449.13
655.417	5350.83
655.61	5285.3
655.802	5293.49
655.994	5285.3
656.186	5373.36
656.379	5176.75
656.571	5213.62
656.763	5111.22
656.955	5008.82
657.148	5242.29
657.34	4951.48
657.532	5006.77
657.724	4971.96
657.916	4799.93
658.108	5029.3
658.3	4816.31
658.492	4840.89
658.684	4754.87
658.876	4808.12
659.068	4822.45
659.26	4675
659.452	4732.34
659.644	4728.25
659.836	4646.33
660.028	4656.57
660.22	4666.81
660.412	4699.58
660.604	4482.49
660.796	4591.03
660.988	4556.22
661.18	4406.72
661.372	4591.03
661.563	4431.29
661.755	4349.37
661.947	4552.12
662.139	4298.17
662.331	4441.53
662.522	4304.32
662.714	4244.93
662.906	4169.15
663.097	4263.36
663.289	4285.89
663.481	4230.59
663.673	4279.74
663.864	4109.76
664.056	3993.03
664.247	4152.77
664.439	3982.79
664.631	4158.91
664.822	4025.79
665.014	4091.33
665.205	4103.62
665.397	3958.21
665.588	4048.32
665.78	3917.25
665.971	4015.55
666.163	3771.85
666.354	3921.35
666.546	3718.6
666.737	3626.44
666.929	3737.03
667.12	3714.5
667.311	3618.25
667.503	3728.84
667.694	3739.08
667.885	3640.78
668.077	3648.97
668.268	3558.86
668.459	3741.13
668.651	3694.02
668.842	3601.87
669.033	3399.12
669.224	3440.08
669.416	3663.3
669.607	3581.39
669.798	3356.11
669.989	3519.95
670.18	3505.61
670.371	3446.22
670.563	3395.02
670.754	3501.51
670.945	3292.62
671.136	3405.26
671.327	3485.13
671.518	3464.65
671.709	3278.29
671.9	3364.3
672.091	3245.52
672.282	3261.9
672.473	3345.87
672.664	3276.24
672.855	3245.52
673.046	3184.08
673.237	3395.02
673.428	3163.6
673.619	3347.92
673.809	3282.38
674	3182.03
674.191	3171.79
674.382	3177.94
674.573	3124.69
674.764	3210.7
674.954	3104.21
675.145	3110.35
675.336	3059.15
675.527	3200.46
675.717	3061.2
675.908	3077.59
676.099	3108.3
676.289	3106.26
676.48	3038.67
676.671	3063.25
676.861	3083.73
677.052	2911.7
677.243	3083.73
677.433	2960.85
677.624	3036.63
677.814	3069.39
678.005	2905.56
678.195	2952.66
678.386	2985.43
678.576	2837.97
678.767	2817.49
678.957	2962.9
679.148	3079.63
679.338	2989.52
679.529	2966.99
679.719	2899.41
679.909	2817.49
680.1	2717.14
680.29	2926.04
680.481	2799.06
680.671	2950.61
680.861	2926.04
681.052	2842.07
681.242	2850.26
681.432	2792.92
681.622	2780.63
681.813	2872.79
682.003	2946.52
682.193	2815.45
682.383	2891.22
682.573	2870.74
682.764	2723.29
682.954	2797.01
683.144	2815.45
683.334	2815.45
683.524	2807.25
683.714	2762.2
683.904	2823.64
684.094	2762.2
684.284	2737.62
684.474	2835.92
684.664	2854.36
684.854	2690.52
685.044	2700.76
685.234	2745.81
685.424	2733.53
685.614	2745.81
685.804	2794.97
685.994	2751.96
686.184	2823.64
686.374	2803.16
686.564	2682.33
686.753	2811.35
686.943	2721.24
687.133	2708.95
687.323	2651.61
687.513	2608.6
687.702	2577.88
687.892	2807.25
688.082	2676.18
688.272	2686.42
688.461	2729.43
688.651	2639.32
688.841	2602.46
689.03	2545.11
689.22	2696.66
689.41	2678.23
689.599	2567.64
689.789	2618.84
689.979	2514.39
690.168	2661.85
690.358	2600.41
690.547	2520.54
690.737	2498.01
690.926	2491.87
691.116	2461.15
691.305	2444.76
691.495	2528.73
691.684	2575.83
691.874	2567.64
692.063	2536.92
692.252	2627.03
692.442	2588.12
692.631	2377.18
692.82	2553.31
693.01	2543.07
693.199	2479.58
693.388	2557.4
693.578	2598.36
693.767	2407.9
693.956	2424.28
694.146	2338.27
694.335	2438.62
694.524	2432.47
694.713	2399.71
694.902	2401.76
695.092	2444.76
695.281	2414.04
695.47	2405.85
695.659	2438.62
695.848	2442.71
696.037	2457.05
696.226	2448.86
696.415	2481.63
696.604	2315.74
696.793	2399.71
696.982	2338.27
697.171	2356.7
697.36	2418.14
697.549	2403.8
697.738	2340.32
697.927	2239.97
698.116	2428.38
698.305	2246.11
698.494	2274.78
698.683	2201.05
698.872	2409.95
699.061	2387.42
699.25	2262.49
699.438	2338.27
699.627	2317.79
699.816	2307.55
700.005	2299.36
700.193	2182.62
700.382	2346.46
700.571	2307.55
700.76	2268.64
700.948	2301.4
701.137	2176.48
701.326	2235.87
701.514	2319.84
701.703	2274.78
701.892	2205.15
702.08	2268.64
702.269	2221.53
702.457	2250.21
702.646	2287.07
702.834	2239.97
703.023	2172.38
703.212	2248.16
703.4	2170.33
703.589	2190.81
703.777	2321.88
703.965	2168.29
704.154	2153.95
704.342	2217.44
704.531	2137.57
704.719	2098.66
704.907	2250.21
705.096	2090.46
705.284	2076.13
705.472	2098.66
705.661	2164.19
705.849	2160.1
706.037	2162.14
706.226	2168.29
706.414	2078.18
706.602	1938.91
706.79	2026.98
706.979	2024.93
707.167	2080.22
707.355	2069.98
707.543	2151.9
707.731	2029.03
707.919	2080.22
708.107	1908.19
708.296	2059.74
708.484	2078.18
708.672	2008.55
708.86	2084.32
709.048	2012.64
709.236	2110.94
709.424	2047.46
709.612	1967.59
709.8	2041.31
709.988	2057.7
710.176	1998.31
710.364	1893.86
710.551	2022.88
710.739	2069.98
710.927	2024.93
711.115	1965.54
711.303	1926.63
711.491	1965.54
711.679	1924.58
711.866	2033.12
712.054	1953.25
712.242	1979.87
712.43	1988.07
712.617	1920.48
712.805	1904.1
712.993	1850.85
713.181	1863.14
713.368	1797.6
713.556	1908.19
713.744	1889.76
713.931	1924.58
714.119	1930.72
714.306	1857
714.494	1906.15
714.682	1859.04
714.869	1844.71
715.057	1848.8
715.244	1949.15
715.432	1922.53
715.619	1846.76
715.807	1785.32
715.994	1807.84
716.182	1754.6
716.369	1801.7
716.556	1828.32
716.744	1836.52
716.931	1742.31
717.119	1803.75
717.306	1754.6
717.493	1777.12
717.681	1762.79
717.868	1852.9
718.055	1750.5
718.242	1838.56
718.43	1695.21
718.617	1813.99
718.804	1697.25
718.991	1644.01
719.179	1730.02
719.366	1711.59
719.553	1734.12
719.74	1803.75
719.927	1721.83
720.114	1717.73
720.301	1754.6
720.488	1725.93
720.676	1633.77
720.863	1672.68
721.05	1742.31
721.237	1750.5
721.424	1717.73
721.611	1670.63
721.798	1660.39
721.985	1676.77
722.172	1652.2
722.358	1637.86
722.545	1783.27
722.732	1676.77
722.919	1695.21
723.106	1701.35
723.293	1635.82
723.48	1656.29
723.667	1646.05
723.853	1658.34
724.04	1691.11
724.227	1666.53
724.414	1619.43
724.6	1625.58
724.787	1629.67
724.974	1570.28
725.161	1586.66
725.347	1564.14
725.534	1650.15
725.72	1514.98
725.907	1613.29
726.094	1680.87
726.28	1476.07
726.467	1619.43
726.653	1693.16
726.84	1557.99
727.027	1523.18
727.213	1504.75
727.4	1666.53
727.586	1627.62
727.773	1576.42
727.959	1523.18
728.145	1482.22
728.332	1455.59
728.518	1422.83
728.705	1570.28
728.891	1488.36
729.077	1533.42
729.264	1635.82
729.45	1578.47
729.636	1445.35
729.823	1426.92
730.009	1506.79
730.195	1512.94
730.382	1521.13
730.568	1531.37
730.754	1435.11
730.94	1433.07
731.126	1605.1
731.313	1465.83
731.499	1490.41
731.685	1580.52
731.871	1390.06
732.057	1426.92
732.243	1463.79
732.429	1457.64
732.615	1453.55
732.801	1443.31
732.987	1451.5
733.173	1478.12
733.359	1422.83
733.545	1435.11
733.731	1347.05
733.917	1459.69
734.103	1416.68
734.289	1451.5
734.475	1287.66
734.661	1422.83
734.847	1457.64
735.033	1353.2
735.219	1500.65
735.404	1506.79
735.59	1357.29
735.776	1488.36
735.962	1324.52
736.148	1404.39
736.333	1431.02
736.519	1345
736.705	1275.37
736.89	1396.2
737.076	1326.57
737.262	1265.13
737.447	1416.68
737.633	1420.78
737.819	1328.62
738.004	1416.68
738.19	1353.2
738.375	1408.49
738.561	1324.52
738.747	1267.18
738.932	1261.04
739.118	1328.62
739.303	1365.48
739.489	1324.52
739.674	1342.96
739.859	1310.19
740.045	1349.1
740.23	1273.32
740.416	1211.89
740.601	1326.57
740.786	1308.14
740.972	1291.76
741.157	1373.68
741.342	1283.56
741.528	1277.42
741.713	1332.72
741.898	1261.04
742.084	1330.67
742.269	1267.18
742.454	1213.93
742.639	1213.93
742.824	1367.53
743.01	1250.8
743.195	1244.65
743.38	1258.99
743.565	1226.22
743.75	1156.59
743.935	1250.8
744.12	1205.74
744.305	1164.78
744.49	1215.98
744.675	1209.84
744.86	1252.84
745.045	1256.94
745.23	1111.54
745.415	1181.17
745.6	1228.27
745.785	1226.22
745.97	1162.73
746.155	1144.3
746.34	1177.07
746.525	1125.87
746.71	1162.73
746.895	1064.43
747.079	1050.1
747.264	1168.88
747.449	1046
747.634	1097.2
747.819	1146.35
748.003	1134.06
748.188	1132.01
748.373	1086.96
748.557	1117.68
748.742	1103.34
748.927	1056.24
749.111	1074.67
749.296	1041.9
749.481	1058.29
749.665	976.37
749.85	1027.57
750.034	1017.33
750.219	1007.09
750.404	1023.47
750.588	1005.04
750.773	935.41
750.957	1054.19
751.141	998.9
751.326	947.7
751.51	972.27
751.695	1011.18
751.879	937.46
752.064	941.55
752.248	951.79
752.432	943.6
752.617	898.55
752.801	937.46
752.985	906.74
753.17	927.22
753.354	892.4
753.538	882.16
753.722	826.87
753.907	876.02
754.091	925.17
754.275	906.74
754.459	869.87
754.643	871.92
754.828	804.34
755.012	830.96
755.196	861.68
755.38	835.06
755.564	781.81
755.748	767.48
755.932	849.4
756.116	835.06
756.3	878.07
756.484	804.34
756.668	810.48
756.852	820.72
757.036	792.05
757.22	820.72
757.404	706.04
757.588	876.02
757.772	738.8
757.956	796.15
758.14	677.37
758.323	841.2
758.507	765.43
758.691	724.47
758.875	816.63
759.059	708.09
759.242	740.85
759.426	671.22
759.61	665.08
759.794	720.37
759.977	632.31
760.161	790
760.345	736.76
760.528	693.75
760.712	744.95
760.895	669.17
761.079	685.56
761.263	611.83
761.446	654.84
761.63	687.61
761.813	783.86
761.997	587.26
762.18	660.98
762.364	646.65
762.547	589.3
762.731	609.78
762.914	710.13
763.098	683.51
763.281	697.85
763.464	628.21
763.648	656.89
763.831	642.55
764.015	685.56
764.198	546.3
764.381	663.03
764.564	677.37
764.748	652.79
764.931	652.79
765.114	585.21
765.297	603.64
765.481	622.07
765.664	611.83
765.847	554.49
766.03	636.41
766.213	593.4
766.397	636.41
766.58	527.86
766.763	611.83
766.946	566.78
767.129	529.91
767.312	538.1
767.495	583.16
767.678	593.4
767.861	587.26
768.044	536.06
768.227	548.34
768.41	511.48
768.593	527.86
768.776	566.78
768.959	603.64
769.142	583.16
769.324	579.06
769.507	531.96
769.69	523.77
769.873	550.39
770.056	626.17
770.239	554.49
770.421	636.41
770.604	505.34
770.787	538.1
770.97	452.09
771.152	605.69
771.335	466.42
771.518	609.78
771.7	464.38
771.883	581.11
772.066	474.62
772.248	558.58
772.431	556.54
772.613	476.66
772.796	529.91
772.978	523.77
773.161	519.67
773.343	534.01
773.526	497.14
773.708	476.66
773.891	497.14
774.073	462.33
774.256	447.99
774.438	550.39
774.621	501.24
774.803	507.38
774.985	493.05
775.168	474.62
775.35	378.36
775.532	433.66
775.715	407.03
775.897	441.85
776.079	402.94
776.261	501.24
776.444	456.19
776.626	493.05
776.808	380.41
776.99	517.62
777.173	366.07
777.355	415.23
777.537	452.09
777.719	382.46
777.901	431.61
778.083	425.47
778.265	417.27
778.447	447.99
778.629	404.99
778.811	378.36
778.993	411.13
779.175	447.99
779.357	443.9
779.539	370.17
779.721	474.62
779.903	312.83
780.085	359.93
780.267	351.74
780.449	278.01
780.631	368.12
780.812	364.03
780.994	364.03
781.176	368.12
781.358	318.97
781.54	382.46
781.721	355.83
781.903	292.35
782.085	357.88
782.267	382.46
782.448	300.54
782.63	378.36
782.812	337.4
782.993	300.54
783.175	318.97
783.357	323.07
783.538	325.12
783.72	282.11
783.901	349.69
784.083	347.64
784.264	261.63
784.446	278.01
784.627	306.68
784.809	282.11
784.99	335.35
785.172	306.68
785.353	286.2
785.535	349.69
785.716	255.48
785.897	226.81
786.079	310.78
786.26	308.73
786.441	228.86
786.623	292.35
786.804	228.86
786.985	175.61
787.167	284.16
787.348	288.25
787.529	218.62
787.71	237.05
787.891	267.77
788.073	290.3
788.254	333.31
788.435	255.48
788.616	261.63
788.797	183.81
788.978	247.29
789.159	200.19
789.34	228.86
789.522	245.24
789.703	284.16
789.884	173.57
790.065	280.06
790.246	269.82
790.427	200.19
790.607	179.71
790.788	253.44
790.969	196.09
791.15	194.05
791.331	310.78
791.512	230.91
791.693	177.66
791.874	267.77
792.054	273.92
792.235	341.5
792.416	235
792.597	198.14
792.778	226.81
792.958	241.15
793.139	204.28
793.32	235
793.5	212.48
793.681	173.57
793.862	216.57
794.042	153.09
794.223	226.81
794.404	198.14
794.584	196.09
794.765	175.61
794.945	235
795.126	230.91
795.306	224.76
795.487	151.04
795.667	165.37
795.848	177.66
796.028	169.47
796.209	200.19
796.389	204.28
796.57	173.57
796.75	124.41
796.93	101.89
797.111	157.18
797.291	214.52
797.471	181.76
797.652	93.69
797.832	189.95
798.012	218.62
798.192	148.99
798.373	122.37
798.553	116.22
798.733	140.8
798.913	120.32
799.093	165.37
799.274	153.09
799.454	165.37
799.634	67.07
799.814	210.43
799.994	140.8
800.174	112.13
800.354	202.24
800.534	126.46
800.714	120.32
800.894	116.22
801.074	93.69
801.254	161.28
801.434	126.46
801.614	138.75
801.794	167.42
801.974	407.03
802.154	204.28
802.334	196.09
802.514	183.81
802.693	161.28
802.873	155.13
803.053	192
803.233	148.99
803.413	179.71
803.592	103.93
803.772	155.13
803.952	120.32
804.131	169.47
804.311	134.65
804.491	185.85
804.67	69.12
804.85	75.26
805.03	73.21
805.209	136.7
805.389	144.89
805.568	105.98
805.748	148.99
805.928	95.74
806.107	120.32
806.287	89.6
806.466	67.07
806.646	155.13
806.825	110.08
807.004	167.42
807.184	9.73
807.363	128.51
807.543	173.57
807.722	148.99
807.901	67.07
808.081	169.47
808.26	114.17
808.439	40.45
808.619	95.74
808.798	128.51
808.977	38.4
809.156	146.94
809.336	58.88
809.515	77.31
809.694	112.13
809.873	146.94
810.052	136.7
810.231	99.84
810.411	50.69
810.59	144.89
810.769	38.4
810.948	136.7
811.127	32.26
811.306	108.03
811.485	62.98
811.664	126.46
811.843	85.5
812.022	93.69
812.201	103.93
812.38	69.12
812.559	77.31
812.737	128.51
812.916	81.41
813.095	142.85
813.274	142.85
813.453	58.88
813.632	112.13
813.811	161.28
813.989	85.5
814.168	103.93
814.347	97.79
814.526	101.89
814.704	112.13
814.883	71.17
815.062	89.6
815.24	91.65
815.419	73.21
815.598	169.47
815.776	38.4
815.955	128.51
816.133	69.12
816.312	32.26
816.49	67.07
816.669	128.51
816.847	65.02
817.026	128.51
817.204	62.98
817.383	-27.14
817.561	60.93
817.74	81.41
817.918	50.69
818.097	58.88
818.275	65.02
818.453	116.22
818.632	93.69
818.81	52.74
818.988	15.87
819.167	77.31
819.345	38.4
819.523	77.31
819.701	79.36
819.879	126.46
820.058	9.73
820.236	108.03
820.414	58.88
820.592	112.13
820.77	105.98
820.948	99.84
821.127	54.78
821.305	114.17
821.483	118.27
821.661	81.41
821.839	11.78
822.017	52.74
822.195	52.74
822.373	105.98
822.551	69.12
822.729	40.45
822.907	46.59
823.085	108.03
823.262	89.6
823.44	52.74
823.618	30.21
823.796	87.55
823.974	15.87
824.152	89.6
824.329	73.21
824.507	46.59
824.685	56.83
824.863	1.54
825.04	46.59
825.218	136.7
825.396	136.7
825.574	62.98
825.751	46.59
825.929	32.26
826.107	79.36
826.284	26.11
826.462	50.69
826.639	97.79
826.817	5.63
826.994	5.63
827.172	13.82
827.349	3.58
827.527	97.79
827.704	144.89
827.882	87.55
828.059	99.84
828.237	56.83
828.414	44.54
828.591	34.3
828.769	54.78
828.946	83.45
829.124	67.07
829.301	3.58
829.478	50.69
829.655	7.68
829.833	34.3
830.01	-10.75
830.187	46.59
830.364	-12.8
830.542	65.02
830.719	81.41
830.896	67.07
831.073	56.83
831.25	34.3
831.427	52.74
831.604	38.4
831.782	1.54
831.959	75.26
832.136	71.17
832.313	95.74
832.49	30.21
832.667	24.06
832.844	73.21
833.021	58.88
833.198	-10.75
833.374	62.98
833.551	83.45
833.728	126.46
833.905	15.87
834.082	9.73
834.259	-68.09
834.436	65.02
834.612	17.92
834.789	71.17
834.966	58.88
835.143	11.78
835.319	50.69
835.496	1.54
835.673	73.21
835.85	89.6
836.026	22.02
836.203	103.93
836.38	77.31
836.556	67.07
836.733	54.78
836.909	1.54
837.086	62.98
837.262	-10.75
837.439	-2.56
837.616	52.74
837.792	-6.66
837.968	58.88
838.145	22.02
838.321	3.58
838.498	30.21
838.674	11.78
838.851	44.54
839.027	-31.23
839.203	3.58
839.38	34.3
839.556	81.41
839.732	87.55
839.909	-27.14
840.085	32.26
840.261	19.97
840.437	26.11
840.614	3.58
840.79	-12.8
840.966	-18.94
841.142	54.78
841.318	-16.9
841.494	50.69
841.671	99.84
841.847	-20.99
842.023	30.21
842.199	75.26
842.375	38.4
842.551	15.87
842.727	26.11
842.903	26.11
843.079	69.12
843.255	42.5
843.431	28.16
843.607	34.3
843.783	-14.85
843.959	32.26
844.134	9.73
844.31	22.02
844.486	122.37
844.662	-6.66
844.838	48.64
845.013	11.78
845.189	-14.85
845.365	15.87
845.541	32.26
845.716	42.5
845.892	13.82
846.068	83.45
846.244	-23.04
846.419	30.21
846.595	91.65
846.77	-51.71
846.946	62.98
847.122	40.45
847.297	67.07
847.473	73.21
847.648	-10.75
847.824	32.26
847.999	-43.52
848.175	54.78
848.35	-8.7
848.526	34.3
848.701	54.78
848.876	81.41
849.052	-12.8
849.227	-43.52
849.403	5.63
849.578	56.83
849.753	1.54
849.929	56.83
850.104	-61.95
850.279	85.5
850.454	22.02
850.63	11.78
850.805	15.87
850.98	54.78
851.155	-39.42
851.33	56.83
851.505	32.26
851.681	69.12
851.856	32.26
852.031	67.07
852.206	3.58
852.381	38.4
852.556	46.59
852.731	22.02
852.906	34.3
853.081	-53.76
853.256	-27.14
853.431	11.78
853.606	5.63
853.781	120.32
853.956	-0.51
854.131	42.5
854.305	-33.28
854.48	-18.94
854.655	-8.7
854.83	22.02
855.005	5.63
855.18	9.73
855.354	7.68
855.529	-49.66
855.704	-2.56
855.879	5.63
856.053	30.21
856.228	1.54
856.403	-27.14
856.577	19.97
856.752	38.4
856.926	38.4
857.101	-23.04
857.276	-4.61
857.45	62.98
857.625	-6.66
857.799	44.54
857.974	-14.85
858.148	24.06
858.323	5.63
858.497	-41.47
858.672	28.16
858.846	-35.33
859.02	-25.09
859.195	-78.33
859.369	42.5
859.543	69.12
859.718	22.02
859.892	24.06
860.066	34.3
860.241	-37.38
860.415	9.73
860.589	-29.18
860.763	46.59
860.938	-18.94
861.112	54.78
861.286	62.98
861.46	60.93
861.634	-23.04
861.808	62.98
861.982	-51.71
862.157	-0.51
862.331	56.83
862.505	13.82
862.679	-27.14
862.853	50.69
863.027	22.02
863.201	13.82
863.375	9.73
863.549	75.26
863.722	-43.52
863.896	32.26
864.07	-64
864.244	-41.47
864.418	48.64
864.592	22.02
864.766	28.16
864.939	22.02
865.113	36.35
865.287	-8.7
865.461	-27.14
865.634	-37.38
865.808	58.88
865.982	-10.75
866.156	-27.14
866.329	-20.99
866.503	13.82
866.676	30.21
866.85	-27.14
867.024	11.78
867.197	11.78
867.371	11.78
867.544	60.93
867.718	-10.75
867.891	-59.9
868.065	-29.18
868.238	56.83
868.412	-41.47
868.585	-35.33
868.759	46.59
868.932	-35.33
869.105	13.82
869.279	-57.86
869.452	-25.09
869.625	40.45
869.799	-55.81
869.972	-25.09
870.145	-6.66
870.319	56.83
870.492	-0.51
870.665	-8.7
870.838	19.97
871.011	24.06
871.185	26.11
871.358	-49.66
871.531	54.78
871.704	-6.66
871.877	13.82
872.05	7.68
872.223	-47.62
872.396	-2.56
872.569	17.92
872.742	-4.61
872.915	-33.28
873.088	-80.38
873.261	9.73
873.434	3.58
873.607	19.97
873.78	17.92
873.953	24.06
874.126	32.26
874.299	-27.14
874.471	19.97
874.644	40.45
874.817	-57.86
874.99	-0.51
875.163	-37.38
875.335	30.21
875.508	11.78
875.681	1.54
875.853	65.02
876.026	69.12
876.199	-43.52
876.371	-35.33
876.544	62.98
876.717	-51.71
876.889	17.92
877.062	-16.9
877.234	-72.19
877.407	-88.57
877.579	1.54
877.752	17.92
877.924	3.58
878.097	-6.66
878.269	-4.61
878.442	26.11
878.614	26.11
878.786	-29.18
878.959	-0.51
879.131	-16.9
879.303	-41.47
879.476	-6.66
879.648	-82.43
879.82	93.69
879.993	24.06
880.165	36.35
880.337	48.64
880.509	24.06
880.681	-37.38
880.854	-2.56
881.026	-27.14
881.198	-68.09
881.37	58.88
881.542	-0.51
881.714	-10.75
881.886	-18.94
882.058	-23.04
882.23	-27.14
882.402	-25.09
882.574	-8.7
882.746	79.36
882.918	17.92
883.09	-80.38
883.262	-23.04
883.434	-39.42
883.606	-41.47
883.778	-86.53
883.95	17.92
884.122	46.59
884.293	-25.09
884.465	-14.85
884.637	77.31
884.809	7.68
884.98	34.3
885.152	-10.75
885.324	3.58
885.496	-16.9
885.667	-16.9
885.839	-12.8
886.011	-2.56
886.182	-31.23
886.354	-2.56
886.525	5.63
886.697	13.82
886.869	-12.8
887.04	1.54
887.212	24.06
887.383	-25.09
887.555	-35.33
887.726	22.02
887.897	13.82
888.069	26.11
888.24	24.06
888.412	34.3
888.583	36.35
888.754	24.06
888.926	52.74
889.097	52.74
889.268	-35.33
889.44	-90.62
889.611	-59.9
889.782	11.78
889.953	-2.56
890.125	87.55
890.296	19.97
890.467	13.82
890.638	-10.75
890.809	46.59
890.98	-53.76
891.151	-6.66
891.323	-0.51
891.494	34.3
891.665	30.21
891.836	-0.51
892.007	17.92
892.178	-16.9
892.349	-29.18
892.52	-2.56
892.691	17.92
892.862	22.02
893.032	-43.52
893.203	44.54
893.374	3.58
893.545	40.45
893.716	-59.9
893.887	-43.52
894.057	-41.47
894.228	-0.51
894.399	83.45
894.57	69.12
894.74	-4.61
894.911	13.82
895.082	-59.9
895.253	-27.14
895.423	-43.52
895.594	54.78
895.764	5.63
895.935	-8.7
896.106	-55.81
896.276	11.78
896.447	-74.24
896.617	15.87
896.788	13.82
896.958	-53.76
897.129	-37.38
897.299	-39.42
897.47	-6.66
897.64	-35.33
897.81	36.35
897.981	7.68
898.151	-2.56
898.322	40.45
898.492	38.4
898.662	89.6
898.832	-10.75
899.003	15.87
899.173	50.69
899.343	62.98
899.513	-98.81
