Data from USB4F104151__2__12-58-23-290.txt Node

Date: Fri Mar 14 12:58:23 EDT 2025
User: louis
Spectrometer: USB4F10415
Trigger mode: 4
Integration Time (sec): 1.000000E-2
Scans to average: 1
Electric dark correction enabled: true
Nonlinearity correction enabled: false
Boxcar width: 0
XAxis mode: Wavelengths
Number of Pixels in Spectrum: 3648
>>>>>Begin Spectral Data<<<<<
178.204	-40.96
178.424	-40.96
178.644	-40.96
178.864	-43.01
179.084	-8.19
179.304	-6.14
179.524	-53.25
179.744	-8.19
179.964	-10.24
180.184	0
180.404	43.01
180.624	43.01
180.844	-18.43
181.064	-22.53
181.283	-10.24
181.503	55.3
181.723	-12.29
181.943	-30.72
182.163	92.16
182.383	-32.77
182.602	79.87
182.822	-28.67
183.042	77.82
183.262	-10.24
183.482	26.62
183.701	-4.1
183.921	-49.15
184.141	0
184.361	-2.05
184.58	8.19
184.8	20.48
185.02	-4.1
185.239	24.58
185.459	65.54
185.679	-4.1
185.898	-8.19
186.118	22.53
186.338	6.14
186.557	49.15
186.777	-2.05
186.997	45.06
187.216	-28.67
187.436	-26.62
187.655	-26.62
187.875	-32.77
188.095	28.67
188.314	57.34
188.534	20.48
188.753	51.2
188.973	69.63
189.192	10.24
189.412	18.43
189.631	14.34
189.851	-2.05
190.07	18.43
190.29	8.19
190.509	-20.48
190.729	28.67
190.948	-4.1
191.168	45.06
191.387	108.54
191.607	16.38
191.826	-38.91
192.045	28.67
192.265	81.92
192.484	-20.48
192.704	14.34
192.923	12.29
193.142	4.1
193.362	30.72
193.581	45.06
193.8	20.48
194.02	38.91
194.239	28.67
194.458	69.63
194.678	2.05
194.897	67.58
195.116	-12.29
195.335	10.24
195.555	28.67
195.774	-18.43
195.993	32.77
196.212	0
196.432	98.3
196.651	20.48
196.87	36.86
197.089	65.54
197.308	-24.58
197.528	4.1
197.747	10.24
197.966	57.34
198.185	16.38
198.404	38.91
198.623	26.62
198.842	38.91
199.062	-6.14
199.281	47.1
199.5	16.38
199.719	-32.77
199.938	47.1
200.157	20.48
200.376	28.67
200.595	-34.82
200.814	51.2
201.033	30.72
201.252	67.58
201.471	-26.62
201.69	10.24
201.909	96.25
202.128	-63.49
202.347	20.48
202.566	53.25
202.785	28.67
203.004	-8.19
203.223	14.34
203.442	-4.1
203.661	45.06
203.879	18.43
204.098	16.38
204.317	-81.92
204.536	55.3
204.755	49.15
204.974	24.58
205.193	57.34
205.411	34.82
205.63	28.67
205.849	51.2
206.068	6.14
206.287	-18.43
206.505	47.1
206.724	20.48
206.943	0
207.162	26.62
207.381	32.77
207.599	4.1
207.818	32.77
208.037	59.39
208.255	-18.43
208.474	36.86
208.693	-6.14
208.911	57.34
209.13	20.48
209.349	-34.82
209.567	36.86
209.786	53.25
210.005	67.58
210.223	36.86
210.442	51.2
210.661	24.58
210.879	61.44
211.098	8.19
211.316	53.25
211.535	71.68
211.753	18.43
211.972	65.54
212.191	32.77
212.409	14.34
212.628	55.3
212.846	36.86
213.065	-34.82
213.283	40.96
213.502	22.53
213.72	57.34
213.938	-16.38
214.157	26.62
214.375	4.1
214.594	40.96
214.812	8.19
215.031	61.44
215.249	-49.15
215.467	-34.82
215.686	6.14
215.904	6.14
216.122	53.25
216.341	69.63
216.559	-10.24
216.778	67.58
216.996	-8.19
217.214	26.62
217.432	61.44
217.651	4.1
217.869	-16.38
218.087	6.14
218.306	86.01
218.524	-12.29
218.742	63.49
218.96	77.82
219.179	-28.67
219.397	12.29
219.615	30.72
219.833	6.14
220.051	36.86
220.27	28.67
220.488	28.67
220.706	6.14
220.924	22.53
221.142	8.19
221.36	12.29
221.578	43.01
221.796	26.62
222.015	71.68
222.233	2.05
222.451	20.48
222.669	36.86
222.887	30.72
223.105	-16.38
223.323	0
223.541	-16.38
223.759	-12.29
223.977	14.34
224.195	2.05
224.413	26.62
224.631	69.63
224.849	77.82
225.067	-34.82
225.285	2.05
225.503	55.3
225.721	-6.14
225.939	45.06
226.157	22.53
226.375	116.73
226.592	61.44
226.81	14.34
227.028	43.01
227.246	10.24
227.464	22.53
227.682	88.06
227.9	6.14
228.117	45.06
228.335	77.82
228.553	81.92
228.771	0
228.989	18.43
229.206	-57.34
229.424	4.1
229.642	-32.77
229.86	36.86
230.077	36.86
230.295	-18.43
230.513	71.68
230.731	0
230.948	8.19
231.166	98.3
231.384	34.82
231.601	28.67
231.819	120.83
232.037	16.38
232.254	-36.86
232.472	-53.25
232.689	28.67
232.907	-4.1
233.125	10.24
233.342	24.58
233.56	4.1
233.777	-28.67
233.995	73.73
234.213	139.26
234.43	38.91
234.648	30.72
234.865	-14.34
235.083	24.58
235.3	2.05
235.518	8.19
235.735	26.62
235.953	102.4
236.17	-53.25
236.388	8.19
236.605	16.38
236.822	-24.58
237.04	55.3
237.257	36.86
237.475	28.67
237.692	47.1
237.909	45.06
238.127	61.44
238.344	88.06
238.562	45.06
238.779	-8.19
238.996	47.1
239.214	79.87
239.431	38.91
239.648	30.72
239.865	-24.58
240.083	63.49
240.3	36.86
240.517	4.1
240.735	69.63
240.952	32.77
241.169	18.43
241.386	55.3
241.603	18.43
241.821	-10.24
242.038	-10.24
242.255	53.25
242.472	-28.67
242.689	2.05
242.907	-24.58
243.124	65.54
243.341	26.62
243.558	-6.14
243.775	-6.14
243.992	-20.48
244.209	28.67
244.426	92.16
244.643	0
244.86	-8.19
245.078	8.19
245.295	69.63
245.512	-20.48
245.729	-18.43
245.946	49.15
246.163	53.25
246.38	57.34
246.597	34.82
246.814	4.1
247.031	8.19
247.248	0
247.464	38.91
247.681	24.58
247.898	28.67
248.115	47.1
248.332	-63.49
248.549	-4.1
248.766	59.39
248.983	65.54
249.2	-16.38
249.417	38.91
249.633	24.58
249.85	20.48
250.067	40.96
250.284	67.58
250.501	-16.38
250.717	53.25
250.934	83.97
251.151	-34.82
251.368	10.24
251.585	38.91
251.801	26.62
252.018	40.96
252.235	-88.06
252.451	55.3
252.668	6.14
252.885	47.1
253.102	40.96
253.318	18.43
253.535	34.82
253.752	28.67
253.968	-63.49
254.185	18.43
254.401	81.92
254.618	38.91
254.835	71.68
255.051	-43.01
255.268	-16.38
255.484	-38.91
255.701	-8.19
255.917	-34.82
256.134	-59.39
256.351	45.06
256.567	22.53
256.784	4.1
257	53.25
257.217	53.25
257.433	16.38
257.65	24.58
257.866	59.39
258.082	43.01
258.299	4.1
258.515	22.53
258.732	-8.19
258.948	30.72
259.165	-30.72
259.381	28.67
259.597	36.86
259.814	6.14
260.03	18.43
260.246	-34.82
260.463	63.49
260.679	16.38
260.895	24.58
261.112	40.96
261.328	22.53
261.544	40.96
261.761	38.91
261.977	20.48
262.193	28.67
262.409	79.87
262.626	16.38
262.842	47.1
263.058	67.58
263.274	71.68
263.49	94.21
263.707	47.1
263.923	69.63
264.139	67.58
264.355	71.68
264.571	63.49
264.787	-14.34
265.004	-10.24
265.22	-79.87
265.436	14.34
265.652	59.39
265.868	45.06
266.084	51.2
266.3	32.77
266.516	49.15
266.732	71.68
266.948	16.38
267.164	28.67
267.38	8.19
267.596	18.43
267.812	30.72
268.028	-38.91
268.244	10.24
268.46	-20.48
268.676	-10.24
268.892	12.29
269.108	-53.25
269.324	53.25
269.54	4.1
269.756	63.49
269.972	-12.29
270.188	-12.29
270.403	10.24
270.619	-4.1
270.835	59.39
271.051	22.53
271.267	-36.86
271.483	-26.62
271.698	47.1
271.914	53.25
272.13	45.06
272.346	28.67
272.562	43.01
272.777	47.1
272.993	45.06
273.209	55.3
273.425	75.77
273.64	34.82
273.856	8.19
274.072	-24.58
274.287	6.14
274.503	61.44
274.719	57.34
274.934	67.58
275.15	69.63
275.366	4.1
275.581	77.82
275.797	34.82
276.012	22.53
276.228	53.25
276.444	-36.86
276.659	-14.34
276.875	6.14
277.09	4.1
277.306	49.15
277.521	16.38
277.737	112.64
277.952	75.77
278.168	65.54
278.383	-53.25
278.599	71.68
278.814	88.06
279.03	-18.43
279.245	24.58
279.461	61.44
279.676	47.1
279.892	38.91
280.107	47.1
280.322	-75.77
280.538	-14.34
280.753	10.24
280.969	94.21
281.184	34.82
281.399	49.15
281.615	12.29
281.83	-8.19
282.045	-24.58
282.26	20.48
282.476	32.77
282.691	49.15
282.906	81.92
283.122	94.21
283.337	32.77
283.552	40.96
283.767	65.54
283.983	102.4
284.198	32.77
284.413	53.25
284.628	-45.06
284.843	40.96
285.058	49.15
285.274	14.34
285.489	55.3
285.704	71.68
285.919	-10.24
286.134	30.72
286.349	61.44
286.564	65.54
286.779	26.62
286.995	-24.58
287.21	22.53
287.425	51.2
287.64	47.1
287.855	71.68
288.07	61.44
288.285	104.45
288.5	73.73
288.715	28.67
288.93	14.34
289.145	40.96
289.36	45.06
289.575	-36.86
289.79	30.72
290.004	47.1
290.219	-22.53
290.434	45.06
290.649	6.14
290.864	71.68
291.079	4.1
291.294	-16.38
291.509	-8.19
291.724	75.77
291.938	75.77
292.153	14.34
292.368	12.29
292.583	104.45
292.798	30.72
293.012	30.72
293.227	10.24
293.442	45.06
293.657	45.06
293.871	28.67
294.086	55.3
294.301	57.34
294.516	-4.1
294.73	14.34
294.945	49.15
295.16	6.14
295.374	88.06
295.589	36.86
295.804	-36.86
296.018	-53.25
296.233	73.73
296.447	38.91
296.662	77.82
296.877	51.2
297.091	6.14
297.306	43.01
297.52	45.06
297.735	57.34
297.949	47.1
298.164	45.06
298.378	-8.19
298.593	43.01
298.807	16.38
299.022	14.34
299.236	47.1
299.451	129.02
299.665	4.1
299.88	32.77
300.094	6.14
300.309	36.86
300.523	77.82
300.737	47.1
300.952	51.2
301.166	45.06
301.381	61.44
301.595	51.2
301.809	69.63
302.024	104.45
302.238	24.58
302.452	53.25
302.667	24.58
302.881	6.14
303.095	4.1
303.309	38.91
303.524	-47.1
303.738	8.19
303.952	30.72
304.166	55.3
304.381	34.82
304.595	-14.34
304.809	-36.86
305.023	-57.34
305.237	-6.14
305.452	26.62
305.666	141.31
305.88	22.53
306.094	79.87
306.308	77.82
306.522	57.34
306.736	20.48
306.95	118.78
307.164	38.91
307.379	22.53
307.593	30.72
307.807	43.01
308.021	4.1
308.235	14.34
308.449	12.29
308.663	2.05
308.877	53.25
309.091	8.19
309.305	137.21
309.519	4.1
309.733	4.1
309.947	53.25
310.161	110.59
310.374	-14.34
310.588	83.97
310.802	-10.24
311.016	38.91
311.23	12.29
311.444	18.43
311.658	114.69
311.872	51.2
312.085	40.96
312.299	73.73
312.513	55.3
312.727	-20.48
312.941	30.72
313.154	49.15
313.368	0
313.582	92.16
313.796	16.38
314.009	38.91
314.223	24.58
314.437	47.1
314.651	12.29
314.864	6.14
315.078	38.91
315.292	67.58
315.505	-12.29
315.719	8.19
315.933	-8.19
316.146	30.72
316.36	32.77
316.573	26.62
316.787	98.3
317.001	18.43
317.214	45.06
317.428	8.19
317.641	10.24
317.855	20.48
318.068	-36.86
318.282	79.87
318.495	40.96
318.709	38.91
318.922	92.16
319.136	38.91
319.349	-8.19
319.563	4.1
319.776	94.21
319.99	49.15
320.203	-8.19
320.417	34.82
320.63	-55.3
320.843	79.87
321.057	34.82
321.27	22.53
321.483	0
321.697	57.34
321.91	10.24
322.124	45.06
322.337	38.91
322.55	10.24
322.763	12.29
322.977	55.3
323.19	20.48
323.403	61.44
323.617	-6.14
323.83	110.59
324.043	75.77
324.256	51.2
324.469	61.44
324.683	-43.01
324.896	8.19
325.109	67.58
325.322	-6.14
325.535	20.48
325.748	-4.1
325.962	135.17
326.175	28.67
326.388	6.14
326.601	57.34
326.814	61.44
327.027	73.73
327.24	71.68
327.453	63.49
327.666	45.06
327.879	26.62
328.092	12.29
328.305	43.01
328.518	-28.67
328.731	6.14
328.944	4.1
329.157	26.62
329.37	12.29
329.583	79.87
329.796	67.58
330.009	-40.96
330.222	-36.86
330.435	-14.34
330.648	69.63
330.861	8.19
331.073	16.38
331.286	24.58
331.499	57.34
331.712	28.67
331.925	14.34
332.138	90.11
332.35	92.16
332.563	73.73
332.776	47.1
332.989	12.29
333.202	4.1
333.414	94.21
333.627	92.16
333.84	-30.72
334.053	86.01
334.265	-12.29
334.478	65.54
334.691	36.86
334.903	14.34
335.116	-6.14
335.329	38.91
335.541	120.83
335.754	55.3
335.966	-4.1
336.179	55.3
336.392	40.96
336.604	67.58
336.817	-18.43
337.029	-26.62
337.242	2.05
337.454	81.92
337.667	-10.24
337.88	75.77
338.092	16.38
338.305	26.62
338.517	47.1
338.729	-2.05
338.942	30.72
339.154	-10.24
339.367	45.06
339.579	77.82
339.792	45.06
340.004	67.58
340.217	16.38
340.429	53.25
340.641	16.38
340.854	81.92
341.066	-14.34
341.278	51.2
341.491	77.82
341.703	-8.19
341.915	71.68
342.128	28.67
342.34	22.53
342.552	106.49
342.764	49.15
342.977	24.58
343.189	53.25
343.401	65.54
343.613	-24.58
343.826	49.15
344.038	102.4
344.25	16.38
344.462	55.3
344.674	-53.25
344.886	65.54
345.099	83.97
345.311	96.25
345.523	57.34
345.735	38.91
345.947	34.82
346.159	57.34
346.371	94.21
346.583	-22.53
346.795	124.93
347.007	-8.19
347.219	34.82
347.431	12.29
347.643	43.01
347.855	28.67
348.067	57.34
348.279	135.17
348.491	92.16
348.703	73.73
348.915	-32.77
349.127	20.48
349.339	106.49
349.551	69.63
349.763	6.14
349.975	-12.29
350.187	67.58
350.399	-16.38
350.61	-10.24
350.822	6.14
351.034	10.24
351.246	43.01
351.458	94.21
351.669	0
351.881	36.86
352.093	88.06
352.305	8.19
352.517	28.67
352.728	86.01
352.94	28.67
353.152	51.2
353.363	-24.58
353.575	4.1
353.787	14.34
353.999	-24.58
354.21	30.72
354.422	4.1
354.633	-4.1
354.845	75.77
355.057	38.91
355.268	30.72
355.48	40.96
355.692	6.14
355.903	22.53
356.115	83.97
356.326	2.05
356.538	4.1
356.749	77.82
356.961	38.91
357.172	-10.24
357.384	49.15
357.595	71.68
357.807	4.1
358.018	-10.24
358.23	-14.34
358.441	20.48
358.653	63.49
358.864	30.72
359.075	-26.62
359.287	6.14
359.498	53.25
359.709	20.48
359.921	30.72
360.132	20.48
360.344	6.14
360.555	-6.14
360.766	20.48
360.977	6.14
361.189	75.77
361.4	38.91
361.611	36.86
361.823	12.29
362.034	30.72
362.245	16.38
362.456	6.14
362.667	65.54
362.879	-8.19
363.09	-30.72
363.301	45.06
363.512	126.97
363.723	26.62
363.935	32.77
364.146	8.19
364.357	63.49
364.568	16.38
364.779	51.2
364.99	53.25
365.201	-26.62
365.412	40.96
365.623	-4.1
365.834	-36.86
366.045	24.58
366.256	36.86
366.467	-32.77
366.678	65.54
366.889	22.53
367.1	14.34
367.311	65.54
367.522	51.2
367.733	2.05
367.944	36.86
368.155	47.1
368.366	-12.29
368.577	16.38
368.788	88.06
368.999	24.58
369.209	36.86
369.42	71.68
369.631	4.1
369.842	22.53
370.053	43.01
370.264	22.53
370.474	36.86
370.685	20.48
370.896	20.48
371.107	8.19
371.317	86.01
371.528	-38.91
371.739	65.54
371.95	-2.05
372.16	4.1
372.371	8.19
372.582	57.34
372.792	71.68
373.003	12.29
373.214	20.48
373.424	77.82
373.635	24.58
373.846	28.67
374.056	45.06
374.267	88.06
374.477	96.25
374.688	32.77
374.898	16.38
375.109	104.45
375.319	14.34
375.53	4.1
375.74	90.11
375.951	49.15
376.161	100.35
376.372	2.05
376.582	14.34
376.793	14.34
377.003	55.3
377.214	-36.86
377.424	137.21
377.635	71.68
377.845	0
378.055	36.86
378.266	26.62
378.476	83.97
378.686	61.44
378.897	55.3
379.107	75.77
379.317	8.19
379.528	51.2
379.738	18.43
379.948	14.34
380.158	77.82
380.369	69.63
380.579	112.64
380.789	0
380.999	77.82
381.21	65.54
381.42	-36.86
381.63	-12.29
381.84	77.82
382.05	53.25
382.261	94.21
382.471	28.67
382.681	-4.1
382.891	61.44
383.101	32.77
383.311	4.1
383.521	-10.24
383.731	24.58
383.941	49.15
384.151	71.68
384.361	-30.72
384.571	88.06
384.781	49.15
384.991	49.15
385.201	28.67
385.411	81.92
385.621	65.54
385.831	-49.15
386.041	51.2
386.251	71.68
386.461	104.45
386.671	24.58
386.881	49.15
387.091	63.49
387.301	12.29
387.511	79.87
387.72	2.05
387.93	83.97
388.14	22.53
388.35	79.87
388.56	51.2
388.769	61.44
388.979	79.87
389.189	34.82
389.399	45.06
389.609	22.53
389.818	45.06
390.028	40.96
390.238	102.4
390.447	53.25
390.657	32.77
390.867	-14.34
391.076	-4.1
391.286	73.73
391.496	151.55
391.705	45.06
391.915	53.25
392.125	137.21
392.334	38.91
392.544	10.24
392.753	100.35
392.963	16.38
393.172	69.63
393.382	59.39
393.591	81.92
393.801	69.63
394.01	86.01
394.22	69.63
394.429	86.01
394.639	28.67
394.848	129.02
395.058	67.58
395.267	69.63
395.477	75.77
395.686	120.83
395.895	63.49
396.105	120.83
396.314	104.45
396.524	16.38
396.733	51.2
396.942	81.92
397.152	75.77
397.361	139.26
397.57	20.48
397.78	69.63
397.989	65.54
398.198	104.45
398.407	106.49
398.617	51.2
398.826	106.49
399.035	126.97
399.244	53.25
399.453	90.11
399.663	143.36
399.872	61.44
400.081	69.63
400.29	153.6
400.499	98.3
400.708	51.2
400.917	98.3
401.127	112.64
401.336	-2.05
401.545	34.82
401.754	73.73
401.963	139.26
402.172	110.59
402.381	79.87
402.59	94.21
402.799	-10.24
403.008	145.41
403.217	118.78
403.426	169.98
403.635	77.82
403.844	77.82
404.053	157.69
404.262	75.77
404.471	116.73
404.68	57.34
404.888	102.4
405.097	102.4
405.306	135.17
405.515	104.45
405.724	137.21
405.933	94.21
406.142	104.45
406.35	120.83
406.559	178.17
406.768	167.93
406.977	155.65
407.185	145.41
407.394	77.82
407.603	114.69
407.812	192.51
408.02	145.41
408.229	219.13
408.438	116.73
408.646	221.18
408.855	180.22
409.064	208.89
409.272	217.08
409.481	253.95
409.69	184.32
409.898	217.08
410.107	266.24
410.315	333.82
410.524	210.94
410.733	221.18
410.941	280.57
411.15	292.86
411.358	245.76
411.567	423.93
411.775	366.59
411.984	266.24
412.192	413.69
412.401	331.77
412.609	342.01
412.818	374.78
413.026	417.79
413.234	356.35
413.443	456.7
413.651	391.16
413.86	389.11
414.068	542.71
414.276	497.66
414.485	489.46
414.693	606.2
414.901	550.9
415.11	534.52
415.318	557.05
415.526	589.82
415.734	593.91
415.943	540.66
416.151	649.21
416.359	630.77
416.567	610.29
416.776	702.45
416.984	749.56
417.192	843.76
417.4	692.21
417.608	710.65
417.817	790.52
418.025	827.38
418.233	823.28
418.441	968.69
418.649	899.06
418.857	1007.6
419.065	962.55
419.273	892.91
419.481	1075.18
419.689	1066.99
419.897	1081.33
420.105	1150.96
420.313	1146.86
420.521	1234.93
420.729	1150.96
420.937	1327.08
421.145	1322.99
421.353	1503.21
421.561	1488.87
421.769	1521.64
421.977	1615.85
422.185	1628.14
422.393	1734.63
422.601	1763.3
422.809	1738.73
423.017	1841.12
423.224	1824.74
423.432	1902.56
423.64	1951.71
423.848	2045.92
424.056	2127.84
424.263	2066.4
424.471	2201.57
424.679	2291.68
424.887	2322.4
425.094	2424.8
425.302	2406.36
425.51	2447.32
425.718	2635.74
425.925	2639.83
426.133	2701.27
426.341	2910.16
426.548	2961.36
426.756	3049.43
426.964	2992.08
427.171	3256.27
427.379	3381.2
427.586	3352.52
427.794	3411.92
428.001	3522.51
428.209	3870.66
428.417	3704.78
428.624	4022.21
428.832	3989.44
429.039	3891.14
429.247	3923.91
429.454	4450.24
429.662	4534.2
429.869	4401.08
430.076	4573.11
430.284	4558.78
430.491	4661.18
430.699	5074.87
430.906	4947.89
431.114	4919.22
431.321	5193.65
431.528	5275.57
431.736	5566.38
431.943	5947.3
432.15	5668.78
432.358	5928.87
432.565	6037.41
432.772	6084.52
432.979	6305.7
433.187	6406.05
433.394	6444.96
433.601	6983.57
433.808	7059.35
434.016	7063.44
434.223	7305.1
434.43	7790.47
434.637	7452.56
434.844	8148.87
435.052	8114.05
435.259	8214.4
435.466	8195.97
435.673	8109.96
435.88	8767.35
436.087	9142.13
436.294	9217.91
436.501	9017.21
436.708	9023.35
436.915	9527.15
437.122	9985.9
437.329	9983.85
437.537	10110.82
437.743	10254.18
437.95	10254.18
438.157	10577.76
438.364	11083.61
438.571	11034.46
438.778	11128.66
438.985	12017.48
439.192	11622.22
439.399	12095.3
439.606	11939.66
439.813	12496.71
440.02	13229.88
440.227	12859.2
440.433	12969.79
440.64	13315.89
440.847	13354.8
441.054	13774.64
441.261	14346.02
441.467	14171.94
441.674	14542.63
441.881	15179.54
442.088	15017.75
442.294	15030.04
442.501	15294.23
442.708	15843.09
442.914	16477.96
443.121	16828.16
443.328	16580.35
443.534	17321.72
443.741	17178.36
443.948	16822.02
444.154	18267.88
444.361	18153.19
444.568	18263.79
444.774	18235.11
444.981	18718.43
445.187	19023.58
445.394	19728.08
445.6	19816.15
445.807	21421.75
446.013	20586.18
446.22	21116.61
446.426	21675.7
446.633	22191.79
446.839	23029.41
447.046	21739.19
447.252	23129.76
447.459	23207.58
447.665	22861.48
447.871	24049.3
448.078	25192.06
448.284	24080.02
448.491	24387.21
448.697	25810.55
448.903	25935.48
449.11	26324.59
449.316	25615.99
449.522	26238.58
449.728	26891.88
449.935	26953.32
450.141	27115.11
450.347	27899.48
450.553	26936.93
450.76	27274.85
450.966	28403.28
451.172	27637.34
451.378	28812.87
451.584	27907.67
451.791	28853.83
451.997	28972.61
452.203	29032.01
452.409	29105.73
452.615	28819.02
452.821	27995.73
453.027	27764.31
453.233	29173.31
453.44	28323.41
453.646	28311.12
453.852	28499.53
454.058	29019.72
454.264	27692.63
454.47	28806.73
454.676	27727.45
454.882	29113.92
455.088	26304.11
455.294	27139.68
455.5	27397.73
455.705	27659.87
455.911	26414.7
456.117	25728.63
456.323	25749.11
456.529	24102.54
456.735	25489.02
456.941	24827.53
457.147	24342.16
457.352	23807.64
457.558	23393.95
457.764	23117.47
457.97	22828.71
458.176	22353.58
458.381	22400.68
458.587	20991.68
458.793	21298.88
458.999	20160.2
459.204	21530.3
459.41	21114.56
459.616	19758.8
459.821	19853.01
460.027	19680.98
460.233	19150.56
460.438	18294.5
460.644	18523.88
460.85	17444.6
461.055	17475.32
461.261	17301.24
461.466	16054.03
461.672	15597.33
461.878	16449.28
462.083	15327
462.289	15191.83
462.494	14941.98
462.7	14470.95
462.905	14030.63
463.111	14524.19
463.316	14468.9
463.522	13842.22
463.727	14149.42
463.932	14565.15
464.138	13969.19
464.343	14032.68
464.549	13670.19
464.754	14298.92
464.959	13938.48
465.165	13891.37
465.37	13446.96
465.575	13039.42
465.781	13578.03
465.986	13766.45
466.191	13059.9
466.397	12971.83
466.602	12377.92
466.807	12572.48
467.012	12920.63
467.218	12797.76
467.423	12627.78
467.628	12674.88
467.833	13000.51
468.038	12613.44
468.244	12126.02
468.449	13031.23
468.654	12382.02
468.859	12502.85
469.064	12312.39
469.269	11468.62
469.474	11769.68
469.679	11949.9
469.885	11540.3
470.09	11935.56
470.295	11816.78
470.5	11458.39
470.705	11562.83
470.91	11419.47
471.115	11036.5
471.32	11269.97
471.525	11290.45
471.73	10921.82
471.935	10952.54
472.139	10618.72
472.344	10778.46
472.549	10461.02
472.754	10612.57
472.959	10440.54
473.164	10291.04
473.369	10125.16
473.574	10196.84
473.778	10317.67
473.983	10078.05
474.188	9938.79
474.393	9471.86
474.598	9736.04
474.802	9574.25
475.007	9496.43
475.212	9459.57
475.417	9023.35
475.621	9316.21
475.826	9070.45
476.031	8916.86
476.235	8814.46
476.44	8869.75
476.645	8714.11
476.849	9013.11
477.054	8828.79
477.259	8773.5
477.463	8535.93
477.668	8349.57
477.872	8419.2
478.077	8345.47
478.282	8105.86
478.486	8126.34
478.691	8079.24
478.895	8019.85
479.1	7778.19
479.304	7974.79
479.509	7808.9
479.713	7827.34
479.918	7724.94
480.122	7534.48
480.326	7776.14
480.531	7786.38
480.735	7524.24
480.94	7692.17
481.144	7933.83
481.348	7397.26
481.553	7534.48
481.757	7319.44
481.961	7507.85
482.166	7581.58
482.37	7442.32
482.574	7301.01
482.778	7274.38
482.983	7491.47
483.187	7387.02
483.391	7454.61
483.595	7352.21
483.8	7270.29
484.004	7511.95
484.208	7393.17
484.412	7354.26
484.616	7432.08
484.821	7354.26
485.025	7243.67
485.229	7530.38
485.433	7165.84
485.637	7190.42
485.841	7440.27
486.045	7425.93
486.249	7440.27
486.453	7370.64
486.657	7356.3
486.861	7444.37
487.065	7214.99
487.269	7503.76
487.473	7180.18
487.677	7245.71
487.881	7356.3
488.085	7274.38
488.289	7485.33
488.493	7376.78
488.697	7501.71
488.901	7315.34
489.105	7438.22
489.309	7448.46
489.512	7499.66
489.716	7346.06
489.92	7376.78
490.124	7313.3
490.328	7470.99
490.531	7575.44
490.735	7640.97
490.939	7847.82
491.143	7647.12
491.346	7655.31
491.55	7745.42
491.754	7692.17
491.958	7600.01
492.161	7618.44
492.365	7722.89
492.569	7845.77
492.772	7655.31
492.976	7806.86
493.18	7749.51
493.383	7864.2
493.587	8171.4
493.79	8079.24
493.994	8071.04
494.197	8118.15
494.401	8200.07
494.605	8322.94
494.808	8308.61
495.012	8245.12
495.215	8382.34
495.419	8503.17
495.622	8501.12
495.825	8515.45
496.029	8714.11
496.232	8783.74
496.436	8712.06
496.639	9054.07
496.843	9062.26
497.046	9074.55
497.249	9199.48
497.453	9242.48
497.656	9338.74
497.859	9308.02
498.063	9391.98
498.266	9725.8
498.469	9713.52
498.673	9662.32
498.876	9869.16
499.079	10178.4
499.282	9985.9
499.485	10284.9
499.689	10465.12
499.892	10454.88
500.095	10338.15
500.298	10800.99
500.501	10659.68
500.705	10927.96
500.908	11257.68
501.111	11290.45
501.314	11458.39
501.517	11620.17
501.72	11378.51
501.923	11360.08
502.126	11769.68
502.329	11956.04
502.532	12035.91
502.735	12302.15
502.938	12320.58
503.141	12519.23
503.344	12535.62
503.547	12484.42
503.75	12885.82
503.953	13193.01
504.156	13092.66
504.359	13303.6
504.562	13373.24
504.765	13686.58
504.968	13913.9
505.17	14036.78
505.373	13940.52
505.576	14214.95
505.779	14354.21
505.982	14343.97
506.185	14589.73
506.387	14903.07
506.59	14864.16
506.793	15320.85
506.996	15200.02
507.198	15564.56
507.401	15585.04
507.604	15759.12
507.807	16140.04
508.009	16236.3
508.212	16398.09
508.415	16713.47
508.617	16842.49
508.82	16862.97
509.022	16973.56
509.225	17583.86
509.428	17270.52
509.63	17682.16
509.833	17958.64
510.035	17932.01
510.238	17868.53
510.44	18511.59
510.643	18700
510.845	18636.52
511.048	18472.68
511.25	19099.36
511.453	19199.71
511.655	19957.46
511.858	19435.22
512.06	19928.78
512.262	20010.7
512.465	20219.6
512.667	20559.56
512.87	20747.97
513.072	20827.84
513.274	21229.24
513.477	21196.48
513.679	21565.11
513.881	21520.06
514.084	21917.36
514.286	21984.94
514.488	22222.51
514.69	22834.85
514.893	22929.06
515.095	22757.03
515.297	23332.51
515.499	23287.45
515.701	23697.05
515.904	23733.91
516.106	24020.63
516.308	24268.43
516.51	24522.38
516.712	24860.29
516.914	25284.22
517.116	25321.09
517.318	25384.57
517.52	25478.78
517.722	25417.34
517.925	26267.25
518.127	26220.14
518.329	26308.21
518.531	26631.79
518.733	26842.73
518.935	27569.76
519.136	27094.63
519.338	27543.13
519.54	28075.6
519.742	28034.64
519.944	28259.92
520.146	28528.2
520.348	28737.1
520.55	28870.22
520.752	28728.91
520.954	29517.37
521.155	29533.76
521.357	29537.85
521.559	29797.95
521.761	30334.51
521.963	30004.79
522.164	30428.72
522.366	30658.09
522.568	30813.74
522.77	31149.6
522.971	31737.37
523.173	31323.68
523.375	31696.41
523.576	31645.21
523.778	31870.49
523.98	32333.33
524.181	32472.59
524.383	32540.18
524.584	32716.3
524.786	32615.95
524.988	32613.9
525.189	33048.07
525.391	33342.98
525.592	33437.19
525.794	33496.58
525.995	33631.74
526.197	33666.56
526.398	34303.48
526.6	34246.13
526.801	34096.63
527.003	34571.76
527.204	34618.86
527.406	34317.81
527.607	34827.76
527.808	34807.28
528.01	34426.35
528.211	34936.3
528.412	35290.6
528.614	35171.82
528.815	35309.03
529.016	35685.86
529.218	35317.22
529.419	35212.77
529.62	35657.18
529.822	35517.92
530.023	35818.97
530.224	35778.01
530.425	35628.51
530.626	35767.77
530.828	35257.83
531.029	36449.75
531.23	36199.9
531.431	36015.58
531.632	36208.09
531.833	36066.78
532.035	36466.13
532.236	36494.8
532.437	36431.32
532.638	35907.04
532.839	36470.23
533.04	36281.81
533.241	36027.87
533.442	36529.62
533.643	36322.77
533.844	36574.67
534.045	36568.53
534.246	36386.26
534.447	36486.61
534.648	36470.23
534.849	36515.28
535.05	36320.73
535.251	36576.72
535.451	36615.63
535.652	36922.83
535.853	36521.43
536.054	36449.75
536.255	36423.12
536.456	36529.62
536.657	37014.99
536.857	36273.62
537.058	36077.02
537.259	36748.75
537.46	36683.22
537.66	36576.72
537.861	36797.9
538.062	36572.63
538.263	36699.6
538.463	36416.98
538.664	36593.11
538.865	36541.91
539.065	36566.48
539.266	36302.29
539.466	36634.06
539.667	36376.02
539.868	36804.05
540.068	36175.32
540.269	36535.76
540.469	36726.22
540.67	36380.12
540.87	36228.57
541.071	36353.49
541.271	36251.09
541.472	36326.87
541.672	36191.7
541.873	36369.88
542.073	36001.24
542.274	36498.9
542.474	36046.3
542.675	36013.53
542.875	36470.23
543.075	36294.1
543.276	35636.7
543.476	36253.14
543.676	36468.18
543.877	36613.59
544.077	36466.13
544.277	36066.78
544.478	35825.12
544.678	35935.71
544.878	36326.87
545.078	36009.43
545.279	36271.57
545.479	36220.38
545.679	36144.6
545.879	36347.35
546.079	36111.83
546.28	36122.07
546.48	35751.39
546.68	36208.09
546.88	36126.17
547.08	36351.45
547.28	35997.15
547.48	35665.38
547.68	36224.47
547.88	35720.67
548.081	36156.89
548.281	36437.46
548.481	35663.33
548.681	36189.66
548.881	35831.26
549.081	36208.09
549.28	36208.09
549.48	36277.72
549.68	35712.48
549.88	36388.31
550.08	35775.97
550.28	35651.04
550.48	36027.87
550.68	36097.5
550.88	35737.05
551.08	36089.31
551.279	36183.51
551.479	35608.03
551.679	35737.05
551.879	35771.87
552.079	36015.58
552.278	35681.76
552.478	35558.88
552.678	35988.95
552.878	35853.79
553.077	35739.1
553.277	35524.07
553.477	36060.63
553.676	35730.91
553.876	35651.04
554.076	35182.06
554.275	35468.77
554.475	35139.05
554.674	35667.42
554.874	35954.14
555.074	35210.73
555.273	35466.72
555.473	35538.4
555.672	35157.48
555.872	35280.36
556.071	35509.73
556.271	35569.12
556.47	35233.25
556.67	34948.59
556.869	35288.55
557.068	35175.91
557.268	34678.25
557.467	34838
557.667	34967.02
557.866	34604.53
558.065	34921.96
558.265	34967.02
558.464	35067.37
558.663	34991.59
558.863	34493.94
559.062	35333.6
559.261	34338.29
559.461	34831.85
559.66	34395.64
559.859	34444.79
560.058	34315.76
560.258	34582
560.457	34393.59
560.656	34242.04
560.855	34586.1
561.054	34526.71
561.253	34190.84
561.453	34166.26
561.652	34401.78
561.851	34465.27
562.05	33994.23
562.249	33938.94
562.448	34127.35
562.647	34332.15
562.846	33994.23
563.045	33924.6
563.244	33664.51
563.443	34119.16
563.642	33467.91
563.841	33625.6
564.04	33394.18
564.239	33621.5
564.438	33146.37
564.637	33736.19
564.836	33336.84
565.035	32869.9
565.234	33654.27
565.432	33158.66
565.631	32970.25
565.83	33697.28
566.029	32968.2
566.228	32974.34
566.427	32540.18
566.625	32796.17
566.824	32298.52
567.023	32947.72
567.222	32149.01
567.42	32779.79
567.619	32558.61
567.818	32458.26
568.016	32341.52
568.215	32753.16
568.414	32056.85
568.612	32552.46
568.811	32040.47
569.01	32321.04
569.208	31813.15
569.407	32093.72
569.605	31524.38
569.804	32118.29
570.002	31616.54
570.201	31878.68
570.4	31452.7
570.598	31421.98
570.797	31432.22
570.995	31247.91
571.193	31024.68
571.392	31450.66
571.59	30918.18
571.789	31188.52
571.987	30944.81
572.186	30889.51
572.384	30768.68
572.582	30840.36
572.781	30895.66
572.979	30340.66
573.177	30649.9
573.376	30610.99
573.574	30469.68
573.772	30643.76
573.971	30547.5
574.169	30045.75
574.367	29935.16
574.565	30160.44
574.763	30187.06
574.962	29799.99
575.16	29744.7
575.358	29904.44
575.556	29578.81
575.754	29896.25
575.952	29494.85
576.151	29918.78
576.349	29537.85
576.547	29158.98
576.745	29472.32
576.943	29386.3
577.141	28917.32
577.339	29107.78
577.537	29292.1
577.735	29029.96
577.933	28915.27
578.131	28827.21
578.329	28575.31
578.527	28493.39
578.725	28606.03
578.923	28761.67
579.121	28798.54
579.319	28313.17
579.516	28657.23
579.714	28497.49
579.912	28229.2
580.11	27991.64
580.308	28286.54
580.506	28100.18
580.704	27754.07
580.901	27973.21
581.099	28051.03
581.297	27782.74
581.495	27410.01
581.692	27754.07
581.89	27057.76
582.088	27586.14
582.285	27473.5
582.483	27295.33
582.681	27129.44
582.878	27180.64
583.076	26973.8
583.274	27256.42
583.471	26682.98
583.669	26814.05
583.866	26750.57
584.064	26627.69
584.262	26392.17
584.459	26877.54
584.657	26537.58
584.854	26441.32
585.052	25943.67
585.249	26367.6
585.447	26201.71
585.644	25960.05
585.841	26375.79
586.039	26355.31
586.236	25642.62
586.434	25955.96
586.631	25888.37
586.828	25822.84
587.026	25648.76
587.223	25542.27
587.42	25632.38
587.618	25552.51
587.815	25046.66
588.012	25224.83
588.21	25325.18
588.407	25294.46
588.604	25114.24
588.801	24704.65
588.999	24845.96
589.196	25015.94
589.393	24778.37
589.59	24794.76
589.787	24440.46
589.984	24297.1
590.182	24387.21
590.379	24786.57
590.576	24149.65
590.773	24311.44
590.97	24080.02
591.167	24184.46
591.364	23924.37
591.561	24174.22
591.758	23774.87
591.955	23740.05
592.152	23707.29
592.349	23723.67
592.546	23979.67
592.743	23525.02
592.94	23408.28
593.137	23479.96
593.334	23729.81
593.531	23338.65
593.727	23312.03
593.924	23467.67
594.121	23023.26
594.318	22779.56
594.515	22941.35
594.712	23070.37
594.908	22814.37
595.105	23027.36
595.302	22711.97
595.499	22812.32
595.696	22408.87
595.892	22570.66
596.089	22568.62
596.286	22779.56
596.482	22558.38
596.679	22148.78
596.876	22283.95
597.072	21862.07
597.269	22077.1
597.466	22107.82
597.662	21890.74
597.859	21884.59
598.055	22212.27
598.252	21649.08
598.448	21827.25
598.645	21569.21
598.841	21429.94
599.038	21423.8
599.234	21644.98
599.431	21165.76
599.627	21044.93
599.824	21491.38
600.02	20920
600.217	21190.33
600.413	21051.07
600.609	20973.25
600.806	20676.29
601.002	20909.76
601.198	20829.89
601.395	20684.48
601.591	20518.6
601.787	20547.27
601.984	20410.06
602.18	20690.63
602.376	20059.85
602.572	20061.9
602.769	20260.55
602.965	20246.22
603.161	20041.42
603.357	19822.29
603.553	19840.72
603.75	20072.14
603.946	19803.86
604.142	19988.17
604.338	19842.77
604.534	19689.17
604.73	19279.58
604.926	19597.01
605.122	19697.36
605.318	19373.78
605.514	19463.9
605.71	19437.27
605.906	19285.72
606.102	19150.56
606.298	19355.35
606.494	19066.59
606.69	19025.63
606.886	19289.82
607.082	18898.66
607.278	19046.11
607.474	18929.38
607.67	18951.9
607.866	18575.08
608.062	18648.8
608.257	18542.31
608.453	18915.04
608.649	18771.68
608.845	18308.84
609.041	18540.26
609.236	18630.37
609.432	18353.9
609.628	18392.81
609.824	18159.34
610.019	18202.35
610.215	18327.27
610.411	18216.68
610.606	17999.6
610.802	18355.94
610.998	18058.99
611.193	18007.79
611.389	18167.53
611.584	18075.37
611.78	17886.96
611.976	17970.93
612.171	17735.41
612.367	17878.77
612.562	17620.72
612.758	17583.86
612.953	17741.55
613.149	17735.41
613.344	17671.92
613.539	17934.06
613.735	17725.17
613.93	17569.52
614.126	17491.7
614.321	17843.95
614.517	17395.45
614.712	17372.92
614.907	17405.69
615.103	17526.52
615.298	17247.99
615.493	17585.91
615.688	17041.15
615.884	17491.7
616.079	17039.1
616.274	17305.34
616.47	16936.7
616.665	17157.88
616.86	17043.2
617.055	16688.9
617.25	16905.98
617.445	17039.1
617.641	16721.66
617.836	16912.13
618.031	16543.49
618.226	16770.82
618.421	16355.08
618.616	16711.42
618.811	16150.28
619.006	16744.19
619.201	16275.21
619.396	16277.26
619.591	16086.79
619.786	16219.91
619.981	15824.65
620.176	16166.67
620.371	16047.88
620.566	16011.02
620.761	15886.09
620.956	15914.77
621.151	15460.12
621.346	15736.59
621.541	15433.49
621.735	15707.92
621.93	15333.14
622.125	15398.68
622.32	15161.11
622.515	15531.8
622.709	15286.04
622.904	15195.93
623.099	14886.68
623.294	14815.01
623.488	14780.19
623.683	14749.47
623.878	14548.77
624.072	14442.28
624.267	14538.53
624.462	14628.64
624.656	14186.28
624.851	14305.06
625.046	14460.71
625.24	14028.59
625.435	14085.93
625.629	14034.73
625.824	13831.98
626.018	14077.74
626.213	13698.86
626.407	13649.71
626.602	13397.81
626.796	13623.09
626.991	13745.97
627.185	13420.34
627.38	13225.78
627.574	13131.58
627.768	13033.27
627.963	13270.84
628.157	12726.08
628.352	13150.01
628.546	12750.65
628.74	12771.13
628.935	12699.45
629.129	12652.35
629.323	12558.14
629.517	12504.9
629.712	12554.05
629.906	12568.38
630.1	12298.05
630.294	12418.88
630.489	12048.2
630.683	12171.08
630.877	12119.88
631.071	12044.1
631.265	12115.78
631.459	11945.8
631.653	11781.96
631.848	11835.21
632.042	11636.56
632.236	11618.13
632.43	11544.4
632.624	11591.5
632.818	11558.74
633.012	11431.76
633.206	11333.46
633.4	11388.75
633.594	11188.05
633.788	11128.66
633.982	11327.32
634.176	11233.11
634.369	10958.68
634.563	11259.73
634.757	10850.14
634.951	10788.7
635.145	10669.92
635.339	10805.08
635.533	10737.5
635.726	10534.75
635.92	10657.63
636.114	10608.48
636.308	10329.95
636.501	10338.15
636.695	10372.96
636.889	10329.95
637.083	10360.67
637.276	10094.44
637.47	10211.17
637.664	10114.92
637.857	10088.29
638.051	9996.14
638.244	9846.63
638.438	9873.26
638.632	9875.31
638.825	9721.71
639.019	9627.5
639.212	9590.64
639.406	9549.68
639.599	9607.02
639.793	9508.72
639.986	9353.07
640.18	9297.78
640.373	9453.42
640.567	9035.64
640.76	9322.35
640.954	9068.41
641.147	8961.91
641.34	9009.01
641.534	9072.5
641.727	9037.69
641.92	8998.77
642.114	8738.68
642.307	8824.7
642.5	8771.45
642.694	8511.36
642.887	8566.65
643.08	8509.31
643.273	8556.41
643.467	8572.8
643.66	8447.87
643.853	8402.82
644.046	8183.68
644.239	8314.75
644.432	8165.25
644.626	8218.5
644.819	8318.85
645.012	7901.06
645.205	8032.13
645.398	7937.93
645.591	8023.94
645.784	8038.28
645.977	7856.01
646.17	7923.59
646.363	7876.49
646.556	7720.84
646.749	7518.09
646.942	7798.66
647.135	7667.6
647.328	7698.31
647.521	7528.33
647.714	7536.53
647.907	7573.39
648.099	7354.26
648.292	7376.78
648.485	7346.06
648.678	7258
648.871	7073.68
649.064	7151.51
649.256	7133.08
649.449	7196.56
649.642	7047.06
649.835	7171.99
650.027	7085.97
650.22	6954.9
650.413	6911.89
650.605	6832.02
650.798	6854.55
650.991	6754.2
651.183	6721.43
651.376	6666.14
651.568	6741.91
651.761	6602.65
651.954	6602.65
652.146	6582.17
652.339	6530.97
652.531	6555.55
652.724	6375.33
652.916	6360.99
653.109	6401.95
653.301	6188.96
653.494	6444.96
653.686	6229.92
653.879	6215.59
654.071	6350.75
654.263	6041.51
654.456	6096.8
654.648	6141.86
654.84	5810.09
655.033	5969.83
655.225	5984.16
655.417	5765.03
655.61	5969.83
655.802	5812.14
655.994	5894.05
656.186	6107.04
656.379	5703.59
656.571	5828.52
656.763	5965.73
656.955	5752.74
657.148	5734.31
657.34	5466.03
657.532	5615.53
657.724	5574.57
657.916	5674.92
658.108	5259.18
658.3	5410.73
658.492	5533.61
658.684	5418.93
658.876	5265.33
659.068	5459.88
659.26	5347.25
659.452	5312.43
659.644	5175.22
659.836	5263.28
660.028	5144.5
660.22	4949.94
660.412	5144.5
660.604	5097.39
660.796	4947.89
660.988	5011.38
661.18	5150.64
661.372	4968.37
661.563	5074.87
661.755	4935.6
661.947	4943.8
662.139	4937.65
662.331	4921.27
662.522	4882.36
662.714	4972.47
662.906	4808.63
663.097	4810.68
663.289	4839.35
663.481	4640.7
663.673	4683.7
663.864	4530.11
664.056	4579.26
664.247	4577.21
664.439	4386.75
664.631	4519.87
664.822	4487.1
665.014	4470.72
665.205	4446.14
665.397	4405.18
665.588	4409.28
665.78	4399.04
665.971	4261.82
666.163	4231.1
666.354	4263.87
666.546	4147.14
666.737	4337.6
666.929	4288.45
667.12	4106.18
667.311	4165.57
667.503	4052.93
667.694	4071.36
667.885	4067.27
668.077	4116.42
668.268	4151.23
668.459	4112.32
668.651	3975.11
668.842	3948.48
669.033	3903.43
669.224	3893.19
669.416	4087.75
669.607	3977.16
669.798	3813.32
669.989	3831.75
670.18	3860.42
670.371	3700.68
670.563	3913.67
670.754	3741.64
670.945	3764.17
671.136	3641.29
671.327	3758.02
671.518	3667.91
671.709	3743.69
671.9	3686.34
672.091	3616.71
672.282	3524.55
672.473	3561.42
672.664	3637.19
672.855	3522.51
673.046	3499.98
673.237	3538.89
673.428	3702.73
673.619	3512.27
673.809	3432.4
674	3477.45
674.191	3399.63
674.382	3317.71
674.573	3338.19
674.764	3485.64
674.954	3282.89
675.145	3325.9
675.336	3385.29
675.527	3373
675.717	3282.89
675.908	3405.77
676.099	3338.19
676.289	3332.05
676.48	3389.39
676.671	3313.61
676.861	3227.6
677.052	3219.41
677.243	3274.7
677.433	3215.31
677.624	3256.27
677.814	3088.34
678.005	3125.2
678.195	3221.45
678.386	3106.77
678.576	3045.33
678.767	3102.67
678.957	3051.47
679.148	2992.08
679.338	3043.28
679.529	3133.39
679.719	2977.75
679.909	3108.82
680.1	3012.56
680.29	3055.57
680.481	3090.38
680.671	2967.51
680.861	3051.47
681.052	3035.09
681.242	2895.83
681.432	2957.27
681.622	3045.33
681.813	2998.23
682.003	2914.26
682.193	2846.68
682.383	2854.87
682.573	2844.63
682.764	2799.57
682.954	2830.29
683.144	2820.05
683.334	2713.56
683.524	2813.91
683.714	2856.92
683.904	2777.05
684.094	2813.91
684.284	2906.07
684.474	2901.97
684.664	2717.65
684.854	2781.14
685.044	2838.48
685.234	2715.61
685.424	2850.77
685.614	2752.47
685.804	2805.72
685.994	2648.02
686.184	2582.49
686.374	2758.61
686.564	2680.79
686.753	2723.8
686.943	2650.07
687.133	2729.94
687.323	2605.02
687.513	2654.17
687.702	2734.04
687.892	2555.86
688.082	2559.96
688.272	2703.32
688.461	2629.59
688.651	2625.5
688.841	2637.78
689.03	2492.38
689.22	2588.63
689.41	2609.11
689.599	2551.77
689.789	2713.56
689.979	2551.77
690.168	2576.34
690.358	2609.11
690.547	2465.75
690.737	2551.77
690.926	2533.34
691.116	2488.28
691.305	2463.71
691.495	2461.66
691.684	2437.08
691.874	2430.94
692.063	2308.06
692.252	2457.56
692.442	2439.13
692.631	2445.27
692.82	2490.33
693.01	2389.98
693.199	2369.5
693.388	2506.71
693.578	2471.9
693.767	2330.59
693.956	2416.6
694.146	2439.13
694.335	2488.28
694.524	2465.75
694.713	2455.51
694.902	2322.4
695.092	2342.88
695.281	2340.83
695.47	2359.26
695.659	2387.93
695.848	2342.88
696.037	2381.79
696.226	2265.05
696.415	2252.77
696.604	2453.47
696.793	2308.06
696.982	2316.25
697.171	2379.74
697.36	2308.06
697.549	2316.25
697.738	2281.44
697.927	2353.12
698.116	2299.87
698.305	2322.4
698.494	2140.13
698.683	2191.33
698.872	2355.16
699.061	2260.96
699.25	2250.72
699.438	2314.2
699.627	2238.43
699.816	2254.81
700.005	2156.51
700.193	2234.33
700.382	2133.98
700.571	2277.34
700.76	2246.62
700.948	2168.8
701.137	2254.81
701.326	2129.89
701.514	2179.04
701.703	2232.29
701.892	2109.41
702.08	2154.46
702.269	2220
702.457	2148.32
702.646	2230.24
702.834	2095.07
703.023	2103.26
703.212	2039.78
703.4	2199.52
703.589	2043.87
703.777	2228.19
703.965	2197.47
704.154	2084.83
704.342	2127.84
704.531	2097.12
704.719	2019.3
704.907	2119.65
705.096	2093.02
705.284	2166.75
705.472	2056.16
705.661	1953.76
705.849	2037.73
706.037	2058.21
706.226	1968.1
706.414	2025.44
706.602	2054.11
706.79	2015.2
706.979	2088.93
707.167	2117.6
707.355	2072.54
707.543	2021.35
707.731	2011.11
707.919	1994.72
708.107	2029.54
708.296	1945.57
708.484	2029.54
708.672	1959.91
708.86	1955.81
709.048	1890.28
709.236	1951.71
709.424	1974.24
709.612	2004.96
709.8	1890.28
709.988	1945.57
710.176	1994.72
710.364	1945.57
710.551	1929.19
710.739	1892.32
710.927	1908.71
711.115	1951.71
711.303	1949.67
711.491	1923.04
711.679	1802.21
711.866	1808.36
712.054	1873.89
712.242	1916.9
712.43	1933.28
712.617	1929.19
712.805	1800.16
712.993	1902.56
713.181	1820.64
713.368	1863.65
713.556	1918.95
713.744	1748.97
713.931	1886.18
714.119	1816.55
714.306	1886.18
714.494	1800.16
714.682	1802.21
714.869	1722.34
715.057	1751.01
715.244	1728.49
715.432	1748.97
715.619	1746.92
715.807	1730.53
715.994	1857.51
716.182	1740.77
716.369	1718.25
716.556	1685.48
716.744	1630.18
716.931	1634.28
717.119	1834.98
717.306	1746.92
717.493	1687.53
717.681	1634.28
717.868	1738.73
718.055	1742.82
718.242	1699.81
718.43	1728.49
718.617	1669.09
718.804	1669.09
718.991	1753.06
719.179	1601.51
719.366	1675.24
719.553	1689.57
719.74	1722.34
719.927	1640.42
720.114	1630.18
720.301	1486.83
720.488	1601.51
720.676	1585.13
720.863	1644.52
721.05	1619.94
721.237	1630.18
721.424	1554.41
721.611	1646.57
721.798	1583.08
721.985	1505.26
722.172	1544.17
722.358	1570.79
722.545	1490.92
722.732	1603.56
722.919	1576.94
723.106	1503.21
723.293	1576.94
723.48	1583.08
723.667	1538.02
723.853	1390.57
724.04	1626.09
724.227	1578.98
724.414	1525.74
724.6	1460.2
724.787	1482.73
724.974	1595.37
725.161	1452.01
725.347	1527.78
725.534	1499.11
725.72	1499.11
725.907	1464.3
726.094	1449.96
726.28	1417.19
726.467	1441.77
726.653	1454.06
726.84	1482.73
727.027	1503.21
727.213	1505.26
727.4	1474.54
727.586	1521.64
727.773	1400.81
727.959	1402.86
728.145	1417.19
728.332	1421.29
728.518	1423.34
728.705	1458.15
728.891	1460.2
729.077	1355.76
729.264	1404.91
729.45	1486.83
729.636	1411.05
729.823	1390.57
730.009	1404.91
730.195	1347.56
730.382	1396.71
730.568	1351.66
730.754	1347.56
730.94	1351.66
731.126	1343.47
731.313	1447.91
731.499	1370.09
731.685	1261.55
731.871	1300.46
732.057	1363.95
732.243	1304.56
732.429	1306.6
732.615	1349.61
732.801	1306.6
732.987	1265.64
733.173	1359.85
733.359	1370.09
733.545	1337.32
733.731	1253.36
733.917	1368.04
734.103	1318.89
734.289	1398.76
734.475	1284.08
734.661	1394.67
734.847	1341.42
735.033	1314.8
735.219	1286.12
735.404	1312.75
735.59	1318.89
735.776	1239.02
735.962	1208.3
736.148	1267.69
736.333	1230.83
736.519	1249.26
736.705	1304.56
736.89	1349.61
737.076	1292.27
737.262	1228.78
737.447	1212.4
737.633	1282.03
737.819	1325.04
738.004	1265.64
738.19	1294.32
738.375	1245.16
738.561	1236.97
738.747	1148.91
738.932	1220.59
739.118	1222.64
739.303	1222.64
739.489	1234.93
739.674	1167.34
739.859	1142.77
740.045	1218.54
740.23	1257.45
740.416	1269.74
740.601	1259.5
740.786	1206.25
740.972	1251.31
741.157	1255.4
741.342	1163.25
741.528	1120.24
741.713	1185.77
741.898	1247.21
742.084	1081.33
742.269	1134.57
742.454	1150.96
742.639	1161.2
742.824	1030.13
743.01	1112.05
743.195	1216.49
743.38	1069.04
743.565	1038.32
743.75	1153.01
743.935	1136.62
744.12	1144.81
744.305	1083.38
744.49	1118.19
744.675	1089.52
744.86	1101.81
745.045	1183.73
745.23	1071.09
745.415	1044.46
745.6	1015.79
745.785	1044.46
745.97	1099.76
746.155	1046.51
746.34	1130.48
746.525	1003.5
746.71	1044.46
746.895	929.78
747.079	1023.98
747.264	1056.75
747.449	1028.08
747.634	964.59
747.819	929.78
748.003	976.88
748.188	909.3
748.373	901.11
748.557	856.05
748.742	1044.46
748.927	978.93
749.111	1060.85
749.296	987.12
749.481	1013.74
749.665	980.98
749.85	970.74
750.034	905.2
750.219	888.82
750.404	933.87
750.588	940.02
750.773	796.66
750.957	935.92
751.141	841.72
751.326	911.35
751.51	856.05
751.695	831.48
751.879	886.77
752.064	892.91
752.248	888.82
752.432	905.2
752.617	899.06
752.801	878.58
752.985	886.77
753.17	911.35
753.354	804.85
753.538	837.62
753.722	858.1
753.907	870.39
754.091	888.82
754.275	882.67
754.459	837.62
754.643	794.61
754.828	841.72
755.012	808.95
755.196	833.52
755.38	841.72
755.564	675.83
755.748	712.69
755.932	774.13
756.116	870.39
756.3	663.54
756.484	733.17
756.668	727.03
756.852	696.31
757.036	827.38
757.22	669.69
757.404	716.79
757.588	800.76
757.772	724.98
757.956	684.02
758.14	614.39
758.323	651.25
758.507	714.74
758.691	659.45
758.875	708.6
759.059	651.25
759.242	708.6
759.426	694.26
759.61	741.36
759.794	614.39
759.977	667.64
760.161	647.16
760.345	690.17
760.528	626.68
760.712	626.68
760.895	649.21
761.079	602.1
761.263	661.49
761.446	606.2
761.63	657.4
761.813	598.01
761.997	571.38
762.18	618.49
762.364	569.34
762.547	606.2
762.731	616.44
762.914	561.14
763.098	653.3
763.281	577.53
763.464	651.25
763.648	536.57
763.831	591.86
764.015	587.77
764.198	645.11
764.381	602.1
764.564	620.53
764.748	595.96
764.931	577.53
765.114	614.39
765.297	544.76
765.481	589.82
765.664	606.2
765.847	587.77
766.03	540.66
766.213	577.53
766.397	620.53
766.58	616.44
766.763	571.38
766.946	497.66
767.129	563.19
767.312	555
767.495	614.39
767.678	499.7
767.861	571.38
768.044	538.62
768.227	540.66
768.41	477.18
768.593	514.04
768.776	589.82
768.959	622.58
769.142	481.27
769.324	557.05
769.507	495.61
769.69	567.29
769.873	608.25
770.056	522.23
770.239	540.66
770.421	585.72
770.604	591.86
770.787	536.57
770.97	456.7
771.152	546.81
771.335	526.33
771.518	514.04
771.7	524.28
771.883	485.37
772.066	471.03
772.248	487.42
772.431	514.04
772.613	430.07
772.796	483.32
772.978	471.03
773.161	446.46
773.343	561.14
773.526	595.96
773.708	401.4
773.891	454.65
774.073	446.46
774.256	366.59
774.438	452.6
774.621	475.13
774.803	481.27
774.985	448.51
775.168	415.74
775.35	458.75
775.532	382.97
775.715	409.59
775.897	442.36
776.079	456.7
776.261	442.36
776.444	389.11
776.626	413.69
776.808	354.3
776.99	456.7
777.173	446.46
777.355	452.6
777.537	432.12
777.719	354.3
777.901	407.55
778.083	413.69
778.265	401.4
778.447	442.36
778.629	432.12
778.811	417.79
778.993	417.79
779.175	409.59
779.357	399.35
779.539	477.18
779.721	382.97
779.903	475.13
780.085	296.96
780.267	456.7
780.449	335.87
780.631	376.83
780.812	354.3
780.994	337.91
781.176	389.11
781.358	305.15
781.54	372.73
781.721	360.44
781.903	335.87
782.085	325.63
782.267	356.35
782.448	352.25
782.63	276.48
782.812	358.39
782.993	378.87
783.175	313.34
783.357	286.72
783.538	323.58
783.72	301.05
783.901	356.35
784.083	274.43
784.264	286.72
784.446	294.91
784.627	292.86
784.809	311.29
784.99	305.15
785.172	376.83
785.353	270.33
785.535	225.28
785.716	274.43
785.897	235.52
786.079	264.19
786.26	325.63
786.441	256
786.623	172.03
786.804	299
786.985	258.04
787.167	141.31
787.348	280.57
787.529	264.19
787.71	262.14
787.891	266.24
788.073	233.47
788.254	288.76
788.435	219.13
788.616	280.57
788.797	229.37
788.978	249.85
789.159	253.95
789.34	157.69
789.522	260.09
789.703	290.81
789.884	249.85
790.065	290.81
790.246	202.75
790.427	253.95
790.607	256
790.788	180.22
790.969	198.65
791.15	215.04
791.331	249.85
791.512	200.7
791.693	204.8
791.874	237.56
792.054	210.94
792.235	247.8
792.416	217.08
792.597	270.33
792.778	237.56
792.958	210.94
793.139	249.85
793.32	219.13
793.5	141.31
793.681	200.7
793.862	188.41
794.042	147.45
794.223	190.46
794.404	204.8
794.584	161.79
794.765	153.6
794.945	120.83
795.126	219.13
795.306	208.89
795.487	247.8
795.667	157.69
795.848	237.56
796.028	137.21
796.209	133.12
796.389	217.08
796.57	192.51
796.75	147.45
796.93	182.27
797.111	210.94
797.291	215.04
797.471	135.17
797.652	118.78
797.832	135.17
798.012	210.94
798.192	180.22
798.373	233.47
798.553	165.89
798.733	153.6
798.913	163.84
799.093	137.21
799.274	186.37
799.454	208.89
799.634	184.32
799.814	145.41
799.994	147.45
800.174	155.65
800.354	210.94
800.534	212.99
800.714	129.02
800.894	120.83
801.074	122.88
801.254	167.93
801.434	131.07
801.614	122.88
801.794	126.97
801.974	307.2
802.154	81.92
802.334	135.17
802.514	114.69
802.693	141.31
802.873	188.41
803.053	169.98
803.233	169.98
803.413	247.8
803.592	174.08
803.772	124.93
803.952	135.17
804.131	112.64
804.311	75.77
804.491	131.07
804.67	83.97
804.85	133.12
805.03	167.93
805.209	120.83
805.389	112.64
805.568	126.97
805.748	81.92
805.928	120.83
806.107	122.88
806.287	86.01
806.466	157.69
806.646	110.59
806.825	145.41
807.004	79.87
807.184	77.82
807.363	141.31
807.543	96.25
807.722	151.55
807.901	155.65
808.081	88.06
808.26	79.87
808.439	129.02
808.619	108.54
808.798	141.31
808.977	94.21
809.156	100.35
809.336	63.49
809.515	92.16
809.694	167.93
809.873	131.07
810.052	71.68
810.231	92.16
810.411	61.44
810.59	137.21
810.769	83.97
810.948	110.59
811.127	55.3
811.306	157.69
811.485	131.07
811.664	129.02
811.843	155.65
812.022	157.69
812.201	81.92
812.38	96.25
812.559	114.69
812.737	120.83
812.916	122.88
813.095	124.93
813.274	112.64
813.453	96.25
813.632	36.86
813.811	71.68
813.989	110.59
814.168	174.08
814.347	94.21
814.526	153.6
814.704	108.54
814.883	94.21
815.062	90.11
815.24	190.46
815.419	104.45
815.598	120.83
815.776	86.01
815.955	61.44
816.133	65.54
816.312	122.88
816.49	102.4
816.669	75.77
816.847	104.45
817.026	40.96
817.204	79.87
817.383	75.77
817.561	45.06
817.74	200.7
817.918	69.63
818.097	40.96
818.275	49.15
818.453	57.34
818.632	67.58
818.81	53.25
818.988	118.78
819.167	30.72
819.345	10.24
819.523	79.87
819.701	81.92
819.879	67.58
820.058	83.97
820.236	59.39
820.414	24.58
820.592	67.58
820.77	153.6
820.948	65.54
821.127	57.34
821.305	165.89
821.483	4.1
821.661	61.44
821.839	73.73
822.017	110.59
822.195	100.35
822.373	67.58
822.551	77.82
822.729	114.69
822.907	75.77
823.085	106.49
823.262	-24.58
823.44	24.58
823.618	-32.77
823.796	4.1
823.974	92.16
824.152	153.6
824.329	2.05
824.507	129.02
824.685	40.96
824.863	47.1
825.04	67.58
825.218	71.68
825.396	67.58
825.574	114.69
825.751	47.1
825.929	22.53
826.107	16.38
826.284	96.25
826.462	14.34
826.639	18.43
826.817	86.01
826.994	141.31
827.172	67.58
827.349	67.58
827.527	4.1
827.704	55.3
827.882	49.15
828.059	43.01
828.237	79.87
828.414	55.3
828.591	102.4
828.769	38.91
828.946	49.15
829.124	53.25
829.301	92.16
829.478	94.21
829.655	129.02
829.833	45.06
830.01	77.82
830.187	112.64
830.364	90.11
830.542	57.34
830.719	34.82
830.896	12.29
831.073	26.62
831.25	75.77
831.427	69.63
831.604	28.67
831.782	40.96
831.959	6.14
832.136	36.86
832.313	40.96
832.49	32.77
832.667	83.97
832.844	102.4
833.021	79.87
833.198	28.67
833.374	57.34
833.551	94.21
833.728	83.97
833.905	10.24
834.082	20.48
834.259	102.4
834.436	63.49
834.612	-2.05
834.789	30.72
834.966	77.82
835.143	16.38
835.319	81.92
835.496	79.87
835.673	114.69
835.85	81.92
836.026	110.59
836.203	16.38
836.38	20.48
836.556	20.48
836.733	96.25
836.909	4.1
837.086	20.48
837.262	-12.29
837.439	90.11
837.616	53.25
837.792	4.1
837.968	18.43
838.145	45.06
838.321	49.15
838.498	108.54
838.674	65.54
838.851	61.44
839.027	20.48
839.203	34.82
839.38	22.53
839.556	100.35
839.732	18.43
839.909	36.86
840.085	124.93
840.261	22.53
840.437	133.12
840.614	67.58
840.79	67.58
840.966	22.53
841.142	-30.72
841.318	61.44
841.494	79.87
841.671	61.44
841.847	55.3
842.023	16.38
842.199	18.43
842.375	-59.39
842.551	14.34
842.727	53.25
842.903	118.78
843.079	18.43
843.255	-4.1
843.431	45.06
843.607	14.34
843.783	24.58
843.959	53.25
844.134	-6.14
844.31	24.58
844.486	83.97
844.662	53.25
844.838	63.49
845.013	-16.38
845.189	51.2
845.365	71.68
845.541	26.62
845.716	-4.1
845.892	30.72
846.068	8.19
846.244	2.05
846.419	38.91
846.595	-36.86
846.77	22.53
846.946	55.3
847.122	-4.1
847.297	-18.43
847.473	45.06
847.648	26.62
847.824	106.49
847.999	0
848.175	38.91
848.35	65.54
848.526	65.54
848.701	-8.19
848.876	53.25
849.052	34.82
849.227	36.86
849.403	8.19
849.578	-12.29
849.753	45.06
849.929	8.19
850.104	81.92
850.279	12.29
850.454	147.45
850.63	61.44
850.805	-67.58
850.98	-2.05
851.155	55.3
851.33	49.15
851.505	14.34
851.681	67.58
851.856	-6.14
852.031	45.06
852.206	-10.24
852.381	47.1
852.556	20.48
852.731	71.68
852.906	75.77
853.081	69.63
853.256	38.91
853.431	-43.01
853.606	24.58
853.781	81.92
853.956	-6.14
854.131	47.1
854.305	51.2
854.48	86.01
854.655	-12.29
854.83	32.77
855.005	30.72
855.18	4.1
855.354	18.43
855.529	-2.05
855.704	-4.1
855.879	55.3
856.053	-8.19
856.228	51.2
856.403	61.44
856.577	73.73
856.752	30.72
856.926	79.87
857.101	-2.05
857.276	6.14
857.45	-10.24
857.625	-34.82
857.799	55.3
857.974	38.91
858.148	47.1
858.323	90.11
858.497	28.67
858.672	28.67
858.846	-8.19
859.02	45.06
859.195	-18.43
859.369	59.39
859.543	8.19
859.718	-2.05
859.892	30.72
860.066	24.58
860.241	73.73
860.415	28.67
860.589	28.67
860.763	53.25
860.938	-67.58
861.112	96.25
861.286	-14.34
861.46	4.1
861.634	65.54
861.808	34.82
861.982	-22.53
862.157	12.29
862.331	79.87
862.505	-32.77
862.679	-4.1
862.853	65.54
863.027	14.34
863.201	36.86
863.375	-57.34
863.549	36.86
863.722	24.58
863.896	-30.72
864.07	26.62
864.244	14.34
864.418	36.86
864.592	30.72
864.766	10.24
864.939	-18.43
865.113	51.2
865.287	32.77
865.461	65.54
865.634	59.39
865.808	20.48
865.982	14.34
866.156	26.62
866.329	8.19
866.503	30.72
866.676	38.91
866.85	-4.1
867.024	43.01
867.197	-67.58
867.371	108.54
867.544	30.72
867.718	53.25
867.891	-4.1
868.065	69.63
868.238	10.24
868.412	57.34
868.585	4.1
868.759	-18.43
868.932	20.48
869.105	-34.82
869.279	16.38
869.452	77.82
869.625	55.3
869.799	-20.48
869.972	-49.15
870.145	-36.86
870.319	-30.72
870.492	34.82
870.665	6.14
870.838	28.67
871.011	0
871.185	36.86
871.358	4.1
871.531	16.38
871.704	-10.24
871.877	12.29
872.05	-18.43
872.223	26.62
872.396	16.38
872.569	-20.48
872.742	-10.24
872.915	8.19
873.088	61.44
873.261	47.1
873.434	43.01
873.607	18.43
873.78	51.2
873.953	24.58
874.126	28.67
874.299	12.29
874.471	38.91
874.644	24.58
874.817	28.67
874.99	47.1
875.163	-16.38
875.335	6.14
875.508	14.34
875.681	55.3
875.853	65.54
876.026	81.92
876.199	38.91
876.371	38.91
876.544	-43.01
876.717	-6.14
876.889	6.14
877.062	18.43
877.234	20.48
877.407	108.54
877.579	16.38
877.752	81.92
877.924	8.19
878.097	-8.19
878.269	6.14
878.442	40.96
878.614	65.54
878.786	12.29
878.959	14.34
879.131	69.63
879.303	-8.19
879.476	12.29
879.648	51.2
879.82	2.05
879.993	-49.15
880.165	-59.39
880.337	53.25
880.509	61.44
880.681	10.24
880.854	24.58
881.026	-18.43
881.198	-2.05
881.37	86.01
881.542	45.06
881.714	-40.96
881.886	8.19
882.058	-2.05
882.23	71.68
882.402	-6.14
882.574	69.63
882.746	90.11
882.918	34.82
883.09	14.34
883.262	-4.1
883.434	10.24
883.606	-4.1
883.778	-24.58
883.95	-2.05
884.122	-6.14
884.293	32.77
884.465	20.48
884.637	-28.67
884.809	-4.1
884.98	43.01
885.152	14.34
885.324	-88.06
885.496	32.77
885.667	-34.82
885.839	2.05
886.011	51.2
886.182	-12.29
886.354	16.38
886.525	24.58
886.697	-24.58
886.869	-55.3
887.04	96.25
887.212	45.06
887.383	53.25
887.555	14.34
887.726	73.73
887.897	4.1
888.069	-34.82
888.24	-4.1
888.412	8.19
888.583	36.86
888.754	38.91
888.926	-10.24
889.097	75.77
889.268	59.39
889.44	16.38
889.611	-30.72
889.782	-20.48
889.953	8.19
890.125	61.44
890.296	-57.34
890.467	-10.24
890.638	-43.01
890.809	-47.1
890.98	0
891.151	53.25
891.323	12.29
891.494	-28.67
891.665	-10.24
891.836	8.19
892.007	61.44
892.178	-28.67
892.349	-51.2
892.52	-16.38
892.691	14.34
892.862	20.48
893.032	61.44
893.203	79.87
893.374	-40.96
893.545	14.34
893.716	-32.77
893.887	14.34
894.057	38.91
894.228	28.67
894.399	-32.77
894.57	75.77
894.74	12.29
894.911	57.34
895.082	-49.15
895.253	-40.96
895.423	49.15
895.594	86.01
895.764	16.38
895.935	-2.05
896.106	24.58
896.276	8.19
896.447	-12.29
896.617	-28.67
896.788	-8.19
896.958	49.15
897.129	20.48
897.299	-12.29
897.47	0
897.64	36.86
897.81	-16.38
897.981	79.87
898.151	47.1
898.322	-12.29
898.492	28.67
898.662	22.53
898.832	71.68
899.003	-26.62
899.173	10.24
899.343	12.29
899.513	-32.77
