Data from USB4F104151__73__12-59-40-782.txt Node

Date: Fri Mar 14 12:59:40 EDT 2025
User: louis
Spectrometer: USB4F10415
Trigger mode: 4
Integration Time (sec): 1.000000E-2
Scans to average: 1
Electric dark correction enabled: true
Nonlinearity correction enabled: false
Boxcar width: 0
XAxis mode: Wavelengths
Number of Pixels in Spectrum: 3648
>>>>>Begin Spectral Data<<<<<
178.204	-80.72
178.424	-80.72
178.644	-80.72
178.864	-62.29
179.084	-37.72
179.304	3.24
179.524	-0.85
179.744	33.96
179.964	-27.48
180.184	-43.86
180.404	23.72
180.624	-21.33
180.844	19.63
181.064	-35.67
181.283	23.72
181.503	52.39
181.723	-27.48
181.943	15.53
182.163	25.77
182.383	-35.67
182.602	44.2
182.822	5.29
183.042	48.3
183.262	-13.14
183.482	62.63
183.701	-0.85
183.921	15.53
184.141	-41.81
184.361	31.91
184.58	3.24
184.8	42.15
185.02	-11.09
185.239	-25.43
185.459	-23.38
185.679	62.63
185.898	-39.76
186.118	54.44
186.338	-72.53
186.557	62.63
186.777	-15.19
186.997	21.67
187.216	-11.09
187.436	58.54
187.655	-45.91
187.875	-15.19
188.095	31.91
188.314	36.01
188.534	27.82
188.753	-72.53
188.973	70.83
189.192	27.82
189.412	27.82
189.631	29.87
189.851	-9.05
190.07	91.31
190.29	-27.48
190.509	21.67
190.729	38.06
190.948	5.29
191.168	62.63
191.387	-25.43
191.607	19.63
191.826	9.39
192.045	25.77
192.265	36.01
192.484	-19.29
192.704	-62.29
192.923	21.67
193.142	66.73
193.362	29.87
193.581	-7
193.8	-17.24
194.02	-11.09
194.239	23.72
194.458	-33.62
194.678	-19.29
194.897	-33.62
195.116	25.77
195.335	-19.29
195.555	-54.1
195.774	-62.29
195.993	64.68
196.212	-62.29
196.432	42.15
196.651	36.01
196.87	-27.48
197.089	-45.91
197.308	-27.48
197.528	-45.91
197.747	-21.33
197.966	-35.67
198.185	52.39
198.404	15.53
198.623	11.43
198.842	9.39
199.062	-13.14
199.281	27.82
199.5	-7
199.719	-7
199.938	-37.72
200.157	60.59
200.376	-31.57
200.595	21.67
200.814	25.77
201.033	13.48
201.252	23.72
201.471	31.91
201.69	50.35
201.909	126.12
202.128	-27.48
202.347	-23.38
202.566	-39.76
202.785	31.91
203.004	3.24
203.223	89.26
203.442	-60.24
203.661	-52.05
203.879	-0.85
204.098	3.24
204.317	11.43
204.536	42.15
204.755	50.35
204.974	11.43
205.193	50.35
205.411	31.91
205.63	1.19
205.849	-74.58
206.068	54.44
206.287	95.4
206.505	-7
206.724	38.06
206.943	33.96
207.162	60.59
207.381	-2.9
207.599	46.25
207.818	-9.05
208.037	44.2
208.255	60.59
208.474	-11.09
208.693	89.26
208.911	-29.52
209.13	-56.15
209.349	15.53
209.567	-35.67
209.786	-13.14
210.005	81.07
210.223	-21.33
210.442	-9.05
210.661	19.63
210.879	-19.29
211.098	95.4
211.316	38.06
211.535	7.34
211.753	-13.14
211.972	23.72
212.191	23.72
212.409	-33.62
212.628	36.01
212.846	-4.95
213.065	21.67
213.283	-9.05
213.502	31.91
213.72	7.34
213.938	5.29
214.157	-0.85
214.375	-11.09
214.594	66.73
214.812	79.02
215.031	-37.72
215.249	-2.9
215.467	-17.24
215.686	-9.05
215.904	44.2
216.122	33.96
216.341	66.73
216.559	-4.95
216.778	54.44
216.996	60.59
217.214	21.67
217.432	-23.38
217.651	-86.87
217.869	-25.43
218.087	-74.58
218.306	-56.15
218.524	-9.05
218.742	-64.34
218.96	-4.95
219.179	76.97
219.397	-45.91
219.615	-0.85
219.833	46.25
220.051	21.67
220.27	38.06
220.488	-35.67
220.706	38.06
220.924	17.58
221.142	-15.19
221.36	-11.09
221.578	52.39
221.796	25.77
222.015	-17.24
222.233	-37.72
222.451	29.87
222.669	25.77
222.887	40.11
223.105	1.19
223.323	60.59
223.541	-58.2
223.759	5.29
223.977	1.19
224.195	-41.81
224.413	-9.05
224.631	50.35
224.849	-4.95
225.067	91.31
225.285	68.78
225.503	23.72
225.721	3.24
225.939	19.63
226.157	105.64
226.375	15.53
226.592	58.54
226.81	-17.24
227.028	19.63
227.246	-19.29
227.464	68.78
227.682	70.83
227.9	-13.14
228.117	-4.95
228.335	-0.85
228.553	48.3
228.771	11.43
228.989	-23.38
229.206	46.25
229.424	7.34
229.642	46.25
229.86	40.11
230.077	36.01
230.295	-19.29
230.513	5.29
230.731	29.87
230.948	-17.24
231.166	-7
231.384	-9.05
231.601	19.63
231.819	99.5
232.037	9.39
232.254	-9.05
232.472	-4.95
232.689	19.63
232.907	-27.48
233.125	-43.86
233.342	93.35
233.56	-7
233.777	31.91
233.995	-29.52
234.213	21.67
234.43	31.91
234.648	42.15
234.865	31.91
235.083	-2.9
235.3	25.77
235.518	85.16
235.735	-19.29
235.953	62.63
236.17	-25.43
236.388	-27.48
236.605	74.92
236.822	29.87
237.04	23.72
237.257	60.59
237.475	27.82
237.692	42.15
237.909	42.15
238.127	-33.62
238.344	-43.86
238.562	64.68
238.779	64.68
238.996	31.91
239.214	56.49
239.431	27.82
239.648	-23.38
239.865	-7
240.083	-0.85
240.3	31.91
240.517	-2.9
240.735	-23.38
240.952	3.24
241.169	-29.52
241.386	31.91
241.603	-15.19
241.821	5.29
242.038	23.72
242.255	19.63
242.472	33.96
242.689	76.97
242.907	-21.33
243.124	52.39
243.341	-62.29
243.558	3.24
243.775	3.24
243.992	-2.9
244.209	-43.86
244.426	-0.85
244.643	9.39
244.86	-47.96
245.078	1.19
245.295	3.24
245.512	-0.85
245.729	5.29
245.946	1.19
246.163	13.48
246.38	64.68
246.597	-7
246.814	29.87
247.031	44.2
247.248	-54.1
247.464	29.87
247.681	13.48
247.898	64.68
248.115	40.11
248.332	-39.76
248.549	46.25
248.766	54.44
248.983	11.43
249.2	-23.38
249.417	21.67
249.633	3.24
249.85	33.96
250.067	-64.34
250.284	76.97
250.501	-4.95
250.717	25.77
250.934	-15.19
251.151	25.77
251.368	-17.24
251.585	21.67
251.801	-31.57
252.018	44.2
252.235	3.24
252.451	19.63
252.668	-13.14
252.885	19.63
253.102	-15.19
253.318	5.29
253.535	40.11
253.752	-4.95
253.968	19.63
254.185	44.2
254.401	-27.48
254.618	-21.33
254.835	-13.14
255.051	1.19
255.268	83.11
255.484	58.54
255.701	-35.67
255.917	-0.85
256.134	-17.24
256.351	25.77
256.567	27.82
256.784	52.39
257	31.91
257.217	40.11
257.433	13.48
257.65	19.63
257.866	60.59
258.082	-15.19
258.299	-37.72
258.515	27.82
258.732	-37.72
258.948	-9.05
259.165	-13.14
259.381	15.53
259.597	54.44
259.814	54.44
260.03	40.11
260.246	-21.33
260.463	-29.52
260.679	-19.29
260.895	50.35
261.112	81.07
261.328	-0.85
261.544	-2.9
261.761	17.58
261.977	-15.19
262.193	19.63
262.409	13.48
262.626	-31.57
262.842	3.24
263.058	-47.96
263.274	29.87
263.49	15.53
263.707	-35.67
263.923	-13.14
264.139	15.53
264.355	1.19
264.571	25.77
264.787	-35.67
265.004	40.11
265.22	-13.14
265.436	-19.29
265.652	-76.63
265.868	21.67
266.084	48.3
266.3	-13.14
266.516	31.91
266.732	1.19
266.948	54.44
267.164	-4.95
267.38	36.01
267.596	-9.05
267.812	52.39
268.028	-0.85
268.244	-2.9
268.46	-25.43
268.676	5.29
268.892	-70.48
269.108	-2.9
269.324	42.15
269.54	-2.9
269.756	-19.29
269.972	-17.24
270.188	48.3
270.403	66.73
270.619	5.29
270.835	17.58
271.051	-23.38
271.267	-11.09
271.483	36.01
271.698	50.35
271.914	48.3
272.13	-7
272.346	27.82
272.562	-21.33
272.777	33.96
272.993	46.25
273.209	38.06
273.425	7.34
273.64	13.48
273.856	-29.52
274.072	-70.48
274.287	3.24
274.503	13.48
274.719	-11.09
274.934	21.67
275.15	60.59
275.366	44.2
275.581	-7
275.797	31.91
276.012	25.77
276.228	29.87
276.444	13.48
276.659	33.96
276.875	-58.2
277.09	33.96
277.306	27.82
277.521	85.16
277.737	-7
277.952	72.87
278.168	-21.33
278.383	40.11
278.599	19.63
278.814	3.24
279.03	29.87
279.245	31.91
279.461	-41.81
279.676	70.83
279.892	-50
280.107	-4.95
280.322	-27.48
280.538	-52.05
280.753	60.59
280.969	60.59
281.184	29.87
281.399	13.48
281.615	21.67
281.83	-25.43
282.045	5.29
282.26	42.15
282.476	101.55
282.691	1.19
282.906	-33.62
283.122	-7
283.337	-56.15
283.552	-29.52
283.767	64.68
283.983	-39.76
284.198	-45.91
284.413	48.3
284.628	-80.72
284.843	62.63
285.058	56.49
285.274	62.63
285.489	11.43
285.704	48.3
285.919	44.2
286.134	-13.14
286.349	23.72
286.564	83.11
286.779	-2.9
286.995	42.15
287.21	-11.09
287.425	-29.52
287.64	-23.38
287.855	70.83
288.07	-0.85
288.285	117.93
288.5	-0.85
288.715	52.39
288.93	56.49
289.145	-25.43
289.36	27.82
289.575	46.25
289.79	3.24
290.004	46.25
290.219	-19.29
290.434	-35.67
290.649	15.53
290.864	56.49
291.079	-0.85
291.294	19.63
291.509	19.63
291.724	46.25
291.938	29.87
292.153	56.49
292.368	-19.29
292.583	13.48
292.798	-68.44
293.012	5.29
293.227	36.01
293.442	-11.09
293.657	-27.48
293.871	11.43
294.086	17.58
294.301	111.78
294.516	-17.24
294.73	15.53
294.945	29.87
295.16	56.49
295.374	52.39
295.589	33.96
295.804	36.01
296.018	42.15
296.233	-13.14
296.447	48.3
296.662	40.11
296.877	-11.09
297.091	-4.95
297.306	-45.91
297.52	9.39
297.735	5.29
297.949	-0.85
298.164	13.48
298.378	-23.38
298.593	5.29
298.807	40.11
299.022	-52.05
299.236	-41.81
299.451	15.53
299.665	-19.29
299.88	79.02
300.094	11.43
300.309	-45.91
300.523	33.96
300.737	-54.1
300.952	54.44
301.166	33.96
301.381	-13.14
301.595	17.58
301.809	-45.91
302.024	56.49
302.238	81.07
302.452	17.58
302.667	58.54
302.881	-17.24
303.095	21.67
303.309	23.72
303.524	-27.48
303.738	91.31
303.952	1.19
304.166	19.63
304.381	46.25
304.595	93.35
304.809	-11.09
305.023	1.19
305.237	27.82
305.452	44.2
305.666	70.83
305.88	-4.95
306.094	-25.43
306.308	5.29
306.522	56.49
306.736	126.12
306.95	15.53
307.164	40.11
307.379	99.5
307.593	13.48
307.807	-13.14
308.021	19.63
308.235	-60.24
308.449	31.91
308.663	-2.9
308.877	79.02
309.091	-13.14
309.305	-21.33
309.519	-13.14
309.733	33.96
309.947	23.72
310.161	11.43
310.374	36.01
310.588	25.77
310.802	-56.15
311.016	-45.91
311.23	-13.14
311.444	-9.05
311.658	31.91
311.872	-25.43
312.085	-4.95
312.299	111.78
312.513	62.63
312.727	60.59
312.941	23.72
313.154	7.34
313.368	36.01
313.582	-31.57
313.796	-39.76
314.009	36.01
314.223	87.21
314.437	11.43
314.651	-25.43
314.864	-74.58
315.078	36.01
315.292	66.73
315.505	-39.76
315.719	7.34
315.933	-4.95
316.146	29.87
316.36	70.83
316.573	23.72
316.787	-9.05
317.001	27.82
317.214	-33.62
317.428	44.2
317.641	-7
317.855	54.44
318.068	29.87
318.282	38.06
318.495	83.11
318.709	3.24
318.922	13.48
319.136	79.02
319.349	21.67
319.563	44.2
319.776	58.54
319.99	-19.29
320.203	3.24
320.417	36.01
320.63	-23.38
320.843	52.39
321.057	5.29
321.27	52.39
321.483	-23.38
321.697	52.39
321.91	-72.53
322.124	40.11
322.337	44.2
322.55	21.67
322.763	-2.9
322.977	68.78
323.19	-11.09
323.403	-39.76
323.617	-37.72
323.83	81.07
324.043	44.2
324.256	15.53
324.469	-19.29
324.683	-9.05
324.896	-13.14
325.109	21.67
325.322	-35.67
325.535	74.92
325.748	-13.14
325.962	23.72
326.175	-27.48
326.388	44.2
326.601	5.29
326.814	-0.85
327.027	-19.29
327.24	3.24
327.453	81.07
327.666	-29.52
327.879	17.58
328.092	-15.19
328.305	-13.14
328.518	25.77
328.731	-13.14
328.944	3.24
329.157	-9.05
329.37	-9.05
329.583	70.83
329.796	109.74
330.009	-62.29
330.222	42.15
330.435	-0.85
330.648	15.53
330.861	54.44
331.073	76.97
331.286	3.24
331.499	46.25
331.712	46.25
331.925	44.2
332.138	-4.95
332.35	21.67
332.563	-43.86
332.776	21.67
332.989	36.01
333.202	-2.9
333.414	19.63
333.627	25.77
333.84	3.24
334.053	11.43
334.265	11.43
334.478	11.43
334.691	56.49
334.903	64.68
335.116	33.96
335.329	23.72
335.541	23.72
335.754	46.25
335.966	33.96
336.179	44.2
336.392	7.34
336.604	-25.43
336.817	62.63
337.029	62.63
337.242	93.35
337.454	21.67
337.667	3.24
337.88	44.2
338.092	-25.43
338.305	-19.29
338.517	-11.09
338.729	33.96
338.942	-4.95
339.154	66.73
339.367	-29.52
339.579	11.43
339.792	-17.24
340.004	46.25
340.217	-25.43
340.429	68.78
340.641	-41.81
340.854	62.63
341.066	-33.62
341.278	5.29
341.491	-13.14
341.703	-25.43
341.915	38.06
342.128	40.11
342.34	40.11
342.552	13.48
342.764	-17.24
342.977	31.91
343.189	-66.39
343.401	15.53
343.613	-86.87
343.826	54.44
344.038	31.91
344.25	-23.38
344.462	42.15
344.674	3.24
344.886	46.25
345.099	44.2
345.311	-23.38
345.523	54.44
345.735	-58.2
345.947	44.2
346.159	9.39
346.371	56.49
346.583	33.96
346.795	89.26
347.007	95.4
347.219	70.83
347.431	36.01
347.643	-4.95
347.855	7.34
348.067	-43.86
348.279	31.91
348.491	36.01
348.703	68.78
348.915	68.78
349.127	25.77
349.339	3.24
349.551	50.35
349.763	25.77
349.975	3.24
350.187	36.01
350.399	33.96
350.61	-17.24
350.822	-9.05
351.034	-21.33
351.246	58.54
351.458	-27.48
351.669	17.58
351.881	101.55
352.093	36.01
352.305	46.25
352.517	76.97
352.728	-29.52
352.94	5.29
353.152	5.29
353.363	36.01
353.575	-15.19
353.787	11.43
353.999	38.06
354.21	95.4
354.422	-27.48
354.633	-19.29
354.845	36.01
355.057	-33.62
355.268	46.25
355.48	38.06
355.692	113.83
355.903	-15.19
356.115	44.2
356.326	27.82
356.538	19.63
356.749	101.55
356.961	1.19
357.172	3.24
357.384	13.48
357.595	62.63
357.807	15.53
358.018	11.43
358.23	-29.52
358.441	33.96
358.653	19.63
358.864	-76.63
359.075	48.3
359.287	40.11
359.498	-4.95
359.709	19.63
359.921	-0.85
360.132	31.91
360.344	21.67
360.555	-43.86
360.766	1.19
360.977	-31.57
361.189	70.83
361.4	40.11
361.611	62.63
361.823	-9.05
362.034	19.63
362.245	42.15
362.456	-29.52
362.667	5.29
362.879	48.3
363.09	27.82
363.301	36.01
363.512	-27.48
363.723	52.39
363.935	1.19
364.146	33.96
364.357	1.19
364.568	36.01
364.779	27.82
364.99	52.39
365.201	27.82
365.412	1.19
365.623	7.34
365.834	13.48
366.045	25.77
366.256	60.59
366.467	68.78
366.678	25.77
366.889	3.24
367.1	-13.14
367.311	33.96
367.522	72.87
367.733	31.91
367.944	-7
368.155	27.82
368.366	38.06
368.577	-15.19
368.788	-21.33
368.999	-43.86
369.209	-27.48
369.42	87.21
369.631	85.16
369.842	-4.95
370.053	74.92
370.264	44.2
370.474	70.83
370.685	-2.9
370.896	60.59
371.107	-2.9
371.317	-4.95
371.528	-15.19
371.739	-4.95
371.95	3.24
372.16	-37.72
372.371	11.43
372.582	36.01
372.792	66.73
373.003	11.43
373.214	42.15
373.424	-7
373.635	54.44
373.846	-56.15
374.056	-27.48
374.267	38.06
374.477	-17.24
374.688	36.01
374.898	9.39
375.109	15.53
375.319	11.43
375.53	15.53
375.74	15.53
375.951	1.19
376.161	44.2
376.372	-9.05
376.582	-7
376.793	7.34
377.003	11.43
377.214	64.68
377.424	74.92
377.635	89.26
377.845	79.02
378.055	70.83
378.266	-95.06
378.476	21.67
378.686	40.11
378.897	21.67
379.107	-13.14
379.317	23.72
379.528	64.68
379.738	44.2
379.948	-21.33
380.158	-50
380.369	60.59
380.579	52.39
380.789	70.83
380.999	5.29
381.21	62.63
381.42	70.83
381.63	-19.29
381.84	48.3
382.05	74.92
382.261	25.77
382.471	36.01
382.681	5.29
382.891	60.59
383.101	7.34
383.311	-7
383.521	3.24
383.731	74.92
383.941	-29.52
384.151	72.87
384.361	-52.05
384.571	-25.43
384.781	-21.33
384.991	-4.95
385.201	33.96
385.411	38.06
385.621	33.96
385.831	52.39
386.041	23.72
386.251	-4.95
386.461	36.01
386.671	60.59
386.881	5.29
387.091	25.77
387.301	25.77
387.511	-25.43
387.72	11.43
387.93	7.34
388.14	44.2
388.35	81.07
388.56	-80.72
388.769	68.78
388.979	21.67
389.189	38.06
389.399	17.58
389.609	46.25
389.818	38.06
390.028	81.07
390.238	58.54
390.447	17.58
390.657	19.63
390.867	25.77
391.076	-4.95
391.286	66.73
391.496	46.25
391.705	29.87
391.915	13.48
392.125	36.01
392.334	27.82
392.544	-4.95
392.753	-4.95
392.963	-21.33
393.172	79.02
393.382	23.72
393.591	11.43
393.801	25.77
394.01	40.11
394.22	15.53
394.429	97.45
394.639	58.54
394.848	13.48
395.058	83.11
395.267	-43.86
395.477	11.43
395.686	23.72
395.895	54.44
396.105	58.54
396.314	25.77
396.524	46.25
396.733	-2.9
396.942	40.11
397.152	31.91
397.361	115.88
397.57	21.67
397.78	40.11
397.989	81.07
398.198	21.67
398.407	54.44
398.617	27.82
398.826	79.02
399.035	46.25
399.244	23.72
399.453	64.68
399.663	81.07
399.872	-7
400.081	23.72
400.29	38.06
400.499	5.29
400.708	48.3
400.917	5.29
401.127	15.53
401.336	44.2
401.545	36.01
401.754	19.63
401.963	56.49
402.172	19.63
402.381	11.43
402.59	85.16
402.799	-9.05
403.008	54.44
403.217	-45.91
403.426	74.92
403.635	-31.57
403.844	62.63
404.053	52.39
404.262	5.29
404.471	-9.05
404.68	93.35
404.888	27.82
405.097	58.54
405.306	87.21
405.515	58.54
405.724	-4.95
405.933	21.67
406.142	46.25
406.35	97.45
406.559	9.39
406.768	29.87
406.977	101.55
407.185	25.77
407.394	76.97
407.603	36.01
407.812	89.26
408.02	-37.72
408.229	36.01
408.438	85.16
408.646	85.16
408.855	97.45
409.064	72.87
409.272	128.17
409.481	93.35
409.69	113.83
409.898	134.31
410.107	103.59
410.315	128.17
410.524	111.78
410.733	146.6
410.941	74.92
411.15	185.51
411.358	60.59
411.567	144.55
411.775	79.02
411.984	128.17
412.192	142.5
412.401	128.17
412.609	97.45
412.818	115.88
413.026	185.51
413.234	140.46
413.443	126.12
413.651	136.36
413.86	169.13
414.068	165.03
414.276	171.18
414.485	224.42
414.693	205.99
414.901	208.04
415.11	249
415.318	253.09
415.526	224.42
415.734	302.25
415.943	226.47
416.151	277.67
416.359	306.34
416.567	230.57
416.776	341.16
416.984	308.39
417.192	308.39
417.4	357.54
417.608	314.53
417.817	392.36
418.025	375.97
418.233	337.06
418.441	316.58
418.649	416.93
418.857	414.88
419.065	380.07
419.273	345.25
419.481	425.12
419.689	484.52
419.897	517.28
420.105	504.99
420.313	554.15
420.521	490.66
420.729	527.52
420.937	556.19
421.145	500.9
421.353	623.78
421.561	566.43
421.769	642.21
421.977	629.92
422.185	648.35
422.393	760.99
422.601	779.42
422.809	752.8
423.017	760.99
423.224	810.14
423.432	812.19
423.64	748.7
423.848	963.74
424.056	887.97
424.263	933.02
424.471	990.36
424.679	982.17
424.887	961.69
425.094	1029.27
425.302	1006.75
425.51	1078.43
425.718	1078.43
425.925	1107.1
426.133	1148.06
426.341	1311.89
426.548	1168.54
426.756	1277.08
426.964	1217.69
427.171	1399.96
427.379	1348.76
427.586	1371.29
427.794	1467.54
428.001	1473.68
428.209	1588.37
428.417	1471.64
428.624	1621.14
428.832	1606.8
429.039	1680.53
429.247	1619.09
429.454	1858.7
429.662	1836.17
429.869	1766.54
430.076	1916.05
430.284	1860.75
430.491	2073.74
430.699	2055.31
430.906	1989.77
431.114	2176.14
431.321	2079.88
431.528	2204.81
431.736	2374.79
431.943	2462.85
432.15	2364.55
432.358	2387.08
432.565	2555.01
432.772	2493.57
432.979	2669.7
433.187	2567.3
433.394	2636.93
433.601	2997.37
433.808	2811.01
434.016	2948.22
434.223	2870.4
434.43	3269.75
434.637	3228.79
434.844	3368.06
435.052	3488.89
435.259	3239.03
435.466	3447.93
435.673	3392.63
435.88	3636.34
436.087	3894.38
436.294	3802.22
436.501	3574.9
436.708	3845.23
436.915	3871.86
437.122	4031.6
437.329	3906.67
437.537	4256.87
437.743	4299.88
437.95	4097.13
438.157	4437.09
438.364	4639.84
438.571	4611.17
438.778	4705.38
438.985	5184.6
439.192	4721.76
439.399	5076.06
439.606	4998.24
439.813	5274.71
440.02	5545.05
440.227	5516.37
440.433	5192.8
440.64	5493.85
440.847	5512.28
441.054	5629.01
441.261	6124.62
441.467	6126.67
441.674	6040.65
441.881	6126.67
442.088	6245.45
442.294	6233.16
442.501	6368.33
442.708	6677.57
442.914	6745.16
443.121	7138.37
443.328	6851.65
443.534	7363.64
443.741	7164.99
443.948	7160.89
444.154	7588.92
444.361	7574.58
444.568	7611.45
444.774	7679.03
444.981	7707.7
445.187	7982.13
445.394	8076.34
445.6	8072.24
445.807	8969.25
446.013	8588.33
446.22	8762.4
446.426	9047.07
446.633	9128.99
446.839	9509.91
447.046	9063.46
447.252	9774.1
447.459	9706.52
447.665	9473.05
447.871	10105.87
448.078	10429.45
448.284	9899.03
448.491	10255.37
448.697	10540.04
448.903	10693.64
449.11	10894.34
449.316	10761.22
449.522	10900.48
449.728	11369.47
449.935	11410.43
450.141	11205.63
450.347	11707.38
450.553	11234.3
450.76	11371.52
450.966	11877.37
451.172	11727.86
451.378	11889.65
451.584	11858.93
451.791	12114.93
451.997	12157.94
452.203	12260.34
452.409	12436.46
452.615	12401.65
452.821	12000.24
453.027	11752.44
453.233	12424.17
453.44	11699.19
453.646	12022.77
453.852	12114.93
454.058	12246
454.264	11883.51
454.47	12168.18
454.676	11906.04
454.882	12295.15
455.088	11279.36
455.294	11334.65
455.5	11570.17
455.705	11629.56
455.911	11228.16
456.117	11127.81
456.323	10787.85
456.529	10429.45
456.735	10759.17
456.941	10259.47
457.147	10220.56
457.352	9866.26
457.558	9976.85
457.764	9952.27
457.97	9776.15
458.176	9579.54
458.381	9647.13
458.587	9059.36
458.793	9196.57
458.999	8657.96
459.204	9292.83
459.41	8772.64
459.616	8369.19
459.821	8373.29
460.027	8383.53
460.233	8031.28
460.438	7701.56
460.644	7914.55
460.85	7558.2
461.055	7308.35
461.261	7322.68
461.466	6915.14
461.672	6642.76
461.878	6894.66
462.083	6507.59
462.289	6421.58
462.494	6333.51
462.7	6265.93
462.905	6024.27
463.111	6263.88
463.316	6487.11
463.522	5991.5
463.727	6032.46
463.932	6038.61
464.138	6181.96
464.343	5993.55
464.549	5899.34
464.754	5913.68
464.959	6136.91
465.165	6059.09
465.37	5786.71
465.575	5635.16
465.781	5825.62
465.986	5942.35
466.191	5712.98
466.397	5499.99
466.602	5338.2
466.807	5610.58
467.012	5456.98
467.218	5499.99
467.423	5303.39
467.628	5426.26
467.833	5672.02
468.038	5399.64
468.244	5229.66
468.449	5514.33
468.654	5203.04
468.859	5407.83
469.064	5327.96
469.269	5053.53
469.474	5018.72
469.679	5157.98
469.885	5176.41
470.09	5135.45
470.295	5106.78
470.5	5012.57
470.705	5164.12
470.91	4920.42
471.115	4916.32
471.32	4873.31
471.525	4924.51
471.73	4725.86
471.935	4711.52
472.139	4523.11
472.344	4676.71
472.549	4627.56
472.754	4654.18
472.959	4525.16
473.164	4334.7
473.369	4414.57
473.574	4662.37
473.778	4406.38
473.983	4451.43
474.188	4426.86
474.393	4193.39
474.598	4273.26
474.802	4115.56
475.007	4023.41
475.212	4201.58
475.417	3982.45
475.621	3974.25
475.826	4054.12
476.031	3918.96
476.235	3955.82
476.44	3941.49
476.645	4004.97
476.849	3923.05
477.054	3791.98
477.259	3744.88
477.463	3732.59
477.668	3701.87
477.872	3689.59
478.077	3738.74
478.282	3521.65
478.486	3609.72
478.691	3607.67
478.895	3675.25
479.1	3546.23
479.304	3560.56
479.509	3349.62
479.713	3470.45
479.918	3304.57
480.122	3355.77
480.326	3423.35
480.531	3329.14
480.735	3265.66
480.94	3388.53
481.144	3323
481.348	3228.79
481.553	3290.23
481.757	3148.92
481.961	3216.51
482.166	3232.89
482.37	3269.75
482.574	3214.46
482.778	3193.98
482.983	3302.52
483.187	3214.46
483.391	3331.19
483.595	3241.08
483.8	3255.42
484.004	3372.15
484.208	3404.92
484.412	3277.94
484.616	3316.86
484.821	3339.38
485.025	3224.7
485.229	3245.18
485.433	3169.4
485.637	3366.01
485.841	3284.09
486.045	3224.7
486.249	3290.23
486.453	3249.27
486.657	3271.8
486.861	3355.77
487.065	3204.22
487.269	3214.46
487.473	3249.27
487.677	3247.23
487.881	3196.03
488.085	3337.34
488.289	3513.46
488.493	3419.25
488.697	3359.86
488.901	3427.45
489.105	3191.93
489.309	3263.61
489.512	3374.2
489.716	3382.39
489.92	3419.25
490.124	3423.35
490.328	3406.97
490.531	3347.58
490.735	3388.53
490.939	3437.69
491.143	3366.01
491.346	3378.3
491.55	3454.07
491.754	3437.69
491.958	3437.69
492.161	3437.69
492.365	3497.08
492.569	3593.33
492.772	3601.52
492.976	3535.99
493.18	3673.2
493.383	3660.91
493.587	3751.03
493.79	3591.28
493.994	3716.21
494.197	3775.6
494.401	3847.28
494.605	3671.15
494.808	3751.03
495.012	3886.19
495.215	3810.42
495.419	3918.96
495.622	3904.62
495.825	3957.87
496.029	4041.84
496.232	4136.04
496.436	3982.45
496.639	4318.31
496.843	4111.47
497.046	4152.43
497.249	4351.08
497.453	4346.98
497.656	4361.32
497.859	4514.92
498.063	4504.68
498.266	4508.77
498.469	4449.38
498.673	4480.1
498.876	4631.65
499.079	4623.46
499.282	4740.19
499.485	4838.5
499.689	4770.91
499.892	4826.21
500.095	4830.3
500.298	5108.83
500.501	4813.92
500.705	5260.38
500.908	5039.2
501.111	5106.78
501.314	5168.22
501.517	5471.32
501.72	5368.92
501.923	5434.46
502.126	5524.57
502.329	5557.33
502.532	5583.96
502.735	5712.98
502.938	5848.15
503.141	5923.92
503.344	5954.64
503.547	6024.27
503.75	5987.41
503.953	6106.19
504.156	6194.25
504.359	6265.93
504.562	6397
504.765	6446.15
504.968	6564.93
505.17	6552.65
505.373	6843.46
505.576	6868.03
505.779	6806.59
505.982	6937.66
506.185	6927.42
506.387	7130.17
506.59	7281.72
506.793	7345.21
506.996	7355.45
507.198	7674.93
507.401	7384.12
507.604	7580.73
507.807	7568.44
508.009	7691.32
508.212	7902.26
508.415	8051.76
508.617	8002.61
508.82	8227.89
509.022	8129.58
509.225	8383.53
509.428	8510.5
509.63	8467.5
509.833	8602.66
510.035	8801.32
510.238	8782.88
510.44	8875.04
510.643	9251.87
510.845	9360.41
511.048	8989.73
511.25	9335.84
511.453	9337.88
511.655	9923.6
511.858	9524.25
512.06	9845.78
512.262	10052.63
512.465	9946.13
512.667	10003.47
512.87	10210.32
513.072	10220.56
513.274	10421.26
513.477	10490.89
513.679	10654.73
513.881	10607.62
514.084	11086.85
514.286	10802.18
514.488	11156.48
514.69	11369.47
514.893	11318.27
515.095	11443.2
515.297	11691
515.499	11654.14
515.701	11875.32
515.904	11910.13
516.106	11947
516.308	12270.58
516.51	12284.91
516.712	12219.38
516.914	12510.19
517.116	12643.31
517.318	12735.46
517.52	12868.58
517.722	12917.73
517.925	13161.44
518.127	13427.68
518.329	13517.79
518.531	13392.86
518.733	13538.27
518.935	13743.06
519.136	13720.54
519.338	13837.27
519.54	14068.69
519.742	14347.22
519.944	14347.22
520.146	14658.51
520.348	14701.51
520.55	14683.08
520.752	14801.86
520.954	14971.85
521.155	15061.96
521.357	15416.26
521.559	15446.97
521.761	15557.57
521.963	15737.79
522.164	15598.52
522.366	15758.27
522.568	16053.17
522.77	15936.44
522.971	16434.1
523.173	16141.24
523.375	16339.89
523.576	16511.92
523.778	16485.3
523.98	16669.61
524.181	17046.44
524.383	16792.49
524.584	16944.04
524.786	17251.24
524.988	16954.28
525.189	17560.48
525.391	17558.43
525.592	17451.94
525.794	17372.07
525.995	17693.6
526.197	17832.86
526.398	17832.86
526.6	18006.94
526.801	17939.35
527.003	17894.3
527.204	17947.54
527.406	18146.2
527.607	18172.82
527.808	18412.43
528.01	18023.32
528.211	18420.63
528.412	18858.89
528.614	18523.02
528.815	18703.25
529.016	18477.97
529.218	18750.35
529.419	18713.49
529.62	18764.68
529.822	18852.75
530.023	18865.03
530.224	18930.57
530.425	18783.12
530.626	18588.56
530.828	18912.14
531.029	19205
531.23	19053.45
531.431	18963.34
531.632	19317.64
531.833	19104.65
532.035	19331.97
532.236	19256.2
532.437	19364.74
532.638	19338.12
532.839	19309.44
533.04	19559.3
533.241	19123.08
533.442	19487.62
533.643	19458.95
533.844	19450.75
534.045	19264.39
534.246	18979.72
534.447	19446.66
534.648	19280.77
534.849	19463.04
535.05	19243.91
535.251	19340.16
535.451	19544.96
535.652	19616.64
535.853	19497.86
536.054	19620.74
536.255	19542.91
536.456	19323.78
536.657	19741.57
536.857	19604.35
537.058	19192.71
537.259	19555.2
537.46	19493.76
537.66	19667.84
537.861	19495.81
538.062	19692.41
538.263	19653.5
538.463	19331.97
538.664	19579.78
538.865	19434.37
539.065	19790.72
539.266	19473.28
539.466	19581.82
539.667	19225.48
539.868	19663.74
540.068	19512.19
540.269	19768.19
540.469	19657.6
540.67	19616.64
540.87	19368.84
541.071	19520.38
541.271	19469.19
541.472	19516.29
541.672	19526.53
541.873	19653.5
542.073	19186.57
542.274	19596.16
542.474	19557.25
542.675	19608.45
542.875	19501.95
543.075	19667.84
543.276	19458.95
543.476	19784.57
543.676	19358.6
543.877	19454.85
544.077	19491.71
544.277	19673.98
544.478	19542.91
544.678	19460.99
544.878	19397.51
545.078	19420.03
545.279	19334.02
545.479	19594.11
545.679	19647.36
545.879	19704.7
546.079	19442.56
546.28	19592.06
546.48	19192.71
546.68	19540.86
546.88	19549.06
547.08	19368.84
547.28	19438.47
547.48	19407.75
547.68	19610.5
547.88	19454.85
548.081	19870.59
548.281	19698.56
548.481	19393.41
548.681	19456.9
548.881	19553.15
549.081	19407.75
549.28	19524.48
549.48	19436.42
549.68	19413.89
549.88	19673.98
550.08	19215.24
550.28	19639.17
550.48	19078.02
550.68	19757.95
550.88	19481.47
551.08	19139.46
551.279	19467.14
551.479	18987.91
551.679	19276.68
551.879	19313.54
552.079	19571.58
552.278	19540.86
552.478	19147.65
552.678	19262.34
552.878	19268.48
553.077	19381.12
553.277	19088.26
553.477	19749.76
553.676	19524.48
553.876	19317.64
554.076	19256.2
554.275	19256.2
554.475	18840.46
554.674	19338.12
554.874	19053.45
555.074	18926.47
555.273	19161.99
555.473	19295.11
555.672	19172.23
555.872	19405.7
556.071	19532.67
556.271	19331.97
556.47	19141.51
556.67	18901.9
556.869	18881.42
557.068	19104.65
557.268	19024.78
557.467	18846.6
557.667	19209.09
557.866	19057.54
558.065	18887.56
558.265	18918.28
558.464	18873.23
558.663	19278.72
558.863	18551.7
559.062	19157.89
559.261	18905.99
559.461	19016.58
559.66	18695.05
559.859	18738.06
560.058	18586.51
560.258	18709.39
560.457	18570.13
560.656	18713.49
560.855	18486.16
561.054	18588.56
561.253	18660.24
561.453	18715.53
561.652	18461.58
561.851	18756.49
562.05	18463.63
562.249	18408.34
562.448	18652.05
562.647	18391.95
562.846	18467.73
563.045	18260.88
563.244	18371.47
563.443	18402.19
563.642	18119.57
563.841	18049.94
564.04	18156.44
564.239	18457.49
564.438	17916.83
564.637	18262.93
564.836	18187.16
565.035	17746.84
565.234	18068.37
565.432	18236.31
565.631	18015.13
565.83	17927.07
566.029	17730.46
566.228	17755.04
566.427	17834.91
566.625	17619.87
566.824	17537.95
567.023	17689.5
567.222	17447.84
567.42	17875.87
567.619	17558.43
567.818	17320.87
568.016	17615.77
568.215	17322.91
568.414	17540
568.612	17593.25
568.811	17494.94
569.01	17456.03
569.208	16970.66
569.407	17236.9
569.605	17114.02
569.804	17386.4
570.002	16960.42
570.201	16997.29
570.4	16987.05
570.598	16886.7
570.797	17034.15
570.995	16784.3
571.193	16704.43
571.392	16604.08
571.59	16862.12
571.789	17052.58
571.987	16841.64
572.186	16503.73
572.384	16710.57
572.582	16706.48
572.781	16751.53
572.979	16204.72
573.177	16081.85
573.376	16585.65
573.574	16454.58
573.772	16386.99
573.971	16096.18
574.169	16055.22
574.367	16079.8
574.565	16184.24
574.763	16268.21
574.962	16118.71
575.16	16028.6
575.358	15924.15
575.556	15954.87
575.754	16049.08
575.952	15748.03
576.151	16026.55
576.349	15780.79
576.547	15774.65
576.745	15707.07
576.943	15684.54
577.141	15627.2
577.339	15715.26
577.537	15535.04
577.735	15428.54
577.933	15543.23
578.131	15659.96
578.329	15369.15
578.527	15180.74
578.725	15223.75
578.923	15504.32
579.121	15180.74
579.319	15158.21
579.516	15289.28
579.714	15301.57
579.912	15055.81
580.11	15172.55
580.308	15035.33
580.506	14953.41
580.704	14906.31
580.901	15016.9
581.099	15211.46
581.297	14912.46
581.495	14783.43
581.692	14558.16
581.89	14584.78
582.088	14871.5
582.285	14613.45
582.483	14662.6
582.681	14437.33
582.878	14416.85
583.076	14509.01
583.274	14212.05
583.471	14224.34
583.669	14308.3
583.866	14263.25
584.064	14246.87
584.262	14437.33
584.459	14214.1
584.657	14332.88
584.854	14078.93
585.052	13921.24
585.249	14191.57
585.447	14068.69
585.644	13732.83
585.841	13978.58
586.039	14040.02
586.236	13798.36
586.434	13804.5
586.631	13767.64
586.828	13997.01
587.026	13796.31
587.223	13691.87
587.42	13464.54
587.618	13587.42
587.815	13368.29
588.012	13413.34
588.21	13188.07
588.407	13577.18
588.604	13360.09
588.801	13212.64
588.999	13429.73
589.196	13183.97
589.393	13194.21
589.59	12831.72
589.787	13095.91
589.984	13294.56
590.182	12930.02
590.379	13159.39
590.576	13069.28
590.773	12946.41
590.97	13013.99
591.167	12776.42
591.364	12741.61
591.561	12889.06
591.758	12694.5
591.955	12868.58
592.152	12907.49
592.349	12514.28
592.546	12450.8
592.743	12588.01
592.94	12585.96
593.137	12401.65
593.334	12409.84
593.531	12346.35
593.727	12442.6
593.924	12309.49
594.121	12403.69
594.318	12286.96
594.515	12358.64
594.712	12454.89
594.908	12213.23
595.105	12364.78
595.302	12108.79
595.499	12114.93
595.696	11846.65
595.892	12047.35
596.089	11951.09
596.286	12119.03
596.482	12008.44
596.679	12172.27
596.876	12014.58
597.072	11715.58
597.269	11777.01
597.466	11721.72
597.662	11615.23
597.859	11592.7
598.055	11834.36
598.252	11613.18
598.448	11619.32
598.645	11811.83
598.841	11602.94
599.038	11664.38
599.234	11523.07
599.431	11217.92
599.627	11297.79
599.824	11428.86
600.02	11131.9
600.217	11166.72
600.413	11377.66
600.609	11275.26
600.806	11168.77
601.002	11099.14
601.198	10957.83
601.395	11179.01
601.591	10882.05
601.787	11129.86
601.984	10953.73
602.18	11013.12
602.376	10875.91
602.572	10656.78
602.769	10939.4
602.965	10777.61
603.161	10826.76
603.357	10806.28
603.553	10726.41
603.75	10859.52
603.946	10646.54
604.142	10660.87
604.338	10232.85
604.534	10570.76
604.73	10497.03
604.926	10560.52
605.122	10564.62
605.318	10417.16
605.514	10304.53
605.71	10343.44
605.906	10376.2
606.102	10189.84
606.298	10296.33
606.494	10226.7
606.69	10144.78
606.886	10243.09
607.082	10142.74
607.278	10269.71
607.474	9960.47
607.67	9954.32
607.866	9870.36
608.062	10206.22
608.257	10046.48
608.453	9896.98
608.649	10138.64
608.845	9692.18
609.041	10007.57
609.236	9780.25
609.432	9679.89
609.628	9868.31
609.824	9870.36
610.019	9964.56
610.215	9548.82
610.411	9616.41
610.606	9679.89
610.802	9849.88
610.998	9702.42
611.193	9800.73
611.389	9833.49
611.584	9409.56
611.78	9516.06
611.976	9702.42
612.171	9696.28
612.367	9702.42
612.562	9309.21
612.758	9325.6
612.953	9458.71
613.149	9632.79
613.344	9374.75
613.539	9614.36
613.735	9268.25
613.93	9221.15
614.126	9346.08
614.321	9413.66
614.517	9231.39
614.712	9370.65
614.907	9077.79
615.103	9219.1
615.298	9262.11
615.493	9219.1
615.688	8881.19
615.884	9274.4
616.079	8959.01
616.274	9212.96
616.47	9024.54
616.665	9102.37
616.86	9165.85
617.055	9032.74
617.25	9014.31
617.445	8938.53
617.641	9016.35
617.836	9217.05
618.031	8852.52
618.226	8899.62
618.421	8854.56
618.616	8653.86
618.811	8657.96
619.006	8780.84
619.201	8864.8
619.396	8856.61
619.591	8549.42
619.786	8756.26
619.981	8551.46
620.176	8551.46
620.371	8416.3
620.566	8522.79
620.761	8573.99
620.956	8475.69
621.151	8279.08
621.346	8330.28
621.541	8264.75
621.735	8234.03
621.93	8119.34
622.125	7935.03
622.32	8062
622.515	8215.6
622.709	7959.6
622.904	8049.71
623.099	7834.68
623.294	7959.6
623.488	7785.52
623.683	7783.48
623.878	7789.62
624.072	7791.67
624.267	7595.06
624.462	7846.96
624.656	7621.69
624.851	7408.7
625.046	7474.23
625.24	7412.79
625.435	7470.14
625.629	7332.92
625.824	7408.7
626.018	7466.04
626.213	7230.52
626.407	7158.85
626.602	7269.44
626.796	7392.31
626.991	7298.11
627.185	6896.71
627.38	7064.64
627.574	7081.02
627.768	6952
627.963	6743.11
628.157	6829.12
628.352	7031.87
628.546	6759.49
628.74	6970.43
628.935	6870.08
629.129	6761.54
629.323	6728.77
629.517	6685.76
629.712	6581.32
629.906	6550.6
630.1	6423.62
630.294	6511.69
630.489	6601.8
630.683	6573.13
630.877	6435.91
631.071	6370.38
631.265	6503.5
631.459	6337.61
631.653	6519.88
631.848	6263.88
632.042	6214.73
632.236	6270.03
632.43	6181.96
632.624	6106.19
632.818	6112.33
633.012	6067.28
633.206	6016.08
633.4	5977.17
633.594	5909.58
633.788	6145.1
633.982	5796.95
634.176	6018.13
634.369	5831.76
634.563	5893.2
634.757	5862.48
634.951	5837.91
635.145	5872.72
635.339	5610.58
635.533	5715.03
635.726	5586.01
635.92	5708.88
636.114	5704.79
636.308	5506.13
636.501	5569.62
636.695	5469.27
636.889	5465.18
637.083	5332.06
637.276	5426.26
637.47	5442.65
637.664	5446.74
637.857	5411.93
638.051	5358.68
638.244	5299.29
638.438	5338.2
638.632	5287
638.825	5110.88
639.019	5227.61
639.212	5117.02
639.406	5311.58
639.599	5217.37
639.793	5045.34
639.986	4951.14
640.18	4967.52
640.373	4957.28
640.567	5078.11
640.76	4811.87
640.954	4783.2
641.147	4662.37
641.34	4750.43
641.534	4797.54
641.727	4697.19
641.92	4852.83
642.114	4756.58
642.307	4652.13
642.5	4756.58
642.694	4590.69
642.887	4527.21
643.08	4519.01
643.273	4670.56
643.467	4527.21
643.66	4373.61
643.853	4385.9
644.046	4478.05
644.239	4381.8
644.432	4381.8
644.626	4355.18
644.819	4344.94
645.012	4414.57
645.205	4377.7
645.398	4318.31
645.591	4238.44
645.784	4242.54
645.977	4086.89
646.17	4287.59
646.363	4033.65
646.556	4043.88
646.749	4021.36
646.942	4179.05
647.135	4072.56
647.328	4084.84
647.521	3951.73
647.714	3923.05
647.907	4062.32
648.099	3961.97
648.292	3941.49
648.485	3845.23
648.678	3916.91
648.871	3759.22
649.064	3628.15
649.256	3832.94
649.449	3679.35
649.642	3595.38
649.835	3701.87
650.027	3730.55
650.22	3748.98
650.413	3507.32
650.605	3501.17
650.798	3789.94
650.991	3599.48
651.183	3558.52
651.376	3529.84
651.568	3642.48
651.761	3447.93
651.954	3546.23
652.146	3478.65
652.339	3519.6
652.531	3341.43
652.724	3345.53
652.916	3296.38
653.109	3384.44
653.301	3396.73
653.494	3337.34
653.686	3335.29
653.879	3372.15
654.071	3308.66
654.263	3206.27
654.456	3249.27
654.648	3366.01
654.84	3263.61
655.033	3093.63
655.225	3249.27
655.417	3165.31
655.61	3169.4
655.802	3087.48
655.994	3083.39
656.186	3107.96
656.379	3005.56
656.571	3099.77
656.763	3077.24
656.955	3099.77
657.148	3093.63
657.34	3009.66
657.532	3083.39
657.724	2978.94
657.916	2849.92
658.108	2864.25
658.3	2788.48
658.492	2790.53
658.684	2894.97
658.876	2892.93
659.068	2731.14
659.26	2819.2
659.452	2864.25
659.644	2733.18
659.836	2790.53
660.028	2778.24
660.22	2770.05
660.412	2829.44
660.604	2634.88
660.796	2624.64
660.988	2638.98
661.18	2649.22
661.372	2686.08
661.563	2612.35
661.755	2700.42
661.947	2686.08
662.139	2665.6
662.331	2557.06
662.522	2538.63
662.714	2483.33
662.906	2573.44
663.097	2565.25
663.289	2462.85
663.481	2425.99
663.673	2323.59
663.864	2550.92
664.056	2452.61
664.247	2423.94
664.439	2419.85
664.631	2473.09
664.822	2389.13
665.014	2337.93
665.205	2432.13
665.397	2315.4
665.588	2321.54
665.78	2387.08
665.971	2368.65
666.163	2362.5
666.354	2307.21
666.546	2245.77
666.737	2243.72
666.929	2143.37
667.12	2249.86
667.311	2282.63
667.503	2157.71
667.694	2344.07
667.885	2145.42
668.077	2243.72
668.268	2217.1
668.459	2223.24
668.651	2172.04
668.842	2124.94
669.033	2174.09
669.224	2231.43
669.416	2094.22
669.607	2204.81
669.798	2069.64
669.989	2169.99
670.18	1952.91
670.371	2104.46
670.563	2047.12
670.754	2043.02
670.945	1938.57
671.136	2059.4
671.327	1993.87
671.518	1961.1
671.709	2006.16
671.9	1914
672.091	2110.6
672.282	1993.87
672.473	1973.39
672.664	1887.37
672.855	1930.38
673.046	1887.37
673.237	2002.06
673.428	1967.24
673.619	1957
673.809	1885.33
674	1940.62
674.191	1936.53
674.382	1887.37
674.573	1830.03
674.764	1870.99
674.954	1870.99
675.145	1836.17
675.336	1852.56
675.527	1838.22
675.717	1838.22
675.908	1873.04
676.099	1787.02
676.289	1825.93
676.48	1846.41
676.671	1852.56
676.861	1897.61
677.052	1797.26
677.243	1686.67
677.433	1774.74
677.624	1815.69
677.814	1741.97
678.005	1797.26
678.195	1846.41
678.386	1631.38
678.576	1705.1
678.767	1705.1
678.957	1758.35
679.148	1737.87
679.338	1750.16
679.529	1815.69
679.719	1617.04
679.909	1827.98
680.1	1805.46
680.29	1721.49
680.481	1670.29
680.671	1780.88
680.861	1729.68
681.052	1768.59
681.242	1649.81
681.432	1758.35
681.622	1780.88
681.813	1703.06
682.003	1762.45
682.193	1774.74
682.383	1836.17
682.573	1631.38
682.764	1731.73
682.954	1715.34
683.144	1741.97
683.334	1617.04
683.524	1629.33
683.714	1764.5
683.904	1653.91
684.094	1610.9
684.284	1586.32
684.474	1582.23
684.664	1807.5
684.854	1713.3
685.044	1629.33
685.234	1733.78
685.424	1705.1
685.614	1658
685.804	1664.15
685.994	1703.06
686.184	1705.1
686.374	1684.62
686.564	1633.43
686.753	1522.84
686.943	1698.96
687.133	1569.94
687.323	1608.85
687.513	1731.73
687.702	1629.33
687.892	1594.51
688.082	1580.18
688.272	1619.09
688.461	1608.85
688.651	1701.01
688.841	1635.47
689.03	1711.25
689.22	1580.18
689.41	1545.36
689.599	1545.36
689.789	1643.67
689.979	1610.9
690.168	1694.86
690.358	1594.51
690.547	1551.51
690.737	1678.48
690.926	1590.42
691.116	1690.77
691.305	1561.75
691.495	1541.27
691.684	1528.98
691.874	1606.8
692.063	1549.46
692.252	1643.67
692.442	1569.94
692.631	1485.97
692.82	1559.7
693.01	1510.55
693.199	1528.98
693.388	1594.51
693.578	1504.4
693.767	1535.12
693.956	1600.66
694.146	1526.93
694.335	1571.99
694.524	1551.51
694.713	1598.61
694.902	1522.84
695.092	1469.59
695.281	1580.18
695.47	1553.55
695.659	1565.84
695.848	1557.65
696.037	1506.45
696.226	1485.97
696.415	1432.72
696.604	1432.72
696.793	1434.77
696.982	1528.98
697.171	1520.79
697.36	1549.46
697.549	1436.82
697.738	1512.6
697.927	1510.55
698.116	1467.54
698.305	1371.29
698.494	1361.05
698.683	1404.05
698.872	1557.65
699.061	1412.25
699.25	1371.29
699.438	1463.44
699.627	1438.87
699.816	1414.29
700.005	1369.24
700.193	1371.29
700.382	1420.44
700.571	1393.81
700.76	1447.06
700.948	1447.06
701.137	1426.58
701.326	1414.29
701.514	1338.52
701.703	1457.3
701.892	1352.85
702.08	1459.35
702.269	1557.65
702.457	1322.13
702.646	1459.35
702.834	1422.48
703.023	1399.96
703.212	1477.78
703.4	1371.29
703.589	1428.63
703.777	1348.76
703.965	1434.77
704.154	1432.72
704.342	1412.25
704.531	1334.42
704.719	1315.99
704.907	1311.89
705.096	1330.33
705.284	1490.07
705.472	1430.68
705.661	1281.18
705.849	1428.63
706.037	1412.25
706.226	1268.89
706.414	1340.57
706.602	1348.76
706.79	1377.43
706.979	1381.53
707.167	1213.59
707.355	1307.8
707.543	1262.74
707.731	1211.54
707.919	1283.22
708.107	1363.09
708.296	1309.85
708.484	1272.98
708.672	1307.8
708.86	1291.41
709.048	1330.33
709.236	1318.04
709.424	1342.61
709.612	1354.9
709.8	1250.46
709.988	1275.03
710.176	1336.47
710.364	1223.83
710.551	1285.27
710.739	1180.82
710.927	1203.35
711.115	1275.03
711.303	1326.23
711.491	1240.22
711.679	1186.97
711.866	1293.46
712.054	1283.22
712.242	1160.34
712.43	1191.06
712.617	1254.55
712.805	1217.69
712.993	1242.26
713.181	1103
713.368	1174.68
713.556	1225.88
713.744	1152.15
713.931	1258.65
714.119	1184.92
714.306	1248.41
714.494	1338.52
714.682	1189.02
714.869	1256.6
715.057	1125.53
715.244	1176.73
715.432	1221.78
715.619	1166.49
715.807	1293.46
715.994	1199.26
716.182	1199.26
716.369	1174.68
716.556	1184.92
716.744	1131.67
716.931	1252.5
717.119	1146.01
717.306	1119.39
717.493	1080.47
717.681	1113.24
717.868	1193.11
718.055	1137.82
718.242	1086.62
718.43	1088.67
718.617	1248.41
718.804	1055.9
718.991	1076.38
719.179	1139.87
719.366	1143.96
719.553	1160.34
719.74	1135.77
719.927	1123.48
720.114	1059.99
720.301	1096.86
720.488	1174.68
720.676	1088.67
720.863	1158.3
721.05	1094.81
721.237	1078.43
721.424	1047.71
721.611	1062.04
721.798	1082.52
721.985	980.12
722.172	1045.66
722.358	1117.34
722.545	1068.19
722.732	992.41
722.919	1039.51
723.106	1019.04
723.293	1037.47
723.48	1115.29
723.667	1080.47
723.853	1006.75
724.04	1076.38
724.227	988.32
724.414	986.27
724.6	1059.99
724.787	1039.51
724.974	1062.04
725.161	1057.95
725.347	1037.47
725.534	1133.72
725.72	949.4
725.907	949.4
726.094	941.21
726.28	1053.85
726.467	1021.08
726.653	957.6
726.84	1096.86
727.027	1064.09
727.213	1012.89
727.4	912.54
727.586	961.69
727.773	1000.6
727.959	1016.99
728.145	953.5
728.332	994.46
728.518	1012.89
728.705	1070.23
728.891	945.31
729.077	1019.04
729.264	918.68
729.45	1033.37
729.636	1004.7
729.823	969.88
730.009	928.92
730.195	943.26
730.382	1051.8
730.568	939.16
730.754	945.31
730.94	914.59
731.126	900.25
731.313	1019.04
731.499	971.93
731.685	1041.56
731.871	994.46
732.057	996.51
732.243	965.79
732.429	982.17
732.615	1029.27
732.801	1014.94
732.987	1027.23
733.173	984.22
733.359	988.32
733.545	916.64
733.731	947.36
733.917	959.64
734.103	988.32
734.289	982.17
734.475	926.88
734.661	912.54
734.847	953.5
735.033	904.35
735.219	1029.27
735.404	963.74
735.59	832.67
735.776	869.53
735.962	961.69
736.148	963.74
736.333	924.83
736.519	937.12
736.705	863.39
736.89	922.78
737.076	826.53
737.262	885.92
737.447	869.53
737.633	863.39
737.819	885.92
738.004	982.17
738.19	928.92
738.375	808.09
738.561	887.97
738.747	945.31
738.932	793.76
739.118	879.77
739.303	937.12
739.489	984.22
739.674	877.73
739.859	881.82
740.045	924.83
740.23	842.91
740.416	781.47
740.601	890.01
740.786	881.82
740.972	760.99
741.157	863.39
741.342	844.96
741.528	851.1
741.713	892.06
741.898	793.76
742.084	838.81
742.269	863.39
742.454	830.62
742.639	842.91
742.824	801.95
743.01	865.44
743.195	773.28
743.38	832.67
743.565	840.86
743.75	898.2
743.935	867.49
744.12	842.91
744.305	760.99
744.49	822.43
744.675	818.33
744.86	818.33
745.045	806.05
745.23	769.18
745.415	744.61
745.6	806.05
745.785	726.18
745.97	717.98
746.155	775.33
746.34	750.75
746.525	760.99
746.71	806.05
746.895	695.46
747.079	707.74
747.264	693.41
747.449	840.86
747.634	754.85
747.819	793.76
748.003	642.21
748.188	670.88
748.373	720.03
748.557	746.66
748.742	758.94
748.927	740.51
749.111	705.7
749.296	674.98
749.481	697.5
749.665	615.59
749.85	677.02
750.034	672.93
750.219	644.26
750.404	593.06
750.588	584.87
750.773	597.15
750.957	664.74
751.141	687.26
751.326	713.89
751.51	674.98
751.695	607.39
751.879	617.63
752.064	648.35
752.248	611.49
752.432	658.59
752.617	677.02
752.801	670.88
752.985	570.53
753.17	681.12
753.354	502.95
753.538	576.67
753.722	539.81
753.907	523.43
754.091	593.06
754.275	609.44
754.459	533.67
754.643	580.77
754.828	578.72
755.012	556.19
755.196	619.68
755.38	636.06
755.564	586.91
755.748	504.99
755.932	554.15
756.116	586.91
756.3	523.43
756.484	433.32
756.668	492.71
756.852	527.52
757.036	507.04
757.22	519.33
757.404	521.38
757.588	500.9
757.772	496.8
757.956	543.91
758.14	474.28
758.323	453.8
758.507	568.48
758.691	433.32
758.875	453.8
759.059	550.05
759.242	472.23
759.426	486.56
759.61	478.37
759.794	455.84
759.977	459.94
760.161	492.71
760.345	492.71
760.528	470.18
760.712	445.6
760.895	464.04
761.079	513.19
761.263	416.93
761.446	437.41
761.63	371.88
761.813	445.6
761.997	425.12
762.18	445.6
762.364	414.88
762.547	437.41
762.731	470.18
762.914	390.31
763.098	449.7
763.281	423.08
763.464	367.78
763.648	421.03
763.831	390.31
764.015	441.51
764.198	459.94
764.381	423.08
764.564	519.33
764.748	443.56
764.931	390.31
765.114	427.17
765.297	476.32
765.481	445.6
765.664	435.36
765.847	431.27
766.03	445.6
766.213	464.04
766.397	382.12
766.58	402.6
766.763	441.51
766.946	384.16
767.129	341.16
767.312	459.94
767.495	423.08
767.678	326.82
767.861	365.73
768.044	421.03
768.227	480.42
768.41	363.69
768.593	359.59
768.776	392.36
768.959	406.69
769.142	412.84
769.324	402.6
769.507	373.92
769.69	404.64
769.873	359.59
770.056	355.49
770.239	345.25
770.421	371.88
770.604	388.26
770.787	349.35
770.97	365.73
771.152	398.5
771.335	375.97
771.518	339.11
771.7	322.73
771.883	418.98
772.066	355.49
772.248	380.07
772.431	382.12
772.613	318.63
772.796	347.3
772.978	361.64
773.161	318.63
773.343	349.35
773.526	312.49
773.708	414.88
773.891	257.19
774.073	343.21
774.256	332.97
774.438	363.69
774.621	345.25
774.803	292.01
774.985	304.29
775.168	351.4
775.35	314.53
775.532	302.25
775.715	267.43
775.897	257.19
776.079	312.49
776.261	265.38
776.444	271.53
776.626	326.82
776.808	316.58
776.99	197.8
777.173	296.1
777.355	261.29
777.537	306.34
777.719	275.62
777.901	300.2
778.083	298.15
778.265	222.38
778.447	322.73
778.629	343.21
778.811	236.71
778.993	287.91
779.175	242.85
779.357	210.09
779.539	226.47
779.721	226.47
779.903	265.38
780.085	251.05
780.267	249
780.449	244.9
780.631	195.75
780.812	269.48
780.994	240.81
781.176	277.67
781.358	148.65
781.54	195.75
781.721	281.77
781.903	300.2
782.085	173.22
782.267	210.09
782.448	218.28
782.63	210.09
782.812	249
782.993	224.42
783.175	244.9
783.357	236.71
783.538	228.52
783.72	269.48
783.901	218.28
784.083	259.24
784.264	179.37
784.446	179.37
784.627	134.31
784.809	122.02
784.99	156.84
785.172	183.46
785.353	222.38
785.535	193.7
785.716	171.18
785.897	107.69
786.079	173.22
786.26	251.05
786.441	191.66
786.623	160.94
786.804	144.55
786.985	251.05
787.167	154.79
787.348	162.98
787.529	214.18
787.71	212.14
787.891	167.08
788.073	142.5
788.254	171.18
788.435	285.86
788.616	167.08
788.797	152.74
788.978	263.33
789.159	72.87
789.34	144.55
789.522	195.75
789.703	134.31
789.884	160.94
790.065	191.66
790.246	224.42
790.427	193.7
790.607	156.84
790.788	162.98
790.969	109.74
791.15	167.08
791.331	134.31
791.512	152.74
791.693	130.22
791.874	167.08
792.054	167.08
792.235	171.18
792.416	85.16
792.597	140.46
792.778	25.77
792.958	126.12
793.139	189.61
793.32	142.5
793.5	130.22
793.681	162.98
793.862	74.92
794.042	142.5
794.223	146.6
794.404	119.98
794.584	136.36
794.765	150.7
794.945	122.02
795.126	177.32
795.306	165.03
795.487	183.46
795.667	89.26
795.848	117.93
796.028	162.98
796.209	126.12
796.389	38.06
796.57	117.93
796.75	146.6
796.93	126.12
797.111	136.36
797.291	97.45
797.471	128.17
797.652	56.49
797.832	167.08
798.012	160.94
798.192	40.11
798.373	99.5
798.553	111.78
798.733	111.78
798.913	126.12
799.093	101.55
799.274	107.69
799.454	109.74
799.634	60.59
799.814	126.12
799.994	183.46
800.174	56.49
800.354	162.98
800.534	70.83
800.714	124.07
800.894	107.69
801.074	13.48
801.254	136.36
801.434	122.02
801.614	89.26
801.794	91.31
801.974	390.31
802.154	15.53
802.334	101.55
802.514	93.35
802.693	117.93
802.873	70.83
803.053	97.45
803.233	142.5
803.413	68.78
803.592	91.31
803.772	36.01
803.952	99.5
804.131	111.78
804.311	113.83
804.491	109.74
804.67	165.03
804.85	58.54
805.03	101.55
805.209	111.78
805.389	173.22
805.568	62.63
805.748	83.11
805.928	79.02
806.107	52.39
806.287	119.98
806.466	124.07
806.646	140.46
806.825	64.68
807.004	136.36
807.184	70.83
807.363	56.49
807.543	66.73
807.722	48.3
807.901	105.64
808.081	128.17
808.26	79.02
808.439	72.87
808.619	48.3
808.798	40.11
808.977	52.39
809.156	56.49
809.336	60.59
809.515	105.64
809.694	107.69
809.873	74.92
810.052	72.87
810.231	160.94
810.411	72.87
810.59	46.25
810.769	-19.29
810.948	117.93
811.127	64.68
811.306	79.02
811.485	38.06
811.664	105.64
811.843	68.78
812.022	91.31
812.201	62.63
812.38	15.53
812.559	25.77
812.737	21.67
812.916	97.45
813.095	52.39
813.274	64.68
813.453	50.35
813.632	66.73
813.811	109.74
813.989	33.96
814.168	89.26
814.347	56.49
814.526	33.96
814.704	91.31
814.883	117.93
815.062	-37.72
815.24	44.2
815.419	17.58
815.598	81.07
815.776	54.44
815.955	38.06
816.133	74.92
816.312	89.26
816.49	25.77
816.669	66.73
816.847	9.39
817.026	54.44
817.204	48.3
817.383	85.16
817.561	-17.24
817.74	58.54
817.918	-4.95
818.097	27.82
818.275	64.68
818.453	81.07
818.632	85.16
818.81	95.4
818.988	83.11
819.167	36.01
819.345	64.68
819.523	62.63
819.701	15.53
819.879	62.63
820.058	130.22
820.236	44.2
820.414	50.35
820.592	21.67
820.77	64.68
820.948	27.82
821.127	38.06
821.305	60.59
821.483	68.78
821.661	60.59
821.839	60.59
822.017	64.68
822.195	-35.67
822.373	144.55
822.551	31.91
822.729	23.72
822.907	48.3
823.085	115.88
823.262	54.44
823.44	19.63
823.618	72.87
823.796	87.21
823.974	72.87
824.152	79.02
824.329	3.24
824.507	29.87
824.685	79.02
824.863	48.3
825.04	5.29
825.218	68.78
825.396	62.63
825.574	21.67
825.751	52.39
825.929	19.63
826.107	46.25
826.284	-23.38
826.462	17.58
826.639	19.63
826.817	60.59
826.994	48.3
827.172	48.3
827.349	79.02
827.527	101.55
827.704	36.01
827.882	42.15
828.059	52.39
828.237	64.68
828.414	27.82
828.591	52.39
828.769	76.97
828.946	3.24
829.124	64.68
829.301	42.15
829.478	42.15
829.655	-9.05
829.833	83.11
830.01	23.72
830.187	68.78
830.364	38.06
830.542	52.39
830.719	99.5
830.896	29.87
831.073	15.53
831.25	83.11
831.427	62.63
831.604	50.35
831.782	36.01
831.959	-27.48
832.136	1.19
832.313	48.3
832.49	-21.33
832.667	68.78
832.844	1.19
833.021	56.49
833.198	27.82
833.374	36.01
833.551	-9.05
833.728	21.67
833.905	58.54
834.082	-0.85
834.259	50.35
834.436	15.53
834.612	44.2
834.789	29.87
834.966	101.55
835.143	-9.05
835.319	-25.43
835.496	27.82
835.673	83.11
835.85	38.06
836.026	46.25
836.203	79.02
836.38	44.2
836.556	64.68
836.733	-21.33
836.909	31.91
837.086	40.11
837.262	52.39
837.439	15.53
837.616	-43.86
837.792	68.78
837.968	-33.62
838.145	66.73
838.321	38.06
838.498	11.43
838.674	60.59
838.851	-54.1
839.027	46.25
839.203	-4.95
839.38	89.26
839.556	15.53
839.732	68.78
839.909	62.63
840.085	40.11
840.261	23.72
840.437	19.63
840.614	19.63
840.79	11.43
840.966	-2.9
841.142	17.58
841.318	-31.57
841.494	-64.34
841.671	-19.29
841.847	1.19
842.023	17.58
842.199	48.3
842.375	-0.85
842.551	-43.86
842.727	74.92
842.903	68.78
843.079	9.39
843.255	54.44
843.431	5.29
843.607	56.49
843.783	-11.09
843.959	54.44
844.134	27.82
844.31	27.82
844.486	46.25
844.662	-52.05
844.838	74.92
845.013	136.36
845.189	40.11
845.365	56.49
845.541	46.25
845.716	27.82
845.892	-9.05
846.068	-7
846.244	-17.24
846.419	19.63
846.595	-2.9
846.77	23.72
846.946	-11.09
847.122	38.06
847.297	-35.67
847.473	17.58
847.648	40.11
847.824	-52.05
847.999	23.72
848.175	-62.29
848.35	83.11
848.526	-29.52
848.701	40.11
848.876	-0.85
849.052	-64.34
849.227	44.2
849.403	-4.95
849.578	40.11
849.753	13.48
849.929	42.15
850.104	15.53
850.279	13.48
850.454	-74.58
850.63	23.72
850.805	15.53
850.98	11.43
851.155	-37.72
851.33	52.39
851.505	19.63
851.681	15.53
851.856	-31.57
852.031	15.53
852.206	44.2
852.381	-72.53
852.556	-29.52
852.731	93.35
852.906	17.58
853.081	11.43
853.256	17.58
853.431	46.25
853.606	1.19
853.781	-50
853.956	23.72
854.131	81.07
854.305	-11.09
854.48	89.26
854.655	-9.05
854.83	3.24
855.005	-19.29
855.18	21.67
855.354	36.01
855.529	-33.62
855.704	-7
855.879	44.2
856.053	-41.81
856.228	-19.29
856.403	-0.85
856.577	21.67
856.752	60.59
856.926	5.29
857.101	23.72
857.276	1.19
857.45	-19.29
857.625	-37.72
857.799	27.82
857.974	36.01
858.148	-35.67
858.323	40.11
858.497	101.55
858.672	-19.29
858.846	38.06
859.02	42.15
859.195	-21.33
859.369	-23.38
859.543	-27.48
859.718	-13.14
859.892	3.24
860.066	72.87
860.241	101.55
860.415	36.01
860.589	5.29
860.763	40.11
860.938	40.11
861.112	-52.05
861.286	1.19
861.46	54.44
861.634	-43.86
861.808	60.59
861.982	-29.52
862.157	-56.15
862.331	-2.9
862.505	36.01
862.679	7.34
862.853	19.63
863.027	36.01
863.201	56.49
863.375	38.06
863.549	-29.52
863.722	25.77
863.896	36.01
864.07	-21.33
864.244	-17.24
864.418	23.72
864.592	40.11
864.766	-13.14
864.939	5.29
865.113	-11.09
865.287	-2.9
865.461	-17.24
865.634	-21.33
865.808	17.58
865.982	1.19
866.156	-13.14
866.329	-45.91
866.503	36.01
866.676	27.82
866.85	52.39
867.024	-60.24
867.197	13.48
867.371	-84.82
867.544	79.02
867.718	109.74
867.891	46.25
868.065	23.72
868.238	-19.29
868.412	91.31
868.585	52.39
868.759	19.63
868.932	11.43
869.105	-13.14
869.279	42.15
869.452	-39.76
869.625	23.72
869.799	7.34
869.972	21.67
870.145	19.63
870.319	27.82
870.492	-21.33
870.665	-17.24
870.838	-19.29
871.011	15.53
871.185	9.39
871.358	-52.05
871.531	3.24
871.704	-43.86
871.877	50.35
872.05	72.87
872.223	-29.52
872.396	-17.24
872.569	54.44
872.742	31.91
872.915	109.74
873.088	-19.29
873.261	-21.33
873.434	38.06
873.607	87.21
873.78	-13.14
873.953	-43.86
874.126	3.24
874.299	76.97
874.471	36.01
874.644	33.96
874.817	44.2
874.99	72.87
875.163	21.67
875.335	40.11
875.508	-88.92
875.681	50.35
875.853	38.06
876.026	-9.05
876.199	-29.52
876.371	76.97
876.544	-0.85
876.717	40.11
876.889	74.92
877.062	29.87
877.234	21.67
877.407	-9.05
877.579	79.02
877.752	46.25
877.924	-21.33
878.097	36.01
878.269	27.82
878.442	-9.05
878.614	9.39
878.786	87.21
878.959	33.96
879.131	19.63
879.303	-50
879.476	36.01
879.648	-2.9
879.82	70.83
879.993	40.11
880.165	-35.67
880.337	-2.9
880.509	27.82
880.681	19.63
880.854	-62.29
881.026	40.11
881.198	-0.85
881.37	5.29
881.542	-78.68
881.714	-25.43
881.886	21.67
882.058	31.91
882.23	72.87
882.402	-33.62
882.574	11.43
882.746	58.54
882.918	-0.85
883.09	36.01
883.262	13.48
883.434	-15.19
883.606	-35.67
883.778	97.45
883.95	9.39
884.122	29.87
884.293	15.53
884.465	76.97
884.637	21.67
884.809	-64.34
884.98	-15.19
885.152	-13.14
885.324	13.48
885.496	17.58
885.667	7.34
885.839	21.67
886.011	50.35
886.182	97.45
886.354	48.3
886.525	-15.19
886.697	-56.15
886.869	-43.86
887.04	58.54
887.212	64.68
887.383	7.34
887.555	38.06
887.726	44.2
887.897	-76.63
888.069	56.49
888.24	15.53
888.412	9.39
888.583	-35.67
888.754	-7
888.926	11.43
889.097	36.01
889.268	-56.15
889.44	9.39
889.611	54.44
889.782	-37.72
889.953	-9.05
890.125	-17.24
890.296	7.34
890.467	-25.43
890.638	-19.29
890.809	-7
890.98	-2.9
891.151	62.63
891.323	-13.14
891.494	-29.52
891.665	-17.24
891.836	-17.24
892.007	11.43
892.178	-35.67
892.349	76.97
892.52	-33.62
892.691	54.44
892.862	15.53
893.032	3.24
893.203	7.34
893.374	-27.48
893.545	68.78
893.716	-17.24
893.887	83.11
894.057	-15.19
894.228	-17.24
894.399	-9.05
894.57	40.11
894.74	42.15
894.911	11.43
895.082	-7
895.253	-39.76
895.423	3.24
895.594	36.01
895.764	7.34
895.935	48.3
896.106	-31.57
896.276	44.2
896.447	27.82
896.617	93.35
896.788	23.72
896.958	15.53
897.129	-58.2
897.299	-19.29
897.47	40.11
897.64	38.06
897.81	56.49
897.981	46.25
898.151	1.19
898.322	36.01
898.492	-88.92
898.662	-41.81
898.832	31.91
899.003	19.63
899.173	-2.9
899.343	60.59
899.513	-29.52
