Data from USB4F104151__26__12-58-45-248.txt Node

Date: Fri Mar 14 12:58:45 EDT 2025
User: louis
Spectrometer: USB4F10415
Trigger mode: 4
Integration Time (sec): 1.000000E-2
Scans to average: 1
Electric dark correction enabled: true
Nonlinearity correction enabled: false
Boxcar width: 0
XAxis mode: Wavelengths
Number of Pixels in Spectrum: 3648
>>>>>Begin Spectral Data<<<<<
178.204	-24.4
178.424	-24.4
178.644	-24.4
178.864	-30.55
179.084	-67.41
179.304	-10.07
179.524	-28.5
179.744	2.22
179.964	59.56
180.184	45.23
180.404	-36.69
180.624	4.27
180.844	-26.45
181.064	41.13
181.283	-46.93
181.503	-28.5
181.723	24.75
181.943	67.75
182.163	47.27
182.383	-20.31
182.602	32.94
182.822	-12.12
183.042	55.47
183.262	18.6
183.482	47.27
183.701	59.56
183.921	34.99
184.141	41.13
184.361	45.23
184.58	41.13
184.8	75.95
185.02	22.7
185.239	-20.31
185.459	-8.02
185.679	100.52
185.898	77.99
186.118	-5.97
186.338	22.7
186.557	45.23
186.777	59.56
186.997	12.46
187.216	8.36
187.436	63.66
187.655	20.65
187.875	12.46
188.095	-20.31
188.314	53.42
188.534	-14.17
188.753	108.71
188.973	34.99
189.192	4.27
189.412	77.99
189.631	-5.97
189.851	26.79
190.07	84.14
190.29	18.6
190.509	4.27
190.729	22.7
190.948	65.71
191.168	26.79
191.387	34.99
191.607	61.61
191.826	84.14
192.045	-51.03
192.265	24.75
192.484	26.79
192.704	-20.31
192.923	65.71
193.142	-1.88
193.362	37.03
193.581	59.56
193.8	88.23
194.02	39.08
194.239	-36.69
194.458	37.03
194.678	30.89
194.897	30.89
195.116	2.22
195.335	2.22
195.555	6.31
195.774	63.66
195.993	-5.97
196.212	61.61
196.432	-10.07
196.651	-14.17
196.87	-3.93
197.089	24.75
197.308	92.33
197.528	-10.07
197.747	-3.93
197.966	26.79
198.185	-32.6
198.404	4.27
198.623	-10.07
198.842	14.51
199.062	32.94
199.281	10.41
199.5	-38.74
199.719	-24.4
199.938	-3.93
200.157	57.51
200.376	-16.21
200.595	51.37
200.814	-5.97
201.033	43.18
201.252	57.51
201.471	26.79
201.69	49.32
201.909	-53.08
202.128	61.61
202.347	0.17
202.566	43.18
202.785	-3.93
203.004	-40.79
203.223	34.99
203.442	-26.45
203.661	34.99
203.879	59.56
204.098	112.81
204.317	18.6
204.536	18.6
204.755	-34.64
204.974	98.47
205.193	14.51
205.411	63.66
205.63	45.23
205.849	-5.97
206.068	-22.36
206.287	67.75
206.505	43.18
206.724	-3.93
206.943	20.65
207.162	-20.31
207.381	20.65
207.599	73.9
207.818	30.89
208.037	77.99
208.255	-3.93
208.474	26.79
208.693	12.46
208.911	-53.08
209.13	55.47
209.349	34.99
209.567	-5.97
209.786	37.03
210.005	-12.12
210.223	16.55
210.442	14.51
210.661	94.38
210.879	75.95
211.098	-26.45
211.316	-8.02
211.535	37.03
211.753	67.75
211.972	51.37
212.191	86.19
212.409	4.27
212.628	28.84
212.846	65.71
213.065	-8.02
213.283	88.23
213.502	30.89
213.72	-18.26
213.938	-38.74
214.157	100.52
214.375	-65.36
214.594	-55.12
214.812	30.89
215.031	77.99
215.249	18.6
215.467	-3.93
215.686	41.13
215.904	41.13
216.122	39.08
216.341	82.09
216.559	6.31
216.778	32.94
216.996	-10.07
217.214	-30.55
217.432	32.94
217.651	84.14
217.869	-30.55
218.087	86.19
218.306	-83.8
218.524	-10.07
218.742	14.51
218.96	-69.46
219.179	34.99
219.397	67.75
219.615	8.36
219.833	-34.64
220.051	57.51
220.27	-3.93
220.488	69.8
220.706	26.79
220.924	45.23
221.142	49.32
221.36	75.95
221.578	28.84
221.796	2.22
222.015	37.03
222.233	71.85
222.451	26.79
222.669	10.41
222.887	116.9
223.105	-5.97
223.323	-10.07
223.541	8.36
223.759	49.32
223.977	6.31
224.195	51.37
224.413	24.75
224.631	32.94
224.849	67.75
225.067	73.9
225.285	30.89
225.503	30.89
225.721	-40.79
225.939	28.84
226.157	59.56
226.375	84.14
226.592	59.56
226.81	28.84
227.028	30.89
227.246	-1.88
227.464	10.41
227.682	63.66
227.9	-14.17
228.117	4.27
228.335	45.23
228.553	-44.88
228.771	4.27
228.989	53.42
229.206	2.22
229.424	-46.93
229.642	26.79
229.86	14.51
230.077	45.23
230.295	63.66
230.513	20.65
230.731	39.08
230.948	18.6
231.166	18.6
231.384	-28.5
231.601	55.47
231.819	20.65
232.037	-3.93
232.254	16.55
232.472	4.27
232.689	53.42
232.907	-3.93
233.125	-20.31
233.342	57.51
233.56	-20.31
233.777	92.33
233.995	-3.93
234.213	118.95
234.43	57.51
234.648	45.23
234.865	-48.98
235.083	10.41
235.3	-1.88
235.518	-3.93
235.735	59.56
235.953	71.85
236.17	-20.31
236.388	-16.21
236.605	92.33
236.822	-18.26
237.04	-8.02
237.257	22.7
237.475	2.22
237.692	4.27
237.909	39.08
238.127	41.13
238.344	-22.36
238.562	28.84
238.779	8.36
238.996	100.52
239.214	32.94
239.431	45.23
239.648	-8.02
239.865	22.7
240.083	12.46
240.3	14.51
240.517	-51.03
240.735	61.61
240.952	12.46
241.169	63.66
241.386	24.75
241.603	-55.12
241.821	-16.21
242.038	100.52
242.255	26.79
242.472	-1.88
242.689	77.99
242.907	24.75
243.124	43.18
243.341	6.31
243.558	4.27
243.775	39.08
243.992	-24.4
244.209	69.8
244.426	0.17
244.643	32.94
244.86	-55.12
245.078	-3.93
245.295	39.08
245.512	51.37
245.729	6.31
245.946	-71.51
246.163	73.9
246.38	61.61
246.597	137.38
246.814	-3.93
247.031	20.65
247.248	61.61
247.464	47.27
247.681	2.22
247.898	-16.21
248.115	61.61
248.332	-34.64
248.549	26.79
248.766	34.99
248.983	45.23
249.2	37.03
249.417	-3.93
249.633	41.13
249.85	2.22
250.067	20.65
250.284	-16.21
250.501	67.75
250.717	84.14
250.934	-1.88
251.151	16.55
251.368	2.22
251.585	77.99
251.801	49.32
252.018	-42.84
252.235	24.75
252.451	39.08
252.668	39.08
252.885	82.09
253.102	51.37
253.318	-26.45
253.535	34.99
253.752	28.84
253.968	30.89
254.185	14.51
254.401	53.42
254.618	16.55
254.835	20.65
255.051	26.79
255.268	43.18
255.484	102.57
255.701	43.18
255.917	0.17
256.134	75.95
256.351	30.89
256.567	26.79
256.784	51.37
257	37.03
257.217	45.23
257.433	75.95
257.65	30.89
257.866	110.76
258.082	57.51
258.299	-12.12
258.515	20.65
258.732	34.99
258.948	100.52
259.165	80.04
259.381	-20.31
259.597	14.51
259.814	26.79
260.03	43.18
260.246	-67.41
260.463	-14.17
260.679	73.9
260.895	55.47
261.112	55.47
261.328	-5.97
261.544	-40.79
261.761	47.27
261.977	37.03
262.193	20.65
262.409	75.95
262.626	-26.45
262.842	18.6
263.058	88.23
263.274	28.84
263.49	47.27
263.707	-16.21
263.923	43.18
264.139	59.56
264.355	77.99
264.571	-20.31
264.787	32.94
265.004	6.31
265.22	51.37
265.436	-3.93
265.652	-26.45
265.868	71.85
266.084	32.94
266.3	28.84
266.516	-3.93
266.732	-48.98
266.948	14.51
267.164	63.66
267.38	-14.17
267.596	86.19
267.812	49.32
268.028	-30.55
268.244	65.71
268.46	73.9
268.676	-14.17
268.892	-12.12
269.108	53.42
269.324	-8.02
269.54	59.56
269.756	12.46
269.972	-28.5
270.188	61.61
270.403	-8.02
270.619	-46.93
270.835	12.46
271.051	14.51
271.267	-20.31
271.483	22.7
271.698	-5.97
271.914	-5.97
272.13	22.7
272.346	100.52
272.562	18.6
272.777	30.89
272.993	96.43
273.209	59.56
273.425	59.56
273.64	28.84
273.856	6.31
274.072	30.89
274.287	18.6
274.503	-34.64
274.719	49.32
274.934	16.55
275.15	-24.4
275.366	4.27
275.581	30.89
275.797	34.99
276.012	80.04
276.228	16.55
276.444	37.03
276.659	55.47
276.875	-61.27
277.09	-10.07
277.306	47.27
277.521	45.23
277.737	-5.97
277.952	88.23
278.168	37.03
278.383	41.13
278.599	94.38
278.814	22.7
279.03	41.13
279.245	16.55
279.461	30.89
279.676	69.8
279.892	-3.93
280.107	20.65
280.322	-3.93
280.538	84.14
280.753	37.03
280.969	22.7
281.184	0.17
281.399	28.84
281.615	30.89
281.83	26.79
282.045	28.84
282.26	49.32
282.476	0.17
282.691	98.47
282.906	-28.5
283.122	82.09
283.337	47.27
283.552	-22.36
283.767	75.95
283.983	-55.12
284.198	-5.97
284.413	24.75
284.628	4.27
284.843	59.56
285.058	26.79
285.274	51.37
285.489	-42.84
285.704	73.9
285.919	18.6
286.134	32.94
286.349	18.6
286.564	24.75
286.779	24.75
286.995	51.37
287.21	71.85
287.425	34.99
287.64	18.6
287.855	6.31
288.07	22.7
288.285	8.36
288.5	69.8
288.715	14.51
288.93	24.75
289.145	10.41
289.36	51.37
289.575	47.27
289.79	51.37
290.004	77.99
290.219	88.23
290.434	14.51
290.649	30.89
290.864	14.51
291.079	-3.93
291.294	26.79
291.509	2.22
291.724	-14.17
291.938	14.51
292.153	80.04
292.368	-1.88
292.583	69.8
292.798	22.7
293.012	18.6
293.227	55.47
293.442	45.23
293.657	24.75
293.871	26.79
294.086	22.7
294.301	45.23
294.516	41.13
294.73	65.71
294.945	30.89
295.16	32.94
295.374	20.65
295.589	104.62
295.804	20.65
296.018	39.08
296.233	26.79
296.447	20.65
296.662	-3.93
296.877	71.85
297.091	-20.31
297.306	30.89
297.52	12.46
297.735	28.84
297.949	16.55
298.164	30.89
298.378	61.61
298.593	37.03
298.807	-3.93
299.022	20.65
299.236	37.03
299.451	18.6
299.665	-51.03
299.88	39.08
300.094	2.22
300.309	49.32
300.523	22.7
300.737	-20.31
300.952	65.71
301.166	24.75
301.381	37.03
301.595	37.03
301.809	4.27
302.024	75.95
302.238	16.55
302.452	90.28
302.667	26.79
302.881	67.75
303.095	8.36
303.309	14.51
303.524	53.42
303.738	8.36
303.952	-1.88
304.166	88.23
304.381	-36.69
304.595	26.79
304.809	10.41
305.023	18.6
305.237	-48.98
305.452	110.76
305.666	-30.55
305.88	6.31
306.094	47.27
306.308	43.18
306.522	69.8
306.736	26.79
306.95	26.79
307.164	53.42
307.379	-22.36
307.593	61.61
307.807	37.03
308.021	61.61
308.235	-14.17
308.449	59.56
308.663	49.32
308.877	45.23
309.091	12.46
309.305	28.84
309.519	-26.45
309.733	8.36
309.947	-18.26
310.161	71.85
310.374	47.27
310.588	22.7
310.802	12.46
311.016	-1.88
311.23	77.99
311.444	10.41
311.658	80.04
311.872	65.71
312.085	20.65
312.299	82.09
312.513	65.71
312.727	67.75
312.941	86.19
313.154	59.56
313.368	39.08
313.582	45.23
313.796	30.89
314.009	18.6
314.223	-34.64
314.437	47.27
314.651	34.99
314.864	80.04
315.078	24.75
315.292	84.14
315.505	71.85
315.719	86.19
315.933	18.6
316.146	59.56
316.36	30.89
316.573	69.8
316.787	41.13
317.001	-1.88
317.214	65.71
317.428	96.43
317.641	12.46
317.855	30.89
318.068	18.6
318.282	20.65
318.495	-38.74
318.709	80.04
318.922	34.99
319.136	-3.93
319.349	20.65
319.563	47.27
319.776	24.75
319.99	51.37
320.203	30.89
320.417	67.75
320.63	-12.12
320.843	2.22
321.057	20.65
321.27	-42.84
321.483	18.6
321.697	39.08
321.91	47.27
322.124	39.08
322.337	39.08
322.55	32.94
322.763	30.89
322.977	100.52
323.19	55.47
323.403	10.41
323.617	80.04
323.83	77.99
324.043	-30.55
324.256	18.6
324.469	6.31
324.683	18.6
324.896	16.55
325.109	75.95
325.322	2.22
325.535	-3.93
325.748	-30.55
325.962	24.75
326.175	14.51
326.388	69.8
326.601	92.33
326.814	28.84
327.027	8.36
327.24	41.13
327.453	84.14
327.666	37.03
327.879	51.37
328.092	61.61
328.305	65.71
328.518	14.51
328.731	8.36
328.944	28.84
329.157	49.32
329.37	39.08
329.583	114.86
329.796	51.37
330.009	-3.93
330.222	37.03
330.435	55.47
330.648	-30.55
330.861	-16.21
331.073	8.36
331.286	-10.07
331.499	4.27
331.712	-1.88
331.925	16.55
332.138	45.23
332.35	43.18
332.563	24.75
332.776	127.14
332.989	-28.5
333.202	61.61
333.414	53.42
333.627	2.22
333.84	84.14
334.053	16.55
334.265	-53.08
334.478	47.27
334.691	55.47
334.903	28.84
335.116	41.13
335.329	39.08
335.541	-30.55
335.754	92.33
335.966	-16.21
336.179	86.19
336.392	59.56
336.604	61.61
336.817	18.6
337.029	51.37
337.242	43.18
337.454	14.51
337.667	82.09
337.88	114.86
338.092	20.65
338.305	18.6
338.517	12.46
338.729	51.37
338.942	39.08
339.154	59.56
339.367	-1.88
339.579	67.75
339.792	32.94
340.004	92.33
340.217	20.65
340.429	20.65
340.641	43.18
340.854	28.84
341.066	-30.55
341.278	12.46
341.491	57.51
341.703	47.27
341.915	26.79
342.128	67.75
342.34	20.65
342.552	61.61
342.764	84.14
342.977	16.55
343.189	28.84
343.401	34.99
343.613	8.36
343.826	-48.98
344.038	4.27
344.25	41.13
344.462	-18.26
344.674	67.75
344.886	-8.02
345.099	-5.97
345.311	100.52
345.523	4.27
345.735	20.65
345.947	75.95
346.159	41.13
346.371	-3.93
346.583	14.51
346.795	8.36
347.007	63.66
347.219	49.32
347.431	57.51
347.643	39.08
347.855	18.6
348.067	18.6
348.279	-10.07
348.491	12.46
348.703	51.37
348.915	75.95
349.127	-1.88
349.339	12.46
349.551	67.75
349.763	-5.97
349.975	49.32
350.187	0.17
350.399	28.84
350.61	30.89
350.822	8.36
351.034	45.23
351.246	-8.02
351.458	75.95
351.669	41.13
351.881	102.57
352.093	53.42
352.305	34.99
352.517	4.27
352.728	-34.64
352.94	47.27
353.152	6.31
353.363	-46.93
353.575	61.61
353.787	39.08
353.999	10.41
354.21	10.41
354.422	84.14
354.633	37.03
354.845	86.19
355.057	104.62
355.268	16.55
355.48	-28.5
355.692	-36.69
355.903	14.51
356.115	57.51
356.326	-81.75
356.538	2.22
356.749	104.62
356.961	6.31
357.172	-28.5
357.384	-63.32
357.595	28.84
357.807	59.56
358.018	77.99
358.23	12.46
358.441	67.75
358.653	63.66
358.864	61.61
359.075	26.79
359.287	20.65
359.498	37.03
359.709	51.37
359.921	121
360.132	86.19
360.344	-5.97
360.555	39.08
360.766	67.75
360.977	-1.88
361.189	16.55
361.4	4.27
361.611	43.18
361.823	141.48
362.034	-5.97
362.245	28.84
362.456	-5.97
362.667	-1.88
362.879	47.27
363.09	67.75
363.301	86.19
363.512	34.99
363.723	28.84
363.935	39.08
364.146	86.19
364.357	71.85
364.568	16.55
364.779	0.17
364.99	98.47
365.201	8.36
365.412	96.43
365.623	63.66
365.834	88.23
366.045	106.67
366.256	51.37
366.467	28.84
366.678	37.03
366.889	4.27
367.1	34.99
367.311	18.6
367.522	-1.88
367.733	92.33
367.944	22.7
368.155	41.13
368.366	94.38
368.577	47.27
368.788	34.99
368.999	2.22
369.209	34.99
369.42	26.79
369.631	63.66
369.842	71.85
370.053	98.47
370.264	-16.21
370.474	8.36
370.685	10.41
370.896	59.56
371.107	18.6
371.317	6.31
371.528	61.61
371.739	100.52
371.95	57.51
372.16	57.51
372.371	-3.93
372.582	4.27
372.792	43.18
373.003	2.22
373.214	73.9
373.424	106.67
373.635	32.94
373.846	92.33
374.056	75.95
374.267	-36.69
374.477	110.76
374.688	20.65
374.898	55.47
375.109	-16.21
375.319	18.6
375.53	55.47
375.74	12.46
375.951	26.79
376.161	-46.93
376.372	71.85
376.582	-3.93
376.793	37.03
377.003	20.65
377.214	2.22
377.424	4.27
377.635	26.79
377.845	10.41
378.055	28.84
378.266	-14.17
378.476	82.09
378.686	-3.93
378.897	86.19
379.107	28.84
379.317	28.84
379.528	43.18
379.738	61.61
379.948	20.65
380.158	37.03
380.369	20.65
380.579	84.14
380.789	30.89
380.999	39.08
381.21	-3.93
381.42	157.86
381.63	37.03
381.84	-10.07
382.05	-85.84
382.261	57.51
382.471	77.99
382.681	73.9
382.891	51.37
383.101	37.03
383.311	20.65
383.521	-3.93
383.731	24.75
383.941	-5.97
384.151	47.27
384.361	47.27
384.571	14.51
384.781	4.27
384.991	61.61
385.201	22.7
385.411	53.42
385.621	14.51
385.831	37.03
386.041	63.66
386.251	-20.31
386.461	59.56
386.671	37.03
386.881	-1.88
387.091	108.71
387.301	137.38
387.511	26.79
387.72	28.84
387.93	41.13
388.14	-1.88
388.35	100.52
388.56	88.23
388.769	-14.17
388.979	59.56
389.189	51.37
389.399	45.23
389.609	102.57
389.818	4.27
390.028	-20.31
390.238	51.37
390.447	86.19
390.657	45.23
390.867	34.99
391.076	-34.64
391.286	-28.5
391.496	71.85
391.705	4.27
391.915	127.14
392.125	30.89
392.334	63.66
392.544	49.32
392.753	67.75
392.963	-5.97
393.172	92.33
393.382	45.23
393.591	100.52
393.801	22.7
394.01	67.75
394.22	86.19
394.429	84.14
394.639	22.7
394.848	6.31
395.058	53.42
395.267	45.23
395.477	51.37
395.686	37.03
395.895	61.61
396.105	80.04
396.314	37.03
396.524	129.19
396.733	-3.93
396.942	49.32
397.152	51.37
397.361	41.13
397.57	41.13
397.78	10.41
397.989	24.75
398.198	39.08
398.407	77.99
398.617	-14.17
398.826	96.43
399.035	59.56
399.244	51.37
399.453	102.57
399.663	-22.36
399.872	125.1
400.081	65.71
400.29	102.57
400.499	12.46
400.708	67.75
400.917	86.19
401.127	127.14
401.336	51.37
401.545	69.8
401.754	61.61
401.963	26.79
402.172	133.29
402.381	67.75
402.59	82.09
402.799	121
403.008	125.1
403.217	51.37
403.426	28.84
403.635	135.34
403.844	47.27
404.053	129.19
404.262	47.27
404.471	96.43
404.68	114.86
404.888	114.86
405.097	110.76
405.306	172.2
405.515	112.81
405.724	45.23
405.933	145.58
406.142	20.65
406.35	86.19
406.559	57.51
406.768	28.84
406.977	75.95
407.185	170.15
407.394	168.1
407.603	102.57
407.812	145.58
408.02	127.14
408.229	178.34
408.438	121
408.646	41.13
408.855	178.34
409.064	98.47
409.272	84.14
409.481	153.77
409.69	194.73
409.898	118.95
410.107	131.24
410.315	155.82
410.524	88.23
410.733	127.14
410.941	131.24
411.15	149.67
411.358	151.72
411.567	258.21
411.775	207.02
411.984	202.92
412.192	231.59
412.401	180.39
412.609	252.07
412.818	164.01
413.026	211.11
413.234	272.55
413.443	200.87
413.651	221.35
413.86	268.45
414.068	344.23
414.276	223.4
414.485	264.36
414.693	323.75
414.901	321.7
415.11	354.47
415.318	346.28
415.526	282.79
415.734	305.32
415.943	395.43
416.151	430.24
416.359	387.24
416.567	387.24
416.776	465.06
416.984	407.72
417.192	401.57
417.4	481.44
417.608	356.52
417.817	497.83
418.025	520.35
418.233	632.99
418.441	561.31
418.649	559.27
418.857	596.13
419.065	657.57
419.273	665.76
419.481	678.05
419.689	645.28
419.897	686.24
420.105	716.96
420.313	639.14
420.521	716.96
420.729	827.55
420.937	692.38
421.145	911.52
421.353	856.22
421.561	854.17
421.769	919.71
421.977	921.76
422.185	929.95
422.393	1020.06
422.601	1011.87
422.809	1097.88
423.017	1034.39
423.224	1099.93
423.432	1173.66
423.64	1142.94
423.848	1214.62
424.056	1237.14
424.263	1259.67
424.471	1339.54
424.679	1284.25
424.887	1433.75
425.094	1493.14
425.302	1474.71
425.51	1577.11
425.718	1568.91
425.925	1525.91
426.133	1661.07
426.341	1693.84
426.548	1763.47
426.756	1759.38
426.964	1925.26
427.171	1958.03
427.379	2050.19
427.586	2011.28
427.794	2091.15
428.001	2238.6
428.209	2248.84
428.417	2173.07
428.624	2420.87
428.832	2349.19
429.039	2392.2
429.247	2371.72
429.454	2672.77
429.662	2713.73
429.869	2519.17
430.076	2762.88
430.284	2619.52
430.491	2744.45
430.699	2998.4
430.906	2959.49
431.114	3016.83
431.321	3074.17
431.528	3197.05
431.736	3303.54
431.943	3512.44
432.15	3377.27
432.358	3383.42
432.565	3618.93
432.772	3758.19
432.979	3874.93
433.187	3850.35
433.394	3903.6
433.601	4018.29
433.808	4116.59
434.016	4135.02
434.223	4307.05
434.43	4411.5
434.637	4393.06
434.844	4882.53
435.052	4884.58
435.259	4958.3
435.466	5089.37
435.673	4771.94
435.88	5099.61
436.087	5314.65
436.294	5433.43
436.501	5339.23
436.708	5230.68
436.915	5675.09
437.122	5879.89
437.329	5937.23
437.537	5883.98
437.743	6150.22
437.95	6156.36
438.157	6277.19
438.364	6510.66
438.571	6514.76
438.778	6617.16
438.985	7131.2
439.192	6957.12
439.399	7080
439.606	7014.46
439.813	7469.11
440.02	8054.83
440.227	7587.89
440.433	7624.76
440.64	7956.53
440.847	7774.26
441.054	8120.37
441.261	8581.16
441.467	8499.24
441.674	8810.53
441.881	8898.59
442.088	8941.6
442.294	8783.91
442.501	8980.51
442.708	9492.51
442.914	9631.77
443.121	10063.89
443.328	9832.47
443.534	10606.6
443.741	10096.66
443.948	10160.14
444.154	10934.28
444.361	10868.74
444.568	10897.41
444.774	10944.52
444.981	11038.72
445.187	11464.7
445.394	11900.92
445.6	11798.52
445.807	12877.8
446.013	12378.09
446.22	12609.51
446.426	12851.17
446.633	13035.49
446.839	13649.88
447.046	13144.03
447.252	13838.3
447.459	14135.25
447.665	13594.59
447.871	14305.23
448.078	14897.1
448.284	14368.72
448.491	14696.39
448.697	15361.98
448.903	15402.94
449.11	15681.47
449.316	15523.77
449.522	15439.81
449.728	16150.45
449.935	16318.39
450.141	16175.03
450.347	16654.25
450.553	16003
450.76	16263.09
450.966	16936.87
451.172	16611.25
451.378	17061.8
451.584	16736.17
451.791	17053.61
451.997	17436.58
452.203	17538.98
452.409	17479.58
452.615	17299.36
452.821	16734.12
453.027	16449.46
453.233	17618.85
453.44	16881.58
453.646	16930.73
453.852	17340.32
454.058	17282.98
454.264	16854.95
454.47	17065.89
454.676	17106.85
454.882	17362.85
455.088	16033.72
455.294	16277.43
455.5	16498.61
455.705	16697.26
455.911	15976.37
456.117	15634.36
456.323	15476.67
456.529	14690.25
456.735	15398.85
456.941	14753.74
457.147	14464.97
457.352	14118.87
457.558	14174.16
457.764	14092.24
457.97	13739.99
458.176	13590.49
458.381	13613.02
458.587	12847.08
458.793	12990.44
458.999	12224.5
459.204	13217.76
459.41	12685.29
459.616	11796.47
459.821	11737.08
460.027	11935.73
460.233	11558.91
460.438	10891.27
460.644	11214.85
460.85	10565.64
461.055	10428.43
461.261	10326.03
461.466	9717.78
461.672	9408.54
461.878	10151.95
462.083	9519.13
462.289	9277.47
462.494	9082.91
462.7	8857.64
462.905	8558.63
463.111	8826.92
463.316	8751.14
463.522	8714.28
463.727	8826.92
463.932	8685.61
464.138	8575.02
464.343	8673.32
464.549	8247.34
464.754	8538.15
464.959	8560.68
465.165	8470.57
465.37	8190
465.575	7870.51
465.781	8249.39
465.986	8114.22
466.191	7915.57
466.397	7735.35
466.602	7483.45
466.807	7663.67
467.012	7768.12
467.218	7665.72
467.423	7669.81
467.628	7723.06
467.833	8013.87
468.038	7684.15
468.244	7409.72
468.449	7630.9
468.654	7483.45
468.859	7370.81
469.064	7553.08
469.269	7327.8
469.474	7385.15
469.679	7342.14
469.885	7051.33
470.09	7180.35
470.295	7333.95
470.5	7051.33
470.705	7014.46
470.91	6793.28
471.115	6821.95
471.32	7002.18
471.525	6758.47
471.73	6697.03
471.935	6828.1
472.139	6369.35
472.344	6522.95
472.549	6457.42
472.754	6291.53
472.959	6334.54
473.164	6154.32
473.369	6205.52
473.574	6320.2
473.778	6215.76
473.983	6125.65
474.188	6148.17
474.393	6078.54
474.598	6008.91
474.802	5814.35
475.007	5718.1
475.212	5726.29
475.417	5601.37
475.621	5607.51
475.826	5623.89
476.031	5660.76
476.235	5445.72
476.44	5515.35
476.645	5494.87
476.849	5498.97
477.054	5482.58
477.259	5388.38
477.463	5230.68
477.668	5144.67
477.872	5296.22
478.077	5062.75
478.282	4927.58
478.486	5099.61
478.691	4876.38
478.895	4970.59
479.1	4978.78
479.304	4870.24
479.509	4737.12
479.713	4747.36
479.918	4724.83
480.122	4749.41
480.326	4690.02
480.531	4722.79
480.735	4778.08
480.94	4589.67
481.144	4853.86
481.348	4618.34
481.553	4647.01
481.757	4628.58
481.961	4655.2
482.166	4597.86
482.37	4515.94
482.574	4485.22
482.778	4470.89
482.983	4661.35
483.187	4661.35
483.391	4589.67
483.595	4567.14
483.8	4528.23
484.004	4452.45
484.208	4481.13
484.412	4450.41
484.616	4491.37
484.821	4597.86
485.025	4458.6
485.229	4608.1
485.433	4388.97
485.637	4556.9
485.841	4417.64
486.045	4630.63
486.249	4474.98
486.453	4458.6
486.657	4520.04
486.861	4501.61
487.065	4421.74
487.269	4495.46
487.473	4444.26
487.677	4530.28
487.881	4634.72
488.085	4530.28
488.289	4620.39
488.493	4507.75
488.697	4694.12
488.901	4477.03
489.105	4655.2
489.309	4708.45
489.512	4698.21
489.716	4642.92
489.92	4534.37
490.124	4655.2
490.328	4694.12
490.531	4563.05
490.735	4679.78
490.939	4728.93
491.143	4522.09
491.346	4706.4
491.55	4655.2
491.754	4782.18
491.958	4812.9
492.161	4751.46
492.365	4825.19
492.569	4790.37
492.772	4761.7
492.976	4923.49
493.18	4888.67
493.383	4993.12
493.587	5050.46
493.79	5232.73
493.994	4892.77
494.197	4833.38
494.401	4954.21
494.605	5118.04
494.808	5230.68
495.012	5242.97
495.215	5320.79
495.419	5285.98
495.622	5253.21
495.825	5365.85
496.029	5347.42
496.232	5386.33
496.436	5498.97
496.639	5472.34
496.843	5564.5
497.046	5689.43
497.249	5877.84
497.453	5584.98
497.656	5843.03
497.859	5828.69
498.063	5945.42
498.266	5990.48
498.469	6113.36
498.673	6086.73
498.876	6213.71
499.079	6309.96
499.282	6170.7
499.485	6543.43
499.689	6316.11
499.892	6588.49
500.095	6514.76
500.298	6656.07
500.501	6488.14
500.705	6793.28
500.908	7018.56
501.111	7108.67
501.314	7096.38
501.517	7184.45
501.72	7221.31
501.923	7231.55
502.126	7565.37
502.329	7604.28
502.532	7585.85
502.735	7723.06
502.938	7852.08
503.141	7721.01
503.344	7915.57
503.547	7882.8
503.75	8054.83
503.953	8366.12
504.156	8224.81
504.359	8421.42
504.562	8450.09
504.765	8548.39
504.968	8656.93
505.17	8867.88
505.373	9009.19
505.576	8886.31
505.779	9082.91
505.982	9107.49
506.185	9433.11
506.387	9476.12
506.59	9521.18
506.793	9742.36
506.996	9721.88
507.198	10043.41
507.401	9918.48
507.604	10051.6
507.807	10207.25
508.009	10420.24
508.212	10383.37
508.415	10491.91
508.617	10688.52
508.82	10725.38
509.022	10901.51
509.225	11130.88
509.428	11194.37
509.63	11307.01
509.833	11235.33
510.035	11581.43
510.238	11651.06
510.44	11696.12
510.643	12003.32
510.845	11798.52
511.048	11937.78
511.25	12265.46
511.453	12374
511.655	12732.39
511.858	12705.77
512.06	12818.41
512.262	12945.38
512.465	13195.23
512.667	13418.46
512.87	13285.34
513.072	13414.37
513.274	13770.71
513.477	13959.13
513.679	14084.05
513.881	14120.92
514.084	14135.25
514.286	14397.39
514.488	14278.61
514.69	14956.49
514.893	14782.41
515.095	14931.91
515.297	15112.13
515.499	15337.41
515.701	15302.59
515.904	15554.49
516.106	15720.38
516.308	15847.35
516.51	16379.82
516.712	16158.64
516.914	16222.13
517.116	16715.69
517.318	16893.86
517.52	16910.25
517.722	16979.88
517.925	17166.24
518.127	17297.31
518.329	17371.04
518.531	17502.11
518.733	17856.41
518.935	18046.87
519.136	17930.14
519.338	18382.74
519.54	18450.32
519.742	18397.07
519.944	18556.82
520.146	19038.09
520.348	19314.56
520.55	19158.92
520.752	19244.93
520.954	19785.6
521.155	19808.12
521.357	19578.75
521.559	20078.46
521.761	20256.63
521.963	20103.03
522.164	20215.67
522.366	20467.57
522.568	20604.78
522.77	20891.5
522.971	21016.43
523.173	20973.42
523.375	21006.19
523.576	21452.64
523.778	21407.59
523.98	21714.78
524.181	21837.66
524.383	21890.91
524.584	21872.48
524.786	21901.15
524.988	22280.02
525.189	22546.26
525.391	22464.34
525.592	22615.89
525.794	22761.3
525.995	22556.5
526.197	22746.96
526.398	22824.78
526.6	23230.28
526.801	23109.45
527.003	23349.06
527.204	23127.88
527.406	23525.19
527.607	23666.5
527.808	23682.88
528.01	23322.44
528.211	23457.6
528.412	23910.21
528.614	24123.19
528.815	24045.37
529.016	24289.08
529.218	24149.82
529.419	24256.31
529.62	24043.32
529.822	24268.6
530.023	24051.52
530.224	24469.3
530.425	24305.46
530.626	24301.37
530.828	24076.09
531.029	24700.72
531.23	24551.22
531.431	24301.37
531.632	24504.12
531.833	24833.84
532.035	24536.88
532.236	24704.82
532.437	24813.36
532.638	24674.1
532.839	24950.57
533.04	24606.52
533.241	24592.18
533.442	25390.89
533.643	24864.56
533.844	25327.4
534.045	25061.16
534.246	24856.37
534.447	25063.21
534.648	24878.9
534.849	25044.78
535.05	25003.82
535.251	25138.99
535.451	24833.84
535.652	24837.94
535.853	24905.52
536.054	25349.93
536.255	25087.79
536.456	24842.03
536.657	25476.9
536.857	25077.55
537.058	25212.71
537.259	25112.36
537.46	25362.22
537.66	25116.46
537.861	25304.87
538.062	24975.15
538.263	24950.57
538.463	25263.91
538.664	24936.24
538.865	25286.44
539.065	25194.28
539.266	24958.77
539.466	25349.93
539.667	24753.97
539.868	25351.98
540.068	25007.92
540.269	25259.82
540.469	25181.99
540.67	25192.23
540.87	25190.19
541.071	25155.37
541.271	25308.97
541.472	24756.02
541.672	25300.78
541.873	24950.57
542.073	24856.37
542.274	25276.2
542.474	25138.99
542.675	25192.23
542.875	25321.26
543.075	25014.06
543.276	24672.05
543.476	25173.8
543.676	25227.05
543.877	24885.04
544.077	25046.83
544.277	24882.99
544.478	24934.19
544.678	25106.22
544.878	24704.82
545.078	25222.95
545.279	24973.1
545.479	25012.01
545.679	24979.25
545.879	24813.36
546.079	24813.36
546.28	25110.32
546.48	24581.94
546.68	25120.56
546.88	24743.73
547.08	25192.23
547.28	24954.67
547.48	24653.62
547.68	24876.85
547.88	24799.02
548.081	25038.64
548.281	24858.42
548.481	25003.82
548.681	24995.63
548.881	24753.97
549.081	25036.59
549.28	24788.78
549.48	25014.06
549.68	24899.37
549.88	25268.01
550.08	24956.72
550.28	25081.64
550.48	24508.21
550.68	24862.51
550.88	24760.11
551.08	24833.84
551.279	24876.85
551.479	24549.17
551.679	25042.73
551.879	24500.02
552.079	24940.33
552.278	24629.04
552.478	24770.35
552.678	24934.19
552.878	24885.04
553.077	24633.14
553.277	24508.21
553.477	25024.3
553.676	24416.05
553.876	24659.76
554.076	24803.12
554.275	24383.29
554.475	24579.89
554.674	24715.06
554.874	24454.97
555.074	24622.9
555.273	24368.95
555.473	24487.73
555.672	24051.52
555.872	24583.99
556.071	24553.27
556.271	24391.48
556.47	24274.74
556.67	24274.74
556.869	24342.33
557.068	24422.2
557.268	24151.87
557.467	24440.63
557.667	24069.95
557.866	24256.31
558.065	24250.17
558.265	23969.6
558.464	23920.45
558.663	24438.58
558.863	23838.53
559.062	24362.81
559.261	23981.88
559.461	23985.98
559.66	23848.77
559.859	24090.43
560.058	23787.33
560.258	23828.29
560.457	23947.07
560.656	23813.95
560.855	24049.47
561.054	23711.55
561.253	23433.03
561.453	23998.27
561.652	23525.19
561.851	24018.75
562.05	23498.56
562.249	23648.07
562.448	23633.73
562.647	23537.48
562.846	23451.46
563.045	23658.31
563.244	23062.35
563.443	23717.7
563.642	23164.75
563.841	23265.1
564.04	23127.88
564.239	23451.46
564.438	22814.54
564.637	23299.91
564.836	23041.87
565.035	22691.66
565.234	23359.3
565.432	22869.84
565.631	22767.44
565.83	22959.95
566.029	22765.39
566.228	22609.75
566.427	22769.49
566.625	22622.03
566.824	22357.85
567.023	22689.62
567.222	22036.31
567.42	22570.83
567.619	22443.86
567.818	22251.35
568.016	22374.23
568.215	22599.51
568.414	22105.95
568.612	22325.08
568.811	22005.59
569.01	22255.45
569.208	22046.55
569.407	21942.11
569.605	22136.66
569.804	21923.68
570.002	21706.59
570.201	21960.54
570.4	21614.43
570.598	21641.06
570.797	21587.81
570.995	21559.14
571.193	21106.54
571.392	21399.4
571.59	21477.22
571.789	21350.24
571.987	21368.68
572.186	21215.08
572.384	20989.8
572.582	21290.85
572.781	21186.41
572.979	21217.13
573.177	21081.96
573.376	21380.96
573.574	20846.44
573.772	20993.9
573.971	20754.29
574.169	20887.4
574.367	20506.48
574.565	20819.82
574.763	20432.75
574.962	20395.89
575.16	19965.82
575.358	20514.67
575.556	20340.6
575.754	20307.83
575.952	19740.54
576.151	20354.93
576.349	20051.83
576.547	20088.7
576.745	20125.56
576.943	20197.24
577.141	19765.12
577.339	20227.96
577.537	19861.37
577.735	19830.65
577.933	19711.87
578.131	19838.84
578.329	19775.36
578.527	19488.64
578.725	19722.11
578.923	19609.47
579.121	19232.65
579.319	19392.39
579.516	19517.31
579.714	19337.09
579.912	19179.4
580.11	19216.26
580.308	18933.64
580.506	19109.77
580.704	18630.54
580.901	19120.01
581.099	18898.83
581.297	18687.89
581.495	18939.79
581.692	19058.57
581.89	18552.72
582.088	18802.57
582.285	18485.14
582.483	18757.52
582.681	18483.09
582.878	18626.45
583.076	18241.43
583.274	18272.15
583.471	18145.17
583.669	18274.2
583.866	18364.31
584.064	18161.56
584.262	18024.34
584.459	18364.31
584.657	17969.05
584.854	18266
585.052	17842.07
585.249	17874.84
585.447	17942.42
585.644	17575.84
585.841	17600.41
586.039	17754.01
586.236	17684.38
586.434	17510.3
586.631	17498.02
586.828	17412
587.026	17414.05
587.223	17403.81
587.42	17368.99
587.618	17368.99
587.815	17029.03
588.012	17192.87
588.21	17160.1
588.407	17110.95
588.604	16910.25
588.801	16920.49
588.999	17004.46
589.196	16900.01
589.393	16730.03
589.59	16959.4
589.787	16795.56
589.984	16603.05
590.182	16641.96
590.379	16693.16
590.576	16641.96
590.773	16363.44
590.97	16414.64
591.167	16541.61
591.364	16207.8
591.561	16453.55
591.758	16312.24
591.955	15988.66
592.152	16306.1
592.349	15964.09
592.546	16043.96
592.743	16193.46
592.94	15660.99
593.137	15968.18
593.334	16052.15
593.531	15615.93
593.727	15908.79
593.924	15726.52
594.121	15720.38
594.318	15734.71
594.515	15454.14
594.712	15740.86
594.908	15753.15
595.105	15673.28
595.302	15392.7
595.499	15536.06
595.696	15458.24
595.892	15337.41
596.089	15321.02
596.286	15484.86
596.482	15181.76
596.679	15011.78
596.876	15173.57
597.072	14925.77
597.269	14929.86
597.466	14956.49
597.662	14854.09
597.859	14997.45
598.055	14757.83
598.252	14890.95
598.448	14768.07
598.645	14489.55
598.841	14602.19
599.038	14606.28
599.234	14686.15
599.431	14577.61
599.627	14532.56
599.824	14397.39
600.02	14651.34
600.217	14499.79
600.413	14213.07
600.609	14317.52
600.806	14170.07
601.002	14333.9
601.198	14047.19
601.395	14168.02
601.591	14122.96
601.787	13826.01
601.984	13744.09
602.18	14030.8
602.376	13944.79
602.572	13791.19
602.769	13789.14
602.965	13793.24
603.161	13830.1
603.357	13418.46
603.553	13512.67
603.75	13578.2
603.946	13537.24
604.142	13719.51
604.338	13281.25
604.534	13410.27
604.73	13244.38
604.926	13457.37
605.122	13318.11
605.318	13367.26
605.514	13240.29
605.71	13078.5
605.906	13154.27
606.102	13101.03
606.298	13023.2
606.494	13125.6
606.69	13088.74
606.886	13152.23
607.082	12875.75
607.278	12931.05
607.474	12781.54
607.67	13033.44
607.866	12634.09
608.062	12867.56
608.257	12767.21
608.453	12728.3
608.649	12716.01
608.845	12793.83
609.041	12736.49
609.236	12541.93
609.432	12466.16
609.628	12435.44
609.824	12470.25
610.019	12441.58
610.215	12394.48
610.411	12388.33
610.606	12232.69
610.802	12294.13
610.998	12244.98
611.193	12107.76
611.389	12304.37
611.584	12195.82
611.78	12322.8
611.976	12179.44
612.171	12175.34
612.367	12292.08
612.562	12111.86
612.758	12099.57
612.953	11935.73
613.149	12040.18
613.344	11829.24
613.539	12193.78
613.735	12056.56
613.93	11859.96
614.126	11898.87
614.321	11917.3
614.517	11667.45
614.712	11749.37
614.907	11835.38
615.103	11634.68
615.298	11556.86
615.493	11919.35
615.688	11571.19
615.884	11706.36
616.079	11315.2
616.274	11675.64
616.47	11675.64
616.665	11503.61
616.86	11399.16
617.055	11417.6
617.25	11407.36
617.445	11409.4
617.641	11005.95
617.836	11589.63
618.031	11313.15
618.226	11519.99
618.421	11134.98
618.616	11470.84
618.811	11137.02
619.006	11151.36
619.201	11083.78
619.396	11237.38
619.591	10967.04
619.786	10981.38
619.981	10876.93
620.176	11155.46
620.371	10709
620.566	10823.69
620.761	10811.4
620.956	10768.39
621.151	10661.9
621.346	10717.19
621.541	10420.24
621.735	10506.25
621.93	10299.41
622.125	10387.47
622.32	10135.57
622.515	10217.49
622.709	10086.42
622.904	10176.53
623.099	10016.79
623.294	10061.84
623.488	9850.9
623.683	9986.07
623.878	9930.77
624.072	10074.13
624.267	9961.49
624.462	9746.45
624.656	9691.16
624.851	9564.18
625.046	9474.07
625.24	9361.44
625.435	9652.25
625.629	9187.36
625.824	9414.68
626.018	9320.48
626.213	9093.15
626.407	9273.37
626.602	9146.4
626.796	9054.24
626.991	9213.98
627.185	9123.87
627.38	9111.58
627.574	9103.39
627.768	8816.68
627.963	8921.12
628.157	8812.58
628.352	8970.27
628.546	8763.43
628.74	8648.74
628.935	8667.17
629.129	8613.93
629.323	8476.71
629.517	8503.34
629.712	8450.09
629.906	8325.16
630.1	8405.03
630.294	8325.16
630.489	8382.51
630.683	8222.77
630.877	8190
631.071	8020.02
631.265	8228.91
631.459	7989.3
631.653	8220.72
631.848	7823.41
632.042	7938.1
632.236	7985.2
632.43	7841.84
632.624	7929.91
632.818	7751.73
633.012	7604.28
633.206	7796.79
633.4	7792.69
633.594	7655.48
633.788	7596.09
633.982	7667.77
634.176	7512.12
634.369	7452.73
634.563	7354.43
634.757	7374.91
634.951	7309.37
635.145	7350.33
635.339	7575.61
635.533	7211.07
635.726	7301.18
635.92	7120.96
636.114	7213.12
636.308	7202.88
636.501	7288.89
636.695	6989.89
636.889	6856.77
637.083	6824
637.276	7047.23
637.47	6830.15
637.664	6674.5
637.857	6817.86
638.051	6742.08
638.244	6649.93
638.438	6707.27
638.632	6721.6
638.825	6441.03
639.019	6432.84
639.212	6533.19
639.406	6473.8
639.599	6481.99
639.793	6527.05
639.986	6426.7
640.18	6287.43
640.373	6377.55
640.567	6252.62
640.76	6346.83
640.954	6244.43
641.147	6350.92
641.34	6125.65
641.534	6219.85
641.727	6238.28
641.92	6088.78
642.114	6125.65
642.307	5990.48
642.5	6107.21
642.694	5750.87
642.887	5826.64
643.08	5892.18
643.273	5800.02
643.467	5759.06
643.66	5750.87
643.853	5759.06
644.046	5648.47
644.239	5769.3
644.432	5511.25
644.626	5566.55
644.819	5544.02
645.012	5541.97
645.205	5554.26
645.398	5468.25
645.591	5371.99
645.784	5496.92
645.977	5335.13
646.17	5455.96
646.363	5191.77
646.556	5042.27
646.749	5159
646.942	5066.85
647.135	5064.8
647.328	5113.95
647.521	5183.58
647.714	5148.76
647.907	5118.04
648.099	5058.65
648.292	5044.32
648.485	5003.36
648.678	4919.39
648.871	4903.01
649.064	4802.66
649.256	4960.35
649.449	4864.1
649.642	4751.46
649.835	4667.49
650.027	4798.56
650.22	4681.83
650.413	4638.82
650.605	4661.35
650.798	4679.78
650.991	4683.88
651.183	4606.05
651.376	4577.38
651.568	4622.44
651.761	4409.45
651.954	4571.24
652.146	4483.17
652.339	4345.96
652.531	4477.03
652.724	4255.85
652.916	4395.11
653.109	4305
653.301	4257.9
653.494	4370.54
653.686	4266.09
653.879	4145.26
654.071	4218.99
654.263	4259.95
654.456	4196.46
654.648	4159.6
654.84	4257.9
655.033	4046.96
655.225	4167.79
655.417	4106.35
655.61	4196.46
655.802	4038.77
655.994	3969.13
656.186	3926.13
656.379	4040.81
656.571	3924.08
656.763	3997.81
656.955	3938.41
657.148	3944.56
657.34	3946.61
657.532	3829.87
657.724	3836.02
657.916	3917.93
658.108	3799.15
658.3	3688.56
658.492	3631.22
658.684	3594.36
658.876	3686.51
659.068	3760.24
659.26	3670.13
659.452	3606.64
659.644	3618.93
659.836	3623.03
660.028	3610.74
660.22	3496.05
660.412	3524.72
660.604	3502.2
660.796	3455.09
660.988	3557.49
661.18	3483.77
661.372	3403.89
661.563	3407.99
661.755	3297.4
661.947	3188.86
662.139	3455.09
662.331	3276.92
662.522	3258.49
662.714	3213.43
662.906	3270.78
663.097	3338.36
663.289	3197.05
663.481	3192.95
663.673	3192.95
663.864	3049.6
664.056	3145.85
664.247	3090.56
664.439	3008.64
664.631	3102.84
664.822	3172.47
665.014	3111.04
665.205	2963.58
665.397	3039.36
665.588	3092.6
665.78	3016.83
665.971	3037.31
666.163	2859.14
666.354	2977.92
666.546	2852.99
666.737	2939.01
666.929	2920.57
667.12	2852.99
667.311	2816.13
667.503	2822.27
667.694	2750.59
667.885	2754.69
668.077	2685.06
668.268	2816.13
668.459	2732.16
668.651	2711.68
668.842	2611.33
669.033	2699.39
669.224	2742.4
669.416	2750.59
669.607	2637.95
669.798	2549.89
669.989	2683.01
670.18	2652.29
670.371	2670.72
670.563	2654.34
670.754	2635.91
670.945	2846.85
671.136	2586.76
671.327	2609.28
671.518	2611.33
671.709	2551.94
671.9	2564.23
672.091	2576.52
672.282	2553.99
672.473	2621.57
672.664	2424.97
672.855	2500.74
673.046	2521.22
673.237	2678.91
673.428	2500.74
673.619	2445.45
673.809	2549.89
674	2537.6
674.191	2433.16
674.382	2396.29
674.573	2357.38
674.764	2361.48
674.954	2435.21
675.145	2293.9
675.336	2369.67
675.527	2381.96
675.717	2427.01
675.908	2265.22
676.099	2334.86
676.289	2412.68
676.48	2371.72
676.671	2322.57
676.861	2353.29
677.052	2435.21
677.243	2308.23
677.433	2263.18
677.624	2197.64
677.814	2392.2
678.005	2273.42
678.195	2285.7
678.386	2220.17
678.576	2271.37
678.767	2402.44
678.957	2283.66
679.148	2312.33
679.338	2324.62
679.529	2248.84
679.719	2302.09
679.909	2355.33
680.1	2328.71
680.29	2230.41
680.481	2119.82
680.671	2211.98
680.861	2158.73
681.052	2226.31
681.242	2240.65
681.432	2263.18
681.622	2238.6
681.813	2242.7
682.003	2222.22
682.193	2082.95
682.383	2265.22
682.573	2181.26
682.764	2173.07
682.954	2236.55
683.144	2166.92
683.334	2095.24
683.524	2238.6
683.714	2228.36
683.904	2250.89
684.094	2150.54
684.284	2128.01
684.474	2117.77
684.664	2214.02
684.854	2136.2
685.044	2023.56
685.234	2070.67
685.424	2113.67
685.614	2183.31
685.804	2189.45
685.994	2062.48
686.184	1998.99
686.374	2252.94
686.564	2064.52
686.753	2064.52
686.943	2042
687.133	2007.18
687.323	2121.87
687.513	2105.48
687.702	2015.37
687.892	2162.83
688.082	2005.13
688.272	2074.76
688.461	2074.76
688.651	2173.07
688.841	2017.42
689.03	2033.8
689.22	2035.85
689.41	2115.72
689.599	2074.76
689.789	2078.86
689.979	1953.93
690.168	2089.1
690.358	2072.72
690.547	1945.74
690.737	1904.78
690.926	2027.66
691.116	2005.13
691.305	2001.04
691.495	2001.04
691.684	2033.8
691.874	2046.09
692.063	1998.99
692.252	1935.5
692.442	1986.7
692.631	1951.88
692.82	1968.27
693.01	1880.21
693.199	1947.79
693.388	1888.4
693.578	1898.64
693.767	1984.65
693.956	1890.45
694.146	2011.28
694.335	1939.6
694.524	1953.93
694.713	1910.93
694.902	1872.01
695.092	1984.65
695.281	1984.65
695.47	1796.24
695.659	1790.1
695.848	1822.86
696.037	1861.77
696.226	1929.36
696.415	1878.16
696.604	1769.62
696.793	1863.82
696.982	1786
697.171	1839.25
697.36	1816.72
697.549	1812.62
697.738	1880.21
697.927	1802.38
698.116	1904.78
698.305	1927.31
698.494	1810.58
698.683	1775.76
698.872	1861.77
699.061	1767.57
699.25	1804.43
699.438	1798.29
699.627	1886.35
699.816	1788.05
700.005	1767.57
700.193	1786
700.382	1769.62
700.571	1843.34
700.76	1788.05
700.948	1863.82
701.137	1777.81
701.326	1761.42
701.514	1833.1
701.703	1824.91
701.892	1763.47
702.08	1826.96
702.269	1814.67
702.457	1757.33
702.646	1763.47
702.834	1878.16
703.023	1775.76
703.212	1742.99
703.4	1681.55
703.589	1724.56
703.777	1796.24
703.965	1706.13
704.154	1689.74
704.342	1765.52
704.531	1845.39
704.719	1673.36
704.907	1650.83
705.096	1761.42
705.284	1689.74
705.472	1697.94
705.661	1728.66
705.849	1652.88
706.037	1679.51
706.226	1683.6
706.414	1742.99
706.602	1673.36
706.79	1691.79
706.979	1624.21
707.167	1650.83
707.355	1517.72
707.543	1755.28
707.731	1693.84
707.919	1665.17
708.107	1681.55
708.296	1632.4
708.484	1648.79
708.672	1665.17
708.86	1626.26
709.048	1595.54
709.236	1640.59
709.424	1728.66
709.612	1693.84
709.8	1634.45
709.988	1589.39
710.176	1624.21
710.364	1683.6
710.551	1587.35
710.739	1587.35
710.927	1632.4
711.115	1513.62
711.303	1517.72
711.491	1601.68
711.679	1523.86
711.866	1579.15
712.054	1570.96
712.242	1530
712.43	1566.87
712.617	1593.49
712.805	1532.05
712.993	1517.72
713.181	1450.13
713.368	1487
713.556	1656.98
713.744	1474.71
713.931	1497.24
714.119	1521.81
714.306	1427.6
714.494	1511.57
714.682	1536.15
714.869	1534.1
715.057	1546.39
715.244	1507.48
715.432	1429.65
715.619	1519.76
715.807	1370.26
715.994	1503.38
716.182	1644.69
716.369	1507.48
716.556	1433.75
716.744	1487
716.931	1419.41
717.119	1546.39
717.306	1396.89
717.493	1472.66
717.681	1439.89
717.868	1482.9
718.055	1443.99
718.242	1304.73
718.43	1478.8
718.617	1466.52
718.804	1216.66
718.991	1507.48
719.179	1570.96
719.366	1489.04
719.553	1476.76
719.74	1470.61
719.927	1505.43
720.114	1396.89
720.301	1448.08
720.488	1388.69
720.676	1411.22
720.863	1509.52
721.05	1489.04
721.237	1433.75
721.424	1394.84
721.611	1439.89
721.798	1312.92
721.985	1251.48
722.172	1349.78
722.358	1394.84
722.545	1327.25
722.732	1405.08
722.919	1374.36
723.106	1437.84
723.293	1362.07
723.48	1458.32
723.667	1409.17
723.853	1357.97
724.04	1378.45
724.227	1333.4
724.414	1413.27
724.6	1411.22
724.787	1327.25
724.974	1386.65
725.161	1415.32
725.347	1364.12
725.534	1376.41
725.72	1290.39
725.907	1368.21
726.094	1325.21
726.28	1335.45
726.467	1306.77
726.653	1327.25
726.84	1353.88
727.027	1368.21
727.213	1271.96
727.4	1280.15
727.586	1372.31
727.773	1276.06
727.959	1300.63
728.145	1276.06
728.332	1298.58
728.518	1282.2
728.705	1323.16
728.891	1304.73
729.077	1249.43
729.264	1249.43
729.45	1333.4
729.636	1317.01
729.823	1228.95
730.009	1319.06
730.195	1265.82
730.382	1323.16
730.568	1247.38
730.754	1345.69
730.94	1431.7
731.126	1323.16
731.313	1306.77
731.499	1261.72
731.685	1278.1
731.871	1222.81
732.057	1214.62
732.243	1261.72
732.429	1304.73
732.615	1173.66
732.801	1304.73
732.987	1263.77
733.173	1368.21
733.359	1355.93
733.545	1341.59
733.731	1290.39
733.917	1196.18
734.103	1245.34
734.289	1228.95
734.475	1249.43
734.661	1239.19
734.847	1181.85
735.033	1265.82
735.219	1253.53
735.404	1323.16
735.59	1263.77
735.776	1245.34
735.962	1259.67
736.148	1159.32
736.333	1233.05
736.519	1204.38
736.705	1173.66
736.89	1259.67
737.076	1255.58
737.262	1177.75
737.447	1228.95
737.633	1296.53
737.819	1220.76
738.004	1163.42
738.19	1235.1
738.375	1108.12
738.561	1259.67
738.747	1267.86
738.932	1167.51
739.118	1255.58
739.303	1235.1
739.489	1136.79
739.674	1216.66
739.859	1298.58
740.045	1091.74
740.23	1134.75
740.416	1069.21
740.601	1120.41
740.786	1235.1
740.972	1116.31
741.157	1095.83
741.342	1104.03
741.528	1147.03
741.713	1192.09
741.898	1147.03
742.084	1183.9
742.269	1198.23
742.454	1163.42
742.639	1167.51
742.824	1124.51
743.01	1157.27
743.195	1101.98
743.38	1128.6
743.565	1075.35
743.75	1093.79
743.935	1061.02
744.12	1108.12
744.305	1030.3
744.49	1056.92
744.675	1071.26
744.86	1020.06
745.045	1104.03
745.23	1091.74
745.415	1124.51
745.6	1040.54
745.785	1069.21
745.97	970.91
746.155	1054.87
746.34	1099.93
746.525	1020.06
746.71	1005.72
746.895	905.37
747.079	962.72
747.264	1101.98
747.449	1040.54
747.634	1063.07
747.819	1044.63
748.003	1018.01
748.188	1028.25
748.373	1013.92
748.557	921.76
748.742	1075.35
748.927	899.23
749.111	1058.97
749.296	921.76
749.481	995.48
749.665	1020.06
749.85	839.84
750.034	913.56
750.219	880.8
750.404	911.52
750.588	870.56
750.773	981.15
750.957	903.32
751.141	962.72
751.326	950.43
751.51	919.71
751.695	938.14
751.879	848.03
752.064	829.6
752.248	845.98
752.432	940.19
752.617	897.18
752.801	927.9
752.985	794.78
753.17	868.51
753.354	897.18
753.538	811.17
753.722	802.97
753.907	811.17
754.091	802.97
754.275	766.11
754.459	798.88
754.643	833.69
754.828	786.59
755.012	790.69
755.196	852.13
755.38	755.87
755.564	805.02
755.748	796.83
755.932	788.64
756.116	733.34
756.3	823.45
756.484	788.64
756.668	796.83
756.852	714.91
757.036	753.82
757.22	680.1
757.404	632.99
757.588	759.97
757.772	692.38
757.956	714.91
758.14	649.38
758.323	772.25
758.507	780.45
758.691	704.67
758.875	694.43
759.059	651.42
759.242	659.62
759.426	651.42
759.61	731.3
759.794	618.66
759.977	712.86
760.161	706.72
760.345	532.64
760.528	622.75
760.712	639.14
760.895	671.9
761.079	807.07
761.263	592.03
761.446	719.01
761.63	626.85
761.813	608.42
761.997	514.21
762.18	653.47
762.364	579.75
762.547	583.84
762.731	694.43
762.914	618.66
763.098	512.16
763.281	612.51
763.464	589.99
763.648	596.13
763.831	614.56
764.015	585.89
764.198	538.79
764.381	643.23
764.564	602.27
764.748	589.99
764.931	553.12
765.114	608.42
765.297	569.51
765.481	573.6
765.664	534.69
765.847	575.65
766.03	577.7
766.213	542.88
766.397	589.99
766.58	546.98
766.763	520.35
766.946	667.81
767.129	585.89
767.312	538.79
767.495	546.98
767.678	493.73
767.861	540.83
768.044	510.11
768.227	657.57
768.41	471.2
768.593	544.93
768.776	428.2
768.959	563.36
769.142	542.88
769.324	544.93
769.507	520.35
769.69	510.11
769.873	503.97
770.056	559.27
770.239	510.11
770.421	542.88
770.604	512.16
770.787	479.4
770.97	477.35
771.152	465.06
771.335	528.55
771.518	460.96
771.7	477.35
771.883	448.68
772.066	479.4
772.248	424.1
772.431	463.01
772.613	381.09
772.796	491.68
772.978	469.16
773.161	510.11
773.343	471.2
773.526	405.67
773.708	506.02
773.891	428.2
774.073	489.64
774.256	395.43
774.438	481.44
774.621	510.11
774.803	524.45
774.985	342.18
775.168	403.62
775.35	454.82
775.532	493.73
775.715	407.72
775.897	417.96
776.079	456.87
776.261	389.28
776.444	411.81
776.626	354.47
776.808	329.89
776.99	493.73
777.173	379.04
777.355	440.48
777.537	397.48
777.719	317.61
777.901	313.51
778.083	415.91
778.265	333.99
778.447	358.57
778.629	305.32
778.811	348.33
778.993	307.37
779.175	368.81
779.357	301.22
779.539	327.85
779.721	368.81
779.903	366.76
780.085	333.99
780.267	344.23
780.449	405.67
780.631	309.41
780.812	297.13
780.994	377
781.176	393.38
781.358	299.17
781.54	348.33
781.721	305.32
781.903	360.61
782.085	356.52
782.267	331.94
782.448	348.33
782.63	364.71
782.812	358.57
782.993	290.98
783.175	381.09
783.357	266.41
783.538	297.13
783.72	266.41
783.901	254.12
784.083	327.85
784.264	305.32
784.446	231.59
784.627	223.4
784.809	303.27
784.99	219.3
785.172	270.5
785.353	266.41
785.535	309.41
785.716	278.69
785.897	211.11
786.079	274.6
786.26	239.78
786.441	247.97
786.623	344.23
786.804	190.63
786.985	284.84
787.167	264.36
787.348	221.35
787.529	170.15
787.71	301.22
787.891	209.06
788.073	266.41
788.254	276.65
788.435	215.21
788.616	192.68
788.797	188.58
788.978	264.36
789.159	262.31
789.34	305.32
789.522	290.98
789.703	231.59
789.884	207.02
790.065	151.72
790.246	270.5
790.427	233.64
790.607	301.22
790.788	268.45
790.969	180.39
791.15	225.45
791.331	250.02
791.512	184.49
791.693	141.48
791.874	237.74
792.054	186.54
792.235	200.87
792.416	282.79
792.597	145.58
792.778	188.58
792.958	180.39
793.139	209.06
793.32	293.03
793.5	182.44
793.681	110.76
793.862	164.01
794.042	176.3
794.223	166.06
794.404	215.21
794.584	155.82
794.765	137.38
794.945	200.87
795.126	221.35
795.306	196.78
795.487	311.46
795.667	182.44
795.848	176.3
796.028	155.82
796.209	186.54
796.389	200.87
796.57	121
796.75	127.14
796.93	182.44
797.111	155.82
797.291	209.06
797.471	213.16
797.652	90.28
797.832	174.25
798.012	239.78
798.192	211.11
798.373	174.25
798.553	145.58
798.733	123.05
798.913	145.58
799.093	159.91
799.274	125.1
799.454	112.81
799.634	164.01
799.814	188.58
799.994	110.76
800.174	139.43
800.354	184.49
800.534	166.06
800.714	149.67
800.894	129.19
801.074	116.9
801.254	174.25
801.434	157.86
801.614	108.71
801.794	123.05
801.974	370.85
802.154	151.72
802.334	143.53
802.514	96.43
802.693	164.01
802.873	159.91
803.053	98.47
803.233	176.3
803.413	104.62
803.592	147.62
803.772	149.67
803.952	143.53
804.131	176.3
804.311	141.48
804.491	161.96
804.67	149.67
804.85	86.19
805.03	131.24
805.209	75.95
805.389	137.38
805.568	207.02
805.748	110.76
805.928	127.14
806.107	170.15
806.287	129.19
806.466	157.86
806.646	196.78
806.825	112.81
807.004	180.39
807.184	133.29
807.363	133.29
807.543	102.57
807.722	88.23
807.901	157.86
808.081	131.24
808.26	43.18
808.439	75.95
808.619	125.1
808.798	112.81
808.977	88.23
809.156	75.95
809.336	49.32
809.515	92.33
809.694	112.81
809.873	69.8
810.052	114.86
810.231	153.77
810.411	98.47
810.59	121
810.769	86.19
810.948	200.87
811.127	147.62
811.306	65.71
811.485	88.23
811.664	51.37
811.843	141.48
812.022	73.9
812.201	49.32
812.38	75.95
812.559	121
812.737	145.58
812.916	170.15
813.095	108.71
813.274	100.52
813.453	110.76
813.632	131.24
813.811	32.94
813.989	100.52
814.168	96.43
814.347	71.85
814.526	88.23
814.704	47.27
814.883	92.33
815.062	108.71
815.24	157.86
815.419	47.27
815.598	125.1
815.776	67.75
815.955	139.43
816.133	71.85
816.312	143.53
816.49	77.99
816.669	106.67
816.847	71.85
817.026	88.23
817.204	59.56
817.383	100.52
817.561	51.37
817.74	20.65
817.918	86.19
818.097	55.47
818.275	65.71
818.453	45.23
818.632	100.52
818.81	39.08
818.988	53.42
819.167	92.33
819.345	75.95
819.523	116.9
819.701	51.37
819.879	37.03
820.058	127.14
820.236	51.37
820.414	-12.12
820.592	69.8
820.77	47.27
820.948	125.1
821.127	63.66
821.305	28.84
821.483	98.47
821.661	127.14
821.839	116.9
822.017	61.61
822.195	55.47
822.373	80.04
822.551	-3.93
822.729	55.47
822.907	49.32
823.085	57.51
823.262	49.32
823.44	73.9
823.618	4.27
823.796	86.19
823.974	32.94
824.152	69.8
824.329	51.37
824.507	112.81
824.685	30.89
824.863	24.75
825.04	20.65
825.218	102.57
825.396	16.55
825.574	100.52
825.751	55.47
825.929	43.18
826.107	51.37
826.284	14.51
826.462	75.95
826.639	63.66
826.817	135.34
826.994	102.57
827.172	90.28
827.349	20.65
827.527	112.81
827.704	80.04
827.882	4.27
828.059	143.53
828.237	77.99
828.414	90.28
828.591	20.65
828.769	57.51
828.946	45.23
829.124	39.08
829.301	116.9
829.478	12.46
829.655	57.51
829.833	49.32
830.01	51.37
830.187	86.19
830.364	88.23
830.542	67.75
830.719	80.04
830.896	82.09
831.073	82.09
831.25	55.47
831.427	57.51
831.604	114.86
831.782	28.84
831.959	135.34
832.136	41.13
832.313	86.19
832.49	34.99
832.667	59.56
832.844	92.33
833.021	59.56
833.198	102.57
833.374	116.9
833.551	-18.26
833.728	71.85
833.905	28.84
834.082	71.85
834.259	28.84
834.436	61.61
834.612	22.7
834.789	24.75
834.966	55.47
835.143	34.99
835.319	47.27
835.496	32.94
835.673	57.51
835.85	123.05
836.026	84.14
836.203	-18.26
836.38	73.9
836.556	75.95
836.733	75.95
836.909	135.34
837.086	10.41
837.262	51.37
837.439	69.8
837.616	57.51
837.792	57.51
837.968	63.66
838.145	73.9
838.321	84.14
838.498	16.55
838.674	55.47
838.851	34.99
839.027	57.51
839.203	67.75
839.38	34.99
839.556	26.79
839.732	-3.93
839.909	67.75
840.085	73.9
840.261	18.6
840.437	24.75
840.614	20.65
840.79	51.37
840.966	59.56
841.142	37.03
841.318	20.65
841.494	67.75
841.671	28.84
841.847	0.17
842.023	24.75
842.199	39.08
842.375	90.28
842.551	43.18
842.727	51.37
842.903	28.84
843.079	49.32
843.255	34.99
843.431	-18.26
843.607	30.89
843.783	75.95
843.959	110.76
844.134	10.41
844.31	143.53
844.486	96.43
844.662	84.14
844.838	12.46
845.013	28.84
845.189	2.22
845.365	116.9
845.541	41.13
845.716	30.89
845.892	61.61
846.068	63.66
846.244	-32.6
846.419	94.38
846.595	12.46
846.77	10.41
846.946	39.08
847.122	65.71
847.297	73.9
847.473	28.84
847.648	22.7
847.824	10.41
847.999	10.41
848.175	96.43
848.35	61.61
848.526	34.99
848.701	80.04
848.876	10.41
849.052	2.22
849.227	0.17
849.403	90.28
849.578	10.41
849.753	6.31
849.929	53.42
850.104	82.09
850.279	65.71
850.454	41.13
850.63	24.75
850.805	-51.03
850.98	30.89
851.155	-53.08
851.33	55.47
851.505	6.31
851.681	10.41
851.856	41.13
852.031	26.79
852.206	-5.97
852.381	51.37
852.556	6.31
852.731	39.08
852.906	22.7
853.081	22.7
853.256	43.18
853.431	55.47
853.606	61.61
853.781	-26.45
853.956	-12.12
854.131	30.89
854.305	30.89
854.48	67.75
854.655	55.47
854.83	43.18
855.005	106.67
855.18	45.23
855.354	77.99
855.529	0.17
855.704	22.7
855.879	-3.93
856.053	-12.12
856.228	49.32
856.403	16.55
856.577	92.33
856.752	0.17
856.926	0.17
857.101	-20.31
857.276	20.65
857.45	41.13
857.625	18.6
857.799	59.56
857.974	-3.93
858.148	80.04
858.323	12.46
858.497	-3.93
858.672	80.04
858.846	8.36
859.02	20.65
859.195	-22.36
859.369	61.61
859.543	39.08
859.718	-3.93
859.892	127.14
860.066	2.22
860.241	18.6
860.415	69.8
860.589	51.37
860.763	100.52
860.938	34.99
861.112	43.18
861.286	39.08
861.46	63.66
861.634	-38.74
861.808	133.29
861.982	-30.55
862.157	57.51
862.331	43.18
862.505	-22.36
862.679	-10.07
862.853	28.84
863.027	67.75
863.201	4.27
863.375	18.6
863.549	43.18
863.722	-30.55
863.896	2.22
864.07	-36.69
864.244	41.13
864.418	92.33
864.592	37.03
864.766	0.17
864.939	34.99
865.113	-65.36
865.287	37.03
865.461	28.84
865.634	-12.12
865.808	51.37
865.982	14.51
866.156	73.9
866.329	14.51
866.503	-3.93
866.676	37.03
866.85	55.47
867.024	92.33
867.197	22.7
867.371	-3.93
867.544	47.27
867.718	6.31
867.891	10.41
868.065	34.99
868.238	137.38
868.412	30.89
868.585	47.27
868.759	106.67
868.932	-1.88
869.105	59.56
869.279	-22.36
869.452	65.71
869.625	-18.26
869.799	-3.93
869.972	34.99
870.145	59.56
870.319	16.55
870.492	49.32
870.665	34.99
870.838	47.27
871.011	22.7
871.185	-22.36
871.358	16.55
871.531	12.46
871.704	-26.45
871.877	10.41
872.05	-1.88
872.223	88.23
872.396	84.14
872.569	34.99
872.742	-1.88
872.915	86.19
873.088	20.65
873.261	16.55
873.434	135.34
873.607	32.94
873.78	51.37
873.953	24.75
874.126	2.22
874.299	-48.98
874.471	16.55
874.644	30.89
874.817	-26.45
874.99	37.03
875.163	-32.6
875.335	26.79
875.508	18.6
875.681	4.27
875.853	-32.6
876.026	37.03
876.199	-26.45
876.371	65.71
876.544	-12.12
876.717	37.03
876.889	2.22
877.062	-26.45
877.234	28.84
877.407	2.22
877.579	65.71
877.752	-12.12
877.924	53.42
878.097	-38.74
878.269	8.36
878.442	0.17
878.614	34.99
878.786	18.6
878.959	-61.27
879.131	12.46
879.303	-34.64
879.476	45.23
879.648	-3.93
879.82	37.03
879.993	-8.02
880.165	8.36
880.337	45.23
880.509	32.94
880.681	86.19
880.854	-5.97
881.026	10.41
881.198	51.37
881.37	30.89
881.542	61.61
881.714	12.46
881.886	-53.08
882.058	12.46
882.23	16.55
882.402	-28.5
882.574	43.18
882.746	47.27
882.918	-16.21
883.09	-3.93
883.262	-3.93
883.434	10.41
883.606	-5.97
883.778	43.18
883.95	-8.02
884.122	-36.69
884.293	65.71
884.465	-40.79
884.637	118.95
884.809	30.89
884.98	30.89
885.152	-26.45
885.324	-22.36
885.496	-48.98
885.667	0.17
885.839	2.22
886.011	51.37
886.182	45.23
886.354	10.41
886.525	55.47
886.697	-12.12
886.869	47.27
887.04	51.37
887.212	-3.93
887.383	92.33
887.555	-65.36
887.726	88.23
887.897	106.67
888.069	80.04
888.24	-26.45
888.412	20.65
888.583	49.32
888.754	51.37
888.926	0.17
889.097	55.47
889.268	49.32
889.44	32.94
889.611	-5.97
889.782	57.51
889.953	82.09
890.125	51.37
890.296	51.37
890.467	26.79
890.638	32.94
890.809	18.6
890.98	-36.69
891.151	73.9
891.323	20.65
891.494	-20.31
891.665	10.41
891.836	30.89
892.007	84.14
892.178	37.03
892.349	-1.88
892.52	41.13
892.691	82.09
892.862	-5.97
893.032	-14.17
893.203	-38.74
893.374	53.42
893.545	47.27
893.716	-44.88
893.887	2.22
894.057	43.18
894.228	86.19
894.399	-46.93
894.57	20.65
894.74	53.42
894.911	22.7
895.082	18.6
895.253	32.94
895.423	-5.97
895.594	26.79
895.764	47.27
895.935	2.22
896.106	28.84
896.276	34.99
896.447	-40.79
896.617	14.51
896.788	41.13
896.958	47.27
897.129	16.55
897.299	41.13
897.47	34.99
897.64	-22.36
897.81	-14.17
897.981	-12.12
898.151	10.41
898.322	123.05
898.492	30.89
898.662	10.41
898.832	14.51
899.003	77.99
899.173	4.27
899.343	-10.07
899.513	37.03
