Data from USB4F104151__59__12-59-22-224.txt Node

Date: Fri Mar 14 12:59:22 EDT 2025
User: louis
Spectrometer: USB4F10415
Trigger mode: 4
Integration Time (sec): 1.000000E-2
Scans to average: 1
Electric dark correction enabled: true
Nonlinearity correction enabled: false
Boxcar width: 0
XAxis mode: Wavelengths
Number of Pixels in Spectrum: 3648
>>>>>Begin Spectral Data<<<<<
178.204	-42.5
178.424	-42.5
178.644	-42.5
178.864	-56.83
179.084	31.23
179.304	-19.97
179.524	-22.02
179.744	31.23
179.964	47.62
180.184	4.61
180.404	6.66
180.624	-11.78
180.844	23.04
181.064	-48.64
181.283	-42.5
181.503	-24.06
181.723	55.81
181.943	2.56
182.163	-22.02
182.383	-32.26
182.602	35.33
182.822	0.51
183.042	-46.59
183.262	49.66
183.482	31.23
183.701	-28.16
183.921	43.52
184.141	-24.06
184.361	57.86
184.58	16.9
184.8	-28.16
185.02	76.29
185.239	61.95
185.459	-60.93
185.679	25.09
185.898	-13.82
186.118	31.23
186.338	16.9
186.557	6.66
186.777	-77.31
186.997	-7.68
187.216	-38.4
187.436	33.28
187.655	4.61
187.875	29.18
188.095	53.76
188.314	2.56
188.534	37.38
188.753	51.71
188.973	12.8
189.192	10.75
189.412	12.8
189.631	12.8
189.851	18.94
190.07	10.75
190.29	4.61
190.509	-3.58
190.729	-28.16
190.948	59.9
191.168	92.67
191.387	45.57
191.607	53.76
191.826	20.99
192.045	16.9
192.265	-65.02
192.484	-40.45
192.704	25.09
192.923	-28.16
193.142	53.76
193.362	6.66
193.581	59.9
193.8	0.51
194.02	20.99
194.239	-28.16
194.458	100.86
194.678	16.9
194.897	45.57
195.116	-1.54
195.335	10.75
195.555	25.09
195.774	18.94
195.993	-3.58
196.212	-11.78
196.432	-1.54
196.651	-11.78
196.87	-3.58
197.089	-1.54
197.308	27.14
197.528	27.14
197.747	-11.78
197.966	-3.58
198.185	-30.21
198.404	-5.63
198.623	-19.97
198.842	-32.26
199.062	-19.97
199.281	25.09
199.5	45.57
199.719	-46.59
199.938	35.33
200.157	-24.06
200.376	18.94
200.595	18.94
200.814	39.42
201.033	14.85
201.252	35.33
201.471	4.61
201.69	33.28
201.909	66.05
202.128	25.09
202.347	-19.97
202.566	-32.26
202.785	78.33
203.004	-24.06
203.223	8.7
203.442	59.9
203.661	-11.78
203.879	-1.54
204.098	92.67
204.317	16.9
204.536	29.18
204.755	6.66
204.974	102.91
205.193	57.86
205.411	43.52
205.63	35.33
205.849	68.09
206.068	41.47
206.287	35.33
206.505	-28.16
206.724	-7.68
206.943	-3.58
207.162	121.34
207.381	90.62
207.599	29.18
207.818	-42.5
208.037	2.56
208.255	-1.54
208.474	12.8
208.693	61.95
208.911	10.75
209.13	35.33
209.349	-34.3
209.567	-11.78
209.786	6.66
210.005	-52.74
210.223	-26.11
210.442	6.66
210.661	61.95
210.879	29.18
211.098	35.33
211.316	-3.58
211.535	-22.02
211.753	23.04
211.972	23.04
212.191	-11.78
212.409	25.09
212.628	25.09
212.846	-3.58
213.065	57.86
213.283	39.42
213.502	-22.02
213.72	70.14
213.938	-75.26
214.157	-3.58
214.375	57.86
214.594	-1.54
214.812	-46.59
215.031	0.51
215.249	72.19
215.467	29.18
215.686	23.04
215.904	37.38
216.122	16.9
216.341	-34.3
216.559	-1.54
216.778	51.71
216.996	20.99
217.214	0.51
217.432	6.66
217.651	51.71
217.869	-5.63
218.087	49.66
218.306	-1.54
218.524	-7.68
218.742	-32.26
218.96	-15.87
219.179	-30.21
219.397	20.99
219.615	72.19
219.833	76.29
220.051	20.99
220.27	25.09
220.488	-30.21
220.706	-22.02
220.924	66.05
221.142	68.09
221.36	35.33
221.578	18.94
221.796	23.04
222.015	-36.35
222.233	51.71
222.451	-11.78
222.669	51.71
222.887	64
223.105	-1.54
223.323	35.33
223.541	-9.73
223.759	43.52
223.977	-26.11
224.195	51.71
224.413	-24.06
224.631	59.9
224.849	2.56
225.067	64
225.285	43.52
225.503	20.99
225.721	76.29
225.939	-34.3
226.157	37.38
226.375	86.53
226.592	4.61
226.81	29.18
227.028	31.23
227.246	39.42
227.464	16.9
227.682	35.33
227.9	-26.11
228.117	102.91
228.335	-5.63
228.553	10.75
228.771	107.01
228.989	12.8
229.206	25.09
229.424	57.86
229.642	35.33
229.86	33.28
230.077	-3.58
230.295	43.52
230.513	-54.78
230.731	68.09
230.948	16.9
231.166	45.57
231.384	41.47
231.601	33.28
231.819	20.99
232.037	51.71
232.254	-11.78
232.472	41.47
232.689	20.99
232.907	35.33
233.125	16.9
233.342	43.52
233.56	-24.06
233.777	27.14
233.995	59.9
234.213	59.9
234.43	-24.06
234.648	49.66
234.865	-9.73
235.083	37.38
235.3	10.75
235.518	35.33
235.735	78.33
235.953	43.52
236.17	45.57
236.388	10.75
236.605	-5.63
236.822	39.42
237.04	-1.54
237.257	27.14
237.475	49.66
237.692	-1.54
237.909	49.66
238.127	61.95
238.344	88.57
238.562	76.29
238.779	35.33
238.996	18.94
239.214	-36.35
239.431	27.14
239.648	-28.16
239.865	125.44
240.083	18.94
240.3	8.7
240.517	2.56
240.735	4.61
240.952	2.56
241.169	37.38
241.386	-32.26
241.603	35.33
241.821	-24.06
242.038	72.19
242.255	111.1
242.472	12.8
242.689	18.94
242.907	82.43
243.124	29.18
243.341	-17.92
243.558	49.66
243.775	84.48
243.992	20.99
244.209	-9.73
244.426	57.86
244.643	37.38
244.86	-5.63
245.078	6.66
245.295	41.47
245.512	8.7
245.729	-50.69
245.946	45.57
246.163	-11.78
246.38	88.57
246.597	55.81
246.814	33.28
247.031	-36.35
247.248	-22.02
247.464	59.9
247.681	-22.02
247.898	25.09
248.115	-5.63
248.332	-36.35
248.549	59.9
248.766	39.42
248.983	23.04
249.2	-3.58
249.417	25.09
249.633	53.76
249.85	23.04
250.067	53.76
250.284	-13.82
250.501	76.29
250.717	-67.07
250.934	-15.87
251.151	27.14
251.368	39.42
251.585	49.66
251.801	2.56
252.018	57.86
252.235	-5.63
252.451	4.61
252.668	2.56
252.885	70.14
253.102	20.99
253.318	-13.82
253.535	35.33
253.752	-9.73
253.968	4.61
254.185	4.61
254.401	23.04
254.618	20.99
254.835	-42.5
255.051	111.1
255.268	-3.58
255.484	-36.35
255.701	-9.73
255.917	23.04
256.134	4.61
256.351	64
256.567	18.94
256.784	-15.87
257	-13.82
257.217	68.09
257.433	25.09
257.65	-11.78
257.866	57.86
258.082	27.14
258.299	-19.97
258.515	29.18
258.732	98.81
258.948	-3.58
259.165	107.01
259.381	6.66
259.597	-9.73
259.814	-50.69
260.03	51.71
260.246	25.09
260.463	51.71
260.679	39.42
260.895	47.62
261.112	43.52
261.328	55.81
261.544	59.9
261.761	-3.58
261.977	74.24
262.193	37.38
262.409	2.56
262.626	49.66
262.842	37.38
263.058	35.33
263.274	23.04
263.49	-13.82
263.707	74.24
263.923	16.9
264.139	51.71
264.355	-7.68
264.571	39.42
264.787	8.7
265.004	2.56
265.22	6.66
265.436	37.38
265.652	-19.97
265.868	-54.78
266.084	-3.58
266.3	-5.63
266.516	-13.82
266.732	31.23
266.948	-71.17
267.164	-3.58
267.38	53.76
267.596	61.95
267.812	96.77
268.028	-34.3
268.244	43.52
268.46	-1.54
268.676	20.99
268.892	27.14
269.108	-7.68
269.324	23.04
269.54	45.57
269.756	47.62
269.972	59.9
270.188	29.18
270.403	27.14
270.619	20.99
270.835	-7.68
271.051	37.38
271.267	70.14
271.483	10.75
271.698	102.91
271.914	18.94
272.13	4.61
272.346	27.14
272.562	-3.58
272.777	12.8
272.993	-1.54
273.209	96.77
273.425	68.09
273.64	-28.16
273.856	53.76
274.072	-1.54
274.287	37.38
274.503	51.71
274.719	80.38
274.934	-71.17
275.15	68.09
275.366	64
275.581	37.38
275.797	29.18
276.012	25.09
276.228	-24.06
276.444	37.38
276.659	51.71
276.875	2.56
277.09	23.04
277.306	-54.78
277.521	-17.92
277.737	18.94
277.952	16.9
278.168	23.04
278.383	0.51
278.599	74.24
278.814	113.15
279.03	-5.63
279.245	12.8
279.461	31.23
279.676	72.19
279.892	59.9
280.107	-26.11
280.322	-3.58
280.538	43.52
280.753	55.81
280.969	47.62
281.184	16.9
281.399	10.75
281.615	-30.21
281.83	-17.92
282.045	12.8
282.26	23.04
282.476	-38.4
282.691	35.33
282.906	14.85
283.122	0.51
283.337	-38.4
283.552	6.66
283.767	25.09
283.983	78.33
284.198	-38.4
284.413	84.48
284.628	27.14
284.843	72.19
285.058	25.09
285.274	0.51
285.489	31.23
285.704	64
285.919	59.9
286.134	-17.92
286.349	129.53
286.564	35.33
286.779	14.85
286.995	98.81
287.21	2.56
287.425	-46.59
287.64	39.42
287.855	-1.54
288.07	8.7
288.285	45.57
288.5	53.76
288.715	16.9
288.93	23.04
289.145	27.14
289.36	66.05
289.575	-7.68
289.79	35.33
290.004	35.33
290.219	14.85
290.434	-34.3
290.649	18.94
290.864	-1.54
291.079	41.47
291.294	-1.54
291.509	33.28
291.724	55.81
291.938	35.33
292.153	35.33
292.368	-5.63
292.583	12.8
292.798	-17.92
293.012	51.71
293.227	2.56
293.442	53.76
293.657	49.66
293.871	74.24
294.086	18.94
294.301	14.85
294.516	57.86
294.73	84.48
294.945	35.33
295.16	37.38
295.374	-34.3
295.589	10.75
295.804	-11.78
296.018	53.76
296.233	2.56
296.447	-5.63
296.662	57.86
296.877	43.52
297.091	43.52
297.306	68.09
297.52	68.09
297.735	84.48
297.949	57.86
298.164	-15.87
298.378	-5.63
298.593	29.18
298.807	-24.06
299.022	18.94
299.236	-15.87
299.451	76.29
299.665	35.33
299.88	-56.83
300.094	-11.78
300.309	41.47
300.523	100.86
300.737	53.76
300.952	-36.35
301.166	33.28
301.381	121.34
301.595	2.56
301.809	57.86
302.024	4.61
302.238	-1.54
302.452	10.75
302.667	49.66
302.881	29.18
303.095	31.23
303.309	55.81
303.524	-13.82
303.738	23.04
303.952	-46.59
304.166	14.85
304.381	-30.21
304.595	47.62
304.809	31.23
305.023	23.04
305.237	-13.82
305.452	-1.54
305.666	23.04
305.88	33.28
306.094	-5.63
306.308	64
306.522	12.8
306.736	-32.26
306.95	-22.02
307.164	16.9
307.379	10.75
307.593	55.81
307.807	43.52
308.021	133.63
308.235	10.75
308.449	12.8
308.663	14.85
308.877	29.18
309.091	76.29
309.305	64
309.519	-28.16
309.733	-7.68
309.947	-9.73
310.161	55.81
310.374	18.94
310.588	29.18
310.802	66.05
311.016	14.85
311.23	51.71
311.444	39.42
311.658	35.33
311.872	35.33
312.085	8.7
312.299	37.38
312.513	-9.73
312.727	10.75
312.941	-13.82
313.154	35.33
313.368	55.81
313.582	51.71
313.796	-32.26
314.009	-3.58
314.223	27.14
314.437	23.04
314.651	18.94
314.864	4.61
315.078	51.71
315.292	-17.92
315.505	-7.68
315.719	27.14
315.933	64
316.146	-46.59
316.36	33.28
316.573	12.8
316.787	12.8
317.001	55.81
317.214	92.67
317.428	25.09
317.641	45.57
317.855	-1.54
318.068	-103.93
318.282	25.09
318.495	78.33
318.709	68.09
318.922	23.04
319.136	-15.87
319.349	-22.02
319.563	64
319.776	-13.82
319.99	-34.3
320.203	25.09
320.417	49.66
320.63	12.8
320.843	125.44
321.057	68.09
321.27	-28.16
321.483	-1.54
321.697	8.7
321.91	33.28
322.124	37.38
322.337	27.14
322.55	72.19
322.763	8.7
322.977	66.05
323.19	68.09
323.403	31.23
323.617	45.57
323.83	-11.78
324.043	82.43
324.256	-9.73
324.469	-19.97
324.683	-15.87
324.896	68.09
325.109	64
325.322	72.19
325.535	55.81
325.748	-36.35
325.962	-7.68
326.175	39.42
326.388	45.57
326.601	43.52
326.814	70.14
327.027	39.42
327.24	47.62
327.453	25.09
327.666	12.8
327.879	29.18
328.092	8.7
328.305	20.99
328.518	27.14
328.731	-7.68
328.944	51.71
329.157	47.62
329.37	-44.54
329.583	-15.87
329.796	29.18
330.009	-44.54
330.222	14.85
330.435	37.38
330.648	-22.02
330.861	20.99
331.073	25.09
331.286	-13.82
331.499	57.86
331.712	68.09
331.925	45.57
332.138	-40.45
332.35	43.52
332.563	20.99
332.776	84.48
332.989	-19.97
333.202	10.75
333.414	-52.74
333.627	8.7
333.84	35.33
334.053	20.99
334.265	20.99
334.478	51.71
334.691	-44.54
334.903	23.04
335.116	53.76
335.329	8.7
335.541	-3.58
335.754	64
335.966	10.75
336.179	64
336.392	51.71
336.604	-13.82
336.817	137.73
337.029	0.51
337.242	-60.93
337.454	-58.88
337.667	-5.63
337.88	51.71
338.092	4.61
338.305	68.09
338.517	20.99
338.729	88.57
338.942	-9.73
339.154	6.66
339.367	-22.02
339.579	37.38
339.792	-11.78
340.004	-11.78
340.217	35.33
340.429	29.18
340.641	16.9
340.854	-19.97
341.066	-3.58
341.278	10.75
341.491	-48.64
341.703	61.95
341.915	55.81
342.128	20.99
342.34	47.62
342.552	6.66
342.764	10.75
342.977	8.7
343.189	-1.54
343.401	35.33
343.613	29.18
343.826	8.7
344.038	-15.87
344.25	78.33
344.462	6.66
344.674	76.29
344.886	-13.82
345.099	31.23
345.311	23.04
345.523	10.75
345.735	-3.58
345.947	76.29
346.159	-22.02
346.371	57.86
346.583	-15.87
346.795	31.23
347.007	45.57
347.219	59.9
347.431	-34.3
347.643	61.95
347.855	51.71
348.067	39.42
348.279	41.47
348.491	29.18
348.703	39.42
348.915	6.66
349.127	-28.16
349.339	2.56
349.551	37.38
349.763	84.48
349.975	-28.16
350.187	4.61
350.399	133.63
350.61	35.33
350.822	6.66
351.034	37.38
351.246	33.28
351.458	68.09
351.669	27.14
351.881	-9.73
352.093	31.23
352.305	100.86
352.517	-15.87
352.728	4.61
352.94	25.09
353.152	23.04
353.363	49.66
353.575	6.66
353.787	61.95
353.999	64
354.21	74.24
354.422	51.71
354.633	39.42
354.845	18.94
355.057	6.66
355.268	117.25
355.48	20.99
355.692	31.23
355.903	8.7
356.115	18.94
356.326	27.14
356.538	10.75
356.749	74.24
356.961	94.72
357.172	86.53
357.384	76.29
357.595	16.9
357.807	43.52
358.018	6.66
358.23	127.49
358.441	20.99
358.653	64
358.864	41.47
359.075	27.14
359.287	84.48
359.498	37.38
359.709	-32.26
359.921	14.85
360.132	18.94
360.344	61.95
360.555	4.61
360.766	35.33
360.977	37.38
361.189	16.9
361.4	68.09
361.611	45.57
361.823	-24.06
362.034	74.24
362.245	8.7
362.456	53.76
362.667	-17.92
362.879	-11.78
363.09	39.42
363.301	25.09
363.512	59.9
363.723	35.33
363.935	25.09
364.146	-3.58
364.357	47.62
364.568	-5.63
364.779	41.47
364.99	59.9
365.201	18.94
365.412	55.81
365.623	-38.4
365.834	29.18
366.045	-48.64
366.256	27.14
366.467	37.38
366.678	72.19
366.889	2.56
367.1	25.09
367.311	51.71
367.522	49.66
367.733	29.18
367.944	27.14
368.155	-62.98
368.366	64
368.577	0.51
368.788	96.77
368.999	2.56
369.209	47.62
369.42	92.67
369.631	100.86
369.842	-1.54
370.053	47.62
370.264	33.28
370.474	10.75
370.685	37.38
370.896	2.56
371.107	78.33
371.317	-9.73
371.528	35.33
371.739	68.09
371.95	12.8
372.16	84.48
372.371	-71.17
372.582	57.86
372.792	-58.88
373.003	104.96
373.214	31.23
373.424	-19.97
373.635	-58.88
373.846	86.53
374.056	74.24
374.267	37.38
374.477	53.76
374.688	25.09
374.898	43.52
375.109	68.09
375.319	61.95
375.53	-34.3
375.74	-22.02
375.951	76.29
376.161	76.29
376.372	61.95
376.582	-11.78
376.793	-120.32
377.003	47.62
377.214	66.05
377.424	0.51
377.635	68.09
377.845	31.23
378.055	111.1
378.266	74.24
378.476	6.66
378.686	68.09
378.897	51.71
379.107	6.66
379.317	59.9
379.528	10.75
379.738	8.7
379.948	41.47
380.158	6.66
380.369	88.57
380.579	16.9
380.789	4.61
380.999	37.38
381.21	27.14
381.42	100.86
381.63	-69.12
381.84	57.86
382.05	35.33
382.261	64
382.471	70.14
382.681	55.81
382.891	59.9
383.101	33.28
383.311	31.23
383.521	27.14
383.731	-17.92
383.941	47.62
384.151	37.38
384.361	43.52
384.571	45.57
384.781	10.75
384.991	-34.3
385.201	66.05
385.411	6.66
385.621	90.62
385.831	2.56
386.041	59.9
386.251	14.85
386.461	86.53
386.671	45.57
386.881	0.51
387.091	-9.73
387.301	6.66
387.511	39.42
387.72	72.19
387.93	-1.54
388.14	14.85
388.35	8.7
388.56	117.25
388.769	109.05
388.979	92.67
389.189	4.61
389.399	119.29
389.609	2.56
389.818	68.09
390.028	-9.73
390.238	102.91
390.447	-17.92
390.657	98.81
390.867	45.57
391.076	27.14
391.286	29.18
391.496	94.72
391.705	37.38
391.915	41.47
392.125	20.99
392.334	70.14
392.544	35.33
392.753	-26.11
392.963	23.04
393.172	43.52
393.382	84.48
393.591	20.99
393.801	43.52
394.01	35.33
394.22	72.19
394.429	88.57
394.639	68.09
394.848	74.24
395.058	96.77
395.267	37.38
395.477	55.81
395.686	127.49
395.895	74.24
396.105	92.67
396.314	64
396.524	61.95
396.733	55.81
396.942	6.66
397.152	25.09
397.361	70.14
397.57	76.29
397.78	72.19
397.989	-1.54
398.198	150.01
398.407	-17.92
398.617	88.57
398.826	37.38
399.035	70.14
399.244	51.71
399.453	53.76
399.663	111.1
399.872	12.8
400.081	41.47
400.29	109.05
400.499	66.05
400.708	23.04
400.917	156.16
401.127	43.52
401.336	102.91
401.545	10.75
401.754	43.52
401.963	20.99
402.172	86.53
402.381	86.53
402.59	61.95
402.799	57.86
403.008	150.01
403.217	86.53
403.426	88.57
403.635	70.14
403.844	72.19
404.053	150.01
404.262	37.38
404.471	174.59
404.68	111.1
404.888	147.97
405.097	96.77
405.306	133.63
405.515	109.05
405.724	115.2
405.933	64
406.142	129.53
406.35	88.57
406.559	68.09
406.768	102.91
406.977	107.01
407.185	72.19
407.394	133.63
407.603	156.16
407.812	133.63
408.02	74.24
408.229	117.25
408.438	176.64
408.646	145.92
408.855	227.84
409.064	160.25
409.272	180.73
409.481	190.97
409.69	141.82
409.898	164.35
410.107	131.58
410.315	131.58
410.524	143.87
410.733	193.02
410.941	131.58
411.15	174.59
411.358	219.64
411.567	201.21
411.775	197.12
411.984	215.55
412.192	246.27
412.401	281.08
412.609	262.65
412.818	348.67
413.026	268.8
413.234	303.61
413.443	268.8
413.651	324.09
413.86	293.37
414.068	301.56
414.276	328.19
414.485	350.71
414.693	309.76
414.901	391.67
415.11	457.21
415.318	375.29
415.526	420.35
415.734	440.83
415.943	463.35
416.151	461.3
416.359	473.59
416.567	532.98
416.776	522.74
416.984	496.12
417.192	524.79
417.4	610.81
417.608	522.74
417.817	545.27
418.025	629.24
418.233	664.05
418.441	637.43
418.649	637.43
418.857	684.53
419.065	733.68
419.273	772.6
419.481	881.14
419.689	823.8
419.897	903.67
420.105	831.99
420.313	946.67
420.521	872.95
420.729	934.39
420.937	905.71
421.145	983.54
421.353	1036.78
421.561	1020.4
421.769	1067.5
421.977	1163.76
422.185	1065.46
422.393	1233.39
422.601	1282.54
422.809	1384.94
423.017	1282.54
423.224	1210.86
423.432	1421.8
423.64	1432.04
423.848	1542.63
424.056	1450.47
424.263	1624.55
424.471	1552.87
424.679	1690.09
424.887	1765.86
425.094	1796.58
425.302	1780.2
425.51	1870.31
425.718	1923.55
425.925	1939.94
426.133	2062.82
426.341	2034.14
426.548	2157.02
426.756	2136.54
426.964	2202.08
427.171	2296.28
427.379	2476.51
427.586	2597.34
427.794	2431.45
428.001	2626.01
428.209	2750.93
428.417	2632.15
428.624	3015.12
428.832	2736.6
429.039	2939.35
429.247	2873.81
429.454	3238.35
429.662	3295.69
429.869	3203.54
430.076	3297.74
430.284	3332.56
430.491	3377.61
430.699	3717.58
430.906	3586.51
431.114	3660.23
431.321	3942.85
431.528	3920.32
431.736	4164.03
431.943	4305.34
432.15	4198.85
432.358	4243.9
432.565	4491.71
432.772	4424.12
432.979	4706.74
433.187	4770.23
433.394	4850.1
433.601	5206.45
433.808	5073.33
434.016	5163.44
434.223	5403.05
434.43	5695.91
434.637	5534.12
434.844	5804.46
435.052	6011.3
435.259	6130.08
435.466	5996.96
435.673	6117.79
435.88	6132.13
436.087	6744.47
436.294	6814.1
436.501	6762.9
436.708	6873.5
436.915	6893.97
437.122	7309.71
437.329	7102.87
437.537	7455.12
437.743	7567.76
437.95	7352.72
438.157	7934.34
438.364	8184.2
438.571	8104.32
438.778	8251.78
438.985	9089.4
439.192	8636.8
439.399	8759.67
439.606	8632.7
439.813	9296.24
440.02	9705.84
440.227	9697.64
440.433	9611.63
440.64	9865.58
440.847	9636.2
441.054	9793.9
441.261	10467.68
441.467	10471.78
441.674	10895.71
441.881	11141.46
442.088	11116.89
442.294	11088.21
442.501	11254.1
442.708	11471.18
442.914	12052.81
443.121	12642.62
443.328	12159.3
443.534	13242.68
443.741	12843.32
443.948	12663.1
444.154	13410.61
444.361	13433.14
444.568	13556.02
444.774	13582.64
444.981	13947.18
445.187	13973.8
445.394	14932.25
445.6	14465.32
445.807	16179.47
446.013	15161.62
446.22	15649.04
446.426	16156.94
446.633	16331.01
446.839	16769.28
447.046	16337.16
447.252	17266.94
447.459	17070.33
447.665	17025.28
447.871	18075.88
448.078	18872.54
448.284	17615.09
448.491	18243.82
448.697	19038.43
448.903	19384.54
449.11	19687.64
449.316	19011.81
449.522	19644.63
449.728	20244.68
449.935	19992.78
450.141	20121.8
450.347	20740.29
450.553	19955.92
450.76	20560.07
450.966	21223.61
451.172	20723.91
451.378	21252.28
451.584	20848.83
451.791	21450.94
451.997	21399.74
452.203	22067.38
452.409	21840.05
452.615	21819.57
452.821	20949.18
453.027	20762.82
453.233	21878.96
453.44	21092.54
453.646	21506.23
453.852	21326.01
454.058	21762.23
454.264	21201.08
454.47	21821.62
454.676	21182.65
454.882	21768.37
455.088	20230.35
455.294	20330.7
455.5	20375.75
455.705	20773.06
455.911	19986.64
456.117	19523.8
456.323	19198.17
456.529	18235.63
456.735	19075.29
456.941	18477.29
457.147	18108.65
457.352	17668.34
457.558	17639.67
457.764	17748.21
457.97	17154.3
458.176	16802.05
458.381	16886.01
458.587	16077.07
458.793	16156.94
458.999	15255.83
459.204	16369.93
459.41	15792.4
459.616	14715.17
459.821	14971.16
460.027	14545.19
460.233	14389.54
460.438	13590.83
460.644	14113.06
460.85	13226.29
461.055	13162.81
461.261	13087.03
461.466	12063.05
461.672	11770.19
461.878	12310.85
462.083	11770.19
462.289	11467.09
462.494	11290.96
462.7	10875.23
462.905	10619.23
463.111	11106.65
463.316	10973.53
463.522	10750.3
463.727	11028.82
463.932	10744.16
464.138	10670.43
464.343	10629.47
464.549	10316.13
464.754	10695
464.959	10705.24
465.165	10557.79
465.37	10258.79
465.575	9709.93
465.781	10338.66
465.986	10441.06
466.191	10084.71
466.397	9736.56
466.602	9429.36
466.807	9693.55
467.012	9783.66
467.218	9525.61
467.423	9482.61
467.628	9640.3
467.833	9953.64
468.038	9548.14
468.244	9259.38
468.449	9763.18
468.654	9378.16
468.859	9271.67
469.064	9462.13
469.269	8669.56
469.474	8735.1
469.679	9179.51
469.885	8751.48
470.09	9030.01
470.295	8919.42
470.5	8618.36
470.705	8677.76
470.91	8575.36
471.115	8573.31
471.32	8628.6
471.525	8591.74
471.73	8337.79
471.935	8417.66
472.139	7975.3
472.344	8137.09
472.549	8092.04
472.754	8118.66
472.959	7778.7
473.164	7582.09
473.369	7631.24
473.574	8010.12
473.778	7952.77
473.983	7815.56
474.188	7801.22
474.393	7188.88
474.598	7569.8
474.802	7293.33
475.007	7287.18
475.212	7139.73
475.417	6963.61
475.621	6920.6
475.826	6969.75
476.031	6775.19
476.235	6885.78
476.44	6816.15
476.645	6668.7
476.849	6771.1
477.054	6599.07
477.259	6582.68
477.463	6695.32
477.668	6259.1
477.872	6566.3
478.077	6377.89
478.282	6205.86
478.486	6156.71
478.691	6175.14
478.895	6080.93
479.1	6140.32
479.304	6197.67
479.509	5904.81
479.713	6154.66
479.918	5939.62
480.122	5749.16
480.326	5988.77
480.531	5847.46
480.735	5732.78
480.94	5745.06
481.144	5929.38
481.348	5822.89
481.553	5767.59
481.757	5601.71
481.961	5697.96
482.166	5747.11
482.37	5765.54
482.574	5706.15
482.778	5634.47
482.983	5896.61
483.187	5642.67
483.391	5716.39
483.595	5693.87
483.8	5589.42
484.004	5693.87
484.208	5757.35
484.412	5652.91
484.616	5695.91
484.821	5599.66
485.025	5597.61
485.229	5822.89
485.433	5693.87
485.637	5591.47
485.841	5736.87
486.045	5683.63
486.249	5872.04
486.453	5605.8
486.657	5595.56
486.861	5736.87
487.065	5632.43
487.269	5597.61
487.473	5665.19
487.677	5616.04
487.881	5722.54
488.085	5595.56
488.289	5847.46
488.493	5697.96
488.697	5806.5
488.901	5710.25
489.105	5743.02
489.309	5734.82
489.512	5796.26
489.716	5702.06
489.92	5743.02
490.124	5747.11
490.328	5826.98
490.531	5874.09
490.735	5683.63
490.939	5941.67
491.143	5968.29
491.346	5863.85
491.55	5999.01
491.754	6035.88
491.958	6019.49
492.161	6054.31
492.365	5988.77
492.569	6080.93
492.772	6064.55
492.976	6111.65
493.18	6101.41
493.383	6275.49
493.587	6334.88
493.79	6451.61
493.994	6351.26
494.197	6293.92
494.401	6437.28
494.605	6480.29
494.808	6418.85
495.012	6490.52
495.215	6656.41
495.419	6658.46
495.622	6603.16
495.825	6834.58
496.029	6713.75
496.232	6793.62
496.436	6678.94
496.639	6990.23
496.843	7014.8
497.046	7029.14
497.249	7268.75
497.453	7225.75
497.656	7313.81
497.859	7248.27
498.063	7471.5
498.266	7498.13
498.469	7569.8
498.673	7782.79
498.876	7725.45
499.079	7786.89
499.282	7844.23
499.485	8020.36
499.689	8130.95
499.892	8376.7
500.095	8335.74
500.298	8634.75
500.501	8538.49
500.705	8733.05
500.908	8837.5
501.111	8778.11
501.314	8995.19
501.517	9105.78
501.72	9150.84
501.923	8898.94
502.126	9480.56
502.329	9623.92
502.532	9439.6
502.735	9597.29
502.938	9929.06
503.141	9906.54
503.344	10043.75
503.547	10197.35
503.75	10490.21
503.953	10400.1
504.156	10408.29
504.359	10684.76
504.562	10588.51
504.765	10981.72
504.968	11065.69
505.17	11141.46
505.373	11315.54
505.576	11460.95
505.779	11604.3
505.982	11610.45
506.185	11741.52
506.387	11948.36
506.59	12163.4
506.793	12091.72
506.996	12302.66
507.198	12652.86
507.401	12689.73
507.604	12747.07
507.807	13363.51
508.009	13080.89
508.212	13596.98
508.415	13408.56
508.617	13449.52
508.82	13959.47
509.022	13857.07
509.225	14035.24
509.428	14276.9
509.63	14254.37
509.833	14536.99
510.035	14694.69
510.238	14633.25
510.44	15046.94
510.643	15231.26
510.845	15370.52
511.048	15438.1
511.25	15474.96
511.453	15698.19
511.655	16304.39
511.858	16210.18
512.06	16310.54
512.262	16468.23
512.465	16595.2
512.667	16795.9
512.87	16910.59
513.072	17064.19
513.274	17355
513.477	17533.17
513.679	17977.58
513.881	17975.53
514.084	18165.99
514.286	18411.75
514.488	18528.49
514.69	18860.26
514.893	18946.27
515.095	18944.22
515.297	19339.48
515.499	19290.33
515.701	19851.47
515.904	19990.73
516.106	20181.2
516.308	20426.95
516.51	20824.26
516.712	20566.21
516.914	20801.73
517.116	21014.72
517.318	21371.07
517.52	21452.98
517.722	21467.32
517.925	21821.62
518.127	22157.49
518.329	22163.63
518.531	22130.86
518.733	22708.39
518.935	22847.65
519.136	23181.47
519.338	23543.96
519.54	23392.41
519.742	23679.13
519.944	23627.93
520.146	24463.5
520.348	24252.56
520.55	24330.38
520.752	24723.59
520.954	25165.95
521.155	24887.43
521.357	25616.51
521.559	25505.91
521.761	25731.19
521.963	26034.29
522.164	26376.3
522.366	26220.66
522.568	26517.61
522.77	26611.82
522.971	27179.11
523.173	26802.28
523.375	27340.89
523.576	27236.45
523.778	27480.16
523.98	27512.92
524.181	28088.4
524.383	27885.65
524.584	28244.05
524.786	28250.19
524.988	28465.23
525.189	28577.87
525.391	28713.03
525.592	28995.65
525.794	28844.1
525.995	29059.14
526.197	29179.97
526.398	29597.76
526.6	29534.27
526.801	29933.62
527.003	29839.42
527.204	29866.04
527.406	30160.95
527.607	29913.14
527.808	30271.54
528.01	29847.61
528.211	30490.67
528.412	31105.06
528.614	30517.29
528.815	30627.88
529.016	31146.02
529.218	31150.12
529.419	31049.77
529.62	30898.22
529.822	30756.91
530.023	31336.48
530.224	31135.78
530.425	31289.38
530.626	30822.44
530.828	31422.5
531.029	31688.73
531.23	31272.99
531.431	31354.91
531.632	31686.68
531.833	31666.2
532.035	31782.94
532.236	31483.94
532.437	31811.61
532.638	31764.51
532.839	32004.12
533.04	32184.34
533.241	31574.05
533.442	32339.99
533.643	32020.5
533.844	31868.95
534.045	31815.71
534.246	31653.92
534.447	32456.72
534.648	31995.93
534.849	32174.1
535.05	31782.94
535.251	32184.34
535.451	31963.16
535.652	32454.67
535.853	32419.86
536.054	32417.81
536.255	32127
536.456	32032.79
536.657	32499.73
536.857	31914.01
537.058	31879.19
537.259	32501.78
537.46	32546.83
537.66	32247.83
537.861	32589.84
538.062	32016.41
538.263	32239.64
538.463	32043.03
538.664	32000.02
538.865	32440.34
539.065	32450.58
539.266	32315.41
539.466	32555.02
539.667	31934.49
539.868	32475.15
540.068	32403.47
540.269	32327.7
540.469	32387.09
540.67	32100.37
540.87	32301.08
541.071	32270.36
541.271	32569.36
541.472	32364.56
541.672	31928.34
541.873	32137.24
542.073	31758.36
542.274	32272.4
542.474	31963.16
542.675	31928.34
542.875	32190.48
543.075	32382.99
543.276	31799.32
543.476	32313.36
543.676	32016.41
543.877	32563.22
544.077	31959.06
544.277	32434.19
544.478	32151.57
544.678	32354.32
544.878	31993.88
545.078	32616.46
545.279	31938.58
545.479	31823.9
545.679	32004.12
545.879	32088.09
546.079	32190.48
546.28	32055.32
546.48	31911.96
546.68	32202.77
546.88	32143.38
547.08	32112.66
547.28	32079.89
547.48	31871
547.68	32131.09
547.88	32045.08
548.081	32016.41
548.281	32020.5
548.481	31985.69
548.681	32448.53
548.881	31750.17
549.081	31961.11
549.28	31760.41
549.48	31926.3
549.68	32292.88
549.88	32165.91
550.08	31623.2
550.28	32350.23
550.48	31883.29
550.68	31895.58
550.88	31918.1
551.08	31752.22
551.279	31688.73
551.479	31516.7
551.679	32036.89
551.879	31893.53
552.079	31918.1
552.278	31911.96
552.478	32057.37
552.678	32053.27
552.878	32049.17
553.077	31694.88
553.277	31727.64
553.477	32139.29
553.676	31729.69
553.876	31676.44
554.076	31535.13
554.275	31264.8
554.475	31215.65
554.674	31965.21
554.874	31574.05
555.074	31383.59
555.273	31954.97
555.473	31848.47
555.672	31404.06
555.872	31291.43
556.071	31389.73
556.271	31928.34
556.47	31285.28
556.67	30984.23
556.869	31141.92
557.068	31391.78
557.268	31264.8
557.467	31246.37
557.667	31008.81
557.866	31305.76
558.065	31076.39
558.265	30812.2
558.464	30920.74
558.663	31301.67
558.863	30982.18
559.062	31352.87
559.261	31064.1
559.461	31485.98
559.66	30380.08
559.859	31229.99
560.058	30863.4
560.258	31012.9
560.457	30531.63
560.656	30930.98
560.855	30668.84
561.054	30711.85
561.253	30468.14
561.453	30210.1
561.652	30603.31
561.851	30412.85
562.05	30394.42
562.249	30206
562.448	30988.33
562.647	30670.89
562.846	30206
563.045	30148.66
563.244	30064.69
563.443	30281.78
563.642	29759.55
563.841	30165.04
564.04	29831.22
564.239	30140.47
564.438	29468.73
564.637	29503.55
564.836	30046.26
565.035	29671.48
565.234	29831.22
565.432	29343.81
565.631	29403.2
565.83	29601.85
566.029	29405.25
566.228	29694.01
566.427	29364.29
566.625	29225.03
566.824	28969.03
567.023	29390.91
567.222	28885.06
567.42	29374.53
567.619	28979.27
567.818	28911.69
568.016	28749.9
568.215	28782.66
568.414	28663.88
568.612	29007.94
568.811	28440.65
569.01	28403.79
569.208	28131.41
569.407	28698.7
569.605	28133.46
569.804	28457.04
570.002	27971.67
570.201	28414.03
570.4	27924.57
570.598	27713.63
570.797	27787.35
570.995	27730.01
571.193	27531.36
571.392	28022.87
571.59	27750.49
571.789	27482.2
571.987	27582.56
572.186	27660.38
572.384	27334.75
572.582	27404.38
572.781	27271.26
572.979	26869.86
573.177	26972.26
573.376	26972.26
573.574	26812.52
573.772	26968.16
573.971	26656.87
574.169	26736.74
574.367	26755.18
574.565	26853.48
574.763	26964.07
574.962	26372.21
575.16	26521.71
575.358	26323.05
575.556	26402.93
575.754	26349.68
575.952	25917.56
576.151	26290.29
576.349	25868.41
576.547	26175.6
576.745	26157.17
576.943	26067.06
577.141	26132.59
577.339	25749.62
577.537	25815.16
577.735	25870.45
577.933	24973.44
578.131	25487.48
578.329	25567.35
578.527	24955.01
578.725	25168
578.923	25176.19
579.121	25342.08
579.319	25049.22
579.516	25096.32
579.714	24975.49
579.912	24705.16
580.11	24588.42
580.308	24705.16
580.506	24651.91
580.704	24508.55
580.901	24610.95
581.099	24811.65
581.297	24412.3
581.495	24256.65
581.692	24582.28
581.89	24029.33
582.088	24375.44
582.285	24029.33
582.483	24354.96
582.681	24010.9
582.878	23791.76
583.076	23652.5
583.274	24105.1
583.471	23865.49
583.669	23812.24
583.866	23449.75
584.064	23736.47
584.262	23312.54
584.459	23742.61
584.657	22970.53
584.854	23388.32
585.052	22900.9
585.249	23201.95
585.447	23066.78
585.644	22859.94
585.841	22972.58
586.039	23347.36
586.236	23007.39
586.434	22694.05
586.631	22706.34
586.828	22665.38
587.026	22605.99
587.223	22548.65
587.42	22378.67
587.618	22728.87
587.815	22343.85
588.012	22247.6
588.21	22419.63
588.407	22401.19
588.604	22075.57
588.801	21917.87
588.999	22079.66
589.196	21665.97
589.393	21821.62
589.59	21723.32
589.787	21557.43
589.984	21532.86
590.182	21502.14
590.379	21614.77
590.576	21285.05
590.773	21504.18
590.97	21186.75
591.167	21549.24
591.364	21049.53
591.561	21377.21
591.758	21053.63
591.955	21115.07
592.152	21221.56
592.349	20904.13
592.546	20910.27
592.743	20990.14
592.94	20467.91
593.137	20437.19
593.334	20674.76
593.531	20273.35
593.727	20879.55
593.924	20699.33
594.121	20371.66
594.318	20521.16
594.515	19908.82
594.712	20238.54
594.908	20054.22
595.105	20150.48
595.302	20060.37
595.499	19777.75
595.696	19982.54
595.892	19523.8
596.089	19663.06
596.286	19912.91
596.482	19542.23
596.679	19484.89
596.876	19822.8
597.072	19687.64
597.269	19509.46
597.466	19333.34
597.662	19241.18
597.859	19306.71
598.055	19222.75
598.252	19333.34
598.448	19040.48
598.645	18788.58
598.841	18915.55
599.038	18659.56
599.234	19106.01
599.431	18749.67
599.627	18854.11
599.824	18964.7
600.02	18352.36
600.217	18837.73
600.413	18456.81
600.609	18446.57
600.806	18309.35
601.002	18557.16
601.198	18200.81
601.395	18079.98
601.591	18288.87
601.787	17869.04
601.984	18163.95
602.18	18471.14
602.376	17969.39
602.572	17885.42
602.769	18043.12
602.965	17561.84
603.161	17881.33
603.357	17584.37
603.553	17701.11
603.75	17543.41
603.946	17432.82
604.142	17737.97
604.338	17217.79
604.534	17627.38
604.73	17221.88
604.926	17455.35
605.122	17162.49
605.318	17133.82
605.514	17076.48
605.71	16986.36
605.906	16879.87
606.102	16937.21
606.298	16855.29
606.494	16941.31
606.69	17123.58
606.886	16951.55
607.082	16546.05
607.278	16613.63
607.474	16566.53
607.67	16746.75
607.866	16316.68
608.062	16675.07
608.257	16386.31
608.453	16517.38
608.649	16443.65
608.845	16271.62
609.041	16388.36
609.236	16357.64
609.432	16247.05
609.628	16324.87
609.824	16257.29
610.019	15913.23
610.215	16195.85
610.411	15954.19
610.606	15866.13
610.802	16005.39
610.998	15962.38
611.193	15950.09
611.389	16017.68
611.584	15712.53
611.78	15859.98
611.976	15618.32
612.171	15747.34
612.367	15870.22
612.562	15765.78
612.758	15309.08
612.953	15448.34
613.149	15862.03
613.344	15573.27
613.539	15503.64
613.735	15290.65
613.93	15644.95
614.126	15339.8
614.321	15485.2
614.517	15323.41
614.712	15339.8
614.907	15081.75
615.103	15227.16
615.298	15225.11
615.493	15315.22
615.688	15010.07
615.884	15292.69
616.079	14840.09
616.274	15278.36
616.47	14991.64
616.665	14715.17
616.86	14973.21
617.055	14965.02
617.25	14807.33
617.445	15018.27
617.641	14639.39
617.836	14659.87
618.031	14491.94
618.226	14676.26
618.421	14397.73
618.616	14745.89
618.811	14412.07
619.006	14493.99
619.201	14166.31
619.396	14426.4
619.591	14084.39
619.786	14500.13
619.981	13916.46
620.176	14186.79
620.371	13812.01
620.566	14051.63
620.761	13906.22
620.956	13783.34
621.151	13580.59
621.346	13863.21
621.541	13564.21
621.735	13750.57
621.93	13412.66
622.125	13613.36
622.32	13332.79
622.515	13390.13
622.709	13242.68
622.904	13216.05
623.099	13087.03
623.294	13001.02
623.488	12945.72
623.683	12761.41
623.878	12513.6
624.072	13005.11
624.267	12656.96
624.462	12644.67
624.656	12630.34
624.851	12618.05
625.046	12433.73
625.24	12568.9
625.435	12343.62
625.629	12269.89
625.824	12278.08
626.018	12167.49
626.213	11999.56
626.407	12132.68
626.602	11886.92
626.796	11929.93
626.991	11913.55
627.185	11911.5
627.38	11569.49
627.574	11751.76
627.768	11663.69
627.963	11594.06
628.157	11393.36
628.352	11362.64
628.546	11223.38
628.74	11311.44
628.935	11200.85
629.129	11131.22
629.323	10987.86
629.517	10856.79
629.712	10834.27
629.906	10998.1
630.1	10744.16
630.294	10781.02
630.489	10709.34
630.683	10621.28
630.877	10518.88
631.071	10449.25
631.265	10602.85
631.459	10629.47
631.653	10391.91
631.848	10334.56
632.042	10275.17
632.236	10318.18
632.43	10191.2
632.624	10228.07
632.818	10226.02
633.012	9892.2
633.206	9939.3
633.4	10135.91
633.594	10006.89
633.788	9849.19
633.982	9791.85
634.176	9746.8
634.369	9767.27
634.563	9615.73
634.757	9726.32
634.951	9582.96
635.145	9752.94
635.339	9390.45
635.533	9482.61
635.726	9398.64
635.92	9191.8
636.114	9191.8
636.308	9195.89
636.501	9308.53
636.695	9242.99
636.889	9122.16
637.083	9161.08
637.276	8941.94
637.47	8919.42
637.664	8913.27
637.857	8939.9
638.051	8712.57
638.244	8663.42
638.438	8651.13
638.632	8501.63
638.825	8532.35
639.019	8456.57
639.212	8307.07
639.406	8417.66
639.599	8397.18
639.793	8413.57
639.986	8272.26
640.18	8161.67
640.373	8147.33
640.567	8237.44
640.76	8112.52
640.954	8171.91
641.147	7874.95
641.34	7938.44
641.534	7883.14
641.727	7987.59
641.92	7889.29
642.114	7915.91
642.307	7752.07
642.5	7547.28
642.694	7541.13
642.887	7592.33
643.08	7670.15
643.273	7569.8
643.467	7483.79
643.66	7440.78
643.853	7070.1
644.046	7305.62
644.239	7248.27
644.432	7317.9
644.626	7141.78
644.819	7176.59
645.012	7078.29
645.205	7268.75
645.398	7100.82
645.591	7086.48
645.784	6951.32
645.977	6797.72
646.17	6877.59
646.363	6934.93
646.556	6736.28
646.749	6816.15
646.942	6904.21
647.135	6898.07
647.328	6650.27
647.521	6637.98
647.714	6459.81
647.907	6564.25
648.099	6613.4
648.292	6506.91
648.485	6517.15
648.678	6314.4
648.871	6226.34
649.064	6334.88
649.256	6197.67
649.449	6212
649.642	6326.69
649.835	6162.85
650.027	6095.27
650.22	5994.92
650.413	6001.06
650.605	6080.93
650.798	6003.11
650.991	6017.44
651.183	5876.13
651.376	5831.08
651.568	5867.94
651.761	5769.64
651.954	5796.26
652.146	5767.59
652.339	5874.09
652.531	5763.5
652.724	5638.57
652.916	5630.38
653.109	5671.34
653.301	5591.47
653.494	5597.61
653.686	5407.15
653.879	5540.27
654.071	5370.29
654.263	5372.33
654.456	5308.85
654.648	5378.48
654.84	5261.74
655.033	5251.5
655.225	5185.97
655.417	5155.25
655.61	5243.31
655.802	5222.83
655.994	5140.91
656.186	5265.84
656.379	5224.88
656.571	5134.77
656.763	5038.52
656.955	4995.51
657.148	5018.04
657.34	4991.41
657.532	4938.16
657.724	4929.97
657.916	4923.83
658.108	4929.97
658.3	4733.37
658.492	4843.96
658.684	4889.01
658.876	4762.04
659.068	4608.44
659.26	4700.6
659.452	4655.54
659.644	4669.88
659.836	4622.78
660.028	4579.77
660.22	4655.54
660.412	4526.52
660.604	4481.47
660.796	4450.75
660.988	4430.27
661.18	4352.45
661.372	4350.4
661.563	4377.02
661.755	4334.01
661.947	4323.77
662.139	4172.22
662.331	4274.62
662.522	4243.9
662.714	4223.42
662.906	4114.88
663.097	4190.66
663.289	4131.26
663.481	4110.79
663.673	4219.33
663.864	4008.39
664.056	4032.96
664.247	3920.32
664.439	3938.76
664.631	3975.62
664.822	3955.14
665.014	4012.48
665.205	3856.84
665.397	3766.73
665.588	3928.52
665.78	3879.36
665.971	3787.21
666.163	3781.06
666.354	3754.44
666.546	3783.11
666.737	3746.25
666.929	3733.96
667.12	3779.01
667.311	3750.34
667.503	3709.38
667.694	3688.9
667.885	3656.14
668.077	3680.71
668.268	3660.23
668.459	3643.85
668.651	3547.59
668.842	3623.37
669.033	3520.97
669.224	3611.08
669.416	3531.21
669.607	3486.15
669.798	3418.57
669.989	3434.96
670.18	3490.25
670.371	3475.91
670.563	3303.89
670.754	3281.36
670.945	3428.81
671.136	3363.28
671.327	3385.8
671.518	3371.47
671.709	3295.69
671.9	3289.55
672.091	3226.06
672.282	3228.11
672.473	3414.48
672.664	3193.3
672.855	3238.35
673.046	3205.58
673.237	3316.17
673.428	3187.15
673.619	3279.31
673.809	3148.24
674	3221.97
674.191	3178.96
674.382	3230.16
674.573	3164.62
674.764	3156.43
674.954	3176.91
675.145	3033.55
675.336	3103.18
675.527	3084.75
675.717	3008.98
675.908	3107.28
676.099	2976.21
676.289	3115.47
676.48	3150.29
676.671	2992.59
676.861	2927.06
677.052	2988.5
677.243	2990.55
677.433	3011.03
677.624	2980.31
677.814	2976.21
678.005	3015.12
678.195	2871.76
678.386	2931.16
678.576	2929.11
678.767	2972.11
678.957	2910.68
679.148	2849.24
679.338	2976.21
679.529	3006.93
679.719	2951.63
679.909	2906.58
680.1	2890.2
680.29	2927.06
680.481	2933.2
680.671	2931.16
680.861	2789.85
681.052	2935.25
681.242	2922.96
681.432	2861.52
681.622	2890.2
681.813	2867.67
682.003	2869.72
682.193	2787.8
682.383	2791.89
682.573	2812.37
682.764	2836.95
682.954	2789.85
683.144	2763.22
683.334	2865.62
683.524	2771.41
683.714	2785.75
683.904	2740.69
684.094	2789.85
684.284	2830.8
684.474	2785.75
684.664	2802.13
684.854	2779.61
685.044	2849.24
685.234	2832.85
685.424	2777.56
685.614	2716.12
685.804	2888.15
685.994	2693.59
686.184	2677.21
686.374	2757.08
686.564	2771.41
686.753	2798.04
686.943	2648.54
687.133	2716.12
687.323	2769.37
687.513	2654.68
687.702	2734.55
687.892	2611.67
688.082	2593.24
688.272	2697.69
688.461	2759.13
688.651	2658.78
688.841	2646.49
689.03	2496.99
689.22	2556.38
689.41	2640.34
689.599	2666.97
689.789	2607.58
689.979	2630.1
690.168	2705.88
690.358	2630.1
690.547	2585.05
690.737	2681.3
690.926	2664.92
691.116	2548.19
691.305	2669.02
691.495	2644.44
691.684	2531.8
691.874	2720.21
692.063	2550.23
692.252	2636.25
692.442	2650.58
692.631	2550.23
692.82	2583
693.01	2503.13
693.199	2509.27
693.388	2509.27
693.578	2525.66
693.767	2511.32
693.956	2601.43
694.146	2425.31
694.335	2505.18
694.524	2460.12
694.713	2464.22
694.902	2486.75
695.092	2423.26
695.281	2449.88
695.47	2460.12
695.659	2365.92
695.848	2482.65
696.037	2505.18
696.226	2496.99
696.415	2484.7
696.604	2419.16
696.793	2398.68
696.982	2521.56
697.171	2453.98
697.36	2427.35
697.549	2509.27
697.738	2376.16
697.927	2353.63
698.116	2398.68
698.305	2509.27
698.494	2339.29
698.683	2320.86
698.872	2441.69
699.061	2400.73
699.25	2230.75
699.438	2279.9
699.627	2441.69
699.816	2349.53
700.005	2318.81
700.193	2257.37
700.382	2251.23
700.571	2312.67
700.76	2349.53
700.948	2390.49
701.137	2341.34
701.326	2331.1
701.514	2224.61
701.703	2306.52
701.892	2290.14
702.08	2257.37
702.269	2275.81
702.457	2173.41
702.646	2308.57
702.834	2322.91
703.023	2329.05
703.212	2349.53
703.4	2288.09
703.589	2142.69
703.777	2355.68
703.965	2187.74
704.154	2193.89
704.342	2189.79
704.531	2210.27
704.719	2267.61
704.907	2329.05
705.096	2339.29
705.284	2240.99
705.472	2208.22
705.661	2142.69
705.849	2234.85
706.037	2275.81
706.226	2230.75
706.414	2169.31
706.602	2140.64
706.79	2144.74
706.979	2132.45
707.167	2261.47
707.355	2191.84
707.543	2204.13
707.731	2177.5
707.919	2197.98
708.107	2044.38
708.296	2062.82
708.484	2224.61
708.672	2025.95
708.86	2023.91
709.048	2142.69
709.236	1984.99
709.424	2142.69
709.612	2038.24
709.8	2161.12
709.988	2134.5
710.176	2087.39
710.364	2208.22
710.551	2042.34
710.739	2052.58
710.927	2130.4
711.115	2089.44
711.303	2052.58
711.491	2077.15
711.679	2060.77
711.866	2013.67
712.054	2009.57
712.242	2060.77
712.43	2068.96
712.617	2028
712.805	2044.38
712.993	1995.23
713.181	1995.23
713.368	1984.99
713.556	1982.95
713.744	1923.55
713.931	1903.07
714.119	1921.51
714.306	2034.14
714.494	1966.56
714.682	2005.47
714.869	1858.02
715.057	1866.21
715.244	1941.99
715.432	2056.67
715.619	1944.03
715.807	1755.62
715.994	1874.4
716.182	1919.46
716.369	1954.27
716.556	1886.69
716.744	1919.46
716.931	1939.94
717.119	1876.45
717.306	1870.31
717.493	1851.88
717.681	1849.83
717.868	1952.23
718.055	1964.51
718.242	1763.81
718.43	1860.07
718.617	1782.24
718.804	1739.24
718.991	1837.54
719.179	1884.64
719.366	1788.39
719.553	1835.49
719.74	1837.54
719.927	1786.34
720.114	1808.87
720.301	1733.09
720.488	1782.24
720.676	1763.81
720.863	1831.4
721.05	1763.81
721.237	1737.19
721.424	1827.3
721.611	1669.61
721.798	1810.92
721.985	1690.09
722.172	1722.85
722.358	1765.86
722.545	1825.25
722.732	1739.24
722.919	1769.96
723.106	1698.28
723.293	1735.14
723.48	1724.9
723.667	1655.27
723.853	1659.37
724.04	1722.85
724.227	1780.2
724.414	1638.89
724.6	1624.55
724.787	1659.37
724.974	1692.13
725.161	1645.03
725.347	1612.26
725.534	1636.84
725.72	1708.52
725.907	1542.63
726.094	1657.32
726.28	1632.74
726.467	1675.75
726.653	1595.88
726.84	1587.69
727.027	1671.65
727.213	1604.07
727.4	1610.22
727.586	1589.74
727.773	1595.88
727.959	1614.31
728.145	1649.13
728.332	1552.87
728.518	1440.23
728.705	1653.22
728.891	1599.98
729.077	1475.05
729.264	1620.46
729.45	1497.58
729.636	1679.85
729.823	1520.1
730.009	1616.36
730.195	1612.26
730.382	1542.63
730.568	1636.84
730.754	1610.22
730.94	1628.65
731.126	1608.17
731.313	1628.65
731.499	1528.3
731.685	1536.49
731.871	1518.06
732.057	1610.22
732.243	1544.68
732.429	1477.1
732.615	1522.15
732.801	1518.06
732.987	1554.92
733.173	1538.54
733.359	1503.72
733.545	1499.63
733.731	1524.2
733.917	1524.2
734.103	1491.43
734.289	1532.39
734.475	1446.38
734.661	1483.24
734.847	1546.73
735.033	1513.96
735.219	1432.04
735.404	1436.14
735.59	1436.14
735.776	1444.33
735.962	1470.95
736.148	1405.42
736.333	1550.82
736.519	1485.29
736.705	1456.62
736.89	1489.39
737.076	1491.43
737.262	1427.95
737.447	1393.13
737.633	1444.33
737.819	1448.43
738.004	1395.18
738.19	1526.25
738.375	1448.43
738.561	1434.09
738.747	1427.95
738.932	1378.79
739.118	1432.04
739.303	1358.32
739.489	1378.79
739.674	1425.9
739.859	1399.27
740.045	1421.8
740.23	1319.4
740.416	1321.45
740.601	1354.22
740.786	1300.97
740.972	1409.51
741.157	1360.36
741.342	1339.88
741.528	1327.6
741.713	1403.37
741.898	1407.47
742.084	1346.03
742.269	1280.49
742.454	1309.16
742.639	1264.11
742.824	1354.22
743.01	1292.78
743.195	1305.07
743.38	1266.16
743.565	1276.4
743.75	1217.01
743.935	1315.31
744.12	1280.49
744.305	1257.96
744.49	1253.87
744.675	1186.29
744.86	1298.92
745.045	1149.42
745.23	1223.15
745.415	1253.87
745.6	1178.09
745.785	1253.87
745.97	1225.2
746.155	1251.82
746.34	1182.19
746.525	1096.18
746.71	1266.16
746.895	1165.81
747.079	1186.29
747.264	1124.85
747.449	1178.09
747.634	1155.57
747.819	1137.13
748.003	1092.08
748.188	1137.13
748.373	1122.8
748.557	1042.93
748.742	1141.23
748.927	1139.18
749.111	1180.14
749.296	1096.18
749.481	1126.89
749.665	1061.36
749.85	1055.22
750.034	1040.88
750.219	1040.88
750.404	1018.35
750.588	1010.16
750.773	1034.74
750.957	1075.7
751.141	1018.35
751.326	1075.7
751.51	1083.89
751.695	940.53
751.879	1077.74
752.064	1073.65
752.248	961.01
752.432	1094.13
752.617	991.73
752.801	1012.21
752.985	1032.69
753.17	969.2
753.354	977.39
753.538	920.05
753.722	897.52
753.907	915.95
754.091	965.11
754.275	1012.21
754.459	821.75
754.643	874.99
754.828	924.15
755.012	899.57
755.196	803.32
755.38	856.56
755.564	848.37
755.748	823.8
755.932	903.67
756.116	829.94
756.3	854.51
756.484	778.74
756.668	811.51
756.852	774.64
757.036	756.21
757.22	856.56
757.404	772.6
757.588	797.17
757.772	782.84
757.956	879.09
758.14	762.36
758.323	823.8
758.507	786.93
758.691	813.56
758.875	795.12
759.059	760.31
759.242	825.84
759.426	776.69
759.61	709.11
759.794	715.25
759.977	733.68
760.161	819.7
760.345	782.84
760.528	762.36
760.712	745.97
760.895	733.68
761.079	711.16
761.263	723.44
761.446	631.29
761.63	717.3
761.813	723.44
761.997	754.16
762.18	684.53
762.364	688.63
762.547	616.95
762.731	631.29
762.914	723.44
763.098	801.27
763.281	633.33
763.464	649.72
763.648	619
763.831	690.68
764.015	705.01
764.198	662.01
764.381	621.05
764.564	668.15
764.748	692.73
764.931	586.23
765.114	610.81
765.297	700.92
765.481	686.58
765.664	674.29
765.847	582.14
766.03	700.92
766.213	649.72
766.397	614.9
766.58	608.76
766.763	670.2
766.946	700.92
767.129	635.38
767.312	616.95
767.495	627.19
767.678	563.7
767.861	698.87
768.044	567.8
768.227	573.94
768.41	612.85
768.593	682.49
768.776	602.61
768.959	676.34
769.142	590.33
769.324	690.68
769.507	586.23
769.69	619
769.873	614.9
770.056	580.09
770.239	598.52
770.421	586.23
770.604	588.28
770.787	535.03
770.97	532.98
771.152	557.56
771.335	549.37
771.518	557.56
771.7	575.99
771.883	487.93
772.066	514.55
772.248	543.22
772.431	494.07
772.613	504.31
772.796	522.74
772.978	559.61
773.161	526.84
773.343	557.56
773.526	518.65
773.708	451.07
773.891	500.22
774.073	532.98
774.256	526.84
774.438	549.37
774.621	514.55
774.803	522.74
774.985	535.03
775.168	516.6
775.35	446.97
775.532	492.02
775.715	518.65
775.897	535.03
776.079	418.3
776.261	473.59
776.444	469.5
776.626	494.07
776.808	371.19
776.99	436.73
777.173	332.28
777.355	381.43
777.537	494.07
777.719	428.54
777.901	461.3
778.083	412.15
778.265	410.11
778.447	440.83
778.629	424.44
778.811	424.44
778.993	444.92
779.175	424.44
779.357	471.54
779.539	449.02
779.721	416.25
779.903	453.11
780.085	401.91
780.267	377.34
780.449	322.04
780.631	420.35
780.812	395.77
780.994	391.67
781.176	393.72
781.358	381.43
781.54	424.44
781.721	375.29
781.903	412.15
782.085	344.57
782.267	350.71
782.448	297.47
782.63	363
782.812	299.52
782.993	358.91
783.175	285.18
783.357	303.61
783.538	420.35
783.72	322.04
783.901	291.32
784.083	354.81
784.264	336.38
784.446	311.8
784.627	332.28
784.809	270.84
784.99	371.19
785.172	291.32
785.353	328.19
785.535	385.53
785.716	285.18
785.897	266.75
786.079	227.84
786.26	254.46
786.441	281.08
786.623	328.19
786.804	305.66
786.985	301.56
787.167	291.32
787.348	252.41
787.529	299.52
787.71	279.04
787.891	287.23
788.073	219.64
788.254	254.46
788.435	186.88
788.616	207.36
788.797	213.5
788.978	227.84
789.159	276.99
789.34	225.79
789.522	233.98
789.703	219.64
789.884	297.47
790.065	313.85
790.246	268.8
790.427	219.64
790.607	274.94
790.788	258.56
790.969	266.75
791.15	225.79
791.331	256.51
791.512	238.08
791.693	207.36
791.874	190.97
792.054	291.32
792.235	225.79
792.416	223.74
792.597	250.36
792.778	219.64
792.958	207.36
793.139	223.74
793.32	250.36
793.5	143.87
793.681	246.27
793.862	184.83
794.042	170.49
794.223	166.4
794.404	281.08
794.584	174.59
794.765	170.49
794.945	225.79
795.126	195.07
795.306	160.25
795.487	160.25
795.667	231.93
795.848	217.6
796.028	201.21
796.209	207.36
796.389	184.83
796.57	231.93
796.75	231.93
796.93	170.49
797.111	168.45
797.291	47.62
797.471	264.7
797.652	170.49
797.832	209.4
798.012	158.21
798.192	150.01
798.373	174.59
798.553	147.97
798.733	158.21
798.913	143.87
799.093	152.06
799.274	168.45
799.454	133.63
799.634	240.12
799.814	135.68
799.994	190.97
800.174	272.89
800.354	127.49
800.534	199.16
800.714	176.64
800.894	143.87
801.074	160.25
801.254	158.21
801.434	156.16
801.614	139.77
801.794	125.44
801.974	367.1
802.154	145.92
802.334	127.49
802.514	160.25
802.693	211.45
802.873	137.73
803.053	172.54
803.233	141.82
803.413	176.64
803.592	121.34
803.772	125.44
803.952	92.67
804.131	145.92
804.311	164.35
804.491	129.53
804.67	152.06
804.85	123.39
805.03	70.14
805.209	174.59
805.389	84.48
805.568	199.16
805.748	145.92
805.928	158.21
806.107	156.16
806.287	221.69
806.466	100.86
806.646	145.92
806.825	154.11
807.004	141.82
807.184	129.53
807.363	20.99
807.543	145.92
807.722	182.78
807.901	76.29
808.081	139.77
808.26	96.77
808.439	166.4
808.619	98.81
808.798	127.49
808.977	117.25
809.156	160.25
809.336	94.72
809.515	137.73
809.694	104.96
809.873	156.16
810.052	104.96
810.231	145.92
810.411	92.67
810.59	84.48
810.769	55.81
810.948	133.63
811.127	92.67
811.306	98.81
811.485	190.97
811.664	135.68
811.843	166.4
812.022	92.67
812.201	107.01
812.38	184.83
812.559	111.1
812.737	156.16
812.916	113.15
813.095	72.19
813.274	94.72
813.453	201.21
813.632	57.86
813.811	125.44
813.989	115.2
814.168	170.49
814.347	-5.63
814.526	197.12
814.704	100.86
814.883	43.52
815.062	109.05
815.24	86.53
815.419	111.1
815.598	121.34
815.776	96.77
815.955	98.81
816.133	41.47
816.312	109.05
816.49	137.73
816.669	131.58
816.847	64
817.026	78.33
817.204	100.86
817.383	125.44
817.561	45.57
817.74	154.11
817.918	137.73
818.097	115.2
818.275	82.43
818.453	127.49
818.632	125.44
818.81	119.29
818.988	88.57
819.167	92.67
819.345	49.66
819.523	102.91
819.701	33.28
819.879	82.43
820.058	80.38
820.236	92.67
820.414	31.23
820.592	98.81
820.77	76.29
820.948	119.29
821.127	102.91
821.305	98.81
821.483	68.09
821.661	68.09
821.839	90.62
822.017	96.77
822.195	59.9
822.373	59.9
822.551	10.75
822.729	117.25
822.907	6.66
823.085	131.58
823.262	59.9
823.44	61.95
823.618	43.52
823.796	33.28
823.974	59.9
824.152	68.09
824.329	31.23
824.507	150.01
824.685	8.7
824.863	55.81
825.04	72.19
825.218	64
825.396	66.05
825.574	76.29
825.751	94.72
825.929	86.53
826.107	123.39
826.284	84.48
826.462	41.47
826.639	141.82
826.817	41.47
826.994	45.57
827.172	45.57
827.349	117.25
827.527	29.18
827.704	64
827.882	78.33
828.059	70.14
828.237	88.57
828.414	27.14
828.591	59.9
828.769	96.77
828.946	20.99
829.124	55.81
829.301	-13.82
829.478	49.66
829.655	107.01
829.833	76.29
830.01	66.05
830.187	184.83
830.364	70.14
830.542	57.86
830.719	41.47
830.896	117.25
831.073	61.95
831.25	84.48
831.427	25.09
831.604	-22.02
831.782	29.18
831.959	90.62
832.136	23.04
832.313	88.57
832.49	57.86
832.667	20.99
832.844	31.23
833.021	72.19
833.198	27.14
833.374	88.57
833.551	18.94
833.728	53.76
833.905	53.76
834.082	49.66
834.259	61.95
834.436	66.05
834.612	33.28
834.789	10.75
834.966	35.33
835.143	-5.63
835.319	55.81
835.496	90.62
835.673	51.71
835.85	43.52
836.026	78.33
836.203	98.81
836.38	20.99
836.556	12.8
836.733	43.52
836.909	104.96
837.086	80.38
837.262	55.81
837.439	-30.21
837.616	-1.54
837.792	98.81
837.968	61.95
838.145	-32.26
838.321	35.33
838.498	84.48
838.674	109.05
838.851	-13.82
839.027	-13.82
839.203	41.47
839.38	49.66
839.556	125.44
839.732	66.05
839.909	-13.82
840.085	4.61
840.261	37.38
840.437	-1.54
840.614	25.09
840.79	123.39
840.966	0.51
841.142	66.05
841.318	76.29
841.494	-3.58
841.671	35.33
841.847	-65.02
842.023	23.04
842.199	84.48
842.375	61.95
842.551	68.09
842.727	-22.02
842.903	78.33
843.079	6.66
843.255	82.43
843.431	23.04
843.607	27.14
843.783	23.04
843.959	88.57
844.134	18.94
844.31	8.7
844.486	20.99
844.662	39.42
844.838	84.48
845.013	37.38
845.189	-46.59
845.365	72.19
845.541	12.8
845.716	82.43
845.892	23.04
846.068	78.33
846.244	-44.54
846.419	-17.92
846.595	47.62
846.77	100.86
846.946	27.14
847.122	35.33
847.297	25.09
847.473	57.86
847.648	-11.78
847.824	66.05
847.999	18.94
848.175	80.38
848.35	12.8
848.526	-24.06
848.701	-22.02
848.876	2.56
849.052	14.85
849.227	39.42
849.403	0.51
849.578	76.29
849.753	-36.35
849.929	35.33
850.104	-11.78
850.279	45.57
850.454	74.24
850.63	-17.92
850.805	43.52
850.98	45.57
851.155	37.38
851.33	45.57
851.505	68.09
851.681	51.71
851.856	70.14
852.031	35.33
852.206	61.95
852.381	10.75
852.556	76.29
852.731	23.04
852.906	53.76
853.081	8.7
853.256	2.56
853.431	86.53
853.606	-30.21
853.781	39.42
853.956	41.47
854.131	-32.26
854.305	-52.74
854.48	49.66
854.655	80.38
854.83	82.43
855.005	-3.58
855.18	23.04
855.354	31.23
855.529	18.94
855.704	10.75
855.879	-5.63
856.053	70.14
856.228	33.28
856.403	-60.93
856.577	51.71
856.752	25.09
856.926	10.75
857.101	-34.3
857.276	45.57
857.45	-22.02
857.625	37.38
857.799	55.81
857.974	25.09
858.148	10.75
858.323	43.52
858.497	43.52
858.672	4.61
858.846	4.61
859.02	27.14
859.195	-19.97
859.369	-13.82
859.543	35.33
859.718	27.14
859.892	-19.97
860.066	16.9
860.241	-3.58
860.415	8.7
860.589	14.85
860.763	20.99
860.938	-60.93
861.112	57.86
861.286	-9.73
861.46	-28.16
861.634	-11.78
861.808	47.62
861.982	6.66
862.157	8.7
862.331	6.66
862.505	35.33
862.679	4.61
862.853	43.52
863.027	-26.11
863.201	-15.87
863.375	43.52
863.549	45.57
863.722	35.33
863.896	94.72
864.07	96.77
864.244	0.51
864.418	-7.68
864.592	0.51
864.766	43.52
864.939	43.52
865.113	-15.87
865.287	47.62
865.461	12.8
865.634	25.09
865.808	-58.88
865.982	-5.63
866.156	-1.54
866.329	-38.4
866.503	-30.21
866.676	55.81
866.85	41.47
867.024	10.75
867.197	16.9
867.371	-34.3
867.544	27.14
867.718	0.51
867.891	-5.63
868.065	37.38
868.238	16.9
868.412	6.66
868.585	-11.78
868.759	78.33
868.932	29.18
869.105	-7.68
869.279	6.66
869.452	-50.69
869.625	-19.97
869.799	92.67
869.972	-22.02
870.145	-22.02
870.319	14.85
870.492	-38.4
870.665	49.66
870.838	2.56
871.011	-110.08
871.185	51.71
871.358	20.99
871.531	35.33
871.704	27.14
871.877	16.9
872.05	-67.07
872.223	-30.21
872.396	84.48
872.569	72.19
872.742	-15.87
872.915	64
873.088	43.52
873.261	14.85
873.434	61.95
873.607	57.86
873.78	45.57
873.953	20.99
874.126	2.56
874.299	35.33
874.471	-5.63
874.644	8.7
874.817	10.75
874.99	47.62
875.163	6.66
875.335	31.23
875.508	20.99
875.681	35.33
875.853	-9.73
876.026	0.51
876.199	-7.68
876.371	-13.82
876.544	-40.45
876.717	-3.58
876.889	16.9
877.062	-11.78
877.234	18.94
877.407	-36.35
877.579	14.85
877.752	27.14
877.924	64
878.097	14.85
878.269	4.61
878.442	10.75
878.614	-19.97
878.786	27.14
878.959	68.09
879.131	-36.35
879.303	-42.5
879.476	43.52
879.648	-22.02
879.82	-30.21
879.993	-26.11
880.165	29.18
880.337	-7.68
880.509	0.51
880.681	-26.11
880.854	-58.88
881.026	-3.58
881.198	23.04
881.37	10.75
881.542	18.94
881.714	39.42
881.886	-69.12
882.058	12.8
882.23	10.75
882.402	-13.82
882.574	-30.21
882.746	31.23
882.918	2.56
883.09	59.9
883.262	41.47
883.434	-34.3
883.606	-22.02
883.778	-71.17
883.95	20.99
884.122	-75.26
884.293	16.9
884.465	102.91
884.637	41.47
884.809	-120.32
884.98	2.56
885.152	-28.16
885.324	31.23
885.496	4.61
885.667	57.86
885.839	18.94
886.011	57.86
886.182	37.38
886.354	39.42
886.525	18.94
886.697	37.38
886.869	4.61
887.04	0.51
887.212	55.81
887.383	33.28
887.555	-3.58
887.726	45.57
887.897	-42.5
888.069	-46.59
888.24	-32.26
888.412	-17.92
888.583	-30.21
888.754	43.52
888.926	-26.11
889.097	-77.31
889.268	-62.98
889.44	-11.78
889.611	-19.97
889.782	-22.02
889.953	-46.59
890.125	35.33
890.296	-30.21
890.467	23.04
890.638	-15.87
890.809	43.52
890.98	-13.82
891.151	-54.78
891.323	55.81
891.494	-19.97
891.665	90.62
891.836	2.56
892.007	27.14
892.178	23.04
892.349	20.99
892.52	82.43
892.691	-1.54
892.862	-46.59
893.032	23.04
893.203	-3.58
893.374	-5.63
893.545	-1.54
893.716	-3.58
893.887	-5.63
894.057	-44.54
894.228	6.66
894.399	-26.11
894.57	82.43
894.74	2.56
894.911	-9.73
895.082	23.04
895.253	80.38
895.423	-40.45
895.594	-13.82
895.764	-13.82
895.935	45.57
896.106	4.61
896.276	12.8
896.447	-34.3
896.617	33.28
896.788	-36.35
896.958	2.56
897.129	16.9
897.299	57.86
897.47	66.05
897.64	-24.06
897.81	-48.64
897.981	64
898.151	-7.68
898.322	6.66
898.492	23.04
898.662	-44.54
898.832	74.24
899.003	61.95
899.173	-26.11
899.343	-40.45
899.513	8.7
