Data from USB4F104151__90__13-00-05-139.txt Node

Date: Fri Mar 14 13:00:05 EDT 2025
User: louis
Spectrometer: USB4F10415
Trigger mode: 4
Integration Time (sec): 1.000000E-2
Scans to average: 1
Electric dark correction enabled: true
Nonlinearity correction enabled: false
Boxcar width: 0
XAxis mode: Wavelengths
Number of Pixels in Spectrum: 3648
>>>>>Begin Spectral Data<<<<<
178.204	-18.43
178.424	-18.43
178.644	-18.43
178.864	-57.34
179.084	49.15
179.304	-45.06
179.524	55.3
179.744	-24.58
179.964	6.14
180.184	20.48
180.404	55.3
180.624	-10.24
180.844	-26.62
181.064	8.19
181.283	12.29
181.503	-43.01
181.723	-8.19
181.943	20.48
182.163	0
182.383	28.67
182.602	55.3
182.822	2.05
183.042	-14.34
183.262	-51.2
183.482	45.06
183.701	16.38
183.921	16.38
184.141	51.2
184.361	14.34
184.58	102.4
184.8	16.38
185.02	2.05
185.239	69.63
185.459	49.15
185.679	8.19
185.898	-6.14
186.118	67.58
186.338	-28.67
186.557	20.48
186.777	-18.43
186.997	75.77
187.216	-24.58
187.436	92.16
187.655	-36.86
187.875	73.73
188.095	61.44
188.314	38.91
188.534	-26.62
188.753	-6.14
188.973	16.38
189.192	20.48
189.412	-12.29
189.631	26.62
189.851	34.82
190.07	112.64
190.29	-30.72
190.509	-18.43
190.729	14.34
190.948	12.29
191.168	77.82
191.387	26.62
191.607	-4.1
191.826	67.58
192.045	-14.34
192.265	20.48
192.484	10.24
192.704	20.48
192.923	28.67
193.142	57.34
193.362	43.01
193.581	8.19
193.8	4.1
194.02	-38.91
194.239	-4.1
194.458	40.96
194.678	-28.67
194.897	-4.1
195.116	22.53
195.335	59.39
195.555	14.34
195.774	20.48
195.993	43.01
196.212	-4.1
196.432	51.2
196.651	26.62
196.87	49.15
197.089	90.11
197.308	-28.67
197.528	-10.24
197.747	32.77
197.966	57.34
198.185	86.01
198.404	-2.05
198.623	-43.01
198.842	24.58
199.062	12.29
199.281	26.62
199.5	20.48
199.719	51.2
199.938	53.25
200.157	75.77
200.376	28.67
200.595	16.38
200.814	24.58
201.033	34.82
201.252	34.82
201.471	20.48
201.69	45.06
201.909	-12.29
202.128	45.06
202.347	18.43
202.566	26.62
202.785	2.05
203.004	22.53
203.223	4.1
203.442	14.34
203.661	-30.72
203.879	4.1
204.098	67.58
204.317	14.34
204.536	-6.14
204.755	45.06
204.974	67.58
205.193	94.21
205.411	65.53
205.63	81.92
205.849	-14.34
206.068	-38.91
206.287	-28.67
206.505	20.48
206.724	53.25
206.943	-10.24
207.162	69.63
207.381	51.2
207.599	22.53
207.818	10.24
208.037	47.1
208.255	-6.14
208.474	47.1
208.693	24.58
208.911	28.67
209.13	-30.72
209.349	18.43
209.567	57.34
209.786	55.3
210.005	45.06
210.223	30.72
210.442	-20.48
210.661	51.2
210.879	63.49
211.098	-14.34
211.316	-8.19
211.535	40.96
211.753	34.82
211.972	32.77
212.191	6.14
212.409	73.73
212.628	34.82
212.846	18.43
213.065	36.86
213.283	10.24
213.502	22.53
213.72	40.96
213.938	-10.24
214.157	26.62
214.375	81.92
214.594	59.39
214.812	6.14
215.031	-6.14
215.249	-2.05
215.467	55.3
215.686	-14.34
215.904	135.17
216.122	-8.19
216.341	75.77
216.559	47.1
216.778	45.06
216.996	-12.29
217.214	-24.58
217.432	30.72
217.651	47.1
217.869	24.58
218.087	12.29
218.306	0
218.524	139.26
218.742	8.19
218.96	28.67
219.179	-22.53
219.397	104.45
219.615	32.77
219.833	26.62
220.051	-4.1
220.27	-12.29
220.488	16.38
220.706	-22.53
220.924	-30.72
221.142	22.53
221.36	61.44
221.578	43.01
221.796	-12.29
222.015	45.06
222.233	53.25
222.451	-45.06
222.669	6.14
222.887	4.1
223.105	45.06
223.323	18.43
223.541	122.88
223.759	30.72
223.977	10.24
224.195	2.05
224.413	18.43
224.631	-16.38
224.849	63.49
225.067	63.49
225.285	77.82
225.503	-30.72
225.721	-110.59
225.939	40.96
226.157	36.86
226.375	45.06
226.592	75.77
226.81	32.77
227.028	94.21
227.246	14.34
227.464	-6.14
227.682	-38.91
227.9	86.01
228.117	2.05
228.335	43.01
228.553	-14.34
228.771	12.29
228.989	83.97
229.206	-36.86
229.424	30.72
229.642	-2.05
229.86	-2.05
230.077	14.34
230.295	-28.67
230.513	94.21
230.731	40.96
230.948	75.77
231.166	86.01
231.384	36.86
231.601	-22.53
231.819	-6.14
232.037	22.53
232.254	22.53
232.472	47.1
232.689	28.67
232.907	14.34
233.125	22.53
233.342	20.48
233.56	92.16
233.777	96.25
233.995	30.72
234.213	73.73
234.43	34.82
234.648	49.15
234.865	-24.58
235.083	26.62
235.3	-12.29
235.518	34.82
235.735	10.24
235.953	59.39
236.17	-4.1
236.388	4.1
236.605	-18.43
236.822	-4.1
237.04	-8.19
237.257	4.1
237.475	4.1
237.692	-20.48
237.909	32.77
238.127	14.34
238.344	-47.1
238.562	20.48
238.779	77.82
238.996	26.62
239.214	-2.05
239.431	98.3
239.648	-12.29
239.865	24.58
240.083	-26.62
240.3	-61.44
240.517	18.43
240.735	53.25
240.952	-34.82
241.169	-6.14
241.386	28.67
241.603	30.72
241.821	26.62
242.038	4.1
242.255	-2.05
242.472	4.1
242.689	-32.77
242.907	16.38
243.124	22.53
243.341	-16.38
243.558	77.82
243.775	-6.14
243.992	43.01
244.209	24.58
244.426	47.1
244.643	10.24
244.86	4.1
245.078	124.93
245.295	40.96
245.512	16.38
245.729	-4.1
245.946	-20.48
246.163	6.14
246.38	-6.14
246.597	-40.96
246.814	59.39
247.031	8.19
247.248	51.2
247.464	12.29
247.681	36.86
247.898	-16.38
248.115	6.14
248.332	32.77
248.549	2.05
248.766	26.62
248.983	38.91
249.2	32.77
249.417	-51.2
249.633	10.24
249.85	-24.58
250.067	12.29
250.284	14.34
250.501	16.38
250.717	51.2
250.934	-53.25
251.151	6.14
251.368	51.2
251.585	81.92
251.801	-6.14
252.018	32.77
252.235	8.19
252.451	18.43
252.668	20.48
252.885	6.14
253.102	18.43
253.318	28.67
253.535	4.1
253.752	-8.19
253.968	-20.48
254.185	-59.39
254.401	-18.43
254.618	73.73
254.835	24.58
255.051	55.3
255.268	-2.05
255.484	-20.48
255.701	75.77
255.917	16.38
256.134	-79.87
256.351	32.77
256.567	47.1
256.784	14.34
257	-18.43
257.217	-14.34
257.433	-4.1
257.65	59.39
257.866	-14.34
258.082	6.14
258.299	-2.05
258.515	0
258.732	-14.34
258.948	6.14
259.165	24.58
259.381	2.05
259.597	36.86
259.814	30.72
260.03	57.34
260.246	34.82
260.463	38.91
260.679	28.67
260.895	49.15
261.112	38.91
261.328	-55.3
261.544	4.1
261.761	4.1
261.977	2.05
262.193	30.72
262.409	69.63
262.626	20.48
262.842	100.35
263.058	-4.1
263.274	32.77
263.49	-38.91
263.707	81.92
263.923	71.68
264.139	43.01
264.355	10.24
264.571	-18.43
264.787	14.34
265.004	26.62
265.22	65.53
265.436	-32.77
265.652	34.82
265.868	100.35
266.084	-14.34
266.3	90.11
266.516	24.58
266.732	75.77
266.948	-12.29
267.164	-6.14
267.38	77.82
267.596	22.53
267.812	12.29
268.028	90.11
268.244	-4.1
268.46	51.2
268.676	-18.43
268.892	88.06
269.108	-30.72
269.324	2.05
269.54	-14.34
269.756	-26.62
269.972	98.3
270.188	63.49
270.403	-28.67
270.619	12.29
270.835	-53.25
271.051	36.86
271.267	-38.91
271.483	129.02
271.698	20.48
271.914	2.05
272.13	-28.67
272.346	20.48
272.562	-14.34
272.777	4.1
272.993	61.44
273.209	10.24
273.425	-14.34
273.64	12.29
273.856	-28.67
274.072	10.24
274.287	2.05
274.503	63.49
274.719	-49.15
274.934	73.73
275.15	2.05
275.366	-10.24
275.581	16.38
275.797	26.62
276.012	71.68
276.228	40.96
276.444	-8.19
276.659	92.16
276.875	51.2
277.09	47.1
277.306	10.24
277.521	34.82
277.737	-22.53
277.952	53.25
278.168	-20.48
278.383	32.77
278.599	-2.05
278.814	71.68
279.03	10.24
279.245	94.21
279.461	43.01
279.676	-20.48
279.892	-20.48
280.107	79.87
280.322	2.05
280.538	-4.1
280.753	-14.34
280.969	2.05
281.184	57.34
281.399	69.63
281.615	-6.14
281.83	77.82
282.045	-36.86
282.26	30.72
282.476	79.87
282.691	43.01
282.906	-14.34
283.122	10.24
283.337	4.1
283.552	59.39
283.767	-53.25
283.983	88.06
284.198	83.97
284.413	65.53
284.628	40.96
284.843	34.82
285.058	-12.29
285.274	-47.1
285.489	32.77
285.704	12.29
285.919	-26.62
286.134	4.1
286.349	-104.45
286.564	22.53
286.779	34.82
286.995	22.53
287.21	61.44
287.425	32.77
287.64	14.34
287.855	26.62
288.07	0
288.285	22.53
288.5	34.82
288.715	57.34
288.93	-22.53
289.145	-28.67
289.36	-6.14
289.575	55.3
289.79	53.25
290.004	34.82
290.219	-28.67
290.434	8.19
290.649	16.38
290.864	47.1
291.079	40.96
291.294	-12.29
291.509	10.24
291.724	12.29
291.938	-26.62
292.153	22.53
292.368	-2.05
292.583	2.05
292.798	-4.1
293.012	67.58
293.227	32.77
293.442	102.4
293.657	14.34
293.871	55.3
294.086	112.64
294.301	43.01
294.516	49.15
294.73	-14.34
294.945	108.54
295.16	18.43
295.374	-16.38
295.589	22.53
295.804	-8.19
296.018	4.1
296.233	16.38
296.447	-20.48
296.662	135.17
296.877	45.06
297.091	34.82
297.306	24.58
297.52	-4.1
297.735	55.3
297.949	6.14
298.164	18.43
298.378	51.2
298.593	34.82
298.807	-22.53
299.022	75.77
299.236	10.24
299.451	34.82
299.665	-55.3
299.88	-4.1
300.094	26.62
300.309	-16.38
300.523	63.49
300.737	67.58
300.952	12.29
301.166	47.1
301.381	14.34
301.595	51.2
301.809	59.39
302.024	53.25
302.238	14.34
302.452	71.68
302.667	51.2
302.881	94.21
303.095	38.91
303.309	59.39
303.524	14.34
303.738	2.05
303.952	69.63
304.166	32.77
304.381	-8.19
304.595	51.2
304.809	-45.06
305.023	55.3
305.237	100.35
305.452	57.34
305.666	81.92
305.88	26.62
306.094	43.01
306.308	18.43
306.522	102.4
306.736	-32.77
306.95	-22.53
307.164	-24.58
307.379	-57.34
307.593	63.49
307.807	59.39
308.021	59.39
308.235	75.77
308.449	38.91
308.663	14.34
308.877	6.14
309.091	10.24
309.305	75.77
309.519	-6.14
309.733	55.3
309.947	2.05
310.161	75.77
310.374	59.39
310.588	61.44
310.802	-16.38
311.016	59.39
311.23	-12.29
311.444	18.43
311.658	40.96
311.872	-14.34
312.085	22.53
312.299	65.53
312.513	67.58
312.727	28.67
312.941	-63.49
313.154	63.49
313.368	57.34
313.582	40.96
313.796	28.67
314.009	59.39
314.223	6.14
314.437	53.25
314.651	20.48
314.864	45.06
315.078	-10.24
315.292	45.06
315.505	34.82
315.719	10.24
315.933	73.73
316.146	116.73
316.36	24.58
316.573	-26.62
316.787	-32.77
317.001	30.72
317.214	22.53
317.428	75.77
317.641	10.24
317.855	36.86
318.068	-6.14
318.282	30.72
318.495	96.25
318.709	40.96
318.922	-14.34
319.136	63.49
319.349	49.15
319.563	63.49
319.776	71.68
319.99	-28.67
320.203	38.91
320.417	51.2
320.63	-6.14
320.843	67.58
321.057	53.25
321.27	55.3
321.483	28.67
321.697	100.35
321.91	-18.43
322.124	32.77
322.337	-38.91
322.55	86.01
322.763	40.96
322.977	28.67
323.19	34.82
323.403	12.29
323.617	-6.14
323.83	67.58
324.043	32.77
324.256	90.11
324.469	32.77
324.683	28.67
324.896	-40.96
325.109	30.72
325.322	18.43
325.535	26.62
325.748	40.96
325.962	8.19
326.175	30.72
326.388	47.1
326.601	12.29
326.814	34.82
327.027	67.58
327.24	96.25
327.453	20.48
327.666	22.53
327.879	-34.82
328.092	163.84
328.305	8.19
328.518	61.44
328.731	-4.1
328.944	53.25
329.157	32.77
329.37	65.53
329.583	-6.14
329.796	28.67
330.009	10.24
330.222	43.01
330.435	-2.05
330.648	47.1
330.861	73.73
331.073	-47.1
331.286	16.38
331.499	12.29
331.712	45.06
331.925	-14.34
332.138	59.39
332.35	49.15
332.563	-43.01
332.776	0
332.989	28.67
333.202	40.96
333.414	59.39
333.627	55.3
333.84	-16.38
334.053	18.43
334.265	-10.24
334.478	6.14
334.691	26.62
334.903	28.67
335.116	57.34
335.329	26.62
335.541	51.2
335.754	24.58
335.966	10.24
336.179	40.96
336.392	36.86
336.604	38.91
336.817	32.77
337.029	40.96
337.242	-16.38
337.454	34.82
337.667	114.69
337.88	43.01
338.092	-8.19
338.305	34.82
338.517	-34.82
338.729	4.1
338.942	88.06
339.154	34.82
339.367	59.39
339.579	59.39
339.792	-20.48
340.004	34.82
340.217	-22.53
340.429	36.86
340.641	22.53
340.854	-36.86
341.066	57.34
341.278	53.25
341.491	36.86
341.703	69.63
341.915	34.82
342.128	92.16
342.34	36.86
342.552	98.3
342.764	-6.14
342.977	14.34
343.189	30.72
343.401	-12.29
343.613	-16.38
343.826	20.48
344.038	20.48
344.25	-38.91
344.462	30.72
344.674	-2.05
344.886	12.29
345.099	55.3
345.311	10.24
345.523	59.39
345.735	69.63
345.947	20.48
346.159	-28.67
346.371	18.43
346.583	18.43
346.795	55.3
347.007	14.34
347.219	4.1
347.431	45.06
347.643	110.59
347.855	38.91
348.067	45.06
348.279	53.25
348.491	34.82
348.703	51.2
348.915	22.53
349.127	-22.53
349.339	83.97
349.551	8.19
349.763	59.39
349.975	28.67
350.187	73.73
350.399	53.25
350.61	26.62
350.822	22.53
351.034	43.01
351.246	26.62
351.458	40.96
351.669	8.19
351.881	51.2
352.093	86.01
352.305	30.72
352.517	-20.48
352.728	69.63
352.94	34.82
353.152	-36.86
353.363	49.15
353.575	75.77
353.787	90.11
353.999	53.25
354.21	45.06
354.422	61.44
354.633	26.62
354.845	-43.01
355.057	38.91
355.268	49.15
355.48	77.82
355.692	6.14
355.903	16.38
356.115	-47.1
356.326	-28.67
356.538	43.01
356.749	-49.15
356.961	65.53
357.172	20.48
357.384	20.48
357.595	77.82
357.807	0
358.018	69.63
358.23	51.2
358.441	108.54
358.653	2.05
358.864	16.38
359.075	57.34
359.287	20.48
359.498	57.34
359.709	55.3
359.921	67.58
360.132	-32.77
360.344	-22.53
360.555	-4.1
360.766	69.63
360.977	-43.01
361.189	10.24
361.4	26.62
361.611	-10.24
361.823	34.82
362.034	53.25
362.245	-4.1
362.456	75.77
362.667	75.77
362.879	61.44
363.09	63.49
363.301	24.58
363.512	36.86
363.723	69.63
363.935	10.24
364.146	79.87
364.357	30.72
364.568	6.14
364.779	-2.05
364.99	81.92
365.201	26.62
365.412	114.69
365.623	28.67
365.834	-36.86
366.045	24.58
366.256	18.43
366.467	-2.05
366.678	-10.24
366.889	45.06
367.1	47.1
367.311	61.44
367.522	-36.86
367.733	67.58
367.944	59.39
368.155	-10.24
368.366	14.34
368.577	90.11
368.788	10.24
368.999	32.77
369.209	59.39
369.42	-12.29
369.631	34.82
369.842	-6.14
370.053	14.34
370.264	-34.82
370.474	79.87
370.685	45.06
370.896	57.34
371.107	38.91
371.317	-12.29
371.528	26.62
371.739	2.05
371.95	77.82
372.16	28.67
372.371	12.29
372.582	51.2
372.792	32.77
373.003	86.01
373.214	-2.05
373.424	59.39
373.635	12.29
373.846	51.2
374.056	-12.29
374.267	24.58
374.477	28.67
374.688	-30.72
374.898	-12.29
375.109	43.01
375.319	16.38
375.53	22.53
375.74	18.43
375.951	45.06
376.161	116.73
376.372	88.06
376.582	-8.19
376.793	51.2
377.003	47.1
377.214	71.68
377.424	26.62
377.635	67.58
377.845	22.53
378.055	38.91
378.266	-26.62
378.476	43.01
378.686	32.77
378.897	34.82
379.107	16.38
379.317	122.88
379.528	73.73
379.738	45.06
379.948	81.92
380.158	65.53
380.369	-55.3
380.579	-8.19
380.789	22.53
380.999	24.58
381.21	61.44
381.42	2.05
381.63	86.01
381.84	51.2
382.05	4.1
382.261	16.38
382.471	57.34
382.681	51.2
382.891	18.43
383.101	81.92
383.311	30.72
383.521	4.1
383.731	32.77
383.941	98.3
384.151	20.48
384.361	75.77
384.571	20.48
384.781	26.62
384.991	38.91
385.201	61.44
385.411	16.38
385.621	61.44
385.831	26.62
386.041	108.54
386.251	-45.06
386.461	83.97
386.671	92.16
386.881	26.62
387.091	22.53
387.301	-10.24
387.511	-6.14
387.72	86.01
387.93	28.67
388.14	30.72
388.35	4.1
388.56	83.97
388.769	14.34
388.979	112.64
389.189	4.1
389.399	51.2
389.609	43.01
389.818	20.48
390.028	12.29
390.238	4.1
390.447	43.01
390.657	28.67
390.867	43.01
391.076	26.62
391.286	18.43
391.496	81.92
391.705	59.39
391.915	55.3
392.125	75.77
392.334	51.2
392.544	-22.53
392.753	-12.29
392.963	49.15
393.172	28.67
393.382	24.58
393.591	4.1
393.801	55.3
394.01	63.49
394.22	77.82
394.429	34.82
394.639	45.06
394.848	116.73
395.058	12.29
395.267	38.91
395.477	-28.67
395.686	34.82
395.895	40.96
396.105	34.82
396.314	63.49
396.524	63.49
396.733	22.53
396.942	32.77
397.152	45.06
397.361	12.29
397.57	28.67
397.78	65.53
397.989	28.67
398.198	2.05
398.407	90.11
398.617	12.29
398.826	-10.24
399.035	26.62
399.244	18.43
399.453	14.34
399.663	90.11
399.872	122.88
400.081	65.53
400.29	75.77
400.499	-12.29
400.708	51.2
400.917	69.63
401.127	26.62
401.336	45.06
401.545	151.55
401.754	92.16
401.963	36.86
402.172	45.06
402.381	30.72
402.59	73.73
402.799	124.93
403.008	24.58
403.217	38.91
403.426	69.63
403.635	16.38
403.844	77.82
404.053	120.83
404.262	57.34
404.471	124.93
404.68	12.29
404.888	81.92
405.097	55.3
405.306	98.3
405.515	98.3
405.724	118.78
405.933	79.87
406.142	34.82
406.35	77.82
406.559	75.77
406.768	32.77
406.977	77.82
407.185	124.93
407.394	143.36
407.603	96.25
407.812	120.83
408.02	143.36
408.229	118.78
408.438	47.1
408.646	79.87
408.855	126.97
409.064	129.02
409.272	143.36
409.481	190.46
409.69	135.17
409.898	157.69
410.107	133.12
410.315	141.31
410.524	120.83
410.733	155.65
410.941	178.17
411.15	133.12
411.358	217.08
411.567	139.26
411.775	233.47
411.984	206.84
412.192	163.84
412.401	217.08
412.609	206.84
412.818	200.7
413.026	221.18
413.234	243.71
413.443	167.93
413.651	225.28
413.86	235.52
414.068	339.96
414.276	299
414.485	264.19
414.693	296.96
414.901	325.63
415.11	372.73
415.318	266.24
415.526	321.53
415.734	321.53
415.943	362.49
416.151	299
416.359	315.39
416.567	352.25
416.776	526.33
416.984	493.56
417.192	448.51
417.4	385.02
417.608	411.64
417.817	425.98
418.025	489.46
418.233	497.66
418.441	501.75
418.649	509.94
418.857	542.71
419.065	624.63
419.273	593.91
419.481	624.63
419.689	567.29
419.897	655.35
420.105	643.06
420.313	606.2
420.521	690.17
420.729	677.88
420.937	698.36
421.145	839.67
421.353	796.66
421.561	735.22
421.769	802.8
421.977	878.58
422.185	886.77
422.393	929.78
422.601	954.35
422.809	948.21
423.017	962.55
423.224	1091.57
423.432	1093.62
423.64	1023.98
423.848	1093.62
424.056	976.88
424.263	1132.53
424.471	1198.06
424.679	1236.97
424.887	1290.22
425.094	1294.32
425.302	1374.19
425.51	1361.9
425.718	1413.1
425.925	1409
426.133	1394.67
426.341	1574.89
426.548	1662.95
426.756	1619.94
426.964	1802.21
427.171	1800.16
427.379	1877.99
427.586	1845.22
427.794	1914.85
428.001	1824.74
428.209	2004.96
428.417	2084.83
428.624	2181.09
428.832	2080.74
429.039	2129.89
429.247	2258.91
429.454	2287.58
429.662	2418.65
429.869	2330.59
430.076	2488.28
430.284	2428.89
430.491	2484.19
430.699	2723.8
430.906	2764.76
431.114	2658.26
431.321	2930.64
431.528	3008.47
431.736	3065.81
431.943	3108.82
432.15	3123.15
432.358	3233.74
432.565	3274.7
432.772	3364.81
432.979	3426.25
433.187	3631.05
433.394	3637.19
433.601	3739.59
433.808	3860.42
434.016	3846.09
434.223	4007.87
434.43	4237.25
434.637	4198.34
434.844	4306.88
435.052	4466.62
435.259	4247.49
435.466	4485.05
435.673	4409.28
435.88	4591.55
436.087	4962.23
436.294	4958.13
436.501	4943.8
436.708	4841.4
436.915	5013.43
437.122	5466.03
437.329	5423.02
437.537	5572.52
437.743	5617.58
437.95	5296.05
438.157	5855.14
438.364	5877.67
438.571	6064.04
438.778	6074.28
438.985	6627.23
439.192	6279.07
439.399	6453.15
439.606	6674.33
439.813	6915.99
440.02	7235.47
440.227	6938.52
440.433	7004.05
440.64	7163.79
440.847	6991.77
441.054	7341.97
441.261	7917.45
441.467	7954.31
441.674	8038.28
441.881	8025.99
442.088	8079.24
442.294	8118.15
442.501	8566.65
442.708	8705.92
442.914	8834.94
443.121	9205.62
443.328	8996.73
443.534	9594.73
443.741	9273.2
443.948	9191.28
444.154	9785.19
444.361	9895.78
444.568	9701.23
444.774	10186.6
444.981	10241.89
445.187	10252.13
445.394	10755.93
445.6	10682.2
445.807	11777.87
446.013	11233.11
446.22	11431.76
446.426	11769.68
446.633	12029.77
446.839	12447.55
447.046	11874.12
447.252	12582.72
447.459	12797.76
447.665	12457.79
447.871	13084.47
448.078	13567.79
448.284	13111.1
448.491	13625.14
448.697	14030.63
448.903	14124.84
449.11	14438.18
449.316	14028.59
449.522	14247.72
449.728	14741.28
449.935	14747.42
450.141	14931.74
450.347	15066.91
450.553	14817.05
450.76	15021.85
450.966	15597.33
451.172	15441.68
451.378	15615.76
451.584	15488.79
451.791	15857.42
451.997	15656.72
452.203	16054.03
452.409	16060.17
452.615	15855.37
452.821	15296.28
453.027	15265.56
453.233	15996.68
453.44	15558.42
453.646	15372.05
453.852	15709.97
454.058	16035.6
454.264	15486.74
454.47	15769.36
454.676	15490.84
454.882	16094.99
455.088	14698.27
455.294	14761.76
455.5	15064.86
455.705	15314.71
455.911	14479.14
456.117	14280.49
456.323	14202.66
456.529	13293.37
456.735	13850.41
456.941	13582.13
457.147	13440.82
457.352	13121.34
457.558	12740.41
457.764	12824.38
457.97	12439.36
458.176	12549.95
458.381	12517.18
458.587	11845.45
458.793	11779.92
458.999	11278.16
459.204	12025.67
459.41	11882.31
459.616	10751.84
459.821	11042.65
460.027	10932.06
460.233	10639.2
460.438	10110.82
460.644	10102.63
460.85	9856.87
461.055	9844.59
461.261	9717.61
461.466	8894.33
461.672	8800.12
461.878	9189.24
462.083	8697.72
462.289	8513.41
462.494	8433.54
462.7	8058.76
462.905	7802.76
463.111	8236.93
463.316	8058.76
463.522	7964.55
463.727	8048.52
463.932	7942.02
464.138	7886.73
464.343	7853.96
464.549	7589.77
464.754	7937.93
464.959	7868.3
465.165	7821.19
465.37	7567.24
465.575	7163.79
465.781	7651.21
465.986	7464.85
466.191	7288.72
466.397	7253.91
466.602	6891.41
466.807	7083.92
467.012	7045.01
467.218	7008.15
467.423	6877.08
467.628	7112.6
467.833	7331.73
468.038	6981.53
468.244	6946.71
468.449	7171.99
468.654	6981.53
468.859	6799.26
469.064	6942.61
469.269	6590.36
469.474	6535.07
469.679	6872.98
469.885	6592.41
470.09	6795.16
470.295	6655.9
470.5	6348.7
470.705	6449.05
470.91	6303.65
471.115	6334.37
471.32	6371.23
471.525	6326.18
471.73	6254.5
471.935	6182.82
472.139	6145.95
472.344	6145.95
472.549	5986.21
472.754	5889.96
472.959	5959.59
473.164	5736.36
473.369	5705.64
473.574	5783.46
473.778	5820.33
473.983	5781.42
474.188	5611.43
474.393	5547.95
474.598	5504.94
474.802	5515.18
475.007	5382.06
475.212	5349.29
475.417	5296.05
475.621	5255.09
475.826	5175.22
476.031	5169.07
476.235	5025.72
476.44	5121.97
476.645	5044.15
476.849	5021.62
477.054	4997.04
477.259	4978.61
477.463	4800.44
477.668	4822.97
477.872	4806.58
478.077	4882.36
478.282	4657.08
478.486	4722.62
478.691	4624.31
478.895	4609.98
479.1	4505.53
479.304	4538.3
479.509	4345.79
479.713	4589.5
479.918	4450.24
480.122	4304.83
480.326	4392.89
480.531	4421.56
480.735	4317.12
480.94	4278.21
481.144	4450.24
481.348	4356.03
481.553	4315.07
481.757	4188.1
481.961	4319.17
482.166	4433.85
482.37	4351.93
482.574	4372.41
482.778	4206.53
482.983	4325.31
483.187	4233.15
483.391	4356.03
483.595	4253.63
483.8	4276.16
484.004	4173.76
484.208	4255.68
484.412	4310.97
484.616	4310.97
484.821	4372.41
485.025	4200.38
485.229	4300.73
485.433	4204.48
485.637	4276.16
485.841	4124.61
486.045	4317.12
486.249	4169.66
486.453	4224.96
486.657	4356.03
486.861	4216.77
487.065	4173.76
487.269	4333.5
487.473	4335.55
487.677	4272.06
487.881	4325.31
488.085	4356.03
488.289	4368.32
488.493	4394.94
488.697	4425.66
488.901	4313.02
489.105	4478.91
489.309	4188.1
489.512	4347.84
489.716	4523.96
489.92	4370.37
490.124	4302.78
490.328	4454.33
490.531	4384.7
490.735	4278.21
490.939	4452.28
491.143	4351.93
491.346	4485.05
491.55	4593.59
491.754	4507.58
491.958	4562.87
492.161	4620.22
492.365	4745.14
492.569	4573.11
492.772	4528.06
492.976	4685.75
493.18	4710.33
493.383	4779.96
493.587	4841.4
493.79	4743.1
493.994	4806.58
494.197	4825.01
494.401	4890.55
494.605	4810.68
494.808	4923.32
495.012	4814.77
495.215	4945.84
495.419	5023.67
495.622	4986.8
495.825	5003.19
496.029	5224.37
496.232	5025.72
496.436	5332.91
496.639	5408.69
496.843	5302.19
497.046	5347.25
497.249	5406.64
497.453	5529.52
497.656	5580.71
497.859	5631.91
498.063	5656.49
498.266	5824.42
498.469	5793.7
498.673	5967.78
498.876	6018.98
499.079	5959.59
499.282	6072.23
499.485	6156.19
499.689	6236.06
499.892	6242.21
500.095	6457.25
500.298	6442.91
500.501	6492.06
500.705	6510.49
500.908	6639.51
501.111	6717.34
501.314	6997.91
501.517	6725.53
501.72	7030.68
501.923	6926.23
502.126	7192.47
502.329	7282.58
502.532	7319.44
502.735	7389.07
502.938	7518.09
503.141	7595.92
503.344	7702.41
503.547	7704.46
503.75	7722.89
503.953	8130.44
504.156	8015.75
504.359	8042.37
504.562	8267.65
504.765	8308.61
504.968	8324.99
505.17	8642.43
505.373	8734.59
505.576	8779.64
505.779	8970.1
505.982	8929.14
506.185	9131.89
506.387	8933.24
506.59	9185.14
506.793	9394.03
506.996	9334.64
507.198	9596.78
507.401	9643.88
507.604	9746.28
507.807	10202.98
508.009	10088.29
508.212	10121.06
508.415	10194.79
508.617	10291.04
508.82	10610.53
509.022	10516.32
509.225	10749.79
509.428	10710.88
509.63	10782.56
509.833	11054.94
510.035	11269.97
510.238	11155.29
510.44	11704.14
510.643	11573.07
510.845	11605.84
511.048	11566.93
511.25	11849.55
511.453	11953.99
511.655	12465.99
511.858	12379.97
512.06	12482.37
512.262	12631.87
512.465	12574.53
512.667	12941.11
512.87	13184.82
513.072	12969.79
513.274	13252.41
513.477	13688.62
513.679	13571.89
513.881	13782.83
514.084	13805.36
514.286	13774.64
514.488	13987.63
514.69	14479.14
514.893	14528.29
515.095	14673.7
515.297	14685.98
515.499	14788.38
515.701	14784.29
515.904	15140.63
516.106	15423.25
516.308	15400.72
516.51	15591.19
516.712	15820.56
516.914	15830.8
517.116	16029.45
517.318	16090.89
517.52	16181
517.722	16363.27
517.925	16742.14
518.127	16877.31
518.329	16654.08
518.531	16846.59
518.733	17379.06
518.935	17485.56
519.136	17305.34
519.338	17536.76
519.54	17743.6
519.742	17764.08
519.944	18138.86
520.146	18302.7
520.348	18616.04
520.55	18521.83
520.752	18949.85
520.954	18898.66
521.155	19085.02
521.357	19316.44
521.559	19314.39
521.761	19723.99
521.963	19486.42
522.164	19789.52
522.366	20066
522.568	19916.5
522.77	20147.92
522.971	20377.29
523.173	20395.72
523.375	20571.85
523.576	20766.4
523.778	20782.79
523.98	21186.24
524.181	21155.52
524.383	21008.06
524.584	21339.83
524.786	21333.69
524.988	21413.56
525.189	21677.75
525.391	21774
525.592	21884.59
525.794	22085.29
525.995	22177.45
526.197	22105.77
526.398	22333.1
526.6	22501.03
526.801	22437.55
527.003	22324.91
527.204	22480.55
527.406	22814.37
527.607	22769.32
527.808	23066.27
528.01	22691.49
528.211	22814.37
528.412	23604.89
528.614	23088.8
528.815	23185.05
529.016	23559.83
529.218	23375.52
529.419	23410.33
529.62	23406.23
529.822	23529.11
530.023	23629.46
530.224	23608.98
530.425	23580.31
530.626	23516.83
530.828	23531.16
531.029	24057.49
531.23	23758.49
531.431	23641.75
531.632	24016.53
531.833	24159.89
532.035	23740.05
532.236	24137.36
532.437	24041.11
532.638	23871.12
532.839	24096.4
533.04	24399.5
533.241	23959.19
533.442	24364.68
533.643	24133.26
533.844	23834.26
534.045	24147.6
534.246	24155.79
534.447	24321.68
534.648	24247.95
534.849	24424.08
535.05	24282.77
535.251	24391.31
535.451	24250
535.652	24501.9
535.853	24301.2
536.054	24805
536.255	24487.56
536.456	24153.74
536.657	24598.15
536.857	24157.84
537.058	24206.99
537.259	24465.03
537.46	24370.83
537.66	24282.77
537.861	24225.42
538.062	24182.41
538.263	24721.03
538.463	24327.82
538.664	24186.51
538.865	24618.63
539.065	24612.49
539.266	24286.86
539.466	24557.19
539.667	24536.71
539.868	24630.92
540.068	24600.2
540.269	24471.18
540.469	24934.02
540.67	24485.51
540.87	24092.3
541.071	24346.25
541.271	24415.88
541.472	24505.99
541.672	24073.87
541.873	23953.04
542.073	24219.28
542.274	24827.53
542.474	24417.93
542.675	24530.57
542.875	24690.31
543.075	24432.27
543.276	24106.64
543.476	24725.13
543.676	23881.36
543.877	24647.3
544.077	24346.25
544.277	24080.02
544.478	23891.6
544.678	24374.92
544.878	24301.2
545.078	24598.15
545.279	24071.82
545.479	24204.94
545.679	24438.41
545.879	24454.79
546.079	24352.4
546.28	24209.04
546.48	24239.76
546.68	24438.41
546.88	24080.02
547.08	24143.5
547.28	24508.04
547.48	24262.29
547.68	24393.36
547.88	24194.7
548.081	24553.1
548.281	24301.2
548.481	24182.41
548.681	24151.7
548.881	24307.34
549.081	24213.13
549.28	24344.2
549.48	24454.79
549.68	24118.93
549.88	24485.51
550.08	24481.42
550.28	24270.48
550.48	24047.25
550.68	24440.46
550.88	24462.99
551.08	23979.67
551.279	24469.13
551.479	23891.6
551.679	24209.04
551.879	24215.18
552.079	24471.18
552.278	23967.38
552.478	23889.56
552.678	24303.25
552.878	24221.33
553.077	24002.19
553.277	23824.02
553.477	24163.98
553.676	24004.24
553.876	23864.98
554.076	23899.8
554.275	24131.22
554.475	23611.03
554.674	24180.37
554.874	24112.78
555.074	23948.95
555.273	23887.51
555.473	23979.67
555.672	23893.65
555.872	23938.71
556.071	23846.55
556.271	24137.36
556.47	23660.18
556.67	23324.32
556.869	23572.12
557.068	23744.15
557.268	23674.52
557.467	23850.64
557.667	23922.32
557.866	23629.46
558.065	23482.01
558.265	23361.18
558.464	23613.08
558.663	23801.49
558.863	23592.6
559.062	24018.58
559.261	23287.45
559.461	23703.19
559.66	23316.12
559.859	23334.56
560.058	23262.88
560.258	23522.97
560.457	23215.77
560.656	23498.39
560.855	23176.86
561.054	23066.27
561.253	23060.13
561.453	23395.99
561.652	23090.85
561.851	23217.82
562.05	22890.15
562.249	22884
562.448	23223.97
562.647	23226.01
562.846	23064.22
563.045	22871.72
563.244	22668.97
563.443	23008.93
563.642	22675.11
563.841	22541.99
564.04	22789.8
564.239	22924.96
564.438	22554.28
564.637	22750.88
564.836	22965.92
565.035	22660.77
565.234	22476.46
565.432	22419.11
565.631	22539.94
565.83	22623.91
566.029	22302.38
566.228	22345.39
566.427	22240.94
566.625	22351.53
566.824	21821.11
567.023	22425.26
567.222	21704.37
567.42	22062.77
567.619	22177.45
567.818	21997.23
568.016	21999.28
568.215	21909.17
568.414	21774
568.612	22068.91
568.811	21755.57
569.01	21694.13
569.208	21647.03
569.407	21894.83
569.605	21604.02
569.804	21804.72
570.002	21216.96
570.201	21472.95
570.4	21319.35
570.598	21122.75
570.797	21208.76
570.995	21036.74
571.193	20881.09
571.392	21118.65
571.59	21147.33
571.789	21024.45
571.987	21034.69
572.186	21116.61
572.384	20747.97
572.582	20864.71
572.781	20965.06
572.979	20238.03
573.177	20657.86
573.376	20649.67
573.574	20612.81
573.772	20713.16
573.971	20494.02
574.169	20555.46
574.367	20446.92
574.565	20063.95
574.763	20205.26
574.962	20186.83
575.16	20066
575.358	20313.8
575.556	19746.51
575.754	20289.23
575.952	19932.88
576.151	20238.03
576.349	19650.26
576.547	19920.59
576.745	19826.39
576.943	19642.07
577.141	19588.82
577.339	19662.55
577.537	19500.76
577.735	19707.6
577.933	19328.73
578.131	19498.71
578.329	19306.2
578.527	19402.46
578.725	19308.25
578.923	19328.73
579.121	19138.27
579.319	19218.14
579.516	19209.95
579.714	19123.93
579.912	18912.99
580.11	19123.93
580.308	19097.31
580.506	18898.66
580.704	18534.12
580.901	19023.58
581.099	18783.97
581.297	18722.53
581.495	18364.14
581.692	18745.06
581.89	18788.07
582.088	18472.68
582.285	18360.04
582.483	18509.54
582.681	18310.89
582.878	18378.47
583.076	18323.18
583.274	18198.25
583.471	18126.57
583.669	18345.7
583.866	18198.25
584.064	17991.41
584.262	17913.58
584.459	18024.17
584.657	17999.6
584.854	17850.1
585.052	17518.32
585.249	17696.5
585.447	17641.2
585.644	17491.7
585.841	17794.8
586.039	17852.14
586.236	17221.37
586.434	17606.39
586.631	17389.3
586.828	17401.59
587.026	17364.73
587.223	17309.43
587.42	17131.26
587.618	17389.3
587.815	16867.07
588.012	17309.43
588.21	16840.45
588.407	17153.79
588.604	16815.87
588.801	16809.73
588.999	16889.6
589.196	16568.07
589.393	16815.87
589.59	16725.76
589.787	16717.57
589.984	16584.45
590.182	16357.13
590.379	16303.88
590.576	16432.9
590.773	16600.83
590.97	16496.39
591.167	16516.87
591.364	16465.67
591.561	16174.86
591.758	16146.19
591.955	16271.11
592.152	16361.22
592.349	15882
592.546	16228.1
592.743	16058.12
592.94	15683.34
593.137	15654.67
593.334	15959.82
593.531	15750.93
593.727	15838.99
593.924	15714.06
594.121	15560.47
594.318	15726.35
594.515	15585.04
594.712	15507.22
594.908	15511.32
595.105	15566.61
595.302	15312.66
595.499	15302.42
595.696	15353.62
595.892	15353.62
596.089	15157.02
596.286	15109.91
596.482	15181.59
596.679	15165.21
596.876	14954.27
597.072	15062.81
597.269	15214.36
597.466	14855.97
597.662	14780.19
597.859	14855.97
598.055	14894.88
598.252	14804.77
598.448	14548.77
598.645	14712.61
598.841	14473
599.038	14556.96
599.234	14546.72
599.431	14327.59
599.627	14425.89
599.824	14446.37
600.02	14143.27
600.217	14454.56
600.413	14145.32
600.609	14274.34
600.806	13883.18
601.002	14225.19
601.198	13969.19
601.395	14163.75
601.591	13856.56
601.787	14212.9
601.984	14001.96
602.18	13956.91
602.376	13924.14
602.572	13737.77
602.769	13838.12
602.965	13731.63
603.161	13604.66
603.357	13618.99
603.553	13532.98
603.75	13670.19
603.946	13569.84
604.142	13494.07
604.338	13356.85
604.534	13463.35
604.73	13240.12
604.926	13256.5
605.122	13481.78
605.318	13274.93
605.514	13336.37
605.71	12789.56
605.906	13264.69
606.102	12973.88
606.298	13281.08
606.494	13084.47
606.69	12773.18
606.886	12762.94
607.082	12826.43
607.278	13092.66
607.474	12869.44
607.67	13004.6
607.866	12609.34
608.062	12842.81
608.257	12894.01
608.453	12728.13
608.649	12767.04
608.845	12533.57
609.041	12697.41
609.236	12523.33
609.432	12488.51
609.628	12535.62
609.824	12537.66
610.019	12502.85
610.215	12488.51
610.411	12597.06
610.606	12543.81
610.802	12316.48
610.998	12449.6
611.193	12275.52
611.389	12048.2
611.584	12328.77
611.78	12115.78
611.976	12199.75
612.171	12115.78
612.367	12126.02
612.562	12209.99
612.758	11880.27
612.953	12070.73
613.149	12146.5
613.344	11913.03
613.539	12052.3
613.735	11953.99
613.93	12005.19
614.126	11863.88
614.321	12128.07
614.517	11964.23
614.712	12005.19
614.907	11814.73
615.103	12175.17
615.298	11546.45
615.493	11757.39
615.688	11650.89
615.884	11761.48
616.079	11650.89
616.274	11824.97
616.47	11677.52
616.665	11333.46
616.86	11521.87
617.055	11401.04
617.25	11478.86
617.445	11538.26
617.641	11325.27
617.836	11442
618.031	11319.12
618.226	11501.39
618.421	11226.96
618.616	11456.34
618.811	11118.42
619.006	11339.6
619.201	11257.68
619.396	11018.07
619.591	11065.18
619.786	11067.22
619.981	11020.12
620.176	11052.89
620.371	10860.38
620.566	10848.09
620.761	10866.52
620.956	10772.32
621.151	10706.78
621.346	10723.16
621.541	10579.81
621.735	10882.91
621.93	10520.42
622.125	10319.71
622.32	10428.26
622.515	10454.88
622.709	10215.27
622.904	10188.64
623.099	10125.16
623.294	10112.87
623.488	10145.64
623.683	9852.78
623.878	9766.76
624.072	9975.66
624.267	9934.7
624.462	9787.24
624.656	9734
624.851	9637.74
625.046	9508.72
625.24	9535.34
625.435	9408.37
625.629	9602.93
625.824	9596.78
626.018	9484.14
626.213	9176.95
626.407	9303.92
626.602	9039.73
626.796	9297.78
626.991	9074.55
627.185	9348.98
627.38	8939.38
627.574	8988.53
627.768	8877.94
627.963	8884.09
628.157	8998.77
628.352	8896.38
628.546	8742.78
628.74	8707.96
628.935	8521.6
629.129	8466.3
629.323	8669.05
629.517	8566.65
629.712	8601.47
629.906	8562.56
630.1	8314.75
630.294	8337.28
630.489	8324.99
630.683	8245.12
630.877	8128.39
631.071	8087.43
631.265	8103.81
631.459	8109.96
631.653	7942.02
631.848	8030.09
632.042	8013.7
632.236	8073.09
632.43	8017.8
632.624	7800.71
632.818	7987.08
633.012	7880.58
633.206	7778.19
633.4	7778.19
633.594	7663.5
633.788	7780.23
633.982	7577.48
634.176	7487.37
634.369	7348.11
634.563	7485.33
634.757	7561.1
634.951	7391.12
635.145	7346.06
635.339	7526.29
635.533	7198.61
635.726	7165.84
635.92	7217.04
636.114	7221.14
636.308	7159.7
636.501	7071.64
636.695	7194.51
636.889	7014.29
637.083	6997.91
637.276	6950.81
637.47	6944.66
637.664	6915.99
637.857	6903.7
638.051	6817.69
638.244	6791.06
638.438	6815.64
638.632	6727.58
638.825	6864.79
639.019	6539.16
639.212	6594.46
639.406	6637.47
639.599	6412.19
639.793	6545.31
639.986	6426.53
640.18	6387.61
640.373	6363.04
640.567	6342.56
640.76	6301.6
640.954	6141.86
641.147	6285.22
641.34	6047.65
641.534	6346.66
641.727	6191.01
641.92	6127.52
642.114	6031.27
642.307	6014.88
642.5	5984.16
642.694	5957.54
642.887	5879.72
643.08	5906.34
643.273	5887.91
643.467	5775.27
643.66	5771.18
643.853	5986.21
644.046	5621.67
644.239	5521.32
644.432	5662.63
644.626	5496.75
644.819	5584.81
645.012	5582.76
645.205	5531.56
645.398	5492.65
645.591	5494.7
645.784	5369.77
645.977	5353.39
646.17	5373.87
646.363	5420.97
646.556	5337.01
646.749	5332.91
646.942	5236.66
647.135	5351.34
647.328	5189.55
647.521	5267.38
647.714	5068.72
647.907	5119.92
648.099	4990.9
648.292	4933.56
648.485	4949.94
648.678	5132.21
648.871	4954.04
649.064	4902.84
649.256	4933.56
649.449	4806.58
649.642	4880.31
649.835	4745.14
650.027	4765.62
650.22	4642.75
650.413	4902.84
650.605	4708.28
650.798	4595.64
650.991	4554.68
651.183	4683.7
651.376	4720.57
651.568	4491.2
651.761	4509.63
651.954	4677.56
652.146	4616.12
652.339	4433.85
652.531	4444.09
652.724	4448.19
652.916	4437.95
653.109	4325.31
653.301	4501.44
653.494	4378.56
653.686	4222.91
653.879	4255.68
654.071	4282.3
654.263	4124.61
654.456	4190.14
654.648	4231.1
654.84	4237.25
655.033	4212.67
655.225	4263.87
655.417	4036.55
655.61	4071.36
655.802	4130.75
655.994	4024.26
656.186	4069.31
656.379	4024.26
656.571	4110.27
656.763	3940.29
656.955	3899.33
657.148	3968.96
657.34	3942.34
657.532	3770.31
657.724	3846.09
657.916	3784.65
658.108	3841.99
658.3	3655.62
658.492	3721.16
658.684	3768.26
658.876	3825.61
659.068	3721.16
659.26	3639.24
659.452	3651.53
659.644	3639.24
659.836	3573.71
660.028	3672.01
660.22	3688.39
660.412	3487.69
660.604	3559.37
660.796	3473.35
660.988	3569.61
661.18	3524.55
661.372	3545.03
661.563	3524.55
661.755	3295.18
661.947	3243.98
662.139	3348.43
662.331	3196.88
662.522	3315.66
662.714	3256.27
662.906	3297.23
663.097	3317.71
663.289	3370.96
663.481	3289.04
663.673	3315.66
663.864	3229.65
664.056	3155.92
664.247	3096.53
664.439	3178.45
664.631	3106.77
664.822	3084.24
665.014	3149.78
665.205	3008.47
665.397	2977.75
665.588	3080.14
665.78	3215.31
665.971	3030.99
666.163	2924.5
666.354	3008.47
666.546	3084.24
666.737	2947.03
666.929	2947.03
667.12	2918.36
667.311	2908.12
667.503	2867.16
667.694	2924.5
667.885	2836.44
668.077	2918.36
668.268	2799.57
668.459	2787.29
668.651	2740.18
668.842	2789.33
669.033	2766.81
669.224	2738.13
669.416	2711.51
669.607	2750.42
669.798	2699.22
669.989	2709.46
670.18	2717.65
670.371	2639.83
670.563	2736.09
670.754	2555.86
670.945	2652.12
671.136	2576.34
671.327	2623.45
671.518	2508.76
671.709	2582.49
671.9	2469.85
672.091	2617.3
672.282	2656.22
672.473	2514.91
672.664	2473.95
672.855	2512.86
673.046	2435.03
673.237	2555.86
673.428	2523.1
673.619	2562.01
673.809	2453.47
674	2623.45
674.191	2424.79
674.382	2494.43
674.573	2543.58
674.764	2351.07
674.954	2447.32
675.145	2385.88
675.336	2346.97
675.527	2504.67
675.717	2412.51
675.908	2326.49
676.099	2338.78
676.289	2422.75
676.48	2138.08
676.671	2248.67
676.861	2432.99
677.052	2301.92
677.243	2308.06
677.433	2383.84
677.624	2353.12
677.814	2340.83
678.005	2367.45
678.195	2418.65
678.386	2355.16
678.576	2156.51
678.767	2279.39
678.957	2287.58
679.148	2412.51
679.338	2267.1
679.529	2254.81
679.719	2285.53
679.909	2330.59
680.1	2312.16
680.29	2240.48
680.481	2316.25
680.671	2224.09
680.861	2287.58
681.052	2211.81
681.242	2224.09
681.432	2213.85
681.622	2246.62
681.813	2283.49
682.003	2203.61
682.193	2222.05
682.383	2281.44
682.573	2174.94
682.764	2287.58
682.954	2191.33
683.144	2082.78
683.334	2172.89
683.524	2254.81
683.714	2215.9
683.904	2248.67
684.094	2291.68
684.284	2133.98
684.474	2207.71
684.664	2119.65
684.854	2248.67
685.044	2140.13
685.234	2095.07
685.424	2154.46
685.614	2136.03
685.804	2187.23
685.994	2015.2
686.184	2174.94
686.374	2109.41
686.564	2082.78
686.753	2148.32
686.943	1998.82
687.133	2121.7
687.323	2070.5
687.513	2117.6
687.702	2078.69
687.892	2144.22
688.082	1998.82
688.272	2103.26
688.461	1982.43
688.651	2101.22
688.841	2043.87
689.03	1992.67
689.22	2041.82
689.41	2017.25
689.599	2033.63
689.789	1992.67
689.979	2068.45
690.168	2011.11
690.358	1976.29
690.547	2090.98
690.737	1990.63
690.926	2052.06
691.116	1953.76
691.305	2056.16
691.495	1949.67
691.684	1986.53
691.874	2015.2
692.063	1888.23
692.252	2007.01
692.442	1998.82
692.631	1949.67
692.82	2076.64
693.01	1892.32
693.199	1949.67
693.388	2029.54
693.578	1923.04
693.767	1964
693.956	1937.38
694.146	1912.8
694.335	1941.47
694.524	1972.19
694.713	1865.7
694.902	1851.36
695.092	1908.71
695.281	1861.6
695.47	1935.33
695.659	1945.57
695.848	1912.8
696.037	1978.34
696.226	1787.88
696.415	1912.8
696.604	1908.71
696.793	1884.13
696.982	1888.23
697.171	1896.42
697.36	1927.14
697.549	1806.31
697.738	1873.89
697.927	1918.95
698.116	1816.55
698.305	1761.25
698.494	1937.38
698.683	1804.26
698.872	1863.65
699.061	1738.73
699.25	1781.73
699.438	1877.99
699.627	1830.88
699.816	1832.93
700.005	1851.36
700.193	1777.64
700.382	1804.26
700.571	1857.51
700.76	1787.88
700.948	1839.08
701.137	1779.68
701.326	1818.6
701.514	1744.87
701.703	1751.01
701.892	1824.74
702.08	1859.56
702.269	1781.73
702.457	1746.92
702.646	1785.83
702.834	1740.77
703.023	1658.85
703.212	1644.52
703.4	1685.48
703.589	1732.58
703.777	1636.33
703.965	1724.39
704.154	1687.53
704.342	1708.01
704.531	1773.54
704.719	1603.56
704.907	1671.14
705.096	1636.33
705.284	1603.56
705.472	1746.92
705.661	1699.81
705.849	1681.38
706.037	1671.14
706.226	1710.05
706.414	1720.29
706.602	1665
706.79	1712.1
706.979	1685.48
707.167	1638.38
707.355	1617.9
707.543	1587.18
707.731	1691.62
707.919	1558.5
708.107	1685.48
708.296	1533.93
708.484	1609.7
708.672	1626.09
708.86	1615.85
709.048	1619.94
709.236	1646.57
709.424	1628.14
709.612	1566.7
709.8	1535.98
709.988	1556.46
710.176	1523.69
710.364	1603.56
710.551	1585.13
710.739	1560.55
710.927	1464.3
711.115	1636.33
711.303	1609.7
711.491	1550.31
711.679	1572.84
711.866	1587.18
712.054	1482.73
712.242	1513.45
712.43	1517.54
712.617	1529.83
712.805	1570.79
712.993	1484.78
713.181	1558.5
713.368	1538.02
713.556	1470.44
713.744	1611.75
713.931	1445.87
714.119	1468.39
714.306	1488.87
714.494	1404.91
714.682	1476.59
714.869	1433.58
715.057	1542.12
715.244	1429.48
715.432	1421.29
715.619	1505.26
715.807	1419.24
715.994	1437.67
716.182	1396.71
716.369	1527.78
716.556	1445.87
716.744	1376.23
716.931	1466.35
717.119	1429.48
717.306	1439.72
717.493	1361.9
717.681	1406.95
717.868	1435.63
718.055	1339.37
718.242	1363.95
718.43	1384.43
718.617	1333.23
718.804	1394.67
718.991	1411.05
719.179	1411.05
719.366	1419.24
719.553	1443.82
719.74	1322.99
719.927	1337.32
720.114	1353.71
720.301	1300.46
720.488	1398.76
720.676	1388.52
720.863	1372.14
721.05	1308.65
721.237	1325.04
721.424	1245.16
721.611	1329.13
721.798	1314.8
721.985	1322.99
722.172	1380.33
722.358	1361.9
722.545	1413.1
722.732	1384.43
722.919	1273.84
723.106	1214.45
723.293	1288.17
723.48	1341.42
723.667	1273.84
723.853	1322.99
724.04	1318.89
724.227	1378.28
724.414	1318.89
724.6	1312.75
724.787	1271.79
724.974	1232.88
725.161	1288.17
725.347	1284.08
725.534	1271.79
725.72	1241.07
725.907	1269.74
726.094	1271.79
726.28	1286.12
726.467	1296.36
726.653	1228.78
726.84	1204.21
727.027	1290.22
727.213	1177.58
727.4	1253.36
727.586	1255.4
727.773	1277.93
727.959	1245.16
728.145	1167.34
728.332	1239.02
728.518	1236.97
728.705	1304.56
728.891	1181.68
729.077	1165.29
729.264	1222.64
729.45	1142.77
729.636	1269.74
729.823	1294.32
730.009	1206.25
730.195	1052.66
730.382	1183.73
730.568	1204.21
730.754	1146.86
730.94	1247.21
731.126	1269.74
731.313	1220.59
731.499	1210.35
731.685	1261.55
731.871	1185.77
732.057	1153.01
732.243	1206.25
732.429	1093.62
732.615	1148.91
732.801	1234.93
732.987	1196.01
733.173	1140.72
733.359	1243.12
733.545	1187.82
733.731	1193.97
733.917	1230.83
734.103	1134.57
734.289	1175.53
734.475	1212.4
734.661	1150.96
734.847	1257.45
735.033	1130.48
735.219	1165.29
735.404	1148.91
735.59	1146.86
735.776	1118.19
735.962	1134.57
736.148	1132.53
736.333	1116.14
736.519	1161.2
736.705	1173.49
736.89	1079.28
737.076	1124.33
737.262	1071.09
737.447	1097.71
737.633	1196.01
737.819	1159.15
738.004	1118.19
738.19	1187.82
738.375	1093.62
738.561	1198.06
738.747	1089.52
738.932	1116.14
739.118	1062.9
739.303	1052.66
739.489	1212.4
739.674	1140.72
739.859	1144.81
740.045	1028.08
740.23	1153.01
740.416	1042.42
740.601	1085.42
740.786	1118.19
740.972	1017.84
741.157	1030.13
741.342	987.12
741.528	1028.08
741.713	1042.42
741.898	1011.7
742.084	1036.27
742.269	960.5
742.454	987.12
742.639	960.5
742.824	1003.5
743.01	997.36
743.195	1060.85
743.38	993.26
743.565	1005.55
743.75	1011.7
743.935	1011.7
744.12	1005.55
744.305	968.69
744.49	1003.5
744.675	997.36
744.86	931.83
745.045	874.48
745.23	974.83
745.415	915.44
745.6	1062.9
745.785	917.49
745.97	989.17
746.155	970.74
746.34	978.93
746.525	1007.6
746.71	952.31
746.895	901.11
747.079	894.96
747.264	927.73
747.449	862.19
747.634	843.76
747.819	937.97
748.003	854
748.188	901.11
748.373	901.11
748.557	870.39
748.742	901.11
748.927	786.42
749.111	886.77
749.296	950.26
749.481	864.24
749.665	950.26
749.85	833.52
750.034	878.58
750.219	890.87
750.404	858.1
750.588	841.72
750.773	772.08
750.957	765.94
751.141	720.88
751.326	714.74
751.51	886.77
751.695	774.13
751.879	763.89
752.064	794.61
752.248	862.19
752.432	759.8
752.617	808.95
752.801	806.9
752.985	763.89
753.17	749.56
753.354	759.8
753.538	796.66
753.722	655.35
753.907	763.89
754.091	755.7
754.275	731.12
754.459	669.69
754.643	667.64
754.828	743.41
755.012	731.12
755.196	620.53
755.38	583.67
755.564	749.56
755.748	698.36
755.932	624.63
756.116	729.08
756.3	624.63
756.484	647.16
756.668	591.86
756.852	684.02
757.036	641.01
757.22	632.82
757.404	688.12
757.588	595.96
757.772	577.53
757.956	692.21
758.14	686.07
758.323	669.69
758.507	727.03
758.691	595.96
758.875	745.46
759.059	702.45
759.242	718.84
759.426	667.64
759.61	555
759.794	493.56
759.977	616.44
760.161	714.74
760.345	581.62
760.528	456.7
760.712	487.42
760.895	602.1
761.079	499.7
761.263	663.54
761.446	544.76
761.63	600.05
761.813	612.34
761.997	624.63
762.18	552.95
762.364	557.05
762.547	530.42
762.731	634.87
762.914	577.53
763.098	530.42
763.281	563.19
763.464	499.7
763.648	559.1
763.831	557.05
764.015	552.95
764.198	479.22
764.381	516.09
764.564	536.57
764.748	464.89
764.931	544.76
765.114	448.51
765.297	581.62
765.481	462.84
765.664	544.76
765.847	526.33
766.03	479.22
766.213	514.04
766.397	489.46
766.58	530.42
766.763	487.42
766.946	487.42
767.129	415.74
767.312	483.32
767.495	550.9
767.678	434.17
767.861	505.85
768.044	483.32
768.227	448.51
768.41	507.9
768.593	514.04
768.776	458.74
768.959	477.18
769.142	555
769.324	477.18
769.507	528.38
769.69	466.94
769.873	487.42
770.056	454.65
770.239	419.83
770.421	378.87
770.604	462.84
770.787	419.83
770.97	430.07
771.152	395.26
771.335	380.92
771.518	432.12
771.7	464.89
771.883	503.8
772.066	409.59
772.248	397.31
772.431	503.8
772.613	378.87
772.796	399.35
772.978	487.42
773.161	536.57
773.343	421.88
773.526	479.22
773.708	503.8
773.891	438.27
774.073	395.26
774.256	372.73
774.438	423.93
774.621	403.45
774.803	471.03
774.985	305.15
775.168	448.51
775.35	374.78
775.532	323.58
775.715	397.31
775.897	411.64
776.079	407.55
776.261	313.34
776.444	395.26
776.626	311.29
776.808	335.87
776.99	391.16
777.173	358.39
777.355	366.59
777.537	391.16
777.719	415.74
777.901	325.63
778.083	327.67
778.265	284.67
778.447	473.08
778.629	387.07
778.811	403.45
778.993	395.26
779.175	368.63
779.357	364.54
779.539	360.44
779.721	280.57
779.903	329.72
780.085	348.15
780.267	251.9
780.449	256
780.631	350.2
780.812	319.48
780.994	296.96
781.176	313.34
781.358	260.09
781.54	329.72
781.721	323.58
781.903	350.2
782.085	235.52
782.267	217.08
782.448	247.8
782.63	282.62
782.812	323.58
782.993	391.16
783.175	307.2
783.357	256
783.538	317.44
783.72	268.28
783.901	253.95
784.083	251.9
784.264	280.57
784.446	284.67
784.627	397.31
784.809	331.77
784.99	204.8
785.172	294.91
785.353	268.28
785.535	241.66
785.716	278.52
785.897	217.08
786.079	151.55
786.26	354.3
786.441	225.28
786.623	227.32
786.804	280.57
786.985	215.04
787.167	288.76
787.348	229.37
787.529	286.72
787.71	299
787.891	325.63
788.073	174.08
788.254	210.94
788.435	231.42
788.616	249.85
788.797	143.36
788.978	299
789.159	241.66
789.34	217.08
789.522	217.08
789.703	188.41
789.884	258.04
790.065	180.22
790.246	221.18
790.427	204.8
790.607	186.37
790.788	208.89
790.969	112.64
791.15	190.46
791.331	219.13
791.512	233.47
791.693	200.7
791.874	141.31
792.054	188.41
792.235	274.43
792.416	188.41
792.597	219.13
792.778	212.99
792.958	249.85
793.139	124.93
793.32	131.07
793.5	98.3
793.681	231.42
793.862	159.74
794.042	161.79
794.223	149.5
794.404	184.32
794.584	131.07
794.765	122.88
794.945	129.02
795.126	190.46
795.306	141.31
795.487	79.87
795.667	180.22
795.848	198.65
796.028	145.41
796.209	178.17
796.389	137.21
796.57	221.18
796.75	155.65
796.93	100.35
797.111	135.17
797.291	149.5
797.471	182.27
797.652	206.84
797.832	131.07
798.012	135.17
798.192	75.77
798.373	129.02
798.553	161.79
798.733	110.59
798.913	151.55
799.093	169.98
799.274	153.6
799.454	145.41
799.634	163.84
799.814	176.13
799.994	104.45
800.174	149.5
800.354	120.83
800.534	118.78
800.714	137.21
800.894	188.41
801.074	118.78
801.254	194.56
801.434	180.22
801.614	167.93
801.794	108.54
801.974	376.83
802.154	8.19
802.334	116.73
802.514	129.02
802.693	110.59
802.873	116.73
803.053	157.69
803.233	153.6
803.413	163.84
803.592	83.97
803.772	83.97
803.952	94.21
804.131	135.17
804.311	155.65
804.491	141.31
804.67	133.12
804.85	116.73
805.03	92.16
805.209	219.13
805.389	159.74
805.568	108.54
805.748	124.93
805.928	133.12
806.107	157.69
806.287	104.45
806.466	88.06
806.646	59.39
806.825	129.02
807.004	116.73
807.184	190.46
807.363	157.69
807.543	118.78
807.722	118.78
807.901	69.63
808.081	139.26
808.26	126.97
808.439	47.1
808.619	167.93
808.798	86.01
808.977	157.69
809.156	126.97
809.336	77.82
809.515	102.4
809.694	69.63
809.873	147.45
810.052	124.93
810.231	94.21
810.411	90.11
810.59	104.45
810.769	133.12
810.948	124.93
811.127	81.92
811.306	131.07
811.485	67.58
811.664	100.35
811.843	139.26
812.022	174.08
812.201	114.69
812.38	75.77
812.559	34.82
812.737	161.79
812.916	124.93
813.095	26.62
813.274	108.54
813.453	63.49
813.632	77.82
813.811	137.21
813.989	108.54
814.168	102.4
814.347	149.5
814.526	92.16
814.704	124.93
814.883	57.34
815.062	67.58
815.24	61.44
815.419	83.97
815.598	114.69
815.776	71.68
815.955	100.35
816.133	106.49
816.312	118.78
816.49	43.01
816.669	34.82
816.847	77.82
817.026	83.97
817.204	133.12
817.383	79.87
817.561	92.16
817.74	67.58
817.918	16.38
818.097	182.27
818.275	69.63
818.453	45.06
818.632	86.01
818.81	22.53
818.988	104.45
819.167	38.91
819.345	92.16
819.523	49.15
819.701	77.82
819.879	63.49
820.058	6.14
820.236	96.25
820.414	92.16
820.592	49.15
820.77	98.3
820.948	69.63
821.127	53.25
821.305	53.25
821.483	98.3
821.661	157.69
821.839	81.92
822.017	67.58
822.195	10.24
822.373	47.1
822.551	106.49
822.729	108.54
822.907	81.92
823.085	47.1
823.262	34.82
823.44	18.43
823.618	65.53
823.796	53.25
823.974	-30.72
824.152	43.01
824.329	67.58
824.507	137.21
824.685	47.1
824.863	47.1
825.04	118.78
825.218	49.15
825.396	75.77
825.574	69.63
825.751	79.87
825.929	108.54
826.107	96.25
826.284	77.82
826.462	26.62
826.639	12.29
826.817	36.86
826.994	79.87
827.172	90.11
827.349	38.91
827.527	96.25
827.704	104.45
827.882	73.73
828.059	53.25
828.237	61.44
828.414	77.82
828.591	2.05
828.769	59.39
828.946	94.21
829.124	83.97
829.301	26.62
829.478	98.3
829.655	8.19
829.833	77.82
830.01	20.48
830.187	43.01
830.364	83.97
830.542	36.86
830.719	51.2
830.896	110.59
831.073	55.3
831.25	4.1
831.427	67.58
831.604	106.49
831.782	18.43
831.959	51.2
832.136	71.68
832.313	18.43
832.49	59.39
832.667	36.86
832.844	24.58
833.021	110.59
833.198	8.19
833.374	34.82
833.551	30.72
833.728	57.34
833.905	10.24
834.082	79.87
834.259	75.77
834.436	116.73
834.612	18.43
834.789	16.38
834.966	-28.67
835.143	47.1
835.319	55.3
835.496	53.25
835.673	22.53
835.85	104.45
836.026	51.2
836.203	32.77
836.38	61.44
836.556	24.58
836.733	51.2
836.909	129.02
837.086	-22.53
837.262	22.53
837.439	49.15
837.616	38.91
837.792	30.72
837.968	71.68
838.145	26.62
838.321	34.82
838.498	67.58
838.674	133.12
838.851	10.24
839.027	43.01
839.203	24.58
839.38	0
839.556	65.53
839.732	20.48
839.909	51.2
840.085	65.53
840.261	51.2
840.437	30.72
840.614	28.67
840.79	22.53
840.966	55.3
841.142	-30.72
841.318	47.1
841.494	-12.29
841.671	20.48
841.847	-16.38
842.023	67.58
842.199	-75.77
842.375	63.49
842.551	61.44
842.727	-2.05
842.903	59.39
843.079	14.34
843.255	12.29
843.431	75.77
843.607	57.34
843.783	-14.34
843.959	26.62
844.134	90.11
844.31	45.06
844.486	-28.67
844.662	12.29
844.838	-8.19
845.013	75.77
845.189	116.73
845.365	51.2
845.541	16.38
845.716	92.16
845.892	53.25
846.068	59.39
846.244	59.39
846.419	67.58
846.595	53.25
846.77	53.25
846.946	67.58
847.122	106.49
847.297	26.62
847.473	12.29
847.648	114.69
847.824	79.87
847.999	28.67
848.175	34.82
848.35	86.01
848.526	106.49
848.701	-51.2
848.876	45.06
849.052	8.19
849.227	-24.58
849.403	8.19
849.578	47.1
849.753	28.67
849.929	16.38
850.104	-34.82
850.279	36.86
850.454	24.58
850.63	59.39
850.805	43.01
850.98	28.67
851.155	36.86
851.33	-24.58
851.505	57.34
851.681	-36.86
851.856	20.48
852.031	0
852.206	92.16
852.381	36.86
852.556	-8.19
852.731	4.1
852.906	102.4
853.081	-45.06
853.256	28.67
853.431	-8.19
853.606	10.24
853.781	10.24
853.956	45.06
854.131	-2.05
854.305	59.39
854.48	-2.05
854.655	-14.34
854.83	-4.1
855.005	10.24
855.18	47.1
855.354	12.29
855.529	-22.53
855.704	-18.43
855.879	26.62
856.053	8.19
856.228	10.24
856.403	-96.25
856.577	24.58
856.752	69.63
856.926	59.39
857.101	38.91
857.276	-12.29
857.45	36.86
857.625	-45.06
857.799	-2.05
857.974	61.44
858.148	0
858.323	83.97
858.497	34.82
858.672	-38.91
858.846	0
859.02	73.73
859.195	-12.29
859.369	51.2
859.543	-34.82
859.718	28.67
859.892	63.49
860.066	43.01
860.241	-36.86
860.415	12.29
860.589	38.91
860.763	24.58
860.938	30.72
861.112	49.15
861.286	16.38
861.46	34.82
861.634	43.01
861.808	-20.48
861.982	16.38
862.157	-49.15
862.331	-10.24
862.505	18.43
862.679	18.43
862.853	-16.38
863.027	28.67
863.201	28.67
863.375	-12.29
863.549	77.82
863.722	10.24
863.896	-20.48
864.07	-10.24
864.244	30.72
864.418	55.3
864.592	-2.05
864.766	40.96
864.939	49.15
865.113	-10.24
865.287	88.06
865.461	10.24
865.634	-8.19
865.808	32.77
865.982	69.63
866.156	-10.24
866.329	2.05
866.503	20.48
866.676	20.48
866.85	45.06
867.024	-51.2
867.197	34.82
867.371	28.67
867.544	45.06
867.718	-6.14
867.891	-2.05
868.065	-18.43
868.238	90.11
868.412	94.21
868.585	-26.62
868.759	0
868.932	67.58
869.105	-86.01
869.279	24.58
869.452	-26.62
869.625	61.44
869.799	71.68
869.972	-2.05
870.145	8.19
870.319	-38.91
870.492	30.72
870.665	-28.67
870.838	-71.68
871.011	-12.29
871.185	77.82
871.358	-38.91
871.531	102.4
871.704	-6.14
871.877	45.06
872.05	34.82
872.223	36.86
872.396	75.77
872.569	6.14
872.742	32.77
872.915	2.05
873.088	36.86
873.261	-34.82
873.434	8.19
873.607	34.82
873.78	-51.2
873.953	-47.1
874.126	51.2
874.299	20.48
874.471	110.59
874.644	18.43
874.817	16.38
874.99	45.06
875.163	-6.14
875.335	36.86
875.508	8.19
875.681	-22.53
875.853	20.48
876.026	4.1
876.199	-32.77
876.371	55.3
876.544	-40.96
876.717	22.53
876.889	63.49
877.062	34.82
877.234	2.05
877.407	43.01
877.579	-45.06
877.752	-14.34
877.924	10.24
878.097	-12.29
878.269	20.48
878.442	43.01
878.614	40.96
878.786	-2.05
878.959	-63.49
879.131	16.38
879.303	-73.73
879.476	83.97
879.648	43.01
879.82	-2.05
879.993	10.24
880.165	-20.48
880.337	-14.34
880.509	22.53
880.681	-6.14
880.854	8.19
881.026	49.15
881.198	-12.29
881.37	-2.05
881.542	-18.43
881.714	-6.14
881.886	-55.3
882.058	36.86
882.23	-2.05
882.402	47.1
882.574	34.82
882.746	-10.24
882.918	2.05
883.09	32.77
883.262	-36.86
883.434	-16.38
883.606	18.43
883.778	-4.1
883.95	26.62
884.122	24.58
884.293	59.39
884.465	36.86
884.637	43.01
884.809	-8.19
884.98	40.96
885.152	47.1
885.324	-6.14
885.496	45.06
885.667	6.14
885.839	30.72
886.011	0
886.182	-63.49
886.354	14.34
886.525	63.49
886.697	-55.3
886.869	47.1
887.04	32.77
887.212	118.78
887.383	-4.1
887.555	-6.14
887.726	-6.14
887.897	-14.34
888.069	47.1
888.24	0
888.412	77.82
888.583	75.77
888.754	6.14
888.926	34.82
889.097	20.48
889.268	26.62
889.44	-6.14
889.611	-30.72
889.782	40.96
889.953	-36.86
890.125	2.05
890.296	32.77
890.467	-36.86
890.638	-47.1
890.809	61.44
890.98	30.72
891.151	43.01
891.323	57.34
891.494	12.29
891.665	45.06
891.836	-2.05
892.007	40.96
892.178	86.01
892.349	73.73
892.52	20.48
892.691	-43.01
892.862	14.34
893.032	-18.43
893.203	34.82
893.374	6.14
893.545	-14.34
893.716	20.48
893.887	28.67
894.057	10.24
894.228	-6.14
894.399	65.53
894.57	-40.96
894.74	22.53
894.911	2.05
895.082	-36.86
895.253	-67.58
895.423	65.53
895.594	32.77
895.764	36.86
895.935	67.58
896.106	16.38
896.276	-20.48
896.447	14.34
896.617	-32.77
896.788	16.38
896.958	67.58
897.129	14.34
897.299	-2.05
897.47	12.29
897.64	-28.67
897.81	34.82
897.981	94.21
898.151	12.29
898.322	-2.05
898.492	63.49
898.662	32.77
898.832	-59.39
899.003	-4.1
899.173	-45.06
899.343	61.44
899.513	26.62
