Data from USB4F104151__46__12-59-08-545.txt Node

Date: Fri Mar 14 12:59:08 EDT 2025
User: louis
Spectrometer: USB4F10415
Trigger mode: 4
Integration Time (sec): 1.000000E-2
Scans to average: 1
Electric dark correction enabled: true
Nonlinearity correction enabled: false
Boxcar width: 0
XAxis mode: Wavelengths
Number of Pixels in Spectrum: 3648
>>>>>Begin Spectral Data<<<<<
178.204	-90.28
178.424	-90.28
178.644	-90.28
178.864	-88.23
179.084	-28.84
179.304	-55.47
179.524	-24.75
179.744	-32.94
179.964	16.21
180.184	20.31
180.404	57.17
180.624	-18.6
180.844	20.31
181.064	28.5
181.283	16.21
181.503	-34.99
181.723	8.02
181.943	-57.51
182.163	5.97
182.383	24.4
182.602	28.5
182.822	18.26
183.042	-34.99
183.262	26.45
183.482	-22.7
183.701	-0.17
183.921	24.4
184.141	-55.47
184.361	51.03
184.58	-34.99
184.8	-84.14
185.02	-32.94
185.239	26.45
185.459	-94.38
185.679	-30.89
185.898	-41.13
186.118	-8.36
186.338	-26.79
186.557	-47.27
186.777	-41.13
186.997	3.93
187.216	-26.79
187.436	20.31
187.655	26.45
187.875	-37.03
188.095	8.02
188.314	-6.31
188.534	-37.03
188.753	16.21
188.973	-43.18
189.192	18.26
189.412	71.51
189.631	69.46
189.851	-12.46
190.07	32.6
190.29	-20.65
190.509	-57.51
190.729	32.6
190.948	-26.79
191.168	42.84
191.387	-6.31
191.607	-30.89
191.826	57.17
192.045	-20.65
192.265	-8.36
192.484	-4.27
192.704	-24.75
192.923	-41.13
193.142	22.36
193.362	-26.79
193.581	-39.08
193.8	-4.27
194.02	83.8
194.239	-6.31
194.458	18.26
194.678	-55.47
194.897	-69.8
195.116	-45.23
195.335	51.03
195.555	-8.36
195.774	-14.51
195.993	69.46
196.212	-30.89
196.432	40.79
196.651	-41.13
196.87	75.6
197.089	-22.7
197.308	48.98
197.528	-57.51
197.747	-28.84
197.966	48.98
198.185	8.02
198.404	3.93
198.623	-34.99
198.842	36.69
199.062	46.93
199.281	-16.55
199.5	5.97
199.719	-26.79
199.938	44.88
200.157	-47.27
200.376	-20.65
200.595	-49.32
200.814	-2.22
201.033	-12.46
201.252	-47.27
201.471	-37.03
201.69	24.4
201.909	32.6
202.128	65.36
202.347	-65.71
202.566	-49.32
202.785	-53.42
203.004	-39.08
203.223	51.03
203.442	-24.75
203.661	-10.41
203.879	-2.22
204.098	18.26
204.317	8.02
204.536	-6.31
204.755	-49.32
204.974	-67.75
205.193	22.36
205.411	-10.41
205.63	-92.33
205.849	16.21
206.068	-4.27
206.287	-12.46
206.505	-6.31
206.724	-4.27
206.943	-39.08
207.162	-6.31
207.381	10.07
207.599	26.45
207.818	-30.89
208.037	34.64
208.255	46.93
208.474	-18.6
208.693	22.36
208.911	57.17
209.13	18.26
209.349	3.93
209.567	-18.6
209.786	-41.13
210.005	8.02
210.223	48.98
210.442	22.36
210.661	16.21
210.879	-24.75
211.098	36.69
211.316	42.84
211.535	51.03
211.753	55.12
211.972	20.31
212.191	-49.32
212.409	-24.75
212.628	-22.7
212.846	-24.75
213.065	-12.46
213.283	3.93
213.502	48.98
213.72	-18.6
213.938	-32.94
214.157	22.36
214.375	20.31
214.594	75.6
214.812	-18.6
215.031	-6.31
215.249	-24.75
215.467	-41.13
215.686	-24.75
215.904	36.69
216.122	-16.55
216.341	-20.65
216.559	46.93
216.778	42.84
216.996	-47.27
217.214	5.97
217.432	-32.94
217.651	3.93
217.869	1.88
218.087	-90.28
218.306	-14.51
218.524	-2.22
218.742	-32.94
218.96	44.88
219.179	-45.23
219.397	-22.7
219.615	-0.17
219.833	28.5
220.051	8.02
220.27	-20.65
220.488	30.55
220.706	-2.22
220.924	-22.7
221.142	32.6
221.36	1.88
221.578	-114.86
221.796	-16.55
222.015	12.12
222.233	16.21
222.451	18.26
222.669	-22.7
222.887	20.31
223.105	-4.27
223.323	-57.51
223.541	-4.27
223.759	10.07
223.977	24.4
224.195	10.07
224.413	-22.7
224.631	42.84
224.849	-32.94
225.067	18.26
225.285	-37.03
225.503	-55.47
225.721	-45.23
225.939	-2.22
226.157	18.26
226.375	32.6
226.592	-12.46
226.81	-6.31
227.028	-32.94
227.246	-2.22
227.464	-16.55
227.682	5.97
227.9	1.88
228.117	-51.37
228.335	-47.27
228.553	-49.32
228.771	-34.99
228.989	38.74
229.206	1.88
229.424	-14.51
229.642	18.26
229.86	12.12
230.077	10.07
230.295	24.4
230.513	-43.18
230.731	-63.66
230.948	98.13
231.166	106.32
231.384	-28.84
231.601	5.97
231.819	40.79
232.037	10.07
232.254	-65.71
232.472	-53.42
232.689	1.88
232.907	12.12
233.125	-16.55
233.342	-12.46
233.56	-41.13
233.777	-41.13
233.995	-28.84
234.213	5.97
234.43	-14.51
234.648	-20.65
234.865	12.12
235.083	5.97
235.3	-4.27
235.518	-22.7
235.735	65.36
235.953	-6.31
236.17	-90.28
236.388	-12.46
236.605	-43.18
236.822	1.88
237.04	-63.66
237.257	-41.13
237.475	-26.79
237.692	20.31
237.909	-26.79
238.127	-59.56
238.344	-37.03
238.562	51.03
238.779	-22.7
238.996	-71.85
239.214	-30.89
239.431	-10.41
239.648	-63.66
239.865	67.41
240.083	-14.51
240.3	-24.75
240.517	-41.13
240.735	1.88
240.952	-2.22
241.169	-4.27
241.386	40.79
241.603	-4.27
241.821	3.93
242.038	8.02
242.255	-14.51
242.472	12.12
242.689	18.26
242.907	12.12
243.124	5.97
243.341	-6.31
243.558	3.93
243.775	-61.61
243.992	-28.84
244.209	71.51
244.426	-2.22
244.643	-45.23
244.86	3.93
245.078	-16.55
245.295	-26.79
245.512	14.17
245.729	98.13
245.946	44.88
246.163	-22.7
246.38	40.79
246.597	-14.51
246.814	32.6
247.031	26.45
247.248	12.12
247.464	-69.8
247.681	16.21
247.898	42.84
248.115	36.69
248.332	-49.32
248.549	57.17
248.766	3.93
248.983	18.26
249.2	-45.23
249.417	75.6
249.633	-12.46
249.85	-0.17
250.067	-4.27
250.284	16.21
250.501	-24.75
250.717	71.51
250.934	26.45
251.151	-2.22
251.368	-24.75
251.585	10.07
251.801	-4.27
252.018	-4.27
252.235	1.88
252.451	-4.27
252.668	-12.46
252.885	59.22
253.102	16.21
253.318	-16.55
253.535	-22.7
253.752	-57.51
253.968	22.36
254.185	59.22
254.401	-8.36
254.618	83.8
254.835	12.12
255.051	-73.9
255.268	-71.85
255.484	-34.99
255.701	-0.17
255.917	-4.27
256.134	20.31
256.351	-16.55
256.567	-0.17
256.784	44.88
257	38.74
257.217	-41.13
257.433	-14.51
257.65	-28.84
257.866	-4.27
258.082	-8.36
258.299	-43.18
258.515	48.98
258.732	-14.51
258.948	-77.99
259.165	-16.55
259.381	18.26
259.597	16.21
259.814	-0.17
260.03	-16.55
260.246	36.69
260.463	30.55
260.679	-6.31
260.895	8.02
261.112	-0.17
261.328	-34.99
261.544	-41.13
261.761	-67.75
261.977	65.36
262.193	-55.47
262.409	26.45
262.626	-22.7
262.842	-0.17
263.058	-37.03
263.274	18.26
263.49	32.6
263.707	-18.6
263.923	-16.55
264.139	28.5
264.355	10.07
264.571	3.93
264.787	1.88
265.004	-16.55
265.22	-49.32
265.436	26.45
265.652	-28.84
265.868	-28.84
266.084	-39.08
266.3	34.64
266.516	55.12
266.732	-6.31
266.948	42.84
267.164	10.07
267.38	-63.66
267.596	-30.89
267.812	-18.6
268.028	14.17
268.244	-24.75
268.46	59.22
268.676	-22.7
268.892	5.97
269.108	-18.6
269.324	-51.37
269.54	-18.6
269.756	-49.32
269.972	30.55
270.188	3.93
270.403	-57.51
270.619	-24.75
270.835	1.88
271.051	-0.17
271.267	18.26
271.483	-24.75
271.698	10.07
271.914	-37.03
272.13	18.26
272.346	-10.41
272.562	14.17
272.777	16.21
272.993	-2.22
273.209	-43.18
273.425	-73.9
273.64	22.36
273.856	18.26
274.072	55.12
274.287	-18.6
274.503	20.31
274.719	36.69
274.934	57.17
275.15	3.93
275.366	-77.99
275.581	-12.46
275.797	-32.94
276.012	-4.27
276.228	-14.51
276.444	26.45
276.659	63.32
276.875	30.55
277.09	-37.03
277.306	-12.46
277.521	-10.41
277.737	-20.65
277.952	63.32
278.168	-6.31
278.383	18.26
278.599	-16.55
278.814	-63.66
279.03	-32.94
279.245	53.08
279.461	-16.55
279.676	-20.65
279.892	-55.47
280.107	10.07
280.322	3.93
280.538	34.64
280.753	20.31
280.969	-57.51
281.184	-63.66
281.399	18.26
281.615	-16.55
281.83	-4.27
282.045	-41.13
282.26	-30.89
282.476	-43.18
282.691	-6.31
282.906	32.6
283.122	-51.37
283.337	-61.61
283.552	-4.27
283.767	40.79
283.983	-12.46
284.198	3.93
284.413	75.6
284.628	-16.55
284.843	-24.75
285.058	20.31
285.274	89.94
285.489	8.02
285.704	-24.75
285.919	-59.56
286.134	-32.94
286.349	-4.27
286.564	-92.33
286.779	-80.04
286.995	26.45
287.21	36.69
287.425	28.5
287.64	-12.46
287.855	-22.7
288.07	10.07
288.285	-0.17
288.5	-41.13
288.715	100.18
288.93	14.17
289.145	-0.17
289.36	-30.89
289.575	-30.89
289.79	-51.37
290.004	-10.41
290.219	20.31
290.434	-24.75
290.649	-6.31
290.864	-32.94
291.079	-22.7
291.294	40.79
291.509	14.17
291.724	14.17
291.938	-16.55
292.153	20.31
292.368	3.93
292.583	-53.42
292.798	-10.41
293.012	20.31
293.227	-6.31
293.442	-65.71
293.657	24.4
293.871	8.02
294.086	-4.27
294.301	8.02
294.516	42.84
294.73	-8.36
294.945	28.5
295.16	34.64
295.374	-10.41
295.589	59.22
295.804	67.41
296.018	14.17
296.233	46.93
296.447	12.12
296.662	-22.7
296.877	10.07
297.091	10.07
297.306	16.21
297.52	-20.65
297.735	57.17
297.949	-20.65
298.164	8.02
298.378	-90.28
298.593	5.97
298.807	-57.51
299.022	63.32
299.236	-65.71
299.451	42.84
299.665	-22.7
299.88	20.31
300.094	3.93
300.309	14.17
300.523	10.07
300.737	-4.27
300.952	-20.65
301.166	5.97
301.381	24.4
301.595	-8.36
301.809	22.36
302.024	12.12
302.238	-0.17
302.452	-59.56
302.667	16.21
302.881	32.6
303.095	-18.6
303.309	67.41
303.524	-12.46
303.738	14.17
303.952	10.07
304.166	3.93
304.381	-0.17
304.595	22.36
304.809	38.74
305.023	-18.6
305.237	-65.71
305.452	-16.55
305.666	-47.27
305.88	-14.51
306.094	14.17
306.308	12.12
306.522	5.97
306.736	-14.51
306.95	104.28
307.164	-34.99
307.379	26.45
307.593	-24.75
307.807	12.12
308.021	38.74
308.235	-45.23
308.449	-32.94
308.663	28.5
308.877	32.6
309.091	65.36
309.305	-4.27
309.519	-14.51
309.733	28.5
309.947	48.98
310.161	-6.31
310.374	1.88
310.588	8.02
310.802	26.45
311.016	-82.09
311.23	26.45
311.444	5.97
311.658	-30.89
311.872	-4.27
312.085	-55.47
312.299	108.37
312.513	-8.36
312.727	-0.17
312.941	-69.8
313.154	53.08
313.368	-20.65
313.582	-65.71
313.796	-39.08
314.009	10.07
314.223	32.6
314.437	-0.17
314.651	61.27
314.864	3.93
315.078	40.79
315.292	14.17
315.505	-34.99
315.719	18.26
315.933	20.31
316.146	38.74
316.36	-24.75
316.573	18.26
316.787	10.07
317.001	32.6
317.214	48.98
317.428	3.93
317.641	-22.7
317.855	42.84
318.068	10.07
318.282	10.07
318.495	73.56
318.709	34.64
318.922	71.51
319.136	-20.65
319.349	16.21
319.563	3.93
319.776	-24.75
319.99	-26.79
320.203	57.17
320.417	14.17
320.63	-59.56
320.843	-20.65
321.057	44.88
321.27	44.88
321.483	-32.94
321.697	77.65
321.91	42.84
322.124	-47.27
322.337	-24.75
322.55	-41.13
322.763	26.45
322.977	-6.31
323.19	14.17
323.403	67.41
323.617	8.02
323.83	16.21
324.043	-53.42
324.256	-14.51
324.469	46.93
324.683	3.93
324.896	-26.79
325.109	-34.99
325.322	-57.51
325.535	-67.75
325.748	24.4
325.962	16.21
326.175	-24.75
326.388	-43.18
326.601	28.5
326.814	40.79
327.027	22.36
327.24	-43.18
327.453	-12.46
327.666	-24.75
327.879	53.08
328.092	65.36
328.305	-47.27
328.518	-34.99
328.731	-55.47
328.944	67.41
329.157	26.45
329.37	18.26
329.583	-2.22
329.796	44.88
330.009	32.6
330.222	20.31
330.435	28.5
330.648	-12.46
330.861	12.12
331.073	22.36
331.286	5.97
331.499	-18.6
331.712	8.02
331.925	-51.37
332.138	-2.22
332.35	42.84
332.563	16.21
332.776	98.13
332.989	-8.36
333.202	-55.47
333.414	36.69
333.627	-24.75
333.84	5.97
334.053	24.4
334.265	-2.22
334.478	18.26
334.691	-24.75
334.903	-49.32
335.116	-4.27
335.329	38.74
335.541	-4.27
335.754	-24.75
335.966	34.64
336.179	-6.31
336.392	12.12
336.604	-6.31
336.817	1.88
337.029	-6.31
337.242	-28.84
337.454	-16.55
337.667	10.07
337.88	-51.37
338.092	-12.46
338.305	-45.23
338.517	-6.31
338.729	-41.13
338.942	32.6
339.154	5.97
339.367	16.21
339.579	36.69
339.792	8.02
340.004	-55.47
340.217	10.07
340.429	48.98
340.641	8.02
340.854	61.27
341.066	26.45
341.278	-65.71
341.491	22.36
341.703	12.12
341.915	46.93
342.128	-37.03
342.34	20.31
342.552	38.74
342.764	-43.18
342.977	-0.17
343.189	-32.94
343.401	34.64
343.613	5.97
343.826	-51.37
344.038	-26.79
344.25	-8.36
344.462	18.26
344.674	-32.94
344.886	-6.31
345.099	12.12
345.311	44.88
345.523	-49.32
345.735	-12.46
345.947	-16.55
346.159	14.17
346.371	20.31
346.583	-8.36
346.795	61.27
347.007	-77.99
347.219	3.93
347.431	-0.17
347.643	10.07
347.855	-43.18
348.067	36.69
348.279	-12.46
348.491	-6.31
348.703	-53.42
348.915	-8.36
349.127	-4.27
349.339	-53.42
349.551	-28.84
349.763	44.88
349.975	91.99
350.187	16.21
350.399	16.21
350.61	75.6
350.822	-0.17
351.034	5.97
351.246	-26.79
351.458	3.93
351.669	18.26
351.881	-30.89
352.093	16.21
352.305	59.22
352.517	-37.03
352.728	1.88
352.94	12.12
353.152	1.88
353.363	-41.13
353.575	59.22
353.787	16.21
353.999	53.08
354.21	-45.23
354.422	1.88
354.633	-41.13
354.845	-20.65
355.057	-16.55
355.268	65.36
355.48	-28.84
355.692	-8.36
355.903	-14.51
356.115	-12.46
356.326	-32.94
356.538	63.32
356.749	36.69
356.961	46.93
357.172	8.02
357.384	28.5
357.595	-10.41
357.807	-6.31
358.018	22.36
358.23	59.22
358.441	-22.7
358.653	16.21
358.864	-28.84
359.075	-69.8
359.287	-24.75
359.498	32.6
359.709	36.69
359.921	16.21
360.132	-22.7
360.344	38.74
360.555	-96.43
360.766	32.6
360.977	-24.75
361.189	85.84
361.4	-12.46
361.611	20.31
361.823	51.03
362.034	-0.17
362.245	-8.36
362.456	-41.13
362.667	34.64
362.879	30.55
363.09	-39.08
363.301	-18.6
363.512	26.45
363.723	3.93
363.935	-32.94
364.146	28.5
364.357	-0.17
364.568	22.36
364.779	-39.08
364.99	51.03
365.201	38.74
365.412	16.21
365.623	-10.41
365.834	18.26
366.045	34.64
366.256	32.6
366.467	83.8
366.678	-4.27
366.889	-32.94
367.1	16.21
367.311	10.07
367.522	-41.13
367.733	10.07
367.944	32.6
368.155	55.12
368.366	63.32
368.577	-24.75
368.788	34.64
368.999	1.88
369.209	55.12
369.42	16.21
369.631	-18.6
369.842	-24.75
370.053	-2.22
370.264	65.36
370.474	-0.17
370.685	18.26
370.896	-32.94
371.107	63.32
371.317	48.98
371.528	-10.41
371.739	-6.31
371.95	36.69
372.16	53.08
372.371	48.98
372.582	44.88
372.792	94.04
373.003	44.88
373.214	30.55
373.424	40.79
373.635	94.04
373.846	-4.27
374.056	22.36
374.267	18.26
374.477	40.79
374.688	-6.31
374.898	-24.75
375.109	14.17
375.319	-8.36
375.53	63.32
375.74	1.88
375.951	59.22
376.161	46.93
376.372	38.74
376.582	46.93
376.793	44.88
377.003	-14.51
377.214	26.45
377.424	104.28
377.635	28.5
377.845	14.17
378.055	14.17
378.266	8.02
378.476	24.4
378.686	-32.94
378.897	48.98
379.107	59.22
379.317	36.69
379.528	102.23
379.738	18.26
379.948	10.07
380.158	48.98
380.369	53.08
380.579	18.26
380.789	-0.17
380.999	63.32
381.21	108.37
381.42	-18.6
381.63	-14.51
381.84	28.5
382.05	-39.08
382.261	71.51
382.471	44.88
382.681	-10.41
382.891	-4.27
383.101	24.4
383.311	18.26
383.521	-30.89
383.731	-16.55
383.941	12.12
384.151	36.69
384.361	26.45
384.571	28.5
384.781	-22.7
384.991	40.79
385.201	14.17
385.411	20.31
385.621	44.88
385.831	1.88
386.041	73.56
386.251	8.02
386.461	63.32
386.671	-45.23
386.881	5.97
387.091	16.21
387.301	1.88
387.511	-4.27
387.72	46.93
387.93	14.17
388.14	24.4
388.35	40.79
388.56	48.98
388.769	-8.36
388.979	65.36
389.189	-98.47
389.399	83.8
389.609	-24.75
389.818	51.03
390.028	38.74
390.238	32.6
390.447	5.97
390.657	-6.31
390.867	26.45
391.076	-0.17
391.286	98.13
391.496	16.21
391.705	5.97
391.915	67.41
392.125	24.4
392.334	65.36
392.544	-28.84
392.753	53.08
392.963	81.75
393.172	65.36
393.382	-32.94
393.591	26.45
393.801	14.17
394.01	40.79
394.22	8.02
394.429	3.93
394.639	-24.75
394.848	1.88
395.058	48.98
395.267	-18.6
395.477	-2.22
395.686	79.7
395.895	-0.17
396.105	12.12
396.314	55.12
396.524	18.26
396.733	-30.89
396.942	32.6
397.152	96.08
397.361	-28.84
397.57	87.89
397.78	59.22
397.989	55.12
398.198	32.6
398.407	57.17
398.617	28.5
398.826	16.21
399.035	12.12
399.244	46.93
399.453	34.64
399.663	24.4
399.872	85.84
400.081	20.31
400.29	-24.75
400.499	-0.17
400.708	3.93
400.917	126.8
401.127	77.65
401.336	16.21
401.545	85.84
401.754	53.08
401.963	34.64
402.172	34.64
402.381	34.64
402.59	57.17
402.799	157.52
403.008	22.36
403.217	24.4
403.426	10.07
403.635	20.31
403.844	102.23
404.053	65.36
404.262	26.45
404.471	87.89
404.68	63.32
404.888	75.6
405.097	61.27
405.306	120.66
405.515	44.88
405.724	75.6
405.933	22.36
406.142	118.61
406.35	171.86
406.559	67.41
406.768	96.08
406.977	69.46
407.185	120.66
407.394	165.71
407.603	114.52
407.812	120.66
408.02	188.24
408.229	116.56
408.438	89.94
408.646	194.39
408.855	147.28
409.064	143.19
409.272	126.8
409.481	253.78
409.69	141.14
409.898	202.58
410.107	153.43
410.315	149.33
410.524	163.67
410.733	167.76
410.941	223.06
411.15	253.78
411.358	147.28
411.567	175.95
411.775	257.87
411.984	204.63
412.192	255.83
412.401	235.35
412.609	298.83
412.818	270.16
413.026	288.59
413.234	278.35
413.443	264.02
413.651	309.07
413.86	255.83
414.068	335.7
414.276	313.17
414.485	401.23
414.693	372.56
414.901	319.31
415.11	448.33
415.318	429.9
415.526	399.18
415.734	487.25
415.943	388.94
416.151	507.73
416.359	421.71
416.567	497.49
416.776	507.73
416.984	530.25
417.192	513.87
417.4	640.84
417.608	630.6
417.817	603.98
418.025	579.4
418.233	694.09
418.441	593.74
418.649	681.8
418.857	710.47
419.065	763.72
419.273	763.72
419.481	730.95
419.689	829.26
419.897	825.16
420.105	880.46
420.313	812.87
420.521	927.56
420.729	905.03
420.937	935.75
421.145	1058.63
421.353	1134.4
421.561	1081.16
421.769	1189.7
421.977	1204.03
422.185	1171.27
422.393	1216.32
422.601	1351.49
422.809	1359.68
423.017	1380.16
423.224	1451.84
423.432	1480.51
423.64	1490.75
423.848	1673.02
424.056	1582.91
424.263	1558.33
424.471	1732.41
424.679	1738.55
424.887	1752.89
425.094	1865.53
425.302	1830.71
425.51	1967.93
425.718	1986.36
425.925	1974.07
426.133	2080.57
426.341	2125.62
426.548	2311.99
426.756	2328.37
426.964	2250.55
427.171	2426.67
427.379	2531.12
427.586	2596.65
427.794	2641.71
428.001	2668.33
428.209	2985.77
428.417	2869.03
428.624	3047.21
428.832	3016.49
429.039	3082.02
429.247	3045.16
429.454	3307.3
429.662	3591.97
429.869	3385.12
430.076	3567.39
430.284	3444.51
430.491	3555.1
430.699	3753.76
430.906	3909.4
431.114	3907.35
431.321	4071.19
431.528	4093.72
431.736	4290.32
431.943	4509.46
432.15	4484.88
432.358	4517.65
432.565	4599.57
432.772	4802.32
432.979	4937.48
433.187	5119.75
433.394	5056.26
433.601	5377.8
433.808	5488.39
434.016	5461.76
434.223	5785.34
434.43	5910.27
434.637	5897.98
434.844	6084.34
435.052	6373.11
435.259	6321.91
435.466	6371.06
435.673	6356.72
435.88	6727.41
436.087	7073.51
436.294	7196.39
436.501	6780.65
436.708	6987.5
436.915	7335.65
437.122	7784.16
437.329	7479.01
437.537	7929.56
437.743	7966.43
437.95	7888.6
438.157	8296.15
438.364	8632.02
438.571	8672.98
438.778	8750.8
438.985	9389.77
439.192	9146.06
439.399	9285.32
439.606	9350.85
439.813	9592.51
440.02	10348.22
440.227	10096.32
440.433	10112.7
440.64	10518.2
440.847	10241.72
441.054	10493.62
441.261	11404.97
441.467	11181.74
441.674	11443.88
441.881	11751.07
442.088	11607.72
442.294	11726.5
442.501	11945.63
442.708	12134.04
442.914	12797.59
443.121	13258.38
443.328	13020.81
443.534	13799.04
443.741	13297.29
443.948	13041.29
444.154	14208.64
444.361	14069.37
444.568	14182.01
444.774	14329.47
444.981	14392.95
445.187	14769.78
445.394	15361.64
445.6	15314.54
445.807	16858.71
446.013	15988.32
446.22	16438.87
446.426	17233.49
446.633	17391.18
446.839	17725
447.046	17301.07
447.252	18257.47
447.459	18044.48
447.665	18169.41
447.871	18818.61
448.078	19791.4
448.284	18824.76
448.491	19039.79
448.697	20131.36
448.903	20497.95
449.11	20497.95
449.316	20143.65
449.522	20438.56
449.728	21081.62
449.935	21417.49
450.141	21249.55
450.347	21839.37
450.553	20940.31
450.76	21425.68
450.966	22197.76
451.172	21771.79
451.378	22521.34
451.584	22179.33
451.791	22703.61
451.997	22480.38
452.203	23371.25
452.409	22787.58
452.615	22730.23
452.821	21954.05
453.027	21984.77
453.233	22978.04
453.44	22179.33
453.646	22332.93
453.852	22595.07
454.058	22433.28
454.264	22255.11
454.47	22474.24
454.676	22412.8
454.882	22926.84
455.088	20803.1
455.294	21368.34
455.5	21628.43
455.705	21917.19
455.911	20596.25
456.117	20620.83
456.323	20393.5
456.529	19060.27
456.735	20180.51
456.941	19283.5
457.147	19095.09
457.352	18595.39
457.558	18257.47
457.764	18497.08
457.97	17960.52
458.176	17571.4
458.381	17845.83
458.587	16871
458.793	16995.92
458.999	15969.89
459.204	17274.45
459.41	16637.53
459.616	15435.37
459.821	15474.28
460.027	15470.19
460.233	15382.12
460.438	14390.91
460.644	14642.81
460.85	13917.82
461.055	13522.57
461.261	13631.11
461.466	12705.43
461.672	12132
461.878	13278.86
462.083	12058.27
462.289	12052.13
462.494	11806.37
462.7	11484.84
462.905	11116.2
463.111	11419.3
463.316	11579.04
463.522	11280.04
463.727	11337.38
463.932	11169.45
464.138	11167.4
464.343	11290.28
464.549	10884.78
464.754	11288.23
464.959	11073.2
465.165	11124.4
465.37	10641.07
465.575	10426.04
465.781	10892.98
465.986	10878.64
466.191	10471.09
466.397	10258.1
466.602	9649.86
466.807	10112.7
467.012	10112.7
467.218	10018.49
467.423	10036.92
467.628	9817.79
467.833	10432.18
468.038	10135.23
468.244	9633.47
468.449	10129.08
468.654	9766.59
468.859	9723.58
469.064	9688.77
469.269	9240.26
469.474	9445.06
469.679	9670.34
469.885	9316.04
470.09	9373.38
470.295	9387.72
470.5	9191.11
470.705	9260.74
470.91	8672.98
471.115	8885.97
471.32	9123.53
471.525	9049.8
471.73	8677.07
471.935	8738.51
472.139	8513.24
472.344	8697.55
472.549	8441.56
472.754	8464.08
472.959	8185.56
473.164	8152.79
473.369	8015.58
473.574	8249.05
473.778	8107.74
473.983	7872.22
474.188	8214.23
474.393	7739.1
474.598	7802.59
474.802	7575.27
475.007	7421.67
475.212	7653.09
475.417	7280.36
475.621	7253.73
475.826	7546.59
476.031	7214.82
476.235	7100.14
476.44	7274.21
476.645	6987.5
476.849	7196.39
477.054	6995.69
477.259	6889.2
477.463	6909.68
477.668	6799.09
477.872	6848.24
478.077	6620.91
478.282	6588.14
478.486	6412.02
478.691	6532.85
478.895	6420.21
479.1	6457.07
479.304	6498.03
479.509	6108.92
479.713	6289.14
479.918	6117.11
480.122	6227.7
480.326	6076.15
480.531	6080.25
480.735	6102.78
480.94	6129.4
481.144	6248.18
481.348	5951.23
481.553	5916.41
481.757	5820.16
481.961	5852.92
482.166	6008.57
482.37	5981.95
482.574	5895.93
482.778	5930.75
482.983	6094.58
483.187	5879.55
483.391	6012.67
483.595	5969.66
483.8	5844.73
484.004	5854.97
484.208	5963.51
484.412	5803.77
484.616	5830.4
484.821	5844.73
485.025	5932.79
485.229	5949.18
485.433	5996.28
485.637	5930.75
485.841	5852.92
486.045	5719.81
486.249	5891.84
486.453	5793.53
486.657	5850.88
486.861	6008.57
487.065	5578.5
487.269	5848.83
487.473	5791.48
487.677	5838.59
487.881	5914.36
488.085	5998.33
488.289	6057.72
488.493	5832.44
488.697	6061.82
488.901	5981.95
489.105	5977.85
489.309	5840.64
489.512	6098.68
489.716	6008.57
489.92	5824.25
490.124	6029.05
490.328	6162.17
490.531	5973.75
490.735	6092.54
490.939	6086.39
491.143	6209.27
491.346	6205.17
491.55	6301.43
491.754	6285.05
491.958	6399.73
492.161	6350.58
492.365	6412.02
492.569	6426.36
492.772	6293.24
492.976	6455.03
493.18	6412.02
493.383	6575.86
493.587	6489.84
493.79	6776.56
493.994	6483.7
494.197	6635.25
494.401	6602.48
494.605	6711.02
494.808	6741.74
495.012	6682.35
495.215	6815.47
495.419	6991.59
495.622	6866.67
495.825	7005.93
496.029	6840.04
496.232	7313.13
496.436	7292.65
496.639	7227.11
496.843	7143.14
497.046	7560.93
497.249	7489.25
497.453	7679.71
497.656	7618.27
497.859	7583.46
498.063	7677.66
498.266	7900.89
498.469	7945.95
498.673	7866.08
498.876	8050.39
499.079	8263.38
499.282	8201.94
499.485	8529.62
499.689	8367.83
499.892	8625.87
500.095	8697.55
500.298	8738.51
500.501	8691.41
500.705	8955.6
500.908	8933.07
501.111	9189.07
501.314	9184.97
501.517	9266.89
501.72	9406.15
501.923	9459.4
502.126	9715.39
502.329	10032.83
502.532	9813.7
502.735	9912
502.938	10264.25
503.141	10321.59
503.344	10452.66
503.547	10368.7
503.75	10782.38
503.953	10788.53
504.156	11003.57
504.359	10995.37
504.562	10985.13
504.765	11243.18
504.968	11464.36
505.17	11431.59
505.373	11697.83
505.576	11904.67
505.779	11853.47
505.982	12248.73
506.185	12207.77
506.387	12265.11
506.59	12467.86
506.793	12816.02
506.996	12846.74
507.198	13102.73
507.401	13067.92
507.604	13117.07
507.807	13541
508.009	13549.19
508.212	13790.85
508.415	14007.94
508.617	14083.71
508.82	14141.05
509.022	14337.66
509.225	14528.12
509.428	14696.05
509.63	14696.05
509.833	14620.28
510.035	15165.04
510.238	15097.45
510.44	15300.2
510.643	15548.01
510.845	16100.96
511.048	15920.74
511.25	16404.06
511.453	16182.88
511.655	16995.92
511.858	16453.21
512.06	16940.63
512.262	17045.07
512.465	16911.96
512.667	17223.25
512.87	17575.5
513.072	17632.84
513.274	17958.47
513.477	18210.37
513.679	18316.86
513.881	18472.51
514.084	18673.21
514.286	18587.19
514.488	18976.31
514.69	19424.81
514.893	19439.15
515.095	19500.59
515.297	19654.19
515.499	19775.02
515.701	20282.91
515.904	20516.38
516.106	20563.48
516.308	20747.8
516.51	21089.81
516.712	20897.3
516.914	21366.29
517.116	21698.06
517.318	21532.17
517.52	22134.28
517.722	21911.05
517.925	22310.4
518.127	22619.64
518.329	22904.31
518.531	22345.22
518.733	23240.18
518.935	23580.14
519.136	23414.26
519.338	23774.7
519.54	23948.78
519.742	24161.76
519.944	24174.05
520.146	24583.65
520.348	24929.75
520.55	24868.31
520.752	25228.76
520.954	25308.63
521.155	25503.18
521.357	25718.22
521.559	26115.53
521.761	26527.17
521.963	26475.97
522.164	26473.92
522.366	26779.07
522.568	26959.29
522.77	27057.59
522.971	27592.11
523.173	27295.16
523.375	27755.95
523.576	27743.66
523.778	27956.65
523.98	28116.39
524.181	28345.76
524.383	28353.96
524.584	28628.38
524.786	28716.45
524.988	28652.96
525.189	29195.67
525.391	29298.07
525.592	29461.91
525.794	29210.01
525.995	29392.28
526.197	29494.68
526.398	29939.08
526.6	30004.62
526.801	30084.49
527.003	30064.01
527.204	30289.29
527.406	30533
527.607	30739.84
527.808	30588.29
528.01	30043.53
528.211	30686.59
528.412	31161.72
528.614	31016.32
528.815	30893.44
529.016	31243.64
529.218	30877.05
529.419	31384.95
529.62	31249.78
529.822	31217.02
530.023	31413.62
530.224	31458.68
530.425	31567.22
530.626	31270.26
530.828	31518.07
531.029	32220.52
531.23	31700.34
531.431	32009.58
531.632	32257.39
531.833	32109.93
532.035	32107.88
532.236	31855.98
532.437	32243.05
532.638	32230.76
532.839	31972.72
533.04	32497
533.241	32056.68
533.442	32357.74
533.643	32480.61
533.844	32077.16
534.045	32550.24
534.246	31694.19
534.447	32783.71
534.648	32304.49
534.849	32607.59
535.05	32052.59
535.251	32337.26
535.451	32197.99
535.652	32589.16
535.853	32554.34
536.054	32607.59
536.255	32662.88
536.456	32263.53
536.657	32824.67
536.857	32365.93
537.058	32351.59
537.259	32738.66
537.46	32464.23
537.66	32413.03
537.861	32386.41
538.062	32089.45
538.263	32406.89
538.463	32476.52
538.664	32216.43
538.865	32738.66
539.065	32722.27
539.266	32476.52
539.466	32664.93
539.667	32253.29
539.868	32709.99
540.068	32587.11
540.269	32486.76
540.469	32345.45
540.67	32279.91
540.87	32163.18
541.071	32071.02
541.271	32640.36
541.472	32111.98
541.672	32474.47
541.873	32619.88
542.073	32073.07
542.274	32611.68
542.474	32195.95
542.675	32263.53
542.875	32882.02
543.075	32230.76
543.276	32292.2
543.476	32748.9
543.676	32619.88
543.877	32222.57
544.077	32599.4
544.277	32652.64
544.478	32320.87
544.678	32402.79
544.878	32187.75
545.078	32281.96
545.279	32341.35
545.479	32349.54
545.679	32470.37
545.879	32681.31
546.079	32331.11
546.28	32265.58
546.48	32105.84
546.68	32259.43
546.88	32783.71
547.08	32212.33
547.28	32060.78
547.48	31868.27
547.68	32357.74
547.88	32267.62
548.081	32329.06
548.281	32095.6
548.481	32079.21
548.681	32537.96
548.881	32275.82
549.081	32488.81
549.28	32245.1
549.48	32365.93
549.68	32324.97
549.88	32648.55
550.08	32214.38
550.28	32122.22
550.48	32091.5
550.68	32593.25
550.88	31804.78
551.08	31980.91
551.279	31716.72
551.479	31870.32
551.679	32476.52
551.879	32034.16
552.079	32324.97
552.278	32007.53
552.478	31888.75
552.678	31886.7
552.878	31958.38
553.077	32054.64
553.277	31767.92
553.477	32351.59
553.676	32081.26
553.876	31720.82
554.076	32056.68
554.275	31501.68
554.475	31563.12
554.674	32210.28
554.874	31960.43
555.074	31784.3
555.273	32048.49
555.473	32013.68
555.672	31284.6
555.872	31821.17
556.071	31749.49
556.271	31552.88
556.47	31567.22
556.67	31198.59
556.869	31460.73
557.068	31499.64
557.268	31567.22
557.467	31489.4
557.667	31597.94
557.866	31329.66
558.065	31686
558.265	31352.18
558.464	31194.49
558.663	31653.23
558.863	31131
559.062	31522.16
559.261	30956.92
559.461	31382.9
559.66	30911.87
559.859	30817.66
560.058	30561.67
560.258	31055.23
560.457	30858.62
560.656	31178.11
560.855	30649.73
561.054	30700.93
561.253	30705.02
561.453	30655.87
561.652	30700.93
561.851	31096.19
562.05	30518.66
562.249	30705.02
562.448	30573.95
562.647	30678.4
562.846	30598.53
563.045	30457.22
563.244	30248.33
563.443	30709.12
563.642	30053.77
563.841	30145.93
564.04	30240.14
564.239	30590.34
564.438	29863.31
564.637	30010.76
564.836	29953.42
565.035	30064.01
565.234	30178.7
565.432	29562.26
565.631	29554.07
565.83	29797.77
566.029	29656.46
566.228	29293.97
566.427	29830.54
566.625	29339.03
566.824	29265.3
567.023	29466
567.222	28714.4
567.42	29398.42
567.619	29162.9
567.818	29130.14
568.016	28880.28
568.215	29318.55
568.414	28609.95
568.612	28927.39
568.811	28745.12
569.01	28513.7
569.208	28636.58
569.407	28925.34
569.605	28511.65
569.804	28745.12
570.002	28454.31
570.201	28327.33
570.4	28255.65
570.598	27870.64
570.797	28087.72
570.995	27866.54
571.193	28046.76
571.392	28188.07
571.59	27762.09
571.789	27962.79
571.987	27483.57
572.186	27887.02
572.384	27551.15
572.582	27721.13
572.781	27854.25
572.979	27196.85
573.177	27338.16
573.376	27463.09
573.574	27100.6
573.772	27217.33
573.971	27272.63
574.169	26846.65
574.367	26842.56
574.565	27172.28
574.763	26936.76
574.962	26801.6
575.16	26824.12
575.358	26727.87
575.556	26125.77
575.754	27162.04
575.952	26199.49
576.151	26637.76
576.349	25779.66
576.547	26129.86
576.745	26500.54
576.943	26013.13
577.141	25898.44
577.339	26093
577.537	26013.13
577.735	25953.74
577.933	25527.76
578.131	25861.58
578.329	25652.69
578.527	25382.35
578.725	25327.06
578.923	25775.56
579.121	25503.18
579.319	25202.13
579.516	25484.75
579.714	25224.66
579.912	25007.58
580.11	25105.88
580.308	25165.27
580.506	24624.61
580.704	24698.33
580.901	24903.13
581.099	24901.08
581.297	24671.71
581.495	24624.61
581.692	24890.84
581.89	24690.14
582.088	24303.07
582.285	24124.9
582.483	24569.31
582.681	24358.37
582.878	24231.4
583.076	24131.05
583.274	24384.99
583.471	23586.29
583.669	23965.16
583.866	23756.27
584.064	23703.02
584.262	23592.43
584.459	23641.58
584.657	23451.12
584.854	23535.09
585.052	23285.23
585.249	23377.39
585.447	23342.58
585.644	23399.92
585.841	23158.26
586.039	23287.28
586.236	22896.12
586.434	23141.88
586.631	23037.43
586.828	23029.24
587.026	23059.96
587.223	22672.89
587.42	22611.45
587.618	22736.38
587.815	22318.59
588.012	22572.54
588.21	22361.6
588.407	22638.08
588.604	22226.43
588.801	22158.85
588.999	22121.99
589.196	22410.75
589.393	22113.8
589.59	21978.63
589.787	21990.92
589.984	21865.99
590.182	21757.45
590.379	22226.43
590.576	21659.15
590.773	21597.71
590.97	21446.16
591.167	21421.58
591.364	21351.95
591.561	21276.18
591.758	21200.4
591.955	20907.54
592.152	21222.93
592.349	21108.24
592.546	21061.14
592.743	21024.28
592.94	20786.71
593.137	20962.84
593.334	21192.21
593.531	20477.47
593.727	20807.19
593.924	20586.01
594.121	20444.7
594.318	20608.54
594.515	20348.45
594.712	20536.86
594.908	20399.65
595.105	20526.62
595.302	20086.31
595.499	20348.45
595.696	20280.86
595.892	20162.08
596.089	20135.46
596.286	20024.87
596.482	19818.02
596.679	19969.57
596.876	19873.32
597.072	19758.63
597.269	19834.41
597.466	19293.74
597.662	19351.09
597.859	19652.14
598.055	19887.65
598.252	19365.42
598.448	19088.95
598.645	19369.52
598.841	19070.51
599.038	19113.52
599.234	19174.96
599.431	19009.08
599.627	19074.61
599.824	19062.32
600.02	18787.89
600.217	18843.19
600.413	18652.73
600.609	18710.07
600.806	18628.15
601.002	18804.28
601.198	18474.56
601.395	18544.19
601.591	18527.8
601.787	18460.22
601.984	18163.26
602.18	18458.17
602.376	17976.9
602.572	17864.26
602.769	18216.51
602.965	17851.97
603.161	18103.87
603.357	17698.38
603.553	17737.29
603.75	17663.56
603.946	17995.33
604.142	17837.64
604.338	17393.23
604.534	17972.8
604.73	17448.52
604.926	17460.81
605.122	17645.13
605.318	17432.14
605.514	17399.37
605.71	17366.6
605.906	17294.93
606.102	17198.67
606.298	17243.73
606.494	17053.27
606.69	17065.55
606.886	17088.08
607.082	17022.55
607.278	17198.67
607.474	16762.45
607.67	16684.63
607.866	16520.79
608.062	16803.41
608.257	16504.41
608.453	16701.01
608.649	16778.84
608.845	16477.79
609.041	16490.07
609.236	16399.96
609.432	16361.05
609.628	16418.39
609.824	16293.47
610.019	16578.14
610.215	15973.99
610.411	16324.19
610.606	16256.61
610.802	16131.68
610.998	16031.33
611.193	16262.75
611.389	15875.68
611.584	16139.87
611.78	16047.71
611.976	15933.03
612.171	15947.36
612.367	15812.2
612.562	15679.08
612.758	15656.55
612.953	15711.85
613.149	15992.42
613.344	15584.87
613.539	15693.41
613.735	15627.88
613.93	15736.42
614.126	15664.74
614.321	15634.02
614.517	15435.37
614.712	15441.51
614.907	15380.07
615.103	15507.05
615.298	15378.03
615.493	15480.43
615.688	15292.01
615.884	15597.16
616.079	15216.24
616.274	15429.23
616.47	15128.17
616.665	15212.14
616.86	15273.58
617.055	14911.09
617.25	14894.71
617.445	15345.26
617.641	14554.74
617.836	14902.9
618.031	14790.26
618.226	14898.8
618.421	14917.23
618.616	14587.51
618.811	14564.98
619.006	14802.55
619.201	14419.58
619.396	14675.57
619.591	14261.88
619.786	14511.74
619.981	14366.33
620.176	14263.93
620.371	13966.98
620.566	14280.32
620.761	14007.94
620.956	14126.72
621.151	13723.27
621.346	14120.57
621.541	13756.04
621.735	13794.95
621.93	13575.81
622.125	13872.77
622.32	13500.04
622.515	13588.1
622.709	13242
622.904	13254.28
623.099	13377.16
623.294	13231.76
623.488	12998.29
623.683	13024.91
623.878	12844.69
624.072	12945.04
624.267	12942.99
624.462	12631.7
624.656	13008.53
624.851	12807.83
625.046	12670.61
625.24	12619.41
625.435	12514.97
625.629	12453.53
625.824	12361.37
626.018	12439.19
626.213	12207.77
626.407	12193.44
626.602	12066.46
626.796	12045.98
626.991	12299.93
627.185	11953.82
627.38	11730.59
627.574	12000.93
627.768	11857.57
627.963	11478.69
628.157	11454.12
628.352	11728.55
628.546	11409.06
628.74	11458.21
628.935	11161.26
629.129	11290.28
629.323	11179.69
629.517	11194.03
629.712	11261.61
629.906	11296.42
630.1	10819.25
630.294	11009.71
630.489	10882.74
630.683	10948.27
630.877	10759.86
631.071	10669.75
631.265	10794.67
631.459	10524.34
631.653	10602.16
631.848	10602.16
632.042	10276.54
632.236	10346.17
632.43	10305.21
632.624	10352.31
632.818	10262.2
633.012	10036.92
633.206	10041.02
633.4	10301.11
633.594	9961.15
633.788	9842.37
633.982	10000.06
634.176	9928.38
634.369	9799.36
634.563	10069.69
634.757	9871.04
634.951	9803.46
635.145	9713.35
635.339	9567.94
635.533	9461.44
635.726	9375.43
635.92	9451.21
636.114	9475.78
636.308	9174.73
636.501	9426.63
636.695	9152.2
636.889	9215.69
637.083	9197.26
637.276	9113.29
637.47	9043.66
637.664	8980.17
637.857	9014.99
638.051	9080.52
638.244	8881.87
638.438	8877.77
638.632	8740.56
638.825	8623.83
639.019	8638.16
639.212	8496.85
639.406	8777.42
639.599	8527.57
639.793	8443.6
639.986	8224.47
640.18	8376.02
640.373	8314.58
640.567	8146.65
640.76	8296.15
640.954	8255.19
641.147	8087.26
641.34	7976.67
641.534	7939.8
641.727	7962.33
641.92	7761.63
642.114	7952.09
642.307	7894.75
642.5	7732.96
642.694	7556.83
642.887	7757.53
643.08	7743.2
643.273	7595.75
643.467	7384.8
643.66	7528.16
643.853	7528.16
644.046	7266.02
644.239	7624.42
644.432	7366.37
644.626	7390.95
644.819	7358.18
645.012	7405.28
645.205	7169.77
645.398	7028.46
645.591	7083.75
645.784	7069.42
645.977	6862.57
646.17	7247.59
646.363	7046.89
646.556	6864.62
646.749	6860.52
646.942	6754.03
647.135	6678.26
647.328	6719.21
647.521	6672.11
647.714	6647.54
647.907	6590.19
648.099	6739.69
648.292	6655.73
648.485	6487.79
648.678	6295.29
648.871	6483.7
649.064	6356.72
649.256	6469.36
649.449	6291.19
649.642	6385.4
649.835	6139.64
650.027	6235.89
650.22	6213.37
650.413	6219.51
650.605	6018.81
650.798	6108.92
650.991	6084.34
651.183	6039.29
651.376	5938.94
651.568	5881.6
651.761	5932.79
651.954	5959.42
652.146	5914.36
652.339	5895.93
652.531	5648.13
652.724	5842.68
652.916	5668.61
653.109	5787.39
653.301	5601.02
653.494	5820.16
653.686	5566.21
653.879	5564.16
654.071	5574.4
654.263	5299.97
654.456	5439.23
654.648	5445.38
654.84	5461.76
655.033	5246.73
655.225	5422.85
655.417	5371.65
655.61	5299.97
655.802	5351.17
655.994	5297.92
656.186	5238.53
656.379	5148.42
656.571	5228.29
656.763	5095.18
656.955	5164.81
657.148	5101.32
657.34	5121.8
657.532	5035.78
657.724	5091.08
657.916	4949.77
658.108	4921.1
658.3	4917
658.492	4906.76
658.684	4818.7
658.876	4775.69
659.068	4853.52
659.26	4759.31
659.452	4704.01
659.644	4669.2
659.836	4593.42
660.028	4738.83
660.22	4720.4
660.412	4591.38
660.604	4572.94
660.796	4499.22
660.988	4464.4
661.18	4519.7
661.372	4439.83
661.563	4531.98
661.755	4316.95
661.947	4419.35
662.139	4337.43
662.331	4333.33
662.522	4284.18
662.714	4230.93
662.906	4204.31
663.097	4208.41
663.289	4255.51
663.481	4306.71
663.673	4226.84
663.864	4028.18
664.056	4054.81
664.247	4060.95
664.439	4089.62
664.631	4017.94
664.822	4065.05
665.014	3999.51
665.205	4136.73
665.397	3923.74
665.588	3952.41
665.78	3913.5
665.971	4081.43
666.163	3999.51
666.354	3843.87
666.546	3729.18
666.737	3802.91
666.929	3893.02
667.12	3710.75
667.311	3680.03
667.503	3587.87
667.694	3675.93
667.885	3604.25
668.077	3677.98
668.268	3764
668.459	3606.3
668.651	3620.64
668.842	3596.06
669.033	3594.01
669.224	3546.91
669.416	3522.34
669.607	3641.12
669.798	3499.81
669.989	3663.65
670.18	3338.02
670.371	3428.13
670.563	3460.9
670.754	3360.55
670.945	3331.87
671.136	3557.15
671.327	3479.33
671.518	3292.96
671.709	3383.07
671.9	3295.01
672.091	3362.59
672.282	3319.59
672.473	3258.15
672.664	3358.5
672.855	3254.05
673.046	3223.33
673.237	3311.39
673.428	3307.3
673.619	3088.17
673.809	3149.61
674	3139.37
674.191	3231.52
674.382	3211.04
674.573	3120.93
674.764	3122.98
674.954	3108.65
675.145	3206.95
675.336	3153.7
675.527	3039.01
675.717	3108.65
675.908	2981.67
676.099	3057.45
676.289	3028.78
676.48	3114.79
676.671	3061.54
676.861	3151.65
677.052	3055.4
677.243	3030.82
677.433	3041.06
677.624	3039.01
677.814	2979.62
678.005	2942.76
678.195	2934.57
678.386	3129.13
678.576	2948.9
678.767	2965.29
678.957	2879.27
679.148	2881.32
679.338	2936.62
679.529	2926.38
679.719	2897.71
679.909	3043.11
680.1	2932.52
680.29	2965.29
680.481	2885.42
680.671	2932.52
680.861	2961.19
681.052	2924.33
681.242	2866.99
681.432	2924.33
681.622	2893.61
681.813	2811.69
682.003	2735.92
682.193	2828.07
682.383	2893.61
682.573	2887.47
682.764	2909.99
682.954	2858.79
683.144	2934.57
683.334	2780.97
683.524	2836.27
683.714	2909.99
683.904	2740.01
684.094	2713.39
684.284	2826.03
684.474	2752.3
684.664	2713.39
684.854	2828.07
685.044	2774.83
685.234	2805.55
685.424	2844.46
685.614	2705.2
685.804	2752.3
685.994	2690.86
686.184	2723.63
686.374	2803.5
686.564	2744.11
686.753	2723.63
686.943	2498.35
687.133	2740.01
687.323	2666.28
687.513	2613.04
687.702	2649.9
687.892	2645.8
688.082	2707.24
688.272	2627.37
688.461	2662.19
688.651	2729.77
688.841	2694.96
689.03	2619.18
689.22	2760.49
689.41	2637.61
689.599	2547.5
689.789	2643.76
689.979	2541.36
690.168	2570.03
690.358	2459.44
690.547	2715.44
690.737	2516.78
690.926	2543.41
691.116	2656.04
691.305	2701.1
691.495	2520.88
691.684	2514.73
691.874	2623.28
692.063	2572.08
692.252	2518.83
692.442	2426.67
692.631	2563.89
692.82	2535.21
693.01	2547.5
693.199	2406.19
693.388	2492.21
693.578	2465.58
693.767	2574.13
693.956	2402.1
694.146	2418.48
694.335	2342.71
694.524	2400.05
694.713	2434.86
694.902	2426.67
695.092	2516.78
695.281	2395.95
695.47	2436.91
695.659	2404.14
695.848	2451.25
696.037	2418.48
696.226	2295.6
696.415	2338.61
696.604	2371.38
696.793	2371.38
696.982	2373.43
697.171	2461.49
697.36	2488.11
697.549	2383.66
697.738	2375.47
697.927	2199.35
698.116	2277.17
698.305	2234.16
698.494	2262.83
698.683	2332.47
698.872	2479.92
699.061	2297.65
699.25	2316.08
699.438	2391.86
699.627	2408.24
699.816	2258.74
700.005	2301.75
700.193	2314.03
700.382	2277.17
700.571	2236.21
700.76	2297.65
700.948	2248.5
701.137	2264.88
701.326	2346.8
701.514	2195.25
701.703	2268.98
701.892	2393.9
702.08	2373.43
702.269	2316.08
702.457	2295.6
702.646	2211.64
702.834	2211.64
703.023	2156.34
703.212	2150.2
703.4	2191.16
703.589	2125.62
703.777	2232.12
703.965	2137.91
704.154	2129.72
704.342	2225.97
704.531	2193.2
704.719	2191.16
704.907	2072.37
705.096	2125.62
705.284	2109.24
705.472	2150.2
705.661	2107.19
705.849	2055.99
706.037	2180.92
706.226	2146.1
706.414	2019.13
706.602	2164.53
706.79	2223.92
706.979	1998.65
707.167	2113.33
707.355	2154.29
707.543	1994.55
707.731	2146.1
707.919	2125.62
708.107	2154.29
708.296	1990.45
708.484	2121.52
708.672	2027.32
708.86	2060.09
709.048	1978.17
709.236	2062.13
709.424	2072.37
709.612	2002.74
709.8	2031.41
709.988	1998.65
710.176	1990.45
710.364	2023.22
710.551	1965.88
710.739	1943.35
710.927	1943.35
711.115	2015.03
711.303	2064.18
711.491	2006.84
711.679	1906.49
711.866	1976.12
712.054	1912.63
712.242	1994.55
712.43	1933.11
712.617	1904.44
712.805	1888.06
712.993	1922.87
713.181	1793.85
713.368	1898.3
713.556	1832.76
713.744	1830.71
713.931	1896.25
714.119	1838.91
714.306	1957.69
714.494	1904.44
714.682	1886.01
714.869	1834.81
715.057	1937.21
715.244	1861.43
715.432	1808.19
715.619	1797.95
715.807	1918.78
715.994	1795.9
716.182	1812.28
716.369	1797.95
716.556	1853.24
716.744	1752.89
716.931	1840.95
717.119	1808.19
717.306	1785.66
717.493	1732.41
717.681	1767.23
717.868	1675.07
718.055	1886.01
718.242	1793.85
718.43	1867.58
718.617	1826.62
718.804	1748.79
718.991	1736.51
719.179	1791.8
719.366	1804.09
719.553	1726.27
719.74	1752.89
719.927	1713.98
720.114	1785.66
720.301	1683.26
720.488	1693.5
720.676	1689.4
720.863	1720.12
721.05	1691.45
721.237	1687.36
721.424	1726.27
721.611	1699.64
721.798	1664.83
721.985	1673.02
722.172	1642.3
722.358	1675.07
722.545	1623.87
722.732	1683.26
722.919	1709.88
723.106	1560.38
723.293	1611.58
723.48	1675.07
723.667	1613.63
723.853	1572.67
724.04	1656.64
724.227	1462.08
724.414	1668.92
724.6	1593.15
724.787	1736.51
724.974	1656.64
725.161	1529.66
725.347	1527.61
725.534	1609.53
725.72	1515.33
725.907	1711.93
726.094	1644.35
726.28	1554.24
726.467	1619.77
726.653	1455.94
726.84	1539.9
727.027	1642.3
727.213	1609.53
727.4	1564.48
727.586	1490.75
727.773	1556.29
727.959	1472.32
728.145	1572.67
728.332	1490.75
728.518	1535.81
728.705	1488.7
728.891	1535.81
729.077	1589.05
729.264	1490.75
729.45	1527.61
729.636	1572.67
729.823	1554.24
730.009	1451.84
730.195	1496.89
730.382	1560.38
730.568	1521.47
730.754	1503.04
730.94	1472.32
731.126	1517.37
731.313	1566.53
731.499	1326.91
731.685	1417.02
731.871	1546.05
732.057	1484.61
732.243	1453.89
732.429	1548.09
732.615	1580.86
732.801	1597.24
732.987	1494.85
733.173	1531.71
733.359	1447.74
733.545	1359.68
733.731	1421.12
733.917	1613.63
734.103	1472.32
734.289	1519.42
734.475	1500.99
734.661	1447.74
734.847	1431.36
735.033	1447.74
735.219	1437.5
735.404	1435.46
735.59	1414.98
735.776	1382.21
735.962	1335.1
736.148	1404.74
736.333	1441.6
736.519	1406.78
736.705	1392.45
736.89	1451.84
737.076	1371.97
737.262	1402.69
737.447	1417.02
737.633	1369.92
737.819	1406.78
738.004	1257.28
738.19	1355.58
738.375	1308.48
738.561	1363.78
738.747	1376.06
738.932	1324.87
739.118	1324.87
739.303	1400.64
739.489	1408.83
739.674	1384.26
739.859	1328.96
740.045	1365.82
740.23	1345.34
740.416	1271.62
740.601	1296.19
740.786	1244.99
740.972	1380.16
741.157	1236.8
741.342	1302.34
741.528	1283.91
741.713	1281.86
741.898	1253.19
742.084	1314.63
742.269	1320.77
742.454	1148.74
742.639	1326.91
742.824	1263.43
743.01	1195.84
743.195	1244.99
743.38	1320.77
743.565	1216.32
743.75	1249.09
743.935	1222.47
744.12	1140.55
744.305	1242.95
744.49	1199.94
744.675	1195.84
744.86	1210.18
745.045	1189.7
745.23	1179.46
745.415	1238.85
745.6	1224.51
745.785	1136.45
745.97	1224.51
746.155	1105.73
746.34	1085.25
746.525	1154.88
746.71	1201.99
746.895	1118.02
747.079	1064.77
747.264	1140.55
747.449	1134.4
747.634	1179.46
747.819	1210.18
748.003	1060.68
748.188	1085.25
748.373	1089.35
748.557	1050.44
748.742	1064.77
748.927	1124.16
749.111	1068.87
749.296	1038.15
749.481	1019.72
749.665	1060.68
749.85	1091.4
750.034	939.85
750.219	1015.62
750.404	960.33
750.588	1023.81
750.773	1025.86
750.957	937.8
751.141	989
751.326	1027.91
751.51	989
751.695	974.66
751.879	1021.77
752.064	962.37
752.248	1029.96
752.432	911.18
752.617	968.52
752.801	882.5
752.985	859.98
753.17	888.65
753.354	898.89
753.538	941.89
753.722	902.98
753.907	902.98
754.091	907.08
754.275	923.46
754.459	868.17
754.643	853.83
754.828	794.44
755.012	825.16
755.196	851.78
755.38	876.36
755.564	874.31
755.748	837.45
755.932	786.25
756.116	888.65
756.3	796.49
756.484	862.02
756.668	720.71
756.852	823.11
757.036	773.96
757.22	882.5
757.404	786.25
757.588	689.99
757.772	698.19
757.956	763.72
758.14	763.72
758.323	747.34
758.507	718.67
758.691	749.39
758.875	749.39
759.059	769.87
759.242	673.61
759.426	747.34
759.61	743.24
759.794	728.91
759.977	667.47
760.161	810.82
760.345	640.84
760.528	698.19
760.712	706.38
760.895	679.75
761.079	681.8
761.263	669.52
761.446	714.57
761.63	638.8
761.813	657.23
761.997	700.23
762.18	667.47
762.364	667.47
762.547	591.69
762.731	677.71
762.914	640.84
763.098	577.36
763.281	661.32
763.464	606.03
763.648	577.36
763.831	677.71
764.015	622.41
764.198	698.19
764.381	704.33
764.564	618.32
764.748	634.7
764.931	626.51
765.114	589.64
765.297	608.08
765.481	542.54
765.664	640.84
765.847	573.26
766.03	587.6
766.213	624.46
766.397	669.52
766.58	554.83
766.763	540.49
766.946	536.4
767.129	522.06
767.312	642.89
767.495	618.32
767.678	532.3
767.861	522.06
768.044	542.54
768.227	626.51
768.41	567.12
768.593	646.99
768.776	505.68
768.959	507.73
769.142	618.32
769.324	581.45
769.507	579.4
769.69	565.07
769.873	511.82
770.056	601.93
770.239	560.97
770.421	614.22
770.604	583.5
770.787	524.11
770.97	458.57
771.152	487.25
771.335	548.68
771.518	491.34
771.7	530.25
771.883	573.26
772.066	499.53
772.248	587.6
772.431	446.29
772.613	569.16
772.796	477.01
772.978	524.11
773.161	538.45
773.343	522.06
773.526	489.29
773.708	522.06
773.891	405.33
774.073	485.2
774.256	456.53
774.438	483.15
774.621	511.82
774.803	560.97
774.985	472.91
775.168	413.52
775.35	434
775.532	413.52
775.715	409.42
775.897	423.76
776.079	411.47
776.261	427.85
776.444	452.43
776.626	446.29
776.808	477.01
776.99	452.43
777.173	434
777.355	362.32
777.537	390.99
777.719	450.38
777.901	390.99
778.083	409.42
778.265	405.33
778.447	395.09
778.629	386.9
778.811	462.67
778.993	350.03
779.175	315.22
779.357	446.29
779.539	343.89
779.721	368.46
779.903	327.5
780.085	327.5
780.267	386.9
780.449	409.42
780.631	405.33
780.812	335.7
780.994	307.02
781.176	395.09
781.358	362.32
781.54	376.66
781.721	442.19
781.903	347.98
782.085	315.22
782.267	282.45
782.448	257.87
782.63	339.79
782.812	378.7
782.993	339.79
783.175	253.78
783.357	302.93
783.538	294.74
783.72	253.78
783.901	255.83
784.083	356.18
784.264	253.78
784.446	319.31
784.627	243.54
784.809	278.35
784.99	337.74
785.172	272.21
785.353	294.74
785.535	339.79
785.716	286.54
785.897	280.4
786.079	274.26
786.26	302.93
786.441	319.31
786.623	245.59
786.804	284.5
786.985	247.63
787.167	251.73
787.348	274.26
787.529	325.46
787.71	223.06
787.891	302.93
788.073	255.83
788.254	245.59
788.435	194.39
788.616	255.83
788.797	272.21
788.978	184.15
789.159	218.96
789.34	165.71
789.522	200.53
789.703	272.21
789.884	245.59
790.065	196.43
790.246	247.63
790.427	235.35
790.607	255.83
790.788	223.06
790.969	214.87
791.15	175.95
791.331	225.11
791.512	159.57
791.693	214.87
791.874	180.05
792.054	190.29
792.235	218.96
792.416	165.71
792.597	198.48
792.778	253.78
792.958	178
793.139	149.33
793.32	229.2
793.5	190.29
793.681	165.71
793.862	198.48
794.042	268.11
794.223	167.76
794.404	173.91
794.584	151.38
794.765	128.85
794.945	276.31
795.126	173.91
795.306	163.67
795.487	223.06
795.667	180.05
795.848	122.71
796.028	264.02
796.209	167.76
796.389	194.39
796.57	214.87
796.75	149.33
796.93	135
797.111	53.08
797.291	85.84
797.471	218.96
797.652	132.95
797.832	178
798.012	184.15
798.192	235.35
798.373	114.52
798.553	165.71
798.733	180.05
798.913	112.47
799.093	147.28
799.274	112.47
799.454	202.58
799.634	132.95
799.814	141.14
799.994	126.8
800.174	89.94
800.354	212.82
800.534	155.47
800.714	155.47
800.894	178
801.074	114.52
801.254	89.94
801.434	149.33
801.614	229.2
801.794	110.42
801.974	370.51
802.154	46.93
802.334	141.14
802.514	110.42
802.693	75.6
802.873	65.36
803.053	122.71
803.233	178
803.413	135
803.592	94.04
803.772	102.23
803.952	83.8
804.131	89.94
804.311	77.65
804.491	89.94
804.67	106.32
804.85	89.94
805.03	135
805.209	198.48
805.389	98.13
805.568	87.89
805.748	106.32
805.928	81.75
806.107	137.04
806.287	149.33
806.466	55.12
806.646	104.28
806.825	61.27
807.004	85.84
807.184	126.8
807.363	122.71
807.543	79.7
807.722	89.94
807.901	34.64
808.081	87.89
808.26	122.71
808.439	114.52
808.619	75.6
808.798	114.52
808.977	108.37
809.156	130.9
809.336	114.52
809.515	36.69
809.694	126.8
809.873	100.18
810.052	132.95
810.231	89.94
810.411	118.61
810.59	-2.22
810.769	65.36
810.948	171.86
811.127	85.84
811.306	55.12
811.485	75.6
811.664	81.75
811.843	69.46
812.022	75.6
812.201	73.56
812.38	167.76
812.559	128.85
812.737	147.28
812.916	77.65
813.095	65.36
813.274	122.71
813.453	79.7
813.632	71.51
813.811	61.27
813.989	122.71
814.168	110.42
814.347	89.94
814.526	28.5
814.704	112.47
814.883	163.67
815.062	135
815.24	155.47
815.419	100.18
815.598	63.32
815.776	89.94
815.955	167.76
816.133	44.88
816.312	65.36
816.49	18.26
816.669	38.74
816.847	114.52
817.026	155.47
817.204	20.31
817.383	132.95
817.561	69.46
817.74	65.36
817.918	40.79
818.097	75.6
818.275	122.71
818.453	89.94
818.632	106.32
818.81	79.7
818.988	12.12
819.167	24.4
819.345	14.17
819.523	61.27
819.701	98.13
819.879	53.08
820.058	20.31
820.236	59.22
820.414	61.27
820.592	130.9
820.77	18.26
820.948	3.93
821.127	94.04
821.305	77.65
821.483	46.93
821.661	106.32
821.839	61.27
822.017	108.37
822.195	75.6
822.373	51.03
822.551	3.93
822.729	63.32
822.907	89.94
823.085	59.22
823.262	135
823.44	77.65
823.618	69.46
823.796	65.36
823.974	85.84
824.152	53.08
824.329	71.51
824.507	46.93
824.685	26.45
824.863	91.99
825.04	139.09
825.218	77.65
825.396	61.27
825.574	46.93
825.751	94.04
825.929	-24.75
826.107	32.6
826.284	-16.55
826.462	42.84
826.639	22.36
826.817	65.36
826.994	85.84
827.172	75.6
827.349	34.64
827.527	89.94
827.704	44.88
827.882	48.98
828.059	-12.46
828.237	24.4
828.414	77.65
828.591	-28.84
828.769	67.41
828.946	8.02
829.124	120.66
829.301	61.27
829.478	61.27
829.655	26.45
829.833	12.12
830.01	16.21
830.187	57.17
830.364	-2.22
830.542	63.32
830.719	5.97
830.896	44.88
831.073	16.21
831.25	-53.42
831.427	-67.75
831.604	100.18
831.782	30.55
831.959	89.94
832.136	8.02
832.313	-4.27
832.49	48.98
832.667	14.17
832.844	114.52
833.021	118.61
833.198	98.13
833.374	53.08
833.551	-2.22
833.728	42.84
833.905	51.03
834.082	24.4
834.259	8.02
834.436	16.21
834.612	-8.36
834.789	61.27
834.966	51.03
835.143	-32.94
835.319	-4.27
835.496	-4.27
835.673	24.4
835.85	65.36
836.026	71.51
836.203	57.17
836.38	51.03
836.556	16.21
836.733	-24.75
836.909	30.55
837.086	-2.22
837.262	40.79
837.439	57.17
837.616	40.79
837.792	53.08
837.968	48.98
838.145	-30.89
838.321	-6.31
838.498	20.31
838.674	71.51
838.851	-34.99
839.027	83.8
839.203	-6.31
839.38	24.4
839.556	-32.94
839.732	40.79
839.909	-8.36
840.085	42.84
840.261	16.21
840.437	69.46
840.614	-8.36
840.79	1.88
840.966	94.04
841.142	24.4
841.318	42.84
841.494	-6.31
841.671	3.93
841.847	3.93
842.023	16.21
842.199	-0.17
842.375	-37.03
842.551	30.55
842.727	36.69
842.903	-2.22
843.079	26.45
843.255	-6.31
843.431	34.64
843.607	1.88
843.783	3.93
843.959	24.4
844.134	-0.17
844.31	-37.03
844.486	10.07
844.662	-59.56
844.838	46.93
845.013	81.75
845.189	40.79
845.365	-14.51
845.541	-6.31
845.716	18.26
845.892	-34.99
846.068	-55.47
846.244	-2.22
846.419	24.4
846.595	1.88
846.77	-28.84
846.946	73.56
847.122	85.84
847.297	-41.13
847.473	81.75
847.648	-16.55
847.824	36.69
847.999	-22.7
848.175	77.65
848.35	10.07
848.526	22.36
848.701	-28.84
848.876	81.75
849.052	-30.89
849.227	8.02
849.403	26.45
849.578	-55.47
849.753	22.36
849.929	16.21
850.104	-39.08
850.279	28.5
850.454	46.93
850.63	28.5
850.805	-30.89
850.98	-14.51
851.155	-12.46
851.33	-16.55
851.505	-2.22
851.681	18.26
851.856	-16.55
852.031	-0.17
852.206	-4.27
852.381	18.26
852.556	-8.36
852.731	36.69
852.906	-26.79
853.081	44.88
853.256	24.4
853.431	16.21
853.606	22.36
853.781	1.88
853.956	75.6
854.131	-26.79
854.305	38.74
854.48	-4.27
854.655	-24.75
854.83	-49.32
855.005	69.46
855.18	20.31
855.354	-47.27
855.529	28.5
855.704	-41.13
855.879	34.64
856.053	-12.46
856.228	-67.75
856.403	-18.6
856.577	-4.27
856.752	-65.71
856.926	-12.46
857.101	34.64
857.276	-10.41
857.45	14.17
857.625	83.8
857.799	-2.22
857.974	48.98
858.148	-65.71
858.323	3.93
858.497	5.97
858.672	-45.23
858.846	28.5
859.02	48.98
859.195	-73.9
859.369	-28.84
859.543	-32.94
859.718	-2.22
859.892	28.5
860.066	32.6
860.241	-55.47
860.415	-0.17
860.589	-24.75
860.763	-41.13
860.938	-2.22
861.112	-8.36
861.286	73.56
861.46	-55.47
861.634	24.4
861.808	48.98
861.982	-45.23
862.157	-37.03
862.331	-14.51
862.505	65.36
862.679	-12.46
862.853	-16.55
863.027	-82.09
863.201	-0.17
863.375	20.31
863.549	-24.75
863.722	-0.17
863.896	71.51
864.07	-0.17
864.244	8.02
864.418	-47.27
864.592	-18.6
864.766	-41.13
864.939	30.55
865.113	-16.55
865.287	16.21
865.461	-34.99
865.634	8.02
865.808	12.12
865.982	-0.17
866.156	-63.66
866.329	-12.46
866.503	-22.7
866.676	36.69
866.85	-37.03
867.024	14.17
867.197	10.07
867.371	75.6
867.544	1.88
867.718	12.12
867.891	-14.51
868.065	-8.36
868.238	-47.27
868.412	40.79
868.585	-32.94
868.759	48.98
868.932	-65.71
869.105	34.64
869.279	-63.66
869.452	-32.94
869.625	36.69
869.799	57.17
869.972	8.02
870.145	59.22
870.319	22.36
870.492	-39.08
870.665	16.21
870.838	-2.22
871.011	-49.32
871.185	-45.23
871.358	-6.31
871.531	36.69
871.704	51.03
871.877	36.69
872.05	3.93
872.223	-30.89
872.396	-26.79
872.569	3.93
872.742	-22.7
872.915	26.45
873.088	-73.9
873.261	22.36
873.434	-0.17
873.607	10.07
873.78	-22.7
873.953	5.97
874.126	-71.85
874.299	-0.17
874.471	42.84
874.644	-20.65
874.817	26.45
874.99	-34.99
875.163	38.74
875.335	57.17
875.508	-4.27
875.681	-4.27
875.853	-22.7
876.026	16.21
876.199	14.17
876.371	59.22
876.544	-22.7
876.717	-61.61
876.889	-49.32
877.062	14.17
877.234	-30.89
877.407	-8.36
877.579	-12.46
877.752	-28.84
877.924	-55.47
878.097	3.93
878.269	-47.27
878.442	34.64
878.614	-51.37
878.786	-34.99
878.959	12.12
879.131	-12.46
879.303	32.6
879.476	-41.13
879.648	44.88
879.82	-10.41
879.993	-6.31
880.165	-24.75
880.337	-16.55
880.509	-24.75
880.681	-34.99
880.854	8.02
881.026	1.88
881.198	22.36
881.37	-12.46
881.542	-16.55
881.714	1.88
881.886	-94.38
882.058	-10.41
882.23	-14.51
882.402	-43.18
882.574	10.07
882.746	-67.75
882.918	-45.23
883.09	-16.55
883.262	3.93
883.434	-84.14
883.606	24.4
883.778	-2.22
883.95	40.79
884.122	-18.6
884.293	14.17
884.465	18.26
884.637	63.32
884.809	-28.84
884.98	-32.94
885.152	26.45
885.324	12.12
885.496	-55.47
885.667	-47.27
885.839	-10.41
886.011	22.36
886.182	-6.31
886.354	-24.75
886.525	-45.23
886.697	-28.84
886.869	1.88
887.04	-22.7
887.212	69.46
887.383	10.07
887.555	-53.42
887.726	-30.89
887.897	-39.08
888.069	53.08
888.24	-84.14
888.412	26.45
888.583	34.64
888.754	1.88
888.926	-73.9
889.097	-69.8
889.268	10.07
889.44	-43.18
889.611	-24.75
889.782	-6.31
889.953	-2.22
890.125	-47.27
890.296	-75.95
890.467	-16.55
890.638	3.93
890.809	-12.46
890.98	40.79
891.151	-34.99
891.323	69.46
891.494	32.6
891.665	-32.94
891.836	-30.89
892.007	65.36
892.178	57.17
892.349	-43.18
892.52	40.79
892.691	-16.55
892.862	-14.51
893.032	59.22
893.203	-30.89
893.374	-45.23
893.545	-71.85
893.716	-22.7
893.887	-0.17
894.057	16.21
894.228	55.12
894.399	-20.65
894.57	-16.55
894.74	16.21
894.911	-26.79
895.082	-41.13
895.253	63.32
895.423	28.5
895.594	-57.51
895.764	-75.95
895.935	75.6
896.106	-100.52
896.276	-0.17
896.447	-104.62
896.617	-61.61
896.788	-6.31
896.958	-34.99
897.129	-43.18
897.299	-73.9
897.47	10.07
897.64	-39.08
897.81	-43.18
897.981	-16.55
898.151	-77.99
898.322	-39.08
898.492	-8.36
898.662	32.6
898.832	1.88
899.003	24.4
899.173	10.07
899.343	-22.7
899.513	16.21
