Data from USB4F104151__20__12-58-34-719.txt Node

Date: Fri Mar 14 12:58:34 EDT 2025
User: louis
Spectrometer: USB4F10415
Trigger mode: 4
Integration Time (sec): 1.000000E-2
Scans to average: 1
Electric dark correction enabled: true
Nonlinearity correction enabled: false
Boxcar width: 0
XAxis mode: Wavelengths
Number of Pixels in Spectrum: 3648
>>>>>Begin Spectral Data<<<<<
178.204	-74.92
178.424	-74.92
178.644	-74.92
178.864	4.95
179.084	-58.54
179.304	-29.87
179.524	7
179.744	-7.34
179.964	33.62
180.184	-23.72
180.404	17.24
180.624	35.67
180.844	23.38
181.064	-74.92
181.283	-1.19
181.503	19.29
181.723	0.85
181.943	-40.11
182.163	66.39
182.383	-19.63
182.602	56.15
182.822	19.29
183.042	4.95
183.262	68.44
183.482	68.44
183.701	-36.01
183.921	41.81
184.141	41.81
184.361	72.53
184.58	95.06
184.8	37.72
185.02	70.48
185.239	21.33
185.459	39.76
185.679	62.29
185.898	-5.29
186.118	54.1
186.338	41.81
186.557	7
186.777	68.44
186.997	70.48
187.216	43.86
187.436	86.87
187.655	25.43
187.875	-17.58
188.095	-1.19
188.314	29.52
188.534	80.72
188.753	4.95
188.973	115.54
189.192	97.11
189.412	-1.19
189.631	-11.43
189.851	84.82
190.07	50
190.29	33.62
190.509	25.43
190.729	31.57
190.948	37.72
191.168	74.58
191.387	80.72
191.607	15.19
191.826	54.1
192.045	86.87
192.265	52.05
192.484	-7.34
192.704	25.43
192.923	115.54
193.142	68.44
193.362	15.19
193.581	76.63
193.8	39.76
194.02	25.43
194.239	19.29
194.458	117.59
194.678	50
194.897	84.82
195.116	7
195.335	50
195.555	88.92
195.774	66.39
195.993	-7.34
196.212	21.33
196.432	35.67
196.651	66.39
196.87	52.05
197.089	56.15
197.308	15.19
197.528	25.43
197.747	27.48
197.966	62.29
198.185	86.87
198.404	54.1
198.623	88.92
198.842	64.34
199.062	-44.2
199.281	76.63
199.5	33.62
199.719	4.95
199.938	-9.39
200.157	54.1
200.376	-7.34
200.595	64.34
200.814	47.96
201.033	78.68
201.252	-7.34
201.471	15.19
201.69	19.29
201.909	29.52
202.128	-3.24
202.347	43.86
202.566	29.52
202.785	-11.43
203.004	52.05
203.223	23.38
203.442	35.67
203.661	78.68
203.879	25.43
204.098	60.24
204.317	37.72
204.536	86.87
204.755	60.24
204.974	62.29
205.193	37.72
205.411	23.38
205.63	-36.01
205.849	47.96
206.068	-1.19
206.287	33.62
206.505	13.14
206.724	-5.29
206.943	66.39
207.162	-3.24
207.381	29.52
207.599	37.72
207.818	50
208.037	52.05
208.255	33.62
208.474	-40.11
208.693	58.2
208.911	70.48
209.13	66.39
209.349	68.44
209.567	-36.01
209.786	17.24
210.005	50
210.223	43.86
210.442	-87.21
210.661	-5.29
210.879	23.38
211.098	23.38
211.316	27.48
211.535	74.58
211.753	47.96
211.972	107.35
212.191	-9.39
212.409	-11.43
212.628	74.58
212.846	76.63
213.065	35.67
213.283	7
213.502	56.15
213.72	23.38
213.938	-7.34
214.157	-19.63
214.375	72.53
214.594	35.67
214.812	82.77
215.031	33.62
215.249	23.38
215.467	68.44
215.686	11.09
215.904	103.25
216.122	72.53
216.341	4.95
216.559	-27.82
216.778	95.06
216.996	43.86
217.214	68.44
217.432	-15.53
217.651	47.96
217.869	-13.48
218.087	25.43
218.306	62.29
218.524	23.38
218.742	-21.67
218.96	52.05
219.179	7
219.397	13.14
219.615	17.24
219.833	33.62
220.051	45.91
220.27	13.14
220.488	15.19
220.706	13.14
220.924	129.88
221.142	29.52
221.36	-21.67
221.578	17.24
221.796	23.38
222.015	66.39
222.233	39.76
222.451	31.57
222.669	72.53
222.887	80.72
223.105	-9.39
223.323	-1.19
223.541	-29.87
223.759	54.1
223.977	62.29
224.195	66.39
224.413	93.01
224.631	-5.29
224.849	-13.48
225.067	37.72
225.285	45.91
225.503	17.24
225.721	31.57
225.939	33.62
226.157	52.05
226.375	88.92
226.592	-44.2
226.81	31.57
227.028	37.72
227.246	76.63
227.464	23.38
227.682	62.29
227.9	52.05
228.117	54.1
228.335	97.11
228.553	99.16
228.771	21.33
228.989	97.11
229.206	74.58
229.424	-21.67
229.642	-48.3
229.86	58.2
230.077	-5.29
230.295	58.2
230.513	50
230.731	15.19
230.948	119.64
231.166	43.86
231.384	72.53
231.601	19.29
231.819	7
232.037	133.97
232.254	-19.63
232.472	133.97
232.689	7
232.907	2.9
233.125	-21.67
233.342	0.85
233.56	56.15
233.777	15.19
233.995	-5.29
234.213	-89.26
234.43	2.9
234.648	72.53
234.865	101.2
235.083	64.34
235.3	74.58
235.518	21.33
235.735	-23.72
235.953	109.4
236.17	13.14
236.388	4.95
236.605	33.62
236.822	9.05
237.04	70.48
237.257	13.14
237.475	-11.43
237.692	-17.58
237.909	56.15
238.127	72.53
238.344	13.14
238.562	105.3
238.779	-11.43
238.996	76.63
239.214	39.76
239.431	37.72
239.648	56.15
239.865	97.11
240.083	33.62
240.3	33.62
240.517	56.15
240.735	4.95
240.952	74.58
241.169	47.96
241.386	31.57
241.603	-3.24
241.821	19.29
242.038	103.25
242.255	-7.34
242.472	41.81
242.689	43.86
242.907	84.82
243.124	29.52
243.341	19.29
243.558	95.06
243.775	52.05
243.992	33.62
244.209	82.77
244.426	23.38
244.643	4.95
244.86	56.15
245.078	62.29
245.295	2.9
245.512	43.86
245.729	-23.72
245.946	72.53
246.163	21.33
246.38	15.19
246.597	76.63
246.814	95.06
247.031	23.38
247.248	111.44
247.464	7
247.681	86.87
247.898	-5.29
248.115	13.14
248.332	39.76
248.549	74.58
248.766	60.24
248.983	117.59
249.2	43.86
249.417	47.96
249.633	58.2
249.85	29.52
250.067	45.91
250.284	13.14
250.501	29.52
250.717	64.34
250.934	56.15
251.151	88.92
251.368	68.44
251.585	97.11
251.801	97.11
252.018	66.39
252.235	13.14
252.451	88.92
252.668	-17.58
252.885	56.15
253.102	-23.72
253.318	0.85
253.535	54.1
253.752	13.14
253.968	21.33
254.185	39.76
254.401	39.76
254.618	-9.39
254.835	37.72
255.051	86.87
255.268	19.29
255.484	64.34
255.701	95.06
255.917	58.2
256.134	-56.49
256.351	29.52
256.567	74.58
256.784	84.82
257	41.81
257.217	23.38
257.433	70.48
257.65	76.63
257.866	-1.19
258.082	-11.43
258.299	33.62
258.515	-29.87
258.732	7
258.948	-19.63
259.165	-25.77
259.381	93.01
259.597	-3.24
259.814	17.24
260.03	111.44
260.246	47.96
260.463	47.96
260.679	27.48
260.895	31.57
261.112	105.3
261.328	58.2
261.544	4.95
261.761	82.77
261.977	29.52
262.193	27.48
262.409	13.14
262.626	27.48
262.842	37.72
263.058	19.29
263.274	62.29
263.49	113.49
263.707	15.19
263.923	29.52
264.139	50
264.355	31.57
264.571	-9.39
264.787	-17.58
265.004	88.92
265.22	117.59
265.436	54.1
265.652	19.29
265.868	9.05
266.084	82.77
266.3	23.38
266.516	-17.58
266.732	21.33
266.948	62.29
267.164	4.95
267.38	33.62
267.596	41.81
267.812	-3.24
268.028	74.58
268.244	7
268.46	54.1
268.676	33.62
268.892	29.52
269.108	11.09
269.324	-7.34
269.54	-25.77
269.756	62.29
269.972	45.91
270.188	31.57
270.403	62.29
270.619	58.2
270.835	39.76
271.051	70.48
271.267	19.29
271.483	43.86
271.698	35.67
271.914	52.05
272.13	45.91
272.346	47.96
272.562	2.9
272.777	29.52
272.993	-83.11
273.209	86.87
273.425	39.76
273.64	86.87
273.856	80.72
274.072	29.52
274.287	25.43
274.503	97.11
274.719	162.64
274.934	-13.48
275.15	11.09
275.366	-13.48
275.581	7
275.797	74.58
276.012	45.91
276.228	13.14
276.444	9.05
276.659	-31.91
276.875	29.52
277.09	66.39
277.306	78.68
277.521	60.24
277.737	-46.25
277.952	45.91
278.168	72.53
278.383	82.77
278.599	76.63
278.814	35.67
279.03	13.14
279.245	78.68
279.461	62.29
279.676	37.72
279.892	11.09
280.107	52.05
280.322	66.39
280.538	41.81
280.753	90.96
280.969	37.72
281.184	-9.39
281.399	45.91
281.615	25.43
281.83	56.15
282.045	-29.87
282.26	-44.2
282.476	13.14
282.691	62.29
282.906	47.96
283.122	27.48
283.337	9.05
283.552	70.48
283.767	-25.77
283.983	31.57
284.198	50
284.413	-17.58
284.628	19.29
284.843	95.06
285.058	23.38
285.274	17.24
285.489	-17.58
285.704	-9.39
285.919	56.15
286.134	119.64
286.349	31.57
286.564	90.96
286.779	4.95
286.995	56.15
287.21	56.15
287.425	33.62
287.64	9.05
287.855	54.1
288.07	-17.58
288.285	62.29
288.5	15.19
288.715	117.59
288.93	29.52
289.145	7
289.36	90.96
289.575	88.92
289.79	78.68
290.004	33.62
290.219	-31.91
290.434	-17.58
290.649	11.09
290.864	99.16
291.079	31.57
291.294	-29.87
291.509	15.19
291.724	13.14
291.938	88.92
292.153	-17.58
292.368	56.15
292.583	84.82
292.798	52.05
293.012	68.44
293.227	15.19
293.442	11.09
293.657	70.48
293.871	0.85
294.086	80.72
294.301	56.15
294.516	41.81
294.73	50
294.945	9.05
295.16	19.29
295.374	99.16
295.589	78.68
295.804	99.16
296.018	2.9
296.233	99.16
296.447	80.72
296.662	47.96
296.877	78.68
297.091	35.67
297.306	-33.96
297.52	-3.24
297.735	107.35
297.949	72.53
298.164	-1.19
298.378	9.05
298.593	23.38
298.807	68.44
299.022	37.72
299.236	-3.24
299.451	58.2
299.665	-7.34
299.88	80.72
300.094	35.67
300.309	39.76
300.523	37.72
300.737	93.01
300.952	-56.49
301.166	33.62
301.381	58.2
301.595	-50.35
301.809	35.67
302.024	29.52
302.238	47.96
302.452	109.4
302.667	33.62
302.881	115.54
303.095	25.43
303.309	19.29
303.524	101.2
303.738	7
303.952	66.39
304.166	-1.19
304.381	13.14
304.595	23.38
304.809	25.43
305.023	54.1
305.237	4.95
305.452	41.81
305.666	78.68
305.88	54.1
306.094	-15.53
306.308	47.96
306.522	133.97
306.736	97.11
306.95	93.01
307.164	88.92
307.379	31.57
307.593	23.38
307.807	21.33
308.021	88.92
308.235	-5.29
308.449	-19.63
308.663	129.88
308.877	97.11
309.091	76.63
309.305	-1.19
309.519	60.24
309.733	58.2
309.947	7
310.161	-3.24
310.374	66.39
310.588	80.72
310.802	-13.48
311.016	41.81
311.23	31.57
311.444	33.62
311.658	35.67
311.872	78.68
312.085	-9.39
312.299	37.72
312.513	47.96
312.727	29.52
312.941	23.38
313.154	82.77
313.368	107.35
313.582	31.57
313.796	17.24
314.009	-1.19
314.223	50
314.437	4.95
314.651	4.95
314.864	127.83
315.078	9.05
315.292	-36.01
315.505	62.29
315.719	86.87
315.933	33.62
316.146	-31.91
316.36	41.81
316.573	-17.58
316.787	97.11
317.001	29.52
317.214	97.11
317.428	105.3
317.641	13.14
317.855	37.72
318.068	76.63
318.282	19.29
318.495	70.48
318.709	56.15
318.922	45.91
319.136	-3.24
319.349	37.72
319.563	47.96
319.776	-44.2
319.99	-11.43
320.203	82.77
320.417	64.34
320.63	90.96
320.843	-11.43
321.057	-3.24
321.27	23.38
321.483	72.53
321.697	95.06
321.91	15.19
322.124	-7.34
322.337	-25.77
322.55	119.64
322.763	52.05
322.977	43.86
323.19	11.09
323.403	76.63
323.617	45.91
323.83	90.96
324.043	47.96
324.256	31.57
324.469	47.96
324.683	17.24
324.896	-27.82
325.109	39.76
325.322	17.24
325.535	113.49
325.748	9.05
325.962	80.72
326.175	13.14
326.388	41.81
326.601	111.44
326.814	23.38
327.027	84.82
327.24	72.53
327.453	27.48
327.666	74.58
327.879	15.19
328.092	66.39
328.305	64.34
328.518	-9.39
328.731	37.72
328.944	21.33
329.157	47.96
329.37	41.81
329.583	45.91
329.796	70.48
330.009	29.52
330.222	35.67
330.435	15.19
330.648	31.57
330.861	113.49
331.073	33.62
331.286	21.33
331.499	76.63
331.712	9.05
331.925	35.67
332.138	64.34
332.35	131.92
332.563	66.39
332.776	31.57
332.989	-17.58
333.202	11.09
333.414	-9.39
333.627	76.63
333.84	58.2
334.053	37.72
334.265	-5.29
334.478	111.44
334.691	54.1
334.903	80.72
335.116	37.72
335.329	2.9
335.541	66.39
335.754	29.52
335.966	47.96
336.179	66.39
336.392	21.33
336.604	125.78
336.817	82.77
337.029	25.43
337.242	25.43
337.454	103.25
337.667	68.44
337.88	21.33
338.092	56.15
338.305	99.16
338.517	50
338.729	88.92
338.942	62.29
339.154	29.52
339.367	72.53
339.579	66.39
339.792	45.91
340.004	31.57
340.217	62.29
340.429	33.62
340.641	27.48
340.854	37.72
341.066	37.72
341.278	103.25
341.491	119.64
341.703	27.48
341.915	17.24
342.128	39.76
342.34	11.09
342.552	-5.29
342.764	41.81
342.977	0.85
343.189	52.05
343.401	37.72
343.613	88.92
343.826	86.87
344.038	50
344.25	60.24
344.462	29.52
344.674	29.52
344.886	29.52
345.099	158.55
345.311	37.72
345.523	76.63
345.735	35.67
345.947	-9.39
346.159	7
346.371	-7.34
346.583	23.38
346.795	131.92
347.007	33.62
347.219	56.15
347.431	-23.72
347.643	45.91
347.855	82.77
348.067	37.72
348.279	90.96
348.491	39.76
348.703	-23.72
348.915	29.52
349.127	27.48
349.339	54.1
349.551	-3.24
349.763	66.39
349.975	78.68
350.187	78.68
350.399	2.9
350.61	54.1
350.822	35.67
351.034	88.92
351.246	62.29
351.458	99.16
351.669	43.86
351.881	111.44
352.093	138.07
352.305	84.82
352.517	31.57
352.728	90.96
352.94	58.2
353.152	80.72
353.363	39.76
353.575	93.01
353.787	25.43
353.999	39.76
354.21	113.49
354.422	80.72
354.633	58.2
354.845	103.25
355.057	17.24
355.268	29.52
355.48	39.76
355.692	13.14
355.903	29.52
356.115	84.82
356.326	35.67
356.538	47.96
356.749	-15.53
356.961	95.06
357.172	11.09
357.384	-1.19
357.595	95.06
357.807	23.38
358.018	37.72
358.23	72.53
358.441	78.68
358.653	39.76
358.864	39.76
359.075	-11.43
359.287	58.2
359.498	95.06
359.709	13.14
359.921	54.1
360.132	35.67
360.344	-23.72
360.555	-3.24
360.766	58.2
360.977	60.24
361.189	-36.01
361.4	21.33
361.611	76.63
361.823	54.1
362.034	62.29
362.245	-9.39
362.456	37.72
362.667	50
362.879	88.92
363.09	64.34
363.301	-9.39
363.512	52.05
363.723	-3.24
363.935	58.2
364.146	66.39
364.357	-62.63
364.568	2.9
364.779	37.72
364.99	23.38
365.201	88.92
365.412	127.83
365.623	7
365.834	15.19
366.045	15.19
366.256	103.25
366.467	68.44
366.678	17.24
366.889	54.1
367.1	35.67
367.311	47.96
367.522	70.48
367.733	119.64
367.944	148.31
368.155	43.86
368.366	35.67
368.577	68.44
368.788	9.05
368.999	64.34
369.209	117.59
369.42	2.9
369.631	86.87
369.842	54.1
370.053	111.44
370.264	25.43
370.474	84.82
370.685	21.33
370.896	17.24
371.107	31.57
371.317	86.87
371.528	62.29
371.739	78.68
371.95	17.24
372.16	21.33
372.371	-1.19
372.582	-11.43
372.792	97.11
373.003	29.52
373.214	47.96
373.424	39.76
373.635	35.67
373.846	19.29
374.056	33.62
374.267	80.72
374.477	117.59
374.688	37.72
374.898	33.62
375.109	43.86
375.319	101.2
375.53	144.21
375.74	95.06
375.951	64.34
376.161	95.06
376.372	88.92
376.582	54.1
376.793	70.48
377.003	50
377.214	-27.82
377.424	64.34
377.635	62.29
377.845	21.33
378.055	45.91
378.266	0.85
378.476	115.54
378.686	70.48
378.897	62.29
379.107	15.19
379.317	136.02
379.528	84.82
379.738	68.44
379.948	84.82
380.158	47.96
380.369	56.15
380.579	45.91
380.789	80.72
380.999	0.85
381.21	56.15
381.42	95.06
381.63	111.44
381.84	82.77
382.05	93.01
382.261	41.81
382.471	50
382.681	86.87
382.891	86.87
383.101	43.86
383.311	76.63
383.521	50
383.731	54.1
383.941	86.87
384.151	33.62
384.361	29.52
384.571	25.43
384.781	93.01
384.991	72.53
385.201	103.25
385.411	131.92
385.621	54.1
385.831	58.2
386.041	64.34
386.251	4.95
386.461	95.06
386.671	45.91
386.881	115.54
387.091	52.05
387.301	125.78
387.511	121.68
387.72	56.15
387.93	101.2
388.14	13.14
388.35	39.76
388.56	88.92
388.769	119.64
388.979	86.87
389.189	86.87
389.399	86.87
389.609	195.41
389.818	74.58
390.028	9.05
390.238	41.81
390.447	47.96
390.657	146.26
390.867	99.16
391.076	52.05
391.286	76.63
391.496	86.87
391.705	19.29
391.915	74.58
392.125	82.77
392.334	99.16
392.544	72.53
392.753	95.06
392.963	74.58
393.172	111.44
393.382	64.34
393.591	60.24
393.801	82.77
394.01	80.72
394.22	58.2
394.429	103.25
394.639	17.24
394.848	115.54
395.058	121.68
395.267	119.64
395.477	68.44
395.686	97.11
395.895	111.44
396.105	-17.58
396.314	74.58
396.524	127.83
396.733	19.29
396.942	109.4
397.152	136.02
397.361	111.44
397.57	2.9
397.78	144.21
397.989	115.54
398.198	113.49
398.407	21.33
398.617	78.68
398.826	62.29
399.035	109.4
399.244	103.25
399.453	95.06
399.663	97.11
399.872	70.48
400.081	107.35
400.29	58.2
400.499	109.4
400.708	99.16
400.917	93.01
401.127	90.96
401.336	74.58
401.545	152.4
401.754	113.49
401.963	201.55
402.172	181.07
402.381	62.29
402.59	21.33
402.799	160.59
403.008	62.29
403.217	160.59
403.426	125.78
403.635	95.06
403.844	125.78
404.053	52.05
404.262	168.79
404.471	138.07
404.68	82.77
404.888	146.26
405.097	45.91
405.306	119.64
405.515	86.87
405.724	109.4
405.933	150.36
406.142	131.92
406.35	97.11
406.559	142.16
406.768	117.59
406.977	156.5
407.185	97.11
407.394	127.83
407.603	138.07
407.812	119.64
408.02	127.83
408.229	152.4
408.438	152.4
408.646	119.64
408.855	150.36
409.064	234.32
409.272	197.46
409.481	228.18
409.69	238.42
409.898	197.46
410.107	299.86
410.315	209.75
410.524	258.9
410.733	234.32
410.941	226.13
411.15	260.95
411.358	271.19
411.567	301.9
411.775	295.76
411.984	289.62
412.192	244.56
412.401	369.49
412.609	299.86
412.818	381.78
413.026	334.67
413.234	365.39
413.443	375.63
413.651	328.53
413.86	273.23
414.068	318.29
414.276	400.21
414.485	465.74
414.693	443.21
414.901	529.23
415.11	465.74
415.318	432.97
415.526	500.56
415.734	467.79
415.943	545.61
416.151	574.28
416.359	553.8
416.567	486.22
416.776	656.2
416.984	635.72
417.192	686.92
417.4	594.76
417.608	619.34
417.817	701.26
418.025	668.49
418.233	664.4
418.441	774.99
418.649	791.37
418.857	758.6
419.065	779.08
419.273	807.75
419.481	889.67
419.689	908.1
419.897	951.11
420.105	908.1
420.313	1028.93
420.521	1069.89
420.729	1051.46
420.937	1057.61
421.145	1121.09
421.353	1151.81
421.561	1233.73
421.769	1327.94
421.977	1434.43
422.185	1276.74
422.393	1411.9
422.601	1450.82
422.809	1407.81
423.017	1512.25
423.224	1538.88
423.432	1592.13
423.64	1596.22
423.848	1715
424.056	1702.72
424.263	1852.22
424.471	1760.06
424.679	1903.42
424.887	2044.73
425.094	1971
425.302	1993.53
425.51	2095.93
425.718	2159.41
425.925	2247.48
426.133	2341.68
426.341	2421.55
426.548	2513.71
426.756	2556.72
426.964	2452.27
427.171	2624.3
427.379	2859.82
427.586	2816.81
427.794	2771.76
428.001	2990.89
428.209	3048.23
428.417	3048.23
428.624	3302.18
428.832	3314.47
429.039	3316.51
429.247	3402.53
429.454	3545.89
429.662	3887.9
429.869	3691.29
430.076	3779.36
430.284	3722.01
430.491	4008.73
430.699	4244.24
430.906	4174.61
431.114	4174.61
431.321	4340.5
431.528	4528.91
431.736	4672.27
431.943	5047.05
432.15	4774.67
432.358	4829.96
432.565	4981.51
432.772	4920.07
432.979	5505.79
433.187	5346.05
433.394	5384.96
433.601	5853.95
433.808	5643.01
434.016	5825.28
434.223	6079.22
434.43	6224.63
434.637	6277.88
434.844	6679.28
435.052	6935.28
435.259	6789.87
435.466	6869.74
435.673	6705.9
435.88	7250.66
436.087	7586.53
436.294	7527.14
436.501	7254.76
436.708	7529.19
436.915	7709.41
437.122	8092.38
437.329	7946.97
437.537	8510.16
437.743	8477.4
437.95	8354.52
438.157	8975.05
438.364	9155.27
438.571	9210.57
438.778	9188.04
438.985	10201.79
439.192	9618.11
439.399	9878.21
439.606	9720.51
439.813	10232.51
440.02	10873.52
440.227	10754.74
440.433	10638
440.64	11047.6
440.847	10941.1
441.054	11385.51
441.261	11981.47
441.467	11817.63
441.674	12030.62
441.881	12681.88
442.088	12624.53
442.294	12346.01
442.501	12622.48
442.708	12978.83
442.914	13562.5
443.121	14066.3
443.328	13779.59
443.534	14692.98
443.741	14238.33
443.948	13908.61
444.154	15256.17
444.361	14967.41
444.568	14971.5
444.774	15264.36
444.981	15196.78
445.187	15749.73
445.394	16390.75
445.6	16261.73
445.807	17855.04
446.013	16988.75
446.22	17508.94
446.426	17807.94
446.633	18301.5
446.839	18825.78
447.046	18362.94
447.252	19067.44
447.459	19216.94
447.665	19065.39
447.871	19970.6
448.078	20759.06
448.284	19618.35
448.491	20396.57
448.697	21168.66
448.903	21389.84
449.11	21527.05
449.316	21189.14
449.522	21522.96
449.728	22254.08
449.935	22790.65
450.141	22733.31
450.347	22784.51
450.553	22245.89
450.76	22534.65
450.966	23181.81
451.172	22850.04
451.378	23708.14
451.584	23161.33
451.791	23951.85
451.997	23396.85
452.203	23962.09
452.409	23966.18
452.615	24244.71
452.821	23190
453.027	23085.56
453.233	24058.34
453.44	23103.99
453.646	23515.63
453.852	23597.55
454.058	23818.73
454.264	23026.17
454.47	23716.33
454.676	22972.92
454.882	23892.46
455.088	21701.13
455.294	22254.08
455.5	22667.77
455.705	22766.07
455.911	22114.82
456.117	21445.13
456.323	20779.54
456.529	19954.21
456.735	20961.81
456.941	20570.65
457.147	20124.19
457.352	19331.63
457.558	19284.53
457.764	19388.97
457.97	18985.52
458.176	18502.2
458.381	18403.9
458.587	17621.58
458.793	17721.93
458.999	16644.7
459.204	17863.24
459.41	17250.89
459.616	16357.98
459.821	16214.62
460.027	15989.35
460.233	15784.55
460.438	15188.59
460.644	15528.55
460.85	14600.82
461.055	14367.35
461.261	14281.34
461.466	13177.48
461.672	12907.15
461.878	13740.68
462.083	12792.47
462.289	12368.54
462.494	12651.16
462.7	12006.05
462.905	11680.42
463.111	12077.73
463.316	11874.98
463.522	11645.6
463.727	11666.08
463.932	11709.09
464.138	11696.8
464.343	11586.21
464.549	11319.98
464.754	11897.5
464.959	11586.21
465.165	11569.83
465.37	11143.85
465.575	10785.46
465.781	11096.75
465.986	11229.87
466.191	10922.67
466.397	10681.01
466.602	10105.53
466.807	10580.66
467.012	10531.51
467.218	10359.48
467.423	10406.58
467.628	10412.73
467.833	10816.18
468.038	10326.71
468.244	10169.02
468.449	10394.29
468.654	10040
468.859	10115.77
469.064	10220.22
469.269	9501.38
469.474	9812.67
469.679	10064.57
469.885	9585.35
470.09	9835.2
470.295	9765.57
470.5	9523.91
470.705	9507.52
470.91	9321.16
471.115	9245.38
471.32	9482.95
471.525	9274.06
471.73	9339.59
471.935	9280.2
472.139	8858.32
472.344	8741.58
472.549	8807.12
472.754	8698.58
472.959	8497.88
473.164	8315.61
473.369	8360.66
473.574	8712.91
473.778	8440.53
473.983	8301.27
474.188	8229.59
474.393	8145.63
474.598	7938.78
474.802	7881.44
475.007	7867.1
475.212	7959.26
475.417	7516.9
475.621	7594.72
475.826	7535.33
476.031	7555.81
476.235	7330.53
476.44	7459.56
476.645	7221.99
476.849	7316.2
477.054	7178.98
477.259	7213.8
477.463	7047.91
477.668	7021.29
477.872	7074.54
478.077	6959.85
478.282	6734.57
478.486	6710
478.691	6658.8
478.895	6580.98
479.1	6605.55
479.304	6490.87
479.509	6411
479.713	6654.7
479.918	6466.29
480.122	6269.69
480.326	6429.43
480.531	6423.28
480.735	6204.15
480.94	6306.55
481.144	6615.79
481.348	6238.97
481.553	6284.02
481.757	6187.77
481.961	6191.86
482.166	6177.53
482.37	6187.77
482.574	5921.53
482.778	6138.62
482.983	6122.23
483.187	6146.81
483.391	6009.59
483.595	6048.51
483.8	6091.51
484.004	5966.59
484.208	6161.14
484.412	6011.64
484.616	6085.37
484.821	6173.43
485.025	5946.11
485.229	6114.04
485.433	5960.44
485.637	6126.33
485.841	6013.69
486.045	5933.82
486.249	6025.98
486.453	6034.17
486.657	6126.33
486.861	6253.3
487.065	5968.63
487.269	6175.48
487.473	5921.53
487.677	6083.32
487.881	6261.49
488.085	6081.27
488.289	6081.27
488.493	5978.87
488.697	6136.57
488.901	6281.97
489.105	6220.53
489.309	5989.11
489.512	6255.35
489.716	6132.47
489.92	6189.81
490.124	6230.77
490.328	6367.99
490.531	5974.78
490.735	6327.03
490.939	6337.27
491.143	6329.08
491.346	6159.1
491.55	6480.63
491.754	6372.08
491.958	6386.42
492.161	6265.59
492.365	6507.25
492.569	6464.24
492.772	6130.42
492.976	6705.9
493.18	6699.76
493.383	6707.95
493.587	6716.14
493.79	6714.09
493.994	6677.23
494.197	6728.43
494.401	6894.32
494.605	6734.57
494.808	6910.7
495.012	6851.31
495.215	7019.24
495.419	6900.46
495.622	7058.15
495.825	7248.61
496.029	7154.41
496.232	7146.22
496.436	7305.96
496.639	7424.74
496.843	7477.99
497.046	7592.67
497.249	7701.22
497.453	7523.04
497.656	7772.89
497.859	7717.6
498.063	7754.46
498.266	8155.86
498.469	8014.56
498.673	8030.94
498.876	8217.3
499.079	8196.82
499.282	8067.8
499.485	8579.79
499.689	8573.65
499.892	8667.86
500.095	8768.21
500.298	8866.51
500.501	8651.47
500.705	8995.53
500.908	8966.86
501.111	9456.33
501.314	9435.85
501.517	9380.55
501.72	9691.84
501.923	9431.75
502.126	9790.14
502.329	10027.71
502.532	9800.38
502.735	10183.35
502.938	10019.52
503.141	10087.1
503.344	10449.59
503.547	10576.56
503.75	10785.46
503.953	10832.56
504.156	10820.27
504.359	10932.91
504.562	10951.34
504.765	11219.63
504.968	11508.39
505.17	11520.68
505.373	11745.95
505.576	11825.82
505.779	11858.59
505.982	11965.09
506.185	12305.05
506.387	12219.03
506.59	12415.64
506.793	12579.48
506.996	12567.19
507.198	12976.78
507.401	12898.96
507.604	13075.09
507.807	13230.73
508.009	13441.67
508.212	13472.39
508.415	13728.39
508.617	13906.56
508.82	13877.89
509.022	13931.14
509.225	14191.23
509.428	14381.69
509.63	14490.23
509.833	14457.46
510.035	14981.74
510.238	14938.74
510.44	15303.28
510.643	15338.09
510.845	15729.25
511.048	15356.52
511.25	15643.24
511.453	15932
511.655	16341.6
511.858	16093.79
512.06	16480.86
512.262	16552.54
512.465	16448.09
512.667	16939.6
512.87	17076.82
513.072	17035.86
513.274	17187.41
513.477	17551.95
513.679	17762.89
513.881	18006.59
514.084	18233.92
514.286	18180.67
514.488	18207.3
514.69	18801.21
514.893	19139.12
515.095	18836.02
515.297	19235.38
515.499	19280.43
515.701	19595.82
515.904	19579.43
516.106	19794.47
516.308	20167.2
516.51	20365.85
516.712	20251.17
516.914	20531.74
517.116	21039.64
517.318	20757.02
517.52	21133.84
517.722	21332.5
517.925	21385.74
518.127	21764.62
518.329	21711.37
518.531	21856.78
518.733	22419.97
518.935	22688.25
519.136	22317.57
519.338	22696.44
519.54	22991.35
519.742	23650.8
519.944	23046.65
520.146	23548.4
520.348	23677.42
520.55	23779.82
520.752	24025.57
520.954	24275.43
521.155	24242.66
521.357	24629.73
521.559	24742.36
521.761	25246.16
521.963	25229.78
522.164	25182.68
522.366	25262.55
522.568	25393.62
522.77	25622.99
522.971	26165.7
523.173	25850.31
523.375	26429.89
523.576	26147.27
523.778	26286.53
523.98	26767.8
524.181	26732.99
524.383	26724.8
524.584	27191.73
524.786	27259.32
524.988	27132.34
525.189	27732.4
525.391	27457.97
525.592	28062.12
525.794	27863.47
525.995	27959.72
526.197	27842.99
526.398	27959.72
526.6	28375.46
526.801	28172.71
527.003	28717.47
527.204	28598.69
527.406	28637.6
527.607	28809.63
527.808	29100.44
528.01	28617.12
528.211	28891.55
528.412	29481.36
528.614	29319.57
528.815	29399.44
529.016	29632.91
529.218	29159.83
529.419	29288.85
529.62	29755.79
529.822	29430.16
530.023	29729.17
530.224	29700.5
530.425	29649.3
530.626	29507.99
530.828	29307.29
531.029	29958.54
531.23	29544.85
531.431	29966.73
531.632	29710.74
531.833	29890.96
532.035	30026.12
532.236	30181.77
532.437	30065.03
532.638	30118.28
532.839	30466.44
533.04	30380.42
533.241	29997.45
533.442	30673.28
533.643	30507.4
533.844	30165.39
534.045	30308.74
534.246	29979.02
534.447	30622.08
534.648	30177.67
534.849	30560.64
535.05	30419.33
535.251	30482.82
535.451	30294.41
535.652	30732.67
535.853	30529.92
536.054	30452.1
536.255	30437.76
536.456	30081.42
536.657	30867.84
536.857	30237.06
537.058	30089.61
537.259	30527.88
537.46	30534.02
537.66	30302.6
537.861	30538.12
538.062	30683.52
538.263	30654.85
538.463	30263.69
538.664	30347.65
538.865	30405
539.065	30534.02
539.266	30075.27
539.466	30835.07
539.667	30310.79
539.868	30488.96
540.068	30298.5
540.269	30339.46
540.469	30251.4
540.67	30329.22
540.87	30357.89
541.071	30611.84
541.271	30665.09
541.472	30374.28
541.672	30249.35
541.873	30194.06
542.073	29960.59
542.274	30747.01
542.474	29974.92
542.675	29868.43
542.875	30642.56
543.075	29929.87
543.276	29981.07
543.476	30364.04
543.676	29999.5
543.877	30157.19
544.077	30136.71
544.277	30120.33
544.478	30114.19
544.678	30222.73
544.878	29837.71
545.078	30093.71
545.279	29739.41
545.479	29991.31
545.679	30116.23
545.879	30302.6
546.079	29976.97
546.28	30009.74
546.48	30087.56
546.68	30017.93
546.88	30235.02
547.08	30007.69
547.28	30003.6
547.48	29938.06
547.68	29821.33
547.88	29854.09
548.081	29954.44
548.281	29817.23
548.481	29763.98
548.681	30054.79
548.881	29940.11
549.081	29788.56
549.28	29829.52
549.48	30108.04
549.68	29778.32
549.88	30349.7
550.08	29694.35
550.28	29800.85
550.48	30091.66
550.68	30194.06
550.88	29639.06
551.08	30005.64
551.279	29770.13
551.479	29618.58
551.679	30087.56
551.879	29512.08
552.079	30024.08
552.278	29659.54
552.478	29626.77
552.678	29639.06
552.878	30017.93
553.077	29614.48
553.277	29684.11
553.477	30105.99
553.676	29426.07
553.876	29411.73
554.076	29743.5
554.275	29311.38
554.475	29550.99
554.674	29325.72
554.874	29606.29
555.074	29313.43
555.273	29518.23
555.473	29684.11
555.672	29270.42
555.872	29477.27
556.071	29405.59
556.271	29598.1
556.47	29403.54
556.67	29139.35
556.869	29366.68
557.068	29510.04
557.268	29149.59
557.467	29163.93
557.667	29012.38
557.866	28934.56
558.065	29270.42
558.265	28918.17
558.464	28932.51
558.663	29022.62
558.863	28524.96
559.062	29163.93
559.261	28670.37
559.461	29024.67
559.66	28645.79
559.859	28875.16
560.058	28643.74
560.258	28924.32
560.457	28647.84
560.656	28733.85
560.855	28127.66
561.054	28557.73
561.253	28508.58
561.453	28289.45
561.652	28592.55
561.851	28424.61
562.05	28348.84
562.249	27861.42
562.448	28377.51
562.647	28314.02
562.846	28180.9
563.045	28168.62
563.244	28105.13
563.443	27797.93
563.642	27961.77
563.841	27992.49
564.04	28031.4
564.239	28051.88
564.438	27623.86
564.637	27627.95
564.836	27738.54
565.035	27722.16
565.234	27611.57
565.432	27165.11
565.631	27820.46
565.83	27785.65
566.029	27525.55
566.228	27595.18
566.427	27515.31
566.625	27052.47
566.824	26694.08
567.023	27165.11
567.222	27089.34
567.42	27447.73
567.619	26888.64
567.818	26913.21
568.016	27027.9
568.215	27079.1
568.414	26962.36
568.612	27031.99
568.811	26677.69
569.01	26732.99
569.208	26345.92
569.407	26657.21
569.605	26223.05
569.804	26489.28
570.002	26194.37
570.201	26501.57
570.4	26046.92
570.598	26020.3
570.797	25866.7
570.995	26268.1
571.193	25729.48
571.392	26368.45
571.59	25782.73
571.789	25805.26
571.987	25549.26
572.186	25403.86
572.384	25229.78
572.582	25717.2
572.781	25518.54
572.979	25344.47
573.177	25336.27
573.376	25231.83
573.574	25016.79
573.772	25360.85
573.971	24955.35
574.169	24869.34
574.367	24773.08
574.565	25260.5
574.763	25029.08
574.962	24775.13
575.16	24525.28
575.358	24547.81
575.556	24517.09
575.754	24699.36
575.952	24400.35
576.151	24566.24
576.349	24205.8
576.547	24213.99
576.745	24140.26
576.943	24453.6
577.141	24205.8
577.339	24242.66
577.537	23943.66
577.735	24005.1
577.933	23974.38
578.131	24037.86
578.329	23788.01
578.527	23587.31
578.725	23837.16
578.923	23853.55
579.121	23712.24
579.319	23679.47
579.516	23878.12
579.714	23308.79
579.912	23398.9
580.11	23323.12
580.308	23163.38
580.506	23138.8
580.704	22899.19
580.901	23081.46
581.099	23147
581.297	22645.24
581.495	22698.49
581.692	22878.71
581.89	22712.83
582.088	22974.97
582.285	22546.94
582.483	22575.61
582.681	22491.65
582.878	22475.26
583.076	22219.27
583.274	22508.03
583.471	22430.21
583.669	22204.93
583.866	22262.27
584.064	22172.16
584.262	22024.71
584.459	22168.07
584.657	21744.14
584.854	21971.46
585.052	21297.68
585.249	22010.37
585.447	21602.83
585.644	21615.12
585.841	22037
586.039	22039.05
586.236	21381.65
586.434	21006.87
586.631	21385.74
586.828	21326.35
587.026	21314.06
587.223	21463.57
587.42	20894.23
587.618	21230.1
587.815	21035.54
588.012	20746.78
588.21	20992.53
588.407	20529.69
588.604	20697.63
588.801	20806.17
588.999	20505.12
589.196	20509.21
589.393	20513.31
589.59	20386.33
589.787	20171.3
589.984	20187.68
590.182	20339.23
590.379	20402.72
590.576	20165.15
590.773	19948.07
590.97	20171.3
591.167	20070.95
591.364	19737.13
591.561	19823.14
591.758	19798.57
591.955	19743.27
592.152	19847.72
592.349	19606.06
592.546	19900.97
592.743	19708.46
592.94	19425.84
593.137	19571.24
593.334	19485.23
593.531	19098.16
593.727	19380.78
593.924	19151.41
594.121	19087.92
594.318	19204.66
594.515	18891.32
594.712	19137.07
594.908	18461.24
595.105	18889.27
595.302	18778.68
595.499	18981.43
595.696	18641.46
595.892	18795.06
596.089	18631.23
596.286	18600.51
596.482	18469.44
596.679	18375.23
596.876	18750.01
597.072	18317.89
597.269	18205.25
597.466	18340.41
597.662	18125.38
597.859	17900.1
598.055	18088.51
598.252	18129.47
598.448	18014.79
598.645	17705.54
598.841	17945.16
599.038	17844.81
599.234	17830.47
599.431	17553.99
599.627	17502.79
599.824	17896
600.02	17699.4
600.217	17543.75
600.413	17205.84
600.609	17451.6
600.806	17193.55
601.002	17447.5
601.198	17367.63
601.395	17046.1
601.591	17209.93
601.787	17103.44
601.984	16943.7
602.18	17009.23
602.376	16831.06
602.572	16726.61
602.769	16810.58
602.965	16693.85
603.161	16589.4
603.357	16634.46
603.553	16683.61
603.75	16800.34
603.946	16343.64
604.142	16628.31
604.338	16521.82
604.534	16319.07
604.73	16104.03
604.926	16231.01
605.122	16366.17
605.318	16073.31
605.514	16091.74
605.71	16022.11
605.906	16042.59
606.102	15925.86
606.298	15917.67
606.494	16005.73
606.69	16015.97
606.886	15975.01
607.082	15510.12
607.278	15972.96
607.474	15436.39
607.67	15837.8
607.866	15295.08
608.062	15741.54
608.257	15546.98
608.453	15563.37
608.649	15395.43
608.845	15495.78
609.041	15301.23
609.236	15426.15
609.432	15196.78
609.628	15454.83
609.824	15125.1
610.019	14975.6
610.215	15223.41
610.411	15307.37
610.606	14748.28
610.802	15209.07
610.998	15194.73
611.193	15159.92
611.389	15032.94
611.584	14813.81
611.78	14752.37
611.976	14938.74
612.171	14865.01
612.367	14944.88
612.562	14822
612.758	14643.83
612.953	14666.36
613.149	15034.99
613.344	14613.11
613.539	14946.93
613.735	14649.97
613.93	14762.61
614.126	14449.27
614.321	14545.53
614.517	14269.05
614.712	14199.42
614.907	14293.63
615.103	14371.45
615.298	14312.06
615.493	14420.6
615.688	14221.95
615.884	14387.83
616.079	13990.53
616.274	14316.15
616.47	14129.79
616.665	14244.48
616.86	14097.02
617.055	14236.28
617.25	13961.86
617.445	14140.03
617.641	13900.42
617.836	14125.69
618.031	13798.02
618.226	13732.48
618.421	13585.03
618.616	13736.58
618.811	13738.63
619.006	13720.2
619.201	13308.55
619.396	13566.6
619.591	13482.63
619.786	13343.37
619.981	13193.87
620.176	13443.72
620.371	13075.09
620.566	13259.4
620.761	13195.92
620.956	13200.01
621.151	13116.05
621.346	13204.11
621.541	13079.18
621.735	12917.39
621.93	12706.45
622.125	12845.71
622.32	12528.28
622.515	12583.57
622.709	12599.96
622.904	12495.51
623.099	12339.87
623.294	12624.53
623.488	12153.5
623.683	12278.43
623.878	12087.96
624.072	12169.88
624.267	12063.39
624.462	12251.8
624.656	11899.55
624.851	11924.13
625.046	11795.11
625.24	11801.25
625.435	11768.48
625.629	11694.75
625.824	11489.96
626.018	11453.09
626.213	11383.46
626.407	11506.34
626.602	11203.24
626.796	11246.25
626.991	11440.81
627.185	11205.29
627.38	11307.69
627.574	11143.85
627.768	10877.62
627.963	11100.84
628.157	10734.26
628.352	10762.93
628.546	10719.92
628.74	10822.32
628.935	10455.73
629.129	10582.71
629.323	10576.56
629.517	10463.93
629.712	10279.61
629.906	10265.27
630.1	10136.25
630.294	10207.93
630.489	10078.91
630.683	10220.22
630.877	9949.89
631.071	10085.05
631.265	9851.58
631.459	9861.82
631.653	9890.49
631.848	9827.01
632.042	9673.41
632.236	9708.23
632.43	9777.86
632.624	9585.35
632.818	9587.4
633.012	9538.24
633.206	9421.51
633.4	9423.56
633.594	9185.99
633.788	9505.48
633.982	9286.34
634.176	9159.37
634.369	9097.93
634.563	9048.78
634.757	9272.01
634.951	9044.68
635.145	8968.91
635.339	9036.49
635.533	8846.03
635.726	8809.17
635.92	8739.54
636.114	8745.68
636.308	8952.52
636.501	8579.79
636.695	8555.22
636.889	8649.43
637.083	8461.01
637.276	8485.59
637.47	8461.01
637.664	8327.89
637.857	8321.75
638.051	8405.72
638.244	8200.92
638.438	8190.68
638.632	8202.97
638.825	8020.7
639.019	8217.3
639.212	8047.32
639.406	8129.24
639.599	7928.54
639.793	7895.77
639.986	7793.37
640.18	7822.05
640.373	7932.64
640.567	7650.02
640.76	7543.52
640.954	7353.06
641.147	7529.19
641.34	7324.39
641.534	7475.94
641.727	7387.88
641.92	7365.35
642.114	7553.76
642.307	7363.3
642.5	7348.97
642.694	7285.48
642.887	7088.87
643.08	7312.1
643.273	7160.55
643.467	7004.91
643.66	7105.26
643.853	6900.46
644.046	6980.33
644.239	6892.27
644.432	6951.66
644.626	6779.63
644.819	6796.01
645.012	6728.43
645.205	6832.88
645.398	6734.57
645.591	6630.13
645.784	6595.31
645.977	6628.08
646.17	6662.9
646.363	6542.07
646.556	6284.02
646.749	6374.13
646.942	6503.15
647.135	6226.68
647.328	6343.41
647.521	6327.03
647.714	6079.22
647.907	6380.28
648.099	6152.95
648.292	6232.82
648.485	5931.77
648.678	5827.32
648.871	6040.31
649.064	6099.7
649.256	6101.75
649.449	5825.28
649.642	5989.11
649.835	5876.48
650.027	5876.48
650.22	5683.97
650.413	5909.24
650.605	5720.83
650.798	5671.68
650.991	5628.67
651.183	5739.26
651.376	5468.93
651.568	5743.36
651.761	5600
651.954	5485.31
652.146	5628.67
652.339	5569.28
652.531	5378.82
652.724	5356.29
652.916	5391.11
653.109	5190.41
653.301	5430.02
653.494	5333.76
653.686	5278.47
653.879	5247.75
654.071	5327.62
654.263	5075.72
654.456	5253.89
654.648	5235.46
654.84	5030.66
655.033	5151.49
655.225	4985.61
655.417	5217.03
655.61	5004.04
655.802	5114.63
655.994	4946.7
656.186	4877.07
656.379	4979.47
656.571	4928.27
656.763	4897.55
656.955	4764.43
657.148	4784.91
657.34	4764.43
657.532	4766.48
657.724	4643.6
657.916	4743.95
658.108	4737.81
658.3	4674.32
658.492	4698.89
658.684	4674.32
658.876	4670.22
659.068	4619.02
659.26	4461.33
659.452	4539.15
659.644	4526.86
659.836	4451.09
660.028	4344.6
660.22	4277.01
660.412	4285.2
660.604	4301.59
660.796	4283.16
660.988	4272.92
661.18	4365.07
661.372	4199.19
661.563	4281.11
661.755	4047.64
661.947	4188.95
662.139	4084.5
662.331	4113.17
662.522	4072.22
662.714	4213.53
662.906	4051.74
663.097	4008.73
663.289	3965.72
663.481	3922.71
663.673	3830.55
663.864	3926.81
664.056	3881.75
664.247	4006.68
664.439	3746.59
664.631	3943.19
664.822	3855.13
665.014	3869.47
665.205	3754.78
665.397	3748.64
665.588	3722.01
665.78	3625.76
665.971	3748.64
666.163	3875.61
666.354	3609.37
666.546	3676.96
666.737	3609.37
666.929	3595.04
667.12	3668.77
667.311	3689.25
667.503	3488.54
667.694	3484.45
667.885	3513.12
668.077	3504.93
668.268	3433.25
668.459	3498.78
668.651	3359.52
668.842	3459.87
669.033	3351.33
669.224	3375.91
669.416	3380
669.607	3386.15
669.798	3367.71
669.989	3435.3
670.18	3332.9
670.371	3291.94
670.563	3226.4
670.754	3244.84
670.945	3175.2
671.136	3181.35
671.327	3150.63
671.518	3216.16
671.709	3265.32
671.9	3193.64
672.091	3091.24
672.282	3050.28
672.473	3228.45
672.664	3111.72
672.855	3187.49
673.046	3066.66
673.237	3017.51
673.428	3015.46
673.619	3091.24
673.809	3089.19
674	3056.42
674.191	3072.81
674.382	3042.09
674.573	3087.14
674.764	3042.09
674.954	3048.23
675.145	3052.33
675.336	2949.93
675.527	2904.87
675.717	2988.84
675.908	2966.31
676.099	2892.59
676.289	2769.71
676.48	2902.83
676.671	2890.54
676.861	2999.08
677.052	2837.29
677.243	2759.47
677.433	2890.54
677.624	2841.39
677.814	2640.69
678.005	2863.91
678.195	2831.15
678.386	2876.2
678.576	2827.05
678.767	2798.38
678.957	2857.77
679.148	2745.13
679.338	2802.47
679.529	2751.28
679.719	2667.31
679.909	2732.84
680.1	2800.43
680.29	2747.18
680.481	2687.79
680.671	2710.32
680.861	2683.69
681.052	2675.5
681.242	2704.17
681.432	2716.46
681.622	2681.64
681.813	2464.56
682.003	2667.31
682.193	2761.52
682.383	2734.89
682.573	2573.1
682.764	2601.77
682.954	2599.73
683.144	2577.2
683.334	2655.02
683.524	2497.33
683.714	2513.71
683.904	2597.68
684.094	2579.25
684.284	2495.28
684.474	2601.77
684.664	2564.91
684.854	2663.21
685.044	2599.73
685.234	2566.96
685.424	2593.58
685.614	2485.04
685.804	2579.25
685.994	2485.04
686.184	2614.06
686.374	2456.37
686.564	2433.84
686.753	2552.62
686.943	2530.09
687.133	2523.95
687.323	2458.42
687.513	2519.85
687.702	2327.35
687.892	2431.79
688.082	2523.95
688.272	2460.46
688.461	2435.89
688.651	2390.83
688.841	2464.56
689.03	2382.64
689.22	2358.07
689.41	2413.36
689.599	2427.7
689.789	2390.83
689.979	2464.56
690.168	2306.87
690.358	2372.4
690.547	2210.61
690.737	2403.12
690.926	2356.02
691.116	2284.34
691.305	2313.01
691.495	2435.89
691.684	2339.63
691.874	2413.36
692.063	2331.44
692.252	2411.31
692.442	2339.63
692.631	2241.33
692.82	2302.77
693.01	2399.02
693.199	2231.09
693.388	2192.18
693.578	2181.94
693.767	2396.98
693.956	2394.93
694.146	2255.67
694.335	2200.37
694.524	2313.01
694.713	2210.61
694.902	2208.56
695.092	2181.94
695.281	2194.23
695.47	2272.05
695.659	2175.8
695.848	2231.09
696.037	2229.04
696.226	2145.08
696.415	2224.95
696.604	2130.74
696.793	2140.98
696.982	2147.12
697.171	2132.79
697.36	2011.96
697.549	2175.8
697.738	2071.35
697.927	2140.98
698.116	2120.5
698.305	2130.74
698.494	2100.02
698.683	2032.44
698.872	2112.31
699.061	2118.45
699.25	2167.6
699.438	2132.79
699.627	2054.97
699.816	2050.87
700.005	2044.73
700.193	2102.07
700.382	2032.44
700.571	1987.38
700.76	2036.53
700.948	2042.68
701.137	2120.5
701.326	2057.01
701.514	2120.5
701.703	2130.74
701.892	1975.1
702.08	1979.19
702.269	2026.29
702.457	2028.34
702.646	2081.59
702.834	1958.71
703.023	2024.25
703.212	2014.01
703.4	2048.82
703.589	1995.57
703.777	1973.05
703.965	1930.04
704.154	2022.2
704.342	2085.69
704.531	1936.18
704.719	2032.44
704.907	2003.77
705.096	2011.96
705.284	1942.33
705.472	1850.17
705.661	1938.23
705.849	1966.9
706.037	1962.81
706.226	1938.23
706.414	1971
706.602	1915.7
706.79	1839.93
706.979	1850.17
707.167	1960.76
707.355	1913.66
707.543	1973.05
707.731	1979.19
707.919	1942.33
708.107	1905.46
708.296	1880.89
708.484	1891.13
708.672	1923.9
708.86	1901.37
709.048	1895.22
709.236	1882.94
709.424	1919.8
709.612	1997.62
709.8	1913.66
709.988	1833.79
710.176	1815.35
710.364	1829.69
710.551	1817.4
710.739	1884.98
710.927	1862.46
711.115	1923.9
711.303	1807.16
711.491	1864.5
711.679	1659.71
711.866	1833.79
712.054	1848.12
712.242	1829.69
712.43	1770.3
712.617	1688.38
712.805	1770.3
712.993	1811.26
713.181	1782.59
713.368	1792.83
713.556	1776.44
713.744	1823.55
713.931	1788.73
714.119	1723.2
714.306	1733.43
714.494	1768.25
714.682	1749.82
714.869	1731.39
715.057	1784.63
715.244	1717.05
715.432	1700.67
715.619	1751.87
715.807	1655.61
715.994	1725.24
716.182	1674.04
716.369	1741.63
716.556	1719.1
716.744	1635.13
716.931	1602.36
717.119	1606.46
717.306	1610.56
717.493	1782.59
717.681	1735.48
717.868	1702.72
718.055	1825.59
718.242	1610.56
718.43	1665.85
718.617	1655.61
718.804	1680.19
718.991	1585.98
719.179	1649.47
719.366	1680.19
719.553	1692.48
719.74	1676.09
719.927	1651.52
720.114	1616.7
720.301	1553.21
720.488	1547.07
720.676	1676.09
720.863	1657.66
721.05	1612.6
721.237	1639.23
721.424	1637.18
721.611	1551.17
721.798	1483.58
721.985	1557.31
722.172	1559.36
722.358	1608.51
722.545	1674.04
722.732	1508.16
722.919	1538.88
723.106	1643.32
723.293	1518.4
723.48	1524.54
723.667	1573.69
723.853	1549.12
724.04	1676.09
724.227	1588.03
724.414	1559.36
724.6	1526.59
724.787	1553.21
724.974	1571.65
725.161	1573.69
725.347	1516.35
725.534	1520.45
725.72	1540.93
725.907	1604.41
726.094	1594.17
726.28	1479.49
726.467	1604.41
726.653	1497.92
726.84	1504.06
727.027	1508.16
727.213	1538.88
727.4	1534.78
727.586	1526.59
727.773	1585.98
727.959	1577.79
728.145	1502.01
728.332	1524.54
728.518	1567.55
728.705	1508.16
728.891	1454.91
729.077	1483.58
729.264	1497.92
729.45	1424.19
729.636	1538.88
729.823	1461.06
730.009	1565.5
730.195	1555.26
730.382	1532.73
730.568	1512.25
730.754	1536.83
730.94	1487.68
731.126	1448.77
731.313	1477.44
731.499	1422.14
731.685	1411.9
731.871	1459.01
732.057	1528.64
732.243	1502.01
732.429	1405.76
732.615	1420.1
732.801	1471.29
732.987	1456.96
733.173	1479.49
733.359	1487.68
733.545	1391.42
733.731	1465.15
733.917	1446.72
734.103	1536.83
734.289	1442.62
734.475	1401.66
734.661	1422.14
734.847	1426.24
735.033	1526.59
735.219	1387.33
735.404	1489.73
735.59	1516.35
735.776	1426.24
735.962	1438.53
736.148	1383.23
736.333	1409.86
736.519	1418.05
736.705	1368.9
736.89	1434.43
737.076	1413.95
737.262	1385.28
737.447	1434.43
737.633	1372.99
737.819	1397.57
738.004	1454.91
738.19	1438.53
738.375	1315.65
738.561	1385.28
738.747	1344.32
738.932	1266.5
739.118	1387.33
739.303	1383.23
739.489	1364.8
739.674	1295.17
739.859	1356.61
740.045	1278.79
740.23	1256.26
740.416	1340.22
740.601	1387.33
740.786	1358.66
740.972	1307.46
741.157	1383.23
741.342	1311.55
741.528	1364.8
741.713	1358.66
741.898	1352.51
742.084	1313.6
742.269	1315.65
742.454	1329.99
742.639	1403.71
742.824	1340.22
743.01	1321.79
743.195	1252.16
743.38	1276.74
743.565	1280.83
743.75	1344.32
743.935	1243.97
744.12	1262.4
744.305	1301.31
744.49	1291.07
744.675	1315.65
744.86	1164.1
745.045	1188.68
745.23	1301.31
745.415	1241.92
745.6	1301.31
745.785	1203.01
745.97	1340.22
746.155	1219.39
746.34	1213.25
746.525	1200.96
746.71	1192.77
746.895	1223.49
747.079	1155.91
747.264	1215.3
747.449	1188.68
747.634	1200.96
747.819	1100.61
748.003	1170.24
748.188	1172.29
748.373	1190.72
748.557	1104.71
748.742	1127.24
748.927	1100.61
749.111	1137.48
749.296	1024.84
749.481	1162.05
749.665	1106.76
749.85	1178.44
750.034	1119.04
750.219	1035.08
750.404	1078.08
750.588	1137.48
750.773	1065.8
750.957	1022.79
751.141	996.17
751.326	1069.89
751.51	951.11
751.695	981.83
751.879	1110.85
752.064	1086.28
752.248	963.4
752.432	1006.41
752.617	1047.37
752.801	992.07
752.985	990.02
753.17	1004.36
753.354	996.17
753.538	990.02
753.722	994.12
753.907	926.54
754.091	1035.08
754.275	967.49
754.459	930.63
754.643	957.25
754.828	889.67
755.012	965.45
755.196	895.82
755.38	897.86
755.564	899.91
755.748	875.34
755.932	873.29
756.116	801.61
756.3	908.1
756.484	852.81
756.668	895.82
756.852	858.95
757.036	836.42
757.22	865.1
757.404	846.66
757.588	838.47
757.772	807.75
757.956	764.75
758.14	893.77
758.323	840.52
758.507	727.88
758.691	783.18
758.875	783.18
759.059	815.94
759.242	830.28
759.426	799.56
759.61	764.75
759.794	768.84
759.977	799.56
760.161	836.42
760.345	725.83
760.528	748.36
760.712	666.44
760.895	740.17
761.079	813.9
761.263	744.27
761.446	695.11
761.63	777.03
761.813	715.59
761.997	738.12
762.18	719.69
762.364	736.07
762.547	793.42
762.731	682.83
762.914	658.25
763.098	766.79
763.281	674.64
763.464	719.69
763.648	633.68
763.831	699.21
764.015	656.2
764.198	670.54
764.381	723.79
764.564	736.07
764.748	758.6
764.931	695.11
765.114	734.03
765.297	695.11
765.481	645.96
765.664	711.5
765.847	674.64
766.03	682.83
766.213	643.92
766.397	594.76
766.58	662.35
766.763	699.21
766.946	605
767.129	643.92
767.312	725.83
767.495	711.5
767.678	570.19
767.861	564.04
768.044	523.09
768.227	631.63
768.41	566.09
768.593	555.85
768.776	611.15
768.959	566.09
769.142	662.35
769.324	672.59
769.507	562
769.69	605
769.873	607.05
770.056	635.72
770.239	602.96
770.421	629.58
770.604	545.61
770.787	615.24
770.97	645.96
771.152	512.85
771.335	592.72
771.518	555.85
771.7	580.43
771.883	578.38
772.066	543.57
772.248	578.38
772.431	572.24
772.613	586.57
772.796	549.71
772.978	631.63
773.161	514.89
773.343	705.35
773.526	586.57
773.708	506.7
773.891	508.75
774.073	467.79
774.256	543.57
774.438	473.93
774.621	443.21
774.803	615.24
774.985	508.75
775.168	482.13
775.35	471.89
775.532	527.18
775.715	525.13
775.897	453.45
776.079	420.69
776.261	518.99
776.444	494.41
776.626	514.89
776.808	443.21
776.99	498.51
777.173	508.75
777.355	484.17
777.537	500.56
777.719	502.61
777.901	498.51
778.083	463.69
778.265	473.93
778.447	494.41
778.629	518.99
778.811	492.37
778.993	412.5
779.175	416.59
779.357	539.47
779.539	459.6
779.721	379.73
779.903	379.73
780.085	402.26
780.267	402.26
780.449	389.97
780.631	414.54
780.812	349.01
780.994	428.88
781.176	377.68
781.358	414.54
781.54	418.64
781.721	420.69
781.903	392.02
782.085	375.63
782.267	346.96
782.448	416.59
782.63	338.77
782.812	455.5
782.993	361.3
783.175	349.01
783.357	324.43
783.538	367.44
783.72	351.06
783.901	349.01
784.083	344.91
784.264	349.01
784.446	373.58
784.627	306
784.809	318.29
784.99	344.91
785.172	342.86
785.353	314.19
785.535	273.23
785.716	361.3
785.897	314.19
786.079	334.67
786.26	275.28
786.441	279.38
786.623	318.29
786.804	293.71
786.985	269.14
787.167	258.9
787.348	297.81
787.529	318.29
787.71	353.1
787.891	287.57
788.073	281.43
788.254	289.62
788.435	254.8
788.616	326.48
788.797	293.71
788.978	293.71
789.159	349.01
789.34	228.18
789.522	301.9
789.703	213.84
789.884	267.09
790.065	326.48
790.246	260.95
790.427	244.56
790.607	211.79
790.788	250.71
790.969	306
791.15	310.1
791.331	217.94
791.512	293.71
791.693	217.94
791.874	283.47
792.054	287.57
792.235	262.99
792.416	332.62
792.597	236.37
792.778	226.13
792.958	238.42
793.139	162.64
793.32	265.04
793.5	228.18
793.681	246.61
793.862	316.24
794.042	219.99
794.223	201.55
794.404	193.36
794.584	240.47
794.765	244.56
794.945	197.46
795.126	248.66
795.306	230.23
795.487	203.6
795.667	217.94
795.848	228.18
796.028	224.08
796.209	271.19
796.389	238.42
796.57	242.51
796.75	262.99
796.93	209.75
797.111	189.27
797.291	201.55
797.471	244.56
797.652	176.98
797.832	195.41
798.012	203.6
798.192	144.21
798.373	168.79
798.553	195.41
798.733	271.19
798.913	174.93
799.093	201.55
799.274	234.32
799.454	191.31
799.634	195.41
799.814	160.59
799.994	176.98
800.174	246.61
800.354	281.43
800.534	240.47
800.714	215.89
800.894	215.89
801.074	123.73
801.254	211.79
801.434	195.41
801.614	205.65
801.794	150.36
801.974	459.6
802.154	189.27
802.334	164.69
802.514	176.98
802.693	185.17
802.873	244.56
803.053	140.12
803.233	201.55
803.413	172.88
803.592	140.12
803.772	154.45
803.952	179.03
804.131	179.03
804.311	191.31
804.491	191.31
804.67	176.98
804.85	138.07
805.03	209.75
805.209	187.22
805.389	123.73
805.568	160.59
805.748	170.83
805.928	95.06
806.107	136.02
806.287	211.79
806.466	179.03
806.646	148.31
806.825	166.74
807.004	170.83
807.184	166.74
807.363	111.44
807.543	150.36
807.722	168.79
807.901	189.27
808.081	99.16
808.26	103.25
808.439	156.5
808.619	136.02
808.798	197.46
808.977	207.7
809.156	187.22
809.336	107.35
809.515	195.41
809.694	144.21
809.873	185.17
810.052	119.64
810.231	158.55
810.411	115.54
810.59	113.49
810.769	80.72
810.948	160.59
811.127	138.07
811.306	166.74
811.485	80.72
811.664	185.17
811.843	113.49
812.022	138.07
812.201	119.64
812.38	144.21
812.559	72.53
812.737	105.3
812.916	168.79
813.095	131.92
813.274	78.68
813.453	138.07
813.632	168.79
813.811	160.59
813.989	136.02
814.168	84.82
814.347	127.83
814.526	62.29
814.704	166.74
814.883	152.4
815.062	115.54
815.24	156.5
815.419	84.82
815.598	117.59
815.776	148.31
815.955	111.44
816.133	115.54
816.312	125.78
816.49	90.96
816.669	131.92
816.847	47.96
817.026	105.3
817.204	140.12
817.383	211.79
817.561	58.2
817.74	111.44
817.918	52.05
818.097	144.21
818.275	90.96
818.453	105.3
818.632	56.15
818.81	148.31
818.988	86.87
819.167	121.68
819.345	80.72
819.523	154.45
819.701	62.29
819.879	78.68
820.058	41.81
820.236	152.4
820.414	72.53
820.592	88.92
820.77	140.12
820.948	82.77
821.127	158.55
821.305	154.45
821.483	47.96
821.661	160.59
821.839	142.16
822.017	68.44
822.195	101.2
822.373	111.44
822.551	39.76
822.729	170.83
822.907	111.44
823.085	119.64
823.262	123.73
823.44	72.53
823.618	99.16
823.796	78.68
823.974	74.58
824.152	82.77
824.329	95.06
824.507	70.48
824.685	82.77
824.863	80.72
825.04	97.11
825.218	88.92
825.396	52.05
825.574	95.06
825.751	115.54
825.929	127.83
826.107	56.15
826.284	86.87
826.462	86.87
826.639	90.96
826.817	70.48
826.994	58.2
827.172	23.38
827.349	103.25
827.527	47.96
827.704	15.19
827.882	133.97
828.059	109.4
828.237	111.44
828.414	50
828.591	217.94
828.769	127.83
828.946	156.5
829.124	45.91
829.301	72.53
829.478	93.01
829.655	52.05
829.833	58.2
830.01	107.35
830.187	123.73
830.364	105.3
830.542	90.96
830.719	97.11
830.896	168.79
831.073	103.25
831.25	41.81
831.427	45.91
831.604	74.58
831.782	72.53
831.959	72.53
832.136	45.91
832.313	39.76
832.49	105.3
832.667	131.92
832.844	50
833.021	127.83
833.198	72.53
833.374	93.01
833.551	52.05
833.728	131.92
833.905	76.63
834.082	9.05
834.259	105.3
834.436	95.06
834.612	82.77
834.789	2.9
834.966	47.96
835.143	66.39
835.319	-9.39
835.496	123.73
835.673	60.24
835.85	152.4
836.026	52.05
836.203	45.91
836.38	56.15
836.556	127.83
836.733	54.1
836.909	123.73
837.086	52.05
837.262	-1.19
837.439	43.86
837.616	27.48
837.792	64.34
837.968	113.49
838.145	29.52
838.321	47.96
838.498	80.72
838.674	29.52
838.851	45.91
839.027	111.44
839.203	58.2
839.38	13.14
839.556	74.58
839.732	90.96
839.909	39.76
840.085	70.48
840.261	62.29
840.437	35.67
840.614	33.62
840.79	97.11
840.966	58.2
841.142	99.16
841.318	21.33
841.494	156.5
841.671	45.91
841.847	70.48
842.023	45.91
842.199	136.02
842.375	43.86
842.551	66.39
842.727	60.24
842.903	84.82
843.079	93.01
843.255	50
843.431	37.72
843.607	72.53
843.783	31.57
843.959	99.16
844.134	103.25
844.31	45.91
844.486	13.14
844.662	47.96
844.838	70.48
845.013	41.81
845.189	121.68
845.365	52.05
845.541	45.91
845.716	127.83
845.892	74.58
846.068	109.4
846.244	-27.82
846.419	15.19
846.595	52.05
846.77	41.81
846.946	15.19
847.122	58.2
847.297	29.52
847.473	183.12
847.648	93.01
847.824	-21.67
847.999	9.05
848.175	56.15
848.35	13.14
848.526	21.33
848.701	76.63
848.876	103.25
849.052	54.1
849.227	45.91
849.403	41.81
849.578	68.44
849.753	-3.24
849.929	72.53
850.104	133.97
850.279	95.06
850.454	21.33
850.63	50
850.805	82.77
850.98	4.95
851.155	52.05
851.33	41.81
851.505	15.19
851.681	50
851.856	129.88
852.031	101.2
852.206	78.68
852.381	17.24
852.556	47.96
852.731	101.2
852.906	7
853.081	66.39
853.256	39.76
853.431	64.34
853.606	2.9
853.781	11.09
853.956	84.82
854.131	47.96
854.305	-1.19
854.48	52.05
854.655	-23.72
854.83	113.49
855.005	15.19
855.18	97.11
855.354	56.15
855.529	90.96
855.704	37.72
855.879	54.1
856.053	86.87
856.228	39.76
856.403	66.39
856.577	47.96
856.752	29.52
856.926	-11.43
857.101	37.72
857.276	52.05
857.45	37.72
857.625	54.1
857.799	68.44
857.974	15.19
858.148	56.15
858.323	97.11
858.497	21.33
858.672	62.29
858.846	70.48
859.02	76.63
859.195	39.76
859.369	64.34
859.543	58.2
859.718	-11.43
859.892	84.82
860.066	111.44
860.241	4.95
860.415	72.53
860.589	15.19
860.763	-27.82
860.938	93.01
861.112	54.1
861.286	-36.01
861.46	90.96
861.634	95.06
861.808	78.68
861.982	-5.29
862.157	27.48
862.331	29.52
862.505	56.15
862.679	54.1
862.853	56.15
863.027	47.96
863.201	-3.24
863.375	9.05
863.549	21.33
863.722	72.53
863.896	45.91
864.07	50
864.244	21.33
864.418	-103.59
864.592	99.16
864.766	39.76
864.939	60.24
865.113	21.33
865.287	37.72
865.461	9.05
865.634	35.67
865.808	21.33
865.982	121.68
866.156	27.48
866.329	7
866.503	11.09
866.676	111.44
866.85	27.48
867.024	29.52
867.197	80.72
867.371	50
867.544	82.77
867.718	2.9
867.891	93.01
868.065	54.1
868.238	23.38
868.412	78.68
868.585	-36.01
868.759	50
868.932	41.81
869.105	115.54
869.279	97.11
869.452	-9.39
869.625	-31.91
869.799	-21.67
869.972	72.53
870.145	25.43
870.319	41.81
870.492	95.06
870.665	-31.91
870.838	0.85
871.011	80.72
871.185	4.95
871.358	31.57
871.531	9.05
871.704	62.29
871.877	52.05
872.05	50
872.223	-33.96
872.396	56.15
872.569	-3.24
872.742	2.9
872.915	58.2
873.088	50
873.261	58.2
873.434	-15.53
873.607	72.53
873.78	-36.01
873.953	70.48
874.126	25.43
874.299	70.48
874.471	35.67
874.644	97.11
874.817	25.43
874.99	88.92
875.163	15.19
875.335	117.59
875.508	11.09
875.681	54.1
875.853	37.72
876.026	41.81
876.199	54.1
876.371	19.29
876.544	78.68
876.717	23.38
876.889	-13.48
877.062	58.2
877.234	54.1
877.407	31.57
877.579	-7.34
877.752	-1.19
877.924	64.34
878.097	64.34
878.269	2.9
878.442	27.48
878.614	52.05
878.786	68.44
878.959	-1.19
879.131	39.76
879.303	60.24
879.476	66.39
879.648	31.57
879.82	-11.43
879.993	52.05
880.165	13.14
880.337	47.96
880.509	7
880.681	54.1
880.854	86.87
881.026	35.67
881.198	17.24
881.37	-15.53
881.542	52.05
881.714	39.76
881.886	37.72
882.058	-38.06
882.23	2.9
882.402	-15.53
882.574	-52.39
882.746	41.81
882.918	31.57
883.09	47.96
883.262	45.91
883.434	-91.31
883.606	43.86
883.778	68.44
883.95	11.09
884.122	45.91
884.293	0.85
884.465	13.14
884.637	52.05
884.809	-15.53
884.98	-52.39
885.152	27.48
885.324	13.14
885.496	13.14
885.667	0.85
885.839	-29.87
886.011	-3.24
886.182	43.86
886.354	-11.43
886.525	-52.39
886.697	72.53
886.869	-21.67
887.04	15.19
887.212	54.1
887.383	19.29
887.555	-7.34
887.726	19.29
887.897	-7.34
888.069	13.14
888.24	-9.39
888.412	-72.87
888.583	-1.19
888.754	-50.35
888.926	17.24
889.097	25.43
889.268	-23.72
889.44	39.76
889.611	-44.2
889.782	41.81
889.953	27.48
890.125	54.1
890.296	33.62
890.467	21.33
890.638	54.1
890.809	29.52
890.98	56.15
891.151	-9.39
891.323	15.19
891.494	-15.53
891.665	15.19
891.836	47.96
892.007	56.15
892.178	62.29
892.349	-40.11
892.52	33.62
892.691	-17.58
892.862	68.44
893.032	-25.77
893.203	50
893.374	13.14
893.545	7
893.716	33.62
893.887	82.77
894.057	39.76
894.228	54.1
894.399	50
894.57	82.77
894.74	101.2
894.911	72.53
895.082	-3.24
895.253	4.95
895.423	-23.72
895.594	33.62
895.764	41.81
895.935	41.81
896.106	27.48
896.276	39.76
896.447	19.29
896.617	-29.87
896.788	7
896.958	45.91
897.129	7
897.299	-3.24
897.47	88.92
897.64	56.15
897.81	56.15
897.981	2.9
898.151	35.67
898.322	64.34
898.492	23.38
898.662	54.1
898.832	17.24
899.003	-9.39
899.173	25.43
899.343	62.29
899.513	58.2
