Data from USB4F104151__89__13-00-04-799.txt Node

Date: Fri Mar 14 13:00:04 EDT 2025
User: louis
Spectrometer: USB4F10415
Trigger mode: 4
Integration Time (sec): 1.000000E-2
Scans to average: 1
Electric dark correction enabled: true
Nonlinearity correction enabled: false
Boxcar width: 0
XAxis mode: Wavelengths
Number of Pixels in Spectrum: 3648
>>>>>Begin Spectral Data<<<<<
178.204	36.52
178.424	36.52
178.644	36.52
178.864	-78.16
179.084	-61.78
179.304	9.9
179.524	-51.54
179.744	-6.49
179.964	-14.68
180.184	32.43
180.404	-12.63
180.624	-18.77
180.844	24.23
181.064	-4.44
181.283	75.43
181.503	-4.44
181.723	-29.01
181.943	-10.58
182.163	30.38
182.383	16.04
182.602	11.95
182.822	91.82
183.042	7.85
183.262	-4.44
183.482	46.76
183.701	-35.16
183.921	46.76
184.141	-10.58
184.361	1.71
184.58	-26.96
184.8	34.47
185.02	-57.68
185.239	93.87
185.459	57
185.679	54.95
185.898	38.57
186.118	77.48
186.338	-33.11
186.557	9.9
186.777	13.99
186.997	71.34
187.216	16.04
187.436	-0.34
187.655	-33.11
187.875	48.81
188.095	-6.49
188.314	40.62
188.534	-37.2
188.753	16.04
188.973	85.67
189.192	89.77
189.412	9.9
189.631	28.33
189.851	-14.68
190.07	48.81
190.29	9.9
190.509	-0.34
190.729	-37.2
190.948	20.14
191.168	36.52
191.387	28.33
191.607	-8.53
191.826	52.91
192.045	42.67
192.265	50.86
192.484	11.95
192.704	40.62
192.923	-51.54
193.142	22.19
193.362	-6.49
193.581	22.19
193.8	32.43
194.02	114.34
194.239	26.28
194.458	-43.35
194.678	69.29
194.897	24.23
195.116	48.81
195.335	69.29
195.555	5.8
195.774	32.43
195.993	-26.96
196.212	-33.11
196.432	-76.12
196.651	-18.77
196.87	-14.68
197.089	-4.44
197.308	22.19
197.528	-10.58
197.747	77.48
197.966	-2.39
198.185	50.86
198.404	5.8
198.623	13.99
198.842	61.1
199.062	-31.06
199.281	-4.44
199.5	-47.44
199.719	22.19
199.938	-31.06
200.157	26.28
200.376	-26.96
200.595	54.95
200.814	24.23
201.033	59.05
201.252	57
201.471	26.28
201.69	75.43
201.909	42.67
202.128	-8.53
202.347	36.52
202.566	40.62
202.785	-20.82
203.004	28.33
203.223	11.95
203.442	-2.39
203.661	16.04
203.879	3.75
204.098	-49.49
204.317	-22.87
204.536	95.91
204.755	-29.01
204.974	-0.34
205.193	69.29
205.411	69.29
205.63	3.75
205.849	-24.92
206.068	34.47
206.287	75.43
206.505	50.86
206.724	81.58
206.943	16.04
207.162	24.23
207.381	67.24
207.599	18.09
207.818	-49.49
208.037	26.28
208.255	42.67
208.474	38.57
208.693	38.57
208.911	34.47
209.13	20.14
209.349	-24.92
209.567	-24.92
209.786	44.71
210.005	67.24
210.223	9.9
210.442	38.57
210.661	73.39
210.879	-20.82
211.098	46.76
211.316	42.67
211.535	3.75
211.753	-26.96
211.972	81.58
212.191	36.52
212.409	-10.58
212.628	69.29
212.846	52.91
213.065	-18.77
213.283	40.62
213.502	-55.64
213.72	32.43
213.938	34.47
214.157	38.57
214.375	24.23
214.594	20.14
214.812	-18.77
215.031	36.52
215.249	50.86
215.467	16.04
215.686	-8.53
215.904	-24.92
216.122	73.39
216.341	73.39
216.559	52.91
216.778	28.33
216.996	-49.49
217.214	77.48
217.432	-8.53
217.651	11.95
217.869	-6.49
218.087	28.33
218.306	-65.88
218.524	40.62
218.742	32.43
218.96	-20.82
219.179	-16.73
219.397	-12.63
219.615	61.1
219.833	28.33
220.051	-12.63
220.27	-0.34
220.488	3.75
220.706	5.8
220.924	5.8
221.142	-0.34
221.36	16.04
221.578	20.14
221.796	-55.64
222.015	-35.16
222.233	32.43
222.451	61.1
222.669	-26.96
222.887	18.09
223.105	-49.49
223.323	63.15
223.541	26.28
223.759	-2.39
223.977	65.19
224.195	63.15
224.413	-18.77
224.631	44.71
224.849	28.33
225.067	3.75
225.285	28.33
225.503	42.67
225.721	-10.58
225.939	59.05
226.157	104.11
226.375	46.76
226.592	-0.34
226.81	57
227.028	46.76
227.246	63.15
227.464	48.81
227.682	30.38
227.9	42.67
228.117	85.67
228.335	-18.77
228.553	44.71
228.771	38.57
228.989	63.15
229.206	40.62
229.424	-6.49
229.642	-53.59
229.86	44.71
230.077	40.62
230.295	44.71
230.513	59.05
230.731	44.71
230.948	77.48
231.166	65.19
231.384	30.38
231.601	46.76
231.819	18.09
232.037	69.29
232.254	52.91
232.472	-29.01
232.689	-43.35
232.907	36.52
233.125	26.28
233.342	-37.2
233.56	-45.4
233.777	-37.2
233.995	-67.92
234.213	3.75
234.43	-8.53
234.648	22.19
234.865	3.75
235.083	61.1
235.3	-35.16
235.518	20.14
235.735	16.04
235.953	44.71
236.17	40.62
236.388	13.99
236.605	83.63
236.822	32.43
237.04	57
237.257	77.48
237.475	-14.68
237.692	1.71
237.909	46.76
238.127	-29.01
238.344	40.62
238.562	42.67
238.779	-39.25
238.996	16.04
239.214	24.23
239.431	-2.39
239.648	-0.34
239.865	5.8
240.083	46.76
240.3	22.19
240.517	-31.06
240.735	44.71
240.952	9.9
241.169	-41.3
241.386	18.09
241.603	36.52
241.821	5.8
242.038	40.62
242.255	-24.92
242.472	-4.44
242.689	28.33
242.907	-45.4
243.124	11.95
243.341	28.33
243.558	-29.01
243.775	18.09
243.992	11.95
244.209	32.43
244.426	-26.96
244.643	28.33
244.86	34.47
245.078	11.95
245.295	85.67
245.512	-2.39
245.729	-37.2
245.946	38.57
246.163	26.28
246.38	106.15
246.597	-10.58
246.814	-37.2
247.031	-33.11
247.248	75.43
247.464	-26.96
247.681	69.29
247.898	48.81
248.115	-45.4
248.332	-90.45
248.549	28.33
248.766	85.67
248.983	52.91
249.2	28.33
249.417	61.1
249.633	-84.31
249.85	-22.87
250.067	71.34
250.284	22.19
250.501	26.28
250.717	16.04
250.934	5.8
251.151	28.33
251.368	63.15
251.585	20.14
251.801	20.14
252.018	57
252.235	24.23
252.451	11.95
252.668	7.85
252.885	132.78
253.102	28.33
253.318	136.87
253.535	-12.63
253.752	-6.49
253.968	30.38
254.185	-18.77
254.401	100.01
254.618	7.85
254.835	22.19
255.051	44.71
255.268	79.53
255.484	22.19
255.701	-4.44
255.917	24.23
256.134	-22.87
256.351	-4.44
256.567	-35.16
256.784	-35.16
257	36.52
257.217	13.99
257.433	13.99
257.65	11.95
257.866	-37.2
258.082	-12.63
258.299	-37.2
258.515	46.76
258.732	-63.83
258.948	40.62
259.165	38.57
259.381	5.8
259.597	-10.58
259.814	-2.39
260.03	-39.25
260.246	134.82
260.463	75.43
260.679	83.63
260.895	-18.77
261.112	28.33
261.328	24.23
261.544	26.28
261.761	42.67
261.977	61.1
262.193	-29.01
262.409	36.52
262.626	24.23
262.842	-4.44
263.058	102.06
263.274	40.62
263.49	40.62
263.707	-16.73
263.923	36.52
264.139	-20.82
264.355	-4.44
264.571	67.24
264.787	1.71
265.004	30.38
265.22	-26.96
265.436	40.62
265.652	-0.34
265.868	-2.39
266.084	42.67
266.3	-18.77
266.516	-6.49
266.732	38.57
266.948	-4.44
267.164	46.76
267.38	7.85
267.596	11.95
267.812	26.28
268.028	13.99
268.244	-2.39
268.46	-24.92
268.676	89.77
268.892	24.23
269.108	-26.96
269.324	50.86
269.54	-29.01
269.756	44.71
269.972	-59.73
270.188	-16.73
270.403	-67.92
270.619	46.76
270.835	-2.39
271.051	71.34
271.267	93.87
271.483	-8.53
271.698	50.86
271.914	18.09
272.13	44.71
272.346	-0.34
272.562	30.38
272.777	22.19
272.993	-4.44
273.209	67.24
273.425	-41.3
273.64	26.28
273.856	-37.2
274.072	28.33
274.287	28.33
274.503	-12.63
274.719	11.95
274.934	-29.01
275.15	-43.35
275.366	63.15
275.581	-14.68
275.797	-10.58
276.012	-53.59
276.228	59.05
276.444	22.19
276.659	-10.58
276.875	7.85
277.09	-41.3
277.306	28.33
277.521	5.8
277.737	57
277.952	-8.53
278.168	83.63
278.383	16.04
278.599	-43.35
278.814	77.48
279.03	-20.82
279.245	40.62
279.461	9.9
279.676	1.71
279.892	-51.54
280.107	89.77
280.322	-31.06
280.538	28.33
280.753	-8.53
280.969	-10.58
281.184	57
281.399	-14.68
281.615	24.23
281.83	-20.82
282.045	-67.92
282.26	-51.54
282.476	50.86
282.691	9.9
282.906	11.95
283.122	38.57
283.337	3.75
283.552	85.67
283.767	-4.44
283.983	36.52
284.198	34.47
284.413	-2.39
284.628	-35.16
284.843	-8.53
285.058	-22.87
285.274	36.52
285.489	-10.58
285.704	40.62
285.919	-18.77
286.134	7.85
286.349	87.72
286.564	28.33
286.779	32.43
286.995	-6.49
287.21	-12.63
287.425	26.28
287.64	65.19
287.855	79.53
288.07	13.99
288.285	32.43
288.5	52.91
288.715	-0.34
288.93	1.71
289.145	-2.39
289.36	-45.4
289.575	7.85
289.79	48.81
290.004	40.62
290.219	85.67
290.434	22.19
290.649	50.86
290.864	-20.82
291.079	-20.82
291.294	89.77
291.509	-4.44
291.724	34.47
291.938	34.47
292.153	36.52
292.368	-8.53
292.583	20.14
292.798	-67.92
293.012	73.39
293.227	-12.63
293.442	-26.96
293.657	-12.63
293.871	71.34
294.086	59.05
294.301	11.95
294.516	59.05
294.73	5.8
294.945	-4.44
295.16	-12.63
295.374	9.9
295.589	57
295.804	57
296.018	52.91
296.233	77.48
296.447	61.1
296.662	-2.39
296.877	-4.44
297.091	28.33
297.306	9.9
297.52	1.71
297.735	-37.2
297.949	-37.2
298.164	-8.53
298.378	-6.49
298.593	28.33
298.807	1.71
299.022	48.81
299.236	46.76
299.451	40.62
299.665	-8.53
299.88	-18.77
300.094	87.72
300.309	-39.25
300.523	-6.49
300.737	3.75
300.952	3.75
301.166	32.43
301.381	-12.63
301.595	95.91
301.809	9.9
302.024	54.95
302.238	38.57
302.452	77.48
302.667	-31.06
302.881	34.47
303.095	46.76
303.309	30.38
303.524	-4.44
303.738	95.91
303.952	16.04
304.166	-26.96
304.381	44.71
304.595	38.57
304.809	-12.63
305.023	52.91
305.237	38.57
305.452	36.52
305.666	18.09
305.88	-39.25
306.094	-37.2
306.308	77.48
306.522	24.23
306.736	3.75
306.95	63.15
307.164	18.09
307.379	34.47
307.593	36.52
307.807	13.99
308.021	89.77
308.235	28.33
308.449	3.75
308.663	-20.82
308.877	67.24
309.091	65.19
309.305	20.14
309.519	61.1
309.733	-18.77
309.947	-47.44
310.161	81.58
310.374	-63.83
310.588	108.2
310.802	38.57
311.016	18.09
311.23	93.87
311.444	3.75
311.658	-6.49
311.872	36.52
312.085	44.71
312.299	36.52
312.513	24.23
312.727	18.09
312.941	-39.25
313.154	-18.77
313.368	18.09
313.582	-41.3
313.796	126.63
314.009	40.62
314.223	3.75
314.437	44.71
314.651	65.19
314.864	81.58
315.078	104.11
315.292	65.19
315.505	40.62
315.719	-22.87
315.933	30.38
316.146	11.95
316.36	18.09
316.573	42.67
316.787	3.75
317.001	69.29
317.214	65.19
317.428	9.9
317.641	16.04
317.855	-8.53
318.068	110.25
318.282	42.67
318.495	13.99
318.709	30.38
318.922	54.95
319.136	67.24
319.349	38.57
319.563	-20.82
319.776	24.23
319.99	46.76
320.203	89.77
320.417	-29.01
320.63	-4.44
320.843	7.85
321.057	5.8
321.27	-33.11
321.483	28.33
321.697	11.95
321.91	-41.3
322.124	28.33
322.337	102.06
322.55	-0.34
322.763	79.53
322.977	-16.73
323.19	32.43
323.403	20.14
323.617	22.19
323.83	-12.63
324.043	-20.82
324.256	50.86
324.469	16.04
324.683	57
324.896	13.99
325.109	-39.25
325.322	-6.49
325.535	36.52
325.748	69.29
325.962	5.8
326.175	63.15
326.388	30.38
326.601	57
326.814	-6.49
327.027	46.76
327.24	71.34
327.453	-2.39
327.666	-45.4
327.879	38.57
328.092	28.33
328.305	44.71
328.518	7.85
328.731	13.99
328.944	100.01
329.157	20.14
329.37	16.04
329.583	-0.34
329.796	18.09
330.009	1.71
330.222	13.99
330.435	11.95
330.648	-20.82
330.861	5.8
331.073	16.04
331.286	30.38
331.499	-12.63
331.712	-88.4
331.925	71.34
332.138	3.75
332.35	54.95
332.563	-33.11
332.776	77.48
332.989	18.09
333.202	13.99
333.414	63.15
333.627	-20.82
333.84	-33.11
334.053	-49.49
334.265	-4.44
334.478	40.62
334.691	57
334.903	83.63
335.116	-14.68
335.329	67.24
335.541	71.34
335.754	22.19
335.966	16.04
336.179	48.81
336.392	-33.11
336.604	36.52
336.817	-33.11
337.029	38.57
337.242	57
337.454	75.43
337.667	-18.77
337.88	11.95
338.092	36.52
338.305	26.28
338.517	3.75
338.729	-2.39
338.942	9.9
339.154	24.23
339.367	-69.97
339.579	-4.44
339.792	7.85
340.004	-12.63
340.217	1.71
340.429	18.09
340.641	1.71
340.854	-49.49
341.066	18.09
341.278	124.58
341.491	116.39
341.703	73.39
341.915	65.19
342.128	54.95
342.34	-35.16
342.552	108.2
342.764	22.19
342.977	48.81
343.189	-2.39
343.401	-20.82
343.613	34.47
343.826	13.99
344.038	11.95
344.25	59.05
344.462	26.28
344.674	57
344.886	5.8
345.099	85.67
345.311	22.19
345.523	-6.49
345.735	18.09
345.947	13.99
346.159	38.57
346.371	73.39
346.583	-12.63
346.795	32.43
347.007	48.81
347.219	-18.77
347.431	59.05
347.643	36.52
347.855	54.95
348.067	5.8
348.279	-39.25
348.491	-10.58
348.703	77.48
348.915	44.71
349.127	69.29
349.339	1.71
349.551	1.71
349.763	7.85
349.975	13.99
350.187	95.91
350.399	112.3
350.61	85.67
350.822	-78.16
351.034	89.77
351.246	-29.01
351.458	77.48
351.669	-43.35
351.881	126.63
352.093	42.67
352.305	-4.44
352.517	11.95
352.728	36.52
352.94	91.82
353.152	32.43
353.363	16.04
353.575	69.29
353.787	52.91
353.999	75.43
354.21	24.23
354.422	36.52
354.633	59.05
354.845	-2.39
355.057	26.28
355.268	32.43
355.48	59.05
355.692	20.14
355.903	50.86
356.115	50.86
356.326	16.04
356.538	5.8
356.749	73.39
356.961	75.43
357.172	1.71
357.384	38.57
357.595	-26.96
357.807	-59.73
358.018	79.53
358.23	-22.87
358.441	22.19
358.653	34.47
358.864	-0.34
359.075	40.62
359.287	77.48
359.498	-2.39
359.709	-2.39
359.921	22.19
360.132	42.67
360.344	48.81
360.555	-37.2
360.766	24.23
360.977	-53.59
361.189	110.25
361.4	52.91
361.611	36.52
361.823	104.11
362.034	75.43
362.245	-8.53
362.456	126.63
362.667	-24.92
362.879	30.38
363.09	30.38
363.301	71.34
363.512	30.38
363.723	30.38
363.935	28.33
364.146	65.19
364.357	65.19
364.568	20.14
364.779	16.04
364.99	9.9
365.201	57
365.412	28.33
365.623	-31.06
365.834	22.19
366.045	30.38
366.256	48.81
366.467	24.23
366.678	34.47
366.889	30.38
367.1	79.53
367.311	-65.88
367.522	89.77
367.733	-51.54
367.944	5.8
368.155	-0.34
368.366	75.43
368.577	-29.01
368.788	36.52
368.999	-18.77
369.209	28.33
369.42	79.53
369.631	61.1
369.842	32.43
370.053	54.95
370.264	73.39
370.474	42.67
370.685	52.91
370.896	16.04
371.107	95.91
371.317	46.76
371.528	7.85
371.739	30.38
371.95	13.99
372.16	11.95
372.371	-37.2
372.582	22.19
372.792	118.44
373.003	77.48
373.214	38.57
373.424	77.48
373.635	54.95
373.846	13.99
374.056	9.9
374.267	59.05
374.477	-6.49
374.688	-37.2
374.898	7.85
375.109	26.28
375.319	40.62
375.53	-2.39
375.74	50.86
375.951	-2.39
376.161	24.23
376.372	63.15
376.582	-6.49
376.793	-0.34
377.003	-8.53
377.214	-45.4
377.424	-4.44
377.635	36.52
377.845	13.99
378.055	-14.68
378.266	16.04
378.476	106.15
378.686	30.38
378.897	52.91
379.107	95.91
379.317	-22.87
379.528	16.04
379.738	16.04
379.948	-39.25
380.158	57
380.369	-6.49
380.579	11.95
380.789	22.19
380.999	24.23
381.21	63.15
381.42	61.1
381.63	28.33
381.84	-20.82
382.05	-29.01
382.261	-4.44
382.471	65.19
382.681	20.14
382.891	9.9
383.101	-35.16
383.311	-10.58
383.521	20.14
383.731	54.95
383.941	20.14
384.151	-61.78
384.361	20.14
384.571	36.52
384.781	9.9
384.991	30.38
385.201	65.19
385.411	42.67
385.621	114.34
385.831	42.67
386.041	73.39
386.251	-18.77
386.461	77.48
386.671	-8.53
386.881	61.1
387.091	-2.39
387.301	-2.39
387.511	-14.68
387.72	48.81
387.93	149.16
388.14	32.43
388.35	20.14
388.56	73.39
388.769	42.67
388.979	13.99
389.189	-31.06
389.399	104.11
389.609	26.28
389.818	87.72
390.028	93.87
390.238	20.14
390.447	-53.59
390.657	42.67
390.867	36.52
391.076	-10.58
391.286	16.04
391.496	7.85
391.705	34.47
391.915	65.19
392.125	61.1
392.334	18.09
392.544	-6.49
392.753	85.67
392.963	-49.49
393.172	1.71
393.382	-53.59
393.591	38.57
393.801	38.57
394.01	79.53
394.22	73.39
394.429	50.86
394.639	50.86
394.848	3.75
395.058	28.33
395.267	97.96
395.477	28.33
395.686	24.23
395.895	-26.96
396.105	73.39
396.314	81.58
396.524	50.86
396.733	48.81
396.942	20.14
397.152	44.71
397.361	22.19
397.57	106.15
397.78	116.39
397.989	18.09
398.198	130.73
398.407	-29.01
398.617	34.47
398.826	20.14
399.035	-12.63
399.244	79.53
399.453	91.82
399.663	67.24
399.872	7.85
400.081	114.34
400.29	69.29
400.499	22.19
400.708	40.62
400.917	28.33
401.127	85.67
401.336	-6.49
401.545	138.92
401.754	38.57
401.963	95.91
402.172	79.53
402.381	65.19
402.59	83.63
402.799	100.01
403.008	81.58
403.217	81.58
403.426	22.19
403.635	22.19
403.844	83.63
404.053	85.67
404.262	-20.82
404.471	26.28
404.68	46.76
404.888	46.76
405.097	-16.73
405.306	79.53
405.515	65.19
405.724	3.75
405.933	102.06
406.142	-18.77
406.35	89.77
406.559	91.82
406.768	79.53
406.977	112.3
407.185	81.58
407.394	102.06
407.603	61.1
407.812	63.15
408.02	95.91
408.229	161.45
408.438	104.11
408.646	140.97
408.855	112.3
409.064	173.74
409.272	112.3
409.481	85.67
409.69	124.58
409.898	138.92
410.107	186.02
410.315	145.06
410.524	183.98
410.733	114.34
410.941	130.73
411.15	192.17
411.358	224.94
411.567	173.74
411.775	122.54
411.984	186.02
412.192	249.51
412.401	177.83
412.609	179.88
412.818	196.26
413.026	208.55
413.234	251.56
413.443	265.89
413.651	200.36
413.86	249.51
414.068	269.99
414.276	292.52
414.485	284.33
414.693	280.23
414.901	282.28
415.11	282.28
415.318	388.77
415.526	280.23
415.734	288.42
415.943	304.81
416.151	343.72
416.359	292.52
416.567	331.43
416.776	313
416.984	448.16
417.192	409.25
417.4	413.35
417.608	499.36
417.817	446.12
418.025	562.85
418.233	503.46
418.441	517.79
418.649	462.5
418.857	568.99
419.065	552.61
419.273	476.84
419.481	552.61
419.689	626.34
419.897	568.99
420.105	650.91
420.313	634.53
420.521	712.35
420.729	671.39
420.937	749.22
421.145	702.11
421.353	786.08
421.561	788.13
421.769	863.9
421.977	898.72
422.185	876.19
422.393	937.63
422.601	1001.12
422.809	921.24
423.017	915.1
423.224	976.54
423.432	999.07
423.64	1009.31
423.848	1152.67
424.056	1093.27
424.263	1158.81
424.471	1169.05
424.679	1275.54
424.887	1275.54
425.094	1210.01
425.302	1369.75
425.51	1336.98
425.718	1285.78
425.925	1433.24
426.133	1515.16
426.341	1554.07
426.548	1623.7
426.756	1670.8
426.964	1691.28
427.171	1681.04
427.379	1767.06
427.586	1838.73
427.794	1840.78
428.001	1973.9
428.209	2004.62
428.417	2051.72
428.624	2197.13
428.832	2104.97
429.039	2174.6
429.247	2117.26
429.454	2326.15
429.662	2375.3
429.869	2358.92
430.076	2522.76
430.284	2461.32
430.491	2653.83
430.699	2657.92
430.906	2664.07
431.114	2657.92
431.321	2881.15
431.528	2868.86
431.736	3040.89
431.943	3171.96
432.15	3143.29
432.358	3176.06
432.565	3399.29
432.772	3260.02
432.979	3444.34
433.187	3647.09
433.394	3423.86
433.601	3798.64
433.808	3864.18
434.016	3720.82
434.223	4001.39
434.43	4134.51
434.637	4146.8
434.844	4230.76
435.052	4353.64
435.259	4406.89
435.466	4478.57
435.673	4400.74
435.88	4810.34
436.087	5031.52
436.294	4965.98
436.501	4730.47
436.708	4873.82
436.915	5033.57
437.122	5314.14
437.329	5289.56
437.537	5527.13
437.743	5805.65
437.95	5584.47
438.157	5828.18
438.364	5946.96
438.571	5957.2
438.778	6225.48
438.985	6657.61
439.192	6213.2
439.399	6633.03
439.606	6532.68
439.813	6805.06
440.02	7323.19
440.227	7063.1
440.433	7188.03
440.64	7210.56
440.847	7167.55
441.054	7482.94
441.261	7691.83
441.467	7777.84
441.674	7986.74
441.881	8193.58
442.088	8025.65
442.294	8255.02
442.501	8269.36
442.708	8506.92
442.914	8810.02
443.121	9158.17
443.328	9195.04
443.534	9735.7
443.741	9276.96
443.948	9227.81
444.154	9881.11
444.361	9866.77
444.568	10237.45
444.774	9854.48
444.981	10034.71
445.187	10384.91
445.394	10833.41
445.6	10696.2
445.807	11630.07
446.013	11163.14
446.22	11468.28
446.426	11709.94
446.633	11959.8
446.839	12467.69
447.046	11908.6
447.252	12658.15
447.459	12574.19
447.665	12662.25
447.871	13188.58
448.078	13911.51
448.284	13202.91
448.491	13520.35
448.697	14015.96
448.903	14167.51
449.11	14360.02
449.316	14044.63
449.522	14464.46
449.728	14609.87
449.935	14790.09
450.141	14824.9
450.347	15125.96
450.553	14712.27
450.76	14955.97
450.966	15613.37
451.172	15158.72
451.378	15699.39
451.584	15144.39
451.791	15674.81
451.997	15785.4
452.203	16022.97
452.409	16076.21
452.615	15982.01
452.821	15302.08
453.027	15267.27
453.233	16184.76
453.44	15492.54
453.646	15807.93
453.852	15545.79
454.058	16151.99
454.264	15551.93
454.47	15738.3
454.676	15365.57
454.882	16164.28
455.088	14462.41
455.294	14790.09
455.5	15048.13
455.705	15222.21
455.911	14583.24
456.117	14321.1
456.323	14235.09
456.529	13563.36
456.735	14132.69
456.941	13692.38
457.147	13274.59
457.352	13084.13
457.558	12903.91
457.764	12836.33
457.97	12627.43
458.176	12441.07
458.381	12465.64
458.587	11818.49
458.793	11699.7
458.999	11109.89
459.204	12029.43
459.41	11755
459.616	10923.52
459.821	10903.04
460.027	10774.02
460.233	10450.44
460.438	10157.58
460.644	10118.67
460.85	9874.96
461.055	9578.01
461.261	9508.38
461.466	8853.03
461.672	8506.92
461.878	9244.19
462.083	8547.88
462.289	8492.59
462.494	8455.72
462.7	8027.7
462.905	7765.56
463.111	8220.21
463.316	8042.03
463.522	7806.52
463.727	8089.14
463.932	7740.98
464.138	7743.03
464.343	8017.46
464.549	7755.32
464.754	7851.57
464.959	7700.02
465.165	7843.38
465.37	7521.85
465.575	7241.28
465.781	7556.66
465.986	7593.53
466.191	7435.83
466.397	7243.32
466.602	6983.23
466.807	7188.03
467.012	7157.31
467.218	7175.74
467.423	6929.98
467.628	6934.08
467.833	7374.39
468.038	7136.83
468.244	6800.96
468.449	7104.06
468.654	6905.41
468.859	7071.29
469.064	6710.85
469.269	6606.41
469.474	6626.89
469.679	6667.84
469.885	6516.3
470.09	6504.01
470.295	6499.91
470.5	6559.3
470.705	6360.65
470.91	6372.94
471.115	6311.5
471.32	6254.16
471.525	6346.31
471.73	6305.35
471.935	5998.16
472.139	5856.85
472.344	6092.37
472.549	6043.21
472.754	5752.4
472.959	5781.07
473.164	5785.17
473.369	5684.82
473.574	5938.77
473.778	5688.92
473.983	5754.45
474.188	5701.2
474.393	5303.9
474.598	5588.57
474.802	5430.87
475.007	5400.15
475.212	5291.61
475.417	5221.98
475.621	5320.28
475.826	5230.17
476.031	5131.87
476.235	5183.07
476.44	5135.96
476.645	5109.34
476.849	5066.33
477.054	5008.99
477.259	5041.76
477.463	4984.41
477.668	4781.67
477.872	4771.43
478.077	4673.12
478.282	4507.24
478.486	4664.93
478.691	4664.93
478.895	4728.42
479.1	4572.77
479.304	4570.72
479.509	4431.46
479.713	4597.35
479.918	4402.79
480.122	4374.12
480.326	4257.39
480.531	4460.13
480.735	4318.82
480.94	4378.22
481.144	4464.23
481.348	4255.34
481.553	4396.65
481.757	4269.67
481.961	4206.19
482.166	4406.89
482.37	4163.18
482.574	4144.75
482.778	4212.33
482.983	4167.28
483.187	4216.43
483.391	4298.35
483.595	4275.82
483.8	4314.73
484.004	4290.15
484.208	4370.02
484.412	4263.53
484.616	4191.85
484.821	4402.79
485.025	4284.01
485.229	4257.39
485.433	4187.75
485.637	4384.36
485.841	4251.24
486.045	4357.74
486.249	4363.88
486.453	4230.76
486.657	4300.39
486.861	4386.41
487.065	4230.76
487.269	4355.69
487.473	4167.28
487.677	4320.87
487.881	4294.25
488.085	4306.54
488.289	4322.92
488.493	4275.82
488.697	4312.68
488.901	4355.69
489.105	4339.3
489.309	4392.55
489.512	4386.41
489.716	4404.84
489.92	4421.22
490.124	4472.42
490.328	4390.5
490.531	4402.79
490.735	4447.85
490.939	4472.42
491.143	4351.59
491.346	4333.16
491.55	4408.94
491.754	4468.33
491.958	4443.75
492.161	4626.02
492.365	4621.92
492.569	4585.06
492.772	4607.59
492.976	4574.82
493.18	4675.17
493.383	4658.79
493.587	4691.56
493.79	4658.79
493.994	4634.21
494.197	4804.19
494.401	4714.08
494.605	4820.58
494.808	5088.86
495.012	4990.56
495.215	4994.65
495.419	5082.72
495.622	4951.65
495.825	5221.98
496.029	5033.57
496.232	5215.84
496.436	5314.14
496.639	5428.82
496.843	5289.56
497.046	5412.44
497.249	5559.89
497.453	5490.26
497.656	5516.89
497.859	5613.14
498.063	5621.33
498.266	5852.75
498.469	5643.86
498.673	5719.64
498.876	5836.37
499.079	6133.33
499.282	6012.49
499.485	6067.79
499.689	6243.92
499.892	6340.17
500.095	6495.82
500.298	6391.37
500.501	6458.95
500.705	6725.19
500.908	6684.23
501.111	6807.11
501.314	6770.24
501.517	6944.32
501.72	6954.56
501.923	7024.19
502.126	7198.27
502.329	7163.45
502.532	7233.08
502.735	7335.48
502.938	7396.92
503.141	7456.31
503.344	7597.62
503.547	7788.08
503.75	7951.92
503.953	8080.94
504.156	8037.94
504.359	8097.33
504.562	8099.38
504.765	8289.84
504.968	8316.46
505.17	8482.35
505.373	8547.88
505.576	8744.49
505.779	8785.44
505.982	8738.34
506.185	8990.24
506.387	8986.15
506.59	9272.86
506.793	9322.01
506.996	9448.99
507.198	9756.18
507.401	9520.67
507.604	9852.44
507.807	10022.42
508.009	10188.3
508.212	10055.19
508.415	10434.06
508.617	10296.85
508.82	10401.29
509.022	10495.5
509.225	10847.75
509.428	10728.97
509.63	10735.11
509.833	10821.13
510.035	11120.13
510.238	11251.2
510.44	11585.02
510.643	11603.45
510.845	11730.42
511.048	11791.86
511.25	12066.29
511.453	11871.73
511.655	12424.69
511.858	12242.42
512.06	12066.29
512.262	12606.95
512.465	12613.1
512.667	12742.12
512.87	12930.53
513.072	13039.08
513.274	13252.06
513.477	13399.52
513.679	13723.1
513.881	13626.84
514.084	13577.69
514.286	14009.81
514.488	13944.28
514.69	14255.57
514.893	14470.61
515.095	14570.96
515.297	14603.72
515.499	14808.52
515.701	14847.43
515.904	14921.16
516.106	15476.16
516.308	15453.63
516.51	15773.11
516.712	15820.22
516.914	16014.77
517.116	16178.61
517.318	16395.7
517.52	16223.67
517.722	16266.67
517.925	16537.01
518.127	16977.32
518.329	17075.62
518.531	16979.37
518.733	17307.04
518.935	17462.69
519.136	17386.91
519.338	17470.88
519.54	17599.9
519.742	17903
519.944	18134.42
520.146	18744.72
520.348	18462.1
520.55	18648.46
520.752	18541.97
520.954	19013
521.155	18916.75
521.357	19113.35
521.559	19271.04
521.761	19862.91
521.963	19649.92
522.164	19719.55
522.366	19924.35
522.568	20274.55
522.77	20329.84
522.971	20649.33
523.173	20176.25
523.375	20491.63
523.576	20637.04
523.778	20649.33
523.98	20864.36
524.181	21204.33
524.383	21157.22
524.584	21265.77
524.786	21413.22
524.988	21224.81
525.189	21474.66
525.391	21753.18
525.592	22076.76
525.794	22033.75
525.995	22377.81
526.197	22021.47
526.398	22072.67
526.6	22500.69
526.801	22484.31
527.003	22519.12
527.204	22736.21
527.406	22680.91
527.607	22766.93
527.808	22889.81
528.01	22830.41
528.211	22920.52
528.412	23571.78
528.614	23219.53
528.815	23401.8
529.016	23678.27
529.218	23457.09
529.419	23606.59
529.62	23342.41
529.822	23371.08
530.023	23518.53
530.224	23530.82
530.425	23563.59
530.626	23682.37
530.828	23807.3
531.029	24333.62
531.23	23792.96
531.431	23522.63
531.632	23752
531.833	24048.96
532.035	24094.01
532.236	24081.72
532.437	24175.93
532.638	23936.32
532.839	24145.21
533.04	23991.61
533.241	23801.15
533.442	24257.85
533.643	24141.11
533.844	24139.07
534.045	24456.5
534.246	24388.92
534.447	24315.19
534.648	24118.59
534.849	24165.69
535.05	24149.31
535.251	24313.14
535.451	24376.63
535.652	24606
535.853	24263.99
536.054	24474.93
536.255	24464.69
536.456	24149.31
536.657	24552.76
536.857	24327.48
537.058	24542.52
537.259	24526.13
537.46	24532.28
537.66	24364.34
537.861	24407.35
538.062	24223.03
538.263	24583.48
538.463	24358.2
538.664	24083.77
538.865	24479.03
539.065	24589.62
539.266	24192.31
539.466	24417.59
539.667	24245.56
539.868	24913.2
540.068	24421.69
540.269	24569.14
540.469	24689.97
540.67	24341.82
540.87	24362.29
541.071	24698.16
541.271	24612.15
541.472	24481.08
541.672	24384.82
541.873	24425.78
542.073	23874.88
542.274	24255.8
542.474	24282.42
542.675	24122.68
542.875	24603.96
543.075	24429.88
543.276	24190.27
543.476	24696.11
543.676	24393.01
543.877	24624.43
544.077	24524.08
544.277	24128.83
544.478	24450.36
544.678	24243.51
544.878	24487.22
545.078	24325.43
545.279	24368.44
545.479	24077.63
545.679	24378.68
545.879	24350.01
546.079	24560.95
546.28	24116.54
546.48	24227.13
546.68	24130.87
546.88	24220.99
547.08	24446.26
547.28	24331.58
547.48	24370.49
547.68	24440.12
547.88	24014.14
548.081	24317.24
548.281	24182.07
548.481	24227.13
548.681	24296.76
548.881	24171.83
549.081	24233.27
549.28	23936.32
549.48	24255.8
549.68	24126.78
549.88	24530.23
550.08	24317.24
550.28	24141.11
550.48	24005.95
550.68	24208.7
550.88	24173.88
551.08	24321.34
551.279	24079.68
551.479	24059.2
551.679	24350.01
551.879	23821.63
552.079	24372.53
552.278	23948.61
552.478	24106.3
552.678	24010.04
552.878	24423.73
553.077	24407.35
553.277	23887.17
553.477	24460.6
553.676	24075.58
553.876	24198.46
554.076	24126.78
554.275	24077.63
554.475	23547.2
554.674	23921.98
554.874	23985.47
555.074	23721.28
555.273	24149.31
555.473	24108.35
555.672	23901.5
555.872	23883.07
556.071	23835.97
556.271	23706.94
556.47	23876.93
556.67	23532.87
556.869	23848.25
557.068	23530.82
557.268	23618.88
557.467	23526.72
557.667	23631.17
557.866	23760.19
558.065	23549.25
558.265	23713.09
558.464	23440.71
558.663	23625.03
558.863	23461.19
559.062	23901.5
559.261	23299.4
559.461	23661.89
559.66	23203.14
559.859	23194.95
560.058	23448.9
560.258	23168.33
560.457	23055.69
560.656	23299.4
560.855	23381.32
561.054	23475.52
561.253	23055.69
561.453	23444.8
561.652	22965.58
561.851	23096.65
562.05	23006.54
562.249	22801.74
562.448	23088.46
562.647	23158.09
562.846	23266.63
563.045	23166.28
563.244	23080.27
563.443	22988.11
563.642	22396.24
563.841	22695.25
564.04	22701.39
564.239	22955.34
564.438	22621.52
564.637	22605.14
564.836	22750.54
565.035	22191.45
565.234	22531.41
565.432	22564.18
565.631	22390.1
565.83	22439.25
566.029	22142.3
566.228	22164.82
566.427	22052.19
566.625	21781.85
566.824	22031.71
567.023	22273.37
567.222	21771.61
567.42	22095.19
567.619	21986.65
567.818	21835.1
568.016	21851.49
568.215	22093.15
568.414	21853.53
568.612	21955.93
568.811	21972.32
569.01	21519.71
569.208	21441.89
569.407	21923.16
569.605	21429.6
569.804	21622.11
570.002	21327.21
570.201	21458.28
570.4	21431.65
570.598	21286.25
570.797	21095.78
570.995	21511.52
571.193	21032.3
571.392	21476.71
571.59	20886.89
571.789	21396.84
571.987	20761.97
572.186	21101.93
572.384	20696.43
572.582	20727.15
572.781	20737.39
572.979	20585.84
573.177	20696.43
573.376	20796.78
573.574	20528.5
573.772	20508.02
573.971	20170.1
574.169	20391.28
574.367	20227.45
574.565	20401.52
574.763	20125.05
574.962	20213.11
575.16	20333.94
575.358	20215.16
575.556	20133.24
575.754	20292.98
575.952	19883.39
576.151	20170.1
576.349	19795.32
576.547	19813.76
576.745	20039.03
576.943	19963.26
577.141	19586.43
577.339	19574.14
577.537	19420.55
577.735	19547.52
577.933	19301.76
578.131	19596.67
578.329	19395.97
578.527	19127.69
578.725	19189.13
578.923	19463.55
579.121	19178.89
579.319	19172.74
579.516	19320.2
579.714	19064.2
579.912	19203.46
580.11	18953.61
580.308	18941.32
580.506	18718.09
580.704	18488.72
580.901	18607.5
581.099	18896.27
581.297	18679.18
581.495	18574.74
581.692	18847.12
581.89	18533.78
582.088	18458
582.285	18322.84
582.483	18290.07
582.681	18437.52
582.878	18140.57
583.076	17964.44
583.274	18443.67
583.471	18087.32
583.669	18138.52
583.866	18214.29
584.064	18283.92
584.262	18017.69
584.459	18011.54
584.657	17929.63
584.854	18021.78
585.052	17530.27
585.249	17599.9
585.447	17864.09
585.644	17675.68
585.841	17423.78
586.039	17837.47
586.236	17384.87
586.434	17284.51
586.631	17372.58
586.828	17257.89
587.026	17169.83
587.223	17061.29
587.42	17098.15
587.618	16944.55
587.815	17092.01
588.012	17046.95
588.21	16643.5
588.407	16829.87
588.604	16809.39
588.801	16711.08
588.999	16731.56
589.196	16571.82
589.393	16776.62
589.59	16811.43
589.787	16618.93
589.984	16569.77
590.182	16481.71
590.379	16563.63
590.576	16180.66
590.773	16373.17
590.97	16356.79
591.167	16264.63
591.364	16037.3
591.561	16459.18
591.758	16195
591.955	16016.82
592.152	16287.15
592.349	15961.53
592.546	16192.95
592.743	15939
592.94	15625.66
593.137	15828.41
593.334	15984.05
593.531	15611.32
593.727	15576.51
593.924	15701.44
594.121	15504.83
594.318	15607.23
594.515	15476.16
594.712	15764.92
594.908	15400.38
595.105	15439.3
595.302	15293.89
595.499	15220.16
595.696	15125.96
595.892	15027.65
596.089	15164.87
596.286	15273.41
596.482	15068.61
596.679	14988.74
596.876	15185.35
597.072	14792.14
597.269	15148.48
597.466	14609.87
597.662	14833.1
597.859	14941.64
598.055	14613.96
598.252	14480.85
598.448	14669.26
598.645	14534.09
598.841	14468.56
599.038	14579.15
599.234	14699.98
599.431	14388.69
599.627	14140.88
599.824	14626.25
600.02	14300.62
600.217	14425.55
600.413	14194.13
600.609	14331.34
600.806	14151.12
601.002	14122.45
601.198	13915.61
601.395	14194.13
601.591	13856.22
601.787	14052.82
601.984	13813.21
602.18	14192.08
602.376	13739.48
602.572	13915.61
602.769	13827.54
602.965	13725.15
603.161	13626.84
603.357	13606.36
603.553	13569.5
603.75	13589.98
603.946	13301.22
604.142	13497.82
604.338	13221.34
604.534	13407.71
604.73	13065.7
604.926	13170.15
605.122	13139.43
605.318	13231.58
605.514	13157.86
605.71	12979.68
605.906	12897.77
606.102	13022.69
606.298	13213.15
606.494	12983.78
606.69	12948.97
606.886	12869.09
607.082	12905.96
607.278	13159.91
607.474	12705.26
607.67	13057.51
607.866	12770.79
608.062	12998.12
608.257	12766.7
608.453	12766.7
608.649	12760.55
608.845	12658.15
609.041	12664.3
609.236	12703.21
609.432	12594.67
609.628	12506.6
609.824	12611.05
610.019	12256.75
610.215	12254.7
610.411	12600.81
610.606	12471.79
610.802	12330.48
610.998	12125.68
611.193	12228.08
611.389	12205.55
611.584	12076.53
611.78	12103.15
611.976	12131.83
612.171	12332.53
612.367	12068.34
612.562	11984.37
612.758	11730.42
612.953	11861.49
613.149	12166.64
613.344	11939.32
613.539	12144.11
613.735	11869.69
613.93	12086.77
614.126	11910.64
614.321	11967.99
614.517	12002.8
614.712	11961.84
614.907	11816.44
615.103	11718.14
615.298	11654.65
615.493	11800.05
615.688	11456
615.884	11838.97
616.079	11425.28
616.274	11607.55
616.47	11752.95
616.665	11707.9
616.86	11548.15
617.055	11402.75
617.25	11163.14
617.445	11591.16
617.641	11464.19
617.836	11509.24
618.031	11054.59
618.226	11326.97
618.421	11374.08
618.616	11267.58
618.811	10976.77
619.006	11281.92
619.201	11023.87
619.396	11222.53
619.591	10993.15
619.786	11060.74
619.981	10927.62
620.176	10898.95
620.371	10612.23
620.566	10810.89
620.761	10694.15
620.956	10804.74
621.151	10534.41
621.346	10720.78
621.541	10530.31
621.735	10571.27
621.93	10378.76
622.125	10497.55
622.32	10237.45
622.515	10501.64
622.709	10440.2
622.904	10272.27
623.099	10329.61
623.294	10194.45
623.488	10112.53
623.683	10022.42
623.878	9862.68
624.072	9803.29
624.267	9788.95
624.462	9924.12
624.656	9797.14
624.851	9623.06
625.046	9618.97
625.24	9604.63
625.435	9487.9
625.629	9461.27
625.824	9475.61
626.018	9455.13
626.213	9145.89
626.407	9289.24
626.602	9156.13
626.796	9244.19
626.991	9301.53
627.185	9190.94
627.38	8996.39
627.574	9025.06
627.768	8990.24
627.963	8832.55
628.157	8816.16
628.352	8869.41
628.546	8746.53
628.74	8959.52
628.935	8803.88
629.129	8584.74
629.323	8705.57
629.517	8738.34
629.712	8531.5
629.906	8468.01
630.1	8349.23
630.294	8433.19
630.489	8320.56
630.683	8322.6
630.877	8171.05
631.071	8109.61
631.265	8357.42
631.459	8019.5
631.653	7986.74
631.848	8150.57
632.042	8017.46
632.236	7949.87
632.43	7980.59
632.624	7845.43
632.818	7857.71
633.012	7636.53
633.206	7861.81
633.4	7751.22
633.594	7599.67
633.788	7583.29
633.982	7657.01
634.176	7542.33
634.369	7353.91
634.563	7562.81
634.757	7493.18
634.951	7661.11
635.145	7345.72
635.339	7216.7
635.533	7310.91
635.726	7368.25
635.92	7116.35
636.114	7298.62
636.308	7063.1
636.501	7257.66
636.695	7130.69
636.889	6878.79
637.083	7153.21
637.276	6833.73
637.47	6891.07
637.664	6864.45
637.857	6848.07
638.051	6831.68
638.244	6796.87
638.438	6843.97
638.632	6739.52
638.825	6641.22
639.019	6622.79
639.212	6417.99
639.406	6524.49
639.599	6532.68
639.793	6555.21
639.986	6438.47
640.18	6360.65
640.373	6471.24
640.567	6297.16
640.76	6512.2
640.954	6209.1
641.147	6235.72
641.34	6207.05
641.534	6319.69
641.727	6127.18
641.92	6159.95
642.114	6256.2
642.307	5973.58
642.5	6053.45
642.694	5963.34
642.887	5885.52
643.08	5887.57
643.273	6018.64
643.467	5819.99
643.66	5877.33
643.853	5799.51
644.046	5733.97
644.239	5600.85
644.432	5576.28
644.626	5586.52
644.819	5551.7
645.012	5471.83
645.205	5525.08
645.398	5437.02
645.591	5535.32
645.784	5422.68
645.977	5496.41
646.17	5328.47
646.363	5289.56
646.556	5228.12
646.749	5213.79
646.942	5195.36
647.135	5234.27
647.328	5207.64
647.521	5187.16
647.714	5033.57
647.907	5256.79
648.099	5078.62
648.292	5150.3
648.485	4929.12
648.678	4982.37
648.871	5000.8
649.064	4970.08
649.256	4949.6
649.449	4832.86
649.642	4894.3
649.835	4732.51
650.027	4853.34
650.22	4755.04
650.413	4697.7
650.605	4722.27
650.798	4642.4
650.991	4707.94
651.183	4601.44
651.376	4501.09
651.568	4417.13
651.761	4531.81
651.954	4548.2
652.146	4566.63
652.339	4552.29
652.531	4511.33
652.724	4546.15
652.916	4253.29
653.109	4298.35
653.301	4492.9
653.494	4210.28
653.686	4226.67
653.879	4410.98
654.071	4206.19
654.263	4286.06
654.456	4318.82
654.648	4281.96
654.84	4212.33
655.033	4134.51
655.225	4048.49
655.417	4118.12
655.61	4085.36
655.802	4109.93
655.994	4103.79
656.186	3931.76
656.379	3901.04
656.571	3956.33
656.763	3939.95
656.955	3722.87
657.148	3802.74
657.34	3896.94
657.532	3792.5
657.724	3845.74
657.916	3743.35
658.108	3726.96
658.3	3886.7
658.492	3665.52
658.684	3722.87
658.876	3589.75
659.068	3755.63
659.26	3630.71
659.452	3722.87
659.644	3661.43
659.836	3649.14
660.028	3624.56
660.22	3460.73
660.412	3567.22
660.604	3530.36
660.796	3520.12
660.988	3499.64
661.18	3403.38
661.372	3473.01
661.563	3411.57
661.755	3440.25
661.947	3513.97
662.139	3272.31
662.331	3272.31
662.522	3348.09
662.714	3436.15
662.906	3190.39
663.097	3354.23
663.289	3221.11
663.481	3178.11
663.673	3278.46
663.864	3167.87
664.056	3014.27
664.247	3124.86
664.439	3073.66
664.631	3188.35
664.822	3139.19
665.014	3075.71
665.205	3036.8
665.397	2920.06
665.588	3001.98
665.78	3053.18
665.971	2963.07
666.163	2977.41
666.354	2952.83
666.546	2999.93
666.737	2920.06
666.929	2895.49
667.12	2979.45
667.311	2924.16
667.503	2897.53
667.694	2895.49
667.885	2877.05
668.077	2827.9
668.268	2848.38
668.459	2852.48
668.651	2862.72
668.842	2666.11
669.033	2883.2
669.224	2737.79
669.416	2815.62
669.607	2659.97
669.798	2791.04
669.989	2750.08
670.18	2725.51
670.371	2700.93
670.563	2668.16
670.754	2580.1
670.945	2553.48
671.136	2649.73
671.327	2455.17
671.518	2604.67
671.709	2655.87
671.9	2619.01
672.091	2682.5
672.282	2453.13
672.473	2526.85
672.664	2569.86
672.855	2578.05
673.046	2596.48
673.237	2453.13
673.428	2432.65
673.619	2535.04
673.809	2395.78
674	2510.47
674.191	2506.37
674.382	2367.11
674.573	2496.13
674.764	2424.45
674.954	2467.46
675.145	2403.97
675.336	2434.69
675.527	2389.64
675.717	2475.65
675.908	2369.16
676.099	2313.86
676.289	2397.83
676.48	2344.58
676.671	2330.25
676.861	2406.02
677.052	2317.96
677.243	2340.49
677.433	2342.53
677.624	2287.24
677.814	2311.82
678.005	2252.42
678.195	2387.59
678.386	2354.82
678.576	2295.43
678.767	2283.14
678.957	2264.71
679.148	2324.1
679.338	2186.89
679.529	2420.36
679.719	2268.81
679.909	2236.04
680.1	2207.37
680.29	2268.81
680.481	2264.71
680.671	2184.84
680.861	2201.23
681.052	2195.08
681.242	2221.7
681.432	2201.23
681.622	2197.13
681.813	2162.31
682.003	2373.25
682.193	1982.09
682.383	2219.66
682.573	2223.75
682.764	2139.79
682.954	2162.31
683.144	2190.99
683.334	2213.51
683.524	2190.99
683.714	2307.72
683.904	2201.23
684.094	2104.97
684.284	2125.45
684.474	2158.22
684.664	2123.4
684.854	2307.72
685.044	2068.11
685.234	2113.16
685.424	2152.07
685.614	2066.06
685.804	2201.23
685.994	2193.03
686.184	2131.59
686.374	2166.41
686.564	2053.77
686.753	2104.97
686.943	2096.78
687.133	2072.2
687.323	2104.97
687.513	2025.1
687.702	2061.96
687.892	2078.35
688.082	2018.96
688.272	2088.59
688.461	1984.14
688.651	2066.06
688.841	2098.83
689.03	1963.66
689.22	2035.34
689.41	2076.3
689.599	2076.3
689.789	2037.39
689.979	1957.52
690.168	2080.39
690.358	1963.66
690.547	1988.24
690.737	2084.49
690.926	1951.37
691.116	2031.24
691.305	1900.17
691.495	1980.04
691.684	1965.71
691.874	1961.61
692.063	2100.87
692.252	1840.78
692.442	2008.72
692.631	1937.04
692.82	2049.68
693.01	2000.52
693.199	1939.09
693.388	1980.04
693.578	1900.17
693.767	1877.65
693.956	1973.9
694.146	1865.36
694.335	1834.64
694.524	1990.28
694.713	1922.7
694.902	1838.73
695.092	1912.46
695.281	1918.61
695.47	1900.17
695.659	1900.17
695.848	1785.49
696.037	1885.84
696.226	1799.82
696.415	1978
696.604	1846.93
696.793	1758.86
696.982	1908.37
697.171	1851.02
697.36	1902.22
697.549	1896.08
697.738	1748.62
697.927	1865.36
698.116	1945.23
698.305	1916.56
698.494	1894.03
698.683	1758.86
698.872	1869.45
699.061	1771.15
699.25	1797.78
699.438	1722
699.627	1781.39
699.816	1865.36
700.005	1748.62
700.193	1736.34
700.382	1777.3
700.571	1808.02
700.76	1816.21
700.948	1803.92
701.137	1826.45
701.326	1793.68
701.514	1689.23
701.703	1793.68
701.892	1705.62
702.08	1687.18
702.269	1748.62
702.457	1613.46
702.646	1724.05
702.834	1722
703.023	1762.96
703.212	1650.32
703.4	1838.73
703.589	1740.43
703.777	1738.38
703.965	1695.38
704.154	1769.1
704.342	1674.9
704.531	1758.86
704.719	1691.28
704.907	1666.71
705.096	1728.14
705.284	1732.24
705.472	1681.04
705.661	1674.9
705.849	1699.47
706.037	1629.84
706.226	1619.6
706.414	1703.57
706.602	1654.42
706.79	1597.07
706.979	1629.84
707.167	1623.7
707.355	1742.48
707.543	1621.65
707.731	1683.09
707.919	1648.27
708.107	1566.35
708.296	1676.95
708.484	1627.79
708.672	1615.51
708.86	1609.36
709.048	1621.65
709.236	1615.51
709.424	1476.24
709.612	1642.13
709.8	1615.51
709.988	1453.72
710.176	1654.42
710.364	1670.8
710.551	1523.35
710.739	1531.54
710.927	1521.3
711.115	1601.17
711.303	1564.31
711.491	1529.49
711.679	1474.2
711.866	1545.88
712.054	1500.82
712.242	1488.53
712.43	1527.44
712.617	1435.28
712.805	1457.81
712.993	1416.85
713.181	1451.67
713.368	1472.15
713.556	1517.2
713.744	1445.52
713.931	1490.58
714.119	1363.61
714.306	1490.58
714.494	1404.57
714.682	1382.04
714.869	1490.58
715.057	1425.04
715.244	1496.72
715.432	1416.85
715.619	1437.33
715.807	1521.3
715.994	1486.48
716.182	1463.96
716.369	1453.72
716.556	1480.34
716.744	1406.61
716.931	1402.52
717.119	1468.05
717.306	1396.37
717.493	1398.42
717.681	1363.61
717.868	1373.85
718.055	1379.99
718.242	1357.46
718.43	1379.99
718.617	1396.37
718.804	1330.84
718.991	1355.41
719.179	1349.27
719.366	1355.41
719.553	1435.28
719.74	1300.12
719.927	1275.54
720.114	1396.37
720.301	1336.98
720.488	1312.41
720.676	1324.69
720.863	1388.18
721.05	1304.21
721.237	1339.03
721.424	1273.5
721.611	1379.99
721.798	1306.26
721.985	1373.85
722.172	1234.58
722.358	1273.5
722.545	1410.71
722.732	1287.83
722.919	1293.97
723.106	1248.92
723.293	1232.54
723.48	1216.15
723.667	1269.4
723.853	1275.54
724.04	1277.59
724.227	1298.07
724.414	1298.07
724.6	1287.83
724.787	1261.21
724.974	1355.41
725.161	1191.58
725.347	1304.21
725.534	1232.54
725.72	1269.4
725.907	1257.11
726.094	1343.13
726.28	1189.53
726.467	1195.67
726.653	1228.44
726.84	1275.54
727.027	1316.5
727.213	1306.26
727.4	1263.26
727.586	1228.44
727.773	1144.47
727.959	1257.11
728.145	1224.34
728.332	1134.23
728.518	1234.58
728.705	1250.97
728.891	1150.62
729.077	1230.49
729.264	1195.67
729.45	1156.76
729.636	1158.81
729.823	1218.2
730.009	1230.49
730.195	1203.86
730.382	1246.87
730.568	1232.54
730.754	1259.16
730.94	1156.76
731.126	1207.96
731.313	1152.67
731.499	1158.81
731.685	1142.43
731.871	1265.3
732.057	1152.67
732.243	1277.59
732.429	1193.62
732.615	1205.91
732.801	1199.77
732.987	1183.38
733.173	1212.06
733.359	1154.71
733.545	1111.71
733.731	1236.63
733.917	1134.23
734.103	1142.43
734.289	1193.62
734.475	1250.97
734.661	1160.86
734.847	1109.66
735.033	1167
735.219	1160.86
735.404	1162.9
735.59	1144.47
735.776	1195.67
735.962	1177.24
736.148	1128.09
736.333	1003.16
736.519	1107.61
736.705	1162.9
736.89	1099.42
737.076	1119.9
737.262	1072.79
737.447	1175.19
737.633	1128.09
737.819	1103.51
738.004	1093.27
738.19	1052.31
738.375	1066.65
738.561	1085.08
738.747	1093.27
738.932	1158.81
739.118	1224.34
739.303	1103.51
739.489	1066.65
739.674	1152.67
739.859	1040.03
740.045	1050.27
740.23	1042.07
740.416	1040.03
740.601	1103.51
740.786	1035.93
740.972	1052.31
741.157	1087.13
741.342	1054.36
741.528	1097.37
741.713	992.92
741.898	1019.55
742.084	1042.07
742.269	1050.27
742.454	1031.83
742.639	1003.16
742.824	1052.31
743.01	1007.26
743.195	1052.31
743.38	954.01
743.565	980.64
743.75	1019.55
743.935	1033.88
744.12	1048.22
744.305	1060.51
744.49	919.2
744.675	1048.22
744.86	980.64
745.045	1056.41
745.23	964.25
745.415	1007.26
745.6	954.01
745.785	954.01
745.97	968.35
746.155	933.53
746.34	876.19
746.525	880.29
746.71	904.86
746.895	951.96
747.079	849.57
747.264	911
747.449	900.76
747.634	937.63
747.819	954.01
748.003	870.05
748.188	849.57
748.373	845.47
748.557	777.89
748.742	951.96
748.927	841.37
749.111	816.8
749.296	855.71
749.481	878.24
749.665	849.57
749.85	808.61
750.034	784.03
750.219	724.64
750.404	925.34
750.588	765.6
750.773	816.8
750.957	835.23
751.141	886.43
751.326	751.26
751.51	745.12
751.695	845.47
751.879	736.93
752.064	818.85
752.248	773.79
752.432	747.17
752.617	691.87
752.801	777.89
752.985	753.31
753.17	839.33
753.354	757.41
753.538	769.69
753.722	767.65
753.907	761.5
754.091	800.41
754.275	800.41
754.459	691.87
754.643	763.55
754.828	691.87
755.012	681.63
755.196	642.72
755.38	632.48
755.564	663.2
755.748	734.88
755.932	753.31
756.116	636.58
756.3	634.53
756.484	644.77
756.668	675.49
756.852	626.34
757.036	673.44
757.22	669.34
757.404	632.48
757.588	601.76
757.772	689.82
757.956	655.01
758.14	659.1
758.323	612
758.507	595.62
758.691	583.33
758.875	646.82
759.059	612
759.242	599.71
759.426	595.62
759.61	716.45
759.794	634.53
759.977	605.86
760.161	542.37
760.345	566.95
760.528	589.47
760.712	546.47
760.895	550.56
761.079	573.09
761.263	593.57
761.446	528.03
761.63	540.32
761.813	491.17
761.997	585.38
762.18	616.1
762.364	503.46
762.547	497.32
762.731	513.7
762.914	544.42
763.098	528.03
763.281	609.95
763.464	558.75
763.648	552.61
763.831	519.84
764.015	552.61
764.198	571.04
764.381	503.46
764.564	573.09
764.748	437.92
764.931	536.23
765.114	507.55
765.297	542.37
765.481	497.32
765.664	546.47
765.847	472.74
766.03	546.47
766.213	509.6
766.397	499.36
766.58	464.55
766.763	450.21
766.946	435.88
767.129	556.71
767.312	472.74
767.495	439.97
767.678	485.03
767.861	482.98
768.044	429.73
768.227	396.96
768.41	499.36
768.593	425.64
768.776	517.79
768.959	548.51
769.142	454.31
769.324	458.4
769.507	364.2
769.69	429.73
769.873	319.14
770.056	521.89
770.239	417.44
770.421	448.16
770.604	429.73
770.787	401.06
770.97	546.47
771.152	482.98
771.335	421.54
771.518	485.03
771.7	392.87
771.883	366.25
772.066	421.54
772.248	388.77
772.431	489.12
772.613	501.41
772.796	409.25
772.978	421.54
773.161	509.6
773.343	390.82
773.526	366.25
773.708	439.97
773.891	313
774.073	423.59
774.256	415.4
774.438	403.11
774.621	403.11
774.803	419.49
774.985	433.83
775.168	423.59
775.35	386.72
775.532	450.21
775.715	386.72
775.897	364.2
776.079	339.62
776.261	409.25
776.444	298.66
776.626	372.39
776.808	425.64
776.99	415.4
777.173	378.53
777.355	300.71
777.537	310.95
777.719	343.72
777.901	442.02
778.083	304.81
778.265	349.86
778.447	308.9
778.629	378.53
778.811	401.06
778.993	396.96
779.175	356.01
779.357	327.33
779.539	282.28
779.721	345.77
779.903	315.05
780.085	284.33
780.267	310.95
780.449	302.76
780.631	280.23
780.812	272.04
780.994	306.85
781.176	341.67
781.358	308.9
781.54	290.47
781.721	335.53
781.903	329.38
782.085	292.52
782.267	276.13
782.448	255.65
782.63	306.85
782.812	226.98
782.993	282.28
783.175	327.33
783.357	239.27
783.538	243.37
783.72	272.04
783.901	288.42
784.083	310.95
784.264	335.53
784.446	253.61
784.627	261.8
784.809	245.41
784.99	331.43
785.172	343.72
785.353	284.33
785.535	245.41
785.716	265.89
785.897	218.79
786.079	224.94
786.26	235.18
786.441	212.65
786.623	202.41
786.804	245.41
786.985	239.27
787.167	265.89
787.348	224.94
787.529	255.65
787.71	247.46
787.891	224.94
788.073	183.98
788.254	276.13
788.435	198.31
788.616	183.98
788.797	165.54
788.978	210.6
789.159	175.78
789.34	202.41
789.522	110.25
789.703	181.93
789.884	218.79
790.065	224.94
790.246	206.5
790.427	210.6
790.607	212.65
790.788	186.02
790.969	229.03
791.15	169.64
791.331	175.78
791.512	263.85
791.693	200.36
791.874	175.78
792.054	212.65
792.235	159.4
792.416	153.26
792.597	208.55
792.778	120.49
792.958	188.07
793.139	222.89
793.32	200.36
793.5	212.65
793.681	173.74
793.862	167.59
794.042	208.55
794.223	132.78
794.404	151.21
794.584	120.49
794.765	167.59
794.945	169.64
795.126	192.17
795.306	229.03
795.487	122.54
795.667	130.73
795.848	163.5
796.028	153.26
796.209	151.21
796.389	110.25
796.57	153.26
796.75	147.11
796.93	73.39
797.111	177.83
797.291	102.06
797.471	233.13
797.652	183.98
797.832	159.4
798.012	190.12
798.192	87.72
798.373	145.06
798.553	155.3
798.733	210.6
798.913	102.06
799.093	218.79
799.274	218.79
799.454	140.97
799.634	237.22
799.814	161.45
799.994	126.63
800.174	216.74
800.354	120.49
800.534	126.63
800.714	177.83
800.894	79.53
801.074	171.69
801.254	145.06
801.434	155.3
801.614	91.82
801.794	145.06
801.974	265.89
802.154	167.59
802.334	147.11
802.514	34.47
802.693	177.83
802.873	102.06
803.053	83.63
803.233	155.3
803.413	124.58
803.592	110.25
803.772	52.91
803.952	63.15
804.131	95.91
804.311	38.57
804.491	114.34
804.67	128.68
804.85	130.73
805.03	200.36
805.209	177.83
805.389	83.63
805.568	114.34
805.748	122.54
805.928	77.48
806.107	132.78
806.287	153.26
806.466	106.15
806.646	110.25
806.825	13.99
807.004	122.54
807.184	57
807.363	110.25
807.543	167.59
807.722	95.91
807.901	102.06
808.081	57
808.26	89.77
808.439	97.96
808.619	106.15
808.798	149.16
808.977	44.71
809.156	93.87
809.336	120.49
809.515	118.44
809.694	83.63
809.873	79.53
810.052	16.04
810.231	93.87
810.411	85.67
810.59	50.86
810.769	26.28
810.948	100.01
811.127	38.57
811.306	65.19
811.485	104.11
811.664	122.54
811.843	167.59
812.022	138.92
812.201	30.38
812.38	102.06
812.559	126.63
812.737	69.29
812.916	85.67
813.095	65.19
813.274	67.24
813.453	104.11
813.632	95.91
813.811	167.59
813.989	87.72
814.168	83.63
814.347	54.95
814.526	124.58
814.704	116.39
814.883	91.82
815.062	91.82
815.24	1.71
815.419	42.67
815.598	44.71
815.776	79.53
815.955	79.53
816.133	83.63
816.312	85.67
816.49	75.43
816.669	54.95
816.847	57
817.026	120.49
817.204	67.24
817.383	3.75
817.561	104.11
817.74	44.71
817.918	71.34
818.097	42.67
818.275	28.33
818.453	118.44
818.632	100.01
818.81	112.3
818.988	-22.87
819.167	83.63
819.345	-2.39
819.523	79.53
819.701	77.48
819.879	46.76
820.058	102.06
820.236	11.95
820.414	73.39
820.592	40.62
820.77	81.58
820.948	77.48
821.127	50.86
821.305	91.82
821.483	79.53
821.661	120.49
821.839	95.91
822.017	118.44
822.195	13.99
822.373	89.77
822.551	5.8
822.729	128.68
822.907	136.87
823.085	91.82
823.262	79.53
823.44	50.86
823.618	75.43
823.796	38.57
823.974	57
824.152	48.81
824.329	38.57
824.507	52.91
824.685	36.52
824.863	108.2
825.04	57
825.218	46.76
825.396	-4.44
825.574	63.15
825.751	-35.16
825.929	77.48
826.107	81.58
826.284	93.87
826.462	46.76
826.639	3.75
826.817	28.33
826.994	57
827.172	97.96
827.349	73.39
827.527	44.71
827.704	57
827.882	52.91
828.059	75.43
828.237	46.76
828.414	30.38
828.591	71.34
828.769	42.67
828.946	9.9
829.124	-2.39
829.301	22.19
829.478	65.19
829.655	36.52
829.833	147.11
830.01	-20.82
830.187	71.34
830.364	26.28
830.542	16.04
830.719	-6.49
830.896	69.29
831.073	46.76
831.25	52.91
831.427	89.77
831.604	22.19
831.782	38.57
831.959	34.47
832.136	77.48
832.313	13.99
832.49	-8.53
832.667	112.3
832.844	-41.3
833.021	95.91
833.198	34.47
833.374	28.33
833.551	18.09
833.728	22.19
833.905	36.52
834.082	22.19
834.259	20.14
834.436	52.91
834.612	65.19
834.789	7.85
834.966	-6.49
835.143	128.68
835.319	-14.68
835.496	63.15
835.673	104.11
835.85	11.95
836.026	13.99
836.203	24.23
836.38	87.72
836.556	63.15
836.733	18.09
836.909	36.52
837.086	63.15
837.262	61.1
837.439	40.62
837.616	63.15
837.792	36.52
837.968	63.15
838.145	38.57
838.321	3.75
838.498	-2.39
838.674	71.34
838.851	67.24
839.027	89.77
839.203	79.53
839.38	79.53
839.556	24.23
839.732	46.76
839.909	75.43
840.085	63.15
840.261	52.91
840.437	13.99
840.614	40.62
840.79	46.76
840.966	11.95
841.142	38.57
841.318	44.71
841.494	42.67
841.671	32.43
841.847	7.85
842.023	-18.77
842.199	-6.49
842.375	-12.63
842.551	3.75
842.727	1.71
842.903	48.81
843.079	85.67
843.255	57
843.431	59.05
843.607	110.25
843.783	-26.96
843.959	40.62
844.134	-8.53
844.31	93.87
844.486	106.15
844.662	44.71
844.838	36.52
845.013	46.76
845.189	87.72
845.365	20.14
845.541	16.04
845.716	-4.44
845.892	50.86
846.068	-8.53
846.244	-4.44
846.419	61.1
846.595	-39.25
846.77	28.33
846.946	1.71
847.122	67.24
847.297	81.58
847.473	112.3
847.648	-6.49
847.824	69.29
847.999	-14.68
848.175	97.96
848.35	13.99
848.526	-4.44
848.701	46.76
848.876	85.67
849.052	28.33
849.227	40.62
849.403	-8.53
849.578	7.85
849.753	-53.59
849.929	38.57
850.104	-2.39
850.279	30.38
850.454	38.57
850.63	83.63
850.805	-22.87
850.98	-16.73
851.155	63.15
851.33	32.43
851.505	-26.96
851.681	3.75
851.856	-18.77
852.031	69.29
852.206	24.23
852.381	40.62
852.556	-6.49
852.731	48.81
852.906	-2.39
853.081	46.76
853.256	65.19
853.431	-12.63
853.606	46.76
853.781	42.67
853.956	-8.53
854.131	81.58
854.305	-16.73
854.48	-65.88
854.655	11.95
854.83	28.33
855.005	5.8
855.18	30.38
855.354	30.38
855.529	59.05
855.704	61.1
855.879	7.85
856.053	-20.82
856.228	61.1
856.403	1.71
856.577	32.43
856.752	-8.53
856.926	30.38
857.101	-18.77
857.276	16.04
857.45	3.75
857.625	40.62
857.799	71.34
857.974	7.85
858.148	1.71
858.323	13.99
858.497	-12.63
858.672	79.53
858.846	32.43
859.02	11.95
859.195	50.86
859.369	28.33
859.543	-6.49
859.718	20.14
859.892	1.71
860.066	50.86
860.241	16.04
860.415	-0.34
860.589	-4.44
860.763	1.71
860.938	34.47
861.112	30.38
861.286	-20.82
861.46	67.24
861.634	-45.4
861.808	11.95
861.982	1.71
862.157	24.23
862.331	28.33
862.505	-2.39
862.679	97.96
862.853	-16.73
863.027	3.75
863.201	11.95
863.375	40.62
863.549	46.76
863.722	24.23
863.896	7.85
864.07	-26.96
864.244	-4.44
864.418	7.85
864.592	28.33
864.766	46.76
864.939	-6.49
865.113	16.04
865.287	67.24
865.461	28.33
865.634	-16.73
865.808	1.71
865.982	87.72
866.156	57
866.329	-24.92
866.503	-45.4
866.676	112.3
866.85	-51.54
867.024	-4.44
867.197	7.85
867.371	1.71
867.544	-45.4
867.718	-12.63
867.891	52.91
868.065	-22.87
868.238	-18.77
868.412	28.33
868.585	63.15
868.759	-20.82
868.932	28.33
869.105	46.76
869.279	-0.34
869.452	3.75
869.625	-51.54
869.799	-41.3
869.972	-12.63
870.145	87.72
870.319	-26.96
870.492	-22.87
870.665	50.86
870.838	36.52
871.011	-63.83
871.185	73.39
871.358	69.29
871.531	-43.35
871.704	7.85
871.877	28.33
872.05	-63.83
872.223	-8.53
872.396	16.04
872.569	40.62
872.742	-20.82
872.915	-18.77
873.088	3.75
873.261	-26.96
873.434	3.75
873.607	20.14
873.78	34.47
873.953	40.62
874.126	-20.82
874.299	32.43
874.471	54.95
874.644	22.19
874.817	-20.82
874.99	81.58
875.163	79.53
875.335	3.75
875.508	44.71
875.681	-37.2
875.853	-18.77
876.026	3.75
876.199	-24.92
876.371	20.14
876.544	46.76
876.717	24.23
876.889	38.57
877.062	-18.77
877.234	16.04
877.407	69.29
877.579	-53.59
877.752	13.99
877.924	57
878.097	65.19
878.269	13.99
878.442	26.28
878.614	-16.73
878.786	16.04
878.959	-20.82
879.131	1.71
879.303	-47.44
879.476	-12.63
879.648	34.47
879.82	65.19
879.993	77.48
880.165	100.01
880.337	9.9
880.509	11.95
880.681	1.71
880.854	-43.35
881.026	3.75
881.198	32.43
881.37	54.95
881.542	42.67
881.714	38.57
881.886	-45.4
882.058	24.23
882.23	28.33
882.402	-4.44
882.574	13.99
882.746	-69.97
882.918	20.14
883.09	28.33
883.262	-24.92
883.434	7.85
883.606	-20.82
883.778	-14.68
883.95	28.33
884.122	65.19
884.293	11.95
884.465	-20.82
884.637	-2.39
884.809	-20.82
884.98	48.81
885.152	57
885.324	104.11
885.496	3.75
885.667	-29.01
885.839	48.81
886.011	5.8
886.182	7.85
886.354	13.99
886.525	11.95
886.697	65.19
886.869	26.28
887.04	-43.35
887.212	36.52
887.383	46.76
887.555	30.38
887.726	5.8
887.897	61.1
888.069	30.38
888.24	26.28
888.412	-35.16
888.583	11.95
888.754	-47.44
888.926	18.09
889.097	-24.92
889.268	-12.63
889.44	-10.58
889.611	24.23
889.782	-31.06
889.953	-63.83
890.125	30.38
890.296	50.86
890.467	42.67
890.638	20.14
890.809	75.43
890.98	34.47
891.151	50.86
891.323	20.14
891.494	24.23
891.665	-33.11
891.836	-24.92
892.007	-8.53
892.178	28.33
892.349	13.99
892.52	3.75
892.691	32.43
892.862	-8.53
893.032	1.71
893.203	20.14
893.374	46.76
893.545	32.43
893.716	3.75
893.887	50.86
894.057	40.62
894.228	63.15
894.399	-37.2
894.57	34.47
894.74	32.43
894.911	24.23
895.082	-14.68
895.253	-26.96
895.423	-18.77
895.594	73.39
895.764	-43.35
895.935	-47.44
896.106	7.85
896.276	-12.63
896.447	40.62
896.617	-22.87
896.788	-24.92
896.958	5.8
897.129	-47.44
897.299	-35.16
897.47	46.76
897.64	59.05
897.81	-37.2
897.981	-18.77
898.151	-14.68
898.322	52.91
898.492	-18.77
898.662	-12.63
898.832	-16.73
899.003	26.28
899.173	-20.82
899.343	40.62
899.513	-10.58
