Data from USB4F104151__86__12-24-30-970.txt Node

Date: Fri Mar 14 12:24:30 EDT 2025
User: louis
Spectrometer: USB4F10415
Trigger mode: 4
Integration Time (sec): 3.500000E-2
Scans to average: 1
Electric dark correction enabled: true
Nonlinearity correction enabled: false
Boxcar width: 0
XAxis mode: Wavelengths
Number of Pixels in Spectrum: 3648
>>>>>Begin Spectral Data<<<<<
178.204	-180.39
178.424	-180.39
178.644	-180.39
178.864	-178.34
179.084	-88.23
179.304	-4.27
179.524	-49.32
179.744	36.69
179.964	26.45
180.184	42.84
180.404	-2.22
180.624	14.17
180.844	-47.27
181.064	-32.94
181.283	-14.51
181.503	24.4
181.723	5.97
181.943	44.88
182.163	57.17
182.383	-49.32
182.602	38.74
182.822	30.55
183.042	-4.27
183.262	38.74
183.482	79.7
183.701	28.5
183.921	18.26
184.141	-0.17
184.361	137.04
184.58	42.84
184.8	-20.65
185.02	-18.6
185.239	120.66
185.459	16.21
185.679	-26.79
185.898	26.45
186.118	126.8
186.338	48.98
186.557	73.56
186.777	-32.94
186.997	57.17
187.216	14.17
187.436	14.17
187.655	12.12
187.875	12.12
188.095	-34.99
188.314	65.36
188.534	75.6
188.753	5.97
188.973	77.65
189.192	120.66
189.412	38.74
189.631	55.12
189.851	28.5
190.07	77.65
190.29	20.31
190.509	-18.6
190.729	-59.56
190.948	71.51
191.168	137.04
191.387	44.88
191.607	51.03
191.826	10.07
192.045	-10.41
192.265	-2.22
192.484	12.12
192.704	-6.31
192.923	-100.52
193.142	59.22
193.362	71.51
193.581	59.22
193.8	28.5
194.02	79.7
194.239	69.46
194.458	10.07
194.678	12.12
194.897	100.18
195.116	-28.84
195.335	51.03
195.555	67.41
195.774	10.07
195.993	44.88
196.212	77.65
196.432	-2.22
196.651	51.03
196.87	-6.31
197.089	116.56
197.308	46.93
197.528	10.07
197.747	-71.85
197.966	36.69
198.185	65.36
198.404	-53.42
198.623	71.51
198.842	65.36
199.062	85.84
199.281	83.8
199.5	46.93
199.719	73.56
199.938	106.32
200.157	71.51
200.376	57.17
200.595	61.27
200.814	124.76
201.033	55.12
201.252	18.26
201.471	-14.51
201.69	32.6
201.909	57.17
202.128	65.36
202.347	14.17
202.566	32.6
202.785	63.32
203.004	5.97
203.223	104.28
203.442	30.55
203.661	-6.31
203.879	24.4
204.098	65.36
204.317	-34.99
204.536	-10.41
204.755	65.36
204.974	36.69
205.193	75.6
205.411	110.42
205.63	44.88
205.849	57.17
206.068	53.08
206.287	63.32
206.505	55.12
206.724	22.36
206.943	46.93
207.162	-14.51
207.381	55.12
207.599	114.52
207.818	61.27
208.037	34.64
208.255	63.32
208.474	102.23
208.693	96.08
208.911	5.97
209.13	67.41
209.349	61.27
209.567	71.51
209.786	110.42
210.005	-20.65
210.223	32.6
210.442	-34.99
210.661	-2.22
210.879	71.51
211.098	53.08
211.316	-24.75
211.535	139.09
211.753	-0.17
211.972	1.88
212.191	22.36
212.409	55.12
212.628	14.17
212.846	30.55
213.065	24.4
213.283	-10.41
213.502	59.22
213.72	63.32
213.938	42.84
214.157	28.5
214.375	46.93
214.594	5.97
214.812	18.26
215.031	124.76
215.249	-6.31
215.467	-12.46
215.686	77.65
215.904	12.12
216.122	-90.28
216.341	98.13
216.559	81.75
216.778	24.4
216.996	53.08
217.214	28.5
217.432	-2.22
217.651	-55.47
217.869	-20.65
218.087	38.74
218.306	28.5
218.524	94.04
218.742	18.26
218.96	67.41
219.179	-6.31
219.397	75.6
219.615	65.36
219.833	147.28
220.051	36.69
220.27	73.56
220.488	14.17
220.706	36.69
220.924	-10.41
221.142	57.17
221.36	44.88
221.578	89.94
221.796	-12.46
222.015	73.56
222.233	-73.9
222.451	73.56
222.669	-39.08
222.887	38.74
223.105	51.03
223.323	34.64
223.541	24.4
223.759	42.84
223.977	3.93
224.195	96.08
224.413	-26.79
224.631	-8.36
224.849	51.03
225.067	91.99
225.285	63.32
225.503	-2.22
225.721	22.36
225.939	114.52
226.157	65.36
226.375	159.57
226.592	-67.75
226.81	61.27
227.028	51.03
227.246	44.88
227.464	8.02
227.682	26.45
227.9	32.6
228.117	26.45
228.335	30.55
228.553	3.93
228.771	14.17
228.989	40.79
229.206	28.5
229.424	34.64
229.642	38.74
229.86	55.12
230.077	77.65
230.295	77.65
230.513	59.22
230.731	28.5
230.948	42.84
231.166	110.42
231.384	-12.46
231.601	8.02
231.819	57.17
232.037	1.88
232.254	-10.41
232.472	57.17
232.689	48.98
232.907	36.69
233.125	55.12
233.342	26.45
233.56	10.07
233.777	69.46
233.995	67.41
234.213	71.51
234.43	34.64
234.648	-24.75
234.865	-20.65
235.083	63.32
235.3	69.46
235.518	89.94
235.735	73.56
235.953	137.04
236.17	71.51
236.388	-2.22
236.605	53.08
236.822	71.51
237.04	67.41
237.257	48.98
237.475	32.6
237.692	14.17
237.909	36.69
238.127	14.17
238.344	-8.36
238.562	16.21
238.779	20.31
238.996	22.36
239.214	79.7
239.431	51.03
239.648	48.98
239.865	38.74
240.083	61.27
240.3	-32.94
240.517	81.75
240.735	69.46
240.952	104.28
241.169	-10.41
241.386	87.89
241.603	-67.75
241.821	-2.22
242.038	83.8
242.255	57.17
242.472	22.36
242.689	32.6
242.907	73.56
243.124	63.32
243.341	73.56
243.558	48.98
243.775	63.32
243.992	-73.9
244.209	14.17
244.426	69.46
244.643	40.79
244.86	98.13
245.078	57.17
245.295	67.41
245.512	12.12
245.729	44.88
245.946	59.22
246.163	-2.22
246.38	-0.17
246.597	36.69
246.814	63.32
247.031	-18.6
247.248	-6.31
247.464	-104.62
247.681	30.55
247.898	8.02
248.115	-14.51
248.332	24.4
248.549	40.79
248.766	91.99
248.983	-14.51
249.2	44.88
249.417	38.74
249.633	40.79
249.85	53.08
250.067	-47.27
250.284	91.99
250.501	71.51
250.717	83.8
250.934	-51.37
251.151	63.32
251.368	73.56
251.585	30.55
251.801	-12.46
252.018	32.6
252.235	38.74
252.451	16.21
252.668	51.03
252.885	-39.08
253.102	26.45
253.318	-10.41
253.535	-39.08
253.752	98.13
253.968	22.36
254.185	48.98
254.401	16.21
254.618	24.4
254.835	24.4
255.051	67.41
255.268	20.31
255.484	38.74
255.701	34.64
255.917	147.28
256.134	71.51
256.351	59.22
256.567	-37.03
256.784	44.88
257	30.55
257.217	81.75
257.433	81.75
257.65	36.69
257.866	63.32
258.082	63.32
258.299	26.45
258.515	30.55
258.732	32.6
258.948	-67.75
259.165	75.6
259.381	20.31
259.597	69.46
259.814	79.7
260.03	44.88
260.246	55.12
260.463	104.28
260.679	110.42
260.895	63.32
261.112	63.32
261.328	38.74
261.544	55.12
261.761	71.51
261.977	3.93
262.193	-30.89
262.409	75.6
262.626	55.12
262.842	-57.51
263.058	24.4
263.274	36.69
263.49	16.21
263.707	55.12
263.923	28.5
264.139	-10.41
264.355	22.36
264.571	112.47
264.787	28.5
265.004	24.4
265.22	87.89
265.436	130.9
265.652	30.55
265.868	-43.18
266.084	48.98
266.3	106.32
266.516	-30.89
266.732	71.51
266.948	61.27
267.164	81.75
267.38	61.27
267.596	40.79
267.812	106.32
268.028	3.93
268.244	34.64
268.46	-12.46
268.676	73.56
268.892	51.03
269.108	-10.41
269.324	14.17
269.54	-32.94
269.756	75.6
269.972	40.79
270.188	-2.22
270.403	-2.22
270.619	22.36
270.835	36.69
271.051	32.6
271.267	28.5
271.483	63.32
271.698	-16.55
271.914	89.94
272.13	122.71
272.346	36.69
272.562	42.84
272.777	34.64
272.993	12.12
273.209	-22.7
273.425	98.13
273.64	-51.37
273.856	106.32
274.072	32.6
274.287	18.26
274.503	112.47
274.719	5.97
274.934	38.74
275.15	-63.66
275.366	51.03
275.581	32.6
275.797	102.23
276.012	42.84
276.228	-16.55
276.444	14.17
276.659	55.12
276.875	48.98
277.09	-8.36
277.306	59.22
277.521	30.55
277.737	67.41
277.952	59.22
278.168	75.6
278.383	48.98
278.599	-41.13
278.814	118.61
279.03	73.56
279.245	81.75
279.461	24.4
279.676	1.88
279.892	-41.13
280.107	67.41
280.322	-26.79
280.538	81.75
280.753	75.6
280.969	30.55
281.184	32.6
281.399	67.41
281.615	69.46
281.83	110.42
282.045	-34.99
282.26	26.45
282.476	10.07
282.691	-20.65
282.906	42.84
283.122	83.8
283.337	34.64
283.552	81.75
283.767	-4.27
283.983	69.46
284.198	77.65
284.413	69.46
284.628	75.6
284.843	46.93
285.058	20.31
285.274	79.7
285.489	-10.41
285.704	48.98
285.919	75.6
286.134	24.4
286.349	-43.18
286.564	141.14
286.779	63.32
286.995	63.32
287.21	-18.6
287.425	85.84
287.64	28.5
287.855	69.46
288.07	-32.94
288.285	135
288.5	22.36
288.715	77.65
288.93	16.21
289.145	-8.36
289.36	26.45
289.575	-34.99
289.79	38.74
290.004	-2.22
290.219	94.04
290.434	55.12
290.649	22.36
290.864	44.88
291.079	32.6
291.294	69.46
291.509	96.08
291.724	-32.94
291.938	26.45
292.153	40.79
292.368	79.7
292.583	71.51
292.798	102.23
293.012	87.89
293.227	12.12
293.442	44.88
293.657	57.17
293.871	55.12
294.086	-67.75
294.301	116.56
294.516	83.8
294.73	69.46
294.945	14.17
295.16	75.6
295.374	5.97
295.589	139.09
295.804	42.84
296.018	8.02
296.233	61.27
296.447	40.79
296.662	22.36
296.877	89.94
297.091	48.98
297.306	-0.17
297.52	-14.51
297.735	59.22
297.949	40.79
298.164	79.7
298.378	16.21
298.593	73.56
298.807	36.69
299.022	-10.41
299.236	77.65
299.451	32.6
299.665	-47.27
299.88	63.32
300.094	-6.31
300.309	-2.22
300.523	59.22
300.737	32.6
300.952	81.75
301.166	-30.89
301.381	67.41
301.595	10.07
301.809	71.51
302.024	8.02
302.238	-4.27
302.452	42.84
302.667	16.21
302.881	65.36
303.095	38.74
303.309	40.79
303.524	38.74
303.738	26.45
303.952	16.21
304.166	71.51
304.381	85.84
304.595	67.41
304.809	73.56
305.023	1.88
305.237	-59.56
305.452	5.97
305.666	-2.22
305.88	26.45
306.094	85.84
306.308	81.75
306.522	77.65
306.736	22.36
306.95	108.37
307.164	24.4
307.379	40.79
307.593	44.88
307.807	71.51
308.021	59.22
308.235	38.74
308.449	46.93
308.663	77.65
308.877	120.66
309.091	14.17
309.305	85.84
309.519	22.36
309.733	10.07
309.947	10.07
310.161	34.64
310.374	73.56
310.588	40.79
310.802	79.7
311.016	87.89
311.23	24.4
311.444	-0.17
311.658	51.03
311.872	120.66
312.085	24.4
312.299	-2.22
312.513	-43.18
312.727	81.75
312.941	-39.08
313.154	79.7
313.368	-39.08
313.582	1.88
313.796	16.21
314.009	42.84
314.223	73.56
314.437	-2.22
314.651	30.55
314.864	44.88
315.078	-24.75
315.292	-10.41
315.505	48.98
315.719	100.18
315.933	81.75
316.146	36.69
316.36	-26.79
316.573	143.19
316.787	18.26
317.001	67.41
317.214	28.5
317.428	40.79
317.641	24.4
317.855	38.74
318.068	28.5
318.282	73.56
318.495	147.28
318.709	38.74
318.922	36.69
319.136	81.75
319.349	100.18
319.563	85.84
319.776	-2.22
319.99	-39.08
320.203	100.18
320.417	-0.17
320.63	87.89
320.843	102.23
321.057	34.64
321.27	55.12
321.483	20.31
321.697	51.03
321.91	12.12
322.124	61.27
322.337	-24.75
322.55	120.66
322.763	53.08
322.977	32.6
323.19	22.36
323.403	12.12
323.617	40.79
323.83	96.08
324.043	48.98
324.256	26.45
324.469	8.02
324.683	112.47
324.896	38.74
325.109	22.36
325.322	46.93
325.535	71.51
325.748	69.46
325.962	141.14
326.175	40.79
326.388	48.98
326.601	22.36
326.814	24.4
327.027	22.36
327.24	79.7
327.453	10.07
327.666	-10.41
327.879	65.36
328.092	83.8
328.305	89.94
328.518	46.93
328.731	12.12
328.944	79.7
329.157	40.79
329.37	22.36
329.583	83.8
329.796	8.02
330.009	-18.6
330.222	55.12
330.435	51.03
330.648	36.69
330.861	67.41
331.073	81.75
331.286	96.08
331.499	12.12
331.712	-12.46
331.925	-28.84
332.138	-12.46
332.35	110.42
332.563	30.55
332.776	79.7
332.989	73.56
333.202	89.94
333.414	59.22
333.627	-18.6
333.84	-2.22
334.053	28.5
334.265	24.4
334.478	81.75
334.691	75.6
334.903	96.08
335.116	24.4
335.329	16.21
335.541	1.88
335.754	94.04
335.966	-61.61
336.179	3.93
336.392	63.32
336.604	98.13
336.817	63.32
337.029	30.55
337.242	83.8
337.454	118.61
337.667	51.03
337.88	34.64
338.092	48.98
338.305	24.4
338.517	81.75
338.729	10.07
338.942	81.75
339.154	-20.65
339.367	-10.41
339.579	71.51
339.792	44.88
340.004	79.7
340.217	38.74
340.429	57.17
340.641	-2.22
340.854	8.02
341.066	48.98
341.278	91.99
341.491	83.8
341.703	53.08
341.915	51.03
342.128	96.08
342.34	55.12
342.552	32.6
342.764	20.31
342.977	18.26
343.189	38.74
343.401	-24.75
343.613	-22.7
343.826	3.93
344.038	12.12
344.25	73.56
344.462	-0.17
344.674	32.6
344.886	-0.17
345.099	48.98
345.311	20.31
345.523	22.36
345.735	-6.31
345.947	-0.17
346.159	81.75
346.371	18.26
346.583	44.88
346.795	85.84
347.007	100.18
347.219	59.22
347.431	12.12
347.643	24.4
347.855	-24.75
348.067	137.04
348.279	20.31
348.491	59.22
348.703	57.17
348.915	-12.46
349.127	5.97
349.339	141.14
349.551	8.02
349.763	-6.31
349.975	53.08
350.187	30.55
350.399	61.27
350.61	32.6
350.822	-12.46
351.034	-6.31
351.246	85.84
351.458	71.51
351.669	96.08
351.881	71.51
352.093	118.61
352.305	-20.65
352.517	30.55
352.728	30.55
352.94	51.03
353.152	71.51
353.363	75.6
353.575	22.36
353.787	135
353.999	104.28
354.21	147.28
354.422	53.08
354.633	44.88
354.845	135
355.057	-8.36
355.268	71.51
355.48	67.41
355.692	42.84
355.903	38.74
356.115	42.84
356.326	24.4
356.538	38.74
356.749	32.6
356.961	51.03
357.172	44.88
357.384	-18.6
357.595	85.84
357.807	81.75
358.018	10.07
358.23	46.93
358.441	77.65
358.653	44.88
358.864	-2.22
359.075	-22.7
359.287	69.46
359.498	98.13
359.709	75.6
359.921	79.7
360.132	55.12
360.344	81.75
360.555	65.36
360.766	10.07
360.977	-22.7
361.189	14.17
361.4	46.93
361.611	48.98
361.823	124.76
362.034	94.04
362.245	-41.13
362.456	-2.22
362.667	71.51
362.879	18.26
363.09	79.7
363.301	149.33
363.512	14.17
363.723	38.74
363.935	53.08
364.146	48.98
364.357	28.5
364.568	53.08
364.779	24.4
364.99	96.08
365.201	126.8
365.412	120.66
365.623	-71.85
365.834	14.17
366.045	-61.61
366.256	44.88
366.467	89.94
366.678	67.41
366.889	16.21
367.1	96.08
367.311	94.04
367.522	63.32
367.733	94.04
367.944	28.5
368.155	-4.27
368.366	38.74
368.577	63.32
368.788	157.52
368.999	89.94
369.209	59.22
369.42	102.23
369.631	143.19
369.842	79.7
370.053	48.98
370.264	-20.65
370.474	51.03
370.685	44.88
370.896	14.17
371.107	55.12
371.317	53.08
371.528	20.31
371.739	63.32
371.95	175.95
372.16	24.4
372.371	96.08
372.582	94.04
372.792	100.18
373.003	81.75
373.214	79.7
373.424	22.36
373.635	38.74
373.846	87.89
374.056	83.8
374.267	-2.22
374.477	-28.84
374.688	30.55
374.898	14.17
375.109	63.32
375.319	61.27
375.53	53.08
375.74	69.46
375.951	-26.79
376.161	44.88
376.372	94.04
376.582	63.32
376.793	32.6
377.003	55.12
377.214	75.6
377.424	75.6
377.635	38.74
377.845	32.6
378.055	118.61
378.266	3.93
378.476	20.31
378.686	120.66
378.897	-8.36
379.107	94.04
379.317	59.22
379.528	44.88
379.738	120.66
379.948	26.45
380.158	32.6
380.369	24.4
380.579	81.75
380.789	42.84
380.999	46.93
381.21	112.47
381.42	126.8
381.63	114.52
381.84	75.6
382.05	53.08
382.261	32.6
382.471	51.03
382.681	87.89
382.891	91.99
383.101	98.13
383.311	73.56
383.521	120.66
383.731	32.6
383.941	98.13
384.151	85.84
384.361	34.64
384.571	124.76
384.781	5.97
384.991	63.32
385.201	87.89
385.411	32.6
385.621	44.88
385.831	36.69
386.041	63.32
386.251	149.33
386.461	59.22
386.671	-12.46
386.881	53.08
387.091	79.7
387.301	67.41
387.511	65.36
387.72	163.67
387.93	100.18
388.14	5.97
388.35	10.07
388.56	75.6
388.769	112.47
388.979	77.65
389.189	53.08
389.399	-20.65
389.609	75.6
389.818	91.99
390.028	110.42
390.238	108.37
390.447	81.75
390.657	94.04
390.867	34.64
391.076	63.32
391.286	12.12
391.496	159.57
391.705	102.23
391.915	48.98
392.125	126.8
392.334	10.07
392.544	26.45
392.753	14.17
392.963	14.17
393.172	53.08
393.382	-6.31
393.591	151.38
393.801	18.26
394.01	157.52
394.22	71.51
394.429	36.69
394.639	106.32
394.848	112.47
395.058	28.5
395.267	55.12
395.477	155.47
395.686	71.51
395.895	130.9
396.105	198.48
396.314	110.42
396.524	81.75
396.733	38.74
396.942	89.94
397.152	114.52
397.361	139.09
397.57	77.65
397.78	151.38
397.989	114.52
398.198	206.67
398.407	77.65
398.617	42.84
398.826	153.43
399.035	53.08
399.244	89.94
399.453	173.91
399.663	155.47
399.872	108.37
400.081	53.08
400.29	165.71
400.499	89.94
400.708	126.8
400.917	132.95
401.127	114.52
401.336	128.85
401.545	100.18
401.754	102.23
401.963	130.9
402.172	155.47
402.381	139.09
402.59	67.41
402.799	100.18
403.008	147.28
403.217	135
403.426	108.37
403.635	85.84
403.844	120.66
404.053	96.08
404.262	141.14
404.471	151.38
404.68	186.19
404.888	96.08
405.097	98.13
405.306	155.47
405.515	149.33
405.724	128.85
405.933	161.62
406.142	214.87
406.35	198.48
406.559	241.49
406.768	223.06
406.977	309.07
407.185	300.88
407.394	143.19
407.603	147.28
407.812	178
408.02	184.15
408.229	253.78
408.438	249.68
408.646	278.35
408.855	270.16
409.064	253.78
409.272	300.88
409.481	286.54
409.69	270.16
409.898	241.49
410.107	311.12
410.315	311.12
410.524	266.07
410.733	309.07
410.941	253.78
411.15	390.99
411.358	397.14
411.567	374.61
411.775	333.65
411.984	425.81
412.192	374.61
412.401	382.8
412.609	552.78
412.818	585.55
413.026	520.01
413.234	511.82
413.443	479.05
413.651	495.44
413.86	522.06
414.068	610.12
414.276	610.12
414.485	603.98
414.693	687.95
414.901	632.65
415.11	681.8
415.318	546.64
415.526	702.28
415.734	698.19
415.943	796.49
416.151	784.2
416.359	757.58
416.567	847.69
416.776	833.35
416.984	943.94
417.192	952.13
417.4	952.13
417.608	905.03
417.817	1042.25
418.025	1032.01
418.233	1179.46
418.441	1105.73
418.649	1136.45
418.857	1210.18
419.065	1181.51
419.273	1292.1
419.481	1288
419.689	1421.12
419.897	1443.65
420.105	1576.77
420.313	1476.41
420.521	1677.12
420.729	1597.24
420.937	1509.18
421.145	1799.99
421.353	1666.88
421.561	1908.54
421.769	1963.83
421.977	1840.95
422.185	2006.84
422.393	2119.48
422.601	2309.94
422.809	2152.24
423.017	2316.08
423.224	2326.32
423.432	2365.23
423.64	2373.43
423.848	2672.43
424.056	2613.04
424.263	2717.48
424.471	2858.79
424.679	2922.28
424.887	3028.78
425.094	3067.69
425.302	3153.7
425.51	3165.99
425.718	3297.06
425.925	3411.75
426.133	3516.19
426.341	3639.07
426.548	3706.65
426.756	3856.15
426.964	3755.8
427.171	4046.62
427.379	4157.21
427.586	4275.99
427.794	4337.43
428.001	4585.23
428.209	4775.69
428.417	4722.45
428.624	5119.75
428.832	5070.6
429.039	5078.79
429.247	5009.16
429.454	5529.34
429.662	5893.88
429.869	5539.58
430.076	5996.28
430.284	5650.18
430.491	6049.53
430.699	6313.72
430.906	6147.83
431.114	6297.33
431.321	6631.15
431.528	6672.11
431.736	7214.82
431.943	7372.52
432.15	7431.91
432.358	7397.09
432.565	7943.9
432.772	7735.01
432.979	8120.03
433.187	8185.56
433.394	8193.75
433.601	8967.88
433.808	8787.66
434.016	8787.66
434.223	9293.51
434.43	9840.32
434.637	9535.17
434.844	10266.3
435.052	10510
435.259	10206.91
435.466	10346.17
435.673	10571.44
435.88	11220.65
436.087	11470.5
436.294	11753.12
436.501	11472.55
436.708	11755.17
436.915	12160.67
437.122	12400.28
437.329	12504.73
437.537	13067.92
437.743	13176.46
437.95	13104.78
438.157	13844.1
438.364	14110.33
438.571	14210.68
438.778	14333.56
438.985	15588.97
439.192	14771.83
439.399	15312.49
439.606	15322.73
439.813	15887.97
440.02	16938.58
440.227	16662.1
440.433	16526.94
440.64	16789.08
440.847	16959.06
441.054	17475.15
441.261	18357.82
441.467	18409.02
441.674	18685.5
441.881	19289.65
442.088	19426.86
442.294	19199.54
442.501	19533.36
442.708	20266.53
442.914	20870.68
443.121	21429.77
443.328	21048.85
443.534	22728.19
443.741	21876.23
443.948	21751.31
444.154	23217.65
444.361	22787.58
444.568	23723.5
444.774	23236.08
444.981	23741.93
445.187	24436.19
445.394	25112.02
445.6	25142.74
445.807	27313.59
446.013	26080.71
446.22	26832.32
446.426	27755.95
446.633	27925.93
446.839	28902.81
447.046	27981.23
447.252	29224.34
447.459	29326.74
447.665	29310.36
447.871	30453.12
448.078	31802.74
448.284	30559.62
448.491	30698.88
448.697	32337.26
448.903	33045.85
449.11	32867.68
449.316	32574.82
449.522	33101.15
449.728	33723.73
449.935	34260.3
450.141	34366.79
450.347	35132.73
450.553	34008.4
450.76	34583.88
450.966	35677.49
451.172	35106.11
451.378	36412.71
451.584	35208.51
451.791	36320.56
451.997	35783.99
452.203	36197.68
452.409	36799.78
452.615	36015.41
452.821	35419.45
453.027	34944.32
453.233	36689.19
453.44	35177.79
453.646	35544.37
453.852	35829.04
454.058	36570.41
454.264	35396.92
454.47	35747.12
454.676	34923.84
454.882	36185.39
455.088	32886.11
455.294	33330.52
455.5	34010.45
455.705	34010.45
455.911	33185.11
456.117	32589.16
456.323	32011.63
456.529	30244.23
456.735	31679.86
456.941	30606.72
457.147	30612.87
457.352	29439.38
457.558	29123.99
457.764	28646.82
457.97	28755.36
458.176	27878.83
458.381	27801.01
458.587	26498.5
458.793	26402.24
458.999	25003.48
459.204	26848.7
459.41	26129.86
459.616	24120.81
459.821	24548.83
460.027	24444.38
460.233	23913.96
460.438	22355.46
460.644	22978.04
460.85	21894.66
461.055	21585.42
461.261	21470.73
461.466	19922.47
461.672	19185.2
461.878	20760.09
462.083	19195.44
462.289	18808.37
462.494	18738.74
462.7	17802.82
462.905	17243.73
463.111	17942.08
463.316	18144.83
463.522	17927.75
463.727	17903.17
463.932	17423.95
464.138	17440.33
464.343	17434.19
464.549	17241.68
464.754	17575.5
464.959	17448.52
465.165	17262.16
465.37	16311.9
465.575	16119.39
465.781	16713.3
465.986	17094.22
466.191	16256.61
466.397	16033.38
466.602	15267.44
466.807	15906.4
467.012	15711.85
467.218	15758.95
467.423	15631.97
467.628	15627.88
467.833	16229.98
468.038	15816.29
468.244	15199.85
468.449	15941.22
468.654	15212.14
468.859	15017.58
469.064	15273.58
469.269	14409.34
469.474	14802.55
469.679	14775.92
469.885	14196.35
470.09	14511.74
470.295	14345.85
470.5	14169.73
470.705	14349.95
470.91	14222.97
471.115	14024.32
471.32	14292.6
471.525	13889.15
471.73	13672.07
471.935	13717.12
472.139	13035.15
472.344	13162.12
472.549	13045.39
472.754	13084.3
472.959	12869.26
473.164	12439.19
473.369	12502.68
473.574	12924.56
473.778	12854.93
473.983	12641.94
474.188	12496.53
474.393	12156.57
474.598	12084.89
474.802	11892.38
475.007	11851.42
475.212	11794.08
475.417	11570.85
475.621	11323.05
475.826	11452.07
476.031	11120.3
476.235	11036.33
476.44	11198.12
476.645	10897.07
476.849	11122.35
477.054	10913.45
477.259	10876.59
477.463	10567.35
477.668	10448.57
477.872	10469.05
478.077	10276.54
478.282	10317.5
478.486	9873.09
478.691	9840.32
478.895	9961.15
479.1	9918.14
479.304	9955.01
479.509	9674.43
479.713	9768.64
479.918	9572.04
480.122	9467.59
480.326	9711.3
480.531	9582.28
480.735	9438.92
480.94	9479.88
481.144	9838.27
481.348	9158.35
481.553	9275.08
481.757	9082.57
481.961	9332.42
482.166	9461.44
482.37	9324.23
482.574	9144.01
482.778	9223.88
482.983	9473.73
483.187	9037.52
483.391	9199.3
483.595	9158.35
483.8	9049.8
484.004	9367.24
484.208	9320.14
484.412	9148.11
484.616	9187.02
484.821	9234.12
485.025	9078.47
485.229	9443.01
485.433	9064.14
485.637	9154.25
485.841	9191.11
486.045	8980.17
486.249	9103.05
486.453	9260.74
486.657	9346.76
486.861	9246.41
487.065	9103.05
487.269	9193.16
487.473	8982.22
487.677	9117.39
487.881	9215.69
488.085	9117.39
488.289	9123.53
488.493	9058
488.697	9498.31
488.901	9119.43
489.105	9225.93
489.309	9305.8
489.512	9436.87
489.716	9338.57
489.92	9174.73
490.124	9021.13
490.328	9481.92
490.531	9250.5
490.735	9531.08
490.939	9567.94
491.143	9506.5
491.346	9483.97
491.55	9434.82
491.754	9529.03
491.958	9549.51
492.161	9561.8
492.365	9598.66
492.569	9662.15
492.772	9696.96
492.976	9881.28
493.18	9705.15
493.383	10024.64
493.587	9916.09
493.79	10143.42
493.994	9950.91
494.197	9971.39
494.401	10133.18
494.605	10137.27
494.808	10333.88
495.012	10346.17
495.215	10671.79
495.419	10534.58
495.622	10548.92
495.825	10671.79
496.029	10833.58
496.232	10950.32
496.436	10880.69
496.639	11069.1
496.843	11062.96
497.046	11339.43
497.249	11357.86
497.453	11497.13
497.656	11540.13
497.859	11755.17
498.063	12005.02
498.266	11996.83
498.469	11988.64
498.673	12068.51
498.876	12127.9
499.079	12230.3
499.282	12172.96
499.485	12770.96
499.689	12707.48
499.892	12842.64
500.095	12725.91
500.298	13215.37
500.501	13012.62
500.705	13694.6
500.908	13663.88
501.111	13815.43
501.314	13944.45
501.517	14210.68
501.72	14024.32
501.923	14362.23
502.126	14640.76
502.329	14726.77
502.532	14868.08
502.735	15074.93
502.938	15263.34
503.141	15353.45
503.344	15783.52
503.547	15672.93
503.75	15812.2
503.953	16346.72
504.156	16373.34
504.359	15959.65
504.562	16483.93
504.765	16641.62
504.968	16983.63
505.17	17165.9
505.373	17036.88
505.576	17473.1
505.779	17806.92
505.982	17841.73
506.185	18196.03
506.387	18150.98
506.59	18398.78
506.793	18773.56
506.996	19103.28
507.198	19351.09
507.401	19183.15
507.604	19557.93
507.807	19779.11
508.009	19818.02
508.212	19910.18
508.415	20649.5
508.617	20303.39
508.82	20774.42
509.022	20504.09
509.225	21048.85
509.428	21460.49
509.63	21464.59
509.833	21749.26
510.035	22064.64
510.238	22099.46
510.44	22367.74
510.643	22863.35
510.845	23055.86
511.048	22906.36
511.25	23371.25
511.453	23555.57
511.655	24028.65
511.858	23887.34
512.06	24319.46
512.262	24532.45
512.465	24569.31
512.667	25222.61
512.87	25097.69
513.072	25339.35
513.274	25791.95
513.477	26181.06
513.679	26312.13
513.881	26693.05
514.084	26947
514.286	27188.66
514.488	27592.11
514.69	28120.49
514.893	27755.95
515.095	27934.12
515.297	28626.34
515.499	28507.55
515.701	29156.76
515.904	29496.72
516.106	29658.51
516.308	30043.53
516.51	30100.87
516.712	30303.62
516.914	30498.18
517.116	31339.9
517.318	31159.67
517.52	31612.27
517.722	31698.29
517.925	31999.34
518.127	32470.37
518.329	32869.73
518.531	32503.14
518.733	33592.66
518.935	33682.77
519.136	33727.83
519.338	34219.34
519.54	34534.73
519.742	34690.37
519.944	34776.39
520.146	35360.06
520.348	35675.44
520.55	36056.37
520.752	35632.44
520.954	36810.02
521.155	36486.44
521.357	37119.26
521.559	37362.97
521.761	37698.84
521.963	37989.65
522.164	38092.05
522.366	38348.04
522.568	38497.55
522.77	38628.62
522.971	39476.47
523.173	39435.52
523.375	39666.94
523.576	39683.32
523.778	40113.39
523.98	40539.37
524.181	40576.23
524.383	40768.74
524.584	41069.79
524.786	41008.36
524.988	41256.16
525.189	41972.95
525.391	41829.59
525.592	41977.04
525.794	42779.85
525.995	42349.78
526.197	42919.11
526.398	42884.29
526.6	43265.22
526.801	43113.67
527.003	43531.45
527.204	43150.53
527.406	44246.19
527.607	43949.24
527.808	44512.43
528.01	43828.41
528.211	44065.97
528.412	45206.69
528.614	45196.45
528.815	45198.5
529.016	45604
529.218	44891.3
529.419	45202.6
529.62	45370.53
529.822	45413.54
530.023	45466.78
530.224	45626.53
530.425	45706.4
530.626	45456.54
530.828	45282.47
531.029	46425.23
531.23	45958.3
531.431	45743.26
531.632	45913.24
531.833	46513.3
532.035	46118.04
532.236	46699.66
532.437	46937.23
532.638	46380.18
532.839	46693.52
533.04	47053.96
533.241	46345.36
533.442	47217.8
533.643	46535.82
533.844	47324.29
534.045	47291.52
534.246	46458
534.447	47076.49
534.648	46748.81
534.849	47076.49
535.05	46390.42
535.251	47236.23
535.451	47271.04
535.652	46937.23
535.853	47023.24
536.054	47105.16
536.255	47484.03
536.456	46910.6
536.657	47578.24
536.857	47287.43
537.058	47035.53
537.259	47490.18
537.46	47189.13
537.66	46955.66
537.861	46892.17
538.062	47217.8
538.263	47414.4
538.463	46814.35
538.664	46830.73
538.865	47490.18
539.065	47178.89
539.266	46654.61
539.466	47490.18
539.667	46943.37
539.868	47662.21
540.068	47086.73
540.269	46873.74
540.469	47385.73
540.67	47248.52
540.87	46920.84
541.071	46888.07
541.271	47477.89
541.472	47219.84
541.672	46863.5
541.873	46845.07
542.073	46509.2
542.274	47443.07
542.474	47023.24
542.675	46748.81
542.875	47352.96
543.075	47027.34
543.276	46748.81
543.476	47266.95
543.676	46961.8
543.877	47195.27
544.077	47152.26
544.277	46734.48
544.478	46824.59
544.678	47053.96
544.878	46742.67
545.078	47047.82
545.279	47021.19
545.479	46513.3
545.679	46863.5
545.879	47191.17
546.079	46623.89
546.28	46746.76
546.48	46670.99
546.68	46806.16
546.88	46890.12
547.08	47119.49
547.28	46896.27
547.48	46257.3
547.68	46681.23
547.88	46591.12
548.081	46877.83
548.281	46593.17
548.481	46396.56
548.681	46888.07
548.881	46965.9
549.081	46615.69
549.28	46212.24
549.48	46822.54
549.68	46802.06
549.88	47301.76
550.08	46257.3
550.28	46695.56
550.48	46666.89
550.68	46716.04
550.88	46283.92
551.08	46871.69
551.279	46701.71
551.479	46361.75
551.679	46554.25
551.879	45989.02
552.079	46388.37
552.278	46181.52
552.478	46613.65
552.678	46156.95
552.878	47021.19
553.077	46163.09
553.277	46111.89
553.477	46945.42
553.676	45862.04
553.876	46466.19
554.076	45898.9
554.275	46191.76
554.475	45651.1
554.674	46414.99
554.874	46593.17
555.074	46038.17
555.273	46251.16
555.473	46572.69
555.672	45692.06
555.872	45728.92
556.071	45554.85
556.271	46152.85
556.47	45415.58
556.67	45159.59
556.869	45280.42
557.068	45888.67
557.268	45212.84
557.467	45401.25
557.667	45458.59
557.866	45173.92
558.065	45487.26
558.265	45022.37
558.464	44780.71
558.663	45411.49
558.863	44653.74
559.062	45282.47
559.261	44674.22
559.461	45241.51
559.66	44440.75
559.859	44399.79
560.058	44422.32
560.258	44475.57
560.457	43955.38
560.656	44770.47
560.855	44174.52
561.054	44760.23
561.253	43488.45
561.453	44338.35
561.652	44207.28
561.851	43852.98
562.05	43848.89
562.249	43658.43
562.448	43795.64
562.647	43576.51
562.846	43463.87
563.045	43369.66
563.244	43189.44
563.443	43521.21
563.642	42792.14
563.841	43191.49
564.04	42659.02
564.239	43279.55
564.438	42714.31
564.637	43023.56
564.836	42544.33
565.035	42190.03
565.234	42513.61
565.432	42351.82
565.631	42175.7
565.83	42544.33
566.029	41913.56
566.228	41878.74
566.427	41755.86
566.625	41751.77
566.824	41405.66
567.023	41796.82
567.222	40885.48
567.42	41649.37
567.619	41262.3
567.818	41106.66
568.016	40838.37
568.215	41233.63
568.414	41006.31
568.612	41428.19
568.811	41010.4
569.01	40590.57
569.208	40109.3
569.407	40529.13
569.605	39947.51
569.804	40328.43
570.002	40498.41
570.201	40357.1
570.4	39666.94
570.598	39730.42
570.797	39619.83
570.995	39640.31
571.193	39165.18
571.392	39503.1
571.59	38968.58
571.789	38968.58
571.987	38817.03
572.186	38921.48
572.384	38632.71
572.582	38640.9
572.781	38790.41
572.979	37938.45
573.177	38329.61
573.376	38352.14
573.574	38110.48
573.772	37960.98
573.971	37969.17
574.169	37530.9
574.367	37362.97
574.565	37829.91
574.763	37383.45
574.962	37149.98
575.16	36666.66
575.358	36988.19
575.556	36812.07
575.754	36920.61
575.952	36691.24
576.151	36963.62
576.349	36035.89
576.547	36128.05
576.745	36531.5
576.943	36357.42
577.141	36220.2
577.339	35937.58
577.537	35837.23
577.735	35894.58
577.933	35513.66
578.131	35943.73
578.329	35337.53
578.527	35087.68
578.725	35431.74
578.923	35818.8
579.121	34975.04
579.319	34790.72
579.516	35327.29
579.714	34934.08
579.912	34549.06
580.11	34501.96
580.308	34475.34
580.506	34362.7
580.704	33561.94
580.901	34497.86
581.099	34307.4
581.297	33856.85
581.495	33955.15
581.692	34348.36
581.89	33609.04
582.088	33971.53
582.285	33709.39
582.483	33490.26
582.681	33697.11
582.878	33271.13
583.076	32740.71
583.274	33275.23
583.471	33264.99
583.669	33078.62
583.866	32929.12
584.064	32808.29
584.262	32466.28
584.459	32718.18
584.657	32316.78
584.854	32798.05
585.052	31829.36
585.249	32445.8
585.447	32216.43
585.644	32228.71
585.841	32167.27
586.039	32150.89
586.236	31575.41
586.434	31933.81
586.631	31612.27
586.828	31651.19
587.026	31407.48
587.223	31675.76
587.42	31071.61
587.618	31358.33
587.815	30809.47
588.012	30819.71
588.21	30702.98
588.407	30922.11
588.604	30569.86
588.801	30541.19
588.999	30268.81
589.196	30434.69
589.393	30741.89
589.59	30328.2
589.787	30238.09
589.984	30193.03
590.182	29619.6
590.379	29984.14
590.576	29400.47
590.773	29818.25
590.97	29629.84
591.167	29595.03
591.364	29515.15
591.561	29382.04
591.758	29224.34
591.955	28931.48
592.152	29152.66
592.349	29103.51
592.546	28958.11
592.743	29068.7
592.94	28306.85
593.137	28855.71
593.334	28640.67
593.531	28245.41
593.727	28507.55
593.924	28351.91
594.121	28005.8
594.318	28159.4
594.515	27872.68
594.712	28550.56
594.908	28052.91
595.105	27917.74
595.302	27686.32
595.499	27825.58
595.696	27698.61
595.892	27313.59
596.089	27616.69
596.286	27391.41
596.482	27309.49
596.679	27426.23
596.876	27356.6
597.072	27035.06
597.269	26858.94
597.466	26772.92
597.662	26662.33
597.859	26697.15
598.055	26813.88
598.252	26518.98
598.448	26349
598.645	26504.64
598.841	26375.62
599.038	26170.82
599.234	26195.4
599.431	25738.7
599.627	25849.29
599.824	25984.46
600.02	25974.22
600.217	26002.89
600.413	25742.8
600.609	25345.49
600.806	25427.41
601.002	25474.51
601.198	25263.57
601.395	25427.41
601.591	25275.86
601.787	24798.68
601.984	25028.06
602.18	25212.37
602.376	24643.04
602.572	24763.87
602.769	24686.04
602.965	24212.96
603.161	24628.7
603.357	24184.29
603.553	24411.62
603.75	24268.26
603.946	24108.52
604.142	24088.04
604.338	23807.47
604.534	23971.3
604.73	23719.4
604.926	23692.78
605.122	24042.98
605.318	23793.13
605.514	23576.05
605.71	23397.87
605.906	23567.85
606.102	23225.84
606.298	23500.27
606.494	23408.11
606.69	23543.28
606.886	23465.46
607.082	22916.6
607.278	23574
607.474	22754.81
607.67	23145.97
607.866	22656.51
608.062	22740.47
608.257	22816.25
608.453	22830.58
608.649	22617.6
608.845	22707.71
609.041	22339.07
609.236	22550.01
609.432	22640.12
609.628	22507.01
609.824	22394.37
610.019	22095.36
610.215	22189.57
610.411	22523.39
610.606	22199.81
610.802	22165
610.998	22101.51
611.193	22314.5
611.389	21900.81
611.584	21911.05
611.78	21454.35
611.976	21814.79
612.171	21677.58
612.367	21833.22
612.562	21814.79
612.758	21554.7
612.953	21560.84
613.149	21448.21
613.344	21237.27
613.539	21650.95
613.735	21411.34
613.93	21270.03
614.126	21102.1
614.321	21282.32
614.517	21280.27
614.712	21198.35
614.907	21370.38
615.103	20999.7
615.298	20915.73
615.493	21380.62
615.688	20864.53
615.884	21431.82
616.079	20778.52
616.274	21050.9
616.47	20858.39
616.665	20557.34
616.86	20672.03
617.055	20930.07
617.25	20516.38
617.445	20731.42
617.641	20143.65
617.836	20735.51
618.031	20076.07
618.226	20287.01
618.421	20258.34
618.616	20487.71
618.811	19881.51
619.006	20168.23
619.201	19570.22
619.396	19852.84
619.591	19838.5
619.786	19707.43
619.981	19455.53
620.176	19369.52
620.371	19258.93
620.566	19445.29
620.761	19269.17
620.956	19402.29
621.151	18898.48
621.346	19140.15
621.541	18802.23
621.735	19191.34
621.93	18736.7
622.125	18650.68
622.32	18581.05
622.515	18599.48
622.709	18335.29
622.904	18488.89
623.099	18069.06
623.294	18077.25
623.488	17876.55
623.683	17876.55
623.878	17958.47
624.072	18015.81
624.267	17538.63
624.462	17567.31
624.656	17489.48
624.851	17491.53
625.046	17290.83
625.24	17215.05
625.435	17000.02
625.629	16909.91
625.824	16801.36
626.018	16903.76
626.213	16674.39
626.407	16631.38
626.602	16465.5
626.796	16682.58
626.991	16414.3
627.185	16297.56
627.38	15978.08
627.574	15890.02
627.768	15865.44
627.963	15818.34
628.157	15683.17
628.352	15969.89
628.546	15556.2
628.74	15681.13
628.935	15488.62
629.129	15474.28
629.323	15292.01
629.517	15050.35
629.712	15332.97
629.906	15068.78
630.1	14837.36
630.294	14726.77
630.489	14853.75
630.683	15023.73
630.877	14661.24
631.071	14812.79
631.265	14585.46
631.459	14534.26
631.653	14395
631.848	14329.47
632.042	14210.68
632.236	14182.01
632.43	13835.91
632.624	14036.61
632.818	13835.91
633.012	13635.21
633.206	13676.16
633.4	13813.38
633.594	13659.78
633.788	13598.34
633.982	13461.13
634.176	13579.91
634.369	13266.57
634.563	13248.14
634.757	13252.24
634.951	13317.77
635.145	13242
635.339	13133.45
635.533	13117.07
635.726	12914.32
635.92	12869.26
636.114	12703.38
636.308	12795.54
636.501	12609.17
636.695	12506.77
636.889	12420.76
637.083	12527.25
637.276	12635.8
637.47	12263.07
637.664	12168.86
637.857	12105.37
638.051	11964.06
638.244	12127.9
638.438	11972.25
638.632	11902.62
638.825	11828.9
639.019	11783.84
639.212	11691.68
639.406	11620
639.599	11546.28
639.793	11679.4
639.986	11325.1
640.18	11468.45
640.373	11263.66
640.567	11308.71
640.76	11533.99
640.954	11058.86
641.147	11032.24
641.34	10821.3
641.534	10919.6
641.727	10878.64
641.92	10839.73
642.114	10632.88
642.307	10884.78
642.5	10692.27
642.694	10575.54
642.887	10428.09
643.08	10628.79
643.273	10376.89
643.467	10391.22
643.66	9981.63
643.853	10159.8
644.046	10163.9
644.239	10178.23
644.432	10108.6
644.626	10038.97
644.819	9975.49
645.012	9963.2
645.205	10047.16
645.398	9813.7
645.591	9553.6
645.784	9782.98
645.977	9762.5
646.17	9758.4
646.363	9590.47
646.556	9291.46
646.749	9201.35
646.942	9326.28
647.135	9178.83
647.328	9313.99
647.521	9342.66
647.714	9119.43
647.907	9279.18
648.099	9025.23
648.292	9168.59
648.485	8961.74
648.678	8935.12
648.871	8777.42
649.064	8812.24
649.256	8718.03
649.449	8746.7
649.642	8881.87
649.835	8668.88
650.027	8513.24
650.22	8513.24
650.413	8494.8
650.605	8416.98
650.798	8431.32
650.991	8160.98
651.183	8341.21
651.376	8160.98
651.568	8333.01
651.761	8199.9
651.954	8351.45
652.146	8220.38
652.339	8042.2
652.531	8193.75
652.724	8031.96
652.916	7911.13
653.109	7950.04
653.301	7958.24
653.494	7818.97
653.686	7710.43
653.879	8029.91
654.071	7818.97
654.263	7718.62
654.456	7675.62
654.648	7974.62
654.84	7495.39
655.033	7517.92
655.225	7405.28
655.417	7358.18
655.61	7241.45
655.802	7395.04
655.994	7450.34
656.186	7329.51
656.379	7352.04
656.571	7302.89
656.763	7231.21
656.955	7120.62
657.148	7143.14
657.34	7175.91
657.532	7108.33
657.724	6921.96
657.916	6907.63
658.108	6969.07
658.3	7053.03
658.492	7028.46
658.684	6893.29
658.876	6919.92
659.068	6760.17
659.26	6633.2
659.452	6803.18
659.644	6475.51
659.836	6768.37
660.028	6731.5
660.22	6469.36
660.412	6645.49
660.604	6471.41
660.796	6471.41
660.988	6495.99
661.18	6469.36
661.372	6420.21
661.563	6452.98
661.755	6389.49
661.947	6418.16
662.139	6051.58
662.331	6289.14
662.522	6170.36
662.714	6242.04
662.906	5963.51
663.097	5963.51
663.289	6070.01
663.481	6053.62
663.673	6121.21
663.864	5902.08
664.056	5838.59
664.247	5967.61
664.439	5801.72
664.631	5988.09
664.822	5670.65
665.014	5861.12
665.205	5787.39
665.397	5885.69
665.588	5754.62
665.78	5758.72
665.971	5797.63
666.163	5822.2
666.354	5625.6
666.546	5674.75
666.737	5572.35
666.929	5414.66
667.12	5519.11
667.311	5502.72
667.503	5330.69
667.694	5549.82
667.885	5414.66
668.077	5428.99
668.268	5322.5
668.459	5564.16
668.651	5385.99
668.842	5396.23
669.033	5428.99
669.224	5062.41
669.416	5385.99
669.607	5478.15
669.798	5218.05
669.989	5259.01
670.18	5275.4
670.371	5230.34
670.563	5226.25
670.754	5422.85
670.945	5095.18
671.136	5072.65
671.327	5168.9
671.518	5170.95
671.709	5150.47
671.9	5076.74
672.091	5187.33
672.282	4992.78
672.473	4945.67
672.664	5154.57
672.855	4974.35
673.046	5134.09
673.237	5035.78
673.428	4898.57
673.619	5093.13
673.809	4910.86
674	5086.98
674.191	4931.34
674.382	4978.44
674.573	5023.5
674.764	4943.63
674.954	5107.46
675.145	4847.37
675.336	4779.79
675.527	4859.66
675.717	4978.44
675.908	4734.73
676.099	4890.38
676.289	4919.05
676.48	4919.05
676.671	4677.39
676.861	4900.62
677.052	4767.5
677.243	4826.89
677.433	4802.32
677.624	4851.47
677.814	4849.42
678.005	4806.41
678.195	4892.43
678.386	4822.8
678.576	4814.6
678.767	4642.57
678.957	4912.91
679.148	4867.85
679.338	4753.16
679.529	4701.97
679.719	4892.43
679.909	4951.82
680.1	4794.12
680.29	4775.69
680.481	4695.82
680.671	4775.69
680.861	4712.21
681.052	4681.49
681.242	4740.88
681.432	4794.12
681.622	4644.62
681.813	4753.16
682.003	4667.15
682.193	4685.58
682.383	4673.29
682.573	4728.59
682.764	4759.31
682.954	4685.58
683.144	4675.34
683.334	4560.66
683.524	4605.71
683.714	4738.83
683.904	4673.29
684.094	4710.16
684.284	4556.56
684.474	4652.81
684.664	4562.7
684.854	4695.82
685.044	4618
685.234	4392.72
685.424	4611.85
685.614	4384.53
685.804	4554.51
685.994	4579.09
686.184	4538.13
686.374	4624.14
686.564	4495.12
686.753	4419.35
686.943	4445.97
687.133	4425.49
687.323	4523.79
687.513	4454.16
687.702	4441.87
687.892	4398.87
688.082	4349.71
688.272	4411.15
688.461	4400.91
688.651	4388.63
688.841	4288.28
689.03	4222.74
689.22	4216.6
689.41	4290.32
689.599	4175.64
689.789	4126.49
689.979	4050.71
690.168	4101.91
690.358	4239.12
690.547	4161.3
690.737	4323.09
690.926	4095.77
691.116	4017.94
691.305	4034.33
691.495	4085.53
691.684	4081.43
691.874	4144.92
692.063	4001.56
692.252	4056.86
692.442	4036.38
692.631	3907.35
692.82	3841.82
693.01	3987.22
693.199	3872.54
693.388	3847.96
693.578	3821.34
693.767	3866.39
693.956	3796.76
694.146	3852.06
694.335	3899.16
694.524	3723.04
694.713	3835.67
694.902	3655.45
695.092	3766.04
695.281	3825.43
695.47	3684.13
695.659	3649.31
695.848	3688.22
696.037	3751.71
696.226	3731.23
696.415	3675.93
696.604	3616.54
696.793	3784.48
696.982	3735.32
697.171	3784.48
697.36	3565.34
697.549	3569.44
697.738	3575.58
697.927	3594.01
698.116	3686.17
698.305	3405.6
698.494	3577.63
698.683	3505.95
698.872	3782.43
699.061	3622.69
699.25	3532.58
699.438	3419.94
699.627	3567.39
699.816	3694.36
700.005	3571.49
700.193	3622.69
700.382	3534.62
700.571	3645.21
700.76	3473.18
700.948	3596.06
701.137	3518.24
701.326	3614.49
701.514	3505.95
701.703	3526.43
701.892	3471.14
702.08	3655.45
702.269	3540.77
702.457	3430.18
702.646	3692.32
702.834	3477.28
703.023	3573.53
703.212	3577.63
703.4	3434.27
703.589	3456.8
703.777	3522.34
703.965	3446.56
704.154	3575.58
704.342	3553.06
704.531	3639.07
704.719	3440.42
704.907	3596.06
705.096	3491.62
705.284	3413.79
705.472	3503.9
705.661	3561.25
705.849	3565.34
706.037	3546.91
706.226	3503.9
706.414	3571.49
706.602	3458.85
706.79	3481.38
706.979	3401.51
707.167	3663.65
707.355	3471.14
707.543	3542.82
707.731	3510.05
707.919	3467.04
708.107	3436.32
708.296	3477.28
708.484	3483.42
708.672	3497.76
708.86	3505.95
709.048	3514.14
709.236	3565.34
709.424	3456.8
709.612	3594.01
709.8	3503.9
709.988	3620.64
710.176	3528.48
710.364	3516.19
710.551	3553.06
710.739	3475.23
710.927	3348.26
711.115	3540.77
711.303	3639.07
711.491	3518.24
711.679	3616.54
711.866	3630.88
712.054	3651.36
712.242	3485.47
712.43	3651.36
712.617	3567.39
712.805	3561.25
712.993	3620.64
713.181	3682.08
713.368	3637.02
713.556	3585.82
713.744	3483.42
713.931	3618.59
714.119	3612.45
714.306	3698.46
714.494	3575.58
714.682	3663.65
714.869	3565.34
715.057	3749.66
715.244	3503.9
715.432	3735.32
715.619	3653.41
715.807	3700.51
715.994	3514.14
716.182	3755.8
716.369	3643.17
716.556	3653.41
716.744	3663.65
716.931	3628.83
717.119	3661.6
717.306	3688.22
717.493	3718.94
717.681	3698.46
717.868	3643.17
718.055	3729.18
718.242	3698.46
718.43	3739.42
718.617	3589.92
718.804	3727.13
718.991	3743.52
719.179	3835.67
719.366	3770.14
719.553	3739.42
719.74	3673.89
719.927	3653.41
720.114	3667.74
720.301	3739.42
720.488	3753.76
720.676	3743.52
720.863	3780.38
721.05	3821.34
721.237	3675.93
721.424	3815.2
721.611	3768.09
721.798	3604.25
721.985	3858.2
722.172	3626.78
722.358	3821.34
722.545	3782.43
722.732	3798.81
722.919	3884.83
723.106	3815.2
723.293	3854.11
723.48	3964.7
723.667	3823.39
723.853	3759.9
724.04	3868.44
724.227	3825.43
724.414	3788.57
724.6	3933.98
724.787	3847.96
724.974	3923.74
725.161	3837.72
725.347	3847.96
725.534	3946.27
725.72	4013.85
725.907	3817.24
726.094	3895.07
726.28	3757.85
726.467	3823.39
726.653	3931.93
726.84	3976.98
727.027	3966.74
727.213	3794.72
727.4	3966.74
727.586	3809.05
727.773	3895.07
727.959	3845.91
728.145	3989.27
728.332	3993.37
728.518	3790.62
728.705	4026.14
728.891	3837.72
729.077	3954.46
729.264	3946.27
729.45	3999.51
729.636	3970.84
729.823	3948.31
730.009	3929.88
730.195	3907.35
730.382	4144.92
730.568	3948.31
730.754	3882.78
730.94	3987.22
731.126	3942.17
731.313	4060.95
731.499	3952.41
731.685	3954.46
731.871	4040.47
732.057	3968.79
732.243	4091.67
732.429	4028.18
732.615	4042.52
732.801	4028.18
732.987	3987.22
733.173	4134.68
733.359	3890.97
733.545	4001.56
733.731	4013.85
733.917	4249.36
734.103	3981.08
734.289	4077.34
734.475	3956.5
734.661	4075.29
734.847	3952.41
735.033	3985.18
735.219	4017.94
735.404	3987.22
735.59	4052.76
735.776	4015.9
735.962	4169.49
736.148	4069.14
736.333	3995.42
736.519	4028.18
736.705	4173.59
736.89	3981.08
737.076	4017.94
737.262	4071.19
737.447	4030.23
737.633	4009.75
737.819	4103.96
738.004	3940.12
738.19	4120.34
738.375	3809.05
738.561	4022.04
738.747	3897.11
738.932	3811.1
739.118	4165.4
739.303	3999.51
739.489	4036.38
739.674	4022.04
739.859	3950.36
740.045	4017.94
740.23	3968.79
740.416	3874.59
740.601	4126.49
740.786	3958.55
740.972	3872.54
741.157	3997.46
741.342	3823.39
741.528	3933.98
741.713	3886.87
741.898	3903.26
742.084	3811.1
742.269	3837.72
742.454	4013.85
742.639	3995.42
742.824	3737.37
743.01	3825.43
743.195	3868.44
743.38	3665.69
743.565	3725.08
743.75	3884.83
743.935	3774.24
744.12	3825.43
744.305	3667.74
744.49	3702.56
744.675	3698.46
744.86	3788.57
745.045	3804.96
745.23	3626.78
745.415	3634.97
745.6	3671.84
745.785	3548.96
745.97	3757.85
746.155	3555.1
746.34	3589.92
746.525	3575.58
746.71	3591.97
746.895	3436.32
747.079	3458.85
747.264	3491.62
747.449	3356.45
747.634	3508
747.819	3581.73
748.003	3299.11
748.188	3475.23
748.373	3348.26
748.557	3497.76
748.742	3381.03
748.927	3258.15
749.111	3290.92
749.296	3335.97
749.481	3225.38
749.665	3321.63
749.85	3096.36
750.034	3329.83
750.219	3108.65
750.404	3077.93
750.588	3219.24
750.773	3159.85
750.957	3065.64
751.141	3077.93
751.326	3088.17
751.51	3010.34
751.695	3057.45
751.879	3122.98
752.064	2901.8
752.248	2965.29
752.432	3086.12
752.617	2893.61
752.801	3010.34
752.985	3014.44
753.17	3004.2
753.354	2934.57
753.538	2834.22
753.722	2752.3
753.907	2918.18
754.091	2780.97
754.275	2819.88
754.459	2719.53
754.643	2703.15
754.828	2762.54
755.012	2705.2
755.196	2563.89
755.38	2639.66
755.564	2735.92
755.748	2729.77
755.932	2660.14
756.116	2610.99
756.3	2578.22
756.484	2524.97
756.668	2604.85
756.852	2438.96
757.036	2541.36
757.22	2414.38
757.404	2441.01
757.588	2416.43
757.772	2334.51
757.956	2383.66
758.14	2393.9
758.323	2336.56
758.507	2391.86
758.691	2332.47
758.875	2357.04
759.059	2322.23
759.242	2287.41
759.426	2203.44
759.61	2281.27
759.794	2281.27
759.977	2346.8
760.161	2328.37
760.345	2260.79
760.528	2236.21
760.712	2225.97
760.895	2174.77
761.079	2137.91
761.263	2025.27
761.446	2133.81
761.63	2142
761.813	2178.87
761.997	2142
762.18	2107.19
762.364	2271.03
762.547	2072.37
762.731	2092.85
762.914	2084.66
763.098	2043.7
763.281	1963.83
763.464	2058.04
763.648	2070.33
763.831	1838.91
764.015	1926.97
764.198	1908.54
764.381	2053.94
764.564	2000.69
764.748	2002.74
764.931	1982.26
765.114	1840.95
765.297	1998.65
765.481	1941.3
765.664	1871.67
765.847	1853.24
766.03	1947.45
766.213	1793.85
766.397	1832.76
766.58	1859.38
766.763	1892.15
766.946	1756.99
767.129	1832.76
767.312	1773.37
767.495	1808.19
767.678	1795.9
767.861	1906.49
768.044	1726.27
768.227	1746.75
768.41	1650.49
768.593	1797.95
768.776	1748.79
768.959	1773.37
769.142	1816.38
769.324	1634.11
769.507	1587.01
769.69	1666.88
769.873	1677.12
770.056	1748.79
770.239	1730.36
770.421	1703.74
770.604	1615.68
770.787	1685.31
770.97	1548.09
771.152	1587.01
771.335	1591.1
771.518	1503.04
771.7	1642.3
771.883	1703.74
772.066	1599.29
772.248	1564.48
772.431	1568.57
772.613	1578.81
772.796	1511.23
772.978	1564.48
773.161	1490.75
773.343	1558.33
773.526	1474.37
773.708	1408.83
773.891	1474.37
774.073	1531.71
774.256	1484.61
774.438	1564.48
774.621	1417.02
774.803	1404.74
774.985	1521.47
775.168	1347.39
775.35	1429.31
775.532	1423.17
775.715	1361.73
775.897	1390.4
776.079	1376.06
776.261	1310.53
776.444	1355.58
776.626	1433.41
776.808	1380.16
776.99	1285.95
777.173	1230.66
777.355	1351.49
777.537	1310.53
777.719	1199.94
777.901	1208.13
778.083	1150.79
778.265	1191.75
778.447	1224.51
778.629	1191.75
778.811	1251.14
778.993	1242.95
779.175	1193.8
779.357	1158.98
779.539	1169.22
779.721	1183.56
779.903	1132.36
780.085	1115.97
780.267	1113.92
780.449	1130.31
780.631	1169.22
780.812	1050.44
780.994	1015.62
781.176	1027.91
781.358	960.33
781.54	1015.62
781.721	1034.05
781.903	1017.67
782.085	1040.2
782.267	1029.96
782.448	1032.01
782.63	952.13
782.812	1009.48
782.993	1005.38
783.175	1081.16
783.357	1038.15
783.538	927.56
783.72	909.13
783.901	974.66
784.083	921.42
784.264	862.02
784.446	878.41
784.627	921.42
784.809	937.8
784.99	902.98
785.172	862.02
785.353	911.18
785.535	937.8
785.716	898.89
785.897	759.63
786.079	882.5
786.26	868.17
786.441	851.78
786.623	769.87
786.804	726.86
786.985	862.02
787.167	819.02
787.348	810.82
787.529	812.87
787.71	829.26
787.891	673.61
788.073	792.39
788.254	716.62
788.435	804.68
788.616	724.81
788.797	722.76
788.978	712.52
789.159	716.62
789.34	780.11
789.522	651.08
789.703	735.05
789.884	692.04
790.065	669.52
790.246	700.23
790.427	698.19
790.607	642.89
790.788	702.28
790.969	608.08
791.15	644.94
791.331	616.27
791.512	599.88
791.693	581.45
791.874	677.71
792.054	749.39
792.235	636.75
792.416	550.73
792.597	626.51
792.778	595.79
792.958	593.74
793.139	667.47
793.32	622.41
793.5	581.45
793.681	636.75
793.862	632.65
794.042	587.6
794.223	532.3
794.404	630.6
794.584	581.45
794.765	581.45
794.945	483.15
795.126	530.25
795.306	499.53
795.487	595.79
795.667	530.25
795.848	630.6
796.028	493.39
796.209	563.02
796.389	554.83
796.57	538.45
796.75	507.73
796.93	472.91
797.111	405.33
797.291	517.97
797.471	511.82
797.652	528.21
797.832	466.77
798.012	554.83
798.192	407.38
798.373	456.53
798.553	567.12
798.733	540.49
798.913	442.19
799.093	487.25
799.274	558.92
799.454	446.29
799.634	556.88
799.814	554.83
799.994	560.97
800.174	434
800.354	409.42
800.534	483.15
800.714	462.67
800.894	362.32
801.074	477.01
801.254	524.11
801.434	481.1
801.614	517.97
801.794	434
801.974	1189.7
802.154	442.19
802.334	495.44
802.514	358.22
802.693	380.75
802.873	427.85
803.053	386.9
803.233	417.61
803.413	409.42
803.592	313.17
803.772	399.18
803.952	468.81
804.131	249.68
804.311	450.38
804.491	442.19
804.67	333.65
804.85	354.13
805.03	454.48
805.209	317.26
805.389	423.76
805.568	376.66
805.748	325.46
805.928	362.32
806.107	354.13
806.287	423.76
806.466	321.36
806.646	448.33
806.825	360.27
807.004	253.78
807.184	462.67
807.363	442.19
807.543	417.61
807.722	309.07
807.901	288.59
808.081	403.28
808.26	245.59
808.439	345.94
808.619	407.38
808.798	292.69
808.977	272.21
809.156	341.84
809.336	319.31
809.515	319.31
809.694	300.88
809.873	280.4
810.052	343.89
810.231	296.78
810.411	298.83
810.59	360.27
810.769	360.27
810.948	331.6
811.127	323.41
811.306	292.69
811.485	290.64
811.664	374.61
811.843	319.31
812.022	270.16
812.201	290.64
812.38	253.78
812.559	329.55
812.737	309.07
812.916	264.02
813.095	257.87
813.274	237.39
813.453	368.46
813.632	247.63
813.811	286.54
813.989	251.73
814.168	282.45
814.347	272.21
814.526	288.59
814.704	321.36
814.883	329.55
815.062	298.83
815.24	268.11
815.419	202.58
815.598	235.35
815.776	214.87
815.955	167.76
816.133	223.06
816.312	245.59
816.49	223.06
816.669	278.35
816.847	227.15
817.026	294.74
817.204	245.59
817.383	196.43
817.561	229.2
817.74	253.78
817.918	288.59
818.097	216.91
818.275	149.33
818.453	216.91
818.632	255.83
818.81	218.96
818.988	221.01
819.167	206.67
819.345	259.92
819.523	261.97
819.701	227.15
819.879	245.59
820.058	204.63
820.236	245.59
820.414	270.16
820.592	276.31
820.77	257.87
820.948	245.59
821.127	229.2
821.305	264.02
821.483	210.77
821.661	266.07
821.839	218.96
822.017	235.35
822.195	231.25
822.373	208.72
822.551	223.06
822.729	229.2
822.907	139.09
823.085	272.21
823.262	304.98
823.44	157.52
823.618	247.63
823.796	171.86
823.974	178
824.152	178
824.329	218.96
824.507	190.29
824.685	186.19
824.863	155.47
825.04	126.8
825.218	212.82
825.396	229.2
825.574	159.57
825.751	126.8
825.929	221.01
826.107	61.27
826.284	145.24
826.462	155.47
826.639	145.24
826.817	169.81
826.994	159.57
827.172	100.18
827.349	200.53
827.527	243.54
827.704	165.71
827.882	167.76
828.059	161.62
828.237	173.91
828.414	175.95
828.591	153.43
828.769	120.66
828.946	135
829.124	212.82
829.301	98.13
829.478	143.19
829.655	151.38
829.833	202.58
830.01	112.47
830.187	145.24
830.364	182.1
830.542	87.89
830.719	227.15
830.896	231.25
831.073	188.24
831.25	159.57
831.427	198.48
831.604	126.8
831.782	147.28
831.959	194.39
832.136	104.28
832.313	108.37
832.49	155.47
832.667	85.84
832.844	165.71
833.021	126.8
833.198	96.08
833.374	192.34
833.551	143.19
833.728	182.1
833.905	120.66
834.082	143.19
834.259	128.85
834.436	126.8
834.612	163.67
834.789	104.28
834.966	161.62
835.143	118.61
835.319	112.47
835.496	163.67
835.673	151.38
835.85	128.85
836.026	65.36
836.203	182.1
836.38	102.23
836.556	114.52
836.733	32.6
836.909	120.66
837.086	141.14
837.262	120.66
837.439	163.67
837.616	153.43
837.792	130.9
837.968	98.13
838.145	73.56
838.321	149.33
838.498	85.84
838.674	206.67
838.851	122.71
839.027	126.8
839.203	81.75
839.38	120.66
839.556	110.42
839.732	102.23
839.909	65.36
840.085	112.47
840.261	69.46
840.437	67.41
840.614	122.71
840.79	94.04
840.966	100.18
841.142	61.27
841.318	85.84
841.494	178
841.671	147.28
841.847	128.85
842.023	122.71
842.199	94.04
842.375	53.08
842.551	89.94
842.727	53.08
842.903	128.85
843.079	83.8
843.255	108.37
843.431	100.18
843.607	114.52
843.783	94.04
843.959	81.75
844.134	100.18
844.31	91.99
844.486	130.9
844.662	83.8
844.838	67.41
845.013	53.08
845.189	147.28
845.365	63.32
845.541	77.65
845.716	139.09
845.892	91.99
846.068	112.47
846.244	5.97
846.419	57.17
846.595	98.13
846.77	81.75
846.946	155.47
847.122	87.89
847.297	36.69
847.473	165.71
847.648	40.79
847.824	81.75
847.999	-4.27
848.175	153.43
848.35	57.17
848.526	-2.22
848.701	44.88
848.876	91.99
849.052	104.28
849.227	122.71
849.403	63.32
849.578	69.46
849.753	98.13
849.929	51.03
850.104	81.75
850.279	85.84
850.454	139.09
850.63	32.6
850.805	32.6
850.98	114.52
851.155	71.51
851.33	48.98
851.505	1.88
851.681	165.71
851.856	8.02
852.031	44.88
852.206	128.85
852.381	46.93
852.556	110.42
852.731	79.7
852.906	83.8
853.081	153.43
853.256	79.7
853.431	14.17
853.606	104.28
853.781	61.27
853.956	51.03
854.131	61.27
854.305	57.17
854.48	18.26
854.655	24.4
854.83	89.94
855.005	40.79
855.18	96.08
855.354	61.27
855.529	106.32
855.704	91.99
855.879	89.94
856.053	-24.75
856.228	69.46
856.403	20.31
856.577	98.13
856.752	55.12
856.926	69.46
857.101	-37.03
857.276	-24.75
857.45	102.23
857.625	16.21
857.799	26.45
857.974	22.36
858.148	12.12
858.323	102.23
858.497	55.12
858.672	87.89
858.846	28.5
859.02	40.79
859.195	-45.23
859.369	44.88
859.543	51.03
859.718	18.26
859.892	-6.31
860.066	-20.65
860.241	-39.08
860.415	38.74
860.589	51.03
860.763	40.79
860.938	42.84
861.112	108.37
861.286	63.32
861.46	55.12
861.634	-12.46
861.808	46.93
861.982	34.64
862.157	-2.22
862.331	14.17
862.505	48.98
862.679	12.12
862.853	8.02
863.027	26.45
863.201	120.66
863.375	59.22
863.549	104.28
863.722	-8.36
863.896	32.6
864.07	36.69
864.244	-59.56
864.418	-10.41
864.592	122.71
864.766	69.46
864.939	-73.9
865.113	48.98
865.287	87.89
865.461	3.93
865.634	145.24
865.808	26.45
865.982	-2.22
866.156	-16.55
866.329	55.12
866.503	65.36
866.676	65.36
866.85	18.26
867.024	20.31
867.197	44.88
867.371	79.7
867.544	59.22
867.718	-10.41
867.891	-2.22
868.065	32.6
868.238	69.46
868.412	16.21
868.585	18.26
868.759	16.21
868.932	40.79
869.105	-45.23
869.279	-12.46
869.452	-24.75
869.625	51.03
869.799	73.56
869.972	8.02
870.145	8.02
870.319	32.6
870.492	57.17
870.665	-32.94
870.838	-43.18
871.011	44.88
871.185	34.64
871.358	12.12
871.531	61.27
871.704	71.51
871.877	30.55
872.05	20.31
872.223	-16.55
872.396	-2.22
872.569	71.51
872.742	32.6
872.915	8.02
873.088	48.98
873.261	-2.22
873.434	46.93
873.607	-6.31
873.78	12.12
873.953	69.46
874.126	12.12
874.299	-8.36
874.471	-37.03
874.644	-24.75
874.817	40.79
874.99	57.17
875.163	-12.46
875.335	55.12
875.508	51.03
875.681	77.65
875.853	-24.75
876.026	130.9
876.199	10.07
876.371	-22.7
876.544	24.4
876.717	36.69
876.889	-4.27
877.062	1.88
877.234	-77.99
877.407	5.97
877.579	69.46
877.752	-4.27
877.924	10.07
878.097	71.51
878.269	55.12
878.442	51.03
878.614	-0.17
878.786	67.41
878.959	71.51
879.131	34.64
879.303	-28.84
879.476	-32.94
879.648	89.94
879.82	63.32
879.993	57.17
880.165	69.46
880.337	-67.75
880.509	-73.9
880.681	-84.14
880.854	-2.22
881.026	57.17
881.198	12.12
881.37	3.93
881.542	46.93
881.714	-2.22
881.886	24.4
882.058	-2.22
882.23	-4.27
882.402	-0.17
882.574	8.02
882.746	14.17
882.918	26.45
883.09	122.71
883.262	-55.47
883.434	30.55
883.606	-20.65
883.778	8.02
883.95	63.32
884.122	-0.17
884.293	28.5
884.465	-34.99
884.637	61.27
884.809	-30.89
884.98	-30.89
885.152	32.6
885.324	53.08
885.496	24.4
885.667	-30.89
885.839	-30.89
886.011	53.08
886.182	46.93
886.354	8.02
886.525	38.74
886.697	22.36
886.869	3.93
887.04	61.27
887.212	48.98
887.383	79.7
887.555	-24.75
887.726	-53.42
887.897	26.45
888.069	46.93
888.24	36.69
888.412	-8.36
888.583	85.84
888.754	14.17
888.926	28.5
889.097	-6.31
889.268	-73.9
889.44	59.22
889.611	10.07
889.782	18.26
889.953	-2.22
890.125	22.36
890.296	-26.79
890.467	34.64
890.638	24.4
890.809	77.65
890.98	-37.03
891.151	-30.89
891.323	-32.94
891.494	73.56
891.665	40.79
891.836	22.36
892.007	8.02
892.178	32.6
892.349	14.17
892.52	30.55
892.691	-2.22
892.862	-18.6
893.032	-20.65
893.203	44.88
893.374	26.45
893.545	10.07
893.716	65.36
893.887	73.56
894.057	100.18
894.228	-16.55
894.399	8.02
894.57	55.12
894.74	-55.47
894.911	67.41
895.082	-20.65
895.253	-2.22
895.423	-2.22
895.594	96.08
895.764	65.36
895.935	-92.33
896.106	69.46
896.276	-6.31
896.447	10.07
896.617	-12.46
896.788	34.64
896.958	-45.23
897.129	-16.55
897.299	-30.89
897.47	30.55
897.64	8.02
897.81	98.13
897.981	-14.51
898.151	-67.75
898.322	18.26
898.492	1.88
898.662	16.21
898.832	55.12
899.003	-24.75
899.173	114.52
899.343	-20.65
899.513	48.98
