Data from USB4F104151__90__12-24-51-932.txt Node

Date: Fri Mar 14 12:24:51 EDT 2025
User: louis
Spectrometer: USB4F10415
Trigger mode: 4
Integration Time (sec): 3.500000E-2
Scans to average: 1
Electric dark correction enabled: true
Nonlinearity correction enabled: false
Boxcar width: 0
XAxis mode: Wavelengths
Number of Pixels in Spectrum: 3648
>>>>>Begin Spectral Data<<<<<
178.204	-161.62
178.424	-161.62
178.644	-161.62
178.864	-208.72
179.084	-167.76
179.304	-12.12
179.524	-8.02
179.744	22.7
179.964	18.6
180.184	12.46
180.404	32.94
180.624	37.03
180.844	-81.75
181.064	6.31
181.283	2.22
181.503	-48.98
181.723	18.6
181.943	-75.6
182.163	73.9
182.383	26.79
182.602	57.51
182.822	61.61
183.042	-10.07
183.262	-24.4
183.482	63.66
183.701	20.65
183.921	102.57
184.141	-10.07
184.361	53.42
184.58	-26.45
184.8	-44.88
185.02	18.6
185.239	39.08
185.459	55.47
185.679	-16.21
185.898	-14.17
186.118	28.84
186.338	-16.21
186.557	65.71
186.777	-28.5
186.997	-18.26
187.216	0.17
187.436	49.32
187.655	92.33
187.875	37.03
188.095	55.47
188.314	43.18
188.534	57.51
188.753	24.75
188.973	65.71
189.192	22.7
189.412	2.22
189.631	-10.07
189.851	49.32
190.07	43.18
190.29	34.99
190.509	116.9
190.729	49.32
190.948	96.43
191.168	116.9
191.387	59.56
191.607	-46.93
191.826	82.09
192.045	57.51
192.265	57.51
192.484	18.6
192.704	18.6
192.923	24.75
193.142	16.55
193.362	100.52
193.581	73.9
193.8	28.84
194.02	59.56
194.239	18.6
194.458	59.56
194.678	-5.97
194.897	51.37
195.116	-18.26
195.335	55.47
195.555	4.27
195.774	-16.21
195.993	26.79
196.212	16.55
196.432	0.17
196.651	-67.41
196.87	-42.84
197.089	100.52
197.308	30.89
197.528	63.66
197.747	-81.75
197.966	34.99
198.185	59.56
198.404	-12.12
198.623	45.23
198.842	59.56
199.062	98.47
199.281	57.51
199.5	77.99
199.719	-5.97
199.938	30.89
200.157	59.56
200.376	98.47
200.595	53.42
200.814	4.27
201.033	22.7
201.252	53.42
201.471	-8.02
201.69	67.75
201.909	51.37
202.128	49.32
202.347	34.99
202.566	-42.84
202.785	-55.12
203.004	-55.12
203.223	59.56
203.442	-3.93
203.661	-46.93
203.879	57.51
204.098	67.75
204.317	-18.26
204.536	73.9
204.755	24.75
204.974	104.62
205.193	-3.93
205.411	92.33
205.63	82.09
205.849	-16.21
206.068	-26.45
206.287	-18.26
206.505	37.03
206.724	55.47
206.943	51.37
207.162	80.04
207.381	30.89
207.599	-8.02
207.818	10.41
208.037	-77.65
208.255	-36.69
208.474	-26.45
208.693	22.7
208.911	-36.69
209.13	57.51
209.349	-8.02
209.567	-14.17
209.786	84.14
210.005	86.19
210.223	18.6
210.442	0.17
210.661	57.51
210.879	24.75
211.098	10.41
211.316	22.7
211.535	63.66
211.753	45.23
211.972	8.36
212.191	18.6
212.409	2.22
212.628	-3.93
212.846	-30.55
213.065	26.79
213.283	61.61
213.502	30.89
213.72	-8.02
213.938	26.79
214.157	61.61
214.375	67.75
214.594	-14.17
214.812	26.79
215.031	37.03
215.249	10.41
215.467	59.56
215.686	26.79
215.904	69.8
216.122	16.55
216.341	16.55
216.559	24.75
216.778	100.52
216.996	73.9
217.214	-18.26
217.432	4.27
217.651	65.71
217.869	51.37
218.087	51.37
218.306	14.51
218.524	80.04
218.742	4.27
218.96	12.46
219.179	-14.17
219.397	41.13
219.615	65.71
219.833	12.46
220.051	-1.88
220.27	110.76
220.488	104.62
220.706	59.56
220.924	30.89
221.142	-5.97
221.36	98.47
221.578	51.37
221.796	2.22
222.015	51.37
222.233	30.89
222.451	4.27
222.669	2.22
222.887	71.85
223.105	-22.36
223.323	116.9
223.541	-24.4
223.759	-53.08
223.977	2.22
224.195	20.65
224.413	24.75
224.631	30.89
224.849	18.6
225.067	77.99
225.285	39.08
225.503	0.17
225.721	22.7
225.939	-42.84
226.157	8.36
226.375	102.57
226.592	-26.45
226.81	57.51
227.028	116.9
227.246	39.08
227.464	10.41
227.682	55.47
227.9	22.7
228.117	108.71
228.335	-14.17
228.553	26.79
228.771	-30.55
228.989	86.19
229.206	-12.12
229.424	-20.31
229.642	-36.69
229.86	24.75
230.077	106.67
230.295	-3.93
230.513	61.61
230.731	51.37
230.948	96.43
231.166	57.51
231.384	47.27
231.601	14.51
231.819	100.52
232.037	-24.4
232.254	-14.17
232.472	6.31
232.689	-10.07
232.907	26.79
233.125	92.33
233.342	102.57
233.56	-32.6
233.777	-12.12
233.995	45.23
234.213	-8.02
234.43	16.55
234.648	94.38
234.865	45.23
235.083	-57.17
235.3	14.51
235.518	63.66
235.735	45.23
235.953	24.75
236.17	51.37
236.388	51.37
236.605	37.03
236.822	63.66
237.04	30.89
237.257	18.6
237.475	-67.41
237.692	14.51
237.909	10.41
238.127	-14.17
238.344	14.51
238.562	4.27
238.779	-61.27
238.996	-77.65
239.214	88.23
239.431	45.23
239.648	-38.74
239.865	41.13
240.083	37.03
240.3	67.75
240.517	-20.31
240.735	-1.88
240.952	0.17
241.169	8.36
241.386	-8.02
241.603	2.22
241.821	24.75
242.038	84.14
242.255	41.13
242.472	-5.97
242.689	41.13
242.907	84.14
243.124	-20.31
243.341	26.79
243.558	4.27
243.775	-16.21
243.992	-81.75
244.209	63.66
244.426	86.19
244.643	75.95
244.86	-30.55
245.078	90.28
245.295	32.94
245.512	65.71
245.729	28.84
245.946	61.61
246.163	-1.88
246.38	-24.4
246.597	10.41
246.814	49.32
247.031	-40.79
247.248	8.36
247.464	92.33
247.681	51.37
247.898	67.75
248.115	34.99
248.332	-12.12
248.549	-30.55
248.766	96.43
248.983	20.65
249.2	10.41
249.417	22.7
249.633	-24.4
249.85	59.56
250.067	-5.97
250.284	-1.88
250.501	96.43
250.717	24.75
250.934	-30.55
251.151	53.42
251.368	71.85
251.585	47.27
251.801	45.23
252.018	-28.5
252.235	24.75
252.451	-10.07
252.668	-63.32
252.885	43.18
253.102	-20.31
253.318	37.03
253.535	0.17
253.752	28.84
253.968	80.04
254.185	43.18
254.401	-69.46
254.618	110.76
254.835	8.36
255.051	94.38
255.268	37.03
255.484	57.51
255.701	47.27
255.917	45.23
256.134	18.6
256.351	-40.79
256.567	-16.21
256.784	8.36
257	-38.74
257.217	69.8
257.433	57.51
257.65	-8.02
257.866	6.31
258.082	34.99
258.299	-18.26
258.515	-5.97
258.732	-12.12
258.948	-32.6
259.165	80.04
259.381	43.18
259.597	59.56
259.814	16.55
260.03	94.38
260.246	12.46
260.463	53.42
260.679	41.13
260.895	65.71
261.112	98.47
261.328	-10.07
261.544	4.27
261.761	137.38
261.977	20.65
262.193	2.22
262.409	92.33
262.626	-3.93
262.842	47.27
263.058	51.37
263.274	51.37
263.49	53.42
263.707	-12.12
263.923	-28.5
264.139	-69.46
264.355	-12.12
264.571	75.95
264.787	82.09
265.004	-10.07
265.22	43.18
265.436	-59.22
265.652	-8.02
265.868	6.31
266.084	-73.56
266.3	73.9
266.516	-28.5
266.732	4.27
266.948	8.36
267.164	12.46
267.38	102.57
267.596	98.47
267.812	75.95
268.028	12.46
268.244	20.65
268.46	80.04
268.676	24.75
268.892	-1.88
269.108	-22.36
269.324	18.6
269.54	-10.07
269.756	67.75
269.972	-48.98
270.188	30.89
270.403	28.84
270.619	-24.4
270.835	-14.17
271.051	37.03
271.267	16.55
271.483	90.28
271.698	67.75
271.914	-42.84
272.13	63.66
272.346	53.42
272.562	67.75
272.777	16.55
272.993	39.08
273.209	6.31
273.425	28.84
273.64	8.36
273.856	139.43
274.072	-3.93
274.287	16.55
274.503	32.94
274.719	10.41
274.934	20.65
275.15	-30.55
275.366	30.89
275.581	-3.93
275.797	84.14
276.012	14.51
276.228	39.08
276.444	-5.97
276.659	55.47
276.875	8.36
277.09	-20.31
277.306	39.08
277.521	24.75
277.737	34.99
277.952	12.46
278.168	20.65
278.383	118.95
278.599	39.08
278.814	18.6
279.03	6.31
279.245	12.46
279.461	-12.12
279.676	-24.4
279.892	-16.21
280.107	32.94
280.322	-24.4
280.538	71.85
280.753	8.36
280.969	20.65
281.184	80.04
281.399	102.57
281.615	-22.36
281.83	43.18
282.045	-28.5
282.26	6.31
282.476	-8.02
282.691	-22.36
282.906	-14.17
283.122	100.52
283.337	-12.12
283.552	22.7
283.767	-75.6
283.983	98.47
284.198	39.08
284.413	49.32
284.628	22.7
284.843	49.32
285.058	61.61
285.274	-1.88
285.489	-5.97
285.704	104.62
285.919	28.84
286.134	28.84
286.349	12.46
286.564	2.22
286.779	61.61
286.995	73.9
287.21	18.6
287.425	-3.93
287.64	8.36
287.855	43.18
288.07	8.36
288.285	53.42
288.5	71.85
288.715	43.18
288.93	57.51
289.145	-1.88
289.36	30.89
289.575	-1.88
289.79	92.33
290.004	-51.03
290.219	147.62
290.434	71.85
290.649	10.41
290.864	-8.02
291.079	110.76
291.294	16.55
291.509	-8.02
291.724	2.22
291.938	-34.64
292.153	135.34
292.368	61.61
292.583	18.6
292.798	-28.5
293.012	73.9
293.227	51.37
293.442	41.13
293.657	57.51
293.871	77.99
294.086	43.18
294.301	63.66
294.516	-10.07
294.73	61.61
294.945	-38.74
295.16	-1.88
295.374	106.67
295.589	-32.6
295.804	63.66
296.018	63.66
296.233	82.09
296.447	53.42
296.662	-20.31
296.877	-5.97
297.091	10.41
297.306	98.47
297.52	32.94
297.735	34.99
297.949	8.36
298.164	20.65
298.378	39.08
298.593	-20.31
298.807	-12.12
299.022	59.56
299.236	90.28
299.451	14.51
299.665	-36.69
299.88	-20.31
300.094	4.27
300.309	-55.12
300.523	61.61
300.737	-28.5
300.952	18.6
301.166	102.57
301.381	51.37
301.595	18.6
301.809	37.03
302.024	43.18
302.238	51.37
302.452	39.08
302.667	-18.26
302.881	100.52
303.095	114.86
303.309	96.43
303.524	-8.02
303.738	53.42
303.952	65.71
304.166	26.79
304.381	16.55
304.595	41.13
304.809	16.55
305.023	45.23
305.237	-8.02
305.452	-8.02
305.666	94.38
305.88	4.27
306.094	24.75
306.308	106.67
306.522	-12.12
306.736	47.27
306.95	47.27
307.164	71.85
307.379	2.22
307.593	28.84
307.807	12.46
308.021	26.79
308.235	16.55
308.449	37.03
308.663	24.75
308.877	123.05
309.091	6.31
309.305	37.03
309.519	-20.31
309.733	77.99
309.947	-44.88
310.161	75.95
310.374	90.28
310.588	8.36
310.802	34.99
311.016	20.65
311.23	73.9
311.444	49.32
311.658	-100.18
311.872	34.99
312.085	30.89
312.299	37.03
312.513	61.61
312.727	47.27
312.941	45.23
313.154	65.71
313.368	-12.12
313.582	20.65
313.796	116.9
314.009	41.13
314.223	10.41
314.437	10.41
314.651	22.7
314.864	10.41
315.078	37.03
315.292	-8.02
315.505	22.7
315.719	16.55
315.933	-22.36
316.146	0.17
316.36	-12.12
316.573	96.43
316.787	18.6
317.001	34.99
317.214	-36.69
317.428	30.89
317.641	12.46
317.855	30.89
318.068	4.27
318.282	6.31
318.495	137.38
318.709	69.8
318.922	-73.56
319.136	82.09
319.349	65.71
319.563	-65.36
319.776	37.03
319.99	-38.74
320.203	45.23
320.417	8.36
320.63	73.9
320.843	24.75
321.057	49.32
321.27	28.84
321.483	-8.02
321.697	57.51
321.91	12.46
322.124	-10.07
322.337	37.03
322.55	-14.17
322.763	4.27
322.977	-5.97
323.19	-42.84
323.403	34.99
323.617	22.7
323.83	16.55
324.043	49.32
324.256	-3.93
324.469	-5.97
324.683	14.51
324.896	32.94
325.109	-1.88
325.322	16.55
325.535	-12.12
325.748	-3.93
325.962	4.27
326.175	0.17
326.388	0.17
326.601	84.14
326.814	51.37
327.027	82.09
327.24	127.14
327.453	-38.74
327.666	-40.79
327.879	-12.12
328.092	47.27
328.305	61.61
328.518	12.46
328.731	14.51
328.944	34.99
329.157	0.17
329.37	53.42
329.583	102.57
329.796	39.08
330.009	-16.21
330.222	28.84
330.435	34.99
330.648	18.6
330.861	16.55
331.073	135.34
331.286	28.84
331.499	53.42
331.712	-28.5
331.925	86.19
332.138	61.61
332.35	51.37
332.563	61.61
332.776	71.85
332.989	-22.36
333.202	18.6
333.414	16.55
333.627	2.22
333.84	22.7
334.053	-5.97
334.265	-1.88
334.478	-32.6
334.691	18.6
334.903	-44.88
335.116	-38.74
335.329	22.7
335.541	37.03
335.754	22.7
335.966	24.75
336.179	2.22
336.392	-51.03
336.604	116.9
336.817	77.99
337.029	32.94
337.242	16.55
337.454	4.27
337.667	18.6
337.88	51.37
338.092	30.89
338.305	94.38
338.517	-75.6
338.729	34.99
338.942	65.71
339.154	53.42
339.367	-51.03
339.579	26.79
339.792	2.22
340.004	18.6
340.217	28.84
340.429	-8.02
340.641	28.84
340.854	-24.4
341.066	8.36
341.278	-14.17
341.491	51.37
341.703	55.47
341.915	-8.02
342.128	37.03
342.34	4.27
342.552	30.89
342.764	32.94
342.977	45.23
343.189	28.84
343.401	32.94
343.613	-14.17
343.826	133.29
344.038	-12.12
344.25	41.13
344.462	34.99
344.674	8.36
344.886	59.56
345.099	61.61
345.311	10.41
345.523	37.03
345.735	-8.02
345.947	59.56
346.159	88.23
346.371	-14.17
346.583	8.36
346.795	65.71
347.007	39.08
347.219	20.65
347.431	65.71
347.643	90.28
347.855	10.41
348.067	51.37
348.279	-67.41
348.491	59.56
348.703	106.67
348.915	-22.36
349.127	0.17
349.339	-14.17
349.551	-14.17
349.763	65.71
349.975	-73.56
350.187	20.65
350.399	22.7
350.61	2.22
350.822	6.31
351.034	61.61
351.246	106.67
351.458	47.27
351.669	69.8
351.881	-20.31
352.093	59.56
352.305	37.03
352.517	-28.5
352.728	106.67
352.94	32.94
353.152	49.32
353.363	18.6
353.575	41.13
353.787	43.18
353.999	53.42
354.21	96.43
354.422	84.14
354.633	20.65
354.845	84.14
355.057	37.03
355.268	43.18
355.48	43.18
355.692	20.65
355.903	43.18
356.115	34.99
356.326	10.41
356.538	80.04
356.749	-18.26
356.961	90.28
357.172	24.75
357.384	30.89
357.595	84.14
357.807	51.37
358.018	26.79
358.23	24.75
358.441	118.95
358.653	86.19
358.864	-42.84
359.075	16.55
359.287	67.75
359.498	10.41
359.709	20.65
359.921	102.57
360.132	37.03
360.344	86.19
360.555	-5.97
360.766	-14.17
360.977	37.03
361.189	92.33
361.4	6.31
361.611	90.28
361.823	71.85
362.034	47.27
362.245	90.28
362.456	28.84
362.667	61.61
362.879	-34.64
363.09	43.18
363.301	18.6
363.512	20.65
363.723	32.94
363.935	61.61
364.146	-20.31
364.357	43.18
364.568	26.79
364.779	34.99
364.99	53.42
365.201	-42.84
365.412	26.79
365.623	2.22
365.834	47.27
366.045	49.32
366.256	26.79
366.467	24.75
366.678	8.36
366.889	67.75
367.1	49.32
367.311	104.62
367.522	32.94
367.733	12.46
367.944	75.95
368.155	-44.88
368.366	96.43
368.577	110.76
368.788	59.56
368.999	22.7
369.209	14.51
369.42	65.71
369.631	2.22
369.842	34.99
370.053	10.41
370.264	84.14
370.474	2.22
370.685	55.47
370.896	37.03
371.107	96.43
371.317	24.75
371.528	-10.07
371.739	129.19
371.95	67.75
372.16	90.28
372.371	32.94
372.582	37.03
372.792	63.66
373.003	71.85
373.214	0.17
373.424	86.19
373.635	-20.31
373.846	106.67
374.056	51.37
374.267	26.79
374.477	53.42
374.688	14.51
374.898	-18.26
375.109	-14.17
375.319	2.22
375.53	71.85
375.74	104.62
375.951	-26.45
376.161	37.03
376.372	118.95
376.582	-1.88
376.793	59.56
377.003	8.36
377.214	12.46
377.424	12.46
377.635	90.28
377.845	-20.31
378.055	102.57
378.266	-16.21
378.476	-38.74
378.686	37.03
378.897	32.94
379.107	41.13
379.317	57.51
379.528	37.03
379.738	125.1
379.948	-1.88
380.158	67.75
380.369	41.13
380.579	55.47
380.789	53.42
380.999	100.52
381.21	110.76
381.42	102.57
381.63	-5.97
381.84	32.94
382.05	61.61
382.261	51.37
382.471	22.7
382.681	43.18
382.891	84.14
383.101	53.42
383.311	-20.31
383.521	49.32
383.731	43.18
383.941	24.75
384.151	57.51
384.361	16.55
384.571	-18.26
384.781	110.76
384.991	94.38
385.201	135.34
385.411	-12.12
385.621	47.27
385.831	45.23
386.041	82.09
386.251	32.94
386.461	55.47
386.671	59.56
386.881	108.71
387.091	98.47
387.301	34.99
387.511	39.08
387.72	90.28
387.93	18.6
388.14	28.84
388.35	94.38
388.56	67.75
388.769	98.47
388.979	10.41
389.189	-59.22
389.399	-1.88
389.609	34.99
389.818	82.09
390.028	75.95
390.238	102.57
390.447	14.51
390.657	-28.5
390.867	20.65
391.076	-18.26
391.286	104.62
391.496	43.18
391.705	4.27
391.915	106.67
392.125	110.76
392.334	102.57
392.544	98.47
392.753	6.31
392.963	67.75
393.172	73.9
393.382	0.17
393.591	41.13
393.801	61.61
394.01	96.43
394.22	106.67
394.429	129.19
394.639	65.71
394.848	84.14
395.058	-3.93
395.267	106.67
395.477	37.03
395.686	-12.12
395.895	131.24
396.105	149.67
396.314	108.71
396.524	39.08
396.733	39.08
396.942	90.28
397.152	100.52
397.361	153.77
397.57	51.37
397.78	127.14
397.989	100.52
398.198	135.34
398.407	137.38
398.617	65.71
398.826	73.9
399.035	67.75
399.244	63.66
399.453	135.34
399.663	92.33
399.872	127.14
400.081	65.71
400.29	190.63
400.499	53.42
400.708	75.95
400.917	82.09
401.127	77.99
401.336	82.09
401.545	84.14
401.754	161.96
401.963	53.42
402.172	86.19
402.381	75.95
402.59	77.99
402.799	61.61
403.008	63.66
403.217	96.43
403.426	116.9
403.635	69.8
403.844	112.81
404.053	129.19
404.262	104.62
404.471	174.25
404.68	172.2
404.888	102.57
405.097	129.19
405.306	108.71
405.515	92.33
405.724	118.95
405.933	164.01
406.142	182.44
406.35	139.43
406.559	127.14
406.768	123.05
406.977	147.62
407.185	186.54
407.394	141.48
407.603	59.56
407.812	155.82
408.02	159.91
408.229	149.67
408.438	221.35
408.646	174.25
408.855	161.96
409.064	213.16
409.272	200.87
409.481	227.5
409.69	186.54
409.898	231.59
410.107	272.55
410.315	182.44
410.524	239.78
410.733	256.17
410.941	276.65
411.15	266.41
411.358	321.7
411.567	288.93
411.775	258.21
411.984	303.27
412.192	350.37
412.401	370.85
412.609	362.66
412.818	331.94
413.026	440.48
413.234	295.08
413.443	403.62
413.651	393.38
413.86	434.34
414.068	530.59
414.276	583.84
414.485	428.2
414.693	557.22
414.901	549.03
415.11	641.18
415.318	565.41
415.526	567.46
415.734	624.8
415.943	573.6
416.151	518.31
416.359	680.1
416.567	649.38
416.776	751.78
416.984	784.54
417.192	712.86
417.4	731.3
417.608	764.06
417.817	839.84
418.025	807.07
418.233	948.38
418.441	764.06
418.649	860.32
418.857	1036.44
419.065	942.24
419.273	934.04
419.481	1069.21
419.689	1179.8
419.897	1091.74
420.105	1151.13
420.313	1310.87
420.521	1251.48
420.729	1249.43
420.937	1249.43
421.145	1439.89
421.353	1448.08
421.561	1544.34
421.769	1542.29
421.977	1587.35
422.185	1603.73
422.393	1786
422.601	1798.29
422.809	1777.81
423.017	1759.38
423.224	1888.4
423.432	2003.08
423.64	1917.07
423.848	2203.79
424.056	2005.13
424.263	2234.5
424.471	2226.31
424.679	2300.04
424.887	2224.26
425.094	2404.49
425.302	2607.23
425.51	2574.47
425.718	2615.43
425.925	2642.05
426.133	2719.87
426.341	2920.57
426.548	3035.26
426.756	3098.75
426.964	3070.08
427.171	3213.43
427.379	3311.74
427.586	3446.9
427.794	3397.75
428.001	3848.3
428.209	3969.13
428.417	3772.53
428.624	4061.29
428.832	3911.79
429.039	3985.52
429.247	3930.22
429.454	4474.98
429.662	4757.6
429.869	4534.37
430.076	4616.29
430.284	4718.69
430.491	4892.77
430.699	4980.83
430.906	5126.24
431.114	5163.1
431.321	5316.7
431.528	5482.58
431.736	5623.89
431.943	6037.58
432.15	5945.42
432.358	5914.7
432.565	6215.76
432.772	6180.94
432.979	6518.86
433.187	6711.36
433.394	6815.81
433.601	7102.53
433.808	7204.92
434.016	7161.92
434.223	7407.67
434.43	7882.8
434.637	7688.25
434.844	8372.27
435.052	8517.67
435.259	8310.83
435.466	8259.63
435.673	8300.59
435.88	8921.12
436.087	9535.51
436.294	9512.99
436.501	9062.43
436.708	9402.4
436.915	9648.15
437.122	10086.42
437.329	9902.1
437.537	10160.14
437.743	10416.14
437.95	10493.96
438.157	11073.54
438.364	11452.41
438.571	11517.95
438.778	11446.27
438.985	12566.51
439.192	11972.6
439.399	12343.28
439.606	12064.75
439.813	12648.43
440.02	13367.26
440.227	13240.29
440.433	13080.55
440.64	13791.19
440.847	13643.74
441.054	13819.86
441.261	14768.07
441.467	14786.51
441.674	14979.01
441.881	15345.6
442.088	15370.18
442.294	15546.3
442.501	15781.82
442.708	15984.57
442.914	16553.9
443.121	17584.03
443.328	17121.19
443.534	18032.54
443.741	17713.05
443.948	17604.51
444.154	18745.23
444.361	18632.59
444.568	18679.69
444.774	18522
444.981	18896.78
445.187	19502.98
445.394	20344.69
445.6	19980.15
445.807	21856.09
446.013	21116.78
446.22	21628.77
446.426	22251.35
446.633	22601.55
446.839	23304.01
447.046	22298.45
447.252	23410.5
447.459	23457.6
447.665	23488.32
447.871	24571.7
448.078	25468.71
448.284	24547.12
448.491	25057.07
448.697	26044.19
448.903	26461.97
449.11	26523.41
449.316	26060.57
449.522	26525.46
449.728	27246.35
449.935	27434.76
450.141	27166.48
450.347	27868.93
450.553	27375.37
450.76	27862.79
450.966	28352.25
451.172	28266.24
451.378	29335.28
451.584	28610.29
451.791	29196.01
451.997	28919.54
452.203	29427.43
452.409	29624.04
452.615	29566.7
452.821	28593.91
453.027	27940.61
453.233	29495.02
453.44	28241.66
453.646	28686.07
453.852	28866.29
454.058	29130.48
454.264	28208.89
454.47	29363.95
454.676	28221.18
454.882	29419.24
455.088	26916.62
455.294	27215.63
455.5	27365.13
455.705	27596.55
455.911	26777.36
456.117	26214.17
456.323	25808.67
456.529	24487.73
456.735	25546.53
456.941	24674.1
457.147	24387.38
457.352	23740.22
457.558	23357.25
457.764	23586.63
457.97	22959.95
458.176	22572.88
458.381	22384.47
458.587	21485.41
458.793	21303.14
458.999	20387.7
459.204	21628.77
459.41	20897.64
459.616	19738.49
459.821	19961.72
460.027	19648.38
460.233	19273.6
460.438	18370.45
460.644	18546.58
460.85	17606.56
461.055	17686.43
461.261	17418.14
461.466	16015.29
461.672	15704
461.878	16717.74
462.083	15697.85
462.289	15390.66
462.494	15228.87
462.7	14622.67
462.905	14233.55
463.111	14835.66
463.316	14555.08
463.522	14352.34
463.727	14544.84
463.932	14059.48
464.138	14258.13
464.343	14190.55
464.549	13770.71
464.754	14055.38
464.959	14075.86
465.165	14055.38
465.37	13506.52
465.575	13271.01
465.781	13586.4
465.986	13733.85
466.191	13252.58
466.397	12941.29
466.602	12253.17
466.807	12900.33
467.012	12740.58
467.218	12703.72
467.423	12507.12
467.628	12632.04
467.833	13236.19
468.038	12584.94
468.244	12408.81
468.449	12750.82
468.654	12320.75
468.859	12287.98
469.064	12079.09
469.269	11786.23
469.474	12042.23
469.679	12152.82
469.885	11792.37
470.09	11902.97
470.295	11960.31
470.5	11593.72
470.705	11597.82
470.91	11472.89
471.115	11409.4
471.32	11513.85
471.525	11405.31
471.73	11130.88
471.935	10999.81
472.139	10536.97
472.344	10850.31
472.549	10592.27
472.754	10428.43
472.959	10311.69
473.164	10180.62
473.369	10094.61
473.574	10379.28
473.778	10141.71
473.983	10323.98
474.188	10305.55
474.393	9662.49
474.598	9654.3
474.802	9568.28
475.007	9525.27
475.212	9676.82
475.417	9158.69
475.621	9273.37
475.826	9343
476.031	9007.14
476.235	8779.81
476.44	9052.19
476.645	8747.05
476.849	9074.72
477.054	8658.98
477.259	8601.64
477.463	8644.65
477.668	8384.55
477.872	8427.56
478.077	8486.95
478.282	8220.72
478.486	8206.38
478.691	7958.58
478.895	8020.02
479.1	7897.14
479.304	7974.96
479.509	7784.5
479.713	7946.29
479.918	7682.1
480.122	7510.07
480.326	7913.52
480.531	7864.37
480.735	7673.91
480.94	7567.42
481.144	7811.12
481.348	7424.06
481.553	7706.68
481.757	7557.18
481.961	7620.66
482.166	7618.61
482.37	7397.43
482.574	7301.18
482.778	7374.91
482.983	7528.5
483.187	7565.37
483.391	7469.11
483.595	7335.99
483.8	7399.48
484.004	7432.25
484.208	7589.94
484.412	7284.8
484.616	7526.46
484.821	7544.89
485.025	7348.28
485.229	7548.98
485.433	7585.85
485.637	7426.11
485.841	7403.58
486.045	7249.98
486.249	7475.26
486.453	7327.8
486.657	7303.23
486.861	7469.11
487.065	7309.37
487.269	7438.39
487.473	7366.71
487.677	7387.19
487.881	7434.3
488.085	7256.12
488.289	7540.79
488.493	7329.85
488.697	7348.28
488.901	7462.97
489.105	7401.53
489.309	7477.3
489.512	7559.22
489.716	7614.52
489.92	7579.7
490.124	7655.48
490.328	7825.46
490.531	7557.18
490.735	7567.42
490.939	7755.83
491.143	7471.16
491.346	7608.37
491.55	7661.62
491.754	7870.51
491.958	7831.6
492.161	7659.57
492.365	7952.43
492.569	7876.66
492.772	7790.64
492.976	7772.21
493.18	7903.28
493.383	8048.69
493.587	8058.93
493.79	8278.06
493.994	8065.07
494.197	8165.42
494.401	8316.97
494.605	8304.68
494.808	8357.93
495.012	8501.29
495.215	8484.91
495.419	8577.06
495.622	8589.35
495.825	8507.43
496.029	8511.53
496.232	8949.79
496.436	8906.79
496.639	9148.45
496.843	8837.16
497.046	8947.75
497.249	9150.5
497.453	9074.72
497.656	9281.57
497.859	9414.68
498.063	9502.75
498.266	9945.11
498.469	9689.11
498.673	9672.73
498.876	9959.44
499.079	10078.22
499.282	9971.73
499.485	10401.8
499.689	10326.03
499.892	10569.74
500.095	10446.86
500.298	10842.12
500.501	10668.04
500.705	10872.84
500.908	11042.82
501.111	11233.28
501.314	11347.97
501.517	11321.34
501.72	11739.13
501.923	11446.27
502.126	11675.64
502.329	11982.84
502.532	12034.04
502.735	12111.86
502.938	12396.53
503.141	12285.94
503.344	12580.84
503.547	12707.82
503.75	13209.57
503.953	13115.36
504.156	13350.88
504.359	13244.38
504.562	13342.69
504.765	13539.29
504.968	13688.79
505.17	14145.49
505.373	14071.76
505.576	14256.08
505.779	14415.82
505.982	14395.34
506.185	14630.86
506.387	14827.46
506.59	14956.49
506.793	15226.82
506.996	15710.14
507.198	15511.49
507.401	15484.86
507.604	15757.24
507.807	16138.16
508.009	16383.92
508.212	16437.17
508.415	16555.95
508.617	16717.74
508.82	16797.61
509.022	16652.2
509.225	17162.15
509.428	17538.98
509.63	17430.43
509.833	17610.65
510.035	18110.36
510.238	18204.56
510.44	18485.14
510.643	18708.37
510.845	18634.64
511.048	18886.54
511.25	19169.16
511.453	19353.48
511.655	19840.89
511.858	19799.93
512.06	19974.01
512.262	20313.97
512.465	20176.76
512.667	20664.18
512.87	20871.02
513.072	20774.77
513.274	21153.64
513.477	21280.61
513.679	21745.5
513.881	22017.88
514.084	22003.55
514.286	22142.81
514.488	22415.19
514.69	23025.48
514.893	22865.74
515.095	23068.49
515.297	23514.95
515.499	23336.77
515.701	23938.88
515.904	24162.11
516.106	24432.44
516.308	24678.19
516.51	24876.85
516.712	25116.46
516.914	25331.5
517.116	25802.53
517.318	25614.12
517.52	25777.95
517.722	26259.23
517.925	26597.14
518.127	26730.26
518.329	27397.9
518.531	26965.78
518.733	27823.87
518.935	27651.84
519.136	27705.09
519.338	28423.93
519.54	28425.98
519.742	28614.39
519.944	28835.57
520.146	29320.94
520.348	29628.13
520.55	29392.62
520.752	29955.81
520.954	30324.44
521.155	30303.96
521.357	30779.09
521.559	31264.46
521.761	31286.99
521.963	31454.92
522.164	31882.95
522.366	32007.87
522.568	32685.75
522.77	32374.46
522.971	33007.28
523.173	32652.98
523.375	32935.6
523.576	32911.03
523.778	33486.51
523.98	33742.5
524.181	34051.75
524.383	33715.88
524.584	34750.1
524.786	34762.39
524.988	34741.91
525.189	35126.93
525.391	35237.52
525.592	35657.35
525.794	35462.8
525.995	35526.28
526.197	35679.88
526.398	36091.52
526.6	36566.65
526.801	36566.65
527.003	36454.01
527.204	36517.5
527.406	36615.8
527.607	37025.4
527.808	37140.08
528.01	36626.04
528.211	37289.59
528.412	37693.04
528.614	37492.33
528.815	37529.2
529.016	38211.17
529.218	37863.02
529.419	37731.95
529.62	38098.53
529.822	38262.37
530.023	38436.45
530.224	38463.07
530.425	38700.64
530.626	37992.04
530.828	38309.47
531.029	39454.29
531.23	38688.35
531.431	38555.23
531.632	38850.14
531.833	39237.2
532.035	38852.19
532.236	38999.64
532.437	39472.72
532.638	39136.85
532.839	39112.28
533.04	39538.26
533.241	39091.8
533.442	39804.49
533.643	39249.49
533.844	39478.86
534.045	39730.76
534.246	39229.01
534.447	39695.95
534.648	39599.69
534.849	39824.97
535.05	39110.23
535.251	39675.47
535.451	39501.39
535.652	39650.89
535.853	39679.57
536.054	40212.04
536.255	40113.73
536.456	39581.26
536.657	40087.11
536.857	39577.17
537.058	39573.07
537.259	39786.06
537.46	39872.07
537.66	39341.65
537.861	39802.44
538.062	39835.21
538.263	39874.12
538.463	39638.61
538.664	39982.66
538.865	39939.66
539.065	40240.71
539.266	39503.44
539.466	40328.77
539.667	39571.02
539.868	40207.94
540.068	39648.85
540.269	40091.21
540.469	40066.63
540.67	39556.69
540.87	39595.6
541.071	39683.66
541.271	39913.03
541.472	39626.32
541.672	39609.93
541.873	39855.69
542.073	39198.29
542.274	40265.28
542.474	39773.77
542.675	39587.41
542.875	39953.99
543.075	39818.83
543.276	39169.62
543.476	40072.78
543.676	39726.67
543.877	39624.27
544.077	39661.13
544.277	39773.77
544.478	39521.87
544.678	40185.41
544.878	39677.52
545.078	39849.55
545.279	39622.22
545.479	39450.19
545.679	39585.36
545.879	39747.15
546.079	39511.63
546.28	39534.16
546.48	39423.57
546.68	40011.34
546.88	39650.89
547.08	39902.79
547.28	39827.02
547.48	39497.3
547.68	39575.12
547.88	39269.97
548.081	39904.84
548.281	39575.12
548.481	39474.77
548.681	39698
548.881	39370.32
549.081	39237.2
549.28	39659.09
549.48	39900.75
549.68	39644.75
549.88	39937.61
550.08	39118.42
550.28	39528.02
550.48	39546.45
550.68	39411.28
550.88	39284.31
551.08	39226.96
551.279	39599.69
551.479	39059.03
551.679	39327.31
551.879	39654.99
552.079	39589.45
552.278	38837.85
552.478	39210.58
552.678	39716.43
552.878	39442
553.077	39196.24
553.277	39102.04
553.477	39833.16
553.676	39245.4
553.876	39396.95
554.076	38696.54
554.275	38962.78
554.475	38678.11
554.674	38995.54
554.874	38817.37
555.074	38778.46
555.273	39638.61
555.473	39368.27
555.672	38608.48
555.872	38927.96
556.071	38786.65
556.271	38868.57
556.47	38796.89
556.67	38674.01
556.869	38768.22
557.068	38915.67
557.268	38352.48
557.467	38418.02
557.667	38280.8
557.866	38434.4
558.065	38391.39
558.265	38342.24
558.464	37922.41
558.663	38346.34
558.863	37989.99
559.062	38594.14
559.261	37932.65
559.461	38315.62
559.66	37222
559.859	37658.22
560.058	37750.38
560.258	37983.85
560.457	37529.2
560.656	37920.36
560.855	37357.17
561.054	37629.55
561.253	37222
561.453	37371.5
561.652	37236.34
561.851	37070.45
562.05	36929.14
562.249	36855.42
562.448	37449.33
562.647	37011.06
562.846	36388.48
563.045	36918.9
563.244	36277.89
563.443	36894.33
563.642	36562.56
563.841	36347.52
564.04	36183.68
564.239	36681.34
564.438	35862.15
564.637	36273.79
564.836	36146.82
565.035	35483.28
565.234	36118.15
565.432	35780.23
565.631	35978.89
565.83	35808.9
566.029	35417.74
566.228	35165.84
566.427	35387.02
566.625	35176.08
566.824	34899.61
567.023	35239.57
567.222	34252.45
567.42	35470.99
567.619	34993.81
567.818	34657.95
568.016	34803.35
568.215	34965.14
568.414	34512.54
568.612	34616.99
568.811	34334.37
569.01	34354.85
569.208	33863.33
569.407	34166.43
569.605	33531.56
569.804	34078.37
570.002	33537.71
570.201	33773.22
570.4	33597.1
570.598	33171.12
570.797	33013.43
570.995	33162.93
571.193	33093.3
571.392	33058.48
571.59	32632.5
571.789	32911.03
571.987	32372.41
572.186	32548.54
572.384	32698.04
572.582	32425.66
572.781	32495.29
572.979	32194.24
573.177	32282.3
573.376	32124.61
573.574	31721.16
573.772	31704.77
573.971	31375.05
574.169	31620.81
574.367	31248.08
574.565	31559.37
574.763	31440.59
574.962	31551.18
575.16	30605.02
575.358	31037.14
575.556	30975.7
575.754	31157.97
575.952	30504.67
576.151	30676.69
576.349	30650.07
576.547	30844.63
576.745	30271.2
576.943	30770.9
577.141	30334.68
577.339	30465.75
577.537	29980.39
577.735	29949.67
577.933	29697.77
578.131	29679.33
578.329	29791.97
578.527	29564.65
578.725	29886.18
578.923	29808.36
579.121	29376.23
579.319	29230.83
579.516	29165.29
579.714	29062.9
579.912	29038.32
580.11	29050.61
580.308	28847.86
580.506	28767.99
580.704	28612.34
580.901	28483.32
581.099	28774.13
581.297	28630.77
581.495	28559.09
581.692	28401.4
581.89	27897.6
582.088	28126.97
582.285	28342.01
582.483	28002.05
582.681	27956.99
582.878	27662.08
583.076	27694.85
583.274	27817.73
583.471	27283.21
583.669	27920.13
583.866	27002.64
584.064	27717.38
584.262	27006.73
584.459	27678.47
584.657	27229.96
584.854	27447.05
585.052	26953.49
585.249	26517.27
585.447	26973.97
585.644	26353.43
585.841	26490.65
586.039	26875.66
586.236	26269.47
586.434	26330.9
586.631	25974.56
586.828	26507.03
587.026	26007.33
587.223	26036
587.42	25935.65
587.618	26236.7
587.815	25626.4
588.012	25933.6
588.21	25700.13
588.407	25556.77
588.604	25616.16
588.801	25233.19
588.999	25462.57
589.196	25321.26
589.393	25259.82
589.59	25202.47
589.787	24751.92
589.984	25116.46
590.182	24897.33
590.379	25059.12
590.576	24516.4
590.773	24774.45
590.97	24528.69
591.167	24643.38
591.364	24377.14
591.561	24672.05
591.758	24078.14
591.955	24213.31
592.152	24600.37
592.349	24166.2
592.546	24334.14
592.743	24096.57
592.94	23727.94
593.137	24074.04
593.334	24100.67
593.531	23344.97
593.727	23705.41
593.924	23740.22
594.121	23510.85
594.318	23392.07
594.515	23084.87
594.712	23359.3
594.908	23312.2
595.105	23070.54
595.302	23066.44
595.499	23361.35
595.696	23152.46
595.892	22749.01
596.089	22968.14
596.286	22810.45
596.482	22749.01
596.679	22613.84
596.876	22751.06
597.072	22533.97
597.269	22462.29
597.466	22337.37
597.662	22464.34
597.859	22300.5
598.055	22198.1
598.252	22263.64
598.448	22273.88
598.645	22085.47
598.841	21747.55
599.038	21935.96
599.234	21915.48
599.431	21505.89
599.627	21636.96
599.824	21688.16
600.02	21479.27
600.217	21534.56
600.413	21495.65
600.609	21460.84
600.806	21106.54
601.002	21147.5
601.198	21249.89
601.395	20838.25
601.591	21092.2
601.787	21024.62
601.984	20907.88
602.18	20973.42
602.376	20676.46
602.572	20254.58
602.769	20379.51
602.965	20316.02
603.161	20356.98
603.357	20285.3
603.553	20365.17
603.75	20324.21
603.946	20176.76
604.142	20135.8
604.338	20117.37
604.534	20133.75
604.73	19990.39
604.926	19607.42
605.122	20033.4
605.318	19726.21
605.514	19713.92
605.71	19500.93
605.906	19627.9
606.102	19560.32
606.298	19576.7
606.494	19660.67
606.69	19472.26
606.886	19345.28
607.082	19193.73
607.278	19521.41
607.474	18982.79
607.67	19376
607.866	18876.3
608.062	19343.24
608.257	18876.3
608.453	18741.13
608.649	18990.98
608.845	18685.84
609.041	19042.18
609.236	18673.55
609.432	18687.89
609.628	18691.98
609.824	18565.01
610.019	18405.27
610.215	18352.02
610.411	18575.25
610.606	18300.82
610.802	18583.44
610.998	18177.94
611.193	18356.11
611.389	17948.57
611.584	18130.84
611.78	18040.73
611.976	18304.92
612.171	18235.28
612.367	18198.42
612.562	17958.81
612.758	17807.26
612.953	18007.96
613.149	17745.82
613.344	17852.31
613.539	17907.61
613.735	17778.59
613.93	17852.31
614.126	17541.02
614.321	17840.03
614.517	17616.8
614.712	17586.08
614.907	17450.91
615.103	17762.2
615.298	17573.79
615.493	17371.04
615.688	17354.66
615.884	17686.43
616.079	17274.79
616.274	17250.21
616.47	17237.92
616.665	17287.07
616.86	17301.41
617.055	17053.61
617.25	16803.75
617.445	17041.32
617.641	16881.58
617.836	17160.1
618.031	16615.34
618.226	16887.72
618.421	17123.24
618.616	16922.54
618.811	16762.79
619.006	16848.81
619.201	16265.14
619.396	16664.49
619.591	16187.32
619.786	16263.09
619.981	16158.64
620.176	16488.37
620.371	16215.99
620.566	16271.28
620.761	15980.47
620.956	16121.78
621.151	15906.74
621.346	15980.47
621.541	15460.29
621.735	15947.7
621.93	15685.56
622.125	15634.36
622.32	15566.78
622.515	15417.28
622.709	15222.72
622.904	15298.5
623.099	15278.02
623.294	15245.25
623.488	14815.18
623.683	14983.11
623.878	14829.51
624.072	14825.42
624.267	14665.67
624.462	14700.49
624.656	14505.93
624.851	14495.69
625.046	14346.19
625.24	14170.07
625.435	14309.33
625.629	14225.36
625.824	13973.46
626.018	14110.68
626.213	13651.93
626.407	13895.64
626.602	13783
626.796	13783
626.991	13750.23
627.185	13565.92
627.38	13785.05
627.574	13268.96
627.768	13150.18
627.963	13320.16
628.157	12963.81
628.352	13141.99
628.546	13037.54
628.74	13035.49
628.935	12943.33
629.129	13027.3
629.323	12722.15
629.517	12834.79
629.712	12763.11
629.906	12586.99
630.1	12437.48
630.294	12478.44
630.489	12591.08
630.683	12462.06
630.877	12161.01
631.071	12234.74
631.265	12031.99
631.459	12136.43
631.653	12001.27
631.848	11945.97
632.042	11925.49
632.236	11687.93
632.43	11808.76
632.624	11655.16
632.818	11616.25
633.012	11571.19
633.206	11304.96
633.4	11739.13
633.594	11317.25
633.788	11315.2
633.982	11343.87
634.176	11307.01
634.369	11081.73
634.563	11241.47
634.757	11024.39
634.951	11040.77
635.145	10921.99
635.339	10903.56
635.533	10743.81
635.726	10852.36
635.92	10549.26
636.114	10752.01
636.308	10543.11
636.501	10612.74
636.695	10379.28
636.889	10330.13
637.083	10412.04
637.276	10301.45
637.47	10106.9
637.664	10166.29
637.857	10182.67
638.051	10024.98
638.244	9936.92
638.438	9885.72
638.632	9793.56
638.825	9756.69
639.019	9728.02
639.212	9824.28
639.406	9730.07
639.599	9642.01
639.793	9850.9
639.986	9443.35
640.18	9404.44
640.373	9383.96
640.567	9310.24
640.76	9506.84
640.954	9410.59
641.147	9179.17
641.34	9242.65
641.534	9082.91
641.727	9121.82
641.92	9089.06
642.114	8871.97
642.307	8994.85
642.5	8759.33
642.694	8691.75
642.887	8593.45
643.08	8734.76
643.273	8804.39
643.467	8630.31
643.66	8480.81
643.853	8362.03
644.046	8476.71
644.239	8458.28
644.432	8402.99
644.626	8114.22
644.819	8312.88
645.012	8259.63
645.205	8380.46
645.398	8097.84
645.591	8063.02
645.784	8144.94
645.977	7809.08
646.17	8034.35
646.363	8040.5
646.556	7747.64
646.749	7790.64
646.942	7954.48
647.135	7706.68
647.328	7737.4
647.521	7671.86
647.714	7637.05
647.907	7559.22
648.099	7501.88
648.292	7661.62
648.485	7536.7
648.678	7450.68
648.871	7434.3
649.064	7417.91
649.256	7284.8
649.449	7354.43
649.642	7198.78
649.835	7292.99
650.027	7206.97
650.22	7317.56
650.413	7139.39
650.605	7161.92
650.798	7004.22
650.991	6903.87
651.183	6871.11
651.376	6948.93
651.568	6850.63
651.761	6955.07
651.954	6848.58
652.146	6772.8
652.339	6770.76
652.531	6737.99
652.724	6570.05
652.916	6512.71
653.109	6725.7
653.301	6580.29
653.494	6602.82
653.686	6520.9
653.879	6352.97
654.071	6395.98
654.263	6246.48
654.456	6369.35
654.648	6471.75
654.84	6199.37
655.033	6137.93
655.225	6334.54
655.417	6219.85
655.61	6199.37
655.802	6074.45
655.994	6211.66
656.186	5984.34
656.379	6078.54
656.571	6002.77
656.763	6101.07
656.955	5949.52
657.148	6015.05
657.34	6004.82
657.532	5802.07
657.724	5763.15
657.916	5908.56
658.108	5779.54
658.3	5818.45
658.492	5738.58
658.684	5572.69
658.876	5621.84
659.068	5652.56
659.26	5484.63
659.452	5718.1
659.644	5584.98
659.836	5589.08
660.028	5537.88
660.22	5455.96
660.412	5505.11
660.604	5535.83
660.796	5425.24
660.988	5365.85
661.18	5316.7
661.372	5212.25
661.563	5259.35
661.755	5259.35
661.947	5384.28
662.139	5169.24
662.331	5128.28
662.522	5218.4
662.714	5210.2
662.906	5156.96
663.097	5230.68
663.289	5093.47
663.481	5140.57
663.673	5027.93
663.864	4917.34
664.056	4931.68
664.247	4982.88
664.439	4917.34
664.631	4905.06
664.822	5021.79
665.014	4724.83
665.205	4866.14
665.397	4814.95
665.588	4896.86
665.78	4749.41
665.971	4802.66
666.163	4739.17
666.354	4831.33
666.546	4925.54
666.737	4622.44
666.929	4638.82
667.12	4647.01
667.311	4743.27
667.503	4636.77
667.694	4737.12
667.885	4481.13
668.077	4479.08
668.268	4542.57
668.459	4489.32
668.651	4452.45
668.842	4497.51
669.033	4495.46
669.224	4423.78
669.416	4454.5
669.607	4448.36
669.798	4460.65
669.989	4503.65
670.18	4456.55
670.371	4421.74
670.563	4378.73
670.754	4448.36
670.945	4395.11
671.136	4376.68
671.327	4274.28
671.518	4233.32
671.709	4454.5
671.9	4255.85
672.091	4315.24
672.282	4305
672.473	4243.56
672.664	4253.8
672.855	4221.03
673.046	4157.55
673.237	4221.03
673.428	4200.55
673.619	4360.3
673.809	4132.97
674	4092.01
674.191	4098.16
674.382	4151.4
674.573	4264.04
674.764	4055.15
674.954	4149.36
675.145	4067.44
675.336	3936.37
675.527	4149.36
675.717	4202.6
675.908	4087.92
676.099	4094.06
676.289	4032.62
676.48	4087.92
676.671	4218.99
676.861	3985.52
677.052	4073.58
677.243	4022.38
677.433	3907.7
677.624	4206.7
677.814	4036.72
678.005	3926.13
678.195	4139.12
678.386	3999.85
678.576	3969.13
678.767	3981.42
678.957	3985.52
679.148	3836.02
679.338	4067.44
679.529	4034.67
679.719	4063.34
679.909	4067.44
680.1	4040.81
680.29	4022.38
680.481	3915.89
680.671	4092.01
680.861	3854.45
681.052	4075.63
681.242	4012.14
681.432	3997.81
681.622	3946.61
681.813	3932.27
682.003	3919.98
682.193	3962.99
682.383	4077.68
682.573	4032.62
682.764	3887.22
682.954	4112.49
683.144	3934.32
683.334	3860.59
683.524	3821.68
683.714	3856.5
683.904	3954.8
684.094	3842.16
684.284	3883.12
684.474	4020.33
684.664	3932.27
684.854	3862.64
685.044	4001.9
685.234	3870.83
685.424	3752.05
685.614	3807.34
685.804	3944.56
685.994	3725.43
686.184	3760.24
686.374	3989.61
686.564	3870.83
686.753	3782.77
686.943	3590.26
687.133	3788.91
687.323	3747.95
687.513	3919.98
687.702	3825.78
687.892	3690.61
688.082	3649.65
688.272	3604.6
688.461	3489.91
688.651	3580.02
688.841	3616.88
689.03	3604.6
689.22	3520.63
689.41	3641.46
689.599	3637.36
689.789	3534.96
689.979	3635.32
690.168	3649.65
690.358	3469.43
690.547	3508.34
690.737	3360.89
690.926	3424.37
691.116	3360.89
691.305	3473.53
691.495	3369.08
691.684	3364.98
691.874	3428.47
692.063	3393.65
692.252	3367.03
692.442	3283.06
692.631	3346.55
692.82	3203.19
693.01	3342.46
693.199	3307.64
693.388	3283.06
693.578	3207.29
693.767	3299.45
693.956	3367.03
694.146	3225.72
694.335	3203.19
694.524	3252.35
694.713	3258.49
694.902	3283.06
695.092	3195
695.281	3166.33
695.47	2982.01
695.659	3053.69
695.848	3051.64
696.037	3141.75
696.226	3033.21
696.415	3123.32
696.604	3213.43
696.793	2982.01
696.982	3063.93
697.171	3072.12
697.36	3117.18
697.549	3162.23
697.738	2914.43
697.927	3039.36
698.116	3135.61
698.305	3078.27
698.494	2896
698.683	3053.69
698.872	3051.64
699.061	3100.8
699.25	2994.3
699.438	3010.68
699.627	3139.71
699.816	3213.43
700.005	3178.62
700.193	3055.74
700.382	3014.78
700.571	2867.33
700.76	3037.31
700.948	3162.23
701.137	3084.41
701.326	3047.55
701.514	3154.04
701.703	2973.82
701.892	2975.87
702.08	3053.69
702.269	3039.36
702.457	3086.46
702.646	3016.83
702.834	2967.68
703.023	2957.44
703.212	2822.27
703.4	2848.9
703.589	2990.21
703.777	3008.64
703.965	2984.06
704.154	2984.06
704.342	3029.12
704.531	2955.39
704.719	3018.88
704.907	3065.98
705.096	2973.82
705.284	2973.82
705.472	3020.92
705.661	2992.25
705.849	2936.96
706.037	3080.32
706.226	2914.43
706.414	2975.87
706.602	2951.29
706.79	3047.55
706.979	3037.31
707.167	3076.22
707.355	3137.66
707.543	3219.58
707.731	3123.32
707.919	3100.8
708.107	3039.36
708.296	3059.84
708.484	3082.36
708.672	3006.59
708.86	3063.93
709.048	3186.81
709.236	3070.08
709.424	3072.12
709.612	3027.07
709.8	3131.51
709.988	2941.05
710.176	3057.79
710.364	3135.61
710.551	3174.52
710.739	2926.72
710.927	3053.69
711.115	2979.97
711.303	3008.64
711.491	2979.97
711.679	3041.4
711.866	3049.6
712.054	3090.56
712.242	3084.41
712.43	3199.1
712.617	2971.77
712.805	3076.22
712.993	2994.3
713.181	3176.57
713.368	3090.56
713.556	3217.53
713.744	3229.82
713.931	3250.3
714.119	2998.4
714.306	3016.83
714.494	3068.03
714.682	3123.32
714.869	3061.88
715.057	3160.19
715.244	3188.86
715.432	3174.52
715.619	3084.41
715.807	3113.08
715.994	3205.24
716.182	3149.95
716.369	3276.92
716.556	3096.7
716.744	3170.43
716.931	3205.24
717.119	3180.67
717.306	3254.39
717.493	3074.17
717.681	3139.71
717.868	3225.72
718.055	3182.71
718.242	3244.15
718.43	3289.21
718.617	3248.25
718.804	3352.7
718.991	3289.21
719.179	3209.34
719.366	3192.95
719.553	3108.99
719.74	3078.27
719.927	3164.28
720.114	3250.3
720.301	3129.47
720.488	3156.09
720.676	3190.91
720.863	3285.11
721.05	3369.08
721.237	3356.79
721.424	3238.01
721.611	3276.92
721.798	3260.54
721.985	3311.74
722.172	3332.22
722.358	3203.19
722.545	3276.92
722.732	3235.96
722.919	3270.78
723.106	3221.63
723.293	3217.53
723.48	3340.41
723.667	3293.3
723.853	3321.98
724.04	3297.4
724.227	3424.37
724.414	3205.24
724.6	3330.17
724.787	3332.22
724.974	3381.37
725.161	3424.37
725.347	3199.1
725.534	3317.88
725.72	3387.51
725.907	3315.83
726.094	3448.95
726.28	3432.57
726.467	3391.61
726.653	3291.26
726.84	3291.26
727.027	3496.05
727.213	3211.39
727.4	3506.29
727.586	3418.23
727.773	3283.06
727.959	3426.42
728.145	3344.5
728.332	3369.08
728.518	3453.05
728.705	3373.18
728.891	3362.94
729.077	3426.42
729.264	3391.61
729.45	3307.64
729.636	3289.21
729.823	3244.15
730.009	3440.76
730.195	3532.92
730.382	3307.64
730.568	3391.61
730.754	3469.43
730.94	3311.74
731.126	3502.2
731.313	3489.91
731.499	3469.43
731.685	3528.82
731.871	3340.41
732.057	3618.93
732.243	3571.83
732.429	3477.62
732.615	3489.91
732.801	3440.76
732.987	3465.33
733.173	3471.48
733.359	3469.43
733.545	3379.32
733.731	3457.14
733.917	3481.72
734.103	3545.2
734.289	3588.21
734.475	3428.47
734.661	3534.96
734.847	3577.97
735.033	3369.08
735.219	3577.97
735.404	3399.8
735.59	3510.39
735.776	3451
735.962	3364.98
736.148	3555.44
736.333	3580.02
736.519	3442.81
736.705	3489.91
736.89	3604.6
737.076	3438.71
737.262	3430.52
737.447	3512.44
737.633	3463.29
737.819	3270.78
738.004	3434.61
738.19	3534.96
738.375	3422.33
738.561	3360.89
738.747	3473.53
738.932	3420.28
739.118	3453.05
739.303	3537.01
739.489	3412.09
739.674	3367.03
739.859	3256.44
740.045	3479.67
740.23	3375.22
740.416	3248.25
740.601	3440.76
740.786	3440.76
740.972	3330.17
741.157	3326.07
741.342	3432.57
741.528	3328.12
741.713	3381.37
741.898	3463.29
742.084	3401.85
742.269	3260.54
742.454	3426.42
742.639	3430.52
742.824	3317.88
743.01	3285.11
743.195	3338.36
743.38	3451
743.565	3192.95
743.75	3311.74
743.935	3203.19
744.12	3205.24
744.305	3217.53
744.49	3358.84
744.675	3231.87
744.86	3158.14
745.045	3311.74
745.23	3176.57
745.415	3192.95
745.6	3278.97
745.785	3049.6
745.97	3324.02
746.155	2865.28
746.34	3178.62
746.525	3092.6
746.71	3100.8
746.895	3072.12
747.079	2996.35
747.264	3012.73
747.449	2951.29
747.634	3072.12
747.819	2949.25
748.003	2801.79
748.188	2953.34
748.373	2781.31
748.557	2936.96
748.742	2844.8
748.927	2936.96
749.111	2869.37
749.296	2844.8
749.481	2863.23
749.665	2746.5
749.85	2840.7
750.034	2676.87
750.219	2785.41
750.404	2752.64
750.588	2685.06
750.773	2701.44
750.957	2717.83
751.141	2717.83
751.326	2633.86
751.51	2599.04
751.695	2543.75
751.879	2662.53
752.064	2564.23
752.248	2545.8
752.432	2515.08
752.617	2689.15
752.801	2570.37
752.985	2429.06
753.17	2504.84
753.354	2500.74
753.538	2338.95
753.722	2351.24
753.907	2445.45
754.091	2416.77
754.275	2488.45
754.459	2418.82
754.643	2277.51
754.828	2238.6
755.012	2162.83
755.196	2259.08
755.38	2377.86
755.564	2267.27
755.748	2267.27
755.932	2273.42
756.116	2193.55
756.3	2201.74
756.484	2148.49
756.668	2238.6
756.852	2099.34
757.036	2150.54
757.22	2035.85
757.404	2142.35
757.588	2111.63
757.772	2109.58
757.956	2062.48
758.14	2132.11
758.323	1941.65
758.507	2099.34
758.691	1994.89
758.875	1949.84
759.059	1982.6
759.242	1890.45
759.426	1833.1
759.61	1833.1
759.794	2052.24
759.977	1839.25
760.161	1960.08
760.345	1904.78
760.528	1831.05
760.712	1923.21
760.895	1964.17
761.079	1882.25
761.263	1908.88
761.446	1831.05
761.63	1826.96
761.813	1872.01
761.997	1900.69
762.18	1777.81
762.364	1810.58
762.547	1742.99
762.731	1740.94
762.914	1859.73
763.098	1755.28
763.281	1732.75
763.464	1720.46
763.648	1777.81
763.831	1687.7
764.015	1759.38
764.198	1745.04
764.381	1687.7
764.564	1808.53
764.748	1671.31
764.931	1687.7
765.114	1656.98
765.297	1810.58
765.481	1640.59
765.664	1671.31
765.847	1650.83
766.03	1671.31
766.213	1581.2
766.397	1656.98
766.58	1579.15
766.763	1644.69
766.946	1525.91
767.129	1605.78
767.312	1568.91
767.495	1603.73
767.678	1540.24
767.861	1544.34
768.044	1480.85
768.227	1505.43
768.41	1501.33
768.593	1530
768.776	1562.77
768.959	1562.77
769.142	1523.86
769.324	1525.91
769.507	1577.11
769.69	1441.94
769.873	1400.98
770.056	1540.24
770.239	1443.99
770.421	1464.47
770.604	1419.41
770.787	1435.8
770.97	1400.98
771.152	1378.45
771.335	1368.21
771.518	1360.02
771.7	1419.41
771.883	1409.17
772.066	1364.12
772.248	1304.73
772.431	1446.04
772.613	1396.89
772.796	1357.97
772.978	1290.39
773.161	1333.4
773.343	1308.82
773.526	1245.34
773.708	1276.06
773.891	1200.28
774.073	1226.9
774.256	1171.61
774.438	1282.2
774.621	1265.82
774.803	1286.3
774.985	1198.23
775.168	1202.33
775.35	1185.94
775.532	1196.18
775.715	1194.14
775.897	1169.56
776.079	1190.04
776.261	1134.75
776.444	1140.89
776.626	1112.22
776.808	1126.55
776.99	1065.11
777.173	1095.83
777.355	1106.07
777.537	1026.2
777.719	1149.08
777.901	1065.11
778.083	1122.46
778.265	1015.96
778.447	1087.64
778.629	1056.92
778.811	1079.45
778.993	1112.22
779.175	960.67
779.357	1040.54
779.539	979.1
779.721	1009.82
779.903	972.96
780.085	913.56
780.267	997.53
780.449	1034.39
780.631	944.28
780.812	1015.96
780.994	934.04
781.176	913.56
781.358	981.15
781.54	811.17
781.721	925.85
781.903	831.65
782.085	882.85
782.267	866.46
782.448	800.93
782.63	831.65
782.812	919.71
782.993	805.02
783.175	841.89
783.357	860.32
783.538	809.12
783.72	825.5
783.901	845.98
784.083	843.93
784.264	815.26
784.446	757.92
784.627	712.86
784.809	831.65
784.99	702.62
785.172	848.03
785.353	696.48
785.535	725.15
785.716	708.77
785.897	702.62
786.079	673.95
786.26	725.15
786.441	741.54
786.623	594.08
786.804	696.48
786.985	796.83
787.167	721.06
787.348	663.71
787.529	686.24
787.71	690.34
787.891	602.27
788.073	655.52
788.254	694.43
788.435	612.51
788.616	661.66
788.797	700.58
788.978	616.61
789.159	628.9
789.34	616.61
789.522	608.42
789.703	503.97
789.884	528.55
790.065	622.75
790.246	549.03
790.427	604.32
790.607	559.27
790.788	602.27
790.969	542.88
791.15	612.51
791.331	544.93
791.512	512.16
791.693	581.79
791.874	596.13
792.054	643.23
792.235	571.55
792.416	467.11
792.597	485.54
792.778	538.79
792.958	577.7
793.139	514.21
793.32	559.27
793.5	510.11
793.681	540.83
793.862	506.02
794.042	610.47
794.223	532.64
794.404	463.01
794.584	503.97
794.765	381.09
794.945	536.74
795.126	454.82
795.306	479.4
795.487	514.21
795.667	471.2
795.848	497.83
796.028	477.35
796.209	485.54
796.389	559.27
796.57	471.2
796.75	411.81
796.93	446.63
797.111	401.57
797.291	428.2
797.471	458.92
797.652	399.52
797.832	387.24
798.012	530.59
798.192	424.1
798.373	387.24
798.553	311.46
798.733	442.53
798.913	448.68
799.093	315.56
799.274	508.07
799.454	487.59
799.634	409.76
799.814	481.44
799.994	407.72
800.174	420
800.354	413.86
800.534	313.51
800.714	315.56
800.894	430.24
801.074	319.65
801.254	397.48
801.434	387.24
801.614	303.27
801.794	409.76
801.974	1075.35
802.154	403.62
802.334	411.81
802.514	350.37
802.693	377
802.873	331.94
803.053	411.81
803.233	280.74
803.413	374.95
803.592	247.97
803.772	231.59
803.952	442.53
804.131	374.95
804.311	344.23
804.491	336.04
804.67	331.94
804.85	329.89
805.03	215.21
805.209	417.96
805.389	356.52
805.568	276.65
805.748	284.84
805.928	374.95
806.107	207.02
806.287	286.89
806.466	293.03
806.646	325.8
806.825	290.98
807.004	290.98
807.184	319.65
807.363	311.46
807.543	280.74
807.722	237.74
807.901	338.09
808.081	272.55
808.26	268.45
808.439	256.17
808.619	315.56
808.798	331.94
808.977	342.18
809.156	311.46
809.336	293.03
809.515	282.79
809.694	256.17
809.873	188.58
810.052	338.09
810.231	274.6
810.411	254.12
810.59	276.65
810.769	200.87
810.948	280.74
811.127	235.69
811.306	223.4
811.485	221.35
811.664	327.85
811.843	252.07
812.022	229.54
812.201	231.59
812.38	227.5
812.559	231.59
812.737	278.69
812.916	223.4
813.095	282.79
813.274	252.07
813.453	272.55
813.632	303.27
813.811	280.74
813.989	168.1
814.168	331.94
814.347	245.93
814.526	227.5
814.704	297.13
814.883	290.98
815.062	174.25
815.24	293.03
815.419	196.78
815.598	301.22
815.776	137.38
815.955	180.39
816.133	194.73
816.312	241.83
816.49	168.1
816.669	178.34
816.847	233.64
817.026	280.74
817.204	225.45
817.383	186.54
817.561	178.34
817.74	250.02
817.918	204.97
818.097	139.43
818.275	96.43
818.453	231.59
818.632	196.78
818.81	127.14
818.988	172.2
819.167	192.68
819.345	200.87
819.523	100.52
819.701	217.26
819.879	233.64
820.058	243.88
820.236	135.34
820.414	231.59
820.592	170.15
820.77	96.43
820.948	200.87
821.127	209.06
821.305	98.47
821.483	118.95
821.661	168.1
821.839	182.44
822.017	149.67
822.195	184.49
822.373	200.87
822.551	104.62
822.729	252.07
822.907	213.16
823.085	176.3
823.262	247.97
823.44	204.97
823.618	168.1
823.796	235.69
823.974	192.68
824.152	123.05
824.329	100.52
824.507	161.96
824.685	108.71
824.863	116.9
825.04	172.2
825.218	207.02
825.396	143.53
825.574	204.97
825.751	161.96
825.929	186.54
826.107	137.38
826.284	161.96
826.462	112.81
826.639	135.34
826.817	129.19
826.994	180.39
827.172	106.67
827.349	270.5
827.527	211.11
827.704	194.73
827.882	96.43
828.059	88.23
828.237	118.95
828.414	170.15
828.591	106.67
828.769	96.43
828.946	139.43
829.124	168.1
829.301	164.01
829.478	135.34
829.655	69.8
829.833	116.9
830.01	45.23
830.187	176.3
830.364	88.23
830.542	186.54
830.719	168.1
830.896	82.09
831.073	161.96
831.25	137.38
831.427	139.43
831.604	92.33
831.782	168.1
831.959	127.14
832.136	143.53
832.313	114.86
832.49	114.86
832.667	104.62
832.844	112.81
833.021	135.34
833.198	129.19
833.374	188.58
833.551	86.19
833.728	73.9
833.905	141.48
834.082	10.41
834.259	92.33
834.436	82.09
834.612	125.1
834.789	112.81
834.966	143.53
835.143	98.47
835.319	67.75
835.496	164.01
835.673	80.04
835.85	155.82
836.026	135.34
836.203	30.89
836.38	49.32
836.556	67.75
836.733	123.05
836.909	49.32
837.086	67.75
837.262	88.23
837.439	71.85
837.616	53.42
837.792	71.85
837.968	108.71
838.145	20.65
838.321	41.13
838.498	123.05
838.674	100.52
838.851	47.27
839.027	104.62
839.203	71.85
839.38	84.14
839.556	82.09
839.732	139.43
839.909	137.38
840.085	153.77
840.261	61.61
840.437	112.81
840.614	73.9
840.79	92.33
840.966	37.03
841.142	34.99
841.318	139.43
841.494	123.05
841.671	114.86
841.847	133.29
842.023	24.75
842.199	100.52
842.375	34.99
842.551	-18.26
842.727	47.27
842.903	125.1
843.079	-14.17
843.255	65.71
843.431	14.51
843.607	39.08
843.783	102.57
843.959	98.47
844.134	53.42
844.31	137.38
844.486	77.99
844.662	67.75
844.838	53.42
845.013	108.71
845.189	24.75
845.365	67.75
845.541	88.23
845.716	51.37
845.892	110.76
846.068	51.37
846.244	12.46
846.419	80.04
846.595	30.89
846.77	20.65
846.946	139.43
847.122	108.71
847.297	-16.21
847.473	18.6
847.648	10.41
847.824	63.66
847.999	20.65
848.175	96.43
848.35	65.71
848.526	100.52
848.701	88.23
848.876	71.85
849.052	73.9
849.227	86.19
849.403	26.79
849.578	118.95
849.753	63.66
849.929	96.43
850.104	67.75
850.279	84.14
850.454	112.81
850.63	49.32
850.805	75.95
850.98	108.71
851.155	63.66
851.33	30.89
851.505	6.31
851.681	114.86
851.856	55.47
852.031	34.99
852.206	59.56
852.381	47.27
852.556	41.13
852.731	65.71
852.906	65.71
853.081	-12.12
853.256	45.23
853.431	14.51
853.606	8.36
853.781	30.89
853.956	-18.26
854.131	24.75
854.305	-10.07
854.48	104.62
854.655	-59.22
854.83	14.51
855.005	53.42
855.18	49.32
855.354	69.8
855.529	67.75
855.704	28.84
855.879	28.84
856.053	24.75
856.228	65.71
856.403	51.37
856.577	57.51
856.752	-3.93
856.926	26.79
857.101	84.14
857.276	-30.55
857.45	53.42
857.625	53.42
857.799	51.37
857.974	14.51
858.148	30.89
858.323	45.23
858.497	67.75
858.672	-83.8
858.846	34.99
859.02	16.55
859.195	57.51
859.369	4.27
859.543	139.43
859.718	59.56
859.892	34.99
860.066	57.51
860.241	-12.12
860.415	86.19
860.589	-40.79
860.763	96.43
860.938	86.19
861.112	16.55
861.286	51.37
861.46	90.28
861.634	-3.93
861.808	69.8
861.982	-5.97
862.157	-8.02
862.331	-24.4
862.505	-10.07
862.679	-5.97
862.853	12.46
863.027	30.89
863.201	106.67
863.375	53.42
863.549	39.08
863.722	30.89
863.896	123.05
864.07	-30.55
864.244	0.17
864.418	47.27
864.592	67.75
864.766	6.31
864.939	80.04
865.113	-26.45
865.287	82.09
865.461	-22.36
865.634	12.46
865.808	26.79
865.982	-22.36
866.156	14.51
866.329	-26.45
866.503	-89.94
866.676	43.18
866.85	-3.93
867.024	-55.12
867.197	49.32
867.371	14.51
867.544	12.46
867.718	18.6
867.891	59.56
868.065	20.65
868.238	22.7
868.412	-28.5
868.585	4.27
868.759	-87.89
868.932	51.37
869.105	16.55
869.279	-20.31
869.452	53.42
869.625	41.13
869.799	37.03
869.972	-3.93
870.145	49.32
870.319	-8.02
870.492	18.6
870.665	-91.99
870.838	-40.79
871.011	-5.97
871.185	32.94
871.358	51.37
871.531	69.8
871.704	16.55
871.877	6.31
872.05	41.13
872.223	-28.5
872.396	59.56
872.569	51.37
872.742	18.6
872.915	55.47
873.088	47.27
873.261	-63.32
873.434	12.46
873.607	6.31
873.78	82.09
873.953	-18.26
874.126	34.99
874.299	8.36
874.471	4.27
874.644	47.27
874.817	51.37
874.99	92.33
875.163	-36.69
875.335	10.41
875.508	80.04
875.681	75.95
875.853	12.46
876.026	10.41
876.199	86.19
876.371	-26.45
876.544	-5.97
876.717	-16.21
876.889	28.84
877.062	16.55
877.234	-81.75
877.407	12.46
877.579	34.99
877.752	37.03
877.924	-26.45
878.097	34.99
878.269	14.51
878.442	28.84
878.614	47.27
878.786	6.31
878.959	-1.88
879.131	69.8
879.303	-48.98
879.476	10.41
879.648	-36.69
879.82	100.52
879.993	39.08
880.165	39.08
880.337	24.75
880.509	-38.74
880.681	-100.18
880.854	-22.36
881.026	16.55
881.198	75.95
881.37	22.7
881.542	41.13
881.714	39.08
881.886	-16.21
882.058	-59.22
882.23	34.99
882.402	26.79
882.574	28.84
882.746	12.46
882.918	55.47
883.09	10.41
883.262	51.37
883.434	53.42
883.606	-24.4
883.778	80.04
883.95	67.75
884.122	-34.64
884.293	-12.12
884.465	-16.21
884.637	57.51
884.809	-118.61
884.98	-1.88
885.152	2.22
885.324	34.99
885.496	37.03
885.667	18.6
885.839	24.75
886.011	18.6
886.182	67.75
886.354	6.31
886.525	51.37
886.697	-12.12
886.869	-34.64
887.04	22.7
887.212	65.71
887.383	24.75
887.555	-34.64
887.726	-3.93
887.897	6.31
888.069	-1.88
888.24	39.08
888.412	-53.08
888.583	34.99
888.754	24.75
888.926	-18.26
889.097	-20.31
889.268	6.31
889.44	45.23
889.611	-10.07
889.782	-38.74
889.953	20.65
890.125	45.23
890.296	-53.08
890.467	-26.45
890.638	41.13
890.809	-10.07
890.98	-34.64
891.151	-26.45
891.323	45.23
891.494	-10.07
891.665	45.23
891.836	26.79
892.007	-18.26
892.178	30.89
892.349	8.36
892.52	-46.93
892.691	-32.6
892.862	-30.55
893.032	51.37
893.203	8.36
893.374	16.55
893.545	10.41
893.716	-5.97
893.887	100.52
894.057	28.84
894.228	-16.21
894.399	-42.84
894.57	16.55
894.74	-8.02
894.911	30.89
895.082	-51.03
895.253	-26.45
895.423	45.23
895.594	51.37
895.764	-10.07
895.935	-77.65
896.106	45.23
896.276	-1.88
896.447	-1.88
896.617	-18.26
896.788	4.27
896.958	-51.03
897.129	20.65
897.299	8.36
897.47	51.37
897.64	32.94
897.81	-40.79
897.981	86.19
898.151	-1.88
898.322	96.43
898.492	-61.27
898.662	65.71
898.832	-1.88
899.003	-77.65
899.173	-51.03
899.343	-75.6
899.513	-71.51
