Data from USB4F104151__70__12-24-17-321.txt Node

Date: Fri Mar 14 12:24:17 EDT 2025
User: louis
Spectrometer: USB4F10415
Trigger mode: 4
Integration Time (sec): 3.500000E-2
Scans to average: 1
Electric dark correction enabled: true
Nonlinearity correction enabled: false
Boxcar width: 0
XAxis mode: Wavelengths
Number of Pixels in Spectrum: 3648
>>>>>Begin Spectral Data<<<<<
178.204	-115.88
178.424	-115.88
178.644	-115.88
178.864	-138.41
179.084	-122.02
179.304	-89.26
179.524	-27.82
179.744	-21.67
179.964	62.29
180.184	21.33
180.404	-1.19
180.624	-19.63
180.844	37.72
181.064	-27.82
181.283	15.19
181.503	2.9
181.723	47.96
181.943	-42.15
182.163	-7.34
182.383	-46.25
182.602	47.96
182.822	70.48
183.042	17.24
183.262	-29.87
183.482	25.43
183.701	-27.82
183.921	35.67
184.141	76.63
184.361	62.29
184.58	76.63
184.8	13.14
185.02	15.19
185.239	29.52
185.459	7
185.679	82.77
185.898	-48.3
186.118	25.43
186.338	37.72
186.557	-40.11
186.777	15.19
186.997	47.96
187.216	31.57
187.436	82.77
187.655	56.15
187.875	78.68
188.095	82.77
188.314	11.09
188.534	45.91
188.753	-72.87
188.973	52.05
189.192	7
189.412	-42.15
189.631	54.1
189.851	90.96
190.07	109.4
190.29	27.48
190.509	54.1
190.729	-13.48
190.948	93.01
191.168	150.36
191.387	43.86
191.607	-58.54
191.826	7
192.045	-25.77
192.265	0.85
192.484	80.72
192.704	68.44
192.923	-36.01
193.142	127.83
193.362	-58.54
193.581	-5.29
193.8	17.24
194.02	54.1
194.239	17.24
194.458	50
194.678	62.29
194.897	19.29
195.116	-25.77
195.335	-3.24
195.555	35.67
195.774	7
195.993	123.73
196.212	-7.34
196.432	-27.82
196.651	-40.11
196.87	-23.72
197.089	90.96
197.308	82.77
197.528	78.68
197.747	25.43
197.966	9.05
198.185	74.58
198.404	74.58
198.623	17.24
198.842	82.77
199.062	56.15
199.281	76.63
199.5	-7.34
199.719	7
199.938	33.62
200.157	129.88
200.376	35.67
200.595	117.59
200.814	-23.72
201.033	-9.39
201.252	11.09
201.471	41.81
201.69	13.14
201.909	17.24
202.128	21.33
202.347	29.52
202.566	35.67
202.785	-13.48
203.004	-31.91
203.223	113.49
203.442	47.96
203.661	-1.19
203.879	-15.53
204.098	101.2
204.317	7
204.536	45.91
204.755	64.34
204.974	19.29
205.193	-11.43
205.411	97.11
205.63	103.25
205.849	50
206.068	43.86
206.287	103.25
206.505	47.96
206.724	-3.24
206.943	37.72
207.162	-5.29
207.381	66.39
207.599	52.05
207.818	23.38
208.037	88.92
208.255	-36.01
208.474	-40.11
208.693	-19.63
208.911	39.76
209.13	2.9
209.349	58.2
209.567	35.67
209.786	74.58
210.005	11.09
210.223	9.05
210.442	-40.11
210.661	52.05
210.879	-3.24
211.098	-19.63
211.316	21.33
211.535	148.31
211.753	25.43
211.972	-3.24
212.191	25.43
212.409	-23.72
212.628	45.91
212.846	25.43
213.065	-33.96
213.283	68.44
213.502	15.19
213.72	-1.19
213.938	70.48
214.157	52.05
214.375	21.33
214.594	21.33
214.812	-13.48
215.031	70.48
215.249	47.96
215.467	19.29
215.686	7
215.904	47.96
216.122	-3.24
216.341	64.34
216.559	31.57
216.778	60.24
216.996	15.19
217.214	15.19
217.432	13.14
217.651	43.86
217.869	25.43
218.087	23.38
218.306	66.39
218.524	2.9
218.742	-27.82
218.96	33.62
219.179	31.57
219.397	-40.11
219.615	78.68
219.833	123.73
220.051	11.09
220.27	39.76
220.488	39.76
220.706	78.68
220.924	21.33
221.142	11.09
221.36	37.72
221.578	33.62
221.796	15.19
222.015	62.29
222.233	-40.11
222.451	47.96
222.669	35.67
222.887	-7.34
223.105	0.85
223.323	50
223.541	-33.96
223.759	7
223.977	-64.68
224.195	64.34
224.413	54.1
224.631	4.95
224.849	52.05
225.067	117.59
225.285	-21.67
225.503	52.05
225.721	-7.34
225.939	11.09
226.157	88.92
226.375	131.92
226.592	15.19
226.81	0.85
227.028	90.96
227.246	37.72
227.464	7
227.682	45.91
227.9	-13.48
228.117	21.33
228.335	50
228.553	-48.3
228.771	-56.49
228.989	54.1
229.206	37.72
229.424	78.68
229.642	68.44
229.86	7
230.077	103.25
230.295	39.76
230.513	97.11
230.731	31.57
230.948	4.95
231.166	39.76
231.384	29.52
231.601	-1.19
231.819	76.63
232.037	31.57
232.254	2.9
232.472	45.91
232.689	-52.39
232.907	-40.11
233.125	37.72
233.342	45.91
233.56	25.43
233.777	9.05
233.995	41.81
234.213	78.68
234.43	84.82
234.648	-9.39
234.865	41.81
235.083	43.86
235.3	-25.77
235.518	31.57
235.735	123.73
235.953	70.48
236.17	-50.35
236.388	-29.87
236.605	-11.43
236.822	107.35
237.04	39.76
237.257	19.29
237.475	-60.59
237.692	27.48
237.909	39.76
238.127	-58.54
238.344	82.77
238.562	29.52
238.779	-13.48
238.996	-21.67
239.214	37.72
239.431	37.72
239.648	-5.29
239.865	33.62
240.083	66.39
240.3	45.91
240.517	-1.19
240.735	-13.48
240.952	35.67
241.169	13.14
241.386	88.92
241.603	19.29
241.821	2.9
242.038	25.43
242.255	60.24
242.472	-52.39
242.689	31.57
242.907	78.68
243.124	27.48
243.341	47.96
243.558	21.33
243.775	-29.87
243.992	31.57
244.209	-19.63
244.426	133.97
244.643	84.82
244.86	-38.06
245.078	13.14
245.295	62.29
245.512	29.52
245.729	2.9
245.946	47.96
246.163	2.9
246.38	62.29
246.597	47.96
246.814	19.29
247.031	45.91
247.248	60.24
247.464	88.92
247.681	39.76
247.898	21.33
248.115	7
248.332	50
248.549	50
248.766	105.3
248.983	62.29
249.2	43.86
249.417	109.4
249.633	-33.96
249.85	-42.15
250.067	-38.06
250.284	-5.29
250.501	37.72
250.717	17.24
250.934	23.38
251.151	11.09
251.368	-9.39
251.585	4.95
251.801	9.05
252.018	31.57
252.235	97.11
252.451	-27.82
252.668	23.38
252.885	90.96
253.102	-7.34
253.318	39.76
253.535	23.38
253.752	19.29
253.968	41.81
254.185	-13.48
254.401	58.2
254.618	90.96
254.835	-1.19
255.051	95.06
255.268	70.48
255.484	37.72
255.701	-5.29
255.917	70.48
256.134	35.67
256.351	27.48
256.567	23.38
256.784	35.67
257	-58.54
257.217	54.1
257.433	103.25
257.65	62.29
257.866	70.48
258.082	-29.87
258.299	78.68
258.515	-33.96
258.732	43.86
258.948	-19.63
259.165	25.43
259.381	19.29
259.597	-29.87
259.814	50
260.03	7
260.246	15.19
260.463	68.44
260.679	-27.82
260.895	64.34
261.112	54.1
261.328	-33.96
261.544	39.76
261.761	127.83
261.977	66.39
262.193	-17.58
262.409	90.96
262.626	-5.29
262.842	37.72
263.058	-42.15
263.274	68.44
263.49	0.85
263.707	62.29
263.923	72.53
264.139	-19.63
264.355	19.29
264.571	64.34
264.787	66.39
265.004	64.34
265.22	-1.19
265.436	33.62
265.652	29.52
265.868	31.57
266.084	-17.58
266.3	-3.24
266.516	4.95
266.732	-9.39
266.948	50
267.164	25.43
267.38	13.14
267.596	31.57
267.812	76.63
268.028	13.14
268.244	43.86
268.46	80.72
268.676	39.76
268.892	-5.29
269.108	74.58
269.324	-19.63
269.54	93.01
269.756	43.86
269.972	-27.82
270.188	-9.39
270.403	11.09
270.619	78.68
270.835	99.16
271.051	21.33
271.267	33.62
271.483	50
271.698	72.53
271.914	119.64
272.13	23.38
272.346	74.58
272.562	-58.54
272.777	52.05
272.993	37.72
273.209	47.96
273.425	11.09
273.64	15.19
273.856	-36.01
274.072	-33.96
274.287	-74.92
274.503	76.63
274.719	58.2
274.934	-27.82
275.15	0.85
275.366	-52.39
275.581	33.62
275.797	29.52
276.012	-31.91
276.228	11.09
276.444	11.09
276.659	74.58
276.875	-11.43
277.09	37.72
277.306	88.92
277.521	58.2
277.737	43.86
277.952	23.38
278.168	70.48
278.383	37.72
278.599	23.38
278.814	27.48
279.03	15.19
279.245	111.44
279.461	-7.34
279.676	97.11
279.892	-1.19
280.107	15.19
280.322	23.38
280.538	2.9
280.753	64.34
280.969	-66.73
281.184	31.57
281.399	88.92
281.615	-15.53
281.83	7
282.045	-15.53
282.26	-38.06
282.476	50
282.691	41.81
282.906	17.24
283.122	35.67
283.337	-19.63
283.552	86.87
283.767	-56.49
283.983	86.87
284.198	-40.11
284.413	13.14
284.628	21.33
284.843	76.63
285.058	19.29
285.274	35.67
285.489	39.76
285.704	31.57
285.919	29.52
286.134	37.72
286.349	2.9
286.564	56.15
286.779	80.72
286.995	84.82
287.21	-9.39
287.425	62.29
287.64	-44.2
287.855	13.14
288.07	-58.54
288.285	54.1
288.5	15.19
288.715	41.81
288.93	-3.24
289.145	-11.43
289.36	84.82
289.575	-52.39
289.79	64.34
290.004	2.9
290.219	27.48
290.434	23.38
290.649	-3.24
290.864	25.43
291.079	-7.34
291.294	25.43
291.509	-13.48
291.724	41.81
291.938	2.9
292.153	27.48
292.368	-21.67
292.583	-15.53
292.798	103.25
293.012	-13.48
293.227	37.72
293.442	-36.01
293.657	56.15
293.871	52.05
294.086	80.72
294.301	90.96
294.516	-3.24
294.73	15.19
294.945	-1.19
295.16	-27.82
295.374	31.57
295.589	90.96
295.804	0.85
296.018	17.24
296.233	97.11
296.447	9.05
296.662	-9.39
296.877	80.72
297.091	58.2
297.306	35.67
297.52	47.96
297.735	27.48
297.949	13.14
298.164	52.05
298.378	27.48
298.593	15.19
298.807	-33.96
299.022	15.19
299.236	111.44
299.451	19.29
299.665	90.96
299.88	31.57
300.094	35.67
300.309	125.78
300.523	58.2
300.737	-27.82
300.952	19.29
301.166	-21.67
301.381	9.05
301.595	2.9
301.809	37.72
302.024	23.38
302.238	-13.48
302.452	88.92
302.667	15.19
302.881	93.01
303.095	15.19
303.309	-38.06
303.524	27.48
303.738	29.52
303.952	43.86
304.166	78.68
304.381	-1.19
304.595	78.68
304.809	15.19
305.023	13.14
305.237	-42.15
305.452	70.48
305.666	7
305.88	7
306.094	80.72
306.308	13.14
306.522	56.15
306.736	113.49
306.95	31.57
307.164	45.91
307.379	29.52
307.593	25.43
307.807	74.58
308.021	64.34
308.235	-5.29
308.449	41.81
308.663	27.48
308.877	99.16
309.091	7
309.305	43.86
309.519	54.1
309.733	47.96
309.947	-33.96
310.161	21.33
310.374	140.12
310.588	50
310.802	-15.53
311.016	-68.78
311.23	60.24
311.444	56.15
311.658	113.49
311.872	80.72
312.085	19.29
312.299	-33.96
312.513	50
312.727	39.76
312.941	15.19
313.154	60.24
313.368	-13.48
313.582	35.67
313.796	2.9
314.009	-9.39
314.223	25.43
314.437	105.3
314.651	58.2
314.864	72.53
315.078	-11.43
315.292	25.43
315.505	74.58
315.719	54.1
315.933	13.14
316.146	-25.77
316.36	9.05
316.573	43.86
316.787	62.29
317.001	64.34
317.214	-19.63
317.428	99.16
317.641	21.33
317.855	2.9
318.068	19.29
318.282	4.95
318.495	170.83
318.709	66.39
318.922	60.24
319.136	119.64
319.349	52.05
319.563	-13.48
319.776	76.63
319.99	-42.15
320.203	109.4
320.417	17.24
320.63	62.29
320.843	19.29
321.057	47.96
321.27	45.91
321.483	-5.29
321.697	74.58
321.91	52.05
322.124	47.96
322.337	68.44
322.55	-5.29
322.763	68.44
322.977	-17.58
323.19	27.48
323.403	-21.67
323.617	45.91
323.83	41.81
324.043	35.67
324.256	43.86
324.469	43.86
324.683	62.29
324.896	54.1
325.109	78.68
325.322	-64.68
325.535	58.2
325.748	50
325.962	35.67
326.175	25.43
326.388	45.91
326.601	47.96
326.814	-38.06
327.027	-3.24
327.24	64.34
327.453	-23.72
327.666	50
327.879	74.58
328.092	82.77
328.305	76.63
328.518	-23.72
328.731	54.1
328.944	19.29
329.157	17.24
329.37	45.91
329.583	88.92
329.796	119.64
330.009	-31.91
330.222	93.01
330.435	27.48
330.648	84.82
330.861	-70.83
331.073	41.81
331.286	80.72
331.499	82.77
331.712	-29.87
331.925	62.29
332.138	4.95
332.35	41.81
332.563	19.29
332.776	58.2
332.989	97.11
333.202	15.19
333.414	-11.43
333.627	72.53
333.84	29.52
334.053	43.86
334.265	50
334.478	-11.43
334.691	70.48
334.903	64.34
335.116	-1.19
335.329	21.33
335.541	-7.34
335.754	80.72
335.966	-21.67
336.179	-15.53
336.392	-17.58
336.604	27.48
336.817	27.48
337.029	56.15
337.242	7
337.454	13.14
337.667	45.91
337.88	19.29
338.092	84.82
338.305	31.57
338.517	-5.29
338.729	68.44
338.942	74.58
339.154	-38.06
339.367	-17.58
339.579	47.96
339.792	37.72
340.004	35.67
340.217	4.95
340.429	7
340.641	25.43
340.854	45.91
341.066	-52.39
341.278	70.48
341.491	101.2
341.703	11.09
341.915	0.85
342.128	58.2
342.34	45.91
342.552	-9.39
342.764	-1.19
342.977	21.33
343.189	13.14
343.401	29.52
343.613	33.62
343.826	-60.59
344.038	4.95
344.25	68.44
344.462	-13.48
344.674	31.57
344.886	-11.43
345.099	78.68
345.311	-1.19
345.523	0.85
345.735	-17.58
345.947	-5.29
346.159	31.57
346.371	45.91
346.583	-13.48
346.795	97.11
347.007	-29.87
347.219	25.43
347.431	74.58
347.643	23.38
347.855	-42.15
348.067	58.2
348.279	-40.11
348.491	74.58
348.703	31.57
348.915	99.16
349.127	-19.63
349.339	-3.24
349.551	43.86
349.763	9.05
349.975	113.49
350.187	70.48
350.399	35.67
350.61	74.58
350.822	66.39
351.034	-1.19
351.246	23.38
351.458	23.38
351.669	17.24
351.881	11.09
352.093	107.35
352.305	4.95
352.517	25.43
352.728	64.34
352.94	35.67
353.152	88.92
353.363	-52.39
353.575	-42.15
353.787	15.19
353.999	21.33
354.21	50
354.422	62.29
354.633	54.1
354.845	0.85
355.057	76.63
355.268	-5.29
355.48	27.48
355.692	7
355.903	74.58
356.115	-27.82
356.326	15.19
356.538	95.06
356.749	29.52
356.961	60.24
357.172	27.48
357.384	-27.82
357.595	88.92
357.807	-74.92
358.018	-46.25
358.23	45.91
358.441	123.73
358.653	47.96
358.864	35.67
359.075	37.72
359.287	54.1
359.498	19.29
359.709	43.86
359.921	21.33
360.132	-40.11
360.344	45.91
360.555	58.2
360.766	23.38
360.977	23.38
361.189	50
361.4	4.95
361.611	93.01
361.823	117.59
362.034	39.76
362.245	-25.77
362.456	70.48
362.667	50
362.879	-33.96
363.09	4.95
363.301	-7.34
363.512	33.62
363.723	-27.82
363.935	70.48
364.146	50
364.357	15.19
364.568	70.48
364.779	-9.39
364.99	111.44
365.201	-27.82
365.412	93.01
365.623	45.91
365.834	-7.34
366.045	68.44
366.256	17.24
366.467	70.48
366.678	37.72
366.889	41.81
367.1	13.14
367.311	31.57
367.522	31.57
367.733	58.2
367.944	129.88
368.155	58.2
368.366	60.24
368.577	72.53
368.788	35.67
368.999	7
369.209	23.38
369.42	172.88
369.631	133.97
369.842	70.48
370.053	17.24
370.264	82.77
370.474	74.58
370.685	35.67
370.896	37.72
371.107	27.48
371.317	78.68
371.528	39.76
371.739	13.14
371.95	64.34
372.16	144.21
372.371	-25.77
372.582	-52.39
372.792	41.81
373.003	103.25
373.214	-1.19
373.424	33.62
373.635	-15.53
373.846	7
374.056	29.52
374.267	41.81
374.477	7
374.688	7
374.898	54.1
375.109	29.52
375.319	-27.82
375.53	62.29
375.74	121.68
375.951	60.24
376.161	58.2
376.372	2.9
376.582	41.81
376.793	21.33
377.003	31.57
377.214	45.91
377.424	35.67
377.635	56.15
377.845	35.67
378.055	107.35
378.266	-11.43
378.476	2.9
378.686	-17.58
378.897	109.4
379.107	82.77
379.317	47.96
379.528	17.24
379.738	-1.19
379.948	74.58
380.158	109.4
380.369	-36.01
380.579	68.44
380.789	29.52
380.999	37.72
381.21	33.62
381.42	78.68
381.63	66.39
381.84	31.57
382.05	17.24
382.261	70.48
382.471	60.24
382.681	-13.48
382.891	39.76
383.101	15.19
383.311	62.29
383.521	31.57
383.731	131.92
383.941	64.34
384.151	60.24
384.361	-17.58
384.571	35.67
384.781	27.48
384.991	99.16
385.201	78.68
385.411	33.62
385.621	47.96
385.831	54.1
386.041	-19.63
386.251	-9.39
386.461	13.14
386.671	-85.16
386.881	93.01
387.091	41.81
387.301	60.24
387.511	101.2
387.72	97.11
387.93	-48.3
388.14	25.43
388.35	56.15
388.56	82.77
388.769	27.48
388.979	31.57
389.189	-7.34
389.399	56.15
389.609	54.1
389.818	99.16
390.028	56.15
390.238	62.29
390.447	33.62
390.657	84.82
390.867	47.96
391.076	74.58
391.286	64.34
391.496	78.68
391.705	56.15
391.915	97.11
392.125	19.29
392.334	-31.91
392.544	162.64
392.753	70.48
392.963	43.86
393.172	138.07
393.382	58.2
393.591	64.34
393.801	37.72
394.01	86.87
394.22	62.29
394.429	-15.53
394.639	95.06
394.848	37.72
395.058	86.87
395.267	17.24
395.477	52.05
395.686	74.58
395.895	68.44
396.105	148.31
396.314	62.29
396.524	121.68
396.733	0.85
396.942	39.76
397.152	29.52
397.361	4.95
397.57	66.39
397.78	47.96
397.989	160.59
398.198	123.73
398.407	37.72
398.617	103.25
398.826	60.24
399.035	43.86
399.244	170.83
399.453	80.72
399.663	80.72
399.872	47.96
400.081	33.62
400.29	7
400.499	45.91
400.708	80.72
400.917	31.57
401.127	21.33
401.336	47.96
401.545	131.92
401.754	90.96
401.963	39.76
402.172	21.33
402.381	125.78
402.59	50
402.799	74.58
403.008	88.92
403.217	56.15
403.426	101.2
403.635	74.58
403.844	21.33
404.053	111.44
404.262	82.77
404.471	82.77
404.68	121.68
404.888	78.68
405.097	43.86
405.306	99.16
405.515	107.35
405.724	103.25
405.933	152.4
406.142	111.44
406.35	133.97
406.559	113.49
406.768	93.01
406.977	179.03
407.185	150.36
407.394	136.02
407.603	60.24
407.812	150.36
408.02	189.27
408.229	209.75
408.438	140.12
408.646	168.79
408.855	152.4
409.064	136.02
409.272	109.4
409.481	215.89
409.69	209.75
409.898	203.6
410.107	156.5
410.315	176.98
410.524	181.07
410.733	236.37
410.941	90.96
411.15	236.37
411.358	242.51
411.567	240.47
411.775	256.85
411.984	246.61
412.192	279.38
412.401	287.57
412.609	336.72
412.818	320.34
413.026	289.62
413.234	381.78
413.443	379.73
413.651	318.29
413.86	359.25
414.068	299.86
414.276	396.11
414.485	299.86
414.693	361.3
414.901	449.36
415.11	369.49
415.318	377.68
415.526	424.78
415.734	473.93
415.943	471.89
416.151	529.23
416.359	435.02
416.567	451.41
416.776	492.37
416.984	623.44
417.192	660.3
417.4	535.37
417.608	529.23
417.817	584.52
418.025	572.24
418.233	742.22
418.441	611.15
418.649	709.45
418.857	822.09
419.065	787.27
419.273	699.21
419.481	842.57
419.689	809.8
419.897	791.37
420.105	840.52
420.313	854.86
420.521	957.25
420.729	895.82
420.937	996.17
421.145	1057.61
421.353	1092.42
421.561	1112.9
421.769	1039.17
421.977	1219.39
422.185	1139.52
422.393	1248.07
422.601	1418.05
422.809	1286.98
423.017	1223.49
423.224	1397.57
423.432	1432.38
423.64	1450.82
423.848	1639.23
424.056	1454.91
424.263	1655.61
424.471	1588.03
424.679	1776.44
424.887	1745.72
425.094	1715
425.302	1878.84
425.51	1997.62
425.718	2011.96
425.925	2030.39
426.133	2007.86
426.341	2157.36
426.548	2083.64
426.756	2210.61
426.964	2390.83
427.171	2278.19
427.379	2564.91
427.586	2480.94
427.794	2536.24
428.001	2779.95
428.209	2890.54
428.417	2796.33
428.624	2994.98
428.832	2913.06
429.039	2902.83
429.247	2999.08
429.454	3253.03
429.662	3470.11
429.869	3263.27
430.076	3439.39
430.284	3588.89
430.491	3570.46
430.699	3824.41
430.906	3795.74
431.114	3773.21
431.321	3859.23
431.528	3961.62
431.736	4311.83
431.943	4406.03
432.15	4289.3
432.358	4365.07
432.565	4619.02
432.772	4449.04
432.979	4942.6
433.187	4799.24
433.394	4870.92
433.601	5344
433.808	5493.51
434.016	5331.72
434.223	5563.14
434.43	6021.88
434.637	5868.28
434.844	5997.31
435.052	6245.11
435.259	6030.07
435.466	6183.67
435.673	6169.34
435.88	6535.92
436.087	6959.85
436.294	7013.1
436.501	6697.71
436.708	6830.83
436.915	6994.67
437.122	7453.41
437.329	7201.51
437.537	7643.87
437.743	7865.05
437.95	7721.7
438.157	8098.52
438.364	8250.07
438.571	8422.1
438.778	8489.68
438.985	9175.75
439.192	8872.65
439.399	9212.62
439.606	8979.15
439.813	9568.96
440.02	10009.28
440.227	9759.42
440.433	9530.05
440.64	10107.58
440.847	10013.37
441.054	10314.42
441.261	10977.97
441.467	10822.32
441.674	11315.88
441.881	11410.09
442.088	11414.18
442.294	11324.07
442.501	11813.54
442.708	11850.4
442.914	12329.63
443.121	12866.19
443.328	12403.35
443.534	13251.21
443.741	13005.45
443.948	12618.39
444.154	13775.49
444.361	13838.98
444.568	14123.65
444.774	13843.07
444.981	14027.39
445.187	14377.59
445.394	15213.17
445.6	14756.47
445.807	16163.42
446.013	15667.81
446.22	15888.99
446.426	16431.71
446.633	16908.88
446.839	17228.37
447.046	16333.4
447.252	17476.17
447.459	17558.09
447.665	17793.61
447.871	18342.46
448.078	18788.92
448.284	18055.75
448.491	18405.95
448.697	19257.9
448.903	19634.73
449.11	19604.01
449.316	19200.56
449.522	19673.64
449.728	19933.73
449.935	20458.01
450.141	20619.8
450.347	20740.63
450.553	20308.51
450.76	20625.95
450.966	21021.2
451.172	21084.69
451.378	21518.86
451.584	21019.16
451.791	21752.33
451.997	21236.24
452.203	21867.02
452.409	21828.1
452.615	21891.59
452.821	21070.36
453.027	20742.68
453.233	21750.28
453.44	21115.41
453.646	21166.61
453.852	21234.19
454.058	21797.38
454.264	20871.7
454.47	21236.24
454.676	20687.39
454.882	21422.61
455.088	19757.61
455.294	19984.93
455.5	20269.6
455.705	20689.43
455.911	19720.74
456.117	19184.18
456.323	18928.18
456.529	17846.85
456.735	18768.44
456.941	18342.46
457.147	17873.48
457.352	17519.18
457.558	17171.02
457.764	17338.96
457.97	16986.71
458.176	16693.85
458.381	16392.8
458.587	15954.53
458.793	15637.09
458.999	14930.55
459.204	15975.01
459.41	15692.39
459.616	14590.58
459.821	14619.25
460.027	14310.01
460.233	14180.99
460.438	13431.43
460.644	13712
460.85	13019.79
461.055	12855.95
461.261	12810.9
461.466	11793.06
461.672	11514.53
461.878	12573.33
462.083	11655.84
462.289	11221.67
462.494	11326.12
462.7	10582.71
462.905	10566.32
463.111	10814.13
463.316	10635.96
463.522	10617.52
463.727	10633.91
463.932	10576.56
464.138	10396.34
464.343	10566.32
464.549	10255.03
464.754	10408.63
464.959	10568.37
465.165	10207.93
465.37	9968.32
465.575	9757.38
465.781	9939.65
465.986	10035.9
466.191	9667.27
466.397	9431.75
466.602	8958.67
466.807	9577.16
467.012	9609.92
467.218	9353.93
467.423	9323.21
467.628	9298.63
467.833	9697.99
468.038	9390.79
468.244	9114.31
468.449	9304.78
468.654	9073.35
468.859	9159.37
469.064	8848.08
469.269	8778.45
469.474	8596.18
469.679	8987.34
469.885	8827.6
470.09	8645.33
470.295	8651.47
470.5	8481.49
470.705	8420.05
470.91	8329.94
471.115	8418
471.32	8426.2
471.525	8358.61
471.73	8090.33
471.935	8200.92
472.139	7797.47
472.344	7932.64
472.549	7809.76
472.754	7746.27
472.959	7568.1
473.164	7463.65
473.369	7492.32
473.574	7576.29
473.778	7627.49
473.983	7375.59
474.188	7447.27
474.393	7117.54
474.598	7133.93
474.802	6980.33
475.007	7125.74
475.212	7103.21
475.417	6777.58
475.621	6830.83
475.826	6918.89
476.031	6748.91
476.235	6574.83
476.44	6773.49
476.645	6574.83
476.849	6603.5
477.054	6449.91
477.259	6417.14
477.463	6454
477.668	6345.46
477.872	6396.66
478.077	6279.93
478.282	5915.39
478.486	6087.42
478.691	5827.32
478.895	5819.13
479.1	6019.83
479.304	5878.52
479.509	5763.84
479.713	5899
479.918	5616.38
480.122	5483.27
480.326	5774.08
480.531	5874.43
480.735	5604.1
480.94	5681.92
481.144	5677.82
481.348	5481.22
481.553	5667.58
481.757	5346.05
481.961	5532.42
482.166	5425.92
482.37	5618.43
482.574	5643.01
482.778	5360.39
482.983	5585.66
483.187	5466.88
483.391	5645.06
483.595	5567.23
483.8	5378.82
484.004	5434.11
484.208	5462.79
484.412	5425.92
484.616	5454.59
484.821	5534.46
485.025	5344
485.229	5395.2
485.433	5520.13
485.637	5468.93
485.841	5251.85
486.045	5331.72
486.249	5307.14
486.453	5528.32
486.657	5526.27
486.861	5530.37
487.065	5241.61
487.269	5458.69
487.473	5331.72
487.677	5444.35
487.881	5577.47
488.085	5487.36
488.289	5522.18
488.493	5509.89
488.697	5438.21
488.901	5473.03
489.105	5479.17
489.309	5493.51
489.512	5618.43
489.716	5667.58
489.92	5593.86
490.124	5577.47
490.328	5784.32
490.531	5591.81
490.735	5614.34
490.939	5714.69
491.143	5591.81
491.346	5667.58
491.55	5761.79
491.754	5923.58
491.958	5915.39
492.161	5655.3
492.365	5921.53
492.569	5624.58
492.772	5876.48
492.976	5909.24
493.18	5739.26
493.383	5933.82
493.587	6030.07
493.79	6071.03
493.994	5976.83
494.197	6193.91
494.401	6017.79
494.605	6077.18
494.808	6286.07
495.012	6230.77
495.215	6155
495.419	6339.32
495.622	6251.25
495.825	6308.6
496.029	6372.08
496.232	6576.88
496.436	6454
496.639	6834.93
496.843	6566.64
497.046	6861.55
497.249	6830.83
497.453	6920.94
497.656	6863.6
497.859	7013.1
498.063	7064.3
498.266	7160.55
498.469	7125.74
498.673	7254.76
498.876	7275.24
499.079	7633.63
499.282	7381.73
499.485	7594.72
499.689	7658.21
499.892	7885.53
500.095	7844.57
500.298	8012.51
500.501	7989.98
500.705	8157.91
500.908	8305.37
501.111	8297.17
501.314	8506.07
501.517	8577.75
501.72	8778.45
501.923	8512.21
502.126	8874.7
502.329	8917.71
502.532	9093.83
502.735	9032.4
502.938	9136.84
503.141	9106.12
503.344	9280.2
503.547	9392.84
503.75	9697.99
503.953	9614.02
504.156	9872.06
504.359	9976.51
504.562	10070.72
504.765	10023.61
504.968	10359.48
505.17	10478.26
505.373	10453.69
505.576	10517.17
505.779	10750.64
505.982	10764.98
506.185	11098.8
506.387	11229.87
506.59	11098.8
506.793	11475.62
506.996	11555.49
507.198	11739.81
507.401	11606.69
507.604	12042.91
507.807	12081.82
508.009	12176.03
508.212	12130.97
508.415	12481.17
508.617	12608.15
508.82	12837.52
509.022	12569.24
509.225	12888.72
509.428	13105.81
509.63	13183.63
509.833	13482.63
510.035	13916.8
510.238	13712
510.44	13898.37
510.643	14047.87
510.845	14365.31
511.048	13869.7
511.25	14123.65
511.453	14461.56
511.655	15065.71
511.858	14733.94
512.06	14981.74
512.262	15151.73
512.465	14977.65
512.667	15549.03
512.87	15608.42
513.072	15690.34
513.274	16067.17
513.477	16163.42
513.679	16411.23
513.881	16360.03
514.084	16591.45
514.286	16810.58
514.488	16775.77
514.69	17515.08
514.893	17347.15
515.095	17418.83
515.297	17973.83
515.499	17648.2
515.701	18176.58
515.904	18221.63
516.106	18106.95
516.308	18739.77
516.51	18539.07
516.712	19010.1
516.914	19112.5
517.116	19753.51
517.318	19618.35
517.52	19837.48
517.722	19882.53
517.925	20273.7
518.127	20560.41
518.329	20662.81
518.531	20646.43
518.733	21279.25
518.935	21344.78
519.136	21019.16
519.338	21375.5
519.54	22028.81
519.742	21842.44
519.944	22125.06
520.146	22510.08
520.348	22544.89
520.55	22714.87
520.752	23226.87
520.954	23374.32
521.155	23491.05
521.357	23824.87
521.559	23613.93
521.761	24449.5
521.963	24261.09
522.164	24512.99
522.366	24293.86
522.568	24912.35
522.77	24791.52
522.971	25385.43
523.173	25203.16
523.375	25326.03
523.576	25459.15
523.778	25739.72
523.98	26008.01
524.181	26307.01
524.383	26294.72
524.584	26644.93
524.786	26620.35
524.988	26333.64
525.189	27062.71
525.391	26849.72
525.592	27351.48
525.794	27740.59
525.995	27443.63
526.197	27716.01
526.398	27963.82
526.6	28078.5
526.801	28328.36
527.003	28000.68
527.204	28289.45
527.406	28803.49
527.607	29026.71
527.808	29307.29
528.01	28574.11
528.211	28813.73
528.412	29489.56
528.614	28909.98
528.815	29575.57
529.016	29475.22
529.218	29553.04
529.419	29612.43
529.62	29624.72
529.822	29954.44
530.023	29778.32
530.224	30044.55
530.425	30065.03
530.626	30038.41
530.828	29936.01
531.029	30785.92
531.23	30177.67
531.431	30638.47
531.632	30505.35
531.833	30574.98
532.035	30572.93
532.236	30734.72
532.437	30916.99
532.638	30761.34
532.839	30724.48
533.04	31129.98
533.241	30648.71
533.442	31222.14
533.643	31025.53
533.844	30923.13
534.045	31197.56
534.246	30931.33
534.447	31183.23
534.648	31080.83
534.849	31113.59
535.05	31318.39
535.251	31474.04
535.451	30884.22
535.652	31609.2
535.853	31074.68
536.054	31408.5
536.255	31531.38
536.456	30957.95
536.657	31666.55
536.857	31572.34
537.058	31041.92
537.259	31471.99
537.46	31416.69
537.66	31351.16
537.861	31275.38
538.062	31377.78
538.263	31598.96
538.463	31351.16
538.664	31443.32
538.865	31377.78
539.065	31463.8
539.266	31504.76
539.466	31713.65
539.667	31199.61
539.868	31482.23
540.068	31441.27
540.269	31478.13
540.469	31545.72
540.67	31275.38
540.87	31506.8
541.071	31400.31
541.271	31527.28
541.472	31273.34
541.672	31068.54
541.873	31371.64
542.073	31003
542.274	31684.98
542.474	31508.85
542.675	31205.75
542.875	31539.57
543.075	31060.35
543.276	31064.44
543.476	31474.04
543.676	31242.62
543.877	31349.11
544.077	31457.65
544.277	31166.84
544.478	31512.95
544.678	31678.83
544.878	31136.12
545.078	31146.36
545.279	31471.99
545.479	31385.97
545.679	31400.31
545.879	31506.8
546.079	31199.61
546.28	31197.56
546.48	31320.44
546.68	31398.26
546.88	31295.86
547.08	31213.95
547.28	31138.17
547.48	30974.33
547.68	31373.69
547.88	31035.77
548.081	31396.21
548.281	30982.52
548.481	31367.54
548.681	31584.63
548.881	31232.38
549.081	31187.32
549.28	31457.65
549.48	31201.66
549.68	31185.27
549.88	31555.96
550.08	30890.37
550.28	31211.9
550.48	31037.82
550.68	31490.42
550.88	30642.56
551.08	31226.23
551.279	31283.58
551.479	30722.43
551.679	31353.21
551.879	30888.32
552.079	31267.19
552.278	30863.74
552.478	31156.6
552.678	31363.45
552.878	31127.93
553.077	31084.92
553.277	30718.34
553.477	31162.75
553.676	31019.39
553.876	30601.6
554.076	30615.94
554.275	30957.95
554.475	30716.29
554.674	30863.74
554.874	30658.95
555.074	30730.62
555.273	30765.44
555.473	30603.65
555.672	30341.51
555.872	30497.16
556.071	30927.23
556.271	30841.21
556.47	30431.62
556.67	30550.4
556.869	30347.65
557.068	30423.43
557.268	30300.55
557.467	30159.24
557.667	30329.22
557.866	30034.32
558.065	29798.8
558.265	30038.41
558.464	30130.57
558.663	30275.98
558.863	29507.99
559.062	30202.25
559.261	29829.52
559.461	30222.73
559.66	29733.26
559.859	29893.01
560.058	29542.8
560.258	29673.87
560.457	29389.2
560.656	29739.41
560.855	29266.33
561.054	29630.87
561.253	29432.21
561.453	29200.79
561.652	29266.33
561.851	29389.2
562.05	28696.99
562.249	29118.87
562.448	29069.72
562.647	29036.95
562.846	28967.32
563.045	28995.99
563.244	28400.04
563.443	28866.97
563.642	28180.9
563.841	28592.55
564.04	28447.14
564.239	28590.5
564.438	27982.25
564.637	28015.02
564.836	27879.85
565.035	27867.56
565.234	28338.6
565.432	27779.5
565.631	27804.08
565.83	27961.77
566.029	27918.76
566.228	27480.5
566.427	27447.73
566.625	27451.83
566.824	27378.1
567.023	27546.03
567.222	26960.31
567.42	27826.6
567.619	27337.14
567.818	27005.37
568.016	26880.44
568.215	27034.04
568.414	26560.96
568.612	26843.58
568.811	26710.46
569.01	26499.52
569.208	26124.74
569.407	26644.93
569.605	25838.03
569.804	26317.25
570.002	26030.54
570.201	26124.74
570.4	25946.57
570.598	25817.55
570.797	25440.72
570.995	25762.25
571.193	25387.47
571.392	25397.71
571.59	25426.39
571.789	25397.71
571.987	25205.2
572.186	24828.38
572.384	25018.84
572.582	25078.23
572.781	25012.7
572.979	24607.2
573.177	24588.77
573.376	24736.22
573.574	24312.29
573.772	24646.11
573.971	24500.7
574.169	24140.26
574.367	24209.89
574.565	24359.39
574.763	24050.15
574.962	23861.74
575.16	23794.15
575.358	23521.77
575.556	23654.89
575.754	23724.52
575.952	23624.17
576.151	23628.27
576.349	23331.31
576.547	23243.25
576.745	23552.49
576.943	23478.77
577.141	22934.01
577.339	23351.79
577.537	23003.64
577.735	23020.02
577.933	22462.97
578.131	23056.89
578.329	22505.98
578.527	22450.69
578.725	22524.41
578.923	22626.81
579.121	22444.54
579.319	22391.3
579.516	22331.9
579.714	22161.92
579.912	22358.53
580.11	22028.81
580.308	22032.9
580.506	21651.98
580.704	21746.19
580.901	21813.77
581.099	21850.63
581.297	21656.07
581.495	21580.3
581.692	21686.79
581.89	21236.24
582.088	21346.83
582.285	21312.02
582.483	21436.94
582.681	21117.46
582.878	21043.73
583.076	20935.19
583.274	20976.15
583.471	20714.01
583.669	20611.61
583.866	20722.2
584.064	20679.19
584.262	20300.32
584.459	20691.48
584.657	20630.04
584.854	20453.92
585.052	20292.13
585.249	20468.25
585.447	20279.84
585.644	20443.68
585.841	20029.99
586.039	20505.12
586.236	19993.12
586.434	19845.67
586.631	19530.28
586.828	20036.13
587.026	19876.39
587.223	19722.79
587.42	19413.55
587.618	19663.4
587.815	19366.45
588.012	19425.84
588.21	19581.48
588.407	19546.67
588.604	19348.01
588.801	19087.92
588.999	19221.04
589.196	18960.95
589.393	19157.55
589.59	18842.17
589.787	18836.02
589.984	18975.28
590.182	18727.48
590.379	18760.25
590.576	18782.77
590.773	18483.77
590.97	18352.7
591.167	18684.47
591.364	18291.26
591.561	18235.97
591.758	18426.43
591.955	18315.84
592.152	18334.27
592.349	17939.01
592.546	18135.62
592.743	18078.27
592.94	17703.5
593.137	17902.15
593.334	18295.36
593.531	17709.64
593.727	17816.13
593.924	17934.92
594.121	17570.38
594.318	17834.57
594.515	17531.47
594.712	17678.92
594.908	17519.18
595.105	17529.42
595.302	17295.95
595.499	17486.41
595.696	17093.2
595.892	17056.34
596.089	17379.92
596.286	17070.67
596.482	17066.58
596.679	16771.67
596.876	17019.47
597.072	16908.88
597.269	16890.45
597.466	16724.57
597.662	16544.34
597.859	16761.43
598.055	16693.85
598.252	16628.31
598.448	16634.46
598.645	16353.88
598.841	16487
599.038	16456.28
599.234	16562.78
599.431	16222.81
599.627	16173.66
599.824	16097.89
600.02	16020.06
600.217	15981.15
600.413	15954.53
600.609	16161.37
600.806	15966.82
601.002	15870.56
601.198	15938.15
601.395	15755.88
601.591	15893.09
601.787	15665.77
601.984	15479.4
602.18	15653.48
602.376	15485.55
602.572	15516.26
602.769	15438.44
602.965	15190.64
603.161	15442.54
603.357	15307.37
603.553	15061.62
603.75	14989.94
603.946	14942.83
604.142	14862.96
604.338	15080.05
604.534	15178.35
604.73	14787.19
604.926	14887.54
605.122	14842.48
605.318	14660.21
605.514	14746.23
605.71	14656.12
605.906	14723.7
606.102	14332.54
606.298	14719.6
606.494	14764.66
606.69	14424.7
606.886	14279.29
607.082	14322.3
607.278	14275.2
607.474	14377.59
607.67	14267
607.866	14178.94
608.062	14449.27
608.257	14045.82
608.453	14328.44
608.649	14353.02
608.845	13931.14
609.041	13912.71
609.236	13918.85
609.432	13965.95
609.628	14015.1
609.824	13800.07
610.019	14060.16
610.215	13841.03
610.411	13787.78
610.606	13644.42
610.802	13642.37
610.998	13679.24
611.193	13795.97
611.389	13509.26
611.584	13527.69
611.78	13447.82
611.976	13378.19
612.171	13662.85
612.367	13386.38
612.562	13398.66
612.758	13128.33
612.953	13445.77
613.149	13441.67
613.344	13259.4
613.539	13458.06
613.735	13073.04
613.93	13249.16
614.126	12991.12
614.321	12968.59
614.517	13193.87
614.712	13091.47
614.907	13083.28
615.103	12743.31
615.298	12743.31
615.493	13056.65
615.688	12874.38
615.884	12911.25
616.079	12679.83
616.274	12681.88
616.47	12589.72
616.665	12763.79
616.86	12534.42
617.055	12722.84
617.25	12323.48
617.445	12868.24
617.641	12685.97
617.836	12399.26
618.031	12141.21
618.226	12507.8
618.421	12274.33
618.616	12655.25
618.811	12190.36
619.006	12333.72
619.201	11993.76
619.396	12243.61
619.591	11958.94
619.786	12118.68
619.981	11881.12
620.176	12100.25
620.371	11764.39
620.566	11907.74
620.761	11842.21
620.956	11788.96
621.151	11657.89
621.346	11805.35
621.541	11369.13
621.735	11661.99
621.93	11358.89
622.125	11547.3
622.32	11225.77
622.515	11358.89
622.709	11207.34
622.904	11254.44
623.099	11236.01
623.294	11113.13
623.488	10810.03
623.683	11125.42
623.878	10896.05
624.072	10807.98
624.267	10736.31
624.462	10662.58
624.656	10459.83
624.851	10547.89
625.046	10787.5
625.24	10693.3
625.435	10392.25
625.629	10156.73
625.824	10334.9
626.018	10412.73
626.213	10093.24
626.407	10369.72
626.602	10068.67
626.796	10068.67
626.991	10058.43
627.185	10013.37
627.38	9966.27
627.574	9878.21
627.768	9923.26
627.963	9601.73
628.157	9509.57
628.352	9640.64
628.546	9439.94
628.74	9788.1
628.935	9495.24
629.129	9648.83
629.323	9523.91
629.517	9388.74
629.712	9124.55
629.906	9181.9
630.1	9083.59
630.294	9300.68
630.489	9175.75
630.683	9046.73
630.877	8862.41
631.071	8934.09
631.265	8897.23
631.459	8960.72
631.653	8608.47
631.848	8805.07
632.042	8669.91
632.236	8813.26
632.43	8772.3
632.624	8592.08
632.818	8600.27
633.012	8493.78
633.206	8366.81
633.4	8483.54
633.594	8069.85
633.788	8321.75
633.982	8317.65
634.176	8352.47
634.369	8190.68
634.563	8127.19
634.757	7971.55
634.951	7729.89
635.145	8078.04
635.339	7944.92
635.533	7807.71
635.726	7969.5
635.92	7820
636.114	7776.99
636.308	7776.99
636.501	7828.19
636.695	7633.63
636.889	7525.09
637.083	7492.32
637.276	7566.05
637.47	7199.46
637.664	7197.42
637.857	7463.65
638.051	7457.51
638.244	7353.06
638.438	7328.49
638.632	7344.87
638.825	7148.26
639.019	7084.78
639.212	7086.83
639.406	7002.86
639.599	7082.73
639.793	6994.67
639.986	6904.56
640.18	6908.65
640.373	6863.6
640.567	6728.43
640.76	6810.35
640.954	6646.51
641.147	6892.27
641.34	6419.19
641.534	6517.49
641.727	6568.69
641.92	6640.37
642.114	6451.95
642.307	6437.62
642.5	6470.39
642.694	6378.23
642.887	6339.32
643.08	6443.76
643.273	6372.08
643.467	6200.05
643.66	6183.67
643.853	6279.93
644.046	6173.43
644.239	6001.4
644.432	6126.33
644.626	6152.95
644.819	5962.49
645.012	6087.42
645.205	6126.33
645.398	6060.79
645.591	6040.31
645.784	5950.2
645.977	5776.13
646.17	5810.94
646.363	5788.41
646.556	5708.54
646.749	5692.16
646.942	5886.72
647.135	5765.89
647.328	5579.52
647.521	5526.27
647.714	5528.32
647.907	5614.34
648.099	5489.41
648.292	5565.18
648.485	5589.76
648.678	5434.11
648.871	5425.92
649.064	5331.72
649.256	5384.96
649.449	5374.72
649.642	5284.61
649.835	5159.69
650.027	5249.8
650.22	5143.3
650.413	5133.06
650.605	5153.54
650.798	5065.48
650.991	5120.78
651.183	5067.53
651.376	5085.96
651.568	5028.62
651.761	4995.85
651.954	4922.12
652.146	4913.93
652.339	4961.03
652.531	4815.63
652.724	4872.97
652.916	4752.14
653.109	4774.67
653.301	4829.96
653.494	4588.3
653.686	4639.5
653.879	4815.63
654.071	4731.66
654.263	4655.89
654.456	4645.65
654.648	4799.24
654.84	4524.82
655.033	4498.19
655.225	4649.74
655.417	4494.1
655.61	4469.52
655.802	4379.41
655.994	4510.48
656.186	4526.86
656.379	4565.78
656.571	4449.04
656.763	4408.08
656.955	4338.45
657.148	4350.74
657.34	4215.57
657.532	4371.22
657.724	4150.04
657.916	4406.03
658.108	4242.2
658.3	4182.81
658.492	4033.3
658.684	4127.51
658.876	4217.62
659.068	4076.31
659.26	4012.82
659.452	4086.55
659.644	4078.36
659.836	4133.65
660.028	3994.39
660.22	3922.71
660.412	3883.8
660.604	3912.47
660.796	3943.19
660.988	3924.76
661.18	3775.26
661.372	3861.27
661.563	3736.35
661.755	3781.4
661.947	3840.79
662.139	3846.94
662.331	3875.61
662.522	3832.6
662.714	3832.6
662.906	3699.48
663.097	3705.63
663.289	3676.96
663.481	3750.68
663.673	3683.1
663.864	3535.65
664.056	3636
664.247	3547.94
664.439	3500.83
664.631	3625.76
664.822	3625.76
665.014	3670.81
665.205	3595.04
665.397	3525.41
665.588	3695.39
665.78	3476.26
665.971	3552.03
666.163	3543.84
666.354	3443.49
666.546	3566.37
666.737	3445.54
666.929	3506.98
667.12	3427.11
667.311	3468.06
667.503	3443.49
667.694	3416.87
667.885	3427.11
668.077	3357.47
668.268	3429.15
668.459	3388.19
668.651	3386.15
668.842	3355.43
669.033	3296.04
669.224	3232.55
669.416	3509.02
669.607	3238.69
669.798	3271.46
669.989	3443.49
670.18	3244.84
670.371	3236.64
670.563	3273.51
670.754	3261.22
670.945	3171.11
671.136	3224.36
671.327	3212.07
671.518	3189.54
671.709	3158.82
671.9	3273.51
672.091	3234.6
672.282	3140.39
672.473	3224.36
672.664	3105.57
672.855	3181.35
673.046	3238.69
673.237	3111.72
673.428	3314.47
673.619	3156.77
673.809	3081
674	3193.64
674.191	3269.41
674.382	3253.03
674.573	3261.22
674.764	3085.09
674.954	3103.53
675.145	3058.47
675.336	3253.03
675.527	3144.49
675.717	3160.87
675.908	3087.14
676.099	3142.44
676.289	3232.55
676.48	3046.18
676.671	3179.3
676.861	3066.66
677.052	3029.8
677.243	3132.2
677.433	3160.87
677.624	3207.97
677.814	3199.78
678.005	3162.92
678.195	3113.77
678.386	3070.76
678.576	3040.04
678.767	3146.53
678.957	3148.58
679.148	3158.82
679.338	3144.49
679.529	3220.26
679.719	3124.01
679.909	3162.92
680.1	3216.16
680.29	3250.98
680.481	3017.51
680.671	3173.16
680.861	3171.11
681.052	3121.96
681.242	3150.63
681.432	3349.28
681.622	3205.92
681.813	3109.67
682.003	3160.87
682.193	3130.15
682.383	3207.97
682.573	3218.21
682.764	3169.06
682.954	3140.39
683.144	3066.66
683.334	3189.54
683.524	3234.6
683.714	3160.87
683.904	3334.95
684.094	3167.01
684.284	3093.29
684.474	3146.53
684.664	3308.32
684.854	3156.77
685.044	3017.51
685.234	3103.53
685.424	3164.97
685.614	3216.16
685.804	3160.87
685.994	3121.96
686.184	3037.99
686.374	3085.09
686.564	3105.57
686.753	3152.68
686.943	3072.81
687.133	2960.17
687.323	2974.5
687.513	3140.39
687.702	3119.91
687.892	2913.06
688.082	2988.84
688.272	3027.75
688.461	2904.87
688.651	2876.2
688.841	2935.59
689.03	2929.45
689.22	2843.43
689.41	2898.73
689.599	2827.05
689.789	2870.06
689.979	2927.4
690.168	2798.38
690.358	2945.83
690.547	2818.86
690.737	2781.99
690.926	2794.28
691.116	2829.1
691.305	2886.44
691.495	2906.92
691.684	2720.56
691.874	2622.25
692.063	2736.94
692.252	2636.59
692.442	2734.89
692.631	2657.07
692.82	2734.89
693.01	2591.53
693.199	2642.73
693.388	2575.15
693.578	2511.66
693.767	2769.71
693.956	2603.82
694.146	2583.34
694.335	2638.64
694.524	2603.82
694.713	2661.16
694.902	2700.08
695.092	2583.34
695.281	2573.1
695.47	2521.9
695.659	2489.14
695.848	2458.42
696.037	2517.81
696.226	2562.86
696.415	2644.78
696.604	2575.15
696.793	2566.96
696.982	2446.13
697.171	2466.61
697.36	2439.98
697.549	2489.14
697.738	2595.63
697.927	2499.38
698.116	2472.75
698.305	2439.98
698.494	2485.04
698.683	2519.85
698.872	2499.38
699.061	2497.33
699.25	2517.81
699.438	2577.2
699.627	2433.84
699.816	2515.76
700.005	2446.13
700.193	2489.14
700.382	2444.08
700.571	2407.22
700.76	2478.9
700.948	2526
701.137	2497.33
701.326	2609.97
701.514	2528.05
701.703	2513.71
701.892	2429.74
702.08	2599.73
702.269	2489.14
702.457	2380.59
702.646	2437.94
702.834	2396.98
703.023	2394.93
703.212	2523.95
703.4	2569.01
703.589	2554.67
703.777	2505.52
703.965	2448.18
704.154	2579.25
704.342	2478.9
704.531	2509.62
704.719	2577.2
704.907	2556.72
705.096	2507.57
705.284	2542.38
705.472	2550.57
705.661	2485.04
705.849	2513.71
706.037	2439.98
706.226	2585.39
706.414	2552.62
706.602	2536.24
706.79	2646.83
706.979	2583.34
707.167	2581.29
707.355	2622.25
707.543	2564.91
707.731	2597.68
707.919	2575.15
708.107	2521.9
708.296	2497.33
708.484	2554.67
708.672	2605.87
708.86	2591.53
709.048	2628.4
709.236	2577.2
709.424	2665.26
709.612	2528.05
709.8	2575.15
709.988	2575.15
710.176	2612.01
710.364	2601.77
710.551	2603.82
710.739	2700.08
710.927	2595.63
711.115	2538.29
711.303	2577.2
711.491	2636.59
711.679	2540.33
711.866	2691.88
712.054	2661.16
712.242	2687.79
712.43	2767.66
712.617	2757.42
712.805	2638.64
712.993	2730.8
713.181	2683.69
713.368	2781.99
713.556	2736.94
713.744	2829.1
713.931	2751.28
714.119	2603.82
714.306	2802.47
714.494	2720.56
714.682	2792.23
714.869	2708.27
715.057	2710.32
715.244	2716.46
715.432	2730.8
715.619	2700.08
715.807	2757.42
715.994	2634.54
716.182	2777.9
716.369	2722.6
716.556	2804.52
716.744	2829.1
716.931	2786.09
717.119	2913.06
717.306	2827.05
717.493	2849.58
717.681	2870.06
717.868	2825
718.055	2925.35
718.242	2841.39
718.43	2919.21
718.617	2781.99
718.804	2894.63
718.991	2882.35
719.179	2855.72
719.366	2896.68
719.553	2890.54
719.74	2927.4
719.927	2853.67
720.114	2951.98
720.301	2882.35
720.488	2759.47
720.676	2804.52
720.863	2892.59
721.05	2970.41
721.237	3093.29
721.424	2925.35
721.611	2941.74
721.798	2906.92
721.985	2906.92
722.172	2960.17
722.358	2927.4
722.545	3031.85
722.732	3050.28
722.919	3009.32
723.106	2980.65
723.293	2847.53
723.48	2904.87
723.667	2984.74
723.853	3058.47
724.04	3138.34
724.227	3029.8
724.414	3019.56
724.6	2974.5
724.787	3044.13
724.974	3078.95
725.161	3171.11
725.347	2982.7
725.534	3056.42
725.72	3103.53
725.907	3074.85
726.094	3031.85
726.28	3121.96
726.467	3044.13
726.653	3025.7
726.84	3052.33
727.027	3074.85
727.213	3144.49
727.4	3113.77
727.586	3185.44
727.773	3140.39
727.959	3226.4
728.145	3199.78
728.332	3023.66
728.518	3083.05
728.705	3136.29
728.891	3210.02
729.077	3068.71
729.264	3115.81
729.45	3162.92
729.636	3199.78
729.823	3160.87
730.009	3156.77
730.195	3322.66
730.382	3132.2
730.568	3253.03
730.754	3210.02
730.94	3056.42
731.126	3230.5
731.313	3263.27
731.499	3205.92
731.685	3357.47
731.871	3224.36
732.057	3234.6
732.243	3248.93
732.429	3212.07
732.615	3216.16
732.801	3341.09
732.987	3210.02
733.173	3384.1
733.359	3310.37
733.545	3271.46
733.731	3132.2
733.917	3277.6
734.103	3351.33
734.289	3343.14
734.475	3130.15
734.661	3222.31
734.847	3302.18
735.033	3255.08
735.219	3322.66
735.404	3177.25
735.59	3230.5
735.776	3375.91
735.962	3244.84
736.148	3369.76
736.333	3369.76
736.519	3371.81
736.705	3175.2
736.89	3326.75
737.076	3324.71
737.262	3328.8
737.447	3396.39
737.633	3343.14
737.819	3195.68
738.004	3384.1
738.19	3269.41
738.375	3197.73
738.561	3447.58
738.747	3253.03
738.932	3363.62
739.118	3326.75
739.303	3244.84
739.489	3318.56
739.674	3324.71
739.859	3126.05
740.045	3328.8
740.23	3330.85
740.416	3121.96
740.601	3283.75
740.786	3367.71
740.972	3185.44
741.157	3304.23
741.342	3212.07
741.528	3177.25
741.713	3183.4
741.898	3201.83
742.084	3134.25
742.269	3124.01
742.454	3144.49
742.639	3203.88
742.824	3121.96
743.01	3126.05
743.195	3201.83
743.38	3287.84
743.565	3099.43
743.75	3107.62
743.935	3093.29
744.12	3095.33
744.305	3011.37
744.49	2872.11
744.675	2972.46
744.86	3097.38
745.045	3033.9
745.23	3121.96
745.415	2976.55
745.6	3003.18
745.785	3031.85
745.97	2941.74
746.155	2927.4
746.34	2933.54
746.525	3037.99
746.71	2923.3
746.895	2745.13
747.079	2833.19
747.264	2904.87
747.449	2820.91
747.634	2753.32
747.819	2814.76
748.003	2872.11
748.188	2798.38
748.373	2716.46
748.557	2796.33
748.742	2665.26
748.927	2829.1
749.111	2753.32
749.296	2765.61
749.481	2753.32
749.665	2806.57
749.85	2573.1
750.034	2622.25
750.219	2693.93
750.404	2718.51
750.588	2669.36
750.773	2556.72
750.957	2556.72
751.141	2591.53
751.326	2644.78
751.51	2642.73
751.695	2517.81
751.879	2468.66
752.064	2560.81
752.248	2427.7
752.432	2507.57
752.617	2452.27
752.801	2433.84
752.985	2329.39
753.17	2429.74
753.354	2519.85
753.538	2384.69
753.722	2329.39
753.907	2372.4
754.091	2353.97
754.275	2222.9
754.459	2257.71
754.643	2265.91
754.828	2245.43
755.012	2194.23
755.196	2110.26
755.38	2136.88
755.564	2233.14
755.748	2239.28
755.932	2300.72
756.116	2208.56
756.3	2089.78
756.484	1946.42
756.668	2151.22
756.852	2026.29
757.036	2036.53
757.22	2020.15
757.404	2011.96
757.588	2020.15
757.772	1940.28
757.956	2063.16
758.14	2016.05
758.323	1880.89
758.507	1962.81
758.691	1876.79
758.875	2022.2
759.059	2134.84
759.242	1987.38
759.426	1856.31
759.61	1934.14
759.794	1868.6
759.977	1893.18
760.161	1932.09
760.345	1917.75
760.528	1792.83
760.712	1940.28
760.895	1739.58
761.079	1811.26
761.263	1725.24
761.446	1647.42
761.63	1794.87
761.813	1899.32
761.997	1749.82
762.18	1755.96
762.364	1583.93
762.547	1706.81
762.731	1721.15
762.914	1792.83
763.098	1739.58
763.281	1678.14
763.464	1594.17
763.648	1733.43
763.831	1813.31
764.015	1608.51
764.198	1731.39
764.381	1680.19
764.564	1727.29
764.748	1563.45
764.931	1696.57
765.114	1583.93
765.297	1606.46
765.481	1557.31
765.664	1581.89
765.847	1532.73
766.03	1563.45
766.213	1577.79
766.397	1551.17
766.58	1463.1
766.763	1518.4
766.946	1510.21
767.129	1504.06
767.312	1499.97
767.495	1575.74
767.678	1366.85
767.861	1385.28
768.044	1514.3
768.227	1416
768.41	1426.24
768.593	1432.38
768.776	1491.77
768.959	1479.49
769.142	1401.66
769.324	1461.06
769.507	1442.62
769.69	1264.45
769.873	1381.18
770.056	1403.71
770.239	1409.86
770.421	1434.43
770.604	1356.61
770.787	1411.9
770.97	1348.42
771.152	1301.31
771.335	1289.03
771.518	1270.59
771.7	1405.76
771.883	1446.72
772.066	1276.74
772.248	1323.84
772.431	1366.85
772.613	1315.65
772.796	1309.51
772.978	1293.12
773.161	1299.27
773.343	1274.69
773.526	1256.26
773.708	1213.25
773.891	1209.15
774.073	1252.16
774.256	1235.78
774.438	1315.65
774.621	1217.35
774.803	1235.78
774.985	1182.53
775.168	1358.66
775.35	1088.32
775.532	1104.71
775.715	1076.04
775.897	1100.61
776.079	1127.24
776.261	1129.28
776.444	1076.04
776.626	1063.75
776.808	1006.41
776.99	1041.22
777.173	1108.8
777.355	1059.65
777.537	977.73
777.719	1024.84
777.901	924.49
778.083	1080.13
778.265	965.45
778.447	969.54
778.629	963.4
778.811	1004.36
778.993	1012.55
779.175	983.88
779.357	940.87
779.539	889.67
779.721	924.49
779.903	1014.6
780.085	975.69
780.267	1016.65
780.449	916.3
780.631	959.3
780.812	928.58
780.994	955.21
781.176	877.38
781.358	963.4
781.54	799.56
781.721	959.3
781.903	877.38
782.085	834.38
782.267	897.86
782.448	811.85
782.63	867.14
782.812	895.82
782.993	793.42
783.175	777.03
783.357	727.88
783.538	785.23
783.72	742.22
783.901	846.66
784.083	727.88
784.264	744.27
784.446	785.23
784.627	701.26
784.809	695.11
784.99	723.79
785.172	715.59
785.353	736.07
785.535	750.41
785.716	715.59
785.897	578.38
786.079	701.26
786.26	744.27
786.441	674.64
786.623	672.59
786.804	711.5
786.985	680.78
787.167	715.59
787.348	686.92
787.529	656.2
787.71	701.26
787.891	705.35
788.073	650.06
788.254	572.24
788.435	637.77
788.616	611.15
788.797	537.42
788.978	674.64
789.159	529.23
789.34	629.58
789.522	559.95
789.703	621.39
789.884	629.58
790.065	697.16
790.246	605
790.427	496.46
790.607	678.73
790.788	480.08
790.969	469.84
791.15	570.19
791.331	590.67
791.512	596.81
791.693	465.74
791.874	562
792.054	592.72
792.235	547.66
792.416	486.22
792.597	551.76
792.778	480.08
792.958	547.66
793.139	529.23
793.32	494.41
793.5	455.5
793.681	518.99
793.862	457.55
794.042	482.13
794.223	441.17
794.404	463.69
794.584	365.39
794.765	381.78
794.945	506.7
795.126	475.98
795.306	455.5
795.487	424.78
795.667	410.45
795.848	441.17
796.028	367.44
796.209	500.56
796.389	394.06
796.57	451.41
796.75	365.39
796.93	402.26
797.111	389.97
797.291	404.3
797.471	435.02
797.652	447.31
797.832	394.06
798.012	449.36
798.192	410.45
798.373	420.69
798.553	389.97
798.733	439.12
798.913	426.83
799.093	346.96
799.274	367.44
799.454	482.13
799.634	408.4
799.814	398.16
799.994	369.49
800.174	418.64
800.354	324.43
800.534	357.2
800.714	441.17
800.894	312.14
801.074	291.66
801.254	396.11
801.434	342.86
801.614	349.01
801.794	320.34
801.974	1053.51
802.154	330.58
802.334	428.88
802.514	359.25
802.693	365.39
802.873	389.97
803.053	338.77
803.233	359.25
803.413	314.19
803.592	273.23
803.772	248.66
803.952	316.24
804.131	248.66
804.311	324.43
804.491	273.23
804.67	357.2
804.85	310.1
805.03	258.9
805.209	285.52
805.389	271.19
805.568	357.2
805.748	363.34
805.928	262.99
806.107	285.52
806.287	357.2
806.466	277.33
806.646	326.48
806.825	234.32
807.004	234.32
807.184	316.24
807.363	398.16
807.543	373.58
807.722	279.38
807.901	281.43
808.081	326.48
808.26	262.99
808.439	340.82
808.619	273.23
808.798	306
808.977	336.72
809.156	236.37
809.336	330.58
809.515	232.27
809.694	277.33
809.873	226.13
810.052	191.31
810.231	340.82
810.411	273.23
810.59	293.71
810.769	236.37
810.948	332.62
811.127	170.83
811.306	219.99
811.485	234.32
811.664	287.57
811.843	246.61
812.022	258.9
812.201	158.55
812.38	250.71
812.559	277.33
812.737	226.13
812.916	162.64
813.095	191.31
813.274	240.47
813.453	222.03
813.632	232.27
813.811	281.43
813.989	211.79
814.168	254.8
814.347	207.7
814.526	213.84
814.704	246.61
814.883	228.18
815.062	185.17
815.24	222.03
815.419	185.17
815.598	232.27
815.776	234.32
815.955	170.83
816.133	136.02
816.312	199.51
816.49	150.36
816.669	258.9
816.847	183.12
817.026	224.08
817.204	203.6
817.383	203.6
817.561	213.84
817.74	136.02
817.918	193.36
818.097	127.83
818.275	183.12
818.453	158.55
818.632	238.42
818.81	195.41
818.988	189.27
819.167	217.94
819.345	174.93
819.523	166.74
819.701	269.14
819.879	162.64
820.058	117.59
820.236	195.41
820.414	197.46
820.592	217.94
820.77	154.45
820.948	170.83
821.127	144.21
821.305	281.43
821.483	72.53
821.661	250.71
821.839	133.97
822.017	113.49
822.195	123.73
822.373	176.98
822.551	111.44
822.729	140.12
822.907	60.24
823.085	228.18
823.262	164.69
823.44	199.51
823.618	174.93
823.796	195.41
823.974	113.49
824.152	215.89
824.329	179.03
824.507	160.59
824.685	74.58
824.863	121.68
825.04	166.74
825.218	144.21
825.396	101.2
825.574	181.07
825.751	152.4
825.929	232.27
826.107	97.11
826.284	172.88
826.462	111.44
826.639	197.46
826.817	176.98
826.994	105.3
827.172	119.64
827.349	162.64
827.527	115.54
827.704	80.72
827.882	146.26
828.059	131.92
828.237	107.35
828.414	164.69
828.591	88.92
828.769	187.22
828.946	97.11
829.124	133.97
829.301	199.51
829.478	133.97
829.655	136.02
829.833	199.51
830.01	62.29
830.187	156.5
830.364	136.02
830.542	105.3
830.719	162.64
830.896	181.07
831.073	142.16
831.25	101.2
831.427	129.88
831.604	107.35
831.782	113.49
831.959	131.92
832.136	131.92
832.313	170.83
832.49	93.01
832.667	113.49
832.844	60.24
833.021	90.96
833.198	119.64
833.374	103.25
833.551	189.27
833.728	82.77
833.905	142.16
834.082	25.43
834.259	197.46
834.436	121.68
834.612	86.87
834.789	211.79
834.966	78.68
835.143	129.88
835.319	113.49
835.496	86.87
835.673	125.78
835.85	76.63
836.026	90.96
836.203	97.11
836.38	105.3
836.556	76.63
836.733	103.25
836.909	131.92
837.086	80.72
837.262	72.53
837.439	62.29
837.616	62.29
837.792	101.2
837.968	74.58
838.145	88.92
838.321	90.96
838.498	103.25
838.674	107.35
838.851	154.45
839.027	78.68
839.203	154.45
839.38	78.68
839.556	11.09
839.732	97.11
839.909	129.88
840.085	64.34
840.261	97.11
840.437	121.68
840.614	52.05
840.79	60.24
840.966	72.53
841.142	111.44
841.318	84.82
841.494	90.96
841.671	146.26
841.847	50
842.023	9.05
842.199	133.97
842.375	189.27
842.551	117.59
842.727	60.24
842.903	86.87
843.079	35.67
843.255	123.73
843.431	84.82
843.607	60.24
843.783	-17.58
843.959	35.67
844.134	58.2
844.31	136.02
844.486	105.3
844.662	164.69
844.838	62.29
845.013	86.87
845.189	64.34
845.365	45.91
845.541	2.9
845.716	43.86
845.892	39.76
846.068	45.91
846.244	17.24
846.419	62.29
846.595	78.68
846.77	66.39
846.946	127.83
847.122	25.43
847.297	97.11
847.473	19.29
847.648	4.95
847.824	47.96
847.999	-76.97
848.175	2.9
848.35	37.72
848.526	90.96
848.701	23.38
848.876	31.57
849.052	103.25
849.227	76.63
849.403	15.19
849.578	15.19
849.753	62.29
849.929	78.68
850.104	121.68
850.279	80.72
850.454	25.43
850.63	0.85
850.805	11.09
850.98	15.19
851.155	86.87
851.33	76.63
851.505	35.67
851.681	115.54
851.856	64.34
852.031	88.92
852.206	121.68
852.381	47.96
852.556	7
852.731	80.72
852.906	78.68
853.081	-9.39
853.256	35.67
853.431	80.72
853.606	64.34
853.781	29.52
853.956	-27.82
854.131	23.38
854.305	15.19
854.48	64.34
854.655	45.91
854.83	105.3
855.005	-17.58
855.18	19.29
855.354	95.06
855.529	58.2
855.704	35.67
855.879	86.87
856.053	27.48
856.228	88.92
856.403	7
856.577	47.96
856.752	-13.48
856.926	68.44
857.101	27.48
857.276	29.52
857.45	25.43
857.625	105.3
857.799	-13.48
857.974	95.06
858.148	-19.63
858.323	84.82
858.497	101.2
858.672	27.48
858.846	31.57
859.02	80.72
859.195	17.24
859.369	47.96
859.543	-9.39
859.718	103.25
859.892	66.39
860.066	78.68
860.241	-1.19
860.415	-70.83
860.589	19.29
860.763	62.29
860.938	29.52
861.112	23.38
861.286	-7.34
861.46	7
861.634	-9.39
861.808	74.58
861.982	-3.24
862.157	-1.19
862.331	29.52
862.505	66.39
862.679	27.48
862.853	-11.43
863.027	25.43
863.201	56.15
863.375	-33.96
863.549	56.15
863.722	84.82
863.896	101.2
864.07	9.05
864.244	-29.87
864.418	97.11
864.592	52.05
864.766	23.38
864.939	99.16
865.113	-60.59
865.287	99.16
865.461	-9.39
865.634	142.16
865.808	72.53
865.982	17.24
866.156	-46.25
866.329	-36.01
866.503	80.72
866.676	15.19
866.85	4.95
867.024	23.38
867.197	66.39
867.371	68.44
867.544	70.48
867.718	-62.63
867.891	9.05
868.065	-29.87
868.238	4.95
868.412	86.87
868.585	-31.91
868.759	33.62
868.932	-36.01
869.105	33.62
869.279	15.19
869.452	17.24
869.625	58.2
869.799	19.29
869.972	50
870.145	13.14
870.319	76.63
870.492	-11.43
870.665	-3.24
870.838	31.57
871.011	19.29
871.185	-11.43
871.358	-7.34
871.531	43.86
871.704	-11.43
871.877	-17.58
872.05	58.2
872.223	21.33
872.396	113.49
872.569	-11.43
872.742	-85.16
872.915	72.53
873.088	15.19
873.261	39.76
873.434	37.72
873.607	-46.25
873.78	2.9
873.953	-50.35
874.126	-70.83
874.299	9.05
874.471	-3.24
874.644	-7.34
874.817	68.44
874.99	19.29
875.163	9.05
875.335	-13.48
875.508	-17.58
875.681	52.05
875.853	2.9
876.026	-5.29
876.199	68.44
876.371	68.44
876.544	33.62
876.717	37.72
876.889	-25.77
877.062	-33.96
877.234	9.05
877.407	7
877.579	0.85
877.752	62.29
877.924	9.05
878.097	-5.29
878.269	35.67
878.442	-21.67
878.614	21.33
878.786	29.52
878.959	-25.77
879.131	41.81
879.303	0.85
879.476	-50.35
879.648	35.67
879.82	17.24
879.993	7
880.165	15.19
880.337	-9.39
880.509	117.59
880.681	7
880.854	9.05
881.026	88.92
881.198	50
881.37	-5.29
881.542	19.29
881.714	-7.34
881.886	-13.48
882.058	74.58
882.23	-7.34
882.402	-19.63
882.574	-40.11
882.746	-1.19
882.918	-23.72
883.09	7
883.262	-91.31
883.434	-50.35
883.606	-58.54
883.778	-11.43
883.95	125.78
884.122	-25.77
884.293	64.34
884.465	47.96
884.637	54.1
884.809	37.72
884.98	76.63
885.152	15.19
885.324	37.72
885.496	9.05
885.667	-3.24
885.839	54.1
886.011	39.76
886.182	64.34
886.354	7
886.525	27.48
886.697	47.96
886.869	-46.25
887.04	7
887.212	0.85
887.383	97.11
887.555	4.95
887.726	-60.59
887.897	17.24
888.069	-9.39
888.24	17.24
888.412	15.19
888.583	17.24
888.754	-25.77
888.926	-38.06
889.097	41.81
889.268	-48.3
889.44	35.67
889.611	-93.35
889.782	7
889.953	-21.67
890.125	4.95
890.296	-38.06
890.467	-27.82
890.638	0.85
890.809	9.05
890.98	-62.63
891.151	43.86
891.323	45.91
891.494	-36.01
891.665	-13.48
891.836	74.58
892.007	31.57
892.178	-15.53
892.349	11.09
892.52	-23.72
892.691	-36.01
892.862	13.14
893.032	-62.63
893.203	21.33
893.374	-19.63
893.545	56.15
893.716	-27.82
893.887	-38.06
894.057	-36.01
894.228	-19.63
894.399	39.76
894.57	76.63
894.74	-5.29
894.911	64.34
895.082	-99.5
895.253	-48.3
895.423	21.33
895.594	47.96
895.764	33.62
895.935	-72.87
896.106	21.33
896.276	19.29
896.447	2.9
896.617	-56.49
896.788	-44.2
896.958	-72.87
897.129	-62.63
897.299	-40.11
897.47	97.11
897.64	-1.19
897.81	68.44
897.981	-9.39
898.151	7
898.322	37.72
898.492	-60.59
898.662	31.57
898.832	-72.87
899.003	-42.15
899.173	-38.06
899.343	45.91
899.513	-60.59
