Data from USB4F104151__81__12-24-26-560.txt Node

Date: Fri Mar 14 12:24:26 EDT 2025
User: louis
Spectrometer: USB4F10415
Trigger mode: 4
Integration Time (sec): 3.500000E-2
Scans to average: 1
Electric dark correction enabled: true
Nonlinearity correction enabled: false
Boxcar width: 0
XAxis mode: Wavelengths
Number of Pixels in Spectrum: 3648
>>>>>Begin Spectral Data<<<<<
178.204	-76.8
178.424	-76.8
178.644	-76.8
178.864	-171.01
179.084	-177.15
179.304	-84.99
179.524	9.22
179.744	25.6
179.964	41.98
180.184	31.74
180.404	19.46
180.624	-25.6
180.844	-11.26
181.064	-11.26
181.283	-13.31
181.503	-56.32
181.723	74.75
181.943	-148.48
182.163	142.33
182.383	-37.89
182.602	44.03
182.822	99.33
183.042	-11.26
183.262	-27.65
183.482	76.8
183.701	17.41
183.921	-35.84
184.141	17.41
184.361	46.08
184.58	-33.79
184.8	19.46
185.02	-66.56
185.239	-19.46
185.459	21.5
185.679	109.57
185.898	-13.31
186.118	91.13
186.338	7.17
186.557	101.37
186.777	3.07
186.997	-66.56
187.216	50.18
187.436	64.51
187.655	84.99
187.875	107.52
188.095	-17.41
188.314	62.46
188.534	82.94
188.753	56.32
188.973	29.7
189.192	119.81
189.412	64.51
189.631	64.51
189.851	-41.98
190.07	84.99
190.29	-19.46
190.509	35.84
190.729	-23.55
190.948	-9.22
191.168	144.38
191.387	62.46
191.607	9.22
191.826	-13.31
192.045	1.02
192.265	-13.31
192.484	78.85
192.704	37.89
192.923	99.33
193.142	91.13
193.362	15.36
193.581	58.37
193.8	-58.37
194.02	44.03
194.239	97.28
194.458	5.12
194.678	37.89
194.897	56.32
195.116	48.13
195.335	99.33
195.555	56.32
195.774	27.65
195.993	41.98
196.212	64.51
196.432	23.55
196.651	23.55
196.87	82.94
197.089	89.09
197.308	72.7
197.528	72.7
197.747	-11.26
197.966	5.12
198.185	101.37
198.404	23.55
198.623	27.65
198.842	64.51
199.062	78.85
199.281	50.18
199.5	11.26
199.719	23.55
199.938	25.6
200.157	87.04
200.376	46.08
200.595	60.42
200.814	54.27
201.033	1.02
201.252	15.36
201.471	56.32
201.69	21.5
201.909	-11.26
202.128	54.27
202.347	-7.17
202.566	95.23
202.785	91.13
203.004	3.07
203.223	123.9
203.442	9.22
203.661	-35.84
203.879	58.37
204.098	89.09
204.317	-13.31
204.536	17.41
204.755	15.36
204.974	66.56
205.193	23.55
205.411	76.8
205.63	-9.22
205.849	27.65
206.068	-11.26
206.287	-23.55
206.505	13.31
206.724	-29.7
206.943	-39.94
207.162	87.04
207.381	78.85
207.599	9.22
207.818	21.5
208.037	60.42
208.255	11.26
208.474	80.89
208.693	109.57
208.911	21.5
209.13	78.85
209.349	80.89
209.567	17.41
209.786	27.65
210.005	3.07
210.223	25.6
210.442	41.98
210.661	62.46
210.879	31.74
211.098	19.46
211.316	62.46
211.535	99.33
211.753	41.98
211.972	103.42
212.191	23.55
212.409	33.79
212.628	39.94
212.846	-11.26
213.065	113.66
213.283	58.37
213.502	52.22
213.72	-13.31
213.938	68.61
214.157	31.74
214.375	89.09
214.594	-31.74
214.812	11.26
215.031	37.89
215.249	3.07
215.467	56.32
215.686	3.07
215.904	52.22
216.122	37.89
216.341	17.41
216.559	103.42
216.778	101.37
216.996	97.28
217.214	-9.22
217.432	19.46
217.651	-60.42
217.869	-91.13
218.087	1.02
218.306	46.08
218.524	68.61
218.742	7.17
218.96	56.32
219.179	-21.5
219.397	1.02
219.615	89.09
219.833	87.04
220.051	1.02
220.27	97.28
220.488	27.65
220.706	-19.46
220.924	46.08
221.142	7.17
221.36	-3.07
221.578	-21.5
221.796	-19.46
222.015	97.28
222.233	62.46
222.451	97.28
222.669	21.5
222.887	76.8
223.105	54.27
223.323	41.98
223.541	-52.22
223.759	72.7
223.977	-11.26
224.195	99.33
224.413	35.84
224.631	58.37
224.849	76.8
225.067	84.99
225.285	-21.5
225.503	48.13
225.721	-103.42
225.939	27.65
226.157	-5.12
226.375	142.33
226.592	-27.65
226.81	-11.26
227.028	13.31
227.246	152.57
227.464	-15.36
227.682	31.74
227.9	54.27
228.117	56.32
228.335	-7.17
228.553	44.03
228.771	-54.27
228.989	56.32
229.206	-9.22
229.424	60.42
229.642	17.41
229.86	27.65
230.077	27.65
230.295	-7.17
230.513	3.07
230.731	-23.55
230.948	-58.37
231.166	162.81
231.384	46.08
231.601	3.07
231.819	91.13
232.037	44.03
232.254	58.37
232.472	-19.46
232.689	-50.18
232.907	103.42
233.125	9.22
233.342	-68.61
233.56	-21.5
233.777	3.07
233.995	46.08
234.213	76.8
234.43	-17.41
234.648	35.84
234.865	13.31
235.083	70.65
235.3	-35.84
235.518	27.65
235.735	115.71
235.953	68.61
236.17	-11.26
236.388	15.36
236.605	7.17
236.822	134.14
237.04	37.89
237.257	-33.79
237.475	48.13
237.692	101.37
237.909	44.03
238.127	70.65
238.344	-15.36
238.562	44.03
238.779	19.46
238.996	-1.02
239.214	29.7
239.431	25.6
239.648	23.55
239.865	29.7
240.083	80.89
240.3	33.79
240.517	33.79
240.735	35.84
240.952	9.22
241.169	76.8
241.386	11.26
241.603	1.02
241.821	27.65
242.038	58.37
242.255	54.27
242.472	-33.79
242.689	76.8
242.907	68.61
243.124	-15.36
243.341	-17.41
243.558	-78.85
243.775	-62.46
243.992	1.02
244.209	54.27
244.426	35.84
244.643	78.85
244.86	-21.5
245.078	13.31
245.295	41.98
245.512	9.22
245.729	-19.46
245.946	52.22
246.163	23.55
246.38	60.42
246.597	25.6
246.814	13.31
247.031	39.94
247.248	23.55
247.464	7.17
247.681	7.17
247.898	115.71
248.115	72.7
248.332	7.17
248.549	48.13
248.766	97.28
248.983	15.36
249.2	29.7
249.417	121.85
249.633	7.17
249.85	21.5
250.067	11.26
250.284	50.18
250.501	72.7
250.717	39.94
250.934	-46.08
251.151	-25.6
251.368	5.12
251.585	84.99
251.801	23.55
252.018	1.02
252.235	-1.02
252.451	1.02
252.668	60.42
252.885	58.37
253.102	9.22
253.318	29.7
253.535	23.55
253.752	5.12
253.968	-62.46
254.185	-84.99
254.401	99.33
254.618	68.61
254.835	11.26
255.051	52.22
255.268	19.46
255.484	17.41
255.701	44.03
255.917	115.71
256.134	1.02
256.351	1.02
256.567	37.89
256.784	-27.65
257	9.22
257.217	76.8
257.433	-3.07
257.65	27.65
257.866	21.5
258.082	-11.26
258.299	7.17
258.515	33.79
258.732	-17.41
258.948	11.26
259.165	97.28
259.381	9.22
259.597	66.56
259.814	-19.46
260.03	-11.26
260.246	33.79
260.463	44.03
260.679	78.85
260.895	58.37
261.112	84.99
261.328	44.03
261.544	1.02
261.761	138.24
261.977	-17.41
262.193	33.79
262.409	35.84
262.626	35.84
262.842	11.26
263.058	17.41
263.274	87.04
263.49	31.74
263.707	56.32
263.923	9.22
264.139	-37.89
264.355	27.65
264.571	62.46
264.787	9.22
265.004	-11.26
265.22	72.7
265.436	-13.31
265.652	1.02
265.868	41.98
266.084	-5.12
266.3	41.98
266.516	-3.07
266.732	39.94
266.948	21.5
267.164	60.42
267.38	93.18
267.596	27.65
267.812	115.71
268.028	91.13
268.244	101.37
268.46	33.79
268.676	-41.98
268.892	52.22
269.108	-25.6
269.324	25.6
269.54	11.26
269.756	95.23
269.972	-48.13
270.188	50.18
270.403	-31.74
270.619	9.22
270.835	9.22
271.051	19.46
271.267	35.84
271.483	-35.84
271.698	78.85
271.914	-5.12
272.13	-11.26
272.346	64.51
272.562	54.27
272.777	-13.31
272.993	82.94
273.209	-44.03
273.425	52.22
273.64	-17.41
273.856	82.94
274.072	11.26
274.287	-44.03
274.503	13.31
274.719	46.08
274.934	37.89
275.15	-35.84
275.366	25.6
275.581	46.08
275.797	-7.17
276.012	46.08
276.228	33.79
276.444	1.02
276.659	78.85
276.875	60.42
277.09	17.41
277.306	70.65
277.521	21.5
277.737	56.32
277.952	7.17
278.168	78.85
278.383	33.79
278.599	29.7
278.814	46.08
279.03	80.89
279.245	15.36
279.461	-41.98
279.676	93.18
279.892	44.03
280.107	-3.07
280.322	5.12
280.538	25.6
280.753	62.46
280.969	82.94
281.184	-1.02
281.399	66.56
281.615	52.22
281.83	46.08
282.045	11.26
282.26	60.42
282.476	-15.36
282.691	130.05
282.906	23.55
283.122	56.32
283.337	3.07
283.552	111.61
283.767	31.74
283.983	89.09
284.198	37.89
284.413	52.22
284.628	46.08
284.843	72.7
285.058	54.27
285.274	5.12
285.489	-5.12
285.704	19.46
285.919	95.23
286.134	3.07
286.349	56.32
286.564	7.17
286.779	-25.6
286.995	7.17
287.21	3.07
287.425	31.74
287.64	5.12
287.855	48.13
288.07	23.55
288.285	41.98
288.5	119.81
288.715	54.27
288.93	11.26
289.145	15.36
289.36	50.18
289.575	44.03
289.79	9.22
290.004	21.5
290.219	15.36
290.434	25.6
290.649	-50.18
290.864	35.84
291.079	41.98
291.294	72.7
291.509	3.07
291.724	31.74
291.938	21.5
292.153	19.46
292.368	-41.98
292.583	50.18
292.798	21.5
293.012	11.26
293.227	54.27
293.442	15.36
293.657	21.5
293.871	84.99
294.086	58.37
294.301	46.08
294.516	87.04
294.73	56.32
294.945	-37.89
295.16	5.12
295.374	78.85
295.589	54.27
295.804	-3.07
296.018	56.32
296.233	123.9
296.447	41.98
296.662	39.94
296.877	103.42
297.091	41.98
297.306	66.56
297.52	15.36
297.735	-13.31
297.949	54.27
298.164	-7.17
298.378	29.7
298.593	62.46
298.807	-46.08
299.022	35.84
299.236	72.7
299.451	29.7
299.665	33.79
299.88	-46.08
300.094	66.56
300.309	-1.02
300.523	-15.36
300.737	39.94
300.952	74.75
301.166	52.22
301.381	-58.37
301.595	5.12
301.809	52.22
302.024	21.5
302.238	-7.17
302.452	89.09
302.667	-54.27
302.881	48.13
303.095	25.6
303.309	27.65
303.524	60.42
303.738	-80.89
303.952	3.07
304.166	33.79
304.381	17.41
304.595	62.46
304.809	-5.12
305.023	72.7
305.237	-50.18
305.452	5.12
305.666	19.46
305.88	91.13
306.094	91.13
306.308	-21.5
306.522	41.98
306.736	82.94
306.95	105.47
307.164	107.52
307.379	35.84
307.593	37.89
307.807	64.51
308.021	103.42
308.235	-1.02
308.449	128
308.663	-17.41
308.877	123.9
309.091	-13.31
309.305	-31.74
309.519	-31.74
309.733	21.5
309.947	-3.07
310.161	117.76
310.374	23.55
310.588	64.51
310.802	33.79
311.016	23.55
311.23	70.65
311.444	41.98
311.658	23.55
311.872	37.89
312.085	87.04
312.299	82.94
312.513	64.51
312.727	31.74
312.941	31.74
313.154	27.65
313.368	58.37
313.582	-19.46
313.796	-7.17
314.009	29.7
314.223	46.08
314.437	-9.22
314.651	64.51
314.864	74.75
315.078	33.79
315.292	-21.5
315.505	3.07
315.719	-31.74
315.933	15.36
316.146	93.18
316.36	-54.27
316.573	111.61
316.787	78.85
317.001	31.74
317.214	52.22
317.428	-11.26
317.641	-54.27
317.855	50.18
318.068	25.6
318.282	70.65
318.495	46.08
318.709	-13.31
318.922	64.51
319.136	7.17
319.349	50.18
319.563	-5.12
319.776	107.52
319.99	-19.46
320.203	35.84
320.417	70.65
320.63	66.56
320.843	87.04
321.057	48.13
321.27	68.61
321.483	80.89
321.697	21.5
321.91	11.26
322.124	41.98
322.337	29.7
322.55	-11.26
322.763	46.08
322.977	11.26
323.19	-29.7
323.403	-13.31
323.617	31.74
323.83	41.98
324.043	56.32
324.256	-25.6
324.469	56.32
324.683	41.98
324.896	19.46
325.109	41.98
325.322	27.65
325.535	52.22
325.748	27.65
325.962	80.89
326.175	35.84
326.388	70.65
326.601	11.26
326.814	-3.07
327.027	84.99
327.24	56.32
327.453	-46.08
327.666	60.42
327.879	107.52
328.092	119.81
328.305	44.03
328.518	-5.12
328.731	1.02
328.944	-11.26
329.157	-23.55
329.37	50.18
329.583	117.76
329.796	56.32
330.009	-11.26
330.222	60.42
330.435	109.57
330.648	48.13
330.861	35.84
331.073	80.89
331.286	87.04
331.499	39.94
331.712	-78.85
331.925	52.22
332.138	-17.41
332.35	25.6
332.563	9.22
332.776	19.46
332.989	25.6
333.202	-3.07
333.414	103.42
333.627	-5.12
333.84	76.8
334.053	19.46
334.265	-54.27
334.478	56.32
334.691	25.6
334.903	54.27
335.116	35.84
335.329	-7.17
335.541	9.22
335.754	9.22
335.966	70.65
336.179	-23.55
336.392	37.89
336.604	31.74
336.817	19.46
337.029	66.56
337.242	60.42
337.454	97.28
337.667	15.36
337.88	150.53
338.092	1.02
338.305	37.89
338.517	-33.79
338.729	121.85
338.942	33.79
339.154	13.31
339.367	-31.74
339.579	37.89
339.792	27.65
340.004	84.99
340.217	29.7
340.429	76.8
340.641	3.07
340.854	72.7
341.066	31.74
341.278	44.03
341.491	58.37
341.703	29.7
341.915	-9.22
342.128	66.56
342.34	56.32
342.552	-5.12
342.764	-37.89
342.977	44.03
343.189	50.18
343.401	1.02
343.613	46.08
343.826	25.6
344.038	50.18
344.25	105.47
344.462	-11.26
344.674	-7.17
344.886	101.37
345.099	35.84
345.311	-1.02
345.523	87.04
345.735	1.02
345.947	54.27
346.159	76.8
346.371	17.41
346.583	11.26
346.795	76.8
347.007	23.55
347.219	87.04
347.431	-39.94
347.643	15.36
347.855	72.7
348.067	41.98
348.279	-48.13
348.491	21.5
348.703	15.36
348.915	23.55
349.127	-1.02
349.339	35.84
349.551	-1.02
349.763	76.8
349.975	128
350.187	82.94
350.399	35.84
350.61	27.65
350.822	93.18
351.034	50.18
351.246	64.51
351.458	-5.12
351.669	101.37
351.881	62.46
352.093	35.84
352.305	15.36
352.517	89.09
352.728	15.36
352.94	62.46
353.152	66.56
353.363	64.51
353.575	52.22
353.787	25.6
353.999	25.6
354.21	41.98
354.422	31.74
354.633	-1.02
354.845	-27.65
355.057	-13.31
355.268	17.41
355.48	130.05
355.692	39.94
355.903	76.8
356.115	-9.22
356.326	-60.42
356.538	39.94
356.749	103.42
356.961	91.13
357.172	35.84
357.384	5.12
357.595	158.72
357.807	44.03
358.018	68.61
358.23	23.55
358.441	117.76
358.653	15.36
358.864	25.6
359.075	-37.89
359.287	62.46
359.498	37.89
359.709	29.7
359.921	41.98
360.132	-11.26
360.344	54.27
360.555	56.32
360.766	62.46
360.977	29.7
361.189	52.22
361.4	15.36
361.611	89.09
361.823	-7.17
362.034	97.28
362.245	-1.02
362.456	48.13
362.667	93.18
362.879	25.6
363.09	37.89
363.301	109.57
363.512	91.13
363.723	-17.41
363.935	15.36
364.146	19.46
364.357	62.46
364.568	44.03
364.779	9.22
364.99	68.61
365.201	19.46
365.412	64.51
365.623	-27.65
365.834	33.79
366.045	-7.17
366.256	35.84
366.467	-17.41
366.678	-27.65
366.889	46.08
367.1	82.94
367.311	37.89
367.522	-39.94
367.733	52.22
367.944	87.04
368.155	84.99
368.366	80.89
368.577	89.09
368.788	37.89
368.999	58.37
369.209	-27.65
369.42	50.18
369.631	33.79
369.842	68.61
370.053	107.52
370.264	121.85
370.474	19.46
370.685	39.94
370.896	54.27
371.107	-7.17
371.317	41.98
371.528	31.74
371.739	80.89
371.95	64.51
372.16	25.6
372.371	-3.07
372.582	84.99
372.792	99.33
373.003	37.89
373.214	29.7
373.424	93.18
373.635	48.13
373.846	74.75
374.056	-23.55
374.267	17.41
374.477	123.9
374.688	7.17
374.898	11.26
375.109	111.61
375.319	37.89
375.53	97.28
375.74	33.79
375.951	25.6
376.161	27.65
376.372	46.08
376.582	44.03
376.793	56.32
377.003	66.56
377.214	41.98
377.424	1.02
377.635	-3.07
377.845	37.89
378.055	93.18
378.266	-17.41
378.476	9.22
378.686	82.94
378.897	33.79
379.107	58.37
379.317	-1.02
379.528	60.42
379.738	46.08
379.948	9.22
380.158	105.47
380.369	62.46
380.579	119.81
380.789	7.17
380.999	23.55
381.21	101.37
381.42	97.28
381.63	54.27
381.84	68.61
382.05	121.85
382.261	58.37
382.471	35.84
382.681	-11.26
382.891	164.86
383.101	44.03
383.311	50.18
383.521	-25.6
383.731	27.65
383.941	76.8
384.151	3.07
384.361	74.75
384.571	101.37
384.781	70.65
384.991	125.95
385.201	58.37
385.411	39.94
385.621	82.94
385.831	68.61
386.041	119.81
386.251	76.8
386.461	76.8
386.671	93.18
386.881	91.13
387.091	62.46
387.301	66.56
387.511	41.98
387.72	103.42
387.93	101.37
388.14	58.37
388.35	33.79
388.56	56.32
388.769	76.8
388.979	72.7
389.189	31.74
389.399	27.65
389.609	19.46
389.818	185.34
390.028	11.26
390.238	5.12
390.447	-15.36
390.657	74.75
390.867	-25.6
391.076	3.07
391.286	171.01
391.496	-23.55
391.705	99.33
391.915	103.42
392.125	84.99
392.334	9.22
392.544	132.09
392.753	72.7
392.963	68.61
393.172	87.04
393.382	89.09
393.591	125.95
393.801	66.56
394.01	107.52
394.22	105.47
394.429	33.79
394.639	27.65
394.848	144.38
395.058	117.76
395.267	109.57
395.477	27.65
395.686	39.94
395.895	125.95
396.105	183.29
396.314	50.18
396.524	80.89
396.733	13.31
396.942	99.33
397.152	84.99
397.361	15.36
397.57	140.29
397.78	74.75
397.989	136.19
398.198	146.43
398.407	52.22
398.617	56.32
398.826	164.86
399.035	62.46
399.244	56.32
399.453	23.55
399.663	134.14
399.872	154.62
400.081	111.61
400.29	93.18
400.499	62.46
400.708	154.62
400.917	84.99
401.127	64.51
401.336	33.79
401.545	105.47
401.754	125.95
401.963	103.42
402.172	68.61
402.381	80.89
402.59	35.84
402.799	99.33
403.008	64.51
403.217	101.37
403.426	171.01
403.635	62.46
403.844	146.43
404.053	136.19
404.262	101.37
404.471	238.59
404.68	95.23
404.888	185.34
405.097	105.47
405.306	171.01
405.515	224.25
405.724	150.53
405.933	142.33
406.142	160.77
406.35	115.71
406.559	263.16
406.768	109.57
406.977	226.3
407.185	197.63
407.394	146.43
407.603	171.01
407.812	218.11
408.02	250.88
408.229	240.64
408.438	238.59
408.646	224.25
408.855	130.05
409.064	250.88
409.272	201.72
409.481	226.3
409.69	211.96
409.898	240.64
410.107	236.54
410.315	375.8
410.524	252.92
410.733	328.7
410.941	281.6
411.15	250.88
411.358	371.71
411.567	377.85
411.775	394.23
411.984	302.08
412.192	406.52
412.401	285.69
412.609	392.19
412.818	482.3
413.026	359.42
413.234	478.2
413.443	451.58
413.651	533.5
413.86	400.38
414.068	437.24
414.276	467.96
414.485	529.4
414.693	582.65
414.901	525.3
415.11	592.89
415.318	529.4
415.526	639.99
415.734	590.84
415.943	652.28
416.151	680.95
416.359	619.51
416.567	680.95
416.776	844.79
416.984	715.77
417.192	873.46
417.4	754.68
417.608	799.73
417.817	807.92
418.025	844.79
418.233	979.95
418.441	914.42
418.649	926.71
418.857	988.14
419.065	1078.26
419.273	1092.59
419.481	1168.37
419.689	1162.22
419.897	1192.94
420.105	1143.79
420.313	1250.28
420.521	1483.75
420.729	1295.34
420.937	1500.14
421.145	1463.27
421.353	1606.63
421.561	1631.21
421.769	1618.92
421.977	1692.65
422.185	1735.65
422.393	1620.97
422.601	1823.72
422.809	1926.11
423.017	1854.44
423.224	1981.41
423.432	1973.22
423.64	2003.94
423.848	2171.87
424.056	2270.17
424.263	2401.24
424.471	2214.88
424.679	2335.71
424.887	2538.46
425.094	2640.86
425.302	2647
425.51	2870.23
425.718	2909.14
425.925	2825.17
426.133	2982.87
426.341	3058.64
426.548	3085.26
426.756	3259.34
426.964	3218.38
427.171	3507.15
427.379	3509.19
427.586	3646.41
427.794	3752.9
428.001	3929.03
428.209	4107.2
428.417	3961.8
428.624	4389.82
428.832	4228.03
429.039	4297.66
429.247	4189.12
429.454	4783.03
429.662	4998.07
429.869	4611
430.076	5129.14
430.284	4871.09
430.491	5209.01
430.699	5446.57
430.906	5315.5
431.114	5284.78
431.321	5596.07
431.528	5737.38
431.736	6196.13
431.943	6304.67
432.15	6341.54
432.358	6435.74
432.565	6710.17
432.772	6607.77
432.979	6927.25
433.187	7304.08
433.394	7127.96
433.601	7603.08
433.808	7717.77
434.016	7506.83
434.223	7891.85
434.43	8389.5
434.637	8070.02
434.844	8717.18
435.052	8981.37
435.259	8733.56
435.466	9053.05
435.673	8768.38
435.88	9479.02
436.087	9882.47
436.294	9855.85
436.501	9728.88
436.708	9747.31
436.915	10136.42
437.122	10853.21
437.329	10650.46
437.537	10998.62
437.743	11389.78
437.95	11135.83
438.157	11664.21
438.364	12202.82
438.571	12084.04
438.778	11957.07
438.985	13316.92
439.192	12852.03
439.399	13191.99
439.606	12731.2
439.813	13325.11
440.02	14467.88
440.227	14277.41
440.433	14025.51
440.64	14629.66
440.847	14525.22
441.054	14846.75
441.261	15641.36
441.467	15483.67
441.674	15913.74
441.881	16376.58
442.088	16354.05
442.294	16251.66
442.501	16765.7
442.708	17300.22
442.914	17810.16
443.121	18547.43
443.328	17941.23
443.534	19223.26
443.741	18766.56
443.948	18469.61
444.154	19849.94
444.361	19550.93
444.568	19675.86
444.774	19905.23
444.981	20187.85
445.187	20583.11
445.394	21498.55
445.6	21400.25
445.807	23378.59
446.013	22338.22
446.22	22710.95
446.426	23827.09
446.633	23882.39
446.839	24593.03
447.046	23612.06
447.252	24763.01
447.459	25070.21
447.665	24687.24
447.871	26018.42
448.078	27206.24
448.284	25762.42
448.491	26667.63
448.697	27576.92
448.903	27849.3
449.11	28484.17
449.316	27669.08
449.522	28189.27
449.728	29026.89
449.935	29274.69
450.141	29387.33
450.347	30167.6
450.553	29049.41
450.76	29266.5
450.966	30132.79
451.172	30024.25
451.378	30745.13
451.584	30323.25
451.791	30657.07
451.997	30874.15
452.203	31277.6
452.409	31162.92
452.615	31066.66
452.821	29917.75
453.027	29934.14
453.233	30904.87
453.44	29962.81
453.646	30259.76
453.852	30173.75
454.058	31027.75
454.264	30085.68
454.47	30505.52
454.676	30011.96
454.882	30966.31
455.088	28219.99
455.294	28420.69
455.5	28934.73
455.705	29555.26
455.911	28363.34
456.117	27861.59
456.323	27433.57
456.529	25612.92
456.735	26630.76
456.941	26010.23
457.147	25672.31
457.352	24978.05
457.558	24697.48
457.764	24855.17
457.97	24486.54
458.176	23906.96
458.381	24124.05
458.587	22610.6
458.793	22753.96
458.999	21473.98
459.204	23005.86
459.41	22303.4
459.616	20908.74
459.821	21072.57
460.027	20574.92
460.233	20177.61
460.438	19348.18
460.644	19495.64
460.85	18842.34
461.055	18537.19
461.261	18342.63
461.466	16853.76
461.672	16366.34
461.878	17287.93
462.083	16517.89
462.289	16257.8
462.494	16050.96
462.7	15254.3
462.905	14838.56
463.111	15377.17
463.316	15491.86
463.522	15135.51
463.727	15151.9
463.932	15293.21
464.138	14918.43
464.343	15117.08
464.549	14635.81
464.754	15188.76
464.959	15002.4
465.165	14605.09
465.37	14244.65
465.575	13730.61
465.781	14478.12
465.986	14529.31
466.191	13835.05
466.397	13671.22
466.602	12909.37
466.807	13480.75
467.012	13542.19
467.218	13478.71
467.423	13271.86
467.628	13198.13
467.833	13843.24
468.038	13376.31
468.244	12804.92
468.449	13548.34
468.654	13183.8
468.859	13034.3
469.064	13028.15
469.269	12153.67
469.474	12354.37
469.679	12675.9
469.885	12428.1
470.09	12518.21
470.295	12614.46
470.5	12217.16
470.705	12188.49
470.91	11987.79
471.115	11754.32
471.32	11948.87
471.525	12008.26
471.73	11580.24
471.935	11494.22
472.139	11084.63
472.344	11244.37
472.549	11205.46
472.754	11311.96
472.959	10842.97
473.164	10517.34
473.369	10589.02
473.574	11176.79
473.778	10765.15
473.983	10537.82
474.188	10677.09
474.393	10234.72
474.598	10357.6
474.802	10171.24
475.007	10007.4
475.212	10171.24
475.417	9792.36
475.621	9532.27
475.826	9681.77
476.031	9546.61
476.235	9470.83
476.44	9608.05
476.645	9362.29
476.849	9272.18
477.054	9223.03
477.259	9311.09
477.463	9089.91
477.668	8874.87
477.872	8997.75
478.077	8801.15
478.282	8573.82
478.486	8584.06
478.691	8588.16
478.895	8627.07
479.1	8496
479.304	8559.49
479.509	8246.15
479.713	8487.81
479.918	8119.17
480.122	8110.98
480.326	8244.1
480.531	8254.34
480.735	8029.06
480.94	7871.37
481.144	8283.01
481.348	7789.45
481.553	7730.06
481.757	7799.69
481.961	7820.17
482.166	7922.57
482.37	7760.78
482.574	7783.31
482.778	7873.42
482.983	7988.1
483.187	8057.73
483.391	7973.77
483.595	7828.36
483.8	7893.9
484.004	7701.39
484.208	7908.23
484.412	7754.63
484.616	7811.98
484.821	7854.98
485.025	7613.32
485.229	7834.5
485.433	7764.87
485.637	7873.42
485.841	7756.68
486.045	7859.08
486.249	7949.19
486.453	7568.27
486.657	7740.3
486.861	7836.55
487.065	7711.63
487.269	7797.64
487.473	7664.52
487.677	7897.99
487.881	7848.84
488.085	7836.55
488.289	7873.42
488.493	7799.69
488.697	7984.01
488.901	7738.25
489.105	7910.28
489.309	7734.15
489.512	7721.87
489.716	8072.07
489.92	7707.53
490.124	8201.09
490.328	8158.08
490.531	8047.49
490.735	8063.88
490.939	8080.26
491.143	7994.25
491.346	7949.19
491.55	8027.01
491.754	8227.71
491.958	8080.26
492.161	8041.35
492.365	8117.12
492.569	8301.44
492.772	8407.94
492.976	8307.59
493.18	8354.69
493.383	8645.5
493.587	8385.41
493.79	8565.63
493.994	8360.83
494.197	8733.56
494.401	8674.17
494.605	8608.64
494.808	8788.86
495.012	8764.28
495.215	8887.16
495.419	9007.99
495.622	8903.54
495.825	9014.13
496.029	9180.02
496.232	9255.79
496.436	9118.58
496.639	9673.58
496.843	9266.03
497.046	9722.73
497.249	9718.64
497.453	9788.27
497.656	9698.16
497.859	9941.86
498.063	9950.06
498.266	10251.11
498.469	9995.11
498.673	10306.4
498.876	10369.89
499.079	10500.96
499.282	10644.32
499.485	10804.06
499.689	10828.63
499.892	11051.86
500.095	10937.18
500.298	11256.66
500.501	11135.83
500.705	11498.32
500.908	11885.39
501.111	11649.87
501.314	11756.36
501.517	12182.34
501.72	12354.37
501.923	12086.09
502.126	12325.7
502.329	12561.22
502.532	12776.25
502.735	12714.81
502.938	13216.57
503.141	13173.56
503.344	13275.96
503.547	13435.7
503.75	13482.8
503.953	13792.05
504.156	13953.84
504.359	13902.64
504.562	13949.74
504.765	14396.2
504.968	14564.13
505.17	14697.25
505.373	14781.21
505.576	14949.15
505.779	15186.71
505.982	15227.67
506.185	15356.69
506.387	15819.53
506.59	15706.9
506.793	16108.3
506.996	15905.55
507.198	16524.04
507.401	16507.65
507.604	16775.94
507.807	16823.04
508.009	17154.81
508.212	17294.07
508.415	17496.82
508.617	17621.75
508.82	17521.4
509.022	17640.18
509.225	18311.91
509.428	18408.17
509.63	18402.02
509.833	18508.52
510.035	19143.39
510.238	18918.11
510.44	19333.85
510.643	19485.4
510.845	19782.35
511.048	19593.94
511.25	20177.61
511.453	19960.53
511.655	20937.41
511.858	20699.84
512.06	20798.15
512.262	20929.22
512.465	21017.28
512.667	21373.63
512.87	21701.3
513.072	21697.2
513.274	22082.22
513.477	22305.45
513.679	22655.65
513.881	22973.09
514.084	23032.48
514.286	23251.61
514.488	23265.95
514.69	23880.34
514.893	24085.14
515.095	24050.32
515.297	24304.27
515.499	24541.83
515.701	25010.82
515.904	25057.92
516.106	25162.37
516.308	25483.9
516.51	25647.74
516.712	25952.88
516.914	26493.55
517.116	26759.78
517.318	26757.74
517.52	27011.68
517.722	27390.56
517.925	27353.69
518.127	27955.8
518.329	28205.65
518.531	28011.09
518.733	28549.71
518.935	28693.07
519.136	28932.68
519.338	29327.94
519.54	29346.37
519.742	30188.08
519.944	29934.14
520.146	30241.33
520.348	30554.67
520.55	30636.59
520.752	30738.99
520.954	31646.24
521.155	31814.17
521.357	32109.08
521.559	32311.83
521.761	32762.38
521.963	32604.69
522.164	32854.54
522.366	33153.54
522.568	33540.61
522.77	33604.1
522.971	34163.19
523.173	33729.02
523.375	34284.02
523.576	34222.58
523.778	34548.21
523.98	34879.98
524.181	35383.78
524.383	35348.96
524.584	35713.5
524.786	35680.74
524.988	35670.5
525.189	36626.9
525.391	36372.95
525.592	36379.09
525.794	36628.95
525.995	36753.87
526.197	36805.07
526.398	37210.57
526.6	37388.74
526.801	37716.42
527.003	37841.34
527.204	37485
527.406	37902.78
527.607	37812.67
527.808	38384.05
528.01	38169.02
528.211	38283.7
528.412	39334.31
528.614	38943.15
528.815	38889.9
529.016	39514.53
529.218	39391.65
529.419	39244.2
529.62	39221.67
529.822	39262.63
530.023	39330.22
530.224	39334.31
530.425	39702.95
530.626	39332.26
530.828	39301.54
531.029	40165.79
531.23	40104.35
531.431	39862.69
531.632	40288.67
531.833	40014.24
532.035	40315.29
532.236	40386.97
532.437	40688.02
532.638	40071.58
532.839	40798.61
533.04	40423.83
533.241	40454.55
533.442	41105.8
533.643	40309.14
533.844	40712.59
534.045	40690.07
534.246	40739.22
534.447	41077.13
534.648	40714.64
534.849	40890.77
535.05	40470.93
535.251	40651.16
535.451	40812.95
535.652	40747.41
535.853	40939.92
536.054	41279.88
536.255	40790.42
536.456	40640.92
536.657	41032.08
536.857	40569.24
537.058	40790.42
537.259	41255.31
537.46	41361.8
537.66	40800.66
537.861	41382.28
538.062	40726.93
538.263	41118.09
538.463	40753.55
538.664	40731.03
538.865	40769.94
539.065	41716.1
539.266	40763.79
539.466	41548.17
539.667	40638.87
539.868	41349.51
540.068	41109.9
540.269	40702.35
540.469	41380.23
540.67	40651.16
540.87	40638.87
541.071	41001.36
541.271	41085.33
541.472	40763.79
541.672	40743.31
541.873	40763.79
542.073	40628.63
542.274	41185.68
542.474	41040.27
542.675	40429.98
542.875	41300.36
543.075	40460.69
543.276	40679.83
543.476	40976.78
543.676	40620.44
543.877	41130.38
544.077	40923.54
544.277	40788.37
544.478	40528.28
544.678	41036.17
544.878	40835.47
545.078	40907.15
545.279	40757.65
545.479	40673.68
545.679	41062.8
545.879	40870.29
546.079	40751.51
546.28	40802.71
546.48	40163.74
546.68	40563.09
546.88	40645.01
547.08	40675.73
547.28	40882.58
547.48	40440.21
547.68	40585.62
547.88	40454.55
548.081	40763.79
548.281	40632.72
548.481	40419.74
548.681	40814.99
548.881	40718.74
549.081	41032.08
549.28	40374.68
549.48	40755.6
549.68	40452.5
549.88	40919.44
550.08	40133.02
550.28	40749.46
550.48	40489.37
550.68	40573.33
550.88	40307.1
551.08	40421.78
551.279	40737.17
551.479	40077.72
551.679	40544.66
551.879	40223.13
552.079	40563.09
552.278	40096.16
552.478	40393.11
552.678	40505.75
552.878	40743.31
553.077	40380.82
553.277	39858.59
553.477	40667.54
553.676	40354.2
553.876	40085.92
554.076	39829.92
554.275	40051.1
554.475	39809.44
554.674	39580.07
554.874	40264.09
555.074	40022.43
555.273	39874.98
555.473	40163.74
555.672	40130.97
555.872	39735.71
556.071	39391.65
556.271	40110.49
556.47	39645.6
556.67	39463.33
556.869	39379.37
557.068	40114.59
557.268	39588.26
557.467	39317.93
557.667	39494.05
557.866	39674.27
558.065	39279.02
558.265	39074.22
558.464	39027.12
558.663	39768.48
558.863	38777.26
559.062	39360.94
559.261	38836.66
559.461	38996.4
559.66	38592.95
559.859	38828.46
560.058	38521.27
560.258	38846.9
560.457	38199.74
560.656	38855.09
560.855	38271.42
561.054	38539.7
561.253	38400.44
561.453	38379.96
561.652	38207.93
561.851	38187.45
562.05	38201.79
562.249	37837.25
562.448	38091.19
562.647	37810.62
562.846	38029.76
563.045	37839.29
563.244	37423.56
563.443	38226.36
563.642	37392.84
563.841	37405.13
564.04	37507.52
564.239	37419.46
564.438	37296.58
564.637	37237.19
564.836	36864.46
565.035	36995.53
565.234	36891.09
565.432	37011.92
565.631	36430.29
565.83	36696.53
566.029	36235.74
566.228	36106.71
566.427	36413.91
566.625	36032.99
566.824	35690.98
567.023	36121.05
567.222	35443.17
567.42	36078.04
567.619	35615.2
567.818	35813.85
568.016	35332.58
568.215	35666.4
568.414	35209.7
568.612	35695.07
568.811	35058.15
569.01	34970.09
569.208	34707.95
569.407	34994.67
569.605	34656.75
569.804	34963.95
570.002	34468.34
570.201	34863.6
570.4	34372.08
570.598	33788.41
570.797	34327.03
570.995	34038.26
571.193	33925.63
571.392	33630.72
571.59	33505.79
571.789	33466.88
571.987	33315.33
572.186	33483.27
572.384	33245.7
572.582	33532.42
572.781	33593.86
572.979	32702.99
573.177	33204.74
573.376	33186.31
573.574	32793.1
573.772	33370.63
573.971	32569.87
574.169	32797.2
574.367	32225.81
574.565	32547.34
574.763	32143.89
574.962	32236.05
575.16	31711.77
575.358	31846.94
575.556	31549.98
575.754	31971.86
575.952	31619.61
576.151	31521.31
576.349	31404.58
576.547	31670.81
576.745	31412.77
576.943	31179.3
577.141	31328.8
577.339	31369.76
577.537	30859.82
577.735	31095.33
577.933	30724.65
578.131	31052.33
578.329	30839.34
578.527	30233.14
578.725	30407.22
578.923	30503.47
579.121	30327.35
579.319	30265.91
579.516	30151.22
579.714	30020.15
579.912	29925.94
580.11	29651.52
580.308	29964.85
580.506	29889.08
580.704	29200.96
580.901	29282.88
581.099	29715
581.297	29325.89
581.495	29309.5
581.692	29561.4
581.89	28944.97
582.088	29289.03
582.285	28779.08
582.483	29041.22
582.681	28836.42
582.878	28574.28
583.076	28805.7
583.274	28602.96
583.471	28412.49
583.669	28598.86
583.866	28170.83
584.064	28615.24
584.262	27970.13
584.459	28113.49
584.657	27994.71
584.854	28410.45
585.052	27529.82
585.249	27976.28
585.447	27810.39
585.644	27624.03
585.841	27816.54
586.039	27755.1
586.236	27388.51
586.434	27263.58
586.631	27394.65
586.828	27021.92
587.026	27243.1
587.223	27044.45
587.42	26925.67
587.618	26718.82
587.815	26774.12
588.012	26692.2
588.21	26636.91
588.407	26718.82
588.604	26325.61
588.801	26006.13
588.999	26370.67
589.196	26452.59
589.393	26456.68
589.59	25825.91
589.787	25959.03
589.984	25715.32
590.182	25369.21
590.379	25561.72
590.576	25754.23
590.773	25666.17
590.97	25725.56
591.167	25604.73
591.364	24842.88
591.561	25199.23
591.758	24816.26
591.955	25158.27
592.152	25137.79
592.349	24760.97
592.546	24961.67
592.743	25070.21
592.94	24345.23
593.137	24939.14
593.334	24740.49
593.531	24175.25
593.727	24627.85
593.924	24474.25
594.121	24244.88
594.318	24402.57
594.515	24117.9
594.712	24240.78
594.908	24122
595.105	23810.71
595.302	23587.48
595.499	23894.68
595.696	23769.75
595.892	23763.61
596.089	23693.97
596.286	23538.33
596.482	23540.38
596.679	23507.61
596.876	23343.77
597.072	23335.58
597.269	23530.14
597.466	22989.47
597.662	22930.08
597.859	22780.58
598.055	23063.2
598.252	22846.12
598.448	22983.33
598.645	22528.68
598.841	22332.08
599.038	22737.57
599.234	22698.66
599.431	22217.39
599.627	22338.22
599.824	22340.27
600.02	22102.7
600.217	22368.94
600.413	21996.21
600.609	21871.28
600.806	21777.08
601.002	21922.48
601.198	21637.81
601.395	21684.92
601.591	21701.3
601.787	21820.08
601.984	21557.94
602.18	21580.47
602.376	21369.53
602.572	21422.78
602.769	21285.56
602.965	21187.26
603.161	21230.27
603.357	20890.31
603.553	20902.59
603.75	21082.81
603.946	20984.51
604.142	20583.11
604.338	20277.96
604.534	20914.88
604.73	20437.7
604.926	20490.95
605.122	20406.98
605.318	20218.57
605.514	20536.01
605.71	20257.48
605.906	20105.93
606.102	19866.32
606.298	20011.73
606.494	19985.1
606.69	19933.9
606.886	20304.59
607.082	19901.14
607.278	19641.04
607.474	19466.97
607.67	19804.88
607.866	19559.13
608.062	19716.82
608.257	19509.97
608.453	19618.52
608.649	19682
608.845	19350.23
609.041	19393.24
609.236	19415.77
609.432	19391.19
609.628	19405.53
609.824	18926.3
610.019	19108.57
610.215	19038.94
610.411	19133.15
610.606	18760.42
610.802	19006.17
610.998	19151.58
611.193	18868.96
611.389	18862.82
611.584	18606.82
611.78	18784.99
611.976	18832.1
612.171	18662.12
612.367	18891.49
612.562	18449.13
612.758	18467.56
612.953	18318.06
613.149	18725.6
613.344	18455.27
613.539	18623.2
613.735	18234.09
613.93	18420.45
614.126	18238.19
614.321	18692.83
614.517	18000.62
614.712	18055.92
614.907	17998.57
615.103	18250.47
615.298	17781.49
615.493	17922.8
615.688	17779.44
615.884	18103.02
616.079	17883.89
616.274	17963.76
616.47	17599.22
616.665	17814.26
616.86	17449.72
617.055	17355.51
617.25	17384.18
617.445	17892.08
617.641	17359.61
617.836	17326.84
618.031	17152.76
618.226	17584.88
618.421	17246.97
618.616	17545.97
618.811	17015.55
619.006	17148.67
619.201	17068.8
619.396	17066.75
619.591	16687.87
619.786	16737.02
619.981	16513.8
620.176	17029.88
620.371	16534.28
620.566	16554.76
620.761	16331.53
620.956	16562.95
621.151	16474.88
621.346	16302.86
621.541	16206.6
621.735	16241.42
621.93	16116.49
622.125	16061.19
622.32	15797.01
622.515	15858.45
622.709	15723.28
622.904	15844.11
623.099	15512.34
623.294	15467.28
623.488	15500.05
623.683	15352.6
623.878	15033.11
624.072	15252.25
624.267	15211.29
624.462	15147.8
624.656	14811.93
624.851	15006.49
625.046	14768.93
625.24	14828.32
625.435	14508.83
625.629	14787.36
625.824	14555.94
626.018	14287.65
626.213	14089
626.407	14277.41
626.602	14058.28
626.796	14080.81
626.991	14252.84
627.185	13929.26
627.38	13931.31
627.574	13728.56
627.768	13595.44
627.963	13581.1
628.157	13599.54
628.352	13648.69
628.546	13347.64
628.74	13505.33
628.935	13353.78
629.129	13361.97
629.323	13210.42
629.517	13083.45
629.712	12817.21
629.906	12976.95
630.1	12708.67
630.294	13015.87
630.489	12817.21
630.683	12903.23
630.877	12571.46
631.071	12309.32
631.265	12407.62
631.459	12190.53
631.653	12315.46
631.848	12305.22
632.042	12206.92
632.236	12387.14
632.43	12170.05
632.624	11909.96
632.818	11944.78
633.012	11993.93
633.206	11856.72
633.4	11869
633.594	11768.65
633.788	11676.49
633.982	11625.29
634.176	11520.85
634.369	11340.63
634.563	11432.79
634.757	11258.71
634.951	11221.84
635.145	11328.34
635.339	11164.5
635.533	11111.25
635.726	10955.61
635.92	11029.34
636.114	11015
636.308	10601.31
636.501	10838.87
636.695	10806.11
636.889	10576.73
637.083	10617.69
637.276	10685.28
637.47	10531.68
637.664	10556.25
637.857	10470.24
638.051	10388.32
638.244	10261.35
638.438	10167.14
638.632	10269.54
638.825	10105.7
639.019	10163.04
639.212	9952.1
639.406	10027.88
639.599	9818.99
639.793	9988.97
639.986	9577.33
640.18	9835.37
640.373	9919.34
640.567	9585.52
640.76	9616.24
640.954	9517.93
641.147	9329.52
641.34	9370.48
641.534	9554.8
641.727	9350
641.92	9397.1
642.114	9397.1
642.307	9300.85
642.5	9251.7
642.694	9134.96
642.887	8975.22
643.08	9288.56
643.273	9005.94
643.467	8866.68
643.66	8788.86
643.853	8889.21
644.046	8723.32
644.239	8565.63
644.432	8637.31
644.626	8633.21
644.819	8555.39
645.012	8555.39
645.205	8616.83
645.398	8268.67
645.591	8209.28
645.784	8440.7
645.977	8260.48
646.17	8293.25
646.363	8170.37
646.556	8020.87
646.749	8094.6
646.942	8002.44
647.135	8018.82
647.328	7977.86
647.521	7922.57
647.714	7906.18
647.907	7945.09
648.099	7873.42
648.292	7623.56
648.485	7897.99
648.678	7682.95
648.871	7601.04
649.064	7558.03
649.256	7642
649.449	7459.73
649.642	7459.73
649.835	7609.23
650.027	7324.56
650.22	7316.37
650.413	7320.46
650.605	7130
650.798	7312.27
650.991	7222.16
651.183	7103.38
651.376	7285.65
651.568	7189.39
651.761	7097.24
651.954	6941.59
652.146	6964.12
652.339	7005.08
652.531	6921.11
652.724	6910.87
652.916	6869.91
653.109	6701.98
653.301	6820.76
653.494	6919.06
653.686	6632.35
653.879	6822.81
654.071	6792.09
654.263	6536.09
654.456	6556.57
654.648	6658.97
654.84	6370.21
655.033	6288.29
655.225	6462.37
655.417	6339.49
655.61	6398.88
655.802	6550.43
655.994	6292.38
656.186	6380.45
656.379	6235.04
656.571	6112.16
656.763	6153.12
656.955	6140.83
657.148	6157.22
657.34	6130.59
657.532	6007.72
657.724	6097.83
657.916	5972.9
658.108	6028.2
658.3	5931.94
658.492	5802.92
658.684	5909.41
658.876	5813.16
659.068	5749.67
659.26	5776.3
659.452	5823.4
659.644	5792.68
659.836	5630.89
660.028	5698.47
660.22	5641.13
660.412	5698.47
660.604	5495.72
660.796	5634.99
660.988	5710.76
661.18	5514.16
661.372	5405.61
661.563	5497.77
661.755	5462.96
661.947	5245.87
662.139	5452.72
662.331	5288.88
662.522	5297.07
662.714	5411.76
662.906	5256.11
663.097	5174.19
663.289	5303.22
663.481	5061.55
663.673	5276.59
663.864	5088.18
664.056	5170.1
664.247	5036.98
664.439	4998.07
664.631	5225.39
664.822	5108.66
665.014	5114.8
665.205	4955.06
665.397	4815.8
665.588	5026.74
665.78	4897.72
665.971	4826.04
666.163	4940.72
666.354	4848.57
666.546	4793.27
666.737	4805.56
666.929	4848.57
667.12	4785.08
667.311	4844.47
667.503	4658.1
667.694	4864.95
667.885	4676.54
668.077	4721.59
668.268	4645.82
668.459	4783.03
668.651	4666.3
668.842	4486.08
669.033	4529.08
669.224	4584.38
669.416	4639.67
669.607	4647.87
669.798	4271.04
669.989	4684.73
670.18	4443.07
670.371	4545.47
670.563	4391.87
670.754	4453.31
670.945	4434.88
671.136	4438.97
671.327	4424.64
671.518	4455.36
671.709	4377.53
671.9	4412.35
672.091	4490.17
672.282	4412.35
672.473	4305.85
672.664	4281.28
672.855	4256.7
673.046	4346.81
673.237	4387.77
673.428	4275.13
673.619	4273.09
673.809	4150.21
674	4115.39
674.191	4340.67
674.382	4246.46
674.573	4223.94
674.764	4221.89
674.954	4180.93
675.145	4088.77
675.336	4129.73
675.527	4156.35
675.717	4135.87
675.908	4121.54
676.099	4105.15
676.289	4139.97
676.48	4264.89
676.671	4162.5
676.861	4119.49
677.052	4092.87
677.243	4127.68
677.433	4053.95
677.624	4254.66
677.814	3951.56
678.005	4154.3
678.195	4103.11
678.386	4062.15
678.576	3914.69
678.767	4123.59
678.957	4047.81
679.148	4150.21
679.338	4162.5
679.529	4078.53
679.719	4088.77
679.909	3992.52
680.1	4158.4
680.29	4103.11
680.481	3945.41
680.671	4146.11
680.861	4025.28
681.052	3947.46
681.242	4047.81
681.432	4148.16
681.622	4086.72
681.813	3969.99
682.003	3965.89
682.193	3853.25
682.383	3955.65
682.573	4004.8
682.764	3918.79
682.954	4000.71
683.144	4060.1
683.334	3945.41
683.524	3974.08
683.714	4029.38
683.904	3888.07
684.094	4041.67
684.284	3992.52
684.474	4150.21
684.664	3863.49
684.854	3969.99
685.044	3990.47
685.234	3781.57
685.424	3918.79
685.614	3929.03
685.804	4004.8
685.994	3851.21
686.184	3757
686.374	3818.44
686.564	3877.83
686.753	3865.54
686.943	3713.99
687.133	3709.9
687.323	3738.57
687.513	3707.85
687.702	3703.75
687.892	3685.32
688.082	3707.85
688.272	3609.54
688.461	3670.98
688.651	3648.46
688.841	3689.42
689.03	3679.18
689.22	3599.31
689.41	3693.51
689.599	3705.8
689.789	3580.87
689.979	3541.96
690.168	3630.02
690.358	3468.24
690.547	3378.12
690.737	3533.77
690.926	3529.67
691.116	3425.23
691.305	3472.33
691.495	3539.91
691.684	3326.93
691.874	3382.22
692.063	3451.85
692.252	3355.6
692.442	3363.79
692.631	3283.92
692.82	3318.73
693.01	3226.57
693.199	3308.49
693.388	3255.25
693.578	3242.96
693.767	3294.16
693.956	3214.29
694.146	3130.32
694.335	3251.15
694.524	3042.26
694.713	3195.86
694.902	3218.38
695.092	3202
695.281	3120.08
695.47	3255.25
695.659	3029.97
695.848	3128.27
696.037	2986.96
696.226	3167.18
696.415	3136.46
696.604	3152.85
696.793	3171.28
696.982	3025.87
697.171	3079.12
697.36	3072.98
697.549	3009.49
697.738	3034.07
697.927	2978.77
698.116	3130.32
698.305	3132.37
698.494	2974.67
698.683	3052.5
698.872	3007.44
699.061	3081.17
699.25	2962.39
699.438	3066.83
699.627	3064.79
699.816	2980.82
700.005	2997.2
700.193	2948.05
700.382	3115.98
700.571	3101.65
700.76	3113.94
700.948	2933.72
701.137	3025.87
701.326	3048.4
701.514	2925.52
701.703	3029.97
701.892	2907.09
702.08	3070.93
702.269	2954.19
702.457	2943.96
702.646	3048.4
702.834	2966.48
703.023	3058.64
703.212	2931.67
703.4	2896.85
703.589	2966.48
703.777	3105.74
703.965	2872.28
704.154	2907.09
704.342	3021.78
704.531	3013.59
704.719	2974.67
704.907	2943.96
705.096	3003.35
705.284	2833.36
705.472	3001.3
705.661	2913.24
705.849	2989.01
706.037	2876.37
706.226	3113.94
706.414	3048.4
706.602	3115.98
706.79	3009.49
706.979	2982.87
707.167	2888.66
707.355	2878.42
707.543	2989.01
707.731	2923.48
707.919	3107.79
708.107	2958.29
708.296	3054.55
708.484	2855.89
708.672	3015.63
708.86	3032.02
709.048	3056.59
709.236	3079.12
709.424	3099.6
709.612	3099.6
709.8	3038.16
709.988	2937.81
710.176	3138.51
710.364	3023.83
710.551	3077.07
710.739	3036.11
710.927	3023.83
711.115	3011.54
711.303	3032.02
711.491	3122.13
711.679	3040.21
711.866	3105.74
712.054	2925.52
712.242	2935.76
712.43	3126.22
712.617	3007.44
712.805	3093.46
712.993	3212.24
713.181	3120.08
713.368	3003.35
713.556	3050.45
713.744	3025.87
713.931	3257.29
714.119	3101.65
714.306	3101.65
714.494	3064.79
714.682	3177.42
714.869	2923.48
715.057	3290.06
715.244	2993.11
715.432	3158.99
715.619	3072.98
715.807	3122.13
715.994	3122.13
716.182	3093.46
716.369	3165.14
716.556	3195.86
716.744	3085.26
716.931	3046.35
717.119	3124.18
717.306	3111.89
717.493	3191.76
717.681	3175.38
717.868	3197.9
718.055	2974.67
718.242	3136.46
718.43	3040.21
718.617	3232.72
718.804	3269.58
718.991	3210.19
719.179	3247.05
719.366	3257.29
719.553	3208.14
719.74	3085.26
719.927	3202
720.114	3132.37
720.301	3288.01
720.488	3222.48
720.676	3156.94
720.863	3292.11
721.05	3275.73
721.237	3183.57
721.424	3220.43
721.611	3267.53
721.798	3148.75
721.985	3091.41
722.172	3210.19
722.358	3277.77
722.545	3140.56
722.732	3316.69
722.919	3294.16
723.106	3222.48
723.293	3171.28
723.48	3464.14
723.667	3128.27
723.853	3253.2
724.04	3277.77
724.227	3144.66
724.414	3294.16
724.6	3216.33
724.787	3271.63
724.974	3331.02
725.161	3318.73
725.347	3210.19
725.534	3261.39
725.72	3367.88
725.907	3408.84
726.094	3255.25
726.28	3310.54
726.467	3296.21
726.653	3261.39
726.84	3417.04
727.027	3425.23
727.213	3392.46
727.4	3441.61
727.586	3425.23
727.773	3271.63
727.959	3380.17
728.145	3398.6
728.332	3251.15
728.518	3333.07
728.705	3535.82
728.891	3400.65
729.077	3271.63
729.264	3367.88
729.45	3281.87
729.636	3584.97
729.823	3371.98
730.009	3455.95
730.195	3417.04
730.382	3474.38
730.568	3398.6
730.754	3294.16
730.94	3519.43
731.126	3492.81
731.313	3562.44
731.499	3419.08
731.685	3455.95
731.871	3331.02
732.057	3505.1
732.243	3451.85
732.429	3455.95
732.615	3455.95
732.801	3480.52
732.987	3402.7
733.173	3288.01
733.359	3486.67
733.545	3380.17
733.731	3509.19
733.917	3408.84
734.103	3515.34
734.289	3627.98
734.475	3408.84
734.661	3449.8
734.847	3472.33
735.033	3464.14
735.219	3484.62
735.404	3365.84
735.59	3324.88
735.776	3460.04
735.962	3562.44
736.148	3414.99
736.333	3529.67
736.519	3310.54
736.705	3408.84
736.89	3414.99
737.076	3468.24
737.262	3388.36
737.447	3425.23
737.633	3345.36
737.819	3525.58
738.004	3378.12
738.19	3439.56
738.375	3396.56
738.561	3357.64
738.747	3271.63
738.932	3486.67
739.118	3449.8
739.303	3367.88
739.489	3511.24
739.674	3177.42
739.859	3337.17
740.045	3298.25
740.23	3429.32
740.416	3218.38
740.601	3380.17
740.786	3337.17
740.972	3328.97
741.157	3271.63
741.342	3335.12
741.528	3288.01
741.713	3277.77
741.898	3179.47
742.084	3195.86
742.269	3273.68
742.454	3171.28
742.639	3359.69
742.824	3220.43
743.01	3236.81
743.195	3384.27
743.38	3191.76
743.565	3189.71
743.75	3281.87
743.935	3122.13
744.12	3177.42
744.305	3167.18
744.49	3161.04
744.675	3132.37
744.86	3189.71
745.045	3036.11
745.23	3113.94
745.415	3032.02
745.6	3095.5
745.785	3075.03
745.97	3183.57
746.155	2954.19
746.34	2925.52
746.525	3048.4
746.71	3056.59
746.895	2808.79
747.079	3021.78
747.264	3052.5
747.449	3009.49
747.634	2841.56
747.819	2933.72
748.003	2843.6
748.188	2950.1
748.373	2923.48
748.557	2927.57
748.742	2859.99
748.927	2825.17
749.111	2759.64
749.296	2743.25
749.481	2839.51
749.665	2796.5
749.85	2657.24
750.034	2708.44
750.219	2714.58
750.404	2718.68
750.588	2823.12
750.773	2808.79
750.957	2632.66
751.141	2667.48
751.326	2538.46
751.51	2534.36
751.695	2509.79
751.879	2565.08
752.064	2448.35
752.248	2571.22
752.432	2526.17
752.617	2567.13
752.801	2517.98
752.985	2417.63
753.17	2429.91
753.354	2335.71
753.538	2309.08
753.722	2452.44
753.907	2409.44
754.091	2239.45
754.275	2399.2
754.459	2317.28
754.643	2343.9
754.828	2366.43
755.012	2218.97
755.196	2243.55
755.38	2253.79
755.564	2276.32
755.748	2194.4
755.932	2221.02
756.116	2155.49
756.3	2102.24
756.484	2075.62
756.668	2167.77
756.852	2051.04
757.036	2186.21
757.22	2048.99
757.404	2118.62
757.588	2061.28
757.772	2126.82
757.956	2180.06
758.14	2022.37
758.323	2024.42
758.507	2126.82
758.691	1950.69
758.875	2048.99
759.059	2057.18
759.242	1930.21
759.426	1846.24
759.61	1840.1
759.794	1887.2
759.977	1960.93
760.161	1991.65
760.345	1864.68
760.528	1907.68
760.712	1797.09
760.895	1737.7
761.079	1829.86
761.263	1786.85
761.446	1862.63
761.63	1760.23
761.813	1772.52
761.997	1758.18
762.18	1797.09
762.364	1860.58
762.547	1784.8
762.731	1733.61
762.914	1752.04
763.098	1811.43
763.281	1815.52
763.464	1659.88
763.648	1805.28
763.831	1745.89
764.015	1645.54
764.198	1709.03
764.381	1649.64
764.564	1680.36
764.748	1686.5
764.931	1696.74
765.114	1764.33
765.297	1596.39
765.481	1608.68
765.664	1661.93
765.847	1559.53
766.03	1594.34
766.213	1547.24
766.397	1569.77
766.58	1463.27
766.763	1485.8
766.946	1561.58
767.129	1600.49
767.312	1741.8
767.495	1522.66
767.678	1498.09
767.861	1559.53
768.044	1514.47
768.227	1438.7
768.41	1493.99
768.593	1631.21
768.776	1496.04
768.959	1414.12
769.142	1485.8
769.324	1481.71
769.507	1532.9
769.69	1393.64
769.873	1395.69
770.056	1577.96
770.239	1442.79
770.421	1465.32
770.604	1342.44
770.787	1450.99
770.97	1383.4
771.152	1399.79
771.335	1385.45
771.518	1356.78
771.7	1287.15
771.883	1367.02
772.066	1319.92
772.248	1430.51
772.431	1401.83
772.613	1285.1
772.796	1321.96
772.978	1289.2
773.161	1352.68
773.343	1317.87
773.526	1293.29
773.708	1268.72
773.891	1213.42
774.073	1235.95
774.256	1174.51
774.438	1297.39
774.621	1125.36
774.803	1235.95
774.985	1184.75
775.168	1225.71
775.35	1190.89
775.532	1264.62
775.715	1172.46
775.897	1217.52
776.079	1174.51
776.261	1151.98
776.444	1162.22
776.626	1065.97
776.808	1111.02
776.99	1063.92
777.173	1090.54
777.355	1145.84
777.537	1029.1
777.719	1035.25
777.901	1043.44
778.083	1072.11
778.265	1090.54
778.447	1074.16
778.629	1104.88
778.811	990.19
778.993	959.47
779.175	1063.92
779.357	1065.97
779.539	949.23
779.721	1012.72
779.903	922.61
780.085	938.99
780.267	945.14
780.449	984.05
780.631	1027.06
780.812	971.76
780.994	973.81
781.176	906.23
781.358	861.17
781.54	824.31
781.721	926.71
781.903	932.85
782.085	920.56
782.267	906.23
782.448	885.75
782.63	875.51
782.812	871.41
782.993	875.51
783.175	801.78
783.357	859.12
783.538	859.12
783.72	777.2
783.901	910.32
784.083	836.6
784.264	863.22
784.446	723.96
784.627	779.25
784.809	777.2
784.99	734.2
785.172	781.3
785.353	666.61
785.535	752.63
785.716	721.91
785.897	773.11
786.079	734.2
786.26	709.62
786.441	760.82
786.623	699.38
786.804	603.13
786.985	623.61
787.167	740.34
787.348	646.13
787.529	705.53
787.71	646.13
787.891	625.65
788.073	687.09
788.254	693.24
788.435	668.66
788.616	693.24
788.797	656.37
788.978	685.05
789.159	605.17
789.34	623.61
789.522	580.6
789.703	551.93
789.884	586.74
790.065	623.61
790.246	615.41
790.427	670.71
790.607	609.27
790.788	521.21
790.969	625.65
791.15	609.27
791.331	654.33
791.512	560.12
791.693	543.74
791.874	513.02
792.054	615.41
792.235	492.54
792.416	523.26
792.597	539.64
792.778	494.58
792.958	535.54
793.139	568.31
793.32	519.16
793.5	451.58
793.681	459.77
793.862	480.25
794.042	470.01
794.223	490.49
794.404	404.47
794.584	453.63
794.765	427
794.945	443.39
795.126	568.31
795.306	506.87
795.487	365.56
795.667	465.91
795.848	463.86
796.028	437.24
796.209	474.1
796.389	465.91
796.57	533.5
796.75	494.58
796.93	402.43
797.111	494.58
797.291	418.81
797.471	529.4
797.652	404.47
797.832	445.43
798.012	427
798.192	353.27
798.373	357.37
798.553	379.9
798.733	353.27
798.913	357.37
799.093	388.09
799.274	355.32
799.454	381.95
799.634	486.39
799.814	427
799.994	402.43
800.174	402.43
800.354	392.19
800.534	363.51
800.714	474.1
800.894	297.98
801.074	455.67
801.254	383.99
801.434	402.43
801.614	377.85
801.794	263.16
801.974	1037.3
802.154	386.04
802.334	488.44
802.514	332.79
802.693	338.94
802.873	214.01
803.053	388.09
803.233	365.56
803.413	300.03
803.592	381.95
803.772	343.03
803.952	381.95
804.131	357.37
804.311	398.33
804.491	375.8
804.67	322.56
804.85	347.13
805.03	320.51
805.209	320.51
805.389	357.37
805.568	349.18
805.748	351.23
805.928	334.84
806.107	300.03
806.287	310.27
806.466	328.7
806.646	306.17
806.825	222.2
807.004	259.07
807.184	300.03
807.363	257.02
807.543	263.16
807.722	369.66
807.901	281.6
808.081	345.08
808.26	199.68
808.439	316.41
808.619	318.46
808.798	263.16
808.977	222.2
809.156	306.17
809.336	287.74
809.515	316.41
809.694	259.07
809.873	259.07
810.052	279.55
810.231	340.99
810.411	240.64
810.59	277.5
810.769	265.21
810.948	287.74
811.127	197.63
811.306	228.35
811.485	234.49
811.664	224.25
811.843	201.72
812.022	287.74
812.201	224.25
812.38	318.46
812.559	275.45
812.737	281.6
812.916	209.92
813.095	312.32
813.274	261.12
813.453	242.68
813.632	236.54
813.811	308.22
813.989	193.53
814.168	324.6
814.347	201.72
814.526	214.01
814.704	211.96
814.883	314.36
815.062	211.96
815.24	306.17
815.419	216.06
815.598	201.72
815.776	222.2
815.955	267.26
816.133	166.91
816.312	234.49
816.49	171.01
816.669	297.98
816.847	261.12
817.026	207.87
817.204	275.45
817.383	183.29
817.561	197.63
817.74	207.87
817.918	173.05
818.097	179.2
818.275	222.2
818.453	171.01
818.632	181.25
818.81	203.77
818.988	189.44
819.167	203.77
819.345	187.39
819.523	199.68
819.701	222.2
819.879	263.16
820.058	123.9
820.236	171.01
820.414	199.68
820.592	207.87
820.77	140.29
820.948	74.75
821.127	183.29
821.305	146.43
821.483	193.53
821.661	175.1
821.839	166.91
822.017	195.58
822.195	150.53
822.373	207.87
822.551	179.2
822.729	185.34
822.907	130.05
823.085	150.53
823.262	201.72
823.44	152.57
823.618	152.57
823.796	224.25
823.974	181.25
824.152	130.05
824.329	113.66
824.507	205.82
824.685	164.86
824.863	134.14
825.04	125.95
825.218	187.39
825.396	113.66
825.574	185.34
825.751	197.63
825.929	158.72
826.107	132.09
826.284	164.86
826.462	121.85
826.639	177.15
826.817	66.56
826.994	132.09
827.172	136.19
827.349	177.15
827.527	113.66
827.704	128
827.882	113.66
828.059	185.34
828.237	134.14
828.414	203.77
828.591	95.23
828.769	164.86
828.946	52.22
829.124	148.48
829.301	193.53
829.478	183.29
829.655	146.43
829.833	154.62
830.01	74.75
830.187	103.42
830.364	41.98
830.542	119.81
830.719	119.81
830.896	134.14
831.073	119.81
831.25	78.85
831.427	138.24
831.604	52.22
831.782	74.75
831.959	89.09
832.136	119.81
832.313	123.9
832.49	74.75
832.667	136.19
832.844	168.96
833.021	80.89
833.198	60.42
833.374	52.22
833.551	56.32
833.728	111.61
833.905	130.05
834.082	84.99
834.259	84.99
834.436	80.89
834.612	109.57
834.789	191.49
834.966	115.71
835.143	95.23
835.319	64.51
835.496	119.81
835.673	103.42
835.85	195.58
836.026	125.95
836.203	173.05
836.38	115.71
836.556	58.37
836.733	60.42
836.909	138.24
837.086	87.04
837.262	123.9
837.439	97.28
837.616	99.33
837.792	168.96
837.968	64.51
838.145	35.84
838.321	125.95
838.498	95.23
838.674	109.57
838.851	95.23
839.027	62.46
839.203	125.95
839.38	74.75
839.556	136.19
839.732	144.38
839.909	142.33
840.085	109.57
840.261	27.65
840.437	60.42
840.614	193.53
840.79	82.94
840.966	115.71
841.142	64.51
841.318	111.61
841.494	80.89
841.671	91.13
841.847	99.33
842.023	44.03
842.199	109.57
842.375	130.05
842.551	-5.12
842.727	87.04
842.903	78.85
843.079	23.55
843.255	121.85
843.431	62.46
843.607	76.8
843.783	15.36
843.959	72.7
844.134	56.32
844.31	58.37
844.486	-11.26
844.662	19.46
844.838	138.24
845.013	78.85
845.189	95.23
845.365	136.19
845.541	23.55
845.716	25.6
845.892	95.23
846.068	23.55
846.244	89.09
846.419	107.52
846.595	111.61
846.77	-5.12
846.946	144.38
847.122	41.98
847.297	7.17
847.473	109.57
847.648	64.51
847.824	17.41
847.999	-7.17
848.175	80.89
848.35	46.08
848.526	80.89
848.701	146.43
848.876	1.02
849.052	103.42
849.227	58.37
849.403	23.55
849.578	23.55
849.753	76.8
849.929	80.89
850.104	7.17
850.279	-1.02
850.454	-23.55
850.63	56.32
850.805	44.03
850.98	140.29
851.155	27.65
851.33	66.56
851.505	74.75
851.681	21.5
851.856	-3.07
852.031	123.9
852.206	44.03
852.381	37.89
852.556	33.79
852.731	56.32
852.906	54.27
853.081	128
853.256	140.29
853.431	41.98
853.606	72.7
853.781	-17.41
853.956	50.18
854.131	9.22
854.305	7.17
854.48	-15.36
854.655	-9.22
854.83	142.33
855.005	41.98
855.18	48.13
855.354	103.42
855.529	50.18
855.704	-39.94
855.879	39.94
856.053	21.5
856.228	-7.17
856.403	-41.98
856.577	101.37
856.752	-84.99
856.926	82.94
857.101	31.74
857.276	23.55
857.45	5.12
857.625	25.6
857.799	78.85
857.974	31.74
858.148	11.26
858.323	72.7
858.497	56.32
858.672	50.18
858.846	5.12
859.02	82.94
859.195	56.32
859.369	1.02
859.543	-15.36
859.718	37.89
859.892	56.32
860.066	56.32
860.241	37.89
860.415	54.27
860.589	15.36
860.763	5.12
860.938	66.56
861.112	125.95
861.286	-27.65
861.46	17.41
861.634	-27.65
861.808	130.05
861.982	-7.17
862.157	-15.36
862.331	-31.74
862.505	-19.46
862.679	-46.08
862.853	-1.02
863.027	-52.22
863.201	84.99
863.375	50.18
863.549	15.36
863.722	-9.22
863.896	80.89
864.07	39.94
864.244	7.17
864.418	3.07
864.592	15.36
864.766	-29.7
864.939	-3.07
865.113	39.94
865.287	-27.65
865.461	9.22
865.634	35.84
865.808	48.13
865.982	-13.31
866.156	7.17
866.329	-19.46
866.503	23.55
866.676	60.42
866.85	74.75
867.024	-7.17
867.197	21.5
867.371	-54.27
867.544	78.85
867.718	-5.12
867.891	-11.26
868.065	-60.42
868.238	3.07
868.412	-9.22
868.585	-23.55
868.759	-21.5
868.932	15.36
869.105	97.28
869.279	44.03
869.452	5.12
869.625	70.65
869.799	-23.55
869.972	7.17
870.145	1.02
870.319	76.8
870.492	66.56
870.665	17.41
870.838	-13.31
871.011	-39.94
871.185	29.7
871.358	-7.17
871.531	46.08
871.704	-1.02
871.877	35.84
872.05	-44.03
872.223	44.03
872.396	-1.02
872.569	17.41
872.742	-21.5
872.915	27.65
873.088	17.41
873.261	-21.5
873.434	64.51
873.607	-19.46
873.78	66.56
873.953	-50.18
874.126	-15.36
874.299	60.42
874.471	-23.55
874.644	70.65
874.817	-52.22
874.99	60.42
875.163	5.12
875.335	27.65
875.508	52.22
875.681	123.9
875.853	-31.74
876.026	25.6
876.199	3.07
876.371	58.37
876.544	-76.8
876.717	-74.75
876.889	-3.07
877.062	-9.22
877.234	-68.61
877.407	1.02
877.579	7.17
877.752	17.41
877.924	64.51
878.097	29.7
878.269	11.26
878.442	29.7
878.614	15.36
878.786	-21.5
878.959	76.8
879.131	39.94
879.303	-72.7
879.476	58.37
879.648	7.17
879.82	31.74
879.993	60.42
880.165	-1.02
880.337	-52.22
880.509	-31.74
880.681	-41.98
880.854	-46.08
881.026	-31.74
881.198	62.46
881.37	25.6
881.542	7.17
881.714	27.65
881.886	-21.5
882.058	-48.13
882.23	15.36
882.402	29.7
882.574	-44.03
882.746	84.99
882.918	50.18
883.09	-23.55
883.262	31.74
883.434	52.22
883.606	-17.41
883.778	-17.41
883.95	58.37
884.122	-27.65
884.293	95.23
884.465	-19.46
884.637	31.74
884.809	-11.26
884.98	97.28
885.152	25.6
885.324	-27.65
885.496	-76.8
885.667	21.5
885.839	31.74
886.011	33.79
886.182	-35.84
886.354	19.46
886.525	7.17
886.697	-23.55
886.869	-91.13
887.04	25.6
887.212	87.04
887.383	76.8
887.555	41.98
887.726	5.12
887.897	31.74
888.069	39.94
888.24	-5.12
888.412	44.03
888.583	-7.17
888.754	-33.79
888.926	1.02
889.097	-31.74
889.268	23.55
889.44	5.12
889.611	3.07
889.782	-29.7
889.953	-95.23
890.125	39.94
890.296	-3.07
890.467	-31.74
890.638	-66.56
890.809	15.36
890.98	-56.32
891.151	-60.42
891.323	37.89
891.494	23.55
891.665	-7.17
891.836	19.46
892.007	-3.07
892.178	21.5
892.349	31.74
892.52	-48.13
892.691	-66.56
892.862	31.74
893.032	1.02
893.203	35.84
893.374	46.08
893.545	11.26
893.716	-23.55
893.887	1.02
894.057	-1.02
894.228	64.51
894.399	7.17
894.57	121.85
894.74	-52.22
894.911	-3.07
895.082	-80.89
895.253	-21.5
895.423	-130.05
895.594	23.55
895.764	35.84
895.935	-46.08
896.106	-17.41
896.276	-46.08
896.447	-31.74
896.617	23.55
896.788	-7.17
896.958	-11.26
897.129	-23.55
897.299	25.6
897.47	87.04
897.64	74.75
897.81	35.84
897.981	-23.55
898.151	72.7
898.322	52.22
898.492	15.36
898.662	-9.22
898.832	99.33
899.003	23.55
899.173	-29.7
899.343	-5.12
899.513	-17.41
