Data from USB4F104151__60__12-24-09-237.txt Node

Date: Fri Mar 14 12:24:09 EDT 2025
User: louis
Spectrometer: USB4F10415
Trigger mode: 4
Integration Time (sec): 3.500000E-2
Scans to average: 1
Electric dark correction enabled: true
Nonlinearity correction enabled: false
Boxcar width: 0
XAxis mode: Wavelengths
Number of Pixels in Spectrum: 3648
>>>>>Begin Spectral Data<<<<<
178.204	-160.94
178.424	-160.94
178.644	-160.94
178.864	-218.28
179.084	-154.79
179.304	68.44
179.524	-21.67
179.744	-13.48
179.964	-48.3
180.184	-44.2
180.404	-15.53
180.624	27.48
180.844	4.95
181.064	-62.63
181.283	-7.34
181.503	70.48
181.723	41.81
181.943	-107.69
182.163	39.76
182.383	68.44
182.602	56.15
182.822	58.2
183.042	54.1
183.262	25.43
183.482	37.72
183.701	54.1
183.921	131.92
184.141	-105.64
184.361	86.87
184.58	88.92
184.8	64.34
185.02	-3.24
185.239	52.05
185.459	47.96
185.679	47.96
185.898	-56.49
186.118	52.05
186.338	80.72
186.557	101.2
186.777	-60.59
186.997	56.15
187.216	41.81
187.436	86.87
187.655	17.24
187.875	27.48
188.095	-17.58
188.314	39.76
188.534	97.11
188.753	25.43
188.973	50
189.192	-5.29
189.412	123.73
189.631	78.68
189.851	23.38
190.07	45.91
190.29	-17.58
190.509	62.29
190.729	-50.35
190.948	-23.72
191.168	152.4
191.387	80.72
191.607	11.09
191.826	-1.19
192.045	33.62
192.265	107.35
192.484	13.14
192.704	45.91
192.923	43.86
193.142	78.68
193.362	72.53
193.581	21.33
193.8	50
194.02	-1.19
194.239	47.96
194.458	107.35
194.678	43.86
194.897	-33.96
195.116	39.76
195.335	-13.48
195.555	29.52
195.774	86.87
195.993	31.57
196.212	-76.97
196.432	17.24
196.651	47.96
196.87	-15.53
197.089	66.39
197.308	82.77
197.528	52.05
197.747	-29.87
197.966	0.85
198.185	107.35
198.404	-40.11
198.623	45.91
198.842	76.63
199.062	117.59
199.281	25.43
199.5	21.33
199.719	27.48
199.938	41.81
200.157	13.14
200.376	66.39
200.595	11.09
200.814	31.57
201.033	-19.63
201.252	84.82
201.471	-7.34
201.69	45.91
201.909	-23.72
202.128	109.4
202.347	27.48
202.566	4.95
202.785	-27.82
203.004	-36.01
203.223	156.5
203.442	-9.39
203.661	37.72
203.879	11.09
204.098	115.54
204.317	64.34
204.536	107.35
204.755	50
204.974	41.81
205.193	33.62
205.411	90.96
205.63	23.38
205.849	-23.72
206.068	-3.24
206.287	43.86
206.505	43.86
206.724	9.05
206.943	33.62
207.162	29.52
207.381	52.05
207.599	-11.43
207.818	56.15
208.037	60.24
208.255	80.72
208.474	123.73
208.693	13.14
208.911	-33.96
209.13	13.14
209.349	29.52
209.567	2.9
209.786	74.58
210.005	58.2
210.223	33.62
210.442	-40.11
210.661	27.48
210.879	113.49
211.098	-11.43
211.316	23.38
211.535	78.68
211.753	13.14
211.972	43.86
212.191	45.91
212.409	19.29
212.628	-46.25
212.846	19.29
213.065	76.63
213.283	88.92
213.502	-17.58
213.72	-1.19
213.938	11.09
214.157	0.85
214.375	-1.19
214.594	-5.29
214.812	35.67
215.031	2.9
215.249	21.33
215.467	23.38
215.686	33.62
215.904	43.86
216.122	2.9
216.341	17.24
216.559	11.09
216.778	37.72
216.996	84.82
217.214	-1.19
217.432	-19.63
217.651	-3.24
217.869	29.52
218.087	47.96
218.306	-9.39
218.524	70.48
218.742	-25.77
218.96	0.85
219.179	52.05
219.397	68.44
219.615	115.54
219.833	72.53
220.051	-21.67
220.27	58.2
220.488	-23.72
220.706	25.43
220.924	52.05
221.142	54.1
221.36	45.91
221.578	35.67
221.796	4.95
222.015	41.81
222.233	70.48
222.451	60.24
222.669	-109.74
222.887	93.01
223.105	-33.96
223.323	13.14
223.541	19.29
223.759	82.77
223.977	4.95
224.195	107.35
224.413	72.53
224.631	-25.77
224.849	84.82
225.067	138.07
225.285	54.1
225.503	-27.82
225.721	-1.19
225.939	74.58
226.157	37.72
226.375	105.3
226.592	-21.67
226.81	-11.43
227.028	103.25
227.246	99.16
227.464	80.72
227.682	37.72
227.9	58.2
228.117	52.05
228.335	60.24
228.553	52.05
228.771	47.96
228.989	31.57
229.206	45.91
229.424	0.85
229.642	80.72
229.86	60.24
230.077	0.85
230.295	66.39
230.513	35.67
230.731	-3.24
230.948	164.69
231.166	90.96
231.384	33.62
231.601	52.05
231.819	70.48
232.037	-19.63
232.254	25.43
232.472	35.67
232.689	60.24
232.907	121.68
233.125	9.05
233.342	33.62
233.56	27.48
233.777	7
233.995	31.57
234.213	13.14
234.43	27.48
234.648	45.91
234.865	-3.24
235.083	86.87
235.3	0.85
235.518	21.33
235.735	72.53
235.953	19.29
236.17	35.67
236.388	-31.91
236.605	101.2
236.822	93.01
237.04	-40.11
237.257	74.58
237.475	33.62
237.692	66.39
237.909	76.63
238.127	13.14
238.344	43.86
238.562	107.35
238.779	2.9
238.996	17.24
239.214	-3.24
239.431	115.54
239.648	-29.87
239.865	21.33
240.083	123.73
240.3	47.96
240.517	41.81
240.735	29.52
240.952	43.86
241.169	23.38
241.386	-15.53
241.603	54.1
241.821	4.95
242.038	31.57
242.255	117.59
242.472	54.1
242.689	47.96
242.907	31.57
243.124	37.72
243.341	41.81
243.558	-15.53
243.775	4.95
243.992	45.91
244.209	37.72
244.426	62.29
244.643	97.11
244.86	60.24
245.078	-21.67
245.295	101.2
245.512	70.48
245.729	-48.3
245.946	70.48
246.163	15.19
246.38	15.19
246.597	90.96
246.814	80.72
247.031	7
247.248	78.68
247.464	45.91
247.681	0.85
247.898	68.44
248.115	88.92
248.332	43.86
248.549	43.86
248.766	58.2
248.983	-19.63
249.2	27.48
249.417	23.38
249.633	9.05
249.85	52.05
250.067	9.05
250.284	52.05
250.501	31.57
250.717	84.82
250.934	-62.63
251.151	47.96
251.368	2.9
251.585	-54.44
251.801	11.09
252.018	-29.87
252.235	113.49
252.451	9.05
252.668	25.43
252.885	54.1
253.102	45.91
253.318	-9.39
253.535	-36.01
253.752	-58.54
253.968	37.72
254.185	72.53
254.401	27.48
254.618	62.29
254.835	58.2
255.051	95.06
255.268	80.72
255.484	66.39
255.701	-3.24
255.917	-21.67
256.134	101.2
256.351	80.72
256.567	54.1
256.784	-29.87
257	41.81
257.217	39.76
257.433	47.96
257.65	68.44
257.866	21.33
258.082	-29.87
258.299	0.85
258.515	31.57
258.732	11.09
258.948	0.85
259.165	-19.63
259.381	19.29
259.597	45.91
259.814	33.62
260.03	76.63
260.246	64.34
260.463	54.1
260.679	58.2
260.895	-7.34
261.112	52.05
261.328	60.24
261.544	60.24
261.761	144.21
261.977	0.85
262.193	-29.87
262.409	19.29
262.626	-7.34
262.842	54.1
263.058	29.52
263.274	82.77
263.49	-19.63
263.707	80.72
263.923	2.9
264.139	-66.73
264.355	29.52
264.571	84.82
264.787	86.87
265.004	70.48
265.22	70.48
265.436	-17.58
265.652	31.57
265.868	80.72
266.084	-29.87
266.3	84.82
266.516	50
266.732	9.05
266.948	0.85
267.164	-15.53
267.38	-50.35
267.596	90.96
267.812	187.22
268.028	76.63
268.244	-15.53
268.46	4.95
268.676	-46.25
268.892	-5.29
269.108	70.48
269.324	-3.24
269.54	21.33
269.756	58.2
269.972	2.9
270.188	-38.06
270.403	-3.24
270.619	2.9
270.835	50
271.051	45.91
271.267	27.48
271.483	58.2
271.698	90.96
271.914	-1.19
272.13	-9.39
272.346	-19.63
272.562	21.33
272.777	43.86
272.993	37.72
273.209	35.67
273.425	66.39
273.64	-33.96
273.856	39.76
274.072	2.9
274.287	-68.78
274.503	29.52
274.719	56.15
274.934	-38.06
275.15	35.67
275.366	31.57
275.581	43.86
275.797	-21.67
276.012	88.92
276.228	33.62
276.444	90.96
276.659	54.1
276.875	-11.43
277.09	13.14
277.306	4.95
277.521	25.43
277.737	7
277.952	121.68
278.168	15.19
278.383	62.29
278.599	33.62
278.814	-19.63
279.03	-17.58
279.245	52.05
279.461	64.34
279.676	47.96
279.892	-15.53
280.107	2.9
280.322	33.62
280.538	74.58
280.753	2.9
280.969	45.91
281.184	-5.29
281.399	140.12
281.615	70.48
281.83	31.57
282.045	-44.2
282.26	29.52
282.476	-21.67
282.691	90.96
282.906	37.72
283.122	84.82
283.337	-21.67
283.552	11.09
283.767	56.15
283.983	86.87
284.198	-17.58
284.413	60.24
284.628	52.05
284.843	41.81
285.058	78.68
285.274	84.82
285.489	25.43
285.704	2.9
285.919	45.91
286.134	7
286.349	52.05
286.564	39.76
286.779	47.96
286.995	45.91
287.21	41.81
287.425	-7.34
287.64	-33.96
287.855	2.9
288.07	-7.34
288.285	64.34
288.5	146.26
288.715	27.48
288.93	-21.67
289.145	-31.91
289.36	43.86
289.575	56.15
289.79	21.33
290.004	-15.53
290.219	58.2
290.434	-42.15
290.649	62.29
290.864	47.96
291.079	9.05
291.294	25.43
291.509	86.87
291.724	117.59
291.938	19.29
292.153	60.24
292.368	-27.82
292.583	78.68
292.798	115.54
293.012	29.52
293.227	37.72
293.442	-3.24
293.657	84.82
293.871	33.62
294.086	68.44
294.301	-27.82
294.516	31.57
294.73	64.34
294.945	-3.24
295.16	33.62
295.374	95.06
295.589	47.96
295.804	17.24
296.018	76.63
296.233	80.72
296.447	58.2
296.662	52.05
296.877	2.9
297.091	52.05
297.306	52.05
297.52	13.14
297.735	25.43
297.949	119.64
298.164	131.92
298.378	-7.34
298.593	43.86
298.807	4.95
299.022	86.87
299.236	82.77
299.451	25.43
299.665	17.24
299.88	-9.39
300.094	2.9
300.309	-36.01
300.523	70.48
300.737	25.43
300.952	13.14
301.166	21.33
301.381	-27.82
301.595	19.29
301.809	54.1
302.024	56.15
302.238	70.48
302.452	117.59
302.667	-3.24
302.881	13.14
303.095	62.29
303.309	47.96
303.524	-31.91
303.738	9.05
303.952	23.38
304.166	62.29
304.381	-33.96
304.595	52.05
304.809	62.29
305.023	111.44
305.237	43.86
305.452	56.15
305.666	50
305.88	27.48
306.094	11.09
306.308	-9.39
306.522	58.2
306.736	64.34
306.95	25.43
307.164	9.05
307.379	54.1
307.593	84.82
307.807	72.53
308.021	58.2
308.235	-13.48
308.449	-42.15
308.663	-23.72
308.877	127.83
309.091	37.72
309.305	142.16
309.519	21.33
309.733	88.92
309.947	-21.67
310.161	97.11
310.374	27.48
310.588	50
310.802	68.44
311.016	52.05
311.23	62.29
311.444	72.53
311.658	13.14
311.872	47.96
312.085	64.34
312.299	35.67
312.513	64.34
312.727	31.57
312.941	-58.54
313.154	11.09
313.368	121.68
313.582	64.34
313.796	21.33
314.009	70.48
314.223	76.63
314.437	-3.24
314.651	7
314.864	74.58
315.078	66.39
315.292	7
315.505	19.29
315.719	109.4
315.933	21.33
316.146	-23.72
316.36	23.38
316.573	41.81
316.787	43.86
317.001	78.68
317.214	9.05
317.428	35.67
317.641	62.29
317.855	50
318.068	4.95
318.282	52.05
318.495	33.62
318.709	99.16
318.922	31.57
319.136	64.34
319.349	66.39
319.563	-7.34
319.776	50
319.99	-36.01
320.203	88.92
320.417	27.48
320.63	95.06
320.843	156.5
321.057	-9.39
321.27	58.2
321.483	84.82
321.697	66.39
321.91	7
322.124	33.62
322.337	31.57
322.55	-9.39
322.763	23.38
322.977	41.81
323.19	82.77
323.403	84.82
323.617	-38.06
323.83	82.77
324.043	109.4
324.256	-7.34
324.469	0.85
324.683	68.44
324.896	66.39
325.109	78.68
325.322	-52.39
325.535	107.35
325.748	80.72
325.962	-11.43
326.175	107.35
326.388	29.52
326.601	103.25
326.814	31.57
327.027	4.95
327.24	99.16
327.453	-48.3
327.666	121.68
327.879	15.19
328.092	45.91
328.305	90.96
328.518	11.09
328.731	35.67
328.944	52.05
329.157	72.53
329.37	0.85
329.583	93.01
329.796	58.2
330.009	-38.06
330.222	15.19
330.435	31.57
330.648	-3.24
330.861	47.96
331.073	45.91
331.286	136.02
331.499	33.62
331.712	-31.91
331.925	60.24
332.138	-46.25
332.35	84.82
332.563	31.57
332.776	39.76
332.989	11.09
333.202	78.68
333.414	-33.96
333.627	-3.24
333.84	58.2
334.053	27.48
334.265	84.82
334.478	105.3
334.691	33.62
334.903	58.2
335.116	-27.82
335.329	4.95
335.541	64.34
335.754	27.48
335.966	70.48
336.179	-19.63
336.392	39.76
336.604	19.29
336.817	23.38
337.029	117.59
337.242	58.2
337.454	82.77
337.667	-23.72
337.88	86.87
338.092	21.33
338.305	66.39
338.517	-1.19
338.729	115.54
338.942	72.53
339.154	-3.24
339.367	21.33
339.579	27.48
339.792	33.62
340.004	33.62
340.217	31.57
340.429	68.44
340.641	62.29
340.854	-5.29
341.066	33.62
341.278	15.19
341.491	80.72
341.703	95.06
341.915	11.09
342.128	68.44
342.34	-17.58
342.552	-7.34
342.764	66.39
342.977	-11.43
343.189	25.43
343.401	19.29
343.613	-17.58
343.826	25.43
344.038	56.15
344.25	21.33
344.462	19.29
344.674	70.48
344.886	13.14
345.099	43.86
345.311	78.68
345.523	35.67
345.735	68.44
345.947	31.57
346.159	23.38
346.371	27.48
346.583	60.24
346.795	129.88
347.007	15.19
347.219	50
347.431	70.48
347.643	56.15
347.855	4.95
348.067	50
348.279	-1.19
348.491	-44.2
348.703	47.96
348.915	-23.72
349.127	2.9
349.339	97.11
349.551	2.9
349.763	66.39
349.975	11.09
350.187	-19.63
350.399	39.76
350.61	68.44
350.822	0.85
351.034	-3.24
351.246	9.05
351.458	80.72
351.669	74.58
351.881	41.81
352.093	90.96
352.305	68.44
352.517	62.29
352.728	39.76
352.94	15.19
353.152	52.05
353.363	-36.01
353.575	-7.34
353.787	90.96
353.999	33.62
354.21	70.48
354.422	70.48
354.633	39.76
354.845	27.48
355.057	25.43
355.268	68.44
355.48	-29.87
355.692	-1.19
355.903	-25.77
356.115	-25.77
356.326	-27.82
356.538	123.73
356.749	37.72
356.961	56.15
357.172	72.53
357.384	17.24
357.595	97.11
357.807	90.96
358.018	-19.63
358.23	74.58
358.441	86.87
358.653	-7.34
358.864	82.77
359.075	50
359.287	60.24
359.498	109.4
359.709	37.72
359.921	62.29
360.132	11.09
360.344	-17.58
360.555	11.09
360.766	101.2
360.977	-7.34
361.189	80.72
361.4	0.85
361.611	115.54
361.823	25.43
362.034	52.05
362.245	4.95
362.456	60.24
362.667	39.76
362.879	56.15
363.09	35.67
363.301	31.57
363.512	33.62
363.723	-64.68
363.935	23.38
364.146	99.16
364.357	58.2
364.568	-15.53
364.779	-23.72
364.99	60.24
365.201	-33.96
365.412	111.44
365.623	-3.24
365.834	-31.91
366.045	0.85
366.256	62.29
366.467	0.85
366.678	27.48
366.889	-42.15
367.1	68.44
367.311	117.59
367.522	29.52
367.733	127.83
367.944	90.96
368.155	-31.91
368.366	-13.48
368.577	50
368.788	60.24
368.999	-33.96
369.209	-15.53
369.42	101.2
369.631	52.05
369.842	60.24
370.053	47.96
370.264	35.67
370.474	39.76
370.685	76.63
370.896	19.29
371.107	47.96
371.317	35.67
371.528	68.44
371.739	109.4
371.95	52.05
372.16	62.29
372.371	101.2
372.582	47.96
372.792	19.29
373.003	109.4
373.214	29.52
373.424	56.15
373.635	35.67
373.846	-3.24
374.056	76.63
374.267	105.3
374.477	37.72
374.688	123.73
374.898	113.49
375.109	90.96
375.319	72.53
375.53	39.76
375.74	70.48
375.951	-33.96
376.161	39.76
376.372	72.53
376.582	-70.83
376.793	37.72
377.003	27.48
377.214	50
377.424	74.58
377.635	-36.01
377.845	33.62
378.055	47.96
378.266	9.05
378.476	60.24
378.686	129.88
378.897	21.33
379.107	62.29
379.317	11.09
379.528	74.58
379.738	111.44
379.948	-9.39
380.158	52.05
380.369	33.62
380.579	90.96
380.789	23.38
380.999	68.44
381.21	43.86
381.42	154.45
381.63	72.53
381.84	39.76
382.05	74.58
382.261	133.97
382.471	50
382.681	-58.54
382.891	152.4
383.101	62.29
383.311	70.48
383.521	58.2
383.731	185.17
383.941	107.35
384.151	-17.58
384.361	50
384.571	0.85
384.781	-9.39
384.991	86.87
385.201	76.63
385.411	15.19
385.621	21.33
385.831	54.1
386.041	50
386.251	109.4
386.461	31.57
386.671	17.24
386.881	11.09
387.091	23.38
387.301	97.11
387.511	-3.24
387.72	117.59
387.93	39.76
388.14	72.53
388.35	68.44
388.56	105.3
388.769	60.24
388.979	43.86
389.189	4.95
389.399	84.82
389.609	29.52
389.818	52.05
390.028	39.76
390.238	64.34
390.447	33.62
390.657	99.16
390.867	70.48
391.076	58.2
391.286	-9.39
391.496	29.52
391.705	90.96
391.915	119.64
392.125	13.14
392.334	-5.29
392.544	127.83
392.753	37.72
392.963	21.33
393.172	31.57
393.382	37.72
393.591	60.24
393.801	50
394.01	60.24
394.22	41.81
394.429	54.1
394.639	0.85
394.848	107.35
395.058	160.59
395.267	43.86
395.477	60.24
395.686	115.54
395.895	136.02
396.105	82.77
396.314	50
396.524	54.1
396.733	101.2
396.942	144.21
397.152	68.44
397.361	131.92
397.57	64.34
397.78	125.78
397.989	86.87
398.198	129.88
398.407	148.31
398.617	72.53
398.826	68.44
399.035	50
399.244	45.91
399.453	86.87
399.663	82.77
399.872	88.92
400.081	86.87
400.29	72.53
400.499	95.06
400.708	142.16
400.917	47.96
401.127	86.87
401.336	58.2
401.545	246.61
401.754	158.55
401.963	90.96
402.172	86.87
402.381	45.91
402.59	142.16
402.799	62.29
403.008	146.26
403.217	82.77
403.426	52.05
403.635	21.33
403.844	86.87
404.053	125.78
404.262	70.48
404.471	189.27
404.68	101.2
404.888	160.59
405.097	103.25
405.306	146.26
405.515	88.92
405.724	123.73
405.933	117.59
406.142	72.53
406.35	127.83
406.559	179.03
406.768	123.73
406.977	254.8
407.185	142.16
407.394	195.41
407.603	99.16
407.812	187.22
408.02	197.46
408.229	250.71
408.438	142.16
408.646	131.92
408.855	183.12
409.064	297.81
409.272	138.07
409.481	217.94
409.69	201.55
409.898	244.56
410.107	258.9
410.315	262.99
410.524	195.41
410.733	246.61
410.941	226.13
411.15	297.81
411.358	248.66
411.567	256.85
411.775	303.95
411.984	306
412.192	256.85
412.401	357.2
412.609	303.95
412.818	357.2
413.026	306
413.234	396.11
413.443	330.58
413.651	367.44
413.86	400.21
414.068	473.93
414.276	486.22
414.485	478.03
414.693	449.36
414.901	449.36
415.11	465.74
415.318	523.09
415.526	394.06
415.734	533.33
415.943	598.86
416.151	592.72
416.359	533.33
416.567	574.28
416.776	596.81
416.984	615.24
417.192	791.37
417.4	654.16
417.608	652.11
417.817	666.44
418.025	826.18
418.233	721.74
418.441	746.31
418.649	754.51
418.857	813.9
419.065	817.99
419.273	834.38
419.481	856.9
419.689	867.14
419.897	936.78
420.105	1018.69
420.313	1037.13
420.521	1114.95
420.729	1090.37
420.937	1213.25
421.145	1125.19
421.353	1266.5
421.561	1229.63
421.769	1221.44
421.977	1366.85
422.185	1350.46
422.393	1422.14
422.601	1579.84
422.809	1538.88
423.017	1526.59
423.224	1618.75
423.432	1624.89
423.64	1712.96
423.848	1874.74
424.056	1725.24
424.263	1940.28
424.471	1866.55
424.679	1962.81
424.887	1983.29
425.094	2054.97
425.302	2040.63
425.51	2163.51
425.718	2194.23
425.925	2298.67
426.133	2327.35
426.341	2470.7
426.548	2569.01
426.756	2605.87
426.964	2558.77
427.171	2757.42
427.379	2865.96
427.586	2837.29
427.794	2997.03
428.001	3167.01
428.209	3318.56
428.417	3228.45
428.624	3525.41
428.832	3429.15
429.039	3392.29
429.247	3412.77
429.454	3588.89
429.662	4035.35
429.869	3728.16
430.076	4123.41
430.284	4018.97
430.491	4076.31
430.699	4295.44
430.906	4303.64
431.114	4336.4
431.321	4485.9
431.528	4700.94
431.736	4893.45
431.943	5077.77
432.15	5075.72
432.358	4918.03
432.565	5327.62
432.772	5288.71
432.979	5405.44
433.187	5634.82
433.394	5583.62
433.601	6163.19
433.808	6040.31
434.016	6146.81
434.223	6390.52
434.43	6687.47
434.637	6466.29
434.844	7006.95
435.052	6990.57
435.259	7029.48
435.466	7082.73
435.673	7056.11
435.88	7559.91
436.087	7897.82
436.294	8049.37
436.501	7912.16
436.708	7998.17
436.915	8108.76
437.122	8553.17
437.329	8614.61
437.537	8886.99
437.743	9009.87
437.95	9042.64
438.157	9300.68
438.364	9652.93
438.571	9669.31
438.778	9755.33
438.985	10599.09
439.192	10226.36
439.399	10451.64
439.606	10232.51
439.813	10773.17
440.02	11405.99
440.227	11535.01
440.433	11004.59
440.64	11606.69
440.847	11610.79
441.054	11799.2
441.261	12632.72
441.467	12176.03
441.674	12690.07
441.881	13267.59
442.088	12978.83
442.294	12677.78
442.501	13357.71
442.708	13369.99
442.914	14000.77
443.121	14701.17
443.328	14342.78
443.534	15276.65
443.741	14854.77
443.948	14633.59
444.154	15780.45
444.361	15839.84
444.568	15790.69
444.774	15620.71
444.981	15774.31
445.187	16286.3
445.394	17300.05
445.6	16896.6
445.807	18625.08
446.013	17695.3
446.22	18086.47
446.426	19094.07
446.633	19026.48
446.839	19950.12
447.046	18977.33
447.252	19606.06
447.459	19964.45
447.665	19722.79
447.871	20797.98
448.078	21873.16
448.284	20867.61
448.491	21176.85
448.697	22012.42
448.903	22340.1
449.11	22716.92
449.316	22276.61
449.522	22606.33
449.728	23097.84
449.935	23425.52
450.141	23343.6
450.347	23624.17
450.553	23282.16
450.76	23462.38
450.966	23818.73
451.172	24015.33
451.378	24508.9
451.584	23921.13
451.791	24531.42
451.997	24547.81
452.203	25094.61
452.409	25190.87
452.615	24734.17
452.821	23800.3
453.027	23615.98
453.233	24867.29
453.44	24029.67
453.646	24187.36
453.852	24238.56
454.058	24725.98
454.264	23732.72
454.47	24572.38
454.676	24013.29
454.882	24412.64
455.088	22436.35
455.294	22864.38
455.5	23226.87
455.705	23628.27
455.911	22784.51
456.117	22092.29
456.323	21639.69
456.529	20652.57
456.735	21299.73
456.941	21096.98
457.147	20558.36
457.352	19982.88
457.558	19722.79
457.764	19669.55
457.97	19630.63
458.176	18944.56
458.381	18954.8
458.587	18215.49
458.793	17818.18
458.999	17205.84
459.204	18297.41
459.41	17746.5
459.616	16984.66
459.821	16706.13
460.027	16665.18
460.233	16179.81
460.438	15465.07
460.644	15506.02
460.85	14887.54
461.055	14834.29
461.261	14482.04
461.466	13421.19
461.672	13300.36
461.878	13959.81
462.083	13060.75
462.289	12927.63
462.494	12769.94
462.7	12251.8
462.905	12106.4
463.111	12550.81
463.316	12276.38
463.522	12141.21
463.727	12184.22
463.932	12110.49
464.138	11844.26
464.343	11944.61
464.549	11532.97
464.754	11885.22
464.959	11821.73
465.165	11700.9
465.37	11258.54
465.575	11010.73
465.781	11311.78
465.986	11526.82
466.191	11143.85
466.397	10822.32
466.602	10443.45
466.807	10674.87
467.012	10721.97
467.218	10650.29
467.423	10754.74
467.628	10484.41
467.833	11225.77
468.038	10666.67
468.244	10252.98
468.449	10894
468.654	10230.46
468.859	10154.68
469.064	10322.62
469.269	10148.54
469.474	9976.51
469.679	10175.16
469.885	9829.06
470.09	10017.47
470.295	9962.17
470.5	9759.42
470.705	9781.95
470.91	9511.62
471.115	9562.82
471.32	9470.66
471.525	9423.56
471.73	9331.4
471.935	9288.39
472.139	8977.1
472.344	9024.2
472.549	8893.13
472.754	8872.65
472.959	8727.25
473.164	8465.11
473.369	8352.47
473.574	8708.82
473.778	8700.62
473.983	8649.43
474.188	8481.49
474.393	8053.47
474.598	8106.71
474.802	7938.78
475.007	7961.31
475.212	7883.49
475.417	7717.6
475.621	7770.85
475.826	7752.42
476.031	7604.96
476.235	7404.26
476.44	7682.78
476.645	7457.51
476.849	7564
477.054	7242.47
477.259	7303.91
477.463	7211.75
477.668	7348.97
477.872	7035.63
478.077	6929.13
478.282	6898.41
478.486	6865.64
478.691	6898.41
478.895	6712.05
479.1	6871.79
479.304	6646.51
479.509	6492.91
479.713	6632.18
479.918	6429.43
480.122	6345.46
480.326	6421.24
480.531	6345.46
480.735	6361.84
480.94	6204.15
481.144	6552.31
481.348	6124.28
481.553	6347.51
481.757	6245.11
481.961	6312.69
482.166	6372.08
482.37	6249.21
482.574	6241.01
482.778	6204.15
482.983	6318.84
483.187	6204.15
483.391	6284.02
483.595	6177.53
483.8	6089.46
484.004	6322.93
484.208	6347.51
484.412	6259.45
484.616	6314.74
484.821	6144.76
485.025	6124.28
485.229	6238.97
485.433	6146.81
485.637	6214.39
485.841	6171.38
486.045	6142.71
486.249	6159.1
486.453	6183.67
486.657	6357.75
486.861	6114.04
487.065	6175.48
487.269	6288.12
487.473	6003.45
487.677	6210.29
487.881	6290.17
488.085	6171.38
488.289	6253.3
488.493	6193.91
488.697	6388.47
488.901	6294.26
489.105	6294.26
489.309	6232.82
489.512	6316.79
489.716	6345.46
489.92	6228.73
490.124	6370.04
490.328	6376.18
490.531	6320.88
490.735	6322.93
490.939	6288.12
491.143	6458.1
491.346	6298.36
491.55	6648.56
491.754	6570.74
491.958	6423.28
492.161	6617.84
492.365	6456.05
492.569	6490.87
492.772	6626.03
492.976	6685.42
493.18	6697.71
493.383	6879.98
493.587	6710
493.79	6849.26
493.994	6716.14
494.197	6695.66
494.401	6871.79
494.605	6851.31
494.808	7031.53
495.012	7203.56
495.215	7101.16
495.419	7240.42
495.622	7113.45
495.825	7375.59
496.029	7148.26
496.232	7455.46
496.436	7512.8
496.639	7541.47
496.843	7406.31
497.046	7514.85
497.249	7764.7
497.453	7527.14
497.656	7850.72
497.859	7752.42
498.063	7826.14
498.266	8078.04
498.469	8014.56
498.673	8336.09
498.876	8293.08
499.079	8340.18
499.282	8534.74
499.485	8561.36
499.689	8649.43
499.892	8813.26
500.095	8729.3
500.298	8989.39
500.501	8886.99
500.705	9097.93
500.908	9272.01
501.111	9171.66
501.314	9312.97
501.517	9581.25
501.72	9704.13
501.923	9736.9
502.126	9986.75
502.329	10109.63
502.532	9941.69
502.735	10212.03
502.938	10394.29
503.141	10330.81
503.344	10715.83
503.547	10574.52
503.75	10850.99
503.953	10951.34
504.156	10885.81
504.359	11043.5
504.562	11143.85
504.765	11418.28
504.968	11537.06
505.17	11872.93
505.373	11799.2
505.576	11860.64
505.779	12169.88
505.982	11979.42
506.185	12534.42
506.387	12681.88
506.59	12602.01
506.793	12743.31
506.996	12622.48
507.198	13240.97
507.401	13222.54
507.604	13283.98
507.807	13746.82
508.009	13804.16
508.212	13972.1
508.415	13689.48
508.617	14117.5
508.82	14353.02
509.022	14127.74
509.225	14549.62
509.428	14619.25
509.63	14965.36
509.833	14852.72
510.035	15186.54
510.238	15192.69
510.44	15606.38
510.643	15825.51
510.845	15927.91
511.048	15764.07
511.25	15942.24
511.453	16298.59
511.655	16820.82
511.858	16591.45
512.06	16816.72
512.262	17021.52
512.465	17181.26
512.667	17373.77
512.87	17418.83
513.072	17728.07
513.274	17820.23
513.477	18045.51
513.679	18248.25
513.881	18721.34
514.084	18747.96
514.286	18762.3
514.488	18991.67
514.69	19554.86
514.893	19364.4
515.095	19739.18
515.297	20032.04
515.499	20050.47
515.701	20318.75
515.904	20541.98
516.106	20750.87
516.308	21213.71
516.51	21226
516.712	21037.59
516.914	21512.72
517.116	21946.89
517.318	21887.5
517.52	22098.44
517.722	22477.31
517.925	22657.53
518.127	23069.17
518.329	23132.66
518.531	23206.39
518.733	23716.33
518.935	23585.26
519.136	23941.61
519.338	24474.08
519.54	24261.09
519.742	24756.7
519.944	24848.86
520.146	25526.74
520.348	25418.19
520.55	25434.58
520.752	25625.04
520.954	26223.05
521.155	25850.31
521.357	26370.5
521.559	26808.76
521.761	27132.34
521.963	27097.53
522.164	27298.23
522.366	27304.37
522.568	27847.08
522.77	27857.32
522.971	28572.07
523.173	28295.59
523.375	28797.34
523.576	28451.24
523.778	28924.32
523.98	29368.73
524.181	29399.44
524.383	29751.7
524.584	29815.18
524.786	30241.16
524.988	29731.22
525.189	30198.15
525.391	30685.57
525.592	31082.88
525.794	30867.84
525.995	30986.62
526.197	30929.28
526.398	31093.11
526.6	31844.72
526.801	31555.96
527.003	31478.13
527.204	31758.7
527.406	32297.32
527.607	32428.39
527.808	32485.73
528.01	32041.32
528.211	32407.91
528.412	33112.41
528.614	32831.84
528.815	32739.68
529.016	33456.47
529.218	33040.73
529.419	33145.18
529.62	33505.62
529.822	33356.12
530.023	33704.28
530.224	33530.2
530.425	33710.42
530.626	33368.41
530.828	33345.88
531.029	34267.47
531.23	33941.84
531.431	34214.22
531.632	33548.63
531.833	34380.1
532.035	34251.08
532.236	34378.06
532.437	34728.26
532.638	34283.85
532.839	34562.37
533.04	34451.78
533.241	34214.22
533.442	35037.5
533.643	34589
533.844	34439.5
534.045	34865.47
534.246	34722.12
534.447	34603.33
534.648	34695.49
534.849	34873.67
535.05	34634.05
535.251	34812.23
535.451	34595.14
535.652	34810.18
535.853	35119.42
536.054	35066.17
536.255	35139.9
536.456	34890.05
536.657	35113.28
536.857	34818.37
537.058	34668.87
537.259	35232.06
537.46	35416.38
537.66	35090.75
537.861	35344.7
538.062	34505.03
538.263	35453.24
538.463	34926.91
538.664	35313.98
538.865	34822.47
539.065	35375.42
539.266	34685.25
539.466	35152.19
539.667	34804.03
539.868	35465.53
540.068	34609.48
540.269	34961.73
540.469	35324.22
540.67	34625.86
540.87	35311.93
541.071	35121.47
541.271	35281.21
541.472	35133.76
541.672	34910.53
541.873	34844.99
542.073	34533.7
542.274	35340.6
542.474	35150.14
542.675	34761.03
542.875	34746.69
543.075	34953.54
543.276	34609.48
543.476	35342.65
543.676	34722.12
543.877	35137.85
544.077	34955.58
544.277	34801.99
544.478	35117.37
544.678	34896.19
544.878	35023.17
545.078	34953.54
545.279	34701.64
545.479	34740.55
545.679	34959.68
545.879	34969.92
546.079	34926.91
546.28	34898.24
546.48	34738.5
546.68	34939.2
546.88	34922.82
547.08	35133.76
547.28	34957.63
547.48	34416.97
547.68	34818.37
547.88	34462.02
548.081	35123.52
548.281	34869.57
548.481	34775.36
548.681	34890.05
548.881	35062.08
549.081	34734.4
549.28	34502.98
549.48	34664.77
549.68	34658.63
549.88	35483.96
550.08	34644.29
550.28	34709.83
550.48	34777.41
550.68	35137.85
550.88	34636.1
551.08	34718.02
551.279	34994.5
551.479	34556.23
551.679	34691.4
551.879	34564.42
552.079	35080.51
552.278	34466.12
552.478	34691.4
552.678	34343.24
552.878	34660.68
553.077	34363.72
553.277	34236.75
553.477	34621.77
553.676	34570.57
553.876	34445.64
554.076	34163.02
554.275	34267.47
554.475	34414.92
554.674	34519.37
554.874	34459.98
555.074	34062.67
555.273	34431.3
555.473	34244.94
555.672	34105.68
555.872	33808.72
556.071	34146.64
556.271	34361.67
556.47	34103.63
556.67	34038.09
556.869	33710.42
557.068	34111.82
557.268	33575.25
557.467	33915.22
557.667	33737.04
557.866	33968.46
558.065	33446.23
558.265	33300.83
558.464	33374.55
558.663	33884.5
558.863	32819.55
559.062	33573.21
559.261	32639.33
559.461	33618.26
559.66	32989.53
559.859	33362.26
560.058	32643.43
560.258	33118.56
560.457	32715.11
560.656	33169.76
560.855	32708.96
561.054	33112.41
561.253	32502.12
561.453	32743.78
561.652	32639.33
561.851	32797.02
562.05	32670.05
562.249	32164.2
562.448	32459.11
562.647	32229.74
562.846	32145.77
563.045	32067.95
563.244	31957.36
563.443	32223.59
563.642	31637.87
563.841	31693.17
564.04	31447.41
564.239	31482.23
564.438	31449.46
564.637	31392.12
564.836	31449.46
565.035	31111.55
565.234	31230.33
565.432	31119.74
565.631	31080.83
565.83	30984.57
566.029	30779.78
566.228	30546.31
566.427	30601.6
566.625	30507.4
566.824	30314.89
567.023	30597.51
567.222	30142.86
567.42	30464.39
567.619	30136.71
567.818	29880.72
568.016	29770.13
568.215	30239.11
568.414	29487.51
568.612	30046.6
568.811	29368.73
569.01	29626.77
569.208	29116.83
569.407	29591.95
569.605	29174.17
569.804	29376.92
570.002	29135.26
570.201	29200.79
570.4	28881.31
570.598	28498.34
570.797	28627.36
570.995	28545.44
571.193	28328.36
571.392	28684.7
571.59	27969.96
571.789	28475.81
571.987	28162.47
572.186	28146.09
572.384	27972.01
572.582	27996.59
572.781	27632.05
572.979	27548.08
573.177	27541.94
573.376	27838.89
573.574	27400.63
573.772	27488.69
573.971	27220.41
574.169	27189.69
574.367	26730.94
574.565	26933.69
574.763	26712.51
574.962	26497.47
575.16	26659.26
575.358	26317.25
575.556	26223.05
575.754	26675.65
575.952	26147.27
576.151	26315.2
576.349	26071.5
576.547	26040.78
576.745	26026.44
576.943	26341.83
577.141	25938.38
577.339	25637.33
577.537	25543.12
577.735	25694.67
577.933	25326.03
578.131	25375.19
578.329	25129.43
578.527	25330.13
578.725	25334.23
578.923	24678.88
579.121	25041.37
579.319	24756.7
579.516	24787.42
579.714	24773.08
579.912	24424.93
580.11	24814.04
580.308	24375.78
580.506	24259.04
580.704	24111.59
580.901	24463.84
581.099	24732.12
581.297	24160.74
581.495	24185.32
581.692	23933.42
581.89	23925.22
582.088	23921.13
582.285	23710.19
582.483	23914.98
582.681	23781.87
582.878	23497.2
583.076	23452.14
583.274	23695.85
583.471	23341.55
583.669	23425.52
583.866	22921.72
584.064	23366.13
584.262	22794.75
584.459	23073.27
584.657	23114.23
584.854	23200.24
585.052	22581.76
585.249	22671.87
585.447	22485.5
585.644	22776.31
585.841	22764.03
586.039	22948.34
586.236	22419.97
586.434	21983.75
586.631	22409.73
586.828	22295.04
587.026	22030.85
587.223	22014.47
587.42	21871.11
587.618	22108.68
587.815	21438.99
588.012	21649.93
588.21	21467.66
588.407	21852.68
588.604	21334.54
588.801	21223.95
588.999	21428.75
589.196	21293.58
589.393	21090.84
589.59	21096.98
589.787	20902.42
589.984	21133.84
590.182	21013.01
590.379	20881.94
590.576	20879.89
590.773	21017.11
590.97	20785.69
591.167	20685.34
591.364	20503.07
591.561	20537.88
591.758	20175.39
591.955	20404.77
592.152	20466.21
592.349	20310.56
592.546	20310.56
592.743	20568.6
592.94	19593.77
593.137	20107.81
593.334	19917.35
593.531	19743.27
593.727	19972.64
593.924	19860.01
594.121	19544.62
594.318	19612.2
594.515	19466.8
594.712	19634.73
594.908	19028.53
595.105	19427.88
595.302	19192.37
595.499	19462.7
595.696	19284.53
595.892	19173.94
596.089	19329.58
596.286	19059.25
596.482	19030.58
596.679	18854.45
596.876	18903.6
597.072	18623.03
597.269	18625.08
597.466	18715.19
597.662	18860.6
597.859	18580.03
598.055	18498.11
598.252	18473.53
598.448	18463.29
598.645	18154.05
598.841	17994.31
599.038	18221.63
599.234	18141.76
599.431	17572.43
599.627	17961.54
599.824	18057.79
600.02	18123.33
600.217	18055.75
600.413	17762.89
600.609	17640.01
600.806	17871.43
601.002	17750.6
601.198	17424.97
601.395	17365.58
601.591	17545.8
601.787	17463.88
601.984	17310.29
602.18	17324.62
602.376	17388.11
602.572	17259.09
602.769	17418.83
602.965	16904.79
603.161	17111.63
603.357	17068.62
603.553	16880.21
603.75	17275.47
603.946	16820.82
604.142	16869.97
604.338	16650.84
604.534	16681.56
604.73	16284.25
604.926	16347.74
605.122	16714.33
605.318	16294.49
605.514	16452.19
605.71	16089.7
605.906	16345.69
606.102	16190.05
606.298	16427.61
606.494	16036.45
606.69	16298.59
606.886	16063.07
607.082	15942.24
607.278	16099.94
607.474	15946.34
607.67	16022.11
607.866	15651.43
608.062	15751.78
608.257	15661.67
608.453	15786.6
608.649	15639.14
608.845	15553.13
609.041	15544.94
609.236	15405.67
609.432	15465.07
609.628	15743.59
609.824	15282.8
610.019	15424.11
610.215	15385.19
610.411	15546.98
610.606	15090.29
610.802	15061.62
610.998	15125.1
611.193	15233.64
611.389	14955.12
611.584	15098.48
611.78	15049.33
611.976	14946.93
612.171	15116.91
612.367	14942.83
612.562	14860.91
612.758	14692.98
612.953	14729.84
613.149	15116.91
613.344	14500.47
613.539	14781.04
613.735	14674.55
613.93	14920.31
614.126	14621.3
614.321	14981.74
614.517	14721.65
614.712	14445.18
614.907	14502.52
615.103	14553.72
615.298	14371.45
615.493	14447.22
615.688	14172.8
615.884	14459.51
616.079	14041.73
616.274	14445.18
616.47	14211.71
616.665	14320.25
616.86	14125.69
617.055	14111.36
617.25	13990.53
617.445	14088.83
617.641	13746.82
617.836	13998.72
618.031	13585.03
618.226	13841.03
618.421	13779.59
618.616	13914.75
618.811	13556.36
619.006	13693.57
619.201	13599.37
619.396	13595.27
619.591	13302.41
619.786	13562.5
619.981	13101.71
620.176	13384.33
620.371	13138.57
620.566	13195.92
620.761	13093.52
620.956	13136.52
621.151	12720.79
621.346	13173.39
621.541	12970.64
621.735	13023.89
621.93	12679.83
622.125	13132.43
622.32	12386.97
622.515	12718.74
622.709	12380.82
622.904	12622.48
623.099	12346.01
623.294	12305.05
623.488	12081.82
623.683	12352.15
623.878	12317.34
624.072	12235.42
624.267	12057.25
624.462	11891.36
624.656	12018.33
624.851	11805.35
625.046	11846.3
625.24	11985.57
625.435	11803.3
625.629	11778.72
625.824	11522.73
626.018	11489.96
626.213	11262.63
626.407	11348.65
626.602	11217.58
626.796	11055.79
626.991	11385.51
627.185	11113.13
627.38	11059.88
627.574	10902.19
627.768	10742.45
627.963	10754.74
628.157	10703.54
628.352	10787.5
628.546	10592.95
628.74	10533.56
628.935	10613.43
629.129	10461.88
629.323	10521.27
629.517	10171.07
629.712	10263.22
629.906	10306.23
630.1	10173.11
630.294	10312.38
630.489	10136.25
630.683	10042.04
630.877	9962.17
631.071	10033.85
631.265	9994.94
631.459	9855.68
631.653	9665.22
631.848	9695.94
632.042	9530.05
632.236	9743.04
632.43	9620.16
632.624	9482.95
632.818	9429.7
633.012	9276.1
633.206	9478.85
633.4	9417.41
633.594	9386.69
633.788	9280.2
633.982	9419.46
634.176	9300.68
634.369	9173.71
634.563	9065.16
634.757	8843.98
634.951	8950.48
635.145	8940.24
635.339	8788.69
635.533	8944.33
635.726	8790.74
635.92	8659.67
636.114	8710.86
636.308	8653.52
636.501	8440.53
636.695	8559.31
636.889	8454.87
637.083	8542.93
637.276	8270.55
637.47	8299.22
637.664	8297.17
637.857	8344.28
638.051	8125.15
638.244	8164.06
638.438	8245.98
638.632	8198.87
638.825	7832.29
639.019	7875.29
639.212	7885.53
639.406	7871.2
639.599	7791.33
639.793	7815.9
639.986	7758.56
640.18	7858.91
640.373	7887.58
640.567	7520.99
640.76	7568.1
640.954	7559.91
641.147	7420.64
641.34	7281.38
641.534	7439.08
641.727	7443.17
641.92	7426.79
642.114	7166.7
642.307	7285.48
642.5	7207.66
642.694	7111.4
642.887	7158.5
643.08	7267.05
643.273	7262.95
643.467	7054.06
643.66	7019.24
643.853	6886.12
644.046	6726.38
644.239	6920.94
644.432	6736.62
644.626	6660.85
644.819	6660.85
645.012	6740.72
645.205	6726.38
645.398	6724.33
645.591	6519.54
645.784	6554.35
645.977	6408.95
646.17	6353.65
646.363	6415.09
646.556	6249.21
646.749	6255.35
646.942	6521.59
647.135	6411
647.328	6230.77
647.521	6165.24
647.714	6071.03
647.907	6204.15
648.099	6058.74
648.292	6200.05
648.485	5946.11
648.678	5942.01
648.871	6023.93
649.064	5823.23
649.256	6126.33
649.449	5892.86
649.642	5735.17
649.835	5733.12
650.027	5722.88
650.22	5882.62
650.413	5792.51
650.605	5880.57
650.798	5622.53
650.991	5589.76
651.183	5683.97
651.376	5577.47
651.568	5597.95
651.761	5374.72
651.954	5661.44
652.146	5440.26
652.339	5669.63
652.531	5462.79
652.724	5505.79
652.916	5262.09
653.109	5217.03
653.301	5280.52
653.494	5380.87
653.686	5303.04
653.879	5339.91
654.071	5042.95
654.263	5169.93
654.456	5045
654.648	5143.3
654.84	4989.71
655.033	5075.72
655.225	5059.34
655.417	4887.31
655.61	4985.61
655.802	4926.22
655.994	4858.64
656.186	5065.48
656.379	4893.45
656.571	4786.96
656.763	4844.3
656.955	4950.79
657.148	4819.72
657.34	4854.54
657.532	4629.26
657.724	4713.23
657.916	4836.11
658.108	4772.62
658.3	4651.79
658.492	4682.51
658.684	4526.86
658.876	4670.22
659.068	4588.3
659.26	4551.44
659.452	4559.63
659.644	4637.45
659.836	4524.82
660.028	4451.09
660.22	4412.18
660.412	4305.68
660.604	4365.07
660.796	4201.24
660.988	4346.64
661.18	4553.49
661.372	4346.64
661.563	4293.4
661.755	4227.86
661.947	4293.4
662.139	4234
662.331	4098.84
662.522	4129.56
662.714	4223.76
662.906	4154.13
663.097	4113.17
663.289	4219.67
663.481	4133.65
663.673	4057.88
663.864	4131.61
664.056	4043.54
664.247	4031.26
664.439	4123.41
664.631	4025.11
664.822	3978.01
665.014	4008.73
665.205	3851.03
665.397	3889.95
665.588	3832.6
665.78	3924.76
665.971	3959.58
666.163	3935
666.354	3875.61
666.546	3832.6
666.737	3904.28
666.929	3898.14
667.12	3853.08
667.311	3773.21
667.503	3816.22
667.694	3861.27
667.885	3711.77
668.077	3873.56
668.268	3941.15
668.459	3625.76
668.651	3724.06
668.842	3771.16
669.033	3666.72
669.224	3701.53
669.416	3726.11
669.607	3629.85
669.798	3767.07
669.989	3693.34
670.18	3603.23
670.371	3644.19
670.563	3603.23
670.754	3533.6
670.945	3590.94
671.136	3601.18
671.327	3638.05
671.518	3492.64
671.709	3517.22
671.9	3560.22
672.091	3691.29
672.282	3605.28
672.473	3564.32
672.664	3562.27
672.855	3463.97
673.046	3599.13
673.237	3623.71
673.428	3683.1
673.619	3480.35
673.809	3371.81
674	3504.93
674.191	3558.18
674.382	3392.29
674.573	3541.79
674.764	3494.69
674.954	3728.16
675.145	3539.74
675.336	3406.63
675.527	3459.87
675.717	3539.74
675.908	3418.91
676.099	3361.57
676.289	3556.13
676.48	3521.31
676.671	3586.85
676.861	3453.73
677.052	3490.59
677.243	3451.68
677.433	3506.98
677.624	3580.7
677.814	3486.5
678.005	3558.18
678.195	3576.61
678.386	3597.09
678.576	3425.06
678.767	3289.89
678.957	3382.05
679.148	3607.33
679.338	3580.7
679.529	3556.13
679.719	3509.02
679.909	3707.68
680.1	3492.64
680.29	3541.79
680.481	3572.51
680.671	3482.4
680.861	3627.81
681.052	3511.07
681.242	3494.69
681.432	3611.42
681.622	3509.02
681.813	3455.78
682.003	3470.11
682.193	3560.22
682.383	3554.08
682.573	3642.14
682.764	3525.41
682.954	3633.95
683.144	3554.08
683.334	3498.78
683.524	3570.46
683.714	3590.94
683.904	3601.18
684.094	3703.58
684.284	3607.33
684.474	3609.37
684.664	3459.87
684.854	3592.99
685.044	3535.65
685.234	3459.87
685.424	3515.17
685.614	3537.7
685.804	3498.78
685.994	3566.37
686.184	3474.21
686.374	3509.02
686.564	3459.87
686.753	3433.25
686.943	3388.19
687.133	3449.63
687.323	3367.71
687.513	3517.22
687.702	3343.14
687.892	3513.12
688.082	3250.98
688.272	3463.97
688.461	3224.36
688.651	3310.37
688.841	3185.44
689.03	3314.47
689.22	3330.85
689.41	3300.13
689.599	3189.54
689.789	3207.97
689.979	3279.65
690.168	3265.32
690.358	3212.07
690.547	3214.12
690.737	3175.2
690.926	3187.49
691.116	3066.66
691.305	3101.48
691.495	3050.28
691.684	3144.49
691.874	3070.76
692.063	3060.52
692.252	3126.05
692.442	3023.66
692.631	2933.54
692.82	2941.74
693.01	3048.23
693.199	3040.04
693.388	2835.24
693.578	2923.3
693.767	3009.32
693.956	2911.02
694.146	2968.36
694.335	2874.15
694.524	2960.17
694.713	2956.07
694.902	2763.56
695.092	2786.09
695.281	2941.74
695.47	2878.25
695.659	2868.01
695.848	2788.14
696.037	2861.87
696.226	2833.19
696.415	2964.26
696.604	2814.76
696.793	2831.15
696.982	2794.28
697.171	2859.82
697.36	2718.51
697.549	2745.13
697.738	2763.56
697.927	2708.27
698.116	2743.08
698.305	2712.36
698.494	2798.38
698.683	2726.7
698.872	2802.47
699.061	2779.95
699.25	2804.52
699.438	2634.54
699.627	2802.47
699.816	2745.13
700.005	2695.98
700.193	2710.32
700.382	2741.04
700.571	2614.06
700.76	2650.92
700.948	2743.08
701.137	2781.99
701.326	2835.24
701.514	2792.23
701.703	2888.49
701.892	2794.28
702.08	2859.82
702.269	2736.94
702.457	2681.64
702.646	2845.48
702.834	2716.46
703.023	2767.66
703.212	2794.28
703.4	2761.52
703.589	2794.28
703.777	2853.67
703.965	2650.92
704.154	2833.19
704.342	2706.22
704.531	2761.52
704.719	2808.62
704.907	2835.24
705.096	2818.86
705.284	2849.58
705.472	2833.19
705.661	2814.76
705.849	2767.66
706.037	2855.72
706.226	2927.4
706.414	2831.15
706.602	2755.37
706.79	2880.3
706.979	2818.86
707.167	2845.48
707.355	2861.87
707.543	2741.04
707.731	2825
707.919	2825
708.107	2904.87
708.296	2849.58
708.484	2853.67
708.672	2908.97
708.86	2847.53
709.048	2923.3
709.236	2872.11
709.424	2935.59
709.612	2769.71
709.8	2808.62
709.988	2804.52
710.176	2908.97
710.364	2947.88
710.551	2939.69
710.739	3013.42
710.927	2855.72
711.115	2949.93
711.303	2859.82
711.491	2845.48
711.679	2865.96
711.866	2962.22
712.054	2974.5
712.242	3017.51
712.43	3033.9
712.617	2835.24
712.805	2954.02
712.993	3013.42
713.181	2929.45
713.368	3197.73
713.556	3031.85
713.744	2960.17
713.931	3064.61
714.119	2988.84
714.306	3001.13
714.494	3025.7
714.682	2935.59
714.869	2886.44
715.057	2902.83
715.244	3011.37
715.432	3044.13
715.619	2978.6
715.807	3078.95
715.994	3076.9
716.182	3093.29
716.369	3119.91
716.556	3214.12
716.744	2990.89
716.931	3164.97
717.119	3177.25
717.306	3130.15
717.493	3052.33
717.681	3109.67
717.868	3087.14
718.055	3218.21
718.242	3210.02
718.43	3234.6
718.617	3056.42
718.804	3189.54
718.991	3181.35
719.179	3203.88
719.366	3191.59
719.553	3203.88
719.74	3171.11
719.927	3083.05
720.114	3199.78
720.301	3191.59
720.488	3156.77
720.676	3140.39
720.863	3261.22
721.05	3312.42
721.237	3341.09
721.424	3339.04
721.611	3326.75
721.798	3171.11
721.985	3255.08
722.172	3240.74
722.358	3300.13
722.545	3234.6
722.732	3224.36
722.919	3279.65
723.106	3201.83
723.293	3349.28
723.48	3162.92
723.667	3287.84
723.853	3207.97
724.04	3414.82
724.227	3314.47
724.414	3314.47
724.6	3347.23
724.787	3320.61
724.974	3320.61
725.161	3326.75
725.347	3443.49
725.534	3451.68
725.72	3355.43
725.907	3466.02
726.094	3455.78
726.28	3304.23
726.467	3414.82
726.653	3300.13
726.84	3468.06
727.027	3386.15
727.213	3416.87
727.4	3367.71
727.586	3363.62
727.773	3396.39
727.959	3339.04
728.145	3636
728.332	3447.58
728.518	3457.82
728.705	3480.35
728.891	3367.71
729.077	3443.49
729.264	3445.54
729.45	3439.39
729.636	3719.96
729.823	3431.2
730.009	3392.29
730.195	3605.28
730.382	3535.65
730.568	3506.98
730.754	3492.64
730.94	3509.02
731.126	3621.66
731.313	3562.27
731.499	3490.59
731.685	3652.38
731.871	3568.41
732.057	3627.81
732.243	3545.89
732.429	3451.68
732.615	3592.99
732.801	3599.13
732.987	3523.36
733.173	3457.82
733.359	3642.14
733.545	3582.75
733.731	3558.18
733.917	3717.92
734.103	3633.95
734.289	3685.15
734.475	3556.13
734.661	3670.81
734.847	3615.52
735.033	3621.66
735.219	3674.91
735.404	3597.09
735.59	3711.77
735.776	3519.26
735.962	3719.96
736.148	3619.61
736.333	3552.03
736.519	3597.09
736.705	3603.23
736.89	3572.51
737.076	3660.57
737.262	3742.49
737.447	3414.82
737.633	3662.62
737.819	3668.77
738.004	3574.56
738.19	3480.35
738.375	3560.22
738.561	3529.5
738.747	3609.37
738.932	3633.95
739.118	3681.05
739.303	3679.01
739.489	3644.19
739.674	3513.12
739.859	3588.89
740.045	3629.85
740.23	3640.09
740.416	3592.99
740.601	3801.88
740.786	3566.37
740.972	3293.99
741.157	3449.63
741.342	3509.02
741.528	3496.74
741.713	3480.35
741.898	3482.4
742.084	3427.11
742.269	3410.72
742.454	3601.18
742.639	3492.64
742.824	3400.48
743.01	3392.29
743.195	3470.11
743.38	3535.65
743.565	3517.22
743.75	3509.02
743.935	3447.58
744.12	3425.06
744.305	3361.57
744.49	3437.34
744.675	3525.41
744.86	3363.62
745.045	3468.06
745.23	3306.27
745.415	3414.82
745.6	3267.36
745.785	3207.97
745.97	3205.92
746.155	3218.21
746.34	3300.13
746.525	3181.35
746.71	3298.08
746.895	3242.79
747.079	3158.82
747.264	3232.55
747.449	3199.78
747.634	3255.08
747.819	3242.79
748.003	3027.75
748.188	3050.28
748.373	3095.33
748.557	3132.2
748.742	3042.09
748.927	2845.48
749.111	3009.32
749.296	2980.65
749.481	2964.26
749.665	2954.02
749.85	2941.74
750.034	3023.66
750.219	2935.59
750.404	2947.88
750.588	2917.16
750.773	2784.04
750.957	2863.91
751.141	2837.29
751.326	2747.18
751.51	2814.76
751.695	2820.91
751.879	2761.52
752.064	2855.72
752.248	2710.32
752.432	2773.8
752.617	2655.02
752.801	2577.2
752.985	2603.82
753.17	2685.74
753.354	2620.21
753.538	2681.64
753.722	2548.53
753.907	2536.24
754.091	2511.66
754.275	2480.94
754.459	2380.59
754.643	2513.71
754.828	2466.61
755.012	2319.15
755.196	2433.84
755.38	2401.07
755.564	2548.53
755.748	2319.15
755.932	2364.21
756.116	2263.86
756.3	2343.73
756.484	2280.24
756.668	2249.52
756.852	2313.01
757.036	2261.81
757.22	2198.32
757.404	2270
757.588	2206.52
757.772	2323.25
757.956	2286.39
758.14	2229.04
758.323	2147.12
758.507	2188.08
758.691	2028.34
758.875	2179.89
759.059	2151.22
759.242	2030.39
759.426	2044.73
759.61	2216.76
759.794	2052.92
759.977	2169.65
760.161	2179.89
760.345	2052.92
760.528	2063.16
760.712	1930.04
760.895	1946.42
761.079	2081.59
761.263	1960.76
761.446	1971
761.63	1989.43
761.813	1952.57
761.997	1983.29
762.18	1930.04
762.364	1870.65
762.547	1870.65
762.731	1905.46
762.914	1919.8
763.098	1770.3
763.281	1762.11
763.464	1884.98
763.648	1860.41
763.831	1807.16
764.015	1952.57
764.198	1803.07
764.381	1729.34
764.564	1700.67
764.748	1878.84
764.931	1794.87
765.114	1755.96
765.297	1717.05
765.481	1682.24
765.664	1676.09
765.847	1794.87
766.03	1782.59
766.213	1549.12
766.397	1651.52
766.58	1778.49
766.763	1573.69
766.946	1741.63
767.129	1729.34
767.312	1631.04
767.495	1674.04
767.678	1645.37
767.861	1727.29
768.044	1657.66
768.227	1684.28
768.41	1639.23
768.593	1710.91
768.776	1631.04
768.959	1502.01
769.142	1620.8
769.324	1616.7
769.507	1534.78
769.69	1571.65
769.873	1682.24
770.056	1653.56
770.239	1495.87
770.421	1530.69
770.604	1555.26
770.787	1434.43
770.97	1459.01
771.152	1401.66
771.335	1416
771.518	1405.76
771.7	1542.97
771.883	1551.17
772.066	1456.96
772.248	1497.92
772.431	1483.58
772.613	1354.56
772.796	1381.18
772.978	1491.77
773.161	1465.15
773.343	1483.58
773.526	1381.18
773.708	1323.84
773.891	1432.38
774.073	1407.81
774.256	1344.32
774.438	1354.56
774.621	1348.42
774.803	1280.83
774.985	1149.76
775.168	1274.69
775.35	1291.07
775.532	1260.35
775.715	1200.96
775.897	1243.97
776.079	1235.78
776.261	1319.75
776.444	1246.02
776.626	1166.15
776.808	1170.24
776.99	1092.42
777.173	1153.86
777.355	1088.32
777.537	1100.61
777.719	1211.2
777.901	1071.94
778.083	1016.65
778.265	1106.76
778.447	1108.8
778.629	1121.09
778.811	1069.89
778.993	1133.38
779.175	1014.6
779.357	1014.6
779.539	1039.17
779.721	1016.65
779.903	1069.89
780.085	1030.98
780.267	1020.74
780.449	1051.46
780.631	1076.04
780.812	965.45
780.994	973.64
781.176	1076.04
781.358	996.17
781.54	977.73
781.721	926.54
781.903	1020.74
782.085	920.39
782.267	934.73
782.448	840.52
782.63	836.42
782.812	940.87
782.993	920.39
783.175	955.21
783.357	863.05
783.538	865.1
783.72	906.06
783.901	820.04
784.083	877.38
784.264	879.43
784.446	811.85
784.627	774.99
784.809	893.77
784.99	830.28
785.172	828.23
785.353	762.7
785.535	768.84
785.716	774.99
785.897	740.17
786.079	721.74
786.26	820.04
786.441	738.12
786.623	664.4
786.804	756.55
786.985	789.32
787.167	781.13
787.348	635.72
787.529	678.73
787.71	697.16
787.891	744.27
788.073	711.5
788.254	648.01
788.435	752.46
788.616	633.68
788.797	641.87
788.978	643.92
789.159	609.1
789.34	666.44
789.522	672.59
789.703	705.35
789.884	664.4
790.065	670.54
790.246	658.25
790.427	609.1
790.607	621.39
790.788	654.16
790.969	580.43
791.15	596.81
791.331	592.72
791.512	623.44
791.693	607.05
791.874	695.11
792.054	676.68
792.235	613.2
792.416	541.52
792.597	664.4
792.778	533.33
792.958	582.48
793.139	480.08
793.32	559.95
793.5	607.05
793.681	584.52
793.862	623.44
794.042	590.67
794.223	414.54
794.404	430.93
794.584	514.89
794.765	496.46
794.945	512.85
795.126	547.66
795.306	510.8
795.487	508.75
795.667	471.89
795.848	578.38
796.028	465.74
796.209	467.79
796.389	451.41
796.57	484.17
796.75	414.54
796.93	402.26
797.111	443.21
797.291	506.7
797.471	549.71
797.652	496.46
797.832	498.51
798.012	516.94
798.192	463.69
798.373	357.2
798.553	457.55
798.733	471.89
798.913	435.02
799.093	457.55
799.274	432.97
799.454	455.5
799.634	500.56
799.814	449.36
799.994	463.69
800.174	430.93
800.354	424.78
800.534	422.73
800.714	449.36
800.894	432.97
801.074	361.3
801.254	357.2
801.434	445.26
801.614	361.3
801.794	338.77
801.974	1108.8
802.154	398.16
802.334	435.02
802.514	394.06
802.693	371.54
802.873	428.88
803.053	387.92
803.233	346.96
803.413	377.68
803.592	398.16
803.772	375.63
803.952	289.62
804.131	293.71
804.311	336.72
804.491	342.86
804.67	320.34
804.85	351.06
805.03	385.87
805.209	361.3
805.389	238.42
805.568	328.53
805.748	351.06
805.928	265.04
806.107	332.62
806.287	332.62
806.466	375.63
806.646	412.5
806.825	281.43
807.004	273.23
807.184	342.86
807.363	404.3
807.543	283.47
807.722	365.39
807.901	338.77
808.081	349.01
808.26	285.52
808.439	238.42
808.619	389.97
808.798	289.62
808.977	250.71
809.156	361.3
809.336	281.43
809.515	326.48
809.694	244.56
809.873	330.58
810.052	344.91
810.231	295.76
810.411	234.32
810.59	277.33
810.769	273.23
810.948	330.58
811.127	228.18
811.306	271.19
811.485	191.31
811.664	351.06
811.843	211.79
812.022	246.61
812.201	301.9
812.38	295.76
812.559	236.37
812.737	299.86
812.916	299.86
813.095	215.89
813.274	277.33
813.453	344.91
813.632	344.91
813.811	250.71
813.989	219.99
814.168	205.65
814.347	199.51
814.526	228.18
814.704	215.89
814.883	240.47
815.062	174.93
815.24	285.52
815.419	185.17
815.598	275.28
815.776	166.74
815.955	273.23
816.133	217.94
816.312	222.03
816.49	199.51
816.669	293.71
816.847	265.04
817.026	277.33
817.204	168.79
817.383	181.07
817.561	183.12
817.74	215.89
817.918	234.32
818.097	191.31
818.275	174.93
818.453	267.09
818.632	244.56
818.81	213.84
818.988	242.51
819.167	260.95
819.345	160.59
819.523	193.36
819.701	179.03
819.879	150.36
820.058	269.14
820.236	191.31
820.414	156.5
820.592	176.98
820.77	195.41
820.948	219.99
821.127	236.37
821.305	222.03
821.483	156.5
821.661	201.55
821.839	238.42
822.017	154.45
822.195	205.65
822.373	217.94
822.551	193.36
822.729	146.26
822.907	158.55
823.085	215.89
823.262	193.36
823.44	152.4
823.618	195.41
823.796	191.31
823.974	160.59
824.152	226.13
824.329	150.36
824.507	187.22
824.685	125.78
824.863	195.41
825.04	195.41
825.218	183.12
825.396	172.88
825.574	205.65
825.751	174.93
825.929	226.13
826.107	111.44
826.284	217.94
826.462	88.92
826.639	109.4
826.817	111.44
826.994	154.45
827.172	127.83
827.349	113.49
827.527	181.07
827.704	189.27
827.882	146.26
828.059	101.2
828.237	189.27
828.414	144.21
828.591	121.68
828.769	109.4
828.946	115.54
829.124	213.84
829.301	140.12
829.478	181.07
829.655	195.41
829.833	232.27
830.01	136.02
830.187	144.21
830.364	193.36
830.542	136.02
830.719	142.16
830.896	129.88
831.073	195.41
831.25	107.35
831.427	115.54
831.604	93.01
831.782	111.44
831.959	189.27
832.136	156.5
832.313	150.36
832.49	131.92
832.667	113.49
832.844	103.25
833.021	138.07
833.198	72.53
833.374	123.73
833.551	138.07
833.728	181.07
833.905	99.16
834.082	50
834.259	160.59
834.436	150.36
834.612	93.01
834.789	125.78
834.966	113.49
835.143	70.48
835.319	80.72
835.496	179.03
835.673	86.87
835.85	248.66
836.026	164.69
836.203	131.92
836.38	158.55
836.556	113.49
836.733	93.01
836.909	131.92
837.086	66.39
837.262	117.59
837.439	88.92
837.616	54.1
837.792	95.06
837.968	103.25
838.145	70.48
838.321	101.2
838.498	62.29
838.674	205.65
838.851	56.15
839.027	80.72
839.203	84.82
839.38	150.36
839.556	11.09
839.732	109.4
839.909	125.78
840.085	129.88
840.261	39.76
840.437	174.93
840.614	47.96
840.79	52.05
840.966	117.59
841.142	158.55
841.318	70.48
841.494	160.59
841.671	76.63
841.847	68.44
842.023	-7.34
842.199	80.72
842.375	90.96
842.551	33.62
842.727	29.52
842.903	119.64
843.079	41.81
843.255	95.06
843.431	47.96
843.607	117.59
843.783	41.81
843.959	99.16
844.134	111.44
844.31	140.12
844.486	78.68
844.662	72.53
844.838	9.05
845.013	84.82
845.189	103.25
845.365	31.57
845.541	64.34
845.716	72.53
845.892	84.82
846.068	76.63
846.244	58.2
846.419	29.52
846.595	52.05
846.77	111.44
846.946	82.77
847.122	52.05
847.297	-1.19
847.473	117.59
847.648	99.16
847.824	95.06
847.999	74.58
848.175	74.58
848.35	68.44
848.526	93.01
848.701	72.53
848.876	80.72
849.052	86.87
849.227	58.2
849.403	25.43
849.578	133.97
849.753	95.06
849.929	50
850.104	11.09
850.279	97.11
850.454	43.86
850.63	70.48
850.805	76.63
850.98	66.39
851.155	70.48
851.33	33.62
851.505	54.1
851.681	93.01
851.856	105.3
852.031	52.05
852.206	101.2
852.381	115.54
852.556	115.54
852.731	84.82
852.906	121.68
853.081	43.86
853.256	23.38
853.431	25.43
853.606	82.77
853.781	72.53
853.956	-17.58
854.131	107.35
854.305	-68.78
854.48	78.68
854.655	11.09
854.83	117.59
855.005	111.44
855.18	2.9
855.354	7
855.529	39.76
855.704	27.48
855.879	101.2
856.053	9.05
856.228	27.48
856.403	41.81
856.577	64.34
856.752	2.9
856.926	19.29
857.101	60.24
857.276	33.62
857.45	111.44
857.625	80.72
857.799	54.1
857.974	27.48
858.148	43.86
858.323	117.59
858.497	66.39
858.672	56.15
858.846	25.43
859.02	62.29
859.195	31.57
859.369	66.39
859.543	41.81
859.718	13.14
859.892	7
860.066	35.67
860.241	60.24
860.415	99.16
860.589	9.05
860.763	11.09
860.938	97.11
861.112	19.29
861.286	33.62
861.46	33.62
861.634	2.9
861.808	58.2
861.982	27.48
862.157	66.39
862.331	11.09
862.505	58.2
862.679	-40.11
862.853	31.57
863.027	-21.67
863.201	127.83
863.375	62.29
863.549	115.54
863.722	25.43
863.896	97.11
864.07	15.19
864.244	9.05
864.418	39.76
864.592	23.38
864.766	-1.19
864.939	-11.43
865.113	52.05
865.287	78.68
865.461	23.38
865.634	19.29
865.808	62.29
865.982	50
866.156	17.24
866.329	29.52
866.503	58.2
866.676	9.05
866.85	45.91
867.024	13.14
867.197	80.72
867.371	68.44
867.544	33.62
867.718	-17.58
867.891	43.86
868.065	37.72
868.238	109.4
868.412	95.06
868.585	-21.67
868.759	4.95
868.932	29.52
869.105	-15.53
869.279	54.1
869.452	-46.25
869.625	80.72
869.799	50
869.972	-5.29
870.145	29.52
870.319	54.1
870.492	11.09
870.665	25.43
870.838	37.72
871.011	-83.11
871.185	23.38
871.358	11.09
871.531	-52.39
871.704	-7.34
871.877	25.43
872.05	-7.34
872.223	29.52
872.396	144.21
872.569	41.81
872.742	-31.91
872.915	9.05
873.088	35.67
873.261	-13.48
873.434	27.48
873.607	-17.58
873.78	84.82
873.953	50
874.126	33.62
874.299	-29.87
874.471	-40.11
874.644	0.85
874.817	-9.39
874.99	74.58
875.163	27.48
875.335	-11.43
875.508	19.29
875.681	95.06
875.853	33.62
876.026	7
876.199	47.96
876.371	15.19
876.544	17.24
876.717	52.05
876.889	33.62
877.062	-5.29
877.234	43.86
877.407	-29.87
877.579	39.76
877.752	-1.19
877.924	64.34
878.097	4.95
878.269	37.72
878.442	13.14
878.614	-3.24
878.786	47.96
878.959	99.16
879.131	101.2
879.303	17.24
879.476	-13.48
879.648	58.2
879.82	72.53
879.993	17.24
880.165	11.09
880.337	39.76
880.509	-25.77
880.681	37.72
880.854	15.19
881.026	66.39
881.198	68.44
881.37	-5.29
881.542	39.76
881.714	-79.02
881.886	-46.25
882.058	-3.24
882.23	27.48
882.402	15.19
882.574	-23.72
882.746	21.33
882.918	0.85
883.09	41.81
883.262	127.83
883.434	-25.77
883.606	-29.87
883.778	62.29
883.95	-9.39
884.122	-31.91
884.293	82.77
884.465	-17.58
884.637	41.81
884.809	-7.34
884.98	21.33
885.152	-40.11
885.324	66.39
885.496	17.24
885.667	52.05
885.839	-62.63
886.011	27.48
886.182	76.63
886.354	0.85
886.525	88.92
886.697	0.85
886.869	54.1
887.04	-27.82
887.212	17.24
887.383	-7.34
887.555	64.34
887.726	27.48
887.897	-97.45
888.069	35.67
888.24	-5.29
888.412	27.48
888.583	-21.67
888.754	29.52
888.926	-52.39
889.097	-25.77
889.268	-33.96
889.44	-7.34
889.611	-44.2
889.782	-3.24
889.953	29.52
890.125	-25.77
890.296	-5.29
890.467	-7.34
890.638	45.91
890.809	80.72
890.98	0.85
891.151	15.19
891.323	74.58
891.494	-7.34
891.665	7
891.836	-9.39
892.007	37.72
892.178	11.09
892.349	84.82
892.52	-3.24
892.691	-17.58
892.862	66.39
893.032	-17.58
893.203	41.81
893.374	47.96
893.545	52.05
893.716	-23.72
893.887	-7.34
894.057	25.43
894.228	60.24
894.399	-17.58
894.57	119.64
894.74	29.52
894.911	-11.43
895.082	33.62
895.253	13.14
895.423	-15.53
895.594	-19.63
895.764	-9.39
895.935	39.76
896.106	66.39
896.276	47.96
896.447	25.43
896.617	-64.68
896.788	-9.39
896.958	9.05
897.129	19.29
897.299	9.05
897.47	-3.24
897.64	41.81
897.81	64.34
897.981	25.43
898.151	-56.49
898.322	-7.34
898.492	-11.43
898.662	-13.48
898.832	33.62
899.003	33.62
899.173	-33.96
899.343	-17.58
899.513	-36.01
