Data from USB4F104151__44__12-23-56-184.txt Node

Date: Fri Mar 14 12:23:56 EDT 2025
User: louis
Spectrometer: USB4F10415
Trigger mode: 4
Integration Time (sec): 3.500000E-2
Scans to average: 1
Electric dark correction enabled: true
Nonlinearity correction enabled: false
Boxcar width: 0
XAxis mode: Wavelengths
Number of Pixels in Spectrum: 3648
>>>>>Begin Spectral Data<<<<<
178.204	-141.14
178.424	-141.14
178.644	-141.14
178.864	-128.85
179.084	-112.47
179.304	14.51
179.524	-14.17
179.744	14.51
179.964	106.67
180.184	-24.4
180.404	49.32
180.624	-53.08
180.844	-18.26
181.064	6.31
181.283	-14.17
181.503	-73.56
181.723	6.31
181.943	-16.21
182.163	127.14
182.383	51.37
182.602	71.85
182.822	67.75
183.042	45.23
183.262	53.42
183.482	55.47
183.701	-22.36
183.921	106.67
184.141	-69.46
184.361	88.23
184.58	-38.74
184.8	30.89
185.02	-12.12
185.239	86.19
185.459	16.55
185.679	30.89
185.898	10.41
186.118	63.66
186.338	47.27
186.557	4.27
186.777	-24.4
186.997	8.36
187.216	45.23
187.436	135.34
187.655	-10.07
187.875	63.66
188.095	12.46
188.314	112.81
188.534	98.47
188.753	0.17
188.973	59.56
189.192	88.23
189.412	28.84
189.631	28.84
189.851	51.37
190.07	73.9
190.29	30.89
190.509	32.94
190.729	39.08
190.948	53.42
191.168	123.05
191.387	84.14
191.607	-16.21
191.826	69.8
192.045	88.23
192.265	34.99
192.484	53.42
192.704	75.95
192.923	-30.55
193.142	139.43
193.362	47.27
193.581	61.61
193.8	32.94
194.02	98.47
194.239	67.75
194.458	55.47
194.678	34.99
194.897	61.61
195.116	88.23
195.335	63.66
195.555	12.46
195.774	-14.17
195.993	43.18
196.212	26.79
196.432	41.13
196.651	16.55
196.87	-10.07
197.089	102.57
197.308	-1.88
197.528	116.9
197.747	32.94
197.966	28.84
198.185	153.77
198.404	32.94
198.623	-3.93
198.842	18.6
199.062	125.1
199.281	73.9
199.5	-16.21
199.719	-14.17
199.938	43.18
200.157	24.75
200.376	98.47
200.595	47.27
200.814	24.75
201.033	28.84
201.252	77.99
201.471	-12.12
201.69	28.84
201.909	22.7
202.128	125.1
202.347	71.85
202.566	-12.12
202.785	32.94
203.004	-5.97
203.223	139.43
203.442	28.84
203.661	37.03
203.879	41.13
204.098	114.86
204.317	14.51
204.536	82.09
204.755	-26.45
204.974	71.85
205.193	-1.88
205.411	80.04
205.63	55.47
205.849	135.34
206.068	80.04
206.287	45.23
206.505	53.42
206.724	-3.93
206.943	45.23
207.162	37.03
207.381	-36.69
207.599	-5.97
207.818	84.14
208.037	121
208.255	32.94
208.474	55.47
208.693	55.47
208.911	32.94
209.13	-10.07
209.349	47.27
209.567	-1.88
209.786	57.51
210.005	24.75
210.223	-18.26
210.442	26.79
210.661	45.23
210.879	49.32
211.098	43.18
211.316	2.22
211.535	57.51
211.753	16.55
211.972	34.99
212.191	18.6
212.409	55.47
212.628	63.66
212.846	55.47
213.065	14.51
213.283	110.76
213.502	45.23
213.72	28.84
213.938	51.37
214.157	-8.02
214.375	92.33
214.594	8.36
214.812	53.42
215.031	51.37
215.249	-8.02
215.467	63.66
215.686	14.51
215.904	8.36
216.122	41.13
216.341	69.8
216.559	16.55
216.778	71.85
216.996	6.31
217.214	71.85
217.432	106.67
217.651	-24.4
217.869	12.46
218.087	-12.12
218.306	110.76
218.524	82.09
218.742	28.84
218.96	69.8
219.179	2.22
219.397	59.56
219.615	141.48
219.833	53.42
220.051	22.7
220.27	80.04
220.488	59.56
220.706	45.23
220.924	6.31
221.142	43.18
221.36	34.99
221.578	47.27
221.796	26.79
222.015	6.31
222.233	57.51
222.451	108.71
222.669	14.51
222.887	-18.26
223.105	14.51
223.323	41.13
223.541	12.46
223.759	84.14
223.977	77.99
224.195	90.28
224.413	47.27
224.631	114.86
224.849	-3.93
225.067	63.66
225.285	-20.31
225.503	-12.12
225.721	-12.12
225.939	18.6
226.157	73.9
226.375	149.67
226.592	26.79
226.81	73.9
227.028	96.43
227.246	80.04
227.464	69.8
227.682	88.23
227.9	34.99
228.117	6.31
228.335	84.14
228.553	-8.02
228.771	61.61
228.989	53.42
229.206	92.33
229.424	-65.36
229.642	0.17
229.86	71.85
230.077	61.61
230.295	30.89
230.513	39.08
230.731	12.46
230.948	102.57
231.166	32.94
231.384	20.65
231.601	37.03
231.819	84.14
232.037	22.7
232.254	-3.93
232.472	51.37
232.689	34.99
232.907	18.6
233.125	41.13
233.342	41.13
233.56	-1.88
233.777	30.89
233.995	69.8
234.213	118.95
234.43	96.43
234.648	90.28
234.865	-18.26
235.083	2.22
235.3	-28.5
235.518	100.52
235.735	4.27
235.953	51.37
236.17	2.22
236.388	10.41
236.605	102.57
236.822	20.65
237.04	80.04
237.257	22.7
237.475	-36.69
237.692	30.89
237.909	92.33
238.127	-24.4
238.344	96.43
238.562	37.03
238.779	-51.03
238.996	-69.46
239.214	28.84
239.431	90.28
239.648	16.55
239.865	53.42
240.083	86.19
240.3	28.84
240.517	28.84
240.735	65.71
240.952	-1.88
241.169	98.47
241.386	59.56
241.603	24.75
241.821	2.22
242.038	118.95
242.255	32.94
242.472	41.13
242.689	34.99
242.907	41.13
243.124	65.71
243.341	65.71
243.558	-5.97
243.775	-8.02
243.992	-26.45
244.209	59.56
244.426	131.24
244.643	16.55
244.86	45.23
245.078	32.94
245.295	34.99
245.512	69.8
245.729	30.89
245.946	39.08
246.163	110.76
246.38	-8.02
246.597	75.95
246.814	61.61
247.031	39.08
247.248	88.23
247.464	-10.07
247.681	77.99
247.898	145.58
248.115	30.89
248.332	-63.32
248.549	41.13
248.766	110.76
248.983	49.32
249.2	110.76
249.417	82.09
249.633	-18.26
249.85	-26.45
250.067	90.28
250.284	73.9
250.501	-5.97
250.717	88.23
250.934	59.56
251.151	16.55
251.368	34.99
251.585	96.43
251.801	65.71
252.018	22.7
252.235	39.08
252.451	4.27
252.668	-16.21
252.885	86.19
253.102	94.38
253.318	-20.31
253.535	-16.21
253.752	88.23
253.968	47.27
254.185	12.46
254.401	55.47
254.618	61.61
254.835	12.46
255.051	139.43
255.268	-14.17
255.484	18.6
255.701	6.31
255.917	86.19
256.134	39.08
256.351	161.96
256.567	-46.93
256.784	-42.84
257	22.7
257.217	112.81
257.433	47.27
257.65	114.86
257.866	59.56
258.082	32.94
258.299	37.03
258.515	112.81
258.732	26.79
258.948	-3.93
259.165	59.56
259.381	8.36
259.597	47.27
259.814	51.37
260.03	153.77
260.246	55.47
260.463	102.57
260.679	121
260.895	22.7
261.112	86.19
261.328	-44.88
261.544	-24.4
261.761	12.46
261.977	100.52
262.193	-26.45
262.409	28.84
262.626	73.9
262.842	82.09
263.058	20.65
263.274	51.37
263.49	30.89
263.707	55.47
263.923	92.33
264.139	-24.4
264.355	69.8
264.571	88.23
264.787	-34.64
265.004	77.99
265.22	47.27
265.436	45.23
265.652	6.31
265.868	26.79
266.084	-30.55
266.3	45.23
266.516	16.55
266.732	32.94
266.948	65.71
267.164	59.56
267.38	20.65
267.596	45.23
267.812	82.09
268.028	20.65
268.244	18.6
268.46	20.65
268.676	32.94
268.892	16.55
269.108	49.32
269.324	-10.07
269.54	34.99
269.756	153.77
269.972	-24.4
270.188	84.14
270.403	57.51
270.619	67.75
270.835	6.31
271.051	-12.12
271.267	12.46
271.483	30.89
271.698	102.57
271.914	59.56
272.13	102.57
272.346	6.31
272.562	49.32
272.777	88.23
272.993	-48.98
273.209	-10.07
273.425	51.37
273.64	24.75
273.856	18.6
274.072	69.8
274.287	65.71
274.503	51.37
274.719	20.65
274.934	75.95
275.15	39.08
275.366	82.09
275.581	67.75
275.797	8.36
276.012	18.6
276.228	28.84
276.444	37.03
276.659	28.84
276.875	37.03
277.09	-3.93
277.306	-5.97
277.521	84.14
277.737	57.51
277.952	82.09
278.168	24.75
278.383	106.67
278.599	22.7
278.814	88.23
279.03	71.85
279.245	73.9
279.461	55.47
279.676	86.19
279.892	8.36
280.107	-57.17
280.322	-3.93
280.538	18.6
280.753	34.99
280.969	4.27
281.184	98.47
281.399	82.09
281.615	28.84
281.83	102.57
282.045	-14.17
282.26	53.42
282.476	71.85
282.691	108.71
282.906	47.27
283.122	108.71
283.337	34.99
283.552	55.47
283.767	63.66
283.983	55.47
284.198	-10.07
284.413	104.62
284.628	26.79
284.843	37.03
285.058	67.75
285.274	63.66
285.489	30.89
285.704	53.42
285.919	-61.27
286.134	20.65
286.349	18.6
286.564	133.29
286.779	143.53
286.995	-40.79
287.21	-34.64
287.425	53.42
287.64	37.03
287.855	37.03
288.07	-24.4
288.285	102.57
288.5	45.23
288.715	47.27
288.93	121
289.145	63.66
289.36	61.61
289.575	69.8
289.79	80.04
290.004	53.42
290.219	51.37
290.434	41.13
290.649	18.6
290.864	69.8
291.079	41.13
291.294	0.17
291.509	118.95
291.724	92.33
291.938	-55.12
292.153	71.85
292.368	6.31
292.583	59.56
292.798	82.09
293.012	75.95
293.227	77.99
293.442	-12.12
293.657	51.37
293.871	96.43
294.086	110.76
294.301	106.67
294.516	147.62
294.73	12.46
294.945	39.08
295.16	63.66
295.374	45.23
295.589	127.14
295.804	-14.17
296.018	69.8
296.233	55.47
296.447	82.09
296.662	24.75
296.877	59.56
297.091	151.72
297.306	47.27
297.52	59.56
297.735	61.61
297.949	75.95
298.164	39.08
298.378	77.99
298.593	69.8
298.807	55.47
299.022	32.94
299.236	30.89
299.451	0.17
299.665	82.09
299.88	39.08
300.094	47.27
300.309	32.94
300.523	30.89
300.737	24.75
300.952	12.46
301.166	8.36
301.381	18.6
301.595	-57.17
301.809	24.75
302.024	73.9
302.238	0.17
302.452	108.71
302.667	84.14
302.881	82.09
303.095	71.85
303.309	57.51
303.524	41.13
303.738	98.47
303.952	6.31
304.166	161.96
304.381	-1.88
304.595	92.33
304.809	12.46
305.023	63.66
305.237	108.71
305.452	43.18
305.666	67.75
305.88	61.61
306.094	61.61
306.308	39.08
306.522	110.76
306.736	28.84
306.95	98.47
307.164	65.71
307.379	22.7
307.593	45.23
307.807	47.27
308.021	84.14
308.235	59.56
308.449	92.33
308.663	94.38
308.877	94.38
309.091	47.27
309.305	157.86
309.519	84.14
309.733	110.76
309.947	2.22
310.161	41.13
310.374	55.47
310.588	121
310.802	10.41
311.016	-3.93
311.23	0.17
311.444	12.46
311.658	45.23
311.872	51.37
312.085	45.23
312.299	71.85
312.513	51.37
312.727	69.8
312.941	57.51
313.154	53.42
313.368	12.46
313.582	47.27
313.796	49.32
314.009	26.79
314.223	84.14
314.437	41.13
314.651	82.09
314.864	61.61
315.078	-10.07
315.292	-18.26
315.505	-5.97
315.719	112.81
315.933	92.33
316.146	-20.31
316.36	-18.26
316.573	82.09
316.787	59.56
317.001	37.03
317.214	63.66
317.428	10.41
317.641	34.99
317.855	63.66
318.068	92.33
318.282	14.51
318.495	106.67
318.709	80.04
318.922	34.99
319.136	121
319.349	106.67
319.563	39.08
319.776	67.75
319.99	-8.02
320.203	116.9
320.417	67.75
320.63	8.36
320.843	149.67
321.057	55.47
321.27	82.09
321.483	26.79
321.697	71.85
321.91	86.19
322.124	61.61
322.337	133.29
322.55	2.22
322.763	45.23
322.977	30.89
323.19	26.79
323.403	49.32
323.617	77.99
323.83	80.04
324.043	-10.07
324.256	65.71
324.469	20.65
324.683	45.23
324.896	10.41
325.109	28.84
325.322	18.6
325.535	28.84
325.748	100.52
325.962	-5.97
326.175	-38.74
326.388	88.23
326.601	127.14
326.814	92.33
327.027	47.27
327.24	192.68
327.453	45.23
327.666	67.75
327.879	71.85
328.092	110.76
328.305	-1.88
328.518	82.09
328.731	47.27
328.944	82.09
329.157	71.85
329.37	26.79
329.583	104.62
329.796	110.76
330.009	121
330.222	65.71
330.435	0.17
330.648	49.32
330.861	32.94
331.073	71.85
331.286	47.27
331.499	90.28
331.712	6.31
331.925	30.89
332.138	-3.93
332.35	59.56
332.563	-1.88
332.776	98.47
332.989	45.23
333.202	20.65
333.414	65.71
333.627	112.81
333.84	26.79
334.053	30.89
334.265	30.89
334.478	77.99
334.691	102.57
334.903	37.03
335.116	2.22
335.329	34.99
335.541	45.23
335.754	47.27
335.966	88.23
336.179	18.6
336.392	47.27
336.604	-18.26
336.817	47.27
337.029	96.43
337.242	143.53
337.454	92.33
337.667	49.32
337.88	131.24
338.092	114.86
338.305	61.61
338.517	96.43
338.729	53.42
338.942	161.96
339.154	-1.88
339.367	100.52
339.579	92.33
339.792	32.94
340.004	55.47
340.217	10.41
340.429	84.14
340.641	86.19
340.854	-10.07
341.066	18.6
341.278	45.23
341.491	129.19
341.703	92.33
341.915	49.32
342.128	170.15
342.34	94.38
342.552	26.79
342.764	16.55
342.977	57.51
343.189	61.61
343.401	67.75
343.613	84.14
343.826	77.99
344.038	96.43
344.25	106.67
344.462	30.89
344.674	41.13
344.886	73.9
345.099	45.23
345.311	141.48
345.523	12.46
345.735	12.46
345.947	47.27
346.159	41.13
346.371	12.46
346.583	98.47
346.795	94.38
347.007	26.79
347.219	94.38
347.431	88.23
347.643	32.94
347.855	55.47
348.067	137.38
348.279	18.6
348.491	82.09
348.703	110.76
348.915	8.36
349.127	18.6
349.339	67.75
349.551	69.8
349.763	71.85
349.975	18.6
350.187	164.01
350.399	24.75
350.61	45.23
350.822	41.13
351.034	86.19
351.246	34.99
351.458	121
351.669	69.8
351.881	125.1
352.093	65.71
352.305	65.71
352.517	114.86
352.728	131.24
352.94	49.32
353.152	55.47
353.363	24.75
353.575	37.03
353.787	88.23
353.999	47.27
354.21	151.72
354.422	43.18
354.633	84.14
354.845	110.76
355.057	65.71
355.268	24.75
355.48	71.85
355.692	98.47
355.903	53.42
356.115	75.95
356.326	12.46
356.538	71.85
356.749	75.95
356.961	80.04
357.172	96.43
357.384	61.61
357.595	88.23
357.807	39.08
358.018	6.31
358.23	4.27
358.441	71.85
358.653	170.15
358.864	-18.26
359.075	30.89
359.287	71.85
359.498	98.47
359.709	39.08
359.921	174.25
360.132	51.37
360.344	90.28
360.555	49.32
360.766	88.23
360.977	2.22
361.189	96.43
361.4	20.65
361.611	127.14
361.823	131.24
362.034	67.75
362.245	47.27
362.456	102.57
362.667	137.38
362.879	110.76
363.09	2.22
363.301	55.47
363.512	110.76
363.723	77.99
363.935	16.55
364.146	96.43
364.357	141.48
364.568	43.18
364.779	73.9
364.99	180.39
365.201	45.23
365.412	108.71
365.623	51.37
365.834	14.51
366.045	6.31
366.256	55.47
366.467	94.38
366.678	98.47
366.889	82.09
367.1	-42.84
367.311	143.53
367.522	82.09
367.733	141.48
367.944	57.51
368.155	16.55
368.366	67.75
368.577	73.9
368.788	-3.93
368.999	34.99
369.209	71.85
369.42	141.48
369.631	166.06
369.842	39.08
370.053	30.89
370.264	112.81
370.474	77.99
370.685	43.18
370.896	43.18
371.107	121
371.317	39.08
371.528	32.94
371.739	84.14
371.95	28.84
372.16	88.23
372.371	53.42
372.582	6.31
372.792	104.62
373.003	92.33
373.214	133.29
373.424	67.75
373.635	90.28
373.846	159.91
374.056	121
374.267	53.42
374.477	104.62
374.688	49.32
374.898	82.09
375.109	84.14
375.319	67.75
375.53	90.28
375.74	73.9
375.951	32.94
376.161	14.51
376.372	135.34
376.582	-3.93
376.793	55.47
377.003	92.33
377.214	86.19
377.424	77.99
377.635	43.18
377.845	10.41
378.055	77.99
378.266	47.27
378.476	55.47
378.686	6.31
378.897	14.51
379.107	92.33
379.317	63.66
379.528	63.66
379.738	57.51
379.948	43.18
380.158	118.95
380.369	-22.36
380.579	110.76
380.789	-3.93
380.999	172.2
381.21	112.81
381.42	149.67
381.63	86.19
381.84	125.1
382.05	114.86
382.261	118.95
382.471	139.43
382.681	41.13
382.891	161.96
383.101	53.42
383.311	8.36
383.521	24.75
383.731	161.96
383.941	92.33
384.151	43.18
384.361	-1.88
384.571	28.84
384.781	196.78
384.991	145.58
385.201	155.82
385.411	110.76
385.621	-1.88
385.831	77.99
386.041	131.24
386.251	84.14
386.461	108.71
386.671	75.95
386.881	96.43
387.091	65.71
387.301	86.19
387.511	6.31
387.72	157.86
387.93	147.62
388.14	-5.97
388.35	24.75
388.56	96.43
388.769	147.62
388.979	14.51
389.189	75.95
389.399	47.27
389.609	155.82
389.818	168.1
390.028	26.79
390.238	94.38
390.447	108.71
390.657	127.14
390.867	131.24
391.076	-1.88
391.286	129.19
391.496	53.42
391.705	104.62
391.915	32.94
392.125	86.19
392.334	110.76
392.544	69.8
392.753	69.8
392.963	127.14
393.172	127.14
393.382	41.13
393.591	151.72
393.801	10.41
394.01	151.72
394.22	92.33
394.429	139.43
394.639	73.9
394.848	75.95
395.058	192.68
395.267	82.09
395.477	100.52
395.686	112.81
395.895	184.49
396.105	133.29
396.314	116.9
396.524	135.34
396.733	63.66
396.942	184.49
397.152	112.81
397.361	121
397.57	77.99
397.78	51.37
397.989	131.24
398.198	209.06
398.407	118.95
398.617	98.47
398.826	190.63
399.035	137.38
399.244	143.53
399.453	106.67
399.663	98.47
399.872	125.1
400.081	92.33
400.29	182.44
400.499	16.55
400.708	127.14
400.917	178.34
401.127	104.62
401.336	155.82
401.545	290.98
401.754	256.17
401.963	159.91
402.172	153.77
402.381	170.15
402.59	250.02
402.799	215.21
403.008	223.4
403.217	139.43
403.426	233.64
403.635	149.67
403.844	106.67
404.053	223.4
404.262	229.54
404.471	178.34
404.68	243.88
404.888	196.78
405.097	147.62
405.306	172.2
405.515	268.45
405.724	174.25
405.933	225.45
406.142	239.78
406.35	309.41
406.559	209.06
406.768	286.89
406.977	243.88
407.185	266.41
407.394	229.54
407.603	260.26
407.812	211.11
408.02	311.46
408.229	262.31
408.438	245.93
408.646	247.97
408.855	356.52
409.064	323.75
409.272	358.57
409.481	372.9
409.69	311.46
409.898	415.91
410.107	372.9
410.315	366.76
410.524	368.81
410.733	438.44
410.941	420
411.15	497.83
411.358	538.79
411.567	493.73
411.775	450.72
411.984	585.89
412.192	534.69
412.401	520.35
412.609	618.66
412.818	684.19
413.026	669.86
413.234	610.47
413.443	641.18
413.651	606.37
413.86	663.71
414.068	884.89
414.276	807.07
414.485	762.02
414.693	850.08
414.901	888.99
415.11	897.18
415.318	827.55
415.526	925.85
415.734	999.58
415.943	1065.11
416.151	1120.41
416.359	956.57
416.567	1036.44
416.776	1130.65
416.984	1144.99
417.192	1233.05
417.4	1265.82
417.608	1321.11
417.817	1366.17
418.025	1435.8
418.233	1562.77
418.441	1470.61
418.649	1468.56
418.857	1538.2
419.065	1675.41
419.273	1734.8
419.481	1663.12
419.689	1796.24
419.897	1902.73
420.105	1984.65
420.313	1933.45
420.521	1984.65
420.729	1994.89
420.937	2085
421.145	2279.56
421.353	2375.81
421.561	2396.29
421.769	2453.64
421.977	2601.09
422.185	2611.33
422.393	2705.54
422.601	2871.42
422.809	2836.61
423.017	2748.54
423.224	3055.74
423.432	3102.84
423.64	3188.86
423.848	3356.79
424.056	3496.05
424.263	3537.01
424.471	3563.64
424.679	3715.19
424.887	3870.83
425.094	4049
425.302	3944.56
425.51	4257.9
425.718	4231.27
425.925	4253.8
426.133	4405.35
426.341	4829.28
426.548	5007.45
426.756	4939.87
426.964	4978.78
427.171	5380.18
427.379	5517.4
427.586	5550.17
427.794	5748.82
428.001	6002.77
428.209	6117.45
428.417	6131.79
428.624	6598.73
428.832	6559.81
429.039	6451.27
429.247	6545.48
429.454	7082.05
429.662	7753.78
429.869	7108.67
430.076	7675.96
430.284	7551.03
430.491	7872.56
430.699	8308.78
430.906	8124.46
431.114	8325.16
431.321	8667.17
431.528	8560.68
431.736	9209.89
431.943	9816.08
432.15	9424.92
432.358	9627.67
432.565	10106.9
432.772	10133.52
432.979	10739.72
433.187	10696.71
433.394	10655.75
433.601	11507.71
433.808	11587.58
434.016	11579.39
434.223	11935.73
434.43	12740.58
434.637	12558.32
434.844	13223.9
435.052	13682.65
435.259	13623.26
435.466	13586.4
435.673	13477.85
435.88	14290.9
436.087	14933.96
436.294	14989.25
436.501	14751.69
436.708	14985.16
436.915	15753.15
437.122	16170.93
437.329	16068.53
437.537	16914.34
437.743	17282.98
437.95	16928.68
438.157	17528.74
438.364	18542.48
438.571	18223
438.778	18450.32
438.985	20219.77
439.192	19283.84
439.399	20107.13
439.606	19765.12
439.813	20660.08
440.02	22044.51
440.227	21565.28
440.433	21679.97
440.64	22212.44
440.847	21983.07
441.054	22736.72
441.261	23846.72
441.467	23457.6
441.674	24485.69
441.881	25233.19
442.088	24827.7
442.294	24710.96
442.501	25177.9
442.708	26021.66
442.914	27207.44
443.121	28129.02
443.328	27221.77
443.534	28954.35
443.741	28292.86
443.948	28200.7
444.154	30097.12
444.361	30158.56
444.568	30371.55
444.774	30369.5
444.981	30568.15
445.187	31336.14
445.394	32663.22
445.6	32511.67
445.807	35470.99
446.013	34029.22
446.22	34467.48
446.426	35960.45
446.633	36288.13
446.839	37643.88
447.046	35856.01
447.252	37946.98
447.459	38059.62
447.665	37666.41
447.871	39368.27
448.078	41207.35
448.284	38776.41
448.491	40384.07
448.697	41924.14
448.903	42534.43
449.11	42864.16
449.316	41670.19
449.522	43027.99
449.728	43824.65
449.935	44287.49
450.141	44181
450.347	45331.96
450.553	43576.85
450.76	44314.12
450.966	45549.04
451.172	44957.18
451.378	46194.15
451.584	45526.52
451.791	46577.12
451.997	46603.75
452.203	47015.39
452.409	47123.93
452.615	46874.08
452.821	45362.68
453.027	44543.49
453.233	47168.99
453.44	44893.69
453.646	45342.2
453.852	45563.38
454.058	46296.55
454.264	44910.08
454.47	46228.97
454.676	44809.73
454.882	46411.24
455.088	42198.57
455.294	42978.84
455.5	43703.82
455.705	44047.88
455.911	42051.11
456.117	41373.24
456.323	40865.34
456.529	38936.15
456.735	40365.63
456.941	39376.47
457.147	38811.23
457.352	37629.55
457.558	37023.35
457.764	37058.17
457.97	36511.36
458.176	35690.12
458.381	35640.97
458.587	34180.77
458.793	33758.89
458.999	32237.25
459.204	34264.74
459.41	33578.67
459.616	31108.82
459.821	31352.52
460.027	31344.33
460.233	30592.73
460.438	28894.96
460.644	29220.59
460.85	27795.2
461.055	27367.18
461.261	27348.75
461.466	25220.91
461.672	24702.77
461.878	26134.3
462.083	24725.3
462.289	24069.95
462.494	24028.99
462.7	22525.78
462.905	22454.1
463.111	22978.38
463.316	23263.05
463.522	22902.61
463.727	22816.59
463.932	22714.19
464.138	22132.57
464.343	22380.37
464.549	21759.84
464.754	22611.79
464.959	22296.41
465.165	22257.5
465.37	21337.96
465.575	20914.03
465.781	21475.17
465.986	21552.99
466.191	20959.08
466.397	20637.55
466.602	19646.33
466.807	20371.32
467.012	20279.16
467.218	20002.68
467.423	19804.03
467.628	20100.98
467.833	21088.1
468.038	20029.31
468.244	19603.33
468.449	20359.03
468.654	19560.32
468.859	19453.83
469.064	19459.97
469.269	18640.78
469.474	18808.72
469.679	18921.35
469.885	18567.06
470.09	18751.37
470.295	18622.35
470.5	18306.96
470.705	18589.58
470.91	18055.06
471.115	17547.17
471.32	18032.54
471.525	17874.84
471.73	17481.63
471.935	17592.22
472.139	16836.52
472.344	17147.81
472.549	17039.27
472.754	17033.13
472.959	16039.86
473.164	15964.09
473.369	15835.07
473.574	16400.3
473.778	16205.75
473.983	15894.46
474.188	16070.58
474.393	15255.49
474.598	15341.5
474.802	15257.54
475.007	15185.86
475.212	15263.68
475.417	14618.57
475.621	14393.3
475.826	14575.56
476.031	14450.64
476.235	14125.01
476.44	14512.08
476.645	13983.7
476.849	14043.09
477.054	13758.42
477.259	13750.23
477.463	13574.11
477.668	13295.58
477.872	13461.47
478.077	13148.13
478.282	12982.24
478.486	12785.64
478.691	12718.06
478.895	12572.65
479.1	12466.16
479.304	12673
479.509	12382.19
479.713	12445.68
479.918	12146.67
480.122	12062.71
480.326	12312.56
480.531	12312.56
480.735	12068.85
480.94	12132.34
481.144	12285.94
481.348	11954.16
481.553	11988.98
481.757	11505.66
481.961	11855.86
482.166	11950.07
482.37	11819
482.574	11771.9
482.778	11560.95
482.983	11923.44
483.187	11862.01
483.391	11851.77
483.595	11804.66
483.8	11528.19
484.004	11857.91
484.208	11872.25
484.412	11771.9
484.616	12064.75
484.821	11905.01
485.025	11454.46
485.229	11771.9
485.433	11667.45
485.637	11675.64
485.841	11612.15
486.045	11862.01
486.249	11722.74
486.453	11659.26
486.657	11487.23
486.861	11753.46
487.065	11315.2
487.269	11495.42
487.473	11501.56
487.677	11679.74
487.881	11878.39
488.085	11763.7
488.289	11708.41
488.493	11784.18
488.697	11896.82
488.901	11724.79
489.105	11841.53
489.309	11788.28
489.512	11722.74
489.716	11853.81
489.92	11917.3
490.124	11851.77
490.328	11980.79
490.531	12074.99
490.735	11952.12
490.939	11962.36
491.143	12077.04
491.346	12066.8
491.55	12185.58
491.754	12244.98
491.958	12312.56
492.161	12156.91
492.365	12226.54
492.569	12310.51
492.772	12206.06
492.976	12417.01
493.18	12599.27
493.383	12697.58
493.587	12619.75
493.79	12683.24
493.994	12673
494.197	12845.03
494.401	12812.26
494.605	13006.82
494.808	13092.83
495.012	13445.09
495.215	13170.66
495.419	13590.49
495.622	13496.28
495.825	13572.06
496.029	13502.43
496.232	13885.4
496.436	13692.89
496.639	14163.92
496.843	14133.2
497.046	14399.44
497.249	14485.45
497.453	14690.25
497.656	14862.28
497.859	14854.09
498.063	14858.18
498.266	15531.97
498.469	15214.53
498.673	15460.29
498.876	15589.31
499.079	15718.33
499.282	15837.11
499.485	16146.36
499.689	16304.05
499.892	16349.11
500.095	16480.18
500.298	16975.78
500.501	16676.78
500.705	17080.23
500.908	17368.99
501.111	17334.18
501.314	17725.34
501.517	17692.57
501.72	18032.54
501.923	17967
502.126	18464.66
502.329	18786.19
502.532	18763.66
502.735	19013.51
502.938	19668.86
503.141	19511.17
503.344	19695.49
503.547	19689.34
503.75	20062.07
503.953	20604.78
504.156	20584.3
504.359	20592.5
504.562	21059.43
504.765	21186.41
504.968	21606.24
505.17	21503.84
505.373	21653.34
505.576	22329.17
505.779	22239.06
505.982	22439.76
506.185	22968.14
506.387	23156.55
506.59	23189.32
506.793	23770.94
506.996	23756.61
507.198	24358.71
507.401	24100.67
507.604	24598.32
507.807	25108.27
508.009	25120.56
508.212	25210.67
508.415	25915.17
508.617	26244.89
508.82	25962.27
509.022	25706.27
509.225	26480.41
509.428	26828.56
509.63	26826.51
509.833	27080.46
510.035	28006.14
510.238	27617.03
510.44	28307.19
510.643	28671.73
510.845	28860.15
511.048	28774.13
511.25	29138.67
511.453	29476.58
511.655	30578.39
511.858	30230.24
512.06	30330.59
512.262	30478.04
512.465	30723.8
512.667	31383.24
512.87	31688.39
513.072	31936.2
513.274	32272.06
513.477	32337.6
513.679	33007.28
513.881	33457.84
514.084	33621.67
514.286	33347.25
514.488	33752.74
514.69	34844.31
514.893	34729.62
515.095	35389.07
515.297	35198.61
515.499	35307.15
515.701	35966.6
515.904	36411.01
516.106	36314.75
516.308	36963.96
516.51	37316.21
516.712	37199.48
516.914	38135.4
517.116	38635.1
517.318	38022.76
517.52	38637.15
517.722	39243.35
517.925	39382.61
518.127	39804.49
518.329	40425.03
518.531	39906.89
518.733	41016.89
518.935	41033.27
519.136	41156.15
519.338	41817.64
519.54	42114.6
519.742	42434.08
519.944	42536.48
520.146	43292.18
520.348	43562.51
520.55	43515.41
520.752	44006.92
520.954	44736
521.155	44234.25
521.357	45043.2
521.559	45430.26
521.761	46464.49
521.963	46011.88
522.164	46409.19
522.366	46360.04
522.568	46978.53
522.77	46716.39
522.971	47908.3
523.173	47832.53
523.375	47824.34
523.576	47797.71
523.778	47900.11
523.98	48403.91
524.181	49049.02
524.383	49124.8
524.584	49657.27
524.786	49786.29
524.988	49483.19
525.189	50126.25
525.391	50554.28
525.592	50656.68
525.794	51295.64
525.995	51060.13
526.197	50736.55
526.398	51387.8
526.6	51733.91
526.801	51936.66
527.003	52086.16
527.204	52321.68
527.406	52282.76
527.607	52819.33
527.808	53171.58
528.01	52262.29
528.211	52663.69
528.412	53710.2
528.614	53384.57
528.815	53247.36
529.016	54072.69
529.218	53382.52
529.419	53990.77
529.62	54011.25
529.822	54218.1
530.023	53912.95
530.224	54228.34
530.425	54513
530.626	54205.81
530.828	53886.32
531.029	55225.7
531.23	54287.73
531.431	55020.9
531.632	54834.53
531.833	54965.6
532.035	55407.97
532.236	55270.75
532.437	54951.27
532.638	55299.42
532.839	55477.6
533.04	55369.05
533.241	54781.29
533.442	55827.8
533.643	55604.57
533.844	55520.6
534.045	55534.94
534.246	54918.5
534.447	55809.37
534.648	55422.3
534.849	55383.39
535.05	55496.03
535.251	55704.92
535.451	55553.37
535.652	55778.65
535.853	55807.32
536.054	56278.35
536.255	56018.26
536.456	55545.18
536.657	56399.18
536.857	55696.73
537.058	55629.15
537.259	55901.53
537.46	55817.56
537.66	55983.44
537.861	56016.21
538.062	55823.7
538.263	56186.19
538.463	55643.48
538.664	55356.77
538.865	55762.26
539.065	56063.32
539.266	54828.39
539.466	55766.36
539.667	55410.01
539.868	56171.86
540.068	55340.38
540.269	55539.04
540.469	55831.89
540.67	55467.36
540.87	55364.96
541.071	55731.54
541.271	55835.99
541.472	55381.34
541.672	55571.8
541.873	55455.07
542.073	54996.32
542.274	55913.81
542.474	55635.29
542.675	55170.4
542.875	55532.89
543.075	55274.85
543.276	54639.98
543.476	55885.14
543.676	55221.6
543.877	55496.03
544.077	55676.25
544.277	55616.86
544.478	55303.52
544.678	55170.4
544.878	55407.97
545.078	55520.6
545.279	55117.15
545.479	55242.08
545.679	55135.59
545.879	55549.28
546.079	55160.16
546.28	55242.08
546.48	54861.16
546.68	55356.77
546.88	55471.45
547.08	54609.26
547.28	55102.82
547.48	54771.05
547.68	55348.57
547.88	54515.05
548.081	55223.65
548.281	55047.52
548.481	54697.32
548.681	55268.7
548.881	54955.36
549.081	55334.24
549.28	55057.76
549.48	55207.26
549.68	54945.12
549.88	55682.39
550.08	54855.01
550.28	55201.12
550.48	54607.21
550.68	55197.02
550.88	54433.13
551.08	54445.42
551.279	55045.47
551.479	54257.01
551.679	54742.38
551.879	54578.54
552.079	55080.29
552.278	54721.9
552.478	54775.14
552.678	54590.83
552.878	54764.9
553.077	54781.29
553.277	54175.09
553.477	55272.8
553.676	54517.1
553.876	54463.85
554.076	54515.05
554.275	54011.25
554.475	53960.05
554.674	54443.37
554.874	54949.22
555.074	54160.75
555.273	54541.67
555.473	54715.75
555.672	53941.62
555.872	53747.06
556.071	54095.22
556.271	54361.45
556.47	54080.88
556.67	53677.43
556.869	53751.16
557.068	54183.28
557.268	53615.99
557.467	53540.22
557.667	53552.51
557.866	53708.15
558.065	53372.28
558.265	52931.97
558.464	52925.83
558.663	53894.52
558.863	52796.81
559.062	53933.43
559.261	53065.09
559.461	53411.2
559.66	52540.81
559.859	52903.3
560.058	52768.13
560.258	52923.78
560.457	52432.27
560.656	52696.45
560.855	52262.29
561.054	52477.32
561.253	52065.68
561.453	52108.69
561.652	52168.08
561.851	52350.35
562.05	51989.91
562.249	51555.74
562.448	52520.33
562.647	51953.04
562.846	51717.53
563.045	51473.82
563.244	51367.32
563.443	51785.11
563.642	50922.91
563.841	51932.56
564.04	51246.49
564.239	51383.71
564.438	50802.08
564.637	50992.54
564.836	51350.94
565.035	50417.07
565.234	51041.7
565.432	50290.09
565.631	50449.83
565.83	50302.38
566.029	50212.27
566.228	49913.27
566.427	49999.28
566.625	49427.9
566.824	49169.85
567.023	49798.58
567.222	48815.55
567.42	50050.48
567.619	49167.8
567.818	49126.85
568.016	49143.23
568.215	49489.34
568.414	48864.71
568.612	49628.6
568.811	48979.39
569.01	48573.89
569.208	48022.99
569.407	48469.45
569.605	48094.67
569.804	48307.66
570.002	47685.08
570.201	48195.02
570.4	47357.4
570.598	47564.24
570.797	47320.54
570.995	47625.68
571.193	47445.46
571.392	47785.43
571.59	46579.17
571.789	46896.61
571.987	46661.09
572.186	46984.67
572.384	46675.43
572.582	46722.53
572.781	46882.27
572.979	45970.93
573.177	46097.9
573.376	45870.57
573.574	45813.23
573.772	45962.73
573.971	45041.15
574.169	45909.49
574.367	45080.06
574.565	45489.65
574.763	45137.4
574.962	45241.85
575.16	44475.91
575.358	44867.07
575.556	44291.59
575.754	45157.88
575.952	44260.87
576.151	44609.03
576.349	44097.03
576.547	44389.89
576.745	44178.95
576.943	44051.98
577.141	44109.32
577.339	43978.25
577.537	43812.37
577.735	43683.34
577.933	43552.27
578.131	43648.53
578.329	42970.65
578.527	43154.97
578.725	42798.62
578.923	42923.55
579.121	42647.07
579.319	42747.42
579.516	42821.15
579.714	42614.3
579.912	42470.95
580.11	42055.21
580.308	42305.06
580.506	42036.78
580.704	41342.52
580.901	41528.88
581.099	41842.22
581.297	41350.71
581.495	41213.49
581.692	41272.88
581.89	41090.62
582.088	41584.18
582.285	40932.92
582.483	41025.08
582.681	40902.2
582.878	40656.45
583.076	40631.87
583.274	40580.67
583.471	39894.6
583.669	40488.51
583.866	40021.58
584.064	40062.54
584.262	39693.9
584.459	40179.27
584.657	39888.46
584.854	40058.44
585.052	38862.43
585.249	39728.72
585.447	39374.42
585.644	39161.43
585.841	39143
586.039	39259.73
586.236	38790.75
586.434	38813.27
586.631	38403.68
586.828	38714.97
587.026	38483.55
587.223	38395.49
587.42	38178.4
587.618	38252.13
587.815	37705.32
588.012	37760.62
588.21	37668.46
588.407	38268.51
588.604	37758.57
588.801	37312.11
588.999	37236.34
589.196	37105.27
589.393	37387.89
589.59	37017.21
589.787	37256.82
589.984	36757.11
590.182	36570.75
590.379	36638.33
590.576	36585.08
590.773	36572.8
590.97	36271.75
591.167	36314.75
591.364	36234.88
591.561	36296.32
591.758	35651.21
591.955	35700.36
592.152	36230.79
592.349	35548.81
592.546	35571.34
592.743	35323.54
592.94	34977.43
593.137	35444.37
593.334	35489.42
593.531	34598.55
593.727	35028.63
593.924	35206.8
594.121	34672.28
594.318	34770.58
594.515	34004.64
594.712	34829.98
594.908	34428.57
595.105	34524.83
595.302	34059.94
595.499	34348.7
595.696	33892.01
595.892	33750.7
596.089	33965.73
596.286	33896.1
596.482	33283.76
596.679	33509.04
596.876	33521.32
597.072	33349.29
597.269	33265.33
597.466	32820.92
597.662	32775.86
597.859	32980.66
598.055	32970.42
598.252	32333.5
598.448	32904.88
598.645	32691.9
598.841	31905.48
599.038	32059.07
599.234	32499.39
599.431	31835.84
599.627	32274.11
599.824	31968.96
600.02	31909.57
600.217	31784.65
600.413	31387.34
600.609	31536.84
600.806	31166.16
601.002	31452.87
601.198	31297.23
601.395	31045.33
601.591	31090.38
601.787	31182.54
601.984	31178.45
602.18	31188.69
602.376	30789.33
602.572	30314.2
602.769	30396.12
602.965	30195.42
603.161	30480.09
603.357	29935.33
603.553	30279.39
603.75	30009.06
603.946	29701.86
604.142	29875.94
604.338	29712.1
604.534	29972.19
604.73	29751.01
604.926	29433.58
605.122	29630.18
605.318	29206.25
605.514	29222.64
605.71	29097.71
605.906	29294.32
606.102	28987.12
606.298	29062.9
606.494	28968.69
606.69	28980.98
606.886	29064.94
607.082	28583.67
607.278	28737.27
607.474	28112.64
607.67	28653.3
607.866	28055.29
608.062	28593.91
608.257	28419.83
608.453	28180.22
608.649	28176.12
608.845	27913.98
609.041	27895.55
609.236	27985.66
609.432	27889.41
609.628	28012.29
609.824	27721.48
610.019	27649.8
610.215	27637.51
610.411	27877.12
610.606	27401.99
610.802	27262.73
610.998	27207.44
611.193	27346.7
611.389	27102.99
611.584	26806.03
611.78	26908.43
611.976	27137.8
612.171	27010.83
612.367	26834.71
612.562	27049.74
612.758	26328.86
612.953	26378.01
613.149	26818.32
613.344	26380.06
613.539	27064.08
613.735	26627.86
613.93	26373.91
614.126	26228.51
614.321	26586.9
614.517	26578.71
614.712	26300.19
614.907	25749.28
615.103	26427.16
615.298	26265.37
615.493	26226.46
615.688	25689.89
615.884	26382.1
616.079	25693.99
616.274	26070.81
616.47	25900.83
616.665	25741.09
616.86	25597.73
617.055	25728.8
617.25	25515.81
617.445	25648.93
617.641	25151.27
617.836	25476.9
618.031	25059.12
618.226	25333.54
618.421	25001.77
618.616	25300.78
618.811	24708.91
619.006	25130.8
619.201	24590.13
619.396	24887.09
619.591	24315.7
619.786	24747.83
619.981	24135.48
620.176	24553.27
620.371	24201.02
620.566	24287.03
620.761	23875.39
620.956	24407.86
621.151	23396.17
621.346	23867.2
621.541	23514.95
621.735	23719.74
621.93	23170.89
622.125	23318.34
622.32	23224.14
622.515	23252.81
622.709	22650.71
622.904	22781.78
623.099	22775.63
623.294	22720.34
623.488	22081.37
623.683	22454.1
623.878	22320.98
624.072	21735.26
624.267	21935.96
624.462	21892.96
624.656	21841.76
624.851	21708.64
625.046	21192.55
625.24	21243.75
625.435	21305.19
625.629	20801.39
625.824	20946.8
626.018	20787.05
626.213	20379.51
626.407	20561.78
626.602	20330.36
626.796	20492.15
626.991	20377.46
627.185	20213.62
627.38	20275.06
627.574	19969.91
627.768	19804.03
627.963	19572.61
628.157	19810.17
628.352	19629.95
628.546	19378.05
628.74	19451.78
628.935	19214.21
629.129	19316.61
629.323	18904.97
629.517	18970.51
629.712	19105.67
629.906	18792.33
630.1	18737.04
630.294	18769.8
630.489	18534.29
630.683	18700.17
630.877	18169.75
631.071	18188.18
631.265	18360.21
631.459	18085.78
631.653	18112.41
631.848	18061.21
632.042	17721.24
632.236	17805.21
632.43	17653.66
632.624	17735.58
632.818	17524.64
633.012	17047.46
633.206	17358.75
633.4	17131.43
633.594	16871.34
633.788	17186.72
633.982	17123.24
634.176	16730.03
634.369	16732.08
634.563	16510.89
634.757	16676.78
634.951	16607.15
635.145	16451.5
635.339	16111.54
635.533	16080.82
635.726	16093.11
635.92	15687.61
636.114	15986.61
636.308	15798.2
636.501	15929.27
636.695	15945.66
636.889	15429.57
637.083	15626.17
637.276	15343.55
637.47	15161.28
637.664	15198.15
637.857	15103.94
638.051	15075.27
638.244	15126.47
638.438	15028.17
638.632	14880.71
638.825	14614.48
639.019	14639.05
639.212	14598.09
639.406	14196.69
639.599	14526.41
639.793	14419.92
639.986	14286.8
640.18	14219.22
640.373	14192.59
640.567	14251.99
640.76	14157.78
640.954	13873.11
641.147	13742.04
641.34	13676.51
641.534	13684.7
641.727	13723.61
641.92	13481.95
642.114	13504.48
642.307	13268.96
642.5	13424.61
642.694	12906.47
642.887	13219.81
643.08	13225.95
643.273	13017.06
643.467	13080.55
643.66	13068.26
643.853	12926.95
644.046	12662.76
644.239	12836.84
644.432	12574.7
644.626	12492.78
644.819	12378.09
645.012	12568.55
645.205	12582.89
645.398	12318.7
645.591	12142.58
645.784	11974.64
645.977	11839.48
646.17	12056.56
646.363	11886.58
646.556	11669.5
646.749	11782.13
646.942	11794.42
647.135	11753.46
647.328	11755.51
647.521	11519.99
647.714	11528.19
647.907	11610.11
648.099	11614.2
648.292	11493.37
648.485	11319.29
648.678	11114.5
648.871	11065.35
649.064	10854.41
649.256	11137.02
649.449	11014.15
649.642	10995.71
649.835	10770.44
650.027	10719.24
650.22	10459.15
650.413	10809.35
650.605	10721.29
650.798	10893.32
650.991	10524.68
651.183	10387.47
651.376	10512.39
651.568	10356.75
651.761	10201.1
651.954	10223.63
652.146	10244.11
652.339	10270.73
652.531	10176.53
652.724	10043.41
652.916	9848.85
653.109	9969.68
653.301	10160.14
653.494	9877.52
653.686	9705.49
653.879	9811.99
654.071	9689.11
654.263	9619.48
654.456	9637.91
654.648	9564.18
654.84	9543.71
655.033	9525.27
655.225	9459.74
655.417	9392.16
655.61	9320.48
655.802	9119.78
655.994	9353.24
656.186	9289.76
656.379	9084.96
656.571	9078.82
656.763	8874.02
656.955	8968.23
657.148	8919.07
657.34	8949.79
657.532	8892.45
657.724	8802.34
657.916	8609.83
658.108	8640.55
658.3	8706.09
658.492	8732.71
658.684	8583.21
658.876	8427.56
659.068	8435.75
659.26	8466.47
659.452	8536.1
659.644	8523.82
659.836	8286.25
660.028	8261.68
660.22	8067.12
660.412	8106.03
660.604	8130.61
660.796	8187.95
660.988	8026.16
661.18	8220.72
661.372	7880.75
661.563	8075.31
661.755	7794.74
661.947	7938.1
662.139	7790.64
662.331	7714.87
662.522	7688.25
662.714	7831.6
662.906	7548.98
663.097	7659.57
663.289	7700.53
663.481	7540.79
663.673	7538.74
663.864	7471.16
664.056	7462.97
664.247	7399.48
664.439	7348.28
664.631	7258.17
664.822	7174.21
665.014	7217.21
665.205	7184.45
665.397	7282.75
665.588	7315.52
665.78	7034.94
665.971	7082.05
666.163	7032.9
666.354	7090.24
666.546	7082.05
666.737	7000.13
666.929	6729.8
667.12	6965.31
667.311	6899.78
667.503	6805.57
667.694	6873.15
667.885	6766.66
668.077	6744.13
668.268	6496.33
668.459	6617.16
668.651	6572.1
668.842	6639.69
669.033	6611.01
669.224	6684.74
669.416	6660.17
669.607	6371.4
669.798	6340.68
669.989	6502.47
670.18	6590.53
670.371	6416.46
670.563	6324.3
670.754	6463.56
670.945	6424.65
671.136	6371.4
671.327	6398.03
671.518	6303.82
671.709	6385.74
671.9	6340.68
672.091	6383.69
672.282	6295.63
672.473	6250.57
672.664	6123.6
672.855	6121.55
673.046	6135.89
673.237	6113.36
673.428	6213.71
673.619	6013.01
673.809	5941.33
674	6017.1
674.191	6080.59
674.382	6035.53
674.573	6033.49
674.764	5945.42
674.954	6109.26
675.145	5896.27
675.336	5978.19
675.527	5830.74
675.717	5847.12
675.908	5865.55
676.099	5716.05
676.289	5843.03
676.48	5763.15
676.671	5752.91
676.861	5722.2
677.052	5697.62
677.243	5724.24
677.433	5662.8
677.624	5929.04
677.814	5646.42
678.005	5681.24
678.195	5832.79
678.386	5722.2
678.576	5752.91
678.767	5654.61
678.957	5701.72
679.148	5703.76
679.338	5800.02
679.529	5484.63
679.719	5574.74
679.909	5728.34
680.1	5613.65
680.29	5554.26
680.481	5621.84
680.671	5507.16
680.861	5683.28
681.052	5574.74
681.242	5490.77
681.432	5589.08
681.622	5560.41
681.813	5431.38
682.003	5470.3
682.193	5505.11
682.383	5453.91
682.573	5464.15
682.764	5425.24
682.954	5460.06
683.144	5513.3
683.334	5451.86
683.524	5247.07
683.714	5361.75
683.904	5339.23
684.094	5328.99
684.284	5517.4
684.474	5361.75
684.664	5431.38
684.854	5412.95
685.044	5216.35
685.234	5281.88
685.424	5288.03
685.614	5197.92
685.804	5173.34
685.994	5144.67
686.184	5138.52
686.374	5288.03
686.564	5232.73
686.753	4978.78
686.943	5070.94
687.133	5175.39
687.323	5058.65
687.513	5126.24
687.702	5009.5
687.892	5027.93
688.082	4845.66
688.272	4946.02
688.461	4900.96
688.651	4997.21
688.841	4745.31
689.03	4829.28
689.22	4773.99
689.41	4673.64
689.599	4751.46
689.789	4694.12
689.979	4665.44
690.168	4706.4
690.358	4632.68
690.547	4730.98
690.737	4606.05
690.926	4657.25
691.116	4569.19
691.305	4640.87
691.495	4622.44
691.684	4610.15
691.874	4558.95
692.063	4442.21
692.252	4524.13
692.442	4601.96
692.631	4378.73
692.82	4413.54
693.01	4350.06
693.199	4393.06
693.388	4300.91
693.578	4352.1
693.767	4214.89
693.956	4302.95
694.146	4286.57
694.335	4302.95
694.524	4214.89
694.713	4298.86
694.902	3981.42
695.092	4221.03
695.281	4339.82
695.47	4223.08
695.659	4141.16
695.848	4057.2
696.037	4221.03
696.226	3979.37
696.415	4102.25
696.604	4067.44
696.793	4196.46
696.982	4069.48
697.171	4100.2
697.36	4104.3
697.549	3944.56
697.738	3987.57
697.927	4024.43
698.116	4096.11
698.305	3862.64
698.494	4014.19
698.683	3960.94
698.872	4075.63
699.061	4083.82
699.25	4030.57
699.438	4032.62
699.627	3922.03
699.816	4075.63
700.005	3844.21
700.193	3883.12
700.382	4059.24
700.571	3922.03
700.76	3948.65
700.948	3999.85
701.137	3915.89
701.326	4069.48
701.514	3905.65
701.703	3991.66
701.892	3881.07
702.08	3876.98
702.269	3885.17
702.457	3790.96
702.646	3922.03
702.834	3926.13
703.023	3991.66
703.212	3876.98
703.4	3917.93
703.589	3838.06
703.777	3862.64
703.965	3911.79
704.154	3917.93
704.342	3833.97
704.531	3754.1
704.719	3991.66
704.907	4067.44
705.096	3680.37
705.284	3817.58
705.472	3784.82
705.661	4014.19
705.849	3805.3
706.037	3919.98
706.226	3819.63
706.414	3774.58
706.602	3895.41
706.79	3745.91
706.979	3782.77
707.167	3795.06
707.355	3768.43
707.543	3899.5
707.731	3846.26
707.919	3813.49
708.107	3876.98
708.296	3696.75
708.484	3731.57
708.672	3723.38
708.86	3926.13
709.048	3958.89
709.236	3842.16
709.424	3784.82
709.612	3823.73
709.8	3838.06
709.988	3778.67
710.176	3829.87
710.364	3862.64
710.551	3868.78
710.739	3766.39
710.927	3836.02
711.115	3762.29
711.303	3930.22
711.491	3776.63
711.679	3895.41
711.866	3772.53
712.054	3917.93
712.242	3829.87
712.43	3938.41
712.617	3844.21
712.805	3651.7
712.993	3858.54
713.181	3803.25
713.368	3932.27
713.556	3840.11
713.744	3688.56
713.931	3926.13
714.119	3817.58
714.306	3737.71
714.494	3889.26
714.682	3936.37
714.869	3768.43
715.057	3885.17
715.244	3850.35
715.432	3977.33
715.619	3954.8
715.807	3838.06
715.994	3876.98
716.182	3790.96
716.369	3844.21
716.556	3913.84
716.744	3719.28
716.931	3909.74
717.119	3838.06
717.306	3889.26
717.493	3893.36
717.681	3811.44
717.868	3850.35
718.055	4028.53
718.242	3969.13
718.43	3913.84
718.617	3758.19
718.804	4020.33
718.991	3881.07
719.179	3770.48
719.366	3799.15
719.553	3876.98
719.74	3897.46
719.927	3909.74
720.114	3932.27
720.301	3809.39
720.488	3954.8
720.676	3809.39
720.863	3946.61
721.05	3852.4
721.237	3831.92
721.424	3838.06
721.611	3897.46
721.798	3852.4
721.985	3729.52
722.172	3981.42
722.358	3827.82
722.545	3993.71
722.732	3770.48
722.919	3928.17
723.106	3885.17
723.293	4069.48
723.48	3887.22
723.667	3885.17
723.853	3987.57
724.04	3883.12
724.227	3977.33
724.414	4022.38
724.6	3874.93
724.787	4049
724.974	3942.51
725.161	3979.37
725.347	3977.33
725.534	3940.46
725.72	3870.83
725.907	3874.93
726.094	4071.53
726.28	3829.87
726.467	3823.73
726.653	3909.74
726.84	3913.84
727.027	3831.92
727.213	3936.37
727.4	3954.8
727.586	4092.01
727.773	4032.62
727.959	4012.14
728.145	3930.22
728.332	3967.09
728.518	4081.77
728.705	3926.13
728.891	3917.93
729.077	3987.57
729.264	4055.15
729.45	3848.3
729.636	4036.72
729.823	3846.26
730.009	4024.43
730.195	3895.41
730.382	4173.93
730.568	3969.13
730.754	4003.95
730.94	4073.58
731.126	4044.91
731.313	4001.9
731.499	3928.17
731.685	3995.76
731.871	4120.68
732.057	3958.89
732.243	4057.2
732.429	4026.48
732.615	4046.96
732.801	3950.7
732.987	4032.62
733.173	3911.79
733.359	3981.42
733.545	3997.81
733.731	4073.58
733.917	4067.44
734.103	3907.7
734.289	4028.53
734.475	4008.05
734.661	4122.73
734.847	4030.57
735.033	3985.52
735.219	4120.68
735.404	3993.71
735.59	4139.12
735.776	3989.61
735.962	4251.75
736.148	4092.01
736.333	4114.54
736.519	4012.14
736.705	4040.81
736.89	4223.08
737.076	4063.34
737.262	4075.63
737.447	3844.21
737.633	3870.83
737.819	3973.23
738.004	4020.33
738.19	4032.62
738.375	3887.22
738.561	4077.68
738.747	3887.22
738.932	3973.23
739.118	4001.9
739.303	3969.13
739.489	3889.26
739.674	4040.81
739.859	3823.73
740.045	3879.02
740.23	3934.32
740.416	3768.43
740.601	3747.95
740.786	3891.31
740.972	3840.11
741.157	3879.02
741.342	3782.77
741.528	3932.27
741.713	3930.22
741.898	3893.36
742.084	3842.16
742.269	3881.07
742.454	3801.2
742.639	3772.53
742.824	3786.86
743.01	3844.21
743.195	3870.83
743.38	3809.39
743.565	3768.43
743.75	3756.15
743.935	3758.19
744.12	3768.43
744.305	3786.86
744.49	3676.27
744.675	3596.4
744.86	3698.8
745.045	3653.75
745.23	3592.31
745.415	3586.16
745.6	3553.4
745.785	3653.75
745.97	3559.54
746.155	3657.84
746.34	3537.01
746.525	3502.2
746.71	3555.44
746.895	3506.29
747.079	3475.57
747.264	3338.36
747.449	3577.97
747.634	3457.14
747.819	3369.08
748.003	3369.08
748.188	3426.42
748.373	3383.42
748.557	3274.87
748.742	3313.78
748.927	3309.69
749.111	3307.64
749.296	3385.46
749.481	3268.73
749.665	3154.04
749.85	3141.75
750.034	3090.56
750.219	3190.91
750.404	3119.23
750.588	3172.47
750.773	3059.84
750.957	3072.12
751.141	3057.79
751.326	3104.89
751.51	2865.28
751.695	2982.01
751.879	3045.5
752.064	2998.4
752.248	3086.46
752.432	2998.4
752.617	2922.62
752.801	2934.91
752.985	2836.61
753.17	2881.66
753.354	2863.23
753.538	2906.24
753.722	2652.29
753.907	2760.83
754.091	2719.87
754.275	2793.6
754.459	2746.5
754.643	2625.67
754.828	2756.74
755.012	2678.91
755.196	2642.05
755.38	2662.53
755.564	2586.76
755.748	2414.73
755.932	2553.99
756.116	2586.76
756.3	2463.88
756.484	2508.93
756.668	2605.19
756.852	2545.8
757.036	2470.02
757.22	2486.4
757.404	2435.21
757.588	2375.81
757.772	2472.07
757.956	2377.86
758.14	2470.02
758.323	2261.13
758.507	2371.72
758.691	2359.43
758.875	2285.7
759.059	2291.85
759.242	2338.95
759.426	2191.5
759.61	2271.37
759.794	2160.78
759.977	2166.92
760.161	2302.09
760.345	2259.08
760.528	2218.12
760.712	2250.89
760.895	2207.88
761.079	2224.26
761.263	2099.34
761.446	2095.24
761.63	2138.25
761.813	2146.44
761.997	2037.9
762.18	2048.14
762.364	2121.87
762.547	1939.6
762.731	2105.48
762.914	2058.38
763.098	2064.52
763.281	2080.91
763.464	2037.9
763.648	2056.33
763.831	2093.19
764.015	2070.67
764.198	2001.04
764.381	1894.54
764.564	1976.46
764.748	2021.52
764.931	1988.75
765.114	2031.76
765.297	1929.36
765.481	1910.93
765.664	1847.44
765.847	1886.35
766.03	1906.83
766.213	1863.82
766.397	1894.54
766.58	1851.53
766.763	1904.78
766.946	1763.47
767.129	1802.38
767.312	1826.96
767.495	1835.15
767.678	1769.62
767.861	1790.1
768.044	1831.05
768.227	1933.45
768.41	1648.79
768.593	1810.58
768.776	1761.42
768.959	1783.95
769.142	1804.43
769.324	1749.14
769.507	1734.8
769.69	1673.36
769.873	1681.55
770.056	1769.62
770.239	1687.7
770.421	1759.38
770.604	1669.27
770.787	1769.62
770.97	1779.86
771.152	1630.35
771.335	1626.26
771.518	1640.59
771.7	1585.3
771.883	1710.22
772.066	1593.49
772.248	1675.41
772.431	1597.59
772.613	1552.53
772.796	1591.44
772.978	1540.24
773.161	1527.96
773.343	1542.29
773.526	1415.32
773.708	1403.03
773.891	1333.4
774.073	1487
774.256	1564.82
774.438	1536.15
774.621	1417.37
774.803	1425.56
774.985	1390.74
775.168	1495.19
775.35	1462.42
775.532	1314.97
775.715	1302.68
775.897	1517.72
776.079	1413.27
776.261	1319.06
776.444	1355.93
776.626	1161.37
776.808	1319.06
776.99	1274.01
777.173	1347.73
777.355	1382.55
777.537	1263.77
777.719	1208.47
777.901	1300.63
778.083	1280.15
778.265	1224.86
778.447	1310.87
778.629	1312.92
778.811	1222.81
778.993	1284.25
779.175	1280.15
779.357	1204.38
779.539	1122.46
779.721	1231
779.903	1237.14
780.085	1222.81
780.267	1089.69
780.449	1171.61
780.631	1085.59
780.812	1218.71
780.994	1165.46
781.176	1077.4
781.358	1067.16
781.54	1087.64
781.721	1093.79
781.903	1112.22
782.085	1011.87
782.267	1056.92
782.448	972.96
782.63	1097.88
782.812	962.72
782.993	934.04
783.175	1020.06
783.357	901.28
783.538	886.94
783.72	940.19
783.901	1046.68
784.083	925.85
784.264	907.42
784.446	942.24
784.627	893.09
784.809	964.76
784.99	925.85
785.172	905.37
785.353	815.26
785.535	880.8
785.716	864.41
785.897	819.36
786.079	854.17
786.26	839.84
786.441	870.56
786.623	821.41
786.804	860.32
786.985	909.47
787.167	923.8
787.348	823.45
787.529	858.27
787.71	905.37
787.891	835.74
788.073	823.45
788.254	727.2
788.435	854.17
788.616	831.65
788.797	784.54
788.978	737.44
789.159	696.48
789.34	807.07
789.522	755.87
789.703	622.75
789.884	759.97
790.065	776.35
790.246	796.83
790.427	786.59
790.607	755.87
790.788	708.77
790.969	643.23
791.15	719.01
791.331	663.71
791.512	708.77
791.693	721.06
791.874	620.71
792.054	751.78
792.235	741.54
792.416	637.09
792.597	551.07
792.778	723.1
792.958	637.09
793.139	628.9
793.32	641.18
793.5	622.75
793.681	583.84
793.862	657.57
794.042	616.61
794.223	585.89
794.404	661.66
794.584	667.81
794.765	544.93
794.945	557.22
795.126	651.42
795.306	665.76
795.487	503.97
795.667	475.3
795.848	528.55
796.028	577.7
796.209	520.35
796.389	581.79
796.57	508.07
796.75	565.41
796.93	458.92
797.111	420
797.291	555.17
797.471	581.79
797.652	571.55
797.832	499.88
798.012	526.5
798.192	481.44
798.373	503.97
798.553	477.35
798.733	585.89
798.913	481.44
799.093	479.4
799.274	465.06
799.454	456.87
799.634	399.52
799.814	508.07
799.994	569.51
800.174	479.4
800.354	458.92
800.534	442.53
800.714	499.88
800.894	506.02
801.074	481.44
801.254	503.97
801.434	487.59
801.614	430.24
801.794	448.68
801.974	1175.7
802.154	397.48
802.334	446.63
802.514	346.28
802.693	460.96
802.873	463.01
803.053	530.59
803.233	448.68
803.413	456.87
803.592	503.97
803.772	438.44
803.952	346.28
804.131	377
804.311	458.92
804.491	477.35
804.67	432.29
804.85	383.14
805.03	426.15
805.209	493.73
805.389	405.67
805.568	323.75
805.748	387.24
805.928	422.05
806.107	473.25
806.287	389.28
806.466	358.57
806.646	331.94
806.825	354.47
807.004	401.57
807.184	354.47
807.363	329.89
807.543	370.85
807.722	358.57
807.901	321.7
808.081	387.24
808.26	315.56
808.439	372.9
808.619	346.28
808.798	387.24
808.977	432.29
809.156	387.24
809.336	286.89
809.515	385.19
809.694	280.74
809.873	278.69
810.052	374.95
810.231	434.34
810.411	290.98
810.59	395.43
810.769	350.37
810.948	307.37
811.127	297.13
811.306	325.8
811.485	278.69
811.664	362.66
811.843	346.28
812.022	264.36
812.201	321.7
812.38	217.26
812.559	192.68
812.737	387.24
812.916	223.4
813.095	196.78
813.274	333.99
813.453	303.27
813.632	381.09
813.811	280.74
813.989	276.65
814.168	315.56
814.347	227.5
814.526	284.84
814.704	364.71
814.883	282.79
815.062	313.51
815.24	305.32
815.419	229.54
815.598	342.18
815.776	237.74
815.955	305.32
816.133	243.88
816.312	282.79
816.49	233.64
816.669	278.69
816.847	182.44
817.026	239.78
817.204	252.07
817.383	340.13
817.561	266.41
817.74	219.3
817.918	256.17
818.097	243.88
818.275	209.06
818.453	256.17
818.632	319.65
818.81	266.41
818.988	186.54
819.167	180.39
819.345	182.44
819.523	266.41
819.701	239.78
819.879	284.84
820.058	284.84
820.236	213.16
820.414	297.13
820.592	217.26
820.77	252.07
820.948	196.78
821.127	227.5
821.305	235.69
821.483	184.49
821.661	241.83
821.839	184.49
822.017	198.82
822.195	247.97
822.373	209.06
822.551	231.59
822.729	288.93
822.907	176.3
823.085	231.59
823.262	243.88
823.44	254.12
823.618	159.91
823.796	221.35
823.974	245.93
824.152	143.53
824.329	127.14
824.507	235.69
824.685	196.78
824.863	147.62
825.04	225.45
825.218	211.11
825.396	155.82
825.574	196.78
825.751	237.74
825.929	233.64
826.107	121
826.284	194.73
826.462	219.3
826.639	192.68
826.817	137.38
826.994	174.25
827.172	182.44
827.349	307.37
827.527	213.16
827.704	161.96
827.882	217.26
828.059	190.63
828.237	141.48
828.414	227.5
828.591	141.48
828.769	235.69
828.946	147.62
829.124	155.82
829.301	256.17
829.478	157.86
829.655	204.97
829.833	153.77
830.01	151.72
830.187	221.35
830.364	149.67
830.542	110.76
830.719	270.5
830.896	137.38
831.073	133.29
831.25	188.58
831.427	231.59
831.604	200.87
831.782	53.42
831.959	172.2
832.136	84.14
832.313	221.35
832.49	135.34
832.667	153.77
832.844	133.29
833.021	186.54
833.198	170.15
833.374	131.24
833.551	135.34
833.728	96.43
833.905	233.64
834.082	67.75
834.259	178.34
834.436	155.82
834.612	110.76
834.789	153.77
834.966	133.29
835.143	221.35
835.319	219.3
835.496	184.49
835.673	174.25
835.85	207.02
836.026	192.68
836.203	102.57
836.38	143.53
836.556	112.81
836.733	69.8
836.909	170.15
837.086	139.43
837.262	82.09
837.439	149.67
837.616	77.99
837.792	149.67
837.968	213.16
838.145	59.56
838.321	57.51
838.498	159.91
838.674	159.91
838.851	116.9
839.027	104.62
839.203	137.38
839.38	194.73
839.556	127.14
839.732	121
839.909	94.38
840.085	182.44
840.261	116.9
840.437	159.91
840.614	153.77
840.79	190.63
840.966	133.29
841.142	141.48
841.318	102.57
841.494	112.81
841.671	88.23
841.847	80.04
842.023	141.48
842.199	88.23
842.375	182.44
842.551	51.37
842.727	98.47
842.903	155.82
843.079	47.27
843.255	108.71
843.431	53.42
843.607	49.32
843.783	75.95
843.959	176.3
844.134	86.19
844.31	151.72
844.486	108.71
844.662	88.23
844.838	110.76
845.013	178.34
845.189	121
845.365	127.14
845.541	108.71
845.716	98.47
845.892	92.33
846.068	2.22
846.244	80.04
846.419	118.95
846.595	22.7
846.77	80.04
846.946	53.42
847.122	59.56
847.297	114.86
847.473	168.1
847.648	59.56
847.824	90.28
847.999	118.95
848.175	55.47
848.35	75.95
848.526	96.43
848.701	53.42
848.876	77.99
849.052	88.23
849.227	73.9
849.403	129.19
849.578	94.38
849.753	57.51
849.929	125.1
850.104	49.32
850.279	96.43
850.454	84.14
850.63	112.81
850.805	-3.93
850.98	114.86
851.155	108.71
851.33	51.37
851.505	49.32
851.681	118.95
851.856	69.8
852.031	34.99
852.206	118.95
852.381	-12.12
852.556	0.17
852.731	55.47
852.906	57.51
853.081	71.85
853.256	88.23
853.431	82.09
853.606	6.31
853.781	53.42
853.956	32.94
854.131	47.27
854.305	90.28
854.48	67.75
854.655	55.47
854.83	51.37
855.005	30.89
855.18	53.42
855.354	12.46
855.529	65.71
855.704	84.14
855.879	118.95
856.053	123.05
856.228	55.47
856.403	34.99
856.577	71.85
856.752	51.37
856.926	22.7
857.101	32.94
857.276	10.41
857.45	77.99
857.625	39.08
857.799	59.56
857.974	10.41
858.148	32.94
858.323	149.67
858.497	2.22
858.672	-5.97
858.846	2.22
859.02	67.75
859.195	-16.21
859.369	94.38
859.543	94.38
859.718	82.09
859.892	47.27
860.066	-8.02
860.241	69.8
860.415	20.65
860.589	88.23
860.763	53.42
860.938	-22.36
861.112	47.27
861.286	-8.02
861.46	75.95
861.634	47.27
861.808	84.14
861.982	55.47
862.157	16.55
862.331	22.7
862.505	-18.26
862.679	55.47
862.853	-32.6
863.027	61.61
863.201	82.09
863.375	8.36
863.549	88.23
863.722	55.47
863.896	24.75
864.07	108.71
864.244	41.13
864.418	45.23
864.592	39.08
864.766	2.22
864.939	-3.93
865.113	49.32
865.287	73.9
865.461	8.36
865.634	14.51
865.808	4.27
865.982	69.8
866.156	28.84
866.329	-20.31
866.503	57.51
866.676	16.55
866.85	73.9
867.024	6.31
867.197	137.38
867.371	104.62
867.544	-8.02
867.718	26.79
867.891	137.38
868.065	51.37
868.238	-8.02
868.412	102.57
868.585	22.7
868.759	49.32
868.932	-32.6
869.105	57.51
869.279	69.8
869.452	18.6
869.625	28.84
869.799	96.43
869.972	-32.6
870.145	110.76
870.319	55.47
870.492	8.36
870.665	86.19
870.838	71.85
871.011	-83.8
871.185	116.9
871.358	-36.69
871.531	112.81
871.704	-22.36
871.877	98.47
872.05	80.04
872.223	-30.55
872.396	84.14
872.569	-5.97
872.742	-26.45
872.915	-12.12
873.088	57.51
873.261	49.32
873.434	96.43
873.607	12.46
873.78	34.99
873.953	41.13
874.126	37.03
874.299	-18.26
874.471	-5.97
874.644	71.85
874.817	39.08
874.99	67.75
875.163	-8.02
875.335	71.85
875.508	47.27
875.681	94.38
875.853	6.31
876.026	61.61
876.199	65.71
876.371	45.23
876.544	-34.64
876.717	12.46
876.889	-14.17
877.062	43.18
877.234	32.94
877.407	63.66
877.579	30.89
877.752	34.99
877.924	14.51
878.097	26.79
878.269	47.27
878.442	24.75
878.614	22.7
878.786	26.79
878.959	69.8
879.131	4.27
879.303	-26.45
879.476	110.76
879.648	53.42
879.82	43.18
879.993	-55.12
880.165	28.84
880.337	84.14
880.509	0.17
880.681	-10.07
880.854	16.55
881.026	94.38
881.198	18.6
881.37	-3.93
881.542	98.47
881.714	32.94
881.886	-18.26
882.058	16.55
882.23	26.79
882.402	51.37
882.574	67.75
882.746	51.37
882.918	77.99
883.09	30.89
883.262	14.51
883.434	-30.55
883.606	20.65
883.778	18.6
883.95	114.86
884.122	-5.97
884.293	100.52
884.465	77.99
884.637	14.51
884.809	-28.5
884.98	45.23
885.152	34.99
885.324	75.95
885.496	-14.17
885.667	-40.79
885.839	8.36
886.011	32.94
886.182	67.75
886.354	34.99
886.525	65.71
886.697	-10.07
886.869	-55.12
887.04	53.42
887.212	88.23
887.383	86.19
887.555	4.27
887.726	90.28
887.897	39.08
888.069	88.23
888.24	49.32
888.412	106.67
888.583	16.55
888.754	-42.84
888.926	-8.02
889.097	41.13
889.268	-5.97
889.44	41.13
889.611	-1.88
889.782	55.47
889.953	12.46
890.125	32.94
890.296	-5.97
890.467	28.84
890.638	-18.26
890.809	55.47
890.98	16.55
891.151	10.41
891.323	84.14
891.494	43.18
891.665	12.46
891.836	-65.36
892.007	-59.22
892.178	51.37
892.349	20.65
892.52	-51.03
892.691	45.23
892.862	10.41
893.032	6.31
893.203	2.22
893.374	4.27
893.545	26.79
893.716	-5.97
893.887	55.47
894.057	-5.97
894.228	63.66
894.399	-5.97
894.57	57.51
894.74	67.75
894.911	4.27
895.082	-59.22
895.253	-10.07
895.423	80.04
895.594	45.23
895.764	6.31
895.935	-61.27
896.106	-5.97
896.276	-3.93
896.447	0.17
896.617	-44.88
896.788	-36.69
896.958	-22.36
897.129	20.65
897.299	-16.21
897.47	18.6
897.64	0.17
897.81	-8.02
897.981	12.46
898.151	-20.31
898.322	-1.88
898.492	-10.07
898.662	-14.17
898.832	6.31
899.003	37.03
899.173	49.32
899.343	-3.93
899.513	-32.6
