Data from USB4F104151__53__12-24-01-923.txt Node

Date: Fri Mar 14 12:24:01 EDT 2025
User: louis
Spectrometer: USB4F10415
Trigger mode: 4
Integration Time (sec): 3.500000E-2
Scans to average: 1
Electric dark correction enabled: true
Nonlinearity correction enabled: false
Boxcar width: 0
XAxis mode: Wavelengths
Number of Pixels in Spectrum: 3648
>>>>>Begin Spectral Data<<<<<
178.204	-146.09
178.424	-146.09
178.644	-146.09
178.864	-152.23
179.084	-119.46
179.304	25.94
179.524	-15.02
179.744	-21.16
179.964	60.76
180.184	-2.73
180.404	21.85
180.624	-60.07
180.844	-15.02
181.064	-17.07
181.283	-10.92
181.503	-6.83
181.723	40.28
181.943	-35.5
182.163	27.99
182.383	30.04
182.602	42.32
182.822	-8.87
183.042	19.8
183.262	157.01
183.482	-27.31
183.701	-8.87
183.921	13.65
184.141	-55.98
184.361	83.28
184.58	9.56
184.8	-23.21
185.02	38.23
185.239	30.04
185.459	15.7
185.679	68.95
185.898	-15.02
186.118	93.52
186.338	-12.97
186.557	97.62
186.777	-6.83
186.997	-10.92
187.216	7.51
187.436	66.9
187.655	54.61
187.875	120.15
188.095	17.75
188.314	87.38
188.534	109.91
188.753	-21.16
188.973	83.28
189.192	56.66
189.412	-25.26
189.631	27.99
189.851	73.04
190.07	62.8
190.29	-17.07
190.509	11.61
190.729	54.61
190.948	128.34
191.168	101.72
191.387	46.42
191.607	-10.92
191.826	71
192.045	-33.45
192.265	3.41
192.484	52.56
192.704	68.95
192.923	-23.21
193.142	87.38
193.362	-4.78
193.581	60.76
193.8	38.23
194.02	38.23
194.239	87.38
194.458	87.38
194.678	36.18
194.897	60.76
195.116	23.89
195.335	32.08
195.555	32.08
195.774	58.71
195.993	75.09
196.212	-23.21
196.432	27.99
196.651	13.65
196.87	-8.87
197.089	148.82
197.308	56.66
197.528	1.37
197.747	-15.02
197.966	71
198.185	68.95
198.404	-15.02
198.623	-19.11
198.842	27.99
199.062	32.08
199.281	103.76
199.5	34.13
199.719	25.94
199.938	52.56
200.157	42.32
200.376	60.76
200.595	58.71
200.814	56.66
201.033	-21.16
201.252	68.95
201.471	40.28
201.69	19.8
201.909	17.75
202.128	-6.83
202.347	21.85
202.566	-10.92
202.785	27.99
203.004	13.65
203.223	146.77
203.442	27.99
203.661	30.04
203.879	46.42
204.098	30.04
204.317	-15.02
204.536	25.94
204.755	7.51
204.974	62.8
205.193	9.56
205.411	-17.07
205.63	19.8
205.849	34.13
206.068	42.32
206.287	71
206.505	50.52
206.724	50.52
206.943	58.71
207.162	-0.68
207.381	83.28
207.599	46.42
207.818	-0.68
208.037	-15.02
208.255	105.81
208.474	79.19
208.693	60.76
208.911	-19.11
209.13	56.66
209.349	60.76
209.567	-0.68
209.786	36.18
210.005	17.75
210.223	36.18
210.442	27.99
210.661	54.61
210.879	77.14
211.098	-19.11
211.316	93.52
211.535	91.48
211.753	-10.92
211.972	7.51
212.191	-17.07
212.409	34.13
212.628	68.95
212.846	-58.03
213.065	42.32
213.283	120.15
213.502	38.23
213.72	21.85
213.938	-19.11
214.157	34.13
214.375	7.51
214.594	23.89
214.812	32.08
215.031	21.85
215.249	-68.27
215.467	44.37
215.686	40.28
215.904	79.19
216.122	62.8
216.341	120.15
216.559	79.19
216.778	42.32
216.996	58.71
217.214	5.46
217.432	17.75
217.651	-45.74
217.869	-17.07
218.087	-2.73
218.306	89.43
218.524	93.52
218.742	-8.87
218.96	54.61
219.179	21.85
219.397	60.76
219.615	118.1
219.833	30.04
220.051	-10.92
220.27	-0.68
220.488	21.85
220.706	50.52
220.924	21.85
221.142	38.23
221.36	68.95
221.578	75.09
221.796	95.57
222.015	7.51
222.233	89.43
222.451	109.91
222.669	9.56
222.887	27.99
223.105	42.32
223.323	77.14
223.541	-10.92
223.759	13.65
223.977	15.7
224.195	134.48
224.413	75.09
224.631	60.76
224.849	-27.31
225.067	116.05
225.285	-4.78
225.503	-39.59
225.721	-45.74
225.939	-4.78
226.157	64.85
226.375	120.15
226.592	46.42
226.81	52.56
227.028	79.19
227.246	44.37
227.464	75.09
227.682	62.8
227.9	25.94
228.117	56.66
228.335	-35.5
228.553	79.19
228.771	-27.31
228.989	38.23
229.206	42.32
229.424	48.47
229.642	44.37
229.86	-35.5
230.077	71
230.295	30.04
230.513	46.42
230.731	58.71
230.948	71
231.166	56.66
231.384	36.18
231.601	7.51
231.819	17.75
232.037	-41.64
232.254	17.75
232.472	-27.31
232.689	56.66
232.907	60.76
233.125	1.37
233.342	3.41
233.56	52.56
233.777	107.86
233.995	42.32
234.213	71
234.43	-37.55
234.648	-2.73
234.865	36.18
235.083	44.37
235.3	52.56
235.518	58.71
235.735	30.04
235.953	30.04
236.17	42.32
236.388	-45.74
236.605	9.56
236.822	68.95
237.04	50.52
237.257	-2.73
237.475	-17.07
237.692	52.56
237.909	7.51
238.127	87.38
238.344	9.56
238.562	-10.92
238.779	13.65
238.996	-60.07
239.214	21.85
239.431	44.37
239.648	21.85
239.865	15.7
240.083	-43.69
240.3	81.24
240.517	48.47
240.735	75.09
240.952	62.8
241.169	62.8
241.386	17.75
241.603	75.09
241.821	-35.5
242.038	79.19
242.255	25.94
242.472	-15.02
242.689	-17.07
242.907	60.76
243.124	34.13
243.341	9.56
243.558	23.89
243.775	-47.79
243.992	-113.32
244.209	42.32
244.426	77.14
244.643	52.56
244.86	17.75
245.078	46.42
245.295	81.24
245.512	75.09
245.729	19.8
245.946	38.23
246.163	7.51
246.38	-25.26
246.597	52.56
246.814	21.85
247.031	5.46
247.248	50.52
247.464	38.23
247.681	60.76
247.898	118.1
248.115	126.29
248.332	-25.26
248.549	118.1
248.766	87.38
248.983	60.76
249.2	58.71
249.417	107.86
249.633	-2.73
249.85	87.38
250.067	60.76
250.284	91.48
250.501	44.37
250.717	38.23
250.934	5.46
251.151	-0.68
251.368	-2.73
251.585	42.32
251.801	44.37
252.018	5.46
252.235	27.99
252.451	-2.73
252.668	-15.02
252.885	46.42
253.102	62.8
253.318	17.75
253.535	36.18
253.752	48.47
253.968	-2.73
254.185	25.94
254.401	103.76
254.618	56.66
254.835	-25.26
255.051	130.39
255.268	157.01
255.484	46.42
255.701	-2.73
255.917	9.56
256.134	3.41
256.351	11.61
256.567	25.94
256.784	68.95
257	-12.97
257.217	87.38
257.433	58.71
257.65	101.72
257.866	42.32
258.082	-2.73
258.299	-6.83
258.515	44.37
258.732	48.47
258.948	83.28
259.165	73.04
259.381	7.51
259.597	34.13
259.814	48.47
260.03	-23.21
260.246	52.56
260.463	38.23
260.679	60.76
260.895	42.32
261.112	87.38
261.328	-19.11
261.544	21.85
261.761	167.25
261.977	27.99
262.193	-74.41
262.409	93.52
262.626	58.71
262.842	42.32
263.058	44.37
263.274	44.37
263.49	58.71
263.707	71
263.923	-33.45
264.139	48.47
264.355	-15.02
264.571	52.56
264.787	25.94
265.004	9.56
265.22	75.09
265.436	32.08
265.652	-66.22
265.868	62.8
266.084	40.28
266.3	-8.87
266.516	-8.87
266.732	50.52
266.948	38.23
267.164	52.56
267.38	56.66
267.596	15.7
267.812	101.72
268.028	73.04
268.244	23.89
268.46	1.37
268.676	46.42
268.892	52.56
269.108	17.75
269.324	32.08
269.54	-25.26
269.756	103.76
269.972	27.99
270.188	30.04
270.403	-29.35
270.619	34.13
270.835	1.37
271.051	36.18
271.267	5.46
271.483	140.63
271.698	13.65
271.914	54.61
272.13	81.24
272.346	38.23
272.562	77.14
272.777	87.38
272.993	85.33
273.209	38.23
273.425	7.51
273.64	-35.5
273.856	27.99
274.072	23.89
274.287	-6.83
274.503	68.95
274.719	87.38
274.934	-35.5
275.15	-15.02
275.366	34.13
275.581	46.42
275.797	21.85
276.012	30.04
276.228	-39.59
276.444	118.1
276.659	46.42
276.875	58.71
277.09	27.99
277.306	15.7
277.521	81.24
277.737	5.46
277.952	44.37
278.168	40.28
278.383	30.04
278.599	-68.27
278.814	54.61
279.03	75.09
279.245	7.51
279.461	-15.02
279.676	85.33
279.892	11.61
280.107	-15.02
280.322	-37.55
280.538	58.71
280.753	27.99
280.969	48.47
281.184	-53.93
281.399	71
281.615	58.71
281.83	11.61
282.045	27.99
282.26	21.85
282.476	32.08
282.691	44.37
282.906	23.89
283.122	15.7
283.337	-15.02
283.552	-0.68
283.767	36.18
283.983	87.38
284.198	46.42
284.413	101.72
284.628	40.28
284.843	-17.07
285.058	50.52
285.274	-8.87
285.489	71
285.704	52.56
285.919	-53.93
286.134	-15.02
286.349	-12.97
286.564	89.43
286.779	50.52
286.995	38.23
287.21	42.32
287.425	54.61
287.64	15.7
287.855	42.32
288.07	-45.74
288.285	-2.73
288.5	23.89
288.715	-25.26
288.93	44.37
289.145	58.71
289.36	25.94
289.575	-19.11
289.79	36.18
290.004	81.24
290.219	81.24
290.434	-10.92
290.649	19.8
290.864	3.41
291.079	-6.83
291.294	-12.97
291.509	50.52
291.724	15.7
291.938	25.94
292.153	122.2
292.368	-6.83
292.583	-27.31
292.798	56.66
293.012	38.23
293.227	7.51
293.442	60.76
293.657	107.86
293.871	91.48
294.086	27.99
294.301	-17.07
294.516	17.75
294.73	142.68
294.945	-31.4
295.16	11.61
295.374	52.56
295.589	103.76
295.804	58.71
296.018	34.13
296.233	79.19
296.447	89.43
296.662	-55.98
296.877	54.61
297.091	66.9
297.306	44.37
297.52	-12.97
297.735	87.38
297.949	46.42
298.164	66.9
298.378	79.19
298.593	38.23
298.807	19.8
299.022	48.47
299.236	-55.98
299.451	1.37
299.665	7.51
299.88	38.23
300.094	62.8
300.309	44.37
300.523	9.56
300.737	-51.88
300.952	50.52
301.166	36.18
301.381	73.04
301.595	-2.73
301.809	11.61
302.024	27.99
302.238	-8.87
302.452	60.76
302.667	30.04
302.881	1.37
303.095	97.62
303.309	-49.83
303.524	19.8
303.738	23.89
303.952	-12.97
304.166	68.95
304.381	40.28
304.595	144.72
304.809	83.28
305.023	60.76
305.237	58.71
305.452	87.38
305.666	73.04
305.88	120.15
306.094	40.28
306.308	89.43
306.522	50.52
306.736	46.42
306.95	11.61
307.164	83.28
307.379	21.85
307.593	87.38
307.807	97.62
308.021	13.65
308.235	89.43
308.449	-103.08
308.663	46.42
308.877	111.96
309.091	23.89
309.305	15.7
309.519	50.52
309.733	114
309.947	62.8
310.161	25.94
310.374	116.05
310.588	52.56
310.802	-10.92
311.016	-6.83
311.23	54.61
311.444	-39.59
311.658	-15.02
311.872	60.76
312.085	42.32
312.299	83.28
312.513	27.99
312.727	32.08
312.941	17.75
313.154	56.66
313.368	-27.31
313.582	17.75
313.796	73.04
314.009	87.38
314.223	77.14
314.437	42.32
314.651	109.91
314.864	21.85
315.078	58.71
315.292	11.61
315.505	9.56
315.719	9.56
315.933	48.47
316.146	-49.83
316.36	38.23
316.573	-4.78
316.787	62.8
317.001	44.37
317.214	-8.87
317.428	7.51
317.641	42.32
317.855	50.52
318.068	42.32
318.282	-31.4
318.495	66.9
318.709	73.04
318.922	27.99
319.136	38.23
319.349	103.76
319.563	17.75
319.776	97.62
319.99	-25.26
320.203	118.1
320.417	99.67
320.63	38.23
320.843	124.24
321.057	54.61
321.27	62.8
321.483	114
321.697	103.76
321.91	85.33
322.124	15.7
322.337	64.85
322.55	97.62
322.763	32.08
322.977	21.85
323.19	25.94
323.403	103.76
323.617	60.76
323.83	-17.07
324.043	46.42
324.256	58.71
324.469	-33.45
324.683	124.24
324.896	93.52
325.109	13.65
325.322	32.08
325.535	44.37
325.748	62.8
325.962	71
326.175	134.48
326.388	109.91
326.601	58.71
326.814	11.61
327.027	17.75
327.24	81.24
327.453	48.47
327.666	101.72
327.879	101.72
328.092	159.06
328.305	-2.73
328.518	-8.87
328.731	71
328.944	-49.83
329.157	54.61
329.37	-33.45
329.583	99.67
329.796	126.29
330.009	19.8
330.222	52.56
330.435	-33.45
330.648	105.81
330.861	46.42
331.073	64.85
331.286	83.28
331.499	-43.69
331.712	-17.07
331.925	34.13
332.138	-45.74
332.35	-21.16
332.563	34.13
332.776	99.67
332.989	-51.88
333.202	60.76
333.414	17.75
333.627	42.32
333.84	-12.97
334.053	52.56
334.265	66.9
334.478	38.23
334.691	17.75
334.903	38.23
335.116	44.37
335.329	58.71
335.541	52.56
335.754	83.28
335.966	9.56
336.179	50.52
336.392	132.44
336.604	3.41
336.817	42.32
337.029	27.99
337.242	13.65
337.454	105.81
337.667	93.52
337.88	120.15
338.092	111.96
338.305	9.56
338.517	-2.73
338.729	58.71
338.942	25.94
339.154	-41.64
339.367	11.61
339.579	66.9
339.792	46.42
340.004	75.09
340.217	48.47
340.429	68.95
340.641	15.7
340.854	50.52
341.066	19.8
341.278	77.14
341.491	75.09
341.703	52.56
341.915	34.13
342.128	142.68
342.34	13.65
342.552	-12.97
342.764	58.71
342.977	38.23
343.189	36.18
343.401	105.81
343.613	50.52
343.826	83.28
344.038	38.23
344.25	23.89
344.462	60.76
344.674	36.18
344.886	17.75
345.099	54.61
345.311	50.52
345.523	46.42
345.735	-51.88
345.947	116.05
346.159	91.48
346.371	-2.73
346.583	7.51
346.795	140.63
347.007	46.42
347.219	71
347.431	48.47
347.643	68.95
347.855	66.9
348.067	64.85
348.279	9.56
348.491	109.91
348.703	66.9
348.915	52.56
349.127	34.13
349.339	107.86
349.551	-15.02
349.763	58.71
349.975	34.13
350.187	3.41
350.399	114
350.61	93.52
350.822	56.66
351.034	62.8
351.246	58.71
351.458	32.08
351.669	34.13
351.881	60.76
352.093	27.99
352.305	48.47
352.517	97.62
352.728	27.99
352.94	83.28
353.152	32.08
353.363	3.41
353.575	48.47
353.787	15.7
353.999	81.24
354.21	54.61
354.422	15.7
354.633	-49.83
354.845	77.14
355.057	23.89
355.268	77.14
355.48	85.33
355.692	48.47
355.903	23.89
356.115	71
356.326	-21.16
356.538	132.44
356.749	79.19
356.961	181.59
357.172	60.76
357.384	-25.26
357.595	130.39
357.807	87.38
358.018	62.8
358.23	71
358.441	101.72
358.653	83.28
358.864	62.8
359.075	81.24
359.287	64.85
359.498	140.63
359.709	50.52
359.921	62.8
360.132	122.2
360.344	48.47
360.555	73.04
360.766	50.52
360.977	30.04
361.189	97.62
361.4	81.24
361.611	87.38
361.823	54.61
362.034	36.18
362.245	-2.73
362.456	79.19
362.667	40.28
362.879	21.85
363.09	52.56
363.301	77.14
363.512	58.71
363.723	58.71
363.935	40.28
364.146	159.06
364.357	38.23
364.568	52.56
364.779	-19.11
364.99	64.85
365.201	36.18
365.412	118.1
365.623	-27.31
365.834	89.43
366.045	44.37
366.256	62.8
366.467	38.23
366.678	15.7
366.889	40.28
367.1	73.04
367.311	73.04
367.522	23.89
367.733	136.53
367.944	93.52
368.155	-4.78
368.366	56.66
368.577	66.9
368.788	136.53
368.999	50.52
369.209	64.85
369.42	165.2
369.631	185.68
369.842	140.63
370.053	46.42
370.264	83.28
370.474	-15.02
370.685	44.37
370.896	79.19
371.107	-4.78
371.317	64.85
371.528	73.04
371.739	173.39
371.95	9.56
372.16	154.96
372.371	66.9
372.582	54.61
372.792	167.25
373.003	23.89
373.214	87.38
373.424	58.71
373.635	75.09
373.846	87.38
374.056	66.9
374.267	38.23
374.477	77.14
374.688	36.18
374.898	81.24
375.109	120.15
375.319	73.04
375.53	52.56
375.74	126.29
375.951	73.04
376.161	73.04
376.372	136.53
376.582	46.42
376.793	-8.87
377.003	-51.88
377.214	46.42
377.424	34.13
377.635	73.04
377.845	23.89
378.055	138.58
378.266	38.23
378.476	15.7
378.686	58.71
378.897	64.85
379.107	91.48
379.317	66.9
379.528	91.48
379.738	46.42
379.948	79.19
380.158	101.72
380.369	54.61
380.579	38.23
380.789	1.37
380.999	79.19
381.21	46.42
381.42	120.15
381.63	44.37
381.84	111.96
382.05	87.38
382.261	44.37
382.471	71
382.681	60.76
382.891	111.96
383.101	13.65
383.311	1.37
383.521	5.46
383.731	132.44
383.941	124.24
384.151	-0.68
384.361	66.9
384.571	93.52
384.781	91.48
384.991	89.43
385.201	99.67
385.411	144.72
385.621	128.34
385.831	40.28
386.041	66.9
386.251	48.47
386.461	52.56
386.671	122.2
386.881	68.95
387.091	99.67
387.301	95.57
387.511	83.28
387.72	152.92
387.93	54.61
388.14	62.8
388.35	68.95
388.56	103.76
388.769	66.9
388.979	52.56
389.189	15.7
389.399	95.57
389.609	71
389.818	75.09
390.028	134.48
390.238	132.44
390.447	73.04
390.657	122.2
390.867	79.19
391.076	21.85
391.286	105.81
391.496	93.52
391.705	99.67
391.915	71
392.125	64.85
392.334	15.7
392.544	128.34
392.753	64.85
392.963	21.85
393.172	165.2
393.382	120.15
393.591	132.44
393.801	91.48
394.01	132.44
394.22	161.11
394.429	97.62
394.639	101.72
394.848	116.05
395.058	109.91
395.267	99.67
395.477	52.56
395.686	81.24
395.895	214.35
396.105	208.21
396.314	91.48
396.524	66.9
396.733	107.86
396.942	62.8
397.152	148.82
397.361	126.29
397.57	150.87
397.78	109.91
397.989	114
398.198	226.64
398.407	118.1
398.617	138.58
398.826	118.1
399.035	136.53
399.244	167.25
399.453	144.72
399.663	111.96
399.872	83.28
400.081	101.72
400.29	157.01
400.499	181.59
400.708	220.5
400.917	140.63
401.127	124.24
401.336	130.39
401.545	173.39
401.754	126.29
401.963	216.4
402.172	40.28
402.381	195.92
402.59	202.07
402.799	183.63
403.008	163.15
403.217	240.98
403.426	136.53
403.635	111.96
403.844	173.39
404.053	150.87
404.262	253.27
404.471	232.79
404.68	165.2
404.888	222.55
405.097	177.49
405.306	224.59
405.515	206.16
405.724	269.65
405.933	202.07
406.142	240.98
406.35	322.9
406.559	265.55
406.768	281.94
406.977	269.65
407.185	306.51
407.394	349.52
407.603	238.93
407.812	255.31
408.02	341.33
408.229	318.8
408.438	322.9
408.646	220.5
408.855	314.7
409.064	343.38
409.272	453.97
409.481	413.01
409.69	320.85
409.898	372.05
410.107	343.38
410.315	482.64
410.524	400.72
410.733	382.29
410.941	468.3
411.15	476.49
411.358	458.06
411.567	521.55
411.775	589.13
411.984	560.46
412.192	580.94
412.401	554.32
412.609	636.24
412.818	765.26
413.026	656.72
413.234	664.91
413.443	623.95
413.651	763.21
413.86	691.53
414.068	884.04
414.276	898.38
414.485	929.1
414.693	908.62
414.901	922.95
415.11	908.62
415.318	1049.93
415.526	941.38
415.734	1066.31
415.943	1140.04
416.151	1103.17
416.359	1158.47
416.567	1205.57
416.776	1140.04
416.984	1342.78
417.192	1367.36
417.4	1457.47
417.608	1365.31
417.817	1381.7
418.025	1445.18
418.233	1611.07
418.441	1561.92
418.649	1711.42
418.857	1678.65
419.065	1779
419.273	1838.39
419.481	1905.98
419.689	2035
419.897	2041.14
420.105	2151.73
420.313	2059.57
420.521	2254.13
420.729	2213.17
420.937	2192.69
421.145	2460.98
421.353	2520.37
421.561	2766.12
421.769	2667.82
421.977	2839.85
422.185	2721.07
422.393	2903.34
422.601	3175.72
422.809	3214.63
423.017	3190.05
423.224	3439.9
423.432	3370.27
423.64	3546.4
423.848	3767.58
424.056	3681.57
424.263	3988.76
424.471	3863.83
424.679	3951.9
424.887	4304.15
425.094	4349.2
425.302	4343.06
425.51	4502.8
425.718	4721.93
425.925	4689.17
426.133	5033.22
426.341	5266.69
426.548	5381.38
426.756	5567.74
426.964	5563.65
427.171	5844.22
427.379	6049.02
427.586	6075.64
427.794	6292.73
428.001	6669.55
428.209	6870.25
428.417	6786.29
428.624	7079.15
428.832	7275.75
429.039	7240.93
429.247	7142.63
429.454	7855.33
429.662	8539.35
429.869	7742.69
430.076	8240.34
430.284	8129.75
430.491	8574.16
430.699	8994
430.906	9194.7
431.114	9053.39
431.321	9643.2
431.528	9761.98
431.736	10511.54
431.943	10763.44
432.15	10542.26
432.358	10706.1
432.565	11222.19
432.772	11259.05
432.979	11676.84
433.187	11764.9
433.394	12000.41
433.601	12764.31
433.808	12960.91
434.016	12971.15
434.223	13354.12
434.43	13976.7
434.637	13964.42
434.844	14709.88
435.052	14787.7
435.259	14842.99
435.466	15062.13
435.673	15094.9
435.88	15856.74
436.087	16639.06
436.294	16946.26
436.501	16452.7
436.708	16759.89
436.915	17482.83
437.122	18259.01
437.329	17972.29
437.537	18498.62
437.743	18928.69
437.95	18576.44
438.157	19698.73
438.364	20534.3
438.571	20020.26
438.778	20476.96
438.985	22361.09
439.192	21756.94
439.399	22309.89
439.606	21670.92
439.813	22883.32
440.02	24267.75
440.227	23993.32
440.433	23780.33
440.64	24284.13
440.847	24476.64
441.054	24972.25
441.261	26463.17
441.467	26139.59
441.674	26854.33
441.881	27933.61
442.088	27685.81
442.294	27478.96
442.501	28101.54
442.708	28795.81
442.914	30018.44
443.121	31284.09
443.328	30141.32
443.534	32713.57
443.741	31740.78
443.948	30937.98
444.154	33706.83
444.361	33254.23
444.568	33598.29
444.774	33364.82
444.981	33897.3
445.187	34884.42
445.394	36111.15
445.6	35941.17
445.807	39535.35
446.013	37577.5
446.22	38529.8
446.426	39750.39
446.633	39951.09
446.839	41474.78
447.046	39772.92
447.252	42414.8
447.459	42248.91
447.665	42142.42
447.871	44112.56
448.078	45822.62
448.284	43457.21
448.491	44581.55
448.697	46342.8
448.903	47041.16
449.11	47344.26
449.316	46635.66
449.522	47215.24
449.728	48575.09
449.935	48798.32
450.141	48620.14
450.347	50029.15
450.553	48501.36
450.76	49121.9
450.966	50643.54
451.172	50240.09
451.378	51108.43
451.584	49709.66
451.791	51329.61
451.997	51010.12
452.203	52066.87
452.409	52339.25
452.615	51917.37
452.821	49920.6
453.027	49224.29
453.233	51718.72
453.44	49945.18
453.646	50113.11
453.852	50383.44
454.058	51839.55
454.264	49615.46
454.47	50780.75
454.676	49580.64
454.882	51137.1
455.088	46926.47
455.294	47508.1
455.5	48384.63
455.705	48888.43
455.911	46695.05
456.117	46017.18
456.323	45449.89
456.529	43012.81
456.735	44933.8
456.941	43782.84
457.147	42955.46
457.352	41458.4
457.558	41278.18
457.764	41097.95
457.97	40590.06
458.176	39308.03
458.381	39973.62
458.587	37708.57
458.793	37647.13
458.999	35793.72
459.204	38163.21
459.41	37135.13
459.616	34849.6
459.821	34845.51
460.027	34747.2
460.233	33786.71
460.438	32168.81
460.644	32729.95
460.85	31239.03
461.055	30417.8
461.261	30784.38
461.466	28343.2
461.672	27075.51
461.878	29526.93
462.083	27503.54
462.289	26817.47
462.494	26807.23
462.7	25377.75
462.905	24914.91
463.111	25697.23
463.316	25437.14
463.522	25154.52
463.727	25506.77
463.932	25013.21
464.138	24759.26
464.343	25076.69
464.549	24073.19
464.754	25353.17
464.959	24957.91
465.165	24742.88
465.37	23645.16
465.575	23139.32
465.781	24312.8
465.986	24124.39
466.191	23243.76
466.397	22817.79
466.602	21570.57
466.807	22862.84
467.012	22533.12
467.218	22572.03
467.423	21986.31
467.628	22236.16
467.833	23131.12
468.038	22352.9
468.244	21720.07
468.449	22584.32
468.654	21769.23
468.859	21724.17
469.064	21476.37
469.269	20769.82
469.474	20904.98
469.679	21183.51
469.885	20964.37
470.09	21140.5
470.295	20775.96
470.5	20548.64
470.705	20798.49
470.91	19977.25
471.115	20075.56
471.32	20093.99
471.525	20089.89
471.73	19692.58
471.935	19176.5
472.139	18756.66
472.344	19201.07
472.549	18828.34
472.754	18506.81
472.959	18340.93
473.164	17665.1
473.369	17581.13
473.574	18308.16
473.778	18187.33
473.983	17947.72
474.188	17790.02
474.393	16835.67
474.598	17052.75
474.802	17013.84
475.007	16747.61
475.212	16798.81
475.417	16096.35
475.621	16249.95
475.826	16256.09
476.031	15832.16
476.235	15658.09
476.44	15932.51
476.645	15819.88
476.849	15721.57
477.054	15334.51
477.259	15217.77
477.463	15162.48
477.668	14992.5
477.872	14756.98
478.077	14568.57
478.282	14214.27
478.486	14156.93
478.691	14314.62
478.895	14169.21
479.1	14075.01
479.304	14060.67
479.509	13630.6
479.713	13896.83
479.918	13515.91
480.122	13667.46
480.326	13636.74
480.531	13550.73
480.735	13417.61
480.94	13253.77
481.144	13417.61
481.348	13116.56
481.553	13233.29
481.757	12950.67
481.961	13239.44
482.166	13249.68
482.37	13304.97
482.574	12956.82
482.778	13229.2
482.983	13315.21
483.187	13249.68
483.391	13231.24
483.595	12962.96
483.8	12831.89
484.004	13192.33
484.208	13241.48
484.412	13102.22
484.616	13079.69
484.821	13069.45
485.025	13065.36
485.229	13089.93
485.433	12817.55
485.637	12909.71
485.841	12950.67
486.045	12774.55
486.249	13014.16
486.453	12878.99
486.657	13063.31
486.861	13261.96
487.065	12502.17
487.269	13081.74
487.473	12846.23
487.677	13040.78
487.881	13245.58
488.085	13016.21
488.289	13059.21
488.493	13032.59
488.697	13028.49
488.901	13106.32
489.105	13288.59
489.309	13343.88
489.512	13214.86
489.716	13272.2
489.92	13270.15
490.124	13282.44
490.328	13425.8
490.531	13233.29
490.735	13532.29
490.939	13712.52
491.143	13405.32
491.346	13333.64
491.55	13673.6
491.754	13452.42
491.958	13687.94
492.161	13477
492.365	13483.14
492.569	13671.56
492.772	13692.04
492.976	14021.76
493.18	14021.76
493.383	14097.53
493.587	14204.03
493.79	14322.81
493.994	14085.25
494.197	14376.06
494.401	14492.79
494.605	14443.64
494.808	15055.98
495.012	14754.93
495.215	14804.08
495.419	15000.69
495.622	14595.19
495.825	15162.48
496.029	15217.77
496.232	15385.71
496.436	15338.6
496.639	15871.08
496.843	15758.44
497.046	15897.7
497.249	16346.2
497.453	16196.7
497.656	16403.55
497.859	16497.75
498.063	16618.58
498.266	16944.21
498.469	16833.62
498.673	17208.4
498.876	17214.54
499.079	17699.91
499.282	17515.59
499.485	18050.11
499.689	17867.84
499.892	18193.47
500.095	18390.08
500.298	18689.08
500.501	18627.64
500.705	19186.74
500.908	19377.2
501.111	19721.26
501.314	19483.69
501.517	19786.79
501.72	20102.18
501.923	20282.4
502.126	20806.68
502.329	20909.08
502.532	21144.59
502.735	20831.26
502.938	21644.3
503.141	21552.14
503.344	22017.03
503.547	22076.42
503.75	22328.32
503.953	22678.52
504.156	22983.67
504.359	23231.47
504.562	23389.17
504.765	23626.73
504.968	23567.34
505.17	24120.29
505.373	24325.09
505.576	25109.46
505.779	24794.08
505.982	24919
506.185	25531.34
506.387	25637.84
506.59	25836.49
506.793	26379.2
506.996	26536.9
507.198	27134.9
507.401	26833.85
507.604	27466.67
507.807	27714.48
508.009	28038.06
508.212	27980.71
508.415	28484.51
508.617	28644.26
508.82	28953.5
509.022	28617.63
509.225	29791.12
509.428	30112.65
509.63	30135.18
509.833	30321.54
510.035	31116.15
510.238	30897.02
510.44	31343.48
510.643	31755.12
510.845	32258.92
511.048	32154.47
511.25	32516.97
511.453	32676.71
511.655	33676.12
511.858	33401.69
512.06	33708.88
512.262	33725.27
512.465	34087.76
512.667	35087.17
512.87	34902.85
513.072	35302.2
513.274	35855.15
513.477	36191.02
513.679	36584.23
513.881	36700.97
514.084	36918.05
514.286	37288.73
514.488	37632.79
514.69	38431.5
514.893	38529.8
515.095	39017.22
515.297	39013.12
515.499	39971.57
515.701	39889.65
515.904	40166.13
516.106	40258.29
516.308	41118.43
516.51	41386.72
516.712	41315.04
516.914	41884.37
517.116	42656.46
517.318	42580.68
517.52	42865.35
517.722	42672.84
517.925	43670.2
518.127	44286.64
518.329	44298.93
518.531	44053.17
518.733	45410.98
518.935	45320.87
519.136	45032.1
519.338	46051.99
519.54	46377.62
519.742	46842.51
519.944	47082.12
520.146	47483.52
520.348	47497.86
520.55	48235.13
520.752	48507.51
520.954	49076.84
521.155	49050.22
521.357	49416.8
521.559	49957.47
521.761	50614.86
521.963	50541.14
522.164	51006.03
522.366	51225.16
522.568	51456.58
522.77	52013.63
522.971	52593.2
523.173	51966.52
523.375	52855.34
523.576	52476.47
523.778	52873.77
523.98	53615.14
524.181	53811.74
524.383	53885.47
524.584	54970.89
524.786	54403.61
524.988	54270.49
525.189	54829.58
525.391	55335.43
525.592	55638.53
525.794	55814.66
525.995	56017.41
526.197	56383.99
526.398	56134.14
526.6	56914.42
526.801	56701.43
527.003	57244.14
527.204	57158.13
527.406	57420.27
527.607	57702.88
527.808	58057.18
528.01	57356.78
528.211	57592.29
528.412	58485.21
528.614	58290.65
528.815	58487.26
529.016	59447.75
529.218	58536.41
529.419	58911.19
529.62	59269.58
529.822	58905.04
530.023	59158.99
530.224	59052.5
530.425	59066.83
530.626	59109.84
530.828	59042.26
531.029	60377.53
531.23	59476.43
531.431	59447.75
531.632	59578.82
531.833	60406.2
532.035	60367.29
532.236	60051.9
532.437	60359.1
532.638	59806.15
532.839	60107.2
533.04	60457.4
533.241	59957.7
533.442	61053.36
533.643	60428.73
533.844	60582.33
534.045	60645.82
534.246	60547.51
534.447	60785.08
534.648	60434.88
534.849	60877.24
535.05	60033.47
535.251	60742.07
535.451	60225.98
535.652	60778.93
535.853	60778.93
536.054	61102.51
536.255	60692.92
536.456	60539.32
536.657	61043.12
536.857	60340.67
537.058	60283.33
537.259	61045.17
537.46	60891.57
537.66	60535.23
537.861	61022.64
538.062	60479.93
538.263	60701.11
538.463	60559.8
538.664	60860.85
538.865	60361.15
539.065	60690.87
539.266	60250.56
539.466	61090.23
539.667	60019.14
539.868	61471.15
540.068	60586.42
540.269	60553.66
540.469	61018.55
540.67	60524.99
540.87	60555.71
541.071	60346.81
541.271	61155.76
541.472	60627.38
541.672	60070.34
541.873	60289.47
542.073	60187.07
542.274	60895.67
542.474	60066.24
542.675	59775.43
542.875	60787.13
543.075	60266.94
543.276	59652.55
543.476	60742.07
543.676	60266.94
543.877	60692.92
544.077	60320.19
544.277	60369.34
544.478	60033.47
544.678	60713.4
544.878	60172.74
545.078	60694.97
545.279	60117.44
545.479	59982.27
545.679	60617.14
545.879	59980.23
546.079	60215.74
546.28	59955.65
546.48	60262.85
546.68	60148.16
546.88	60567.99
547.08	60430.78
547.28	60402.11
547.48	59269.58
547.68	60090.82
547.88	59607.5
548.081	60254.65
548.281	59783.62
548.481	59650.5
548.681	60635.58
548.881	59840.96
549.081	59982.27
549.28	59853.25
549.48	60156.35
549.68	60148.16
549.88	60719.54
550.08	59795.91
550.28	59978.18
550.48	59728.33
550.68	60238.27
550.88	59193.81
551.08	59564.49
551.279	59673.03
551.479	59214.29
551.679	59996.61
551.879	59625.93
552.079	59800
552.278	59394.51
552.478	59486.67
552.678	59654.6
552.878	59711.94
553.077	59470.28
553.277	58935.76
553.477	60217.79
553.676	59124.18
553.876	59277.77
554.076	59302.35
554.275	59101.65
554.475	58997.2
554.674	59136.46
554.874	59365.84
555.074	59249.1
555.273	59312.59
555.473	59429.32
555.672	58989.01
555.872	58624.47
556.071	58900.95
556.271	59072.98
556.47	58403.29
556.67	58462.68
556.869	58665.43
557.068	58616.28
557.268	58347.99
557.467	58579.42
557.667	57997.79
557.866	58350.04
558.065	58560.98
558.265	58141.15
558.464	58190.3
558.663	58509.78
558.863	57493.99
559.062	58612.18
559.261	57618.92
559.461	58419.67
559.66	57516.52
559.859	57793
560.058	57504.23
560.258	57731.56
560.457	57276.91
560.656	57493.99
560.855	56846.83
561.054	57537
561.253	56842.74
561.453	56943.09
561.652	57190.89
561.851	57455.08
562.05	56926.7
562.249	56257.02
562.448	57149.93
562.647	56404.47
562.846	56224.25
563.045	56523.25
563.244	56084.99
563.443	56721.91
563.642	55450.12
563.841	56152.57
564.04	55845.38
564.239	56359.42
564.438	55573
564.637	56091.13
564.836	55958.02
565.035	55521.8
565.234	55564.81
565.432	54977.04
565.631	55136.78
565.83	55437.83
566.029	54983.18
566.228	54940.17
566.427	54739.47
566.625	54487.57
566.824	54114.84
567.023	54577.68
567.222	53561.89
567.42	54725.14
567.619	54473.24
567.818	53862.94
568.016	53652
568.215	53996.06
568.414	53647.91
568.612	54000.16
568.811	53594.66
569.01	53748.26
569.208	52908.59
569.407	53000.75
569.605	52701.75
569.804	53543.46
570.002	52247.1
570.201	52648.5
570.4	52263.48
570.598	52304.44
570.797	51728.96
570.995	52578.87
571.193	51544.64
571.392	52087.35
571.59	51577.41
571.789	51876.41
571.987	51722.82
572.186	51634.75
572.384	50922.06
572.582	51264.07
572.781	51497.54
572.979	50571.86
573.177	51083.85
573.376	50854.48
573.574	50313.81
573.772	50844.24
573.971	50317.91
574.169	49955.42
574.367	49562.21
574.565	50170.46
574.763	49648.22
574.962	49414.76
575.16	49295.97
575.358	49533.54
575.556	49281.64
575.754	49769.05
575.952	49164.9
576.151	49091.18
576.349	48665.2
576.547	48716.4
576.745	48720.49
576.943	48822.89
577.141	48622.19
577.339	48452.21
577.537	48310.9
577.735	48394.87
577.933	47671.93
578.131	48126.58
578.329	47440.51
578.527	47336.07
578.725	47276.68
578.923	47815.29
579.121	47282.82
579.319	47194.76
579.516	47141.51
579.714	47389.31
579.912	46684.81
580.11	46721.68
580.308	46670.48
580.506	46545.55
580.704	45752.99
580.901	46234.26
581.099	46092.95
581.297	45685.4
581.495	45849.24
581.692	46097.05
581.89	45628.06
582.088	45922.97
582.285	45546.14
582.483	45566.62
582.681	44962.47
582.878	45009.57
583.076	44708.52
583.274	45064.87
583.471	44317.36
583.669	44657.32
583.866	44339.89
584.064	44464.81
584.262	44026.55
584.459	44567.21
584.657	44051.13
584.854	44436.14
585.052	43383.49
585.249	44012.21
585.447	43633.34
585.644	43346.62
585.841	43260.61
586.039	43619
586.236	43424.45
586.434	42998.47
586.631	42586.83
586.828	42855.11
587.026	42814.15
587.223	42554.06
587.42	42328.78
587.618	42627.79
587.815	41601.75
588.012	42103.51
588.21	41769.69
588.407	42195.67
588.604	41636.57
588.801	41661.15
588.999	41593.56
589.196	41581.27
589.393	41093.86
589.59	41296.61
589.787	40946.4
589.984	40956.64
590.182	40522.47
590.379	40950.5
590.576	40389.36
590.773	40614.63
590.97	40190.7
591.167	40407.79
591.364	39850.74
591.561	39971.57
591.758	39541.5
591.955	39940.85
592.152	39994.1
592.349	39697.14
592.546	39492.35
592.743	39533.31
592.94	39033.6
593.137	39090.94
593.334	39230.21
593.531	38689.54
593.727	38654.73
593.924	39217.92
594.121	38095.63
594.318	38748.93
594.515	38167.31
594.712	38427.4
594.908	37899.03
595.105	38320.91
595.302	37911.31
595.499	37903.12
595.696	37888.79
595.892	37487.39
596.089	37489.43
596.286	37618.46
596.482	37546.78
596.679	37176.09
596.876	37477.15
597.072	36721.44
597.269	37116.7
597.466	36756.26
597.662	36539.18
597.859	36664.1
598.055	36705.06
598.252	36455.21
598.448	36653.86
598.645	35941.17
598.841	35687.22
599.038	36064.05
599.234	36082.48
599.431	35660.6
599.627	35601.21
599.824	35633.97
600.02	35117.89
600.217	35568.44
600.413	35343.16
600.609	35140.41
600.806	34579.27
601.002	35324.73
601.198	34736.96
601.395	34542.41
601.591	34353.99
601.787	34718.53
601.984	34224.97
602.18	34696
602.376	34384.71
602.572	34149.2
602.769	34200.4
602.965	33514.33
603.161	33772.37
603.357	33891.15
603.553	33590.1
603.75	33530.71
603.946	33471.32
604.142	33129.31
604.338	32799.58
604.534	33139.55
604.73	32979.81
604.926	32988
605.122	32586.6
605.318	32445.29
605.514	32691.04
605.71	32557.92
605.906	32594.79
606.102	32193.39
606.298	32465.77
606.494	32158.57
606.69	32246.63
606.886	31923.05
607.082	31378.29
607.278	32007.02
607.474	31820.66
607.67	32037.74
607.866	31335.29
608.062	31791.98
608.257	31593.33
608.453	31509.36
608.649	31304.57
608.845	31062.91
609.041	31069.05
609.236	31456.12
609.432	30948.22
609.628	30993.28
609.824	30800.77
610.019	30976.89
610.215	30704.51
610.411	31056.76
610.606	30706.56
610.802	30538.63
610.998	30696.32
611.193	30282.63
611.389	30245.77
611.584	30077.83
611.78	30253.96
611.976	30213
612.171	30376.84
612.367	30286.73
612.562	29883.28
612.758	29578.13
612.953	29627.28
613.149	30040.97
613.344	29608.85
613.539	30047.11
613.735	29604.75
613.93	29864.85
614.126	29416.34
614.321	29649.81
614.517	29428.63
614.712	29399.96
614.907	29315.99
615.103	29445.01
615.298	29055.9
615.493	29414.29
615.688	28830.62
615.884	29430.68
616.079	28906.4
616.274	28691.36
616.47	28670.88
616.665	28847.01
616.86	28707.74
617.055	28605.34
617.25	28398.5
617.445	29109.15
617.641	28033.96
617.836	28433.32
618.031	28226.47
618.226	28504.99
618.421	27898.8
618.616	28181.42
618.811	27716.53
619.006	28113.83
619.201	27710.38
619.396	28119.98
619.591	27212.73
619.786	27583.41
619.981	27245.49
620.176	27313.08
620.371	26921.91
620.566	26833.85
620.761	26655.68
620.956	26934.2
621.151	26280.9
621.346	26465.22
621.541	26082.25
621.735	26426.31
621.93	25975.75
622.125	26002.38
622.32	25406.42
622.515	25746.38
622.709	25684.94
622.904	25344.98
623.099	25396.18
623.294	25390.03
623.488	24794.08
623.683	25164.76
623.878	24792.03
624.072	24718.3
624.267	24458.21
624.462	24509.41
624.656	24364
624.851	24431.58
625.046	24216.55
625.24	23972.84
625.435	24021.99
625.629	23673.84
625.824	23692.27
626.018	23323.63
626.213	22858.74
626.407	23530.48
626.602	22780.92
626.796	23149.56
626.991	23081.97
627.185	22834.17
627.38	22375.42
627.574	22248.45
627.768	22189.06
627.963	22303.74
628.157	21914.63
628.352	21783.56
628.546	21863.43
628.74	21908.49
628.935	21728.27
629.129	21818.38
629.323	21449.74
629.517	21333.01
629.712	21222.42
629.906	21107.73
630.1	21038.1
630.294	21036.05
630.489	20659.23
630.683	20896.79
630.877	20444.19
631.071	20323.36
631.265	20608.03
631.459	19936.29
631.653	20212.77
631.848	20329.5
632.042	20096.03
632.236	19932.2
632.43	19614.76
632.624	19668.01
632.818	19758.12
633.012	19377.2
633.206	19420.21
633.4	19104.82
633.594	19008.56
633.788	18953.27
633.982	18924.6
634.176	18854.97
634.369	18695.22
634.563	18388.03
634.757	18697.27
634.951	18533.43
635.145	18535.48
635.339	18465.85
635.533	18273.34
635.726	18447.42
635.92	17695.82
636.114	17820.74
636.308	17783.88
636.501	17652.81
636.695	17648.71
636.889	17570.89
637.083	17304.65
637.276	17261.65
637.47	17093.71
637.664	17157.2
637.857	17155.15
638.051	16944.21
638.244	16763.99
638.438	16720.98
638.632	16829.52
638.825	16352.35
639.019	16563.29
639.212	16307.29
639.406	16292.96
639.599	16352.35
639.793	16198.75
639.986	15881.31
640.18	16137.31
640.373	15983.71
640.567	15946.85
640.76	15643.75
640.954	15502.44
641.147	15500.39
641.34	15613.03
641.534	15471.72
641.727	15187.05
641.92	15299.69
642.114	15234.16
642.307	15131.76
642.5	15029.36
642.694	14781.56
642.887	14726.26
643.08	14992.5
643.273	14560.38
643.467	14533.75
643.66	14605.43
643.853	14677.11
644.046	14670.97
644.239	14535.8
644.432	14298.24
644.626	14181.5
644.819	14048.38
645.012	13956.22
645.205	14130.3
645.398	14056.57
645.591	13606.02
645.784	13810.82
645.977	13376.65
646.17	13618.31
646.363	13438.09
646.556	13268.11
646.749	13333.64
646.942	13464.71
647.135	13343.88
647.328	13059.21
647.521	13221
647.714	13036.69
647.907	12768.4
648.099	12848.27
648.292	12833.94
648.485	12727.44
648.678	12741.78
648.871	12579.99
649.064	12555.41
649.256	12645.52
649.449	12149.92
649.642	12268.7
649.835	12305.56
650.027	12219.55
650.22	12323.99
650.413	12121.24
650.605	12127.39
650.798	12084.38
650.991	11820.19
651.183	12168.35
651.376	11588.77
651.568	11541.67
651.761	11736.23
651.954	11637.92
652.146	11578.53
652.339	11414.7
652.531	11289.77
652.724	11349.16
652.916	11154.6
653.109	11119.79
653.301	11365.54
653.494	11152.56
653.686	11093.16
653.879	11013.29
654.071	10884.27
654.263	10828.98
654.456	10753.2
654.648	10851.5
654.84	10548.4
655.033	10714.29
655.225	10497.21
655.417	10644.66
655.61	10519.73
655.802	10595.51
655.994	10540.21
656.186	10359.99
656.379	10216.63
656.571	10192.06
656.763	10296.5
656.955	10112.19
657.148	9985.21
657.34	10130.62
657.532	9934.01
657.724	9661.63
657.916	9729.22
658.108	9979.07
658.3	9729.22
658.492	9804.99
658.684	9700.55
658.876	9585.86
659.068	9522.37
659.26	9503.94
659.452	9528.52
659.644	9589.95
659.836	9317.58
660.028	9145.55
660.22	9221.32
660.412	9321.67
660.604	9071.82
660.796	9438.41
660.988	9104.59
661.18	8950.99
661.372	9047.24
661.563	9290.95
661.755	8885.45
661.947	8832.21
662.139	8854.73
662.331	8666.32
662.522	8584.4
662.714	8742.1
662.906	8586.45
663.097	8617.17
663.289	8838.35
663.481	8596.69
663.673	8383.7
663.864	8383.7
664.056	8369.37
664.247	8142.04
664.439	8195.29
664.631	8328.41
664.822	8387.8
665.014	8250.58
665.205	8189.14
665.397	8043.74
665.588	8123.61
665.78	7992.54
665.971	8027.35
666.163	8053.98
666.354	8058.07
666.546	7816.41
666.737	7783.65
666.929	7914.72
667.12	7859.42
667.311	7630.05
667.503	7937.24
667.694	7697.63
667.885	7537.89
668.077	7648.48
668.268	7482.6
668.459	7582.95
668.651	7546.08
668.842	7429.35
669.033	7326.95
669.224	7310.57
669.416	7378.15
669.607	7458.02
669.798	7372
669.989	7345.38
670.18	7361.77
670.371	7171.3
670.563	7150.82
670.754	7308.52
670.945	7169.26
671.136	7175.4
671.327	7183.59
671.518	6954.22
671.709	7060.71
671.9	7001.32
672.091	7001.32
672.282	7054.57
672.473	6974.7
672.664	6964.46
672.855	6915.31
673.046	7036.14
673.237	7009.51
673.428	6817.01
673.619	6864.11
673.809	6915.31
674	6726.89
674.191	6780.14
674.382	6819.05
674.573	6757.61
674.764	6608.11
674.954	6741.23
675.145	6524.15
675.336	6606.06
675.527	6669.55
675.717	6679.79
675.908	6554.87
676.099	6495.47
676.289	6647.02
676.48	6388.98
676.671	6315.25
676.861	6751.47
677.052	6339.83
677.243	6536.43
677.433	6341.88
677.624	6599.92
677.814	6474.99
678.005	6417.65
678.195	6526.19
678.386	6419.7
678.576	6378.74
678.767	6397.17
678.957	6395.12
679.148	6511.86
679.338	6292.73
679.529	6262.01
679.719	6132.98
679.909	6284.53
680.1	6049.02
680.29	6321.4
680.481	6159.61
680.671	6319.35
680.861	6245.62
681.052	6241.53
681.242	6057.21
681.432	6270.2
681.622	6278.39
681.813	6046.97
682.003	6024.44
682.193	6102.26
682.383	6270.2
682.573	5993.72
682.764	6114.55
682.954	6210.81
683.144	6196.47
683.334	6067.45
683.524	5958.91
683.714	5903.61
683.904	5852.41
684.094	6155.51
684.284	5850.36
684.474	6098.17
684.664	5829.88
684.854	5958.91
685.044	5965.05
685.234	5833.98
685.424	5940.47
685.614	5729.53
685.804	5819.64
685.994	5799.16
686.184	5819.64
686.374	5813.5
686.564	5825.79
686.753	5819.64
686.943	5717.25
687.133	5625.09
687.323	5623.04
687.513	5666.05
687.702	5573.89
687.892	5719.29
688.082	5526.78
688.272	5537.02
688.461	5612.8
688.651	5555.46
688.841	5309.7
689.03	5530.88
689.22	5395.72
689.41	5510.4
689.599	5426.43
689.789	5387.52
689.979	5231.88
690.168	5231.88
690.358	5078.28
690.547	5244.17
690.737	5152.01
690.926	5123.34
691.116	5039.37
691.305	5336.32
691.495	5037.32
691.684	5096.71
691.874	5174.53
692.063	4947.21
692.252	4928.78
692.442	4910.35
692.631	5068.04
692.82	4998.41
693.01	4836.62
693.199	4740.36
693.388	4736.27
693.578	4789.52
693.767	4816.14
693.956	4824.33
694.146	4740.36
694.335	4877.58
694.524	4621.58
694.713	4844.81
694.902	4654.35
695.092	4603.15
695.281	4650.25
695.47	4805.9
695.659	4637.97
695.848	4529.42
696.037	4502.8
696.226	4580.62
696.415	4515.09
696.604	4568.34
696.793	4558.1
696.982	4601.1
697.171	4574.48
697.36	4420.88
697.549	4412.69
697.738	4443.41
697.927	4398.35
698.116	4478.23
698.305	4521.23
698.494	4629.77
698.683	4416.79
698.872	4461.84
699.061	4412.69
699.25	4257.04
699.438	4470.03
699.627	4363.54
699.816	4371.73
700.005	4345.11
700.193	4261.14
700.382	4281.62
700.571	4312.34
700.76	4320.53
700.948	4240.66
701.137	4209.94
701.326	4238.61
701.514	4093.21
701.703	4390.16
701.892	4187.41
702.08	4236.56
702.269	4287.76
702.457	4289.81
702.646	4330.77
702.834	4255
703.023	4166.93
703.212	4326.68
703.4	4109.59
703.589	4209.94
703.777	4289.81
703.965	4150.55
704.154	4255
704.342	4355.35
704.531	4082.97
704.719	4089.11
704.907	4252.95
705.096	4064.54
705.284	4218.13
705.472	4203.8
705.661	4302.1
705.849	4205.85
706.037	4171.03
706.226	4154.65
706.414	4017.43
706.602	4117.78
706.79	4220.18
706.979	4025.62
707.167	4189.46
707.355	4103.45
707.543	4146.45
707.731	4205.85
707.919	4130.07
708.107	3968.28
708.296	4066.58
708.484	4033.82
708.672	4082.97
708.86	4101.4
709.048	4162.84
709.236	4179.22
709.424	4183.32
709.612	4064.54
709.8	4033.82
709.988	3951.9
710.176	4234.52
710.364	4101.4
710.551	4144.41
710.739	4087.06
710.927	4209.94
711.115	4099.35
711.303	4138.26
711.491	4070.68
711.679	4029.72
711.866	4164.89
712.054	4123.93
712.242	4015.38
712.43	4179.22
712.617	4189.46
712.805	4050.2
712.993	4146.45
713.181	4066.58
713.368	4191.51
713.556	4179.22
713.744	4048.15
713.931	4052.25
714.119	4052.25
714.306	4113.69
714.494	4048.15
714.682	4050.2
714.869	3894.55
715.057	4042.01
715.244	3906.84
715.432	4199.7
715.619	4154.65
715.807	4207.89
715.994	3976.47
716.182	4093.21
716.369	4064.54
716.556	4226.32
716.744	4074.78
716.931	4265.24
717.119	4390.16
717.306	4054.3
717.493	4099.35
717.681	4056.34
717.868	4101.4
718.055	4068.63
718.242	4074.78
718.43	4246.8
718.617	4052.25
718.804	4242.71
718.991	4095.25
719.179	4140.31
719.366	4101.4
719.553	4130.07
719.74	3984.66
719.927	4111.64
720.114	4044.06
720.301	4099.35
720.488	4130.07
720.676	4123.93
720.863	4228.37
721.05	4105.49
721.237	4076.82
721.424	4046.1
721.611	4226.32
721.798	4089.11
721.985	4148.5
722.172	4048.15
722.358	4138.26
722.545	4011.29
722.732	4146.45
722.919	4189.46
723.106	4101.4
723.293	4089.11
723.48	4132.12
723.667	4287.76
723.853	4123.93
724.04	4257.04
724.227	4191.51
724.414	4156.69
724.6	4140.31
724.787	4357.39
724.974	4244.76
725.161	4177.17
725.347	4220.18
725.534	4234.52
725.72	4166.93
725.907	4367.63
726.094	4175.13
726.28	4250.9
726.467	4195.61
726.653	4252.95
726.84	4189.46
727.027	4341.01
727.213	4211.99
727.4	4177.17
727.586	4240.66
727.773	4343.06
727.959	4189.46
728.145	4203.8
728.332	4150.55
728.518	4160.79
728.705	4191.51
728.891	4201.75
729.077	4244.76
729.264	4263.19
729.45	4255
729.636	4244.76
729.823	3986.71
730.009	4252.95
730.195	4402.45
730.382	4404.5
730.568	4222.23
730.754	4095.25
730.94	4168.98
731.126	4275.48
731.313	4328.72
731.499	4306.2
731.685	4185.37
731.871	4357.39
732.057	4322.58
732.243	4422.93
732.429	4181.27
732.615	4222.23
732.801	4347.15
732.987	4193.56
733.173	4199.7
733.359	4275.48
733.545	4250.9
733.731	4326.68
733.917	4261.14
734.103	4177.17
734.289	4412.69
734.475	4273.43
734.661	4418.83
734.847	4207.89
735.033	4109.59
735.219	4236.56
735.404	4298
735.59	4365.59
735.776	4287.76
735.962	4322.58
736.148	4277.52
736.333	4312.34
736.519	4334.87
736.705	4152.6
736.89	4183.32
737.076	4171.03
737.262	4179.22
737.447	4293.91
737.633	4324.63
737.819	4211.99
738.004	4185.37
738.19	4191.51
738.375	4236.56
738.561	4367.63
738.747	4281.62
738.932	4121.88
739.118	4263.19
739.303	4394.26
739.489	4300.05
739.674	4113.69
739.859	4089.11
740.045	4177.17
740.23	4252.95
740.416	4189.46
740.601	4185.37
740.786	4033.82
740.972	4007.19
741.157	4068.63
741.342	4044.06
741.528	4154.65
741.713	4146.45
741.898	4015.38
742.084	4048.15
742.269	4035.86
742.454	4099.35
742.639	4099.35
742.824	4037.91
743.01	4060.44
743.195	4054.3
743.38	3949.85
743.565	3917.08
743.75	3857.69
743.935	3751.2
744.12	3933.47
744.305	3853.59
744.49	3773.72
744.675	3853.59
744.86	3740.96
745.045	3839.26
745.23	3872.03
745.415	3806.49
745.6	3882.27
745.785	3665.18
745.97	3796.25
746.155	3800.35
746.34	3794.2
746.525	3671.33
746.71	3654.94
746.895	3667.23
747.079	3753.24
747.264	3546.4
747.449	3616.03
747.634	3708.19
747.819	3609.89
748.003	3661.09
748.188	3607.84
748.373	3669.28
748.557	3466.53
748.742	3452.19
748.927	3544.35
749.111	3347.75
749.296	3368.23
749.481	3530.02
749.665	3390.75
749.85	3314.98
750.034	3374.37
750.219	3343.65
750.404	3167.52
750.588	3388.71
750.773	3278.12
750.957	3458.34
751.141	3214.63
751.326	3132.71
751.51	3085.61
751.695	3212.58
751.879	3202.34
752.064	3155.24
752.248	3147.05
752.432	3140.9
752.617	3163.43
752.801	3036.45
752.985	3099.94
753.17	3079.46
753.354	2907.43
753.538	3071.27
753.722	2899.24
753.907	3022.12
754.091	2880.81
754.275	2796.84
754.459	2774.31
754.643	2843.95
754.828	2782.51
755.012	2860.33
755.196	2743.6
755.38	2743.6
755.564	2721.07
755.748	2643.24
755.932	2766.12
756.116	2721.07
756.3	2686.25
756.484	2712.88
756.668	2667.82
756.852	2573.61
757.036	2596.14
757.22	2526.51
757.404	2393.39
757.588	2546.99
757.772	2532.65
757.956	2590
758.14	2471.22
758.323	2606.38
758.507	2448.69
758.691	2463.02
758.875	2485.55
759.059	2528.56
759.242	2485.55
759.426	2397.49
759.61	2374.96
759.794	2364.72
759.977	2413.87
760.161	2407.73
760.345	2264.37
760.528	2278.71
760.712	2403.63
760.895	2385.2
761.079	2334
761.263	2204.98
761.446	2180.4
761.63	2245.94
761.813	2311.47
761.997	2270.51
762.18	2166.07
762.364	2264.37
762.547	2133.3
762.731	2057.53
762.914	2030.9
763.098	2243.89
763.281	2184.5
763.464	2000.18
763.648	2053.43
763.831	2098.49
764.015	2125.11
764.198	2092.34
764.381	2114.87
764.564	2088.25
764.748	2188.6
764.931	2092.34
765.114	2086.2
765.297	2035
765.481	2016.57
765.664	1991.99
765.847	1938.74
766.03	1971.51
766.213	2041.14
766.397	2024.76
766.58	1940.79
766.763	2006.33
766.946	1877.3
767.129	1842.49
767.312	1948.98
767.495	1951.03
767.678	1871.16
767.861	1889.59
768.044	1731.9
768.227	1803.58
768.41	1832.25
768.593	1893.69
768.776	1817.91
768.959	1748.28
769.142	1998.13
769.324	1817.91
769.507	1905.98
769.69	1856.83
769.873	1729.85
770.056	1803.58
770.239	1678.65
770.421	1942.84
770.604	1836.35
770.787	1684.8
770.97	1686.84
771.152	1770.81
771.335	1715.52
771.518	1680.7
771.7	1713.47
771.883	1678.65
772.066	1625.4
772.248	1570.11
772.431	1664.32
772.613	1611.07
772.796	1598.78
772.978	1539.39
773.161	1654.08
773.343	1578.3
773.526	1600.83
773.708	1555.77
773.891	1611.07
774.073	1545.53
774.256	1535.29
774.438	1500.48
774.621	1551.68
774.803	1494.33
774.985	1475.9
775.168	1516.86
775.35	1572.16
775.532	1529.15
775.715	1473.85
775.897	1426.75
776.079	1353.02
776.261	1402.18
776.444	1449.28
776.626	1428.8
776.808	1369.41
776.99	1373.5
777.173	1455.42
777.355	1412.42
777.537	1381.7
777.719	1260.87
777.901	1353.02
778.083	1324.35
778.265	1191.24
778.447	1348.93
778.629	1262.91
778.811	1217.86
778.993	1244.48
779.175	1287.49
779.357	1248.58
779.539	1166.66
779.721	1295.68
779.903	1197.38
780.085	1211.71
780.267	1097.03
780.449	1197.38
780.631	1148.23
780.812	1123.65
780.994	1174.85
781.176	1221.95
781.358	1082.69
781.54	998.73
781.721	1189.19
781.903	1082.69
782.085	1105.22
782.267	1072.45
782.448	1035.59
782.63	1049.93
782.812	1023.3
782.993	1090.88
783.175	1049.93
783.357	953.67
783.538	1088.84
783.72	935.24
783.901	982.34
784.083	1019.21
784.264	1019.21
784.446	976.2
784.627	920.9
784.809	1023.3
784.99	879.94
785.172	945.48
785.353	857.42
785.535	910.66
785.716	838.98
785.897	865.61
786.079	832.84
786.26	961.86
786.441	834.89
786.623	804.17
786.804	849.22
786.985	863.56
787.167	886.09
787.348	814.41
787.529	793.93
787.71	918.86
787.891	888.14
788.073	824.65
788.254	853.32
788.435	871.75
788.616	738.63
788.797	769.35
788.978	718.15
789.159	689.48
789.34	812.36
789.522	800.07
789.703	720.2
789.884	769.35
790.065	726.35
790.246	795.98
790.427	748.87
790.607	781.64
790.788	769.35
790.969	703.82
791.15	632.14
791.331	748.87
791.512	683.34
791.693	699.72
791.874	734.54
792.054	689.48
792.235	720.2
792.416	671.05
792.597	640.33
792.778	664.91
792.958	752.97
793.139	603.47
793.32	660.81
793.5	607.56
793.681	664.91
793.862	615.76
794.042	671.05
794.223	603.47
794.404	656.72
794.584	570.7
794.765	529.74
794.945	533.84
795.126	654.67
795.306	619.85
795.487	617.8
795.667	519.5
795.848	544.08
796.028	603.47
796.209	550.22
796.389	658.76
796.57	546.12
796.75	585.04
796.93	585.04
797.111	474.45
797.291	599.37
797.471	597.32
797.652	560.46
797.832	499.02
798.012	523.6
798.192	496.97
798.373	490.83
798.553	480.59
798.733	488.78
798.913	486.73
799.093	460.11
799.274	525.65
799.454	568.65
799.634	492.88
799.814	535.89
799.994	484.69
800.174	490.83
800.354	447.82
800.534	380.24
800.714	460.11
800.894	419.15
801.074	443.73
801.254	386.38
801.434	445.77
801.614	492.88
801.794	515.41
801.974	1127.75
802.154	425.29
802.334	492.88
802.514	439.63
802.693	456.01
802.873	464.21
803.053	458.06
803.233	509.26
803.413	435.53
803.592	490.83
803.772	398.67
803.952	421.2
804.131	392.53
804.311	400.72
804.491	400.72
804.67	447.82
804.85	324.94
805.03	494.93
805.209	478.54
805.389	347.47
805.568	466.25
805.748	394.58
805.928	480.59
806.107	370
806.287	427.34
806.466	388.43
806.646	384.34
806.825	374.1
807.004	372.05
807.184	482.64
807.363	337.23
807.543	347.47
807.722	306.51
807.901	388.43
808.081	370
808.26	326.99
808.439	353.62
808.619	361.81
808.798	324.94
808.977	400.72
809.156	384.34
809.336	290.13
809.515	431.44
809.694	310.61
809.873	390.48
810.052	339.28
810.231	359.76
810.411	296.27
810.59	337.23
810.769	267.6
810.948	355.66
811.127	269.65
811.306	298.32
811.485	263.51
811.664	349.52
811.843	357.71
812.022	324.94
812.201	329.04
812.38	234.83
812.559	275.79
812.737	343.38
812.916	253.27
813.095	257.36
813.274	288.08
813.453	257.36
813.632	255.31
813.811	353.62
813.989	259.41
814.168	245.07
814.347	275.79
814.526	251.22
814.704	292.18
814.883	347.47
815.062	292.18
815.24	193.87
815.419	218.45
815.598	339.28
815.776	267.6
815.955	243.03
816.133	204.11
816.312	259.41
816.49	277.84
816.669	372.05
816.847	245.07
817.026	310.61
817.204	179.54
817.383	210.26
817.561	283.99
817.74	296.27
817.918	273.75
818.097	224.59
818.275	226.64
818.453	355.66
818.632	294.22
818.81	245.07
818.988	208.21
819.167	257.36
819.345	345.42
819.523	195.92
819.701	208.21
819.879	226.64
820.058	230.74
820.236	222.55
820.414	193.87
820.592	226.64
820.77	243.03
820.948	195.92
821.127	200.02
821.305	263.51
821.483	226.64
821.661	283.99
821.839	179.54
822.017	236.88
822.195	171.35
822.373	212.31
822.551	240.98
822.729	232.79
822.907	191.83
823.085	222.55
823.262	204.11
823.44	265.55
823.618	257.36
823.796	214.35
823.974	230.74
824.152	111.96
824.329	171.35
824.507	249.17
824.685	230.74
824.863	224.59
825.04	150.87
825.218	263.51
825.396	253.27
825.574	157.01
825.751	230.74
825.929	177.49
826.107	197.97
826.284	204.11
826.462	216.4
826.639	232.79
826.817	204.11
826.994	224.59
827.172	152.92
827.349	212.31
827.527	154.96
827.704	243.03
827.882	159.06
828.059	171.35
828.237	163.15
828.414	218.45
828.591	107.86
828.769	189.78
828.946	140.63
829.124	126.29
829.301	120.15
829.478	120.15
829.655	195.92
829.833	214.35
830.01	140.63
830.187	140.63
830.364	120.15
830.542	122.2
830.719	216.4
830.896	50.52
831.073	152.92
831.25	134.48
831.427	159.06
831.604	173.39
831.782	173.39
831.959	200.02
832.136	175.44
832.313	134.48
832.49	103.76
832.667	189.78
832.844	134.48
833.021	130.39
833.198	218.45
833.374	193.87
833.551	154.96
833.728	224.59
833.905	179.54
834.082	79.19
834.259	191.83
834.436	191.83
834.612	177.49
834.789	200.02
834.966	66.9
835.143	114
835.319	97.62
835.496	220.5
835.673	124.24
835.85	171.35
836.026	126.29
836.203	189.78
836.38	71
836.556	99.67
836.733	71
836.909	142.68
837.086	75.09
837.262	105.81
837.439	187.73
837.616	91.48
837.792	81.24
837.968	97.62
838.145	124.24
838.321	40.28
838.498	159.06
838.674	71
838.851	204.11
839.027	118.1
839.203	79.19
839.38	200.02
839.556	93.52
839.732	146.77
839.909	3.41
840.085	177.49
840.261	17.75
840.437	163.15
840.614	118.1
840.79	116.05
840.966	114
841.142	-12.97
841.318	27.99
841.494	202.07
841.671	157.01
841.847	91.48
842.023	91.48
842.199	157.01
842.375	120.15
842.551	136.53
842.727	85.33
842.903	140.63
843.079	48.47
843.255	195.92
843.431	103.76
843.607	152.92
843.783	5.46
843.959	144.72
844.134	105.81
844.31	150.87
844.486	17.75
844.662	68.95
844.838	58.71
845.013	120.15
845.189	111.96
845.365	103.76
845.541	54.61
845.716	120.15
845.892	-17.07
846.068	87.38
846.244	154.96
846.419	87.38
846.595	-2.73
846.77	48.47
846.946	126.29
847.122	71
847.297	157.01
847.473	85.33
847.648	-10.92
847.824	144.72
847.999	95.57
848.175	9.56
848.35	75.09
848.526	120.15
848.701	64.85
848.876	54.61
849.052	79.19
849.227	64.85
849.403	58.71
849.578	-10.92
849.753	21.85
849.929	140.63
850.104	-0.68
850.279	42.32
850.454	93.52
850.63	114
850.805	52.56
850.98	42.32
851.155	105.81
851.33	13.65
851.505	32.08
851.681	107.86
851.856	13.65
852.031	83.28
852.206	116.05
852.381	36.18
852.556	46.42
852.731	75.09
852.906	44.37
853.081	54.61
853.256	120.15
853.431	87.38
853.606	42.32
853.781	56.66
853.956	-19.11
854.131	54.61
854.305	27.99
854.48	83.28
854.655	36.18
854.83	48.47
855.005	25.94
855.18	81.24
855.354	-17.07
855.529	60.76
855.704	54.61
855.879	50.52
856.053	52.56
856.228	52.56
856.403	25.94
856.577	77.14
856.752	40.28
856.926	66.9
857.101	87.38
857.276	40.28
857.45	11.61
857.625	136.53
857.799	-10.92
857.974	-23.21
858.148	44.37
858.323	56.66
858.497	-2.73
858.672	73.04
858.846	66.9
859.02	91.48
859.195	83.28
859.369	23.89
859.543	93.52
859.718	79.19
859.892	140.63
860.066	95.57
860.241	136.53
860.415	-6.83
860.589	9.56
860.763	25.94
860.938	83.28
861.112	32.08
861.286	7.51
861.46	87.38
861.634	62.8
861.808	34.13
861.982	50.52
862.157	36.18
862.331	-35.5
862.505	-12.97
862.679	54.61
862.853	-2.73
863.027	13.65
863.201	68.95
863.375	23.89
863.549	21.85
863.722	111.96
863.896	34.13
864.07	42.32
864.244	66.9
864.418	36.18
864.592	38.23
864.766	-35.5
864.939	15.7
865.113	-43.69
865.287	124.24
865.461	-4.78
865.634	19.8
865.808	48.47
865.982	15.7
866.156	-8.87
866.329	1.37
866.503	71
866.676	54.61
866.85	40.28
867.024	-27.31
867.197	38.23
867.371	83.28
867.544	-37.55
867.718	32.08
867.891	46.42
868.065	56.66
868.238	11.61
868.412	109.91
868.585	27.99
868.759	93.52
868.932	23.89
869.105	58.71
869.279	128.34
869.452	-62.12
869.625	42.32
869.799	-39.59
869.972	83.28
870.145	62.8
870.319	56.66
870.492	19.8
870.665	9.56
870.838	-19.11
871.011	-15.02
871.185	75.09
871.358	5.46
871.531	58.71
871.704	-0.68
871.877	15.7
872.05	-43.69
872.223	3.41
872.396	81.24
872.569	44.37
872.742	-2.73
872.915	13.65
873.088	32.08
873.261	30.04
873.434	77.14
873.607	-10.92
873.78	62.8
873.953	-10.92
874.126	54.61
874.299	32.08
874.471	52.56
874.644	66.9
874.817	81.24
874.99	60.76
875.163	-33.45
875.335	46.42
875.508	-4.78
875.681	44.37
875.853	5.46
876.026	77.14
876.199	93.52
876.371	3.41
876.544	87.38
876.717	5.46
876.889	-27.31
877.062	-41.64
877.234	54.61
877.407	-29.35
877.579	40.28
877.752	-10.92
877.924	23.89
878.097	19.8
878.269	77.14
878.442	-6.83
878.614	11.61
878.786	34.13
878.959	-23.21
879.131	42.32
879.303	-49.83
879.476	-53.93
879.648	36.18
879.82	42.32
879.993	15.7
880.165	79.19
880.337	-37.55
880.509	46.42
880.681	-21.16
880.854	11.61
881.026	71
881.198	-15.02
881.37	-31.4
881.542	-0.68
881.714	64.85
881.886	34.13
882.058	64.85
882.23	21.85
882.402	66.9
882.574	71
882.746	81.24
882.918	77.14
883.09	-10.92
883.262	27.99
883.434	30.04
883.606	-19.11
883.778	-10.92
883.95	152.92
884.122	42.32
884.293	21.85
884.465	-27.31
884.637	52.56
884.809	-58.03
884.98	-41.64
885.152	79.19
885.324	73.04
885.496	-41.64
885.667	-6.83
885.839	-78.51
886.011	48.47
886.182	15.7
886.354	9.56
886.525	-2.73
886.697	-33.45
886.869	-17.07
887.04	-33.45
887.212	32.08
887.383	40.28
887.555	46.42
887.726	11.61
887.897	15.7
888.069	32.08
888.24	36.18
888.412	-4.78
888.583	-12.97
888.754	-0.68
888.926	-62.12
889.097	27.99
889.268	46.42
889.44	46.42
889.611	-53.93
889.782	-37.55
889.953	13.65
890.125	17.75
890.296	21.85
890.467	23.89
890.638	7.51
890.809	56.66
890.98	-0.68
891.151	30.04
891.323	136.53
891.494	-23.21
891.665	-25.26
891.836	-47.79
892.007	-21.16
892.178	-68.27
892.349	1.37
892.52	32.08
892.691	58.71
892.862	-15.02
893.032	-45.74
893.203	1.37
893.374	-15.02
893.545	-43.69
893.716	-8.87
893.887	34.13
894.057	-21.16
894.228	-37.55
894.399	60.76
894.57	64.85
894.74	-66.22
894.911	-55.98
895.082	7.51
895.253	13.65
895.423	1.37
895.594	58.71
895.764	-8.87
895.935	-62.12
896.106	48.47
896.276	19.8
896.447	32.08
896.617	-0.68
896.788	-55.98
896.958	-60.07
897.129	-2.73
897.299	-19.11
897.47	32.08
897.64	9.56
897.81	7.51
897.981	32.08
898.151	-39.59
898.322	71
898.492	30.04
898.662	-41.64
898.832	-68.27
899.003	23.89
899.173	62.8
899.343	-10.92
899.513	-49.83
