Data from USB4F104151__38__12-23-48-764.txt Node

Date: Fri Mar 14 12:23:48 EDT 2025
User: louis
Spectrometer: USB4F10415
Trigger mode: 4
Integration Time (sec): 3.500000E-2
Scans to average: 1
Electric dark correction enabled: true
Nonlinearity correction enabled: false
Boxcar width: 0
XAxis mode: Wavelengths
Number of Pixels in Spectrum: 3648
>>>>>Begin Spectral Data<<<<<
178.204	-100.35
178.424	-100.35
178.644	-100.35
178.864	-139.26
179.084	-96.25
179.304	26.62
179.524	-63.49
179.744	-96.25
179.964	45.06
180.184	30.72
180.404	-10.24
180.624	-20.48
180.844	-36.86
181.064	32.77
181.283	34.82
181.503	-4.1
181.723	61.44
181.943	-16.38
182.163	108.54
182.383	-22.53
182.602	63.49
182.822	75.77
183.042	61.44
183.262	-14.34
183.482	47.1
183.701	67.58
183.921	16.38
184.141	2.05
184.361	77.82
184.58	59.39
184.8	40.96
185.02	57.34
185.239	49.15
185.459	-36.86
185.679	38.91
185.898	-34.82
186.118	32.77
186.338	-40.96
186.557	-4.1
186.777	-61.44
186.997	67.58
187.216	6.14
187.436	122.88
187.655	2.05
187.875	155.65
188.095	79.87
188.314	22.53
188.534	-14.34
188.753	-67.58
188.973	75.77
189.192	18.43
189.412	69.63
189.631	-20.48
189.851	81.92
190.07	59.39
190.29	22.53
190.509	-2.05
190.729	6.14
190.948	90.11
191.168	114.69
191.387	71.68
191.607	24.58
191.826	32.77
192.045	75.77
192.265	63.49
192.484	40.96
192.704	83.97
192.923	-71.68
193.142	182.27
193.362	6.14
193.581	14.34
193.8	28.67
194.02	34.82
194.239	18.43
194.458	-34.82
194.678	59.39
194.897	86.01
195.116	-55.3
195.335	-57.34
195.555	32.77
195.774	14.34
195.993	114.69
196.212	-18.43
196.432	6.14
196.651	55.3
196.87	53.25
197.089	86.01
197.308	40.96
197.528	34.82
197.747	-4.1
197.966	81.92
198.185	79.87
198.404	-47.1
198.623	30.72
198.842	81.92
199.062	104.45
199.281	112.64
199.5	16.38
199.719	38.91
199.938	-8.19
200.157	45.06
200.376	53.25
200.595	67.58
200.814	32.77
201.033	36.86
201.252	79.87
201.471	75.77
201.69	139.26
201.909	86.01
202.128	24.58
202.347	75.77
202.566	12.29
202.785	30.72
203.004	-10.24
203.223	108.54
203.442	-20.48
203.661	53.25
203.879	61.44
204.098	94.21
204.317	36.86
204.536	57.34
204.755	-14.34
204.974	77.82
205.193	4.1
205.411	86.01
205.63	83.97
205.849	98.3
206.068	53.25
206.287	32.77
206.505	102.4
206.724	90.11
206.943	-34.82
207.162	79.87
207.381	14.34
207.599	-20.48
207.818	104.45
208.037	-30.72
208.255	96.25
208.474	92.16
208.693	34.82
208.911	6.14
209.13	90.11
209.349	90.11
209.567	49.15
209.786	55.3
210.005	65.53
210.223	40.96
210.442	-94.21
210.661	28.67
210.879	86.01
211.098	32.77
211.316	69.63
211.535	43.01
211.753	24.58
211.972	90.11
212.191	73.73
212.409	43.01
212.628	114.69
212.846	16.38
213.065	43.01
213.283	110.59
213.502	53.25
213.72	-2.05
213.938	67.58
214.157	14.34
214.375	-4.1
214.594	34.82
214.812	49.15
215.031	65.53
215.249	26.62
215.467	18.43
215.686	-14.34
215.904	94.21
216.122	59.39
216.341	-2.05
216.559	-45.06
216.778	79.87
216.996	67.58
217.214	-40.96
217.432	38.91
217.651	61.44
217.869	51.2
218.087	61.44
218.306	43.01
218.524	51.2
218.742	-10.24
218.96	75.77
219.179	79.87
219.397	26.62
219.615	133.12
219.833	86.01
220.051	14.34
220.27	16.38
220.488	6.14
220.706	14.34
220.924	53.25
221.142	10.24
221.36	40.96
221.578	4.1
221.796	18.43
222.015	20.48
222.233	28.67
222.451	102.4
222.669	2.05
222.887	81.92
223.105	-53.25
223.323	-18.43
223.541	14.34
223.759	40.96
223.977	4.1
224.195	79.87
224.413	47.1
224.631	30.72
224.849	14.34
225.067	51.2
225.285	14.34
225.503	28.67
225.721	-14.34
225.939	-67.58
226.157	38.91
226.375	92.16
226.592	77.82
226.81	-18.43
227.028	55.3
227.246	75.77
227.464	-14.34
227.682	53.25
227.9	-22.53
228.117	65.53
228.335	86.01
228.553	22.53
228.771	43.01
228.989	100.35
229.206	75.77
229.424	-14.34
229.642	14.34
229.86	40.96
230.077	73.73
230.295	8.19
230.513	36.86
230.731	92.16
230.948	63.49
231.166	98.3
231.384	8.19
231.601	-20.48
231.819	47.1
232.037	22.53
232.254	65.53
232.472	34.82
232.689	4.1
232.907	38.91
233.125	38.91
233.342	34.82
233.56	-34.82
233.777	-12.29
233.995	53.25
234.213	141.31
234.43	83.97
234.648	10.24
234.865	-40.96
235.083	45.06
235.3	-20.48
235.518	51.2
235.735	118.78
235.953	36.86
236.17	-14.34
236.388	-12.29
236.605	6.14
236.822	6.14
237.04	100.35
237.257	-26.62
237.475	-22.53
237.692	53.25
237.909	32.77
238.127	-18.43
238.344	51.2
238.562	24.58
238.779	26.62
238.996	6.14
239.214	-47.1
239.431	18.43
239.648	75.77
239.865	77.82
240.083	53.25
240.3	67.58
240.517	10.24
240.735	45.06
240.952	79.87
241.169	14.34
241.386	88.06
241.603	36.86
241.821	-4.1
242.038	26.62
242.255	81.92
242.472	24.58
242.689	30.72
242.907	-77.82
243.124	-2.05
243.341	8.19
243.558	61.44
243.775	20.48
243.992	-18.43
244.209	86.01
244.426	94.21
244.643	71.68
244.86	14.34
245.078	51.2
245.295	30.72
245.512	133.12
245.729	24.58
245.946	67.58
246.163	90.11
246.38	43.01
246.597	28.67
246.814	22.53
247.031	49.15
247.248	24.58
247.464	59.39
247.681	10.24
247.898	38.91
248.115	26.62
248.332	32.77
248.549	75.77
248.766	77.82
248.983	94.21
249.2	75.77
249.417	106.49
249.633	112.64
249.85	75.77
250.067	12.29
250.284	90.11
250.501	22.53
250.717	40.96
250.934	55.3
251.151	-14.34
251.368	-0
251.585	36.86
251.801	81.92
252.018	-24.58
252.235	102.4
252.451	-0
252.668	2.05
252.885	149.5
253.102	69.63
253.318	-26.62
253.535	59.39
253.752	-26.62
253.968	59.39
254.185	30.72
254.401	79.87
254.618	26.62
254.835	-24.58
255.051	51.2
255.268	-14.34
255.484	63.49
255.701	106.49
255.917	43.01
256.134	30.72
256.351	4.1
256.567	88.06
256.784	16.38
257	-57.34
257.217	-18.43
257.433	139.26
257.65	20.48
257.866	61.44
258.082	-4.1
258.299	34.82
258.515	88.06
258.732	2.05
258.948	16.38
259.165	71.68
259.381	-22.53
259.597	45.06
259.814	22.53
260.03	53.25
260.246	96.25
260.463	96.25
260.679	110.59
260.895	26.62
261.112	-4.1
261.328	18.43
261.544	100.35
261.761	69.63
261.977	12.29
262.193	16.38
262.409	71.68
262.626	6.14
262.842	26.62
263.058	2.05
263.274	-28.67
263.49	12.29
263.707	4.1
263.923	55.3
264.139	-16.38
264.355	12.29
264.571	30.72
264.787	94.21
265.004	90.11
265.22	61.44
265.436	86.01
265.652	28.67
265.868	69.63
266.084	32.77
266.3	22.53
266.516	65.53
266.732	38.91
266.948	26.62
267.164	40.96
267.38	26.62
267.596	69.63
267.812	114.69
268.028	110.59
268.244	32.77
268.46	34.82
268.676	71.68
268.892	143.36
269.108	-26.62
269.324	86.01
269.54	-4.1
269.756	153.6
269.972	-16.38
270.188	40.96
270.403	12.29
270.619	75.77
270.835	45.06
271.051	24.58
271.267	28.67
271.483	69.63
271.698	32.77
271.914	67.58
272.13	65.53
272.346	43.01
272.562	-16.38
272.777	-4.1
272.993	-0
273.209	34.82
273.425	133.12
273.64	12.29
273.856	30.72
274.072	61.44
274.287	2.05
274.503	49.15
274.719	40.96
274.934	26.62
275.15	-14.34
275.366	47.1
275.581	28.67
275.797	10.24
276.012	28.67
276.228	49.15
276.444	-16.38
276.659	12.29
276.875	63.49
277.09	43.01
277.306	26.62
277.521	92.16
277.737	14.34
277.952	77.82
278.168	16.38
278.383	55.3
278.599	88.06
278.814	143.36
279.03	79.87
279.245	137.21
279.461	43.01
279.676	124.93
279.892	2.05
280.107	47.1
280.322	45.06
280.538	-14.34
280.753	-0
280.969	94.21
281.184	28.67
281.399	100.35
281.615	81.92
281.83	22.53
282.045	6.14
282.26	20.48
282.476	73.73
282.691	69.63
282.906	22.53
283.122	102.4
283.337	8.19
283.552	-2.05
283.767	-10.24
283.983	61.44
284.198	28.67
284.413	75.77
284.628	4.1
284.843	34.82
285.058	-0
285.274	16.38
285.489	98.3
285.704	61.44
285.919	14.34
286.134	-30.72
286.349	12.29
286.564	16.38
286.779	71.68
286.995	-22.53
287.21	-18.43
287.425	-12.29
287.64	-30.72
287.855	24.58
288.07	45.06
288.285	69.63
288.5	88.06
288.715	36.86
288.93	55.3
289.145	-43.01
289.36	96.25
289.575	14.34
289.79	28.67
290.004	10.24
290.219	118.78
290.434	18.43
290.649	71.68
290.864	32.77
291.079	36.86
291.294	16.38
291.509	59.39
291.724	75.77
291.938	43.01
292.153	36.86
292.368	-4.1
292.583	83.97
292.798	40.96
293.012	22.53
293.227	30.72
293.442	34.82
293.657	47.1
293.871	77.82
294.086	71.68
294.301	92.16
294.516	124.93
294.73	86.01
294.945	-40.96
295.16	4.1
295.374	110.59
295.589	81.92
295.804	59.39
296.018	49.15
296.233	124.93
296.447	32.77
296.662	51.2
296.877	34.82
297.091	114.69
297.306	53.25
297.52	26.62
297.735	8.19
297.949	-18.43
298.164	-14.34
298.378	4.1
298.593	-12.29
298.807	12.29
299.022	106.49
299.236	73.73
299.451	-0
299.665	26.62
299.88	34.82
300.094	75.77
300.309	8.19
300.523	65.53
300.737	-55.3
300.952	43.01
301.166	-20.48
301.381	-10.24
301.595	-14.34
301.809	92.16
302.024	55.3
302.238	32.77
302.452	49.15
302.667	10.24
302.881	34.82
303.095	-0
303.309	90.11
303.524	-4.1
303.738	-6.14
303.952	-65.54
304.166	81.92
304.381	40.96
304.595	161.79
304.809	81.92
305.023	16.38
305.237	28.67
305.452	-22.53
305.666	36.86
305.88	100.35
306.094	20.48
306.308	36.86
306.522	34.82
306.736	59.39
306.95	55.3
307.164	-14.34
307.379	69.63
307.593	59.39
307.807	92.16
308.021	61.44
308.235	51.2
308.449	-2.05
308.663	73.73
308.877	120.83
309.091	36.86
309.305	6.14
309.519	-40.96
309.733	53.25
309.947	18.43
310.161	67.58
310.374	100.35
310.588	139.26
310.802	36.86
311.016	20.48
311.23	32.77
311.444	-4.1
311.658	59.39
311.872	92.16
312.085	75.77
312.299	18.43
312.513	161.79
312.727	40.96
312.941	-0
313.154	51.2
313.368	28.67
313.582	36.86
313.796	-38.91
314.009	75.77
314.223	49.15
314.437	14.34
314.651	86.01
314.864	20.48
315.078	2.05
315.292	20.48
315.505	45.06
315.719	14.34
315.933	43.01
316.146	-28.67
316.36	6.14
316.573	71.68
316.787	49.15
317.001	34.82
317.214	16.38
317.428	53.25
317.641	-16.38
317.855	-40.96
318.068	131.07
318.282	86.01
318.495	114.69
318.709	106.49
318.922	104.45
319.136	67.58
319.349	36.86
319.563	61.44
319.776	40.96
319.99	26.62
320.203	14.34
320.417	-4.1
320.63	24.58
320.843	4.1
321.057	-12.29
321.27	81.92
321.483	55.3
321.697	83.97
321.91	100.35
322.124	71.68
322.337	98.3
322.55	-36.86
322.763	63.49
322.977	92.16
323.19	71.68
323.403	45.06
323.617	71.68
323.83	36.86
324.043	10.24
324.256	2.05
324.469	-0
324.683	26.62
324.896	-10.24
325.109	20.48
325.322	10.24
325.535	30.72
325.748	90.11
325.962	-120.83
326.175	73.73
326.388	69.63
326.601	108.54
326.814	79.87
327.027	-0
327.24	40.96
327.453	-61.44
327.666	14.34
327.879	30.72
328.092	122.88
328.305	12.29
328.518	26.62
328.731	14.34
328.944	71.68
329.157	32.77
329.37	32.77
329.583	34.82
329.796	83.97
330.009	16.38
330.222	73.73
330.435	73.73
330.648	69.63
330.861	53.25
331.073	83.97
331.286	22.53
331.499	98.3
331.712	6.14
331.925	96.25
332.138	-10.24
332.35	55.3
332.563	-12.29
332.776	81.92
332.989	81.92
333.202	120.83
333.414	129.02
333.627	53.25
333.84	28.67
334.053	79.87
334.265	53.25
334.478	63.49
334.691	118.78
334.903	-2.05
335.116	40.96
335.329	28.67
335.541	61.44
335.754	75.77
335.966	38.91
336.179	32.77
336.392	8.19
336.604	28.67
336.817	34.82
337.029	106.49
337.242	32.77
337.454	24.58
337.667	51.2
337.88	22.53
338.092	-0
338.305	106.49
338.517	-8.19
338.729	4.1
338.942	126.97
339.154	98.3
339.367	18.43
339.579	24.58
339.792	2.05
340.004	92.16
340.217	40.96
340.429	36.86
340.641	-12.29
340.854	-8.19
341.066	77.82
341.278	135.17
341.491	139.26
341.703	22.53
341.915	-8.19
342.128	16.38
342.34	24.58
342.552	112.64
342.764	34.82
342.977	24.58
343.189	92.16
343.401	51.2
343.613	-22.53
343.826	126.97
344.038	14.34
344.25	34.82
344.462	-8.19
344.674	69.63
344.886	55.3
345.099	47.1
345.311	124.93
345.523	133.12
345.735	-18.43
345.947	43.01
346.159	-12.29
346.371	98.3
346.583	36.86
346.795	-4.1
347.007	26.62
347.219	20.48
347.431	16.38
347.643	26.62
347.855	79.87
348.067	133.12
348.279	47.1
348.491	14.34
348.703	71.68
348.915	-18.43
349.127	51.2
349.339	-24.58
349.551	43.01
349.763	43.01
349.975	73.73
350.187	45.06
350.399	51.2
350.61	20.48
350.822	12.29
351.034	32.77
351.246	71.68
351.458	36.86
351.669	2.05
351.881	67.58
352.093	43.01
352.305	83.97
352.517	86.01
352.728	73.73
352.94	4.1
353.152	122.88
353.363	4.1
353.575	61.44
353.787	30.72
353.999	12.29
354.21	69.63
354.422	8.19
354.633	102.4
354.845	22.53
355.057	51.2
355.268	40.96
355.48	59.39
355.692	69.63
355.903	-10.24
356.115	40.96
356.326	-6.14
356.538	135.17
356.749	83.97
356.961	96.25
357.172	94.21
357.384	53.25
357.595	131.07
357.807	104.45
358.018	59.39
358.23	55.3
358.441	126.97
358.653	102.4
358.864	92.16
359.075	30.72
359.287	55.3
359.498	94.21
359.709	73.73
359.921	47.1
360.132	96.25
360.344	-18.43
360.555	-0
360.766	18.43
360.977	40.96
361.189	75.77
361.4	2.05
361.611	79.87
361.823	51.2
362.034	49.15
362.245	-14.34
362.456	59.39
362.667	16.38
362.879	24.58
363.09	38.91
363.301	69.63
363.512	126.97
363.723	14.34
363.935	61.44
364.146	-49.15
364.357	77.82
364.568	124.93
364.779	-12.29
364.99	108.54
365.201	10.24
365.412	110.59
365.623	-4.1
365.834	96.25
366.045	67.58
366.256	79.87
366.467	73.73
366.678	61.44
366.889	24.58
367.1	61.44
367.311	47.1
367.522	71.68
367.733	30.72
367.944	57.34
368.155	51.2
368.366	106.49
368.577	77.82
368.788	94.21
368.999	16.38
369.209	104.45
369.42	110.59
369.631	122.88
369.842	81.92
370.053	47.1
370.264	135.17
370.474	47.1
370.685	43.01
370.896	47.1
371.107	145.41
371.317	53.25
371.528	-4.1
371.739	38.91
371.95	67.58
372.16	55.3
372.371	32.77
372.582	61.44
372.792	40.96
373.003	133.12
373.214	88.06
373.424	-8.19
373.635	14.34
373.846	63.49
374.056	40.96
374.267	49.15
374.477	40.96
374.688	26.62
374.898	53.25
375.109	71.68
375.319	43.01
375.53	63.49
375.74	96.25
375.951	30.72
376.161	53.25
376.372	129.02
376.582	71.68
376.793	28.67
377.003	12.29
377.214	61.44
377.424	75.77
377.635	124.93
377.845	-51.2
378.055	77.82
378.266	-14.34
378.476	40.96
378.686	-47.1
378.897	-8.19
379.107	71.68
379.317	73.73
379.528	53.25
379.738	71.68
379.948	-16.38
380.158	71.68
380.369	40.96
380.579	38.91
380.789	2.05
380.999	26.62
381.21	83.97
381.42	133.12
381.63	88.06
381.84	135.17
382.05	94.21
382.261	14.34
382.471	151.55
382.681	129.02
382.891	151.55
383.101	26.62
383.311	98.3
383.521	30.72
383.731	100.35
383.941	-2.05
384.151	59.39
384.361	98.3
384.571	26.62
384.781	94.21
384.991	71.68
385.201	86.01
385.411	18.43
385.621	55.3
385.831	106.49
386.041	36.86
386.251	51.2
386.461	59.39
386.671	14.34
386.881	174.08
387.091	12.29
387.301	122.88
387.511	59.39
387.72	124.93
387.93	118.78
388.14	-14.34
388.35	83.97
388.56	184.32
388.769	71.68
388.979	83.97
389.189	55.3
389.399	47.1
389.609	118.78
389.818	124.93
390.028	83.97
390.238	53.25
390.447	55.3
390.657	10.24
390.867	32.77
391.076	-28.67
391.286	139.26
391.496	149.5
391.705	32.77
391.915	18.43
392.125	59.39
392.334	59.39
392.544	79.87
392.753	53.25
392.963	90.11
393.172	55.3
393.382	32.77
393.591	110.59
393.801	108.54
394.01	190.46
394.22	106.49
394.429	73.73
394.639	120.83
394.848	147.45
395.058	4.1
395.267	77.82
395.477	79.87
395.686	104.45
395.895	204.8
396.105	112.64
396.314	90.11
396.524	63.49
396.733	26.62
396.942	145.41
397.152	90.11
397.361	178.17
397.57	108.54
397.78	100.35
397.989	83.97
398.198	147.45
398.407	114.69
398.617	98.3
398.826	155.65
399.035	102.4
399.244	182.27
399.453	47.1
399.663	176.13
399.872	157.69
400.081	94.21
400.29	161.79
400.499	57.34
400.708	163.84
400.917	126.97
401.127	73.73
401.336	73.73
401.545	147.45
401.754	153.6
401.963	215.04
402.172	69.63
402.381	133.12
402.59	100.35
402.799	139.26
403.008	145.41
403.217	104.45
403.426	75.77
403.635	69.63
403.844	45.06
404.053	176.13
404.262	104.45
404.471	249.85
404.68	96.25
404.888	126.97
405.097	151.55
405.306	133.12
405.515	122.88
405.724	147.45
405.933	167.93
406.142	126.97
406.35	139.26
406.559	133.12
406.768	149.5
406.977	278.52
407.185	210.94
407.394	153.6
407.603	90.11
407.812	198.65
408.02	212.99
408.229	225.28
408.438	192.51
408.646	198.65
408.855	247.8
409.064	305.15
409.272	270.33
409.481	223.23
409.69	196.6
409.898	249.85
410.107	253.95
410.315	327.67
410.524	264.19
410.733	352.25
410.941	282.62
411.15	354.3
411.358	344.06
411.567	364.54
411.775	411.64
411.984	323.58
412.192	397.31
412.401	348.15
412.609	456.7
412.818	387.07
413.026	452.6
413.234	423.93
413.443	534.52
413.651	438.27
413.86	493.56
414.068	516.09
414.276	614.39
414.485	499.7
414.693	591.86
414.901	657.4
415.11	544.76
415.318	610.29
415.526	622.58
415.734	684.02
415.943	679.93
416.151	815.09
416.359	727.03
416.567	741.36
416.776	727.03
416.984	901.11
417.192	929.78
417.4	845.81
417.608	901.11
417.817	843.76
418.025	950.26
418.233	1040.37
418.441	983.02
418.649	1060.85
418.857	1196.01
419.065	1191.92
419.273	1103.86
419.481	1204.21
419.689	1210.35
419.897	1247.21
420.105	1312.75
420.313	1443.82
420.521	1497.07
420.729	1376.23
420.937	1449.96
421.145	1515.5
421.353	1662.95
421.561	1714.15
421.769	1734.63
421.977	1873.89
422.185	1796.07
422.393	1884.13
422.601	2105.31
422.809	2031.58
423.017	2009.06
423.224	2052.06
423.432	2115.55
423.64	2254.81
423.848	2455.51
424.056	2377.69
424.263	2562.01
424.471	2469.85
424.679	2625.5
424.887	2717.65
425.094	2871.25
425.302	2768.85
425.51	2809.81
425.718	2983.89
425.925	2879.44
426.133	3223.5
426.341	3243.98
426.548	3373
426.756	3413.96
426.964	3545.03
427.171	3715.02
427.379	3702.73
427.586	3858.37
427.794	3977.16
428.001	4196.29
428.209	4325.31
428.417	4302.78
428.624	4462.52
428.832	4513.72
429.039	4575.16
429.247	4544.44
429.454	5121.97
429.662	5289.9
429.869	5042.1
430.076	5429.17
430.284	5042.1
430.491	5474.22
430.699	5744.55
430.906	5586.86
431.114	5826.47
431.321	6037.41
431.528	5961.64
431.736	6465.44
431.943	6832.02
432.15	6668.19
432.358	6576.03
432.565	7071.64
432.772	7034.77
432.979	7520.14
433.187	7395.22
433.394	7407.5
433.601	7976.84
433.808	7999.37
434.016	8023.94
434.223	8288.13
434.43	8980.34
434.637	8791.93
434.844	9199.48
435.052	9260.91
435.259	9258.87
435.466	9559.92
435.673	9549.68
435.88	10063.72
436.087	10514.27
436.294	10684.25
436.501	10223.46
436.708	10473.31
436.915	11036.5
437.122	11480.91
437.329	11284.31
437.537	11566.93
437.743	11728.72
437.95	11761.48
438.157	12490.56
438.364	12728.13
438.571	12785.47
438.778	13035.32
438.985	14288.68
439.192	13442.87
439.399	13961
439.606	13741.87
439.813	14513.95
440.02	15310.61
440.227	15177.5
440.433	15025.95
440.64	15367.96
440.847	15240.98
441.054	15650.58
441.261	16539.4
441.467	16322.31
441.674	16875.26
441.881	17381.11
442.088	17635.06
442.294	17012.48
442.501	17620.72
442.708	18278.12
442.914	18679.52
443.121	19705.56
443.328	18876.13
443.534	20506.31
443.741	20086.48
443.948	19287.77
444.154	21151.42
444.361	21079.74
444.568	21149.37
444.774	21182.14
444.981	21524.15
445.187	21888.69
445.394	22826.66
445.6	22636.2
445.807	24716.93
446.013	23428.76
446.22	24389.26
446.426	25151.1
446.633	25495.16
446.839	26209.9
447.046	25185.92
447.252	26576.49
447.459	26762.86
447.665	26445.42
447.871	27248.22
448.078	28874.31
448.284	27641.43
448.491	28026.45
448.697	29300.29
448.903	29462.08
449.11	29935.16
449.316	29158.98
449.522	29914.68
449.728	30735.91
449.935	30928.42
450.141	30854.7
450.347	31372.83
450.553	30379.57
450.76	30946.86
450.966	32290.32
451.172	31544.86
451.378	32859.66
451.584	31966.74
451.791	32568.85
451.997	32378.39
452.203	33465.86
452.409	33508.86
452.615	32853.51
452.821	31565.34
453.027	31241.76
453.233	32917
453.44	31995.42
453.646	32044.57
453.852	31815.19
454.058	32714.25
454.264	31624.73
454.47	32286.23
454.676	31712.8
454.882	32548.37
455.088	29834.81
455.294	30125.62
455.5	30774.83
455.705	30873.13
455.911	29916.73
456.117	29120.07
456.323	28663.37
456.529	26932.84
456.735	28259.92
456.941	27612.76
457.147	27115.11
457.352	26170.99
457.558	26109.55
457.764	26175.09
457.97	25849.46
458.176	24985.22
458.381	25052.8
458.587	23807.64
458.793	23690.9
458.999	22527.66
459.204	24379.02
459.41	23346.84
459.616	22046.38
459.821	21683.89
460.027	21923.51
460.233	21499.58
460.438	20184.78
460.644	20414.15
460.85	19531.48
461.055	19465.94
461.261	19404.5
461.466	17690.35
461.672	17446.65
461.878	18470.63
462.083	17288.95
462.289	16908.03
462.494	16824.06
462.7	16039.69
462.905	15689.49
463.111	16367.37
463.316	16420.61
463.522	15922.96
463.727	16029.45
463.932	15755.02
464.138	15701.78
464.343	15730.45
464.549	15390.49
464.754	15902.48
464.959	15822.61
465.165	15572.75
465.37	14952.22
465.575	14460.71
465.781	15189.78
465.986	15144.73
466.191	14569.25
466.397	14176.04
466.602	13465.39
466.807	14083.88
467.012	14479.14
467.218	14049.07
467.423	13848.36
467.628	14083.88
467.833	14640.93
468.038	14038.83
468.244	13829.93
468.449	14087.98
468.654	13705.01
468.859	13702.96
469.064	13770.54
469.269	12963.64
469.474	12924.73
469.679	13508.4
469.885	13006.65
470.09	13340.47
470.295	13045.56
470.5	12554.05
470.705	12795.71
470.91	12609.34
471.115	12629.82
471.32	12664.64
471.525	12619.58
471.73	12275.52
471.935	12097.35
472.139	11736.91
472.344	12027.72
472.549	11814.73
472.754	11706.19
472.959	11272.02
473.164	11296.6
473.369	11239.25
473.574	11310.93
473.778	11304.79
473.983	11093.85
474.188	11138.9
474.393	10651.49
474.598	10850.14
474.802	10514.27
475.007	10573.66
475.212	10590.05
475.417	10327.91
475.621	10200.93
475.826	10385.25
476.031	9967.46
476.235	9897.83
476.44	9983.85
476.645	9838.44
476.849	9795.43
477.054	9856.87
477.259	9572.21
477.463	9592.69
477.668	9400.18
477.872	9420.66
478.077	9361.27
478.282	9146.23
478.486	8963.96
478.691	8984.44
478.895	8793.98
479.1	8892.28
479.304	8865.66
479.509	8439.68
479.713	8828.79
479.918	8560.51
480.122	8351.62
480.326	8492.93
480.531	8355.71
480.735	8554.37
480.94	8511.36
481.144	8638.33
481.348	8036.23
481.553	8408.96
481.757	8132.48
481.961	8341.38
482.166	8372.1
482.37	8019.85
482.574	8259.46
482.778	8202.11
482.983	8441.73
483.187	8232.83
483.391	8167.3
483.595	8042.37
483.8	8103.81
484.004	8359.81
484.208	8284.03
484.412	8308.61
484.616	8120.2
484.821	8146.82
485.025	8099.72
485.229	8456.06
485.433	8222.59
485.637	8073.09
485.841	7989.13
486.045	8218.5
486.249	8241.03
486.453	8134.53
486.657	8204.16
486.861	8245.12
487.065	8032.13
487.269	8036.23
487.473	8103.81
487.677	8198.02
487.881	8433.54
488.085	8114.05
488.289	8212.35
488.493	8142.72
488.697	8255.36
488.901	8073.09
489.105	8185.73
489.309	8249.22
489.512	8226.69
489.716	8331.14
489.92	8253.31
490.124	8406.91
490.328	8621.95
490.531	8394.62
490.735	8527.74
490.939	8365.95
491.143	8521.6
491.346	8482.69
491.55	8552.32
491.754	8628.09
491.958	8566.65
492.161	8464.25
492.365	8580.99
492.569	8556.41
492.772	8658.81
492.976	8849.27
493.18	8963.96
493.383	8957.82
493.587	8896.38
493.79	8980.34
493.994	8892.28
494.197	8957.82
494.401	8976.25
494.605	9097.08
494.808	9316.21
495.012	9176.95
495.215	9361.27
495.419	9320.31
495.622	9502.57
495.825	9621.36
496.029	9574.25
496.232	9740.14
496.436	9695.08
496.639	9877.35
496.843	9996.14
497.046	10172.26
497.249	10313.57
497.453	10375.01
497.656	10266.47
497.859	10450.78
498.063	10516.32
498.266	10805.08
498.469	10647.39
498.673	10934.11
498.876	10829.66
499.079	11104.09
499.282	11339.6
499.485	11693.9
499.689	11456.34
499.892	11601.74
500.095	11775.82
500.298	11878.22
500.501	11779.92
500.705	12230.47
500.908	12298.05
501.111	12324.68
501.314	12488.51
501.517	12758.85
501.72	12842.81
501.923	12785.47
502.126	13068.09
502.329	13115.19
502.532	13254.45
502.735	13428.53
502.938	13795.12
503.141	13653.81
503.344	14147.37
503.547	13801.26
503.75	14137.13
503.953	14597.92
504.156	14636.83
504.359	15048.47
504.562	14612.26
504.765	15050.52
504.968	15058.71
505.17	15296.28
505.373	15378.2
505.576	15470.36
505.779	16099.08
505.982	15988.49
506.185	16344.84
506.387	16473.86
506.59	16434.95
506.793	16948.99
506.996	16686.85
507.198	17260.28
507.401	17526.52
507.604	17489.65
507.807	17833.71
508.009	18151.15
508.212	18087.66
508.415	18312.94
508.617	18552.55
508.82	18505.45
509.022	18814.69
509.225	19080.92
509.428	19384.02
509.63	19619.54
509.833	19377.88
510.035	20137.68
510.238	20025.04
510.44	20602.57
510.643	20672.2
510.845	20731.59
511.048	20702.92
511.25	21049.02
511.453	21272.25
511.655	21950.13
511.858	21546.68
512.06	22073.01
512.262	22030
512.465	22195.89
512.667	22578.86
512.87	23056.03
513.072	22972.07
513.274	23015.07
513.477	23643.8
513.679	23860.88
513.881	24202.89
514.084	24299.15
514.286	24235.66
514.488	24630.92
514.69	25237.12
514.893	25351.81
515.095	25466.49
515.297	25671.29
515.499	25566.84
515.701	26191.47
515.904	26879.59
516.106	27004.52
516.308	27276.9
516.51	27231.84
516.712	27553.37
516.914	27944.53
517.116	28085.84
517.318	28022.36
517.52	28407.37
517.722	28864.07
517.925	29316.67
518.127	29726.27
518.329	29638.2
518.531	29406.78
518.733	30328.37
518.935	30606.89
519.136	30684.72
519.338	31096.36
519.54	31180.32
519.742	31348.26
519.944	31518.24
520.146	32196.12
520.348	32677.39
520.55	32513.55
520.752	32960.01
520.954	33385.99
521.155	33158.66
521.357	33588.74
521.559	34211.32
521.761	34399.73
521.963	34495.99
522.164	34696.69
522.366	34739.69
522.568	35440.1
522.77	35605.98
522.971	35874.27
523.173	35597.79
523.375	36007.39
523.576	36242.9
523.778	36595.15
523.98	37236.17
524.181	37172.68
524.383	37588.42
524.584	37879.23
524.786	37772.74
524.988	37678.53
525.189	38432.18
525.391	38608.31
525.592	38667.7
525.794	38997.42
525.995	38772.14
526.197	39255.46
526.398	39196.07
526.6	39499.17
526.801	39626.15
527.003	39978.4
527.204	39869.86
527.406	40240.54
527.607	40586.64
527.808	41018.77
528.01	40363.42
528.211	40637.84
528.412	41565.57
528.614	41029.01
528.815	41164.17
529.016	41788.8
529.218	41475.46
529.419	41481.61
529.62	41837.95
529.822	41846.15
530.023	41702.79
530.224	42306.94
530.425	41893.25
530.626	41659.78
530.828	41854.34
531.029	42390.91
531.23	42059.13
531.431	42339.71
531.632	42397.05
531.833	42812.79
532.035	42923.38
532.236	42816.88
532.437	42673.52
532.638	42861.94
532.839	43148.65
533.04	42964.34
533.241	42933.62
533.442	43548.01
533.643	42851.7
533.844	43136.37
534.045	42825.07
534.246	42651
534.447	43615.59
534.648	43240.81
534.849	43525.48
535.05	43341.16
535.251	43103.6
535.451	43447.66
535.652	43738.47
535.853	43521.38
536.054	43390.31
536.255	43392.36
536.456	43455.85
536.657	43943.27
536.857	43267.44
537.058	43488.62
537.259	44277.08
537.46	44346.72
537.66	43388.27
537.861	43627.88
538.062	43361.64
538.263	43812.2
538.463	43230.57
538.664	43533.67
538.865	43740.52
539.065	43640.17
539.266	43191.66
539.466	43967.84
539.667	42978.67
539.868	43986.27
540.068	43640.17
540.269	43378.03
540.469	43715.94
540.67	43257.2
540.87	43292.01
541.071	43537.77
541.271	43345.26
541.472	43472.23
541.672	43185.52
541.873	43181.42
542.073	43226.48
542.274	43693.41
542.474	43281.77
542.675	43240.81
542.875	43515.24
543.075	43312.49
543.276	42812.79
543.476	43429.23
543.676	43261.29
543.877	43246.96
544.077	43674.98
544.277	43335.02
544.478	42970.48
544.678	43431.27
544.878	43396.46
545.078	43040.11
545.279	42964.34
545.479	42927.47
545.679	42743.16
545.879	43304.3
546.079	43203.95
546.28	42743.16
546.48	42882.42
546.68	43421.03
546.88	42872.18
547.08	43386.22
547.28	43337.07
547.48	42603.89
547.68	43294.06
547.88	42763.64
548.081	43226.48
548.281	42872.18
548.481	42960.24
548.681	43273.58
548.881	42816.88
549.081	42624.37
549.28	43203.95
549.48	43410.79
549.68	42804.59
549.88	43537.77
550.08	42972.53
550.28	43054.45
550.48	42732.92
550.68	43541.86
550.88	43025.78
551.08	42710.39
551.279	43148.65
551.479	42526.07
551.679	43003.25
551.879	42562.93
552.079	42851.7
552.278	42622.33
552.478	42923.38
552.678	43005.3
552.878	42952.05
553.077	42607.99
553.277	42444.15
553.477	42771.83
553.676	42591.61
553.876	42790.26
554.076	42530.17
554.275	42614.13
554.475	41551.24
554.674	42345.85
554.874	42292.6
555.074	42190.2
555.273	42685.81
555.473	42644.85
555.672	42204.54
555.872	42194.3
556.071	42196.35
556.271	42630.52
556.47	42204.54
556.67	41778.56
556.869	42020.22
557.068	42294.65
557.268	41694.6
557.467	41676.16
557.667	41921.92
557.866	41786.75
558.065	41727.36
558.265	41692.55
558.464	41305.48
558.663	41973.12
558.863	41231.75
559.062	41872.77
559.261	41112.97
559.461	41631.11
559.66	41063.82
559.859	40777.11
560.058	41078.16
560.258	40990.09
560.457	40899.98
560.656	40934.8
560.855	40396.18
561.054	41018.77
561.253	40209.82
561.453	40574.36
561.652	40578.45
561.851	40830.35
562.05	40281.5
562.249	39871.9
562.448	40310.17
562.647	40193.43
562.846	40281.5
563.045	40238.49
563.244	39716.26
563.443	40281.5
563.642	39122.35
563.841	40123.8
564.04	39482.79
564.239	39806.37
564.438	39253.42
564.637	39294.38
564.836	39454.12
565.035	39046.57
565.234	39327.14
565.432	38878.64
565.631	38768.05
565.83	38759.86
566.029	38591.92
566.228	38575.54
566.427	38567.35
566.625	38559.16
566.824	37991.87
567.023	38327.74
567.222	37848.51
567.42	38409.65
567.619	38071.74
567.818	37719.49
568.016	37324.23
568.215	37551.55
568.414	37277.13
568.612	37785.02
568.811	37209.54
569.01	37264.84
569.208	36826.57
569.407	36914.64
569.605	36472.28
569.804	36748.75
570.002	36613.59
570.201	36255.19
570.4	36419.03
570.598	36203.99
570.797	36042.2
570.995	36222.42
571.193	35540.45
571.392	36101.59
571.59	35522.02
571.789	35427.81
571.987	35626.46
572.186	35546.59
572.384	35165.67
572.582	35065.32
572.781	35347.94
572.979	34809.32
573.177	34915.82
573.376	34860.52
573.574	34616.82
573.772	34553.33
573.971	34239.99
574.169	34244.09
574.367	33885.69
574.565	34330.1
574.763	33940.99
574.962	34033.14
575.16	33461.76
575.358	33529.34
575.556	33381.89
575.754	33910.27
575.952	33267.2
576.151	33431.04
576.349	33189.38
576.547	32890.38
576.745	33224.2
576.943	33269.25
577.141	32966.15
577.339	32798.22
577.537	32388.63
577.735	32407.06
577.933	32351.76
578.131	32749.07
578.329	31972.89
578.527	31860.25
578.725	32015.9
578.923	32589.33
579.121	31893.02
579.319	31731.23
579.516	31948.31
579.714	31739.42
579.912	31686.17
580.11	31264.29
580.308	31432.22
580.506	31280.67
580.704	30897.7
580.901	30946.86
581.099	31016.49
581.297	30649.9
581.495	30684.72
581.692	30809.64
581.89	30524.97
582.088	30811.69
582.285	30346.8
582.483	30574.13
582.681	30256.69
582.878	30170.68
583.076	29636.16
583.274	30326.32
583.471	29539.9
583.669	29955.64
583.866	29544
584.064	29685.31
584.262	28970.57
584.459	29824.57
584.657	29251.14
584.854	29767.23
585.052	28798.54
585.249	29478.46
585.447	29435.45
585.644	28689.99
585.841	28728.91
586.039	29169.22
586.236	28522.06
586.434	28538.44
586.631	28397.13
586.828	28360.27
587.026	28094.04
587.223	28427.85
587.42	28018.26
587.618	28175.95
587.815	27772.5
588.012	27760.22
588.21	27948.63
588.407	27872.85
588.604	27862.61
588.801	27557.47
588.999	27743.83
589.196	27526.75
589.393	27377.25
589.59	27311.71
589.787	27080.29
589.984	27137.63
590.182	27094.63
590.379	27135.59
590.576	26529.39
590.773	26965.6
590.97	26719.85
591.167	26527.34
591.364	26377.84
591.561	26674.79
591.758	26097.27
591.955	26175.09
592.152	26480.24
592.349	26177.14
592.546	26340.97
592.743	26068.59
592.94	25529.98
593.137	25976.44
593.334	26166.9
593.531	25413.24
593.727	25513.59
593.924	25550.46
594.121	25355.9
594.318	25513.59
594.515	25009.79
594.712	25372.28
594.908	24964.74
595.105	25282.17
595.302	24768.13
595.499	24743.56
595.696	25134.72
595.892	24553.1
596.089	24716.93
596.286	24653.45
596.482	24788.61
596.679	24485.51
596.876	24430.22
597.072	23998.1
597.269	24319.63
597.466	23821.97
597.662	24280.72
597.859	24030.87
598.055	24290.96
598.252	23735.96
598.448	23996.05
598.645	23807.64
598.841	23776.92
599.038	23668.37
599.234	23623.32
599.431	23611.03
599.627	23269.02
599.824	23373.47
600.02	23047.84
600.217	23307.93
600.413	23178.91
600.609	23105.18
600.806	22769.32
601.002	22777.51
601.198	22730.41
601.395	22535.85
601.591	22638.25
601.787	22613.67
601.984	22460.07
602.18	22650.53
602.376	22218.41
602.572	22398.63
602.769	22042.29
602.965	21989.04
603.161	22093.49
603.357	22021.81
603.553	21860.02
603.75	21911.22
603.946	21968.56
604.142	21700.28
604.338	21741.24
604.534	21823.15
604.73	21341.88
604.926	21368.51
605.122	21507.77
605.318	21296.83
605.514	21374.65
605.71	21053.12
605.906	21108.41
606.102	21049.02
606.298	21290.68
606.494	20745.92
606.69	21132.99
606.886	20868.8
607.082	20303.56
607.278	20801.22
607.474	20465.35
607.67	20711.11
607.866	20278.99
608.062	20600.52
608.257	20307.66
608.453	20387.53
608.649	20389.58
608.845	20154.06
609.041	20381.38
609.236	20246.22
609.432	20317.9
609.628	20154.06
609.824	19812.05
610.019	19654.36
610.215	19918.54
610.411	20063.95
610.606	19971.79
610.802	20076.24
610.998	19764.95
611.193	19787.47
611.389	19715.8
611.584	19635.92
611.78	19496.66
611.976	19443.42
612.171	19316.44
612.367	19574.49
612.562	19287.77
612.758	19078.88
612.953	19181.28
613.149	19203.8
613.344	18929.38
613.539	19054.3
613.735	19250.91
613.93	19158.75
614.126	18818.78
614.321	19156.7
614.517	19099.36
614.712	19255
614.907	18820.83
615.103	19035.87
615.298	18544.36
615.493	18951.9
615.688	18661.09
615.884	18732.77
616.079	18507.49
616.274	18466.53
616.47	18241.26
616.665	18530.02
616.86	18509.54
617.055	18497.25
617.25	18421.48
617.445	18351.85
617.641	18149.1
617.836	18540.26
618.031	17997.55
618.226	18239.21
618.421	17989.36
618.616	18331.37
618.811	18069.23
619.006	17936.11
619.201	17549.04
619.396	17923.82
619.591	17338.1
619.786	17485.56
619.981	17348.34
620.176	17684.21
620.371	17135.35
620.566	17274.62
620.761	17159.93
620.956	17153.79
621.151	16963.33
621.346	17018.62
621.541	16645.89
621.735	16920.32
621.93	16426.76
622.125	16615.17
622.32	16328.45
622.515	16473.86
622.709	16301.83
622.904	16228.1
623.099	16015.12
623.294	16668.42
623.488	15759.12
623.683	16031.5
623.878	16142.09
624.072	15855.37
624.267	15636.24
624.462	15484.69
624.656	15261.46
624.851	15666.96
625.046	15374.1
625.24	15431.44
625.435	15238.94
625.629	15066.91
625.824	15034.14
626.018	15171.35
626.213	14632.74
626.407	14970.65
626.602	14673.7
626.796	14806.81
626.991	14733.09
627.185	14718.75
627.38	14296.87
627.574	14292.77
627.768	14249.77
627.963	14196.52
628.157	14227.24
628.352	14223.14
628.546	13979.43
628.74	14247.72
628.935	13510.45
629.129	14081.83
629.323	13479.73
629.517	13881.13
629.712	13549.36
629.906	13424.44
630.1	13209.4
630.294	13481.78
630.489	13238.07
630.683	13260.6
630.877	12764.99
631.071	13160.25
631.265	13090.62
631.459	12617.54
631.653	12781.37
631.848	12793.66
632.042	12355.4
632.236	12760.89
632.43	12420.93
632.624	12535.62
632.818	12541.76
633.012	12228.42
633.206	12263.24
633.4	12379.97
633.594	12056.39
633.788	12105.54
633.982	12085.06
634.176	11849.55
634.369	11880.27
634.563	11933.51
634.757	11755.34
634.951	11900.75
635.145	11769.68
635.339	11534.16
635.533	11513.68
635.726	11439.95
635.92	11491.15
636.114	11312.98
636.308	11421.52
636.501	11192.15
636.695	11386.71
636.889	11106.13
637.083	10868.57
637.276	10985.3
637.47	10960.73
637.664	11032.41
637.857	10616.67
638.051	10757.98
638.244	10903.39
638.438	10706.78
638.632	10530.66
638.825	10526.56
639.019	10534.75
639.212	10477.41
639.406	10348.39
639.599	10379.11
639.793	10360.67
639.986	10043.24
640.18	10372.96
640.373	9860.97
640.567	9793.39
640.76	10129.25
640.954	9684.84
641.147	9727.85
641.34	9807.72
641.534	9717.61
641.727	9875.31
641.92	9703.28
642.114	9525.1
642.307	9664.36
642.5	9617.26
642.694	9461.62
642.887	9379.7
643.08	9488.24
643.273	9238.39
643.467	9191.28
643.66	9148.28
643.853	9205.62
644.046	9054.07
644.239	9201.52
644.432	8875.9
644.626	8796.03
644.819	8986.49
645.012	8775.55
645.205	8939.38
645.398	8861.56
645.591	8781.69
645.784	8630.14
645.977	8474.49
646.17	8605.56
646.363	8359.81
646.556	8286.08
646.749	8406.91
646.942	8419.2
647.135	8333.18
647.328	8363.9
647.521	8290.18
647.714	8155.01
647.907	8089.48
648.099	7987.08
648.292	8075.14
648.485	8071.04
648.678	7870.34
648.871	7886.73
649.064	7939.97
649.256	7714.7
649.449	7702.41
649.642	7741.32
649.835	7579.53
650.027	7614.35
650.22	7794.57
650.413	7403.41
650.605	7606.16
650.798	7716.75
650.991	7368.59
651.183	7344.02
651.376	7323.54
651.568	7460.75
651.761	7288.72
651.954	7212.95
652.146	7245.71
652.339	7071.64
652.531	7264.15
652.724	7255.95
652.916	7042.96
653.109	7016.34
653.301	7085.97
653.494	7061.4
653.686	6893.46
653.879	7081.88
654.071	6993.81
654.263	6858.65
654.456	6850.46
654.648	6813.59
654.84	6541.21
655.033	6694.81
655.225	6596.51
655.417	6637.47
655.61	6729.63
655.802	6743.96
655.994	6635.42
656.186	6692.76
656.379	6404
656.571	6477.73
656.763	6449.05
656.955	6352.8
657.148	6539.16
657.34	6215.59
657.532	6066.08
657.724	6389.66
657.916	6266.78
658.108	6326.18
658.3	6217.63
658.492	5994.4
658.684	6129.57
658.876	5949.35
659.068	5912.49
659.26	5908.39
659.452	5978.02
659.644	6055.84
659.836	5967.78
660.028	5965.73
660.22	5873.57
660.412	5889.96
660.604	5828.52
660.796	5836.71
660.988	5928.87
661.18	5666.73
661.372	5687.21
661.563	5695.4
661.755	5636.01
661.947	5545.9
662.139	5451.69
662.331	5607.34
662.522	5554.09
662.714	5586.86
662.906	5488.56
663.097	5416.88
663.289	5478.32
663.481	5339.05
663.673	5318.57
663.864	5382.06
664.056	5093.3
664.247	5291.95
664.439	5255.09
664.631	5318.57
664.822	5318.57
665.014	5203.89
665.205	4900.79
665.397	5150.64
665.588	5105.59
665.78	5058.48
665.971	5058.48
666.163	5160.88
666.354	5021.62
666.546	4984.76
666.737	5091.25
666.929	4974.52
667.12	5109.68
667.311	4894.65
667.503	4855.73
667.694	4896.69
667.885	4878.26
668.077	4874.17
668.268	5035.96
668.459	4755.38
668.651	4978.61
668.842	4882.36
669.033	4812.73
669.224	4646.84
669.416	4980.66
669.607	4800.44
669.798	4788.15
669.989	4859.83
670.18	4652.98
670.371	4669.37
670.563	4773.82
670.754	4812.73
670.945	4650.94
671.136	4685.75
671.327	4552.63
671.518	4609.98
671.709	4583.35
671.9	4765.62
672.091	4620.22
672.282	4579.26
672.473	4630.46
672.664	4554.68
672.855	4614.07
673.046	4546.49
673.237	4528.06
673.428	4497.34
673.619	4437.95
673.809	4335.55
674	4575.16
674.191	4435.9
674.382	4368.32
674.573	4493.24
674.764	4339.65
674.954	4513.72
675.145	4376.51
675.336	4599.74
675.527	4362.17
675.717	4372.41
675.908	4347.84
676.099	4353.98
676.289	4612.03
676.48	4483
676.671	4394.94
676.861	4417.47
677.052	4358.08
677.243	4333.5
677.433	4345.79
677.624	4501.44
677.814	4323.26
678.005	4394.94
678.195	4343.74
678.386	4394.94
678.576	4392.89
678.767	4282.3
678.957	4417.47
679.148	4556.73
679.338	4333.5
679.529	4417.47
679.719	4339.65
679.909	4497.34
680.1	4444.09
680.29	4364.22
680.481	4280.25
680.671	4458.43
680.861	4349.89
681.052	4368.32
681.242	4323.26
681.432	4331.45
681.622	4413.37
681.813	4468.67
682.003	4292.54
682.193	4403.13
682.383	4300.73
682.573	4472.76
682.764	4339.65
682.954	4446.14
683.144	4317.12
683.334	4196.29
683.524	4263.87
683.714	4335.55
683.904	4345.79
684.094	4280.25
684.284	4339.65
684.474	4333.5
684.664	4241.34
684.854	4370.37
685.044	4263.87
685.234	4272.06
685.424	4290.49
685.614	4184
685.804	4331.45
685.994	4124.61
686.184	4253.63
686.374	4192.19
686.564	4138.94
686.753	4216.77
686.943	4034.5
687.133	4128.7
687.323	4196.29
687.513	4063.17
687.702	4077.51
687.892	4036.55
688.082	4130.75
688.272	4077.51
688.461	4067.27
688.651	4071.36
688.841	3944.39
689.03	4059.07
689.22	3934.15
689.41	3948.48
689.599	3991.49
689.789	3983.3
689.979	4005.83
690.168	3889.09
690.358	3858.37
690.547	3839.94
690.737	3827.65
690.926	3774.41
691.116	3801.03
691.305	3809.22
691.495	3637.19
691.684	3778.5
691.874	3725.26
692.063	3717.06
692.252	3645.38
692.442	3739.59
692.631	3667.91
692.82	3581.9
693.01	3567.56
693.199	3401.68
693.388	3631.05
693.578	3577.8
693.767	3655.62
693.956	3573.71
694.146	3575.75
694.335	3516.36
694.524	3588.04
694.713	3422.16
694.902	3545.03
695.092	3526.6
695.281	3428.3
695.47	3512.27
695.659	3282.89
695.848	3340.24
696.037	3413.96
696.226	3340.24
696.415	3317.71
696.604	3362.76
696.793	3411.92
696.982	3405.77
697.171	3358.67
697.36	3332.05
697.549	3323.85
697.738	3393.48
697.927	3422.16
698.116	3336.14
698.305	3307.47
698.494	3334.09
698.683	3215.31
698.872	3354.57
699.061	3342.28
699.25	3262.41
699.438	3360.72
699.627	3311.57
699.816	3401.68
700.005	3250.13
700.193	3262.41
700.382	3270.61
700.571	3317.71
700.76	3268.56
700.948	3336.14
701.137	3336.14
701.326	3346.38
701.514	3203.02
701.703	3092.43
701.892	3178.45
702.08	3395.53
702.269	3399.63
702.457	3340.24
702.646	3344.33
702.834	3117.01
703.023	3286.99
703.212	3313.61
703.4	3426.25
703.589	3192.78
703.777	3211.22
703.965	3203.02
704.154	3360.72
704.342	3379.15
704.531	3274.7
704.719	3241.93
704.907	3446.73
705.096	3248.08
705.284	3330
705.472	3215.31
705.661	3319.76
705.849	3319.76
706.037	3229.65
706.226	3262.41
706.414	3366.86
706.602	3405.77
706.79	3409.87
706.979	3246.03
707.167	3289.04
707.355	3319.76
707.543	3395.53
707.731	3375.05
707.919	3262.41
708.107	3413.96
708.296	3368.91
708.484	3436.49
708.672	3375.05
708.86	3444.68
709.048	3362.76
709.236	3301.33
709.424	3373
709.612	3387.34
709.8	3434.44
709.988	3403.72
710.176	3295.18
710.364	3368.91
710.551	3383.24
710.739	3403.72
710.927	3311.57
711.115	3248.08
711.303	3502.03
711.491	3432.4
711.679	3456.97
711.866	3459.02
712.054	3332.05
712.242	3370.96
712.43	3536.84
712.617	3411.92
712.805	3405.77
712.993	3432.4
713.181	3340.24
713.368	3436.49
713.556	3549.13
713.744	3407.82
713.931	3469.26
714.119	3551.18
714.306	3401.68
714.494	3428.3
714.682	3393.48
714.869	3452.88
715.057	3471.31
715.244	3467.21
715.432	3545.03
715.619	3518.41
715.807	3493.83
715.994	3477.45
716.182	3518.41
716.369	3610.57
716.556	3491.79
716.744	3448.78
716.931	3471.31
717.119	3577.8
717.306	3643.34
717.493	3551.18
717.681	3563.47
717.868	3602.38
718.055	3667.91
718.242	3684.3
718.43	3647.43
718.617	3612.62
718.804	3622.86
718.991	3553.23
719.179	3653.58
719.366	3579.85
719.553	3680.2
719.74	3573.71
719.927	3540.94
720.114	3665.86
720.301	3653.58
720.488	3583.95
720.676	3526.6
720.863	3540.94
721.05	3665.86
721.237	3688.39
721.424	3747.78
721.611	3592.14
721.798	3622.86
721.985	3542.99
722.172	3612.62
722.358	3549.13
722.545	3622.86
722.732	3626.95
722.919	3872.71
723.106	3620.81
723.293	3729.35
723.48	3700.68
723.667	3637.19
723.853	3710.92
724.04	3719.11
724.227	3708.87
724.414	3731.4
724.6	3745.73
724.787	3798.98
724.974	3889.09
725.161	3661.77
725.347	3690.44
725.534	3690.44
725.72	3848.13
725.907	3792.84
726.094	3897.28
726.28	3844.04
726.467	3737.54
726.653	3704.78
726.84	3788.74
727.027	3778.5
727.213	3688.39
727.4	3805.13
727.586	3794.89
727.773	3872.71
727.959	3805.13
728.145	3815.37
728.332	3956.68
728.518	3846.09
728.705	3917.76
728.891	3901.38
729.077	3772.36
729.264	3815.37
729.45	3948.48
729.636	3801.03
729.823	3811.27
730.009	3911.62
730.195	3878.85
730.382	3899.33
730.568	3839.94
730.754	3958.72
730.94	3831.75
731.126	4091.84
731.313	3880.9
731.499	3866.56
731.685	4081.6
731.871	4016.07
732.057	3909.57
732.243	3887.04
732.429	4022.21
732.615	3964.87
732.801	4001.73
732.987	4059.07
733.173	3968.96
733.359	3975.11
733.545	3839.94
733.731	3913.67
733.917	4011.97
734.103	3948.48
734.289	3964.87
734.475	4003.78
734.661	4097.99
734.847	3995.59
735.033	3934.15
735.219	3993.54
735.404	3952.58
735.59	4059.07
735.776	3919.81
735.962	3989.44
736.148	3981.25
736.333	3944.39
736.519	3911.62
736.705	4104.13
736.89	3831.75
737.076	4093.89
737.262	3868.61
737.447	4014.02
737.633	4104.13
737.819	4011.97
738.004	3960.77
738.19	3897.28
738.375	4063.17
738.561	3942.34
738.747	3903.43
738.932	3940.29
739.118	3946.44
739.303	3852.23
739.489	3862.47
739.674	3950.53
739.859	3934.15
740.045	3841.99
740.23	3925.96
740.416	3858.37
740.601	3819.46
740.786	3909.57
740.972	3915.72
741.157	3975.11
741.342	3717.06
741.528	3866.56
741.713	3946.44
741.898	3878.85
742.084	3698.63
742.269	3786.69
742.454	3868.61
742.639	3751.88
742.824	3688.39
743.01	3772.36
743.195	3925.96
743.38	3653.58
743.565	3796.93
743.75	3721.16
743.935	3631.05
744.12	3700.68
744.305	3688.39
744.49	3719.11
744.675	3631.05
744.86	3641.29
745.045	3731.4
745.23	3649.48
745.415	3659.72
745.6	3708.87
745.785	3694.54
745.97	3682.25
746.155	3569.61
746.34	3669.96
746.525	3483.59
746.71	3512.27
746.895	3461.07
747.079	3348.43
747.264	3481.55
747.449	3401.68
747.634	3434.44
747.819	3481.55
748.003	3399.63
748.188	3219.41
748.373	3286.99
748.557	3301.33
748.742	3209.17
748.927	3401.68
749.111	3254.22
749.296	3207.12
749.481	3176.4
749.665	3217.36
749.85	3096.53
750.034	3229.65
750.219	3188.69
750.404	3237.84
750.588	3106.77
750.773	3127.25
750.957	3139.54
751.141	3123.15
751.326	2957.27
751.51	3041.23
751.695	2955.22
751.879	2957.27
752.064	2992.08
752.248	3002.32
752.432	2959.31
752.617	2887.64
752.801	2953.17
752.985	2953.17
753.17	2985.94
753.354	2934.74
753.538	2906.07
753.722	2752.47
753.907	2783.19
754.091	2775
754.275	2752.47
754.459	2801.62
754.643	2639.83
754.828	2676.7
755.012	2572.25
755.196	2504.67
755.38	2670.55
755.564	2562.01
755.748	2516.95
755.932	2527.19
756.116	2600.92
756.3	2508.76
756.484	2557.91
756.668	2537.43
756.852	2504.67
757.036	2449.37
757.22	2471.9
757.404	2379.74
757.588	2441.18
757.772	2406.36
757.956	2324.44
758.14	2445.27
758.323	2346.97
758.507	2416.6
758.691	2297.82
758.875	2353.12
759.059	2394.08
759.242	2238.43
759.426	2224.09
759.61	2191.33
759.794	2228.19
759.977	2224.09
760.161	2258.91
760.345	2220
760.528	2136.03
760.712	2250.72
760.895	2050.02
761.079	2277.34
761.263	2078.69
761.446	2084.83
761.63	2054.11
761.813	2199.52
761.997	2039.78
762.18	2056.16
762.364	2150.37
762.547	1986.53
762.731	2009.06
762.914	2074.59
763.098	2068.45
763.281	2062.3
763.464	1957.86
763.648	2060.26
763.831	1918.95
764.015	1990.63
764.198	1951.71
764.381	1867.75
764.564	2031.58
764.748	1834.98
764.931	1869.8
765.114	1961.95
765.297	1822.69
765.481	1927.14
765.664	1904.61
765.847	1871.84
766.03	1910.75
766.213	1863.65
766.397	1787.88
766.58	1884.13
766.763	1820.64
766.946	1904.61
767.129	1882.08
767.312	1810.4
767.495	1794.02
767.678	1771.49
767.861	1712.1
768.044	1841.12
768.227	1765.35
768.41	1730.53
768.593	1722.34
768.776	1665
768.959	1691.62
769.142	1808.36
769.324	1667.05
769.507	1748.97
769.69	1751.01
769.873	1691.62
770.056	1734.63
770.239	1683.43
770.421	1724.39
770.604	1615.85
770.787	1673.19
770.97	1687.53
771.152	1654.76
771.335	1626.09
771.518	1546.22
771.7	1583.08
771.883	1572.84
772.066	1615.85
772.248	1546.22
772.431	1515.5
772.613	1630.18
772.796	1492.97
772.978	1472.49
773.161	1531.88
773.343	1445.87
773.526	1351.66
773.708	1458.15
773.891	1552.36
774.073	1546.22
774.256	1431.53
774.438	1402.86
774.621	1355.76
774.803	1509.35
774.985	1441.77
775.168	1521.64
775.35	1368.04
775.532	1372.14
775.715	1343.47
775.897	1400.81
776.079	1339.37
776.261	1241.07
776.444	1452.01
776.626	1271.79
776.808	1294.32
776.99	1249.26
777.173	1284.08
777.355	1263.6
777.537	1277.93
777.719	1212.4
777.901	1183.73
778.083	1236.97
778.265	1153.01
778.447	1230.83
778.629	1150.96
778.811	1175.53
778.993	1196.01
779.175	1196.01
779.357	1191.92
779.539	1114.09
779.721	1101.81
779.903	1150.96
780.085	1095.66
780.267	1239.02
780.449	1142.77
780.631	1175.53
780.812	1200.11
780.994	1032.18
781.176	1112.05
781.358	1019.89
781.54	1110
781.721	1073.14
781.903	1042.42
782.085	1077.23
782.267	1052.66
782.448	913.39
782.63	1032.18
782.812	1028.08
782.993	874.48
783.175	954.35
783.357	886.77
783.538	985.07
783.72	894.96
783.901	944.11
784.083	964.59
784.264	894.96
784.446	874.48
784.627	847.86
784.809	952.31
784.99	849.91
785.172	892.91
785.353	811
785.535	888.82
785.716	845.81
785.897	821.24
786.079	831.48
786.26	757.75
786.441	808.95
786.623	835.57
786.804	708.6
786.985	847.86
787.167	800.76
787.348	796.66
787.529	831.48
787.71	901.11
787.891	800.76
788.073	763.89
788.254	700.41
788.435	751.6
788.616	772.08
788.797	737.27
788.978	733.17
789.159	632.82
789.34	759.8
789.522	735.22
789.703	671.73
789.884	720.88
790.065	698.36
790.246	743.41
790.427	630.77
790.607	696.31
790.788	724.98
790.969	657.4
791.15	686.07
791.331	602.1
791.512	673.78
791.693	614.39
791.874	706.55
792.054	708.6
792.235	659.45
792.416	567.29
792.597	681.97
792.778	659.45
792.958	585.72
793.139	567.29
793.32	565.24
793.5	585.72
793.681	610.29
793.862	610.29
794.042	620.53
794.223	589.81
794.404	595.96
794.584	528.38
794.765	548.86
794.945	489.46
795.126	569.34
795.306	618.49
795.487	559.1
795.667	620.53
795.848	540.66
796.028	571.38
796.209	577.53
796.389	606.2
796.57	589.81
796.75	577.53
796.93	557.05
797.111	489.46
797.291	444.41
797.471	561.14
797.652	511.99
797.832	477.18
798.012	534.52
798.192	520.18
798.373	460.79
798.553	555
798.733	528.38
798.913	481.27
799.093	483.32
799.274	585.72
799.454	514.04
799.634	397.31
799.814	503.8
799.994	499.7
800.174	481.27
800.354	509.94
800.534	460.79
800.714	483.32
800.894	397.31
801.074	440.31
801.254	389.11
801.434	444.41
801.614	421.88
801.794	342.01
801.974	1134.57
802.154	335.87
802.334	440.31
802.514	415.74
802.693	485.37
802.873	440.31
803.053	395.26
803.233	464.89
803.413	473.08
803.592	425.98
803.772	335.87
803.952	434.17
804.131	366.59
804.311	499.7
804.491	436.22
804.67	444.41
804.85	419.83
805.03	358.39
805.209	337.91
805.389	473.08
805.568	395.26
805.748	374.78
805.928	423.93
806.107	378.87
806.287	401.4
806.466	372.73
806.646	360.44
806.825	331.77
807.004	352.25
807.184	395.26
807.363	370.68
807.543	335.87
807.722	397.31
807.901	387.07
808.081	434.17
808.26	270.33
808.439	311.29
808.619	313.34
808.798	311.29
808.977	333.82
809.156	454.65
809.336	380.92
809.515	352.25
809.694	327.67
809.873	372.73
810.052	317.44
810.231	374.78
810.411	331.77
810.59	288.76
810.769	331.77
810.948	385.02
811.127	247.8
811.306	333.82
811.485	280.57
811.664	360.44
811.843	264.19
812.022	323.58
812.201	262.14
812.38	301.05
812.559	272.38
812.737	331.77
812.916	256
813.095	174.08
813.274	319.48
813.453	296.96
813.632	329.72
813.811	294.91
813.989	247.8
814.168	372.73
814.347	241.66
814.526	260.09
814.704	251.9
814.883	372.73
815.062	296.96
815.24	335.87
815.419	272.38
815.598	245.76
815.776	221.18
815.955	245.76
816.133	118.78
816.312	344.06
816.49	286.72
816.669	311.29
816.847	223.23
817.026	362.49
817.204	204.8
817.383	278.52
817.561	262.14
817.74	249.85
817.918	204.8
818.097	217.08
818.275	243.71
818.453	315.39
818.632	206.84
818.81	215.04
818.988	217.08
819.167	151.55
819.345	229.37
819.523	208.89
819.701	194.56
819.879	247.8
820.058	249.85
820.236	235.52
820.414	202.75
820.592	233.47
820.77	303.1
820.948	233.47
821.127	194.56
821.305	186.37
821.483	194.56
821.661	268.28
821.839	212.99
822.017	198.65
822.195	219.13
822.373	206.84
822.551	159.74
822.729	288.76
822.907	217.08
823.085	194.56
823.262	114.69
823.44	241.66
823.618	133.12
823.796	176.13
823.974	180.22
824.152	176.13
824.329	231.42
824.507	210.94
824.685	256
824.863	172.03
825.04	188.41
825.218	155.65
825.396	157.69
825.574	215.04
825.751	155.65
825.929	249.85
826.107	153.6
826.284	204.8
826.462	223.23
826.639	167.93
826.817	159.74
826.994	167.93
827.172	143.36
827.349	290.81
827.527	94.21
827.704	221.18
827.882	194.56
828.059	155.65
828.237	90.11
828.414	116.73
828.591	98.3
828.769	206.84
828.946	92.16
829.124	227.32
829.301	200.7
829.478	110.59
829.655	169.98
829.833	169.98
830.01	116.73
830.187	143.36
830.364	221.18
830.542	159.74
830.719	237.56
830.896	212.99
831.073	155.65
831.25	163.84
831.427	176.13
831.604	172.03
831.782	112.64
831.959	34.82
832.136	155.65
832.313	141.31
832.49	169.98
832.667	141.31
832.844	143.36
833.021	178.17
833.198	118.78
833.374	163.84
833.551	126.97
833.728	73.73
833.905	215.04
834.082	77.82
834.259	151.55
834.436	161.79
834.612	86.01
834.789	151.55
834.966	145.41
835.143	118.78
835.319	143.36
835.496	69.63
835.673	116.73
835.85	182.27
836.026	122.88
836.203	192.51
836.38	102.4
836.556	129.02
836.733	110.59
836.909	198.65
837.086	147.45
837.262	116.73
837.439	120.83
837.616	143.36
837.792	32.77
837.968	147.45
838.145	36.86
838.321	151.55
838.498	165.89
838.674	172.03
838.851	184.32
839.027	75.77
839.203	114.69
839.38	137.21
839.556	90.11
839.732	208.89
839.909	114.69
840.085	141.31
840.261	139.26
840.437	75.77
840.614	122.88
840.79	206.84
840.966	108.54
841.142	104.45
841.318	126.97
841.494	96.25
841.671	79.87
841.847	45.06
842.023	98.3
842.199	161.79
842.375	137.21
842.551	45.06
842.727	47.1
842.903	86.01
843.079	10.24
843.255	118.78
843.431	75.77
843.607	157.69
843.783	-10.24
843.959	118.78
844.134	-14.34
844.31	100.35
844.486	139.26
844.662	79.87
844.838	61.44
845.013	83.97
845.189	131.07
845.365	83.97
845.541	139.26
845.716	126.97
845.892	149.5
846.068	110.59
846.244	55.3
846.419	124.93
846.595	43.01
846.77	92.16
846.946	63.49
847.122	135.17
847.297	10.24
847.473	122.88
847.648	75.77
847.824	86.01
847.999	34.82
848.175	75.77
848.35	92.16
848.526	129.02
848.701	221.18
848.876	135.17
849.052	86.01
849.227	38.91
849.403	32.77
849.578	75.77
849.753	73.73
849.929	67.58
850.104	75.77
850.279	94.21
850.454	65.53
850.63	51.2
850.805	65.53
850.98	104.45
851.155	65.53
851.33	32.77
851.505	112.64
851.681	174.08
851.856	55.3
852.031	139.26
852.206	114.69
852.381	36.86
852.556	-6.14
852.731	67.58
852.906	67.58
853.081	94.21
853.256	61.44
853.431	71.68
853.606	114.69
853.781	20.48
853.956	-20.48
854.131	61.44
854.305	36.86
854.48	30.72
854.655	71.68
854.83	126.97
855.005	51.2
855.18	24.58
855.354	57.34
855.529	57.34
855.704	86.01
855.879	120.83
856.053	49.15
856.228	126.97
856.403	65.53
856.577	112.64
856.752	-16.38
856.926	88.06
857.101	4.1
857.276	22.53
857.45	55.3
857.625	81.92
857.799	57.34
857.974	114.69
858.148	12.29
858.323	96.25
858.497	47.1
858.672	49.15
858.846	-8.19
859.02	55.3
859.195	30.72
859.369	92.16
859.543	-12.29
859.718	135.17
859.892	30.72
860.066	34.82
860.241	90.11
860.415	2.05
860.589	110.59
860.763	81.92
860.938	22.53
861.112	65.53
861.286	2.05
861.46	51.2
861.634	75.77
861.808	49.15
861.982	61.44
862.157	75.77
862.331	-16.38
862.505	8.19
862.679	-4.1
862.853	51.2
863.027	81.92
863.201	137.21
863.375	67.58
863.549	73.73
863.722	73.73
863.896	96.25
864.07	65.53
864.244	49.15
864.418	112.64
864.592	-2.05
864.766	75.77
864.939	157.69
865.113	-51.2
865.287	81.92
865.461	-2.05
865.634	73.73
865.808	75.77
865.982	49.15
866.156	-14.34
866.329	28.67
866.503	18.43
866.676	81.92
866.85	10.24
867.024	71.68
867.197	71.68
867.371	38.91
867.544	114.69
867.718	88.06
867.891	90.11
868.065	26.62
868.238	102.4
868.412	90.11
868.585	36.86
868.759	4.1
868.932	81.92
869.105	-18.43
869.279	-14.34
869.452	90.11
869.625	10.24
869.799	38.91
869.972	16.38
870.145	20.48
870.319	-12.29
870.492	20.48
870.665	-14.34
870.838	14.34
871.011	59.39
871.185	6.14
871.358	36.86
871.531	120.83
871.704	45.06
871.877	-8.19
872.05	22.53
872.223	-8.19
872.396	133.12
872.569	83.97
872.742	12.29
872.915	112.64
873.088	-83.97
873.261	69.63
873.434	14.34
873.607	-22.53
873.78	28.67
873.953	53.25
874.126	57.34
874.299	-8.19
874.471	28.67
874.644	28.67
874.817	59.39
874.99	71.68
875.163	-0
875.335	30.72
875.508	-30.72
875.681	83.97
875.853	28.67
876.026	45.06
876.199	67.58
876.371	10.24
876.544	-6.14
876.717	77.82
876.889	26.62
877.062	34.82
877.234	-28.67
877.407	-30.72
877.579	22.53
877.752	28.67
877.924	32.77
878.097	-10.24
878.269	-18.43
878.442	73.73
878.614	24.58
878.786	30.72
878.959	73.73
879.131	45.06
879.303	4.1
879.476	4.1
879.648	47.1
879.82	14.34
879.993	34.82
880.165	-47.1
880.337	-38.91
880.509	61.44
880.681	20.48
880.854	-30.72
881.026	63.49
881.198	67.58
881.37	67.58
881.542	38.91
881.714	-2.05
881.886	49.15
882.058	-32.77
882.23	40.96
882.402	61.44
882.574	20.48
882.746	49.15
882.918	32.77
883.09	45.06
883.262	-43.01
883.434	-10.24
883.606	-22.53
883.778	-30.72
883.95	65.53
884.122	-24.58
884.293	67.58
884.465	-28.67
884.637	2.05
884.809	-34.82
884.98	10.24
885.152	71.68
885.324	45.06
885.496	-24.58
885.667	45.06
885.839	24.58
886.011	116.73
886.182	-8.19
886.354	28.67
886.525	6.14
886.697	69.63
886.869	-10.24
887.04	14.34
887.212	47.1
887.383	81.92
887.555	-6.14
887.726	-18.43
887.897	96.25
888.069	47.1
888.24	100.35
888.412	63.49
888.583	30.72
888.754	4.1
888.926	-12.29
889.097	40.96
889.268	-12.29
889.44	24.58
889.611	26.62
889.782	-38.91
889.953	-26.62
890.125	65.53
890.296	18.43
890.467	26.62
890.638	-32.77
890.809	-12.29
890.98	-0
891.151	47.1
891.323	79.87
891.494	34.82
891.665	65.53
891.836	-12.29
892.007	32.77
892.178	20.48
892.349	22.53
892.52	18.43
892.691	24.58
892.862	61.44
893.032	36.86
893.203	57.34
893.374	-6.14
893.545	2.05
893.716	-49.15
893.887	55.3
894.057	6.14
894.228	53.25
894.399	-2.05
894.57	79.87
894.74	-26.62
894.911	57.34
895.082	-24.58
895.253	12.29
895.423	81.92
895.594	73.73
895.764	32.77
895.935	49.15
896.106	-43.01
896.276	71.68
896.447	-12.29
896.617	18.43
896.788	10.24
896.958	20.48
897.129	-0
897.299	24.58
897.47	90.11
897.64	-4.1
897.81	49.15
897.981	55.3
898.151	36.86
898.322	47.1
898.492	57.34
898.662	100.35
898.832	-10.24
899.003	-36.86
899.173	49.15
899.343	53.25
899.513	-45.06
