Data from USB4F104151__66__12-24-13-576.txt Node

Date: Fri Mar 14 12:24:13 EDT 2025
User: louis
Spectrometer: USB4F10415
Trigger mode: 4
Integration Time (sec): 3.500000E-2
Scans to average: 1
Electric dark correction enabled: true
Nonlinearity correction enabled: false
Boxcar width: 0
XAxis mode: Wavelengths
Number of Pixels in Spectrum: 3648
>>>>>Begin Spectral Data<<<<<
178.204	-120.66
178.424	-120.66
178.644	-120.66
178.864	-32.6
179.084	-200.53
179.304	-12.12
179.524	6.31
179.744	-44.88
179.964	-20.31
180.184	-20.31
180.404	39.08
180.624	18.6
180.844	-16.21
181.064	0.17
181.283	86.19
181.503	-46.93
181.723	10.41
181.943	18.6
182.163	131.24
182.383	34.99
182.602	100.52
182.822	106.67
183.042	67.75
183.262	-14.17
183.482	67.75
183.701	71.85
183.921	121
184.141	22.7
184.361	16.55
184.58	16.55
184.8	61.61
185.02	34.99
185.239	47.27
185.459	55.47
185.679	102.57
185.898	59.56
186.118	80.04
186.338	135.34
186.557	84.14
186.777	57.51
186.997	67.75
187.216	-32.6
187.436	84.14
187.655	114.86
187.875	-14.17
188.095	71.85
188.314	100.52
188.534	39.08
188.753	4.27
188.973	80.04
189.192	65.71
189.412	84.14
189.631	26.79
189.851	43.18
190.07	131.24
190.29	-3.93
190.509	108.71
190.729	-5.97
190.948	55.47
191.168	166.06
191.387	39.08
191.607	73.9
191.826	39.08
192.045	92.33
192.265	80.04
192.484	86.19
192.704	43.18
192.923	-44.88
193.142	145.58
193.362	135.34
193.581	61.61
193.8	57.51
194.02	65.71
194.239	73.9
194.458	14.51
194.678	47.27
194.897	41.13
195.116	139.43
195.335	6.31
195.555	75.95
195.774	26.79
195.993	86.19
196.212	6.31
196.432	51.37
196.651	-1.88
196.87	69.8
197.089	88.23
197.308	49.32
197.528	86.19
197.747	-14.17
197.966	114.86
198.185	108.71
198.404	10.41
198.623	41.13
198.842	6.31
199.062	131.24
199.281	116.9
199.5	8.36
199.719	53.42
199.938	59.56
200.157	131.24
200.376	41.13
200.595	57.51
200.814	69.8
201.033	41.13
201.252	135.34
201.471	100.52
201.69	108.71
201.909	55.47
202.128	24.75
202.347	47.27
202.566	53.42
202.785	6.31
203.004	-5.97
203.223	149.67
203.442	45.23
203.661	20.65
203.879	102.57
204.098	77.99
204.317	18.6
204.536	86.19
204.755	53.42
204.974	102.57
205.193	63.66
205.411	143.53
205.63	110.76
205.849	73.9
206.068	106.67
206.287	67.75
206.505	155.82
206.724	41.13
206.943	-24.4
207.162	71.85
207.381	-10.07
207.599	51.37
207.818	18.6
208.037	22.7
208.255	-14.17
208.474	92.33
208.693	100.52
208.911	32.94
209.13	0.17
209.349	98.47
209.567	104.62
209.786	73.9
210.005	94.38
210.223	32.94
210.442	8.36
210.661	16.55
210.879	20.65
211.098	-28.5
211.316	37.03
211.535	90.28
211.753	84.14
211.972	61.61
212.191	12.46
212.409	28.84
212.628	59.56
212.846	94.38
213.065	77.99
213.283	20.65
213.502	53.42
213.72	53.42
213.938	43.18
214.157	39.08
214.375	116.9
214.594	47.27
214.812	147.62
215.031	69.8
215.249	53.42
215.467	39.08
215.686	6.31
215.904	86.19
216.122	22.7
216.341	20.65
216.559	49.32
216.778	86.19
216.996	108.71
217.214	37.03
217.432	43.18
217.651	63.66
217.869	65.71
218.087	20.65
218.306	49.32
218.524	75.95
218.742	22.7
218.96	45.23
219.179	84.14
219.397	16.55
219.615	110.76
219.833	24.75
220.051	37.03
220.27	94.38
220.488	28.84
220.706	43.18
220.924	59.56
221.142	20.65
221.36	51.37
221.578	73.9
221.796	75.95
222.015	65.71
222.233	55.47
222.451	155.82
222.669	30.89
222.887	82.09
223.105	14.51
223.323	30.89
223.541	24.75
223.759	-3.93
223.977	86.19
224.195	84.14
224.413	114.86
224.631	129.19
224.849	-8.02
225.067	55.47
225.285	55.47
225.503	37.03
225.721	6.31
225.939	57.51
226.157	49.32
226.375	43.18
226.592	45.23
226.81	34.99
227.028	77.99
227.246	129.19
227.464	82.09
227.682	88.23
227.9	30.89
228.117	104.62
228.335	71.85
228.553	2.22
228.771	30.89
228.989	61.61
229.206	118.95
229.424	2.22
229.642	-18.26
229.86	-26.45
230.077	114.86
230.295	57.51
230.513	32.94
230.731	90.28
230.948	155.82
231.166	143.53
231.384	41.13
231.601	32.94
231.819	45.23
232.037	86.19
232.254	14.51
232.472	123.05
232.689	32.94
232.907	100.52
233.125	43.18
233.342	39.08
233.56	88.23
233.777	49.32
233.995	53.42
234.213	127.14
234.43	106.67
234.648	59.56
234.865	10.41
235.083	80.04
235.3	16.55
235.518	63.66
235.735	84.14
235.953	69.8
236.17	47.27
236.388	73.9
236.605	67.75
236.822	137.38
237.04	80.04
237.257	45.23
237.475	53.42
237.692	86.19
237.909	123.05
238.127	10.41
238.344	129.19
238.562	108.71
238.779	59.56
238.996	18.6
239.214	-18.26
239.431	133.29
239.648	73.9
239.865	86.19
240.083	96.43
240.3	10.41
240.517	22.7
240.735	61.61
240.952	96.43
241.169	53.42
241.386	71.85
241.603	45.23
241.821	30.89
242.038	98.47
242.255	110.76
242.472	49.32
242.689	116.9
242.907	24.75
243.124	26.79
243.341	84.14
243.558	32.94
243.775	2.22
243.992	2.22
244.209	71.85
244.426	108.71
244.643	114.86
244.86	22.7
245.078	8.36
245.295	49.32
245.512	4.27
245.729	2.22
245.946	63.66
246.163	180.39
246.38	63.66
246.597	108.71
246.814	51.37
247.031	73.9
247.248	10.41
247.464	49.32
247.681	65.71
247.898	100.52
248.115	45.23
248.332	39.08
248.549	94.38
248.766	110.76
248.983	61.61
249.2	77.99
249.417	123.05
249.633	26.79
249.85	32.94
250.067	-8.02
250.284	86.19
250.501	94.38
250.717	82.09
250.934	59.56
251.151	63.66
251.368	34.99
251.585	0.17
251.801	61.61
252.018	51.37
252.235	106.67
252.451	-24.4
252.668	143.53
252.885	106.67
253.102	-1.88
253.318	22.7
253.535	73.9
253.752	55.47
253.968	53.42
254.185	49.32
254.401	22.7
254.618	16.55
254.835	22.7
255.051	157.86
255.268	75.95
255.484	-10.07
255.701	61.61
255.917	53.42
256.134	-10.07
256.351	28.84
256.567	-22.36
256.784	49.32
257	-14.17
257.217	100.52
257.433	32.94
257.65	75.95
257.866	77.99
258.082	2.22
258.299	8.36
258.515	104.62
258.732	84.14
258.948	59.56
259.165	63.66
259.381	30.89
259.597	0.17
259.814	-22.36
260.03	69.8
260.246	69.8
260.463	75.95
260.679	110.76
260.895	67.75
261.112	65.71
261.328	63.66
261.544	67.75
261.761	153.77
261.977	28.84
262.193	71.85
262.409	73.9
262.626	-10.07
262.842	24.75
263.058	4.27
263.274	67.75
263.49	125.1
263.707	110.76
263.923	28.84
264.139	20.65
264.355	63.66
264.571	96.43
264.787	59.56
265.004	88.23
265.22	41.13
265.436	57.51
265.652	16.55
265.868	24.75
266.084	30.89
266.3	135.34
266.516	96.43
266.732	49.32
266.948	112.81
267.164	30.89
267.38	28.84
267.596	26.79
267.812	149.67
268.028	4.27
268.244	45.23
268.46	14.51
268.676	-5.97
268.892	96.43
269.108	16.55
269.324	53.42
269.54	112.81
269.756	149.67
269.972	108.71
270.188	26.79
270.403	67.75
270.619	49.32
270.835	123.05
271.051	73.9
271.267	37.03
271.483	61.61
271.698	39.08
271.914	43.18
272.13	112.81
272.346	20.65
272.562	114.86
272.777	104.62
272.993	88.23
273.209	16.55
273.425	63.66
273.64	18.6
273.856	80.04
274.072	102.57
274.287	-3.93
274.503	53.42
274.719	55.47
274.934	45.23
275.15	8.36
275.366	16.55
275.581	-40.79
275.797	73.9
276.012	104.62
276.228	6.31
276.444	12.46
276.659	88.23
276.875	2.22
277.09	63.66
277.306	24.75
277.521	59.56
277.737	26.79
277.952	108.71
278.168	-10.07
278.383	106.67
278.599	14.51
278.814	69.8
279.03	112.81
279.245	157.86
279.461	45.23
279.676	75.95
279.892	45.23
280.107	-53.08
280.322	92.33
280.538	47.27
280.753	129.19
280.969	98.47
281.184	20.65
281.399	108.71
281.615	73.9
281.83	39.08
282.045	-14.17
282.26	57.51
282.476	6.31
282.691	114.86
282.906	47.27
283.122	22.7
283.337	57.51
283.552	26.79
283.767	45.23
283.983	22.7
284.198	30.89
284.413	77.99
284.628	61.61
284.843	-20.31
285.058	108.71
285.274	28.84
285.489	-48.98
285.704	98.47
285.919	0.17
286.134	88.23
286.349	63.66
286.564	47.27
286.779	139.43
286.995	16.55
287.21	32.94
287.425	-1.88
287.64	37.03
287.855	121
288.07	10.41
288.285	135.34
288.5	139.43
288.715	63.66
288.93	-16.21
289.145	55.47
289.36	147.62
289.575	61.61
289.79	24.75
290.004	104.62
290.219	172.2
290.434	55.47
290.649	65.71
290.864	39.08
291.079	-5.97
291.294	82.09
291.509	118.95
291.724	110.76
291.938	57.51
292.153	106.67
292.368	47.27
292.583	75.95
292.798	12.46
293.012	80.04
293.227	137.38
293.442	-8.02
293.657	61.61
293.871	108.71
294.086	143.53
294.301	139.43
294.516	112.81
294.73	69.8
294.945	16.55
295.16	121
295.374	86.19
295.589	59.56
295.804	55.47
296.018	108.71
296.233	37.03
296.447	69.8
296.662	84.14
296.877	86.19
297.091	16.55
297.306	24.75
297.52	61.61
297.735	88.23
297.949	43.18
298.164	8.36
298.378	51.37
298.593	45.23
298.807	125.1
299.022	22.7
299.236	94.38
299.451	77.99
299.665	14.51
299.88	-1.88
300.094	82.09
300.309	4.27
300.523	-22.36
300.737	41.13
300.952	98.47
301.166	84.14
301.381	102.57
301.595	100.52
301.809	123.05
302.024	34.99
302.238	112.81
302.452	100.52
302.667	92.33
302.881	61.61
303.095	125.1
303.309	73.9
303.524	20.65
303.738	108.71
303.952	30.89
304.166	116.9
304.381	-1.88
304.595	86.19
304.809	51.37
305.023	77.99
305.237	47.27
305.452	18.6
305.666	129.19
305.88	129.19
306.094	61.61
306.308	108.71
306.522	10.41
306.736	86.19
306.95	53.42
307.164	0.17
307.379	69.8
307.593	69.8
307.807	65.71
308.021	69.8
308.235	69.8
308.449	12.46
308.663	47.27
308.877	69.8
309.091	32.94
309.305	98.47
309.519	12.46
309.733	61.61
309.947	12.46
310.161	108.71
310.374	37.03
310.588	67.75
310.802	26.79
311.016	53.42
311.23	59.56
311.444	32.94
311.658	43.18
311.872	84.14
312.085	90.28
312.299	121
312.513	141.48
312.727	80.04
312.941	67.75
313.154	71.85
313.368	-10.07
313.582	69.8
313.796	18.6
314.009	75.95
314.223	22.7
314.437	71.85
314.651	131.24
314.864	20.65
315.078	67.75
315.292	67.75
315.505	18.6
315.719	24.75
315.933	8.36
316.146	-34.64
316.36	65.71
316.573	80.04
316.787	10.41
317.001	77.99
317.214	47.27
317.428	71.85
317.641	-1.88
317.855	41.13
318.068	90.28
318.282	57.51
318.495	131.24
318.709	129.19
318.922	26.79
319.136	127.14
319.349	106.67
319.563	61.61
319.776	61.61
319.99	2.22
320.203	80.04
320.417	80.04
320.63	61.61
320.843	131.24
321.057	45.23
321.27	123.05
321.483	34.99
321.697	43.18
321.91	69.8
322.124	75.95
322.337	88.23
322.55	30.89
322.763	41.13
322.977	-14.17
323.19	18.6
323.403	49.32
323.617	24.75
323.83	108.71
324.043	61.61
324.256	24.75
324.469	65.71
324.683	100.52
324.896	45.23
325.109	75.95
325.322	20.65
325.535	82.09
325.748	24.75
325.962	-26.45
326.175	86.19
326.388	59.56
326.601	96.43
326.814	28.84
327.027	104.62
327.24	129.19
327.453	20.65
327.666	106.67
327.879	100.52
328.092	94.38
328.305	77.99
328.518	24.75
328.731	55.47
328.944	149.67
329.157	71.85
329.37	-42.84
329.583	71.85
329.796	112.81
330.009	45.23
330.222	92.33
330.435	96.43
330.648	147.62
330.861	28.84
331.073	80.04
331.286	49.32
331.499	90.28
331.712	12.46
331.925	86.19
332.138	96.43
332.35	67.75
332.563	43.18
332.776	104.62
332.989	10.41
333.202	61.61
333.414	102.57
333.627	61.61
333.84	108.71
334.053	104.62
334.265	30.89
334.478	123.05
334.691	84.14
334.903	59.56
335.116	57.51
335.329	61.61
335.541	57.51
335.754	135.34
335.966	73.9
336.179	8.36
336.392	104.62
336.604	49.32
336.817	121
337.029	90.28
337.242	96.43
337.454	77.99
337.667	106.67
337.88	84.14
338.092	32.94
338.305	127.14
338.517	-22.36
338.729	49.32
338.942	37.03
339.154	-30.55
339.367	61.61
339.579	123.05
339.792	2.22
340.004	147.62
340.217	20.65
340.429	22.7
340.641	53.42
340.854	47.27
341.066	28.84
341.278	45.23
341.491	88.23
341.703	-10.07
341.915	39.08
342.128	71.85
342.34	57.51
342.552	86.19
342.764	114.86
342.977	82.09
343.189	112.81
343.401	55.47
343.613	-5.97
343.826	26.79
344.038	-14.17
344.25	49.32
344.462	28.84
344.674	77.99
344.886	18.6
345.099	104.62
345.311	51.37
345.523	75.95
345.735	47.27
345.947	59.56
346.159	59.56
346.371	137.38
346.583	55.47
346.795	94.38
347.007	32.94
347.219	114.86
347.431	45.23
347.643	133.29
347.855	75.95
348.067	73.9
348.279	2.22
348.491	77.99
348.703	75.95
348.915	116.9
349.127	49.32
349.339	37.03
349.551	-14.17
349.763	65.71
349.975	100.52
350.187	102.57
350.399	84.14
350.61	116.9
350.822	75.95
351.034	121
351.246	43.18
351.458	90.28
351.669	26.79
351.881	176.3
352.093	69.8
352.305	170.15
352.517	143.53
352.728	49.32
352.94	84.14
353.152	94.38
353.363	71.85
353.575	37.03
353.787	168.1
353.999	80.04
354.21	118.95
354.422	45.23
354.633	49.32
354.845	41.13
355.057	47.27
355.268	34.99
355.48	133.29
355.692	45.23
355.903	75.95
356.115	55.47
356.326	84.14
356.538	170.15
356.749	43.18
356.961	123.05
357.172	102.57
357.384	28.84
357.595	22.7
357.807	2.22
358.018	37.03
358.23	28.84
358.441	110.76
358.653	145.58
358.864	39.08
359.075	59.56
359.287	45.23
359.498	88.23
359.709	106.67
359.921	110.76
360.132	129.19
360.344	41.13
360.555	65.71
360.766	71.85
360.977	18.6
361.189	69.8
361.4	37.03
361.611	151.72
361.823	39.08
362.034	84.14
362.245	104.62
362.456	59.56
362.667	73.9
362.879	14.51
363.09	61.61
363.301	116.9
363.512	92.33
363.723	28.84
363.935	82.09
364.146	151.72
364.357	22.7
364.568	121
364.779	96.43
364.99	20.65
365.201	137.38
365.412	112.81
365.623	10.41
365.834	98.47
366.045	63.66
366.256	100.52
366.467	12.46
366.678	39.08
366.889	110.76
367.1	77.99
367.311	127.14
367.522	-8.02
367.733	61.61
367.944	102.57
368.155	37.03
368.366	28.84
368.577	37.03
368.788	133.29
368.999	2.22
369.209	55.47
369.42	137.38
369.631	180.39
369.842	129.19
370.053	39.08
370.264	153.77
370.474	69.8
370.685	49.32
370.896	73.9
371.107	137.38
371.317	-42.84
371.528	82.09
371.739	118.95
371.95	86.19
372.16	121
372.371	67.75
372.582	104.62
372.792	121
373.003	34.99
373.214	92.33
373.424	92.33
373.635	73.9
373.846	98.47
374.056	137.38
374.267	28.84
374.477	22.7
374.688	16.55
374.898	47.27
375.109	59.56
375.319	75.95
375.53	84.14
375.74	77.99
375.951	90.28
376.161	137.38
376.372	102.57
376.582	110.76
376.793	10.41
377.003	102.57
377.214	24.75
377.424	98.47
377.635	104.62
377.845	39.08
378.055	69.8
378.266	2.22
378.476	53.42
378.686	47.27
378.897	106.67
379.107	102.57
379.317	114.86
379.528	129.19
379.738	137.38
379.948	77.99
380.158	157.86
380.369	59.56
380.579	73.9
380.789	88.23
380.999	45.23
381.21	114.86
381.42	116.9
381.63	43.18
381.84	86.19
382.05	77.99
382.261	73.9
382.471	98.47
382.681	37.03
382.891	153.77
383.101	186.54
383.311	-5.97
383.521	32.94
383.731	121
383.941	45.23
384.151	98.47
384.361	43.18
384.571	106.67
384.781	121
384.991	114.86
385.201	45.23
385.411	69.8
385.621	92.33
385.831	143.53
386.041	53.42
386.251	61.61
386.461	102.57
386.671	61.61
386.881	71.85
387.091	80.04
387.301	94.38
387.511	127.14
387.72	69.8
387.93	43.18
388.14	0.17
388.35	37.03
388.56	118.95
388.769	121
388.979	80.04
389.189	67.75
389.399	98.47
389.609	100.52
389.818	67.75
390.028	149.67
390.238	106.67
390.447	104.62
390.657	47.27
390.867	61.61
391.076	26.79
391.286	65.71
391.496	30.89
391.705	92.33
391.915	108.71
392.125	55.47
392.334	80.04
392.544	49.32
392.753	110.76
392.963	63.66
393.172	18.6
393.382	69.8
393.591	94.38
393.801	80.04
394.01	157.86
394.22	73.9
394.429	37.03
394.639	112.81
394.848	127.14
395.058	94.38
395.267	57.51
395.477	106.67
395.686	75.95
395.895	125.1
396.105	194.73
396.314	45.23
396.524	96.43
396.733	102.57
396.942	121
397.152	110.76
397.361	145.58
397.57	151.72
397.78	164.01
397.989	98.47
398.198	180.39
398.407	73.9
398.617	96.43
398.826	39.08
399.035	69.8
399.244	135.34
399.453	125.1
399.663	82.09
399.872	135.34
400.081	151.72
400.29	159.91
400.499	137.38
400.708	182.44
400.917	164.01
401.127	100.52
401.336	110.76
401.545	88.23
401.754	133.29
401.963	172.2
402.172	110.76
402.381	67.75
402.59	112.81
402.799	88.23
403.008	145.58
403.217	104.62
403.426	174.25
403.635	204.97
403.844	104.62
404.053	149.67
404.262	114.86
404.471	217.26
404.68	161.96
404.888	133.29
405.097	61.61
405.306	180.39
405.515	209.06
405.724	159.91
405.933	104.62
406.142	174.25
406.35	213.16
406.559	209.06
406.768	190.63
406.977	241.83
407.185	211.11
407.394	245.93
407.603	247.97
407.812	227.5
408.02	254.12
408.229	258.21
408.438	213.16
408.646	223.4
408.855	288.93
409.064	241.83
409.272	239.78
409.481	241.83
409.69	241.83
409.898	319.65
410.107	301.22
410.315	293.03
410.524	362.66
410.733	354.47
410.941	297.13
411.15	305.32
411.358	282.79
411.567	350.37
411.775	354.47
411.984	422.05
412.192	409.76
412.401	368.81
412.609	508.07
412.818	458.92
413.026	465.06
413.234	463.01
413.443	522.4
413.651	409.76
413.86	475.3
414.068	536.74
414.276	481.44
414.485	641.18
414.693	637.09
414.901	622.75
415.11	673.95
415.318	632.99
415.526	665.76
415.734	669.86
415.943	708.77
416.151	796.83
416.359	786.59
416.567	772.25
416.776	858.27
416.984	940.19
417.192	944.28
417.4	874.65
417.608	878.75
417.817	903.32
418.025	907.42
418.233	1032.35
418.441	1071.26
418.649	1151.13
418.857	1185.94
419.065	1212.57
419.273	1104.03
419.481	1175.7
419.689	1171.61
419.897	1247.38
420.105	1325.21
420.313	1480.85
420.521	1530
420.729	1562.77
420.937	1499.28
421.145	1648.79
421.353	1691.79
421.561	1677.46
421.769	1757.33
421.977	1863.82
422.185	1863.82
422.393	1822.86
422.601	1986.7
422.809	2048.14
423.017	2042
423.224	2111.63
423.432	2207.88
423.64	2302.09
423.848	2404.49
424.056	2361.48
424.263	2490.5
424.471	2521.22
424.679	2621.57
424.887	2664.58
425.094	2734.21
425.302	2773.12
425.51	3004.54
425.718	3063.93
425.925	3049.6
426.133	3027.07
426.341	3352.7
426.548	3444.85
426.756	3457.14
426.964	3532.92
427.171	3821.68
427.379	3997.81
427.586	3924.08
427.794	3944.56
428.001	4157.55
428.209	4278.38
428.417	4274.28
428.624	4565.09
428.832	4655.2
429.039	4616.29
429.247	4606.05
429.454	4917.34
429.662	5347.42
429.869	4991.07
430.076	5191.77
430.284	5349.47
430.491	5341.27
430.699	5736.53
430.906	5634.13
431.114	5750.87
431.321	6049.87
431.528	6099.02
431.736	6461.51
431.943	6854.72
432.15	6645.83
432.358	6742.08
432.565	6950.98
432.772	7034.94
432.979	7456.82
433.187	7485.5
433.394	7663.67
433.601	8138.8
433.808	8353.84
434.016	8149.04
434.223	8370.22
434.43	8974.37
434.637	8652.84
434.844	9433.11
435.052	9353.24
435.259	9316.38
435.466	9592.86
435.673	9676.82
435.88	10119.18
436.087	10764.29
436.294	10700.81
436.501	10309.65
436.708	10356.75
436.915	10979.33
437.122	11489.28
437.329	11268.09
437.537	11622.39
437.743	11726.84
437.95	11927.54
438.157	12449.77
438.364	12959.72
438.571	12756.97
438.778	12926.95
438.985	14245.84
439.192	13496.28
439.399	14006.23
439.606	13664.22
439.813	14542.8
440.02	15179.72
440.227	14991.3
440.433	14956.49
440.64	15593.4
440.847	15376.32
441.054	15796.15
441.261	16752.56
441.467	16500.65
441.674	16955.3
441.881	17616.8
442.088	17250.21
442.294	17393.57
442.501	17649.57
442.708	18120.6
442.914	18868.11
443.121	19726.21
443.328	19136.39
443.534	20471.67
443.741	20014.97
443.948	19584.9
444.154	21178.22
444.361	21086.06
444.568	21208.94
444.774	21245.8
444.981	21483.36
445.187	22120.28
445.394	22865.74
445.6	22964.04
445.807	24987.44
446.013	23674.69
446.22	24211.26
446.426	25030.44
446.633	25507.62
446.839	26304.28
447.046	25308.97
447.252	26406.68
447.459	26658.58
447.665	26527.51
447.871	27772.67
448.078	28870.39
448.284	27561.73
448.491	28425.98
448.697	29226.73
448.903	29802.21
449.11	29650.66
449.316	29222.64
449.522	29923.04
449.728	30912.21
449.935	30932.69
450.141	30867.16
450.347	31813.32
450.553	30596.82
450.76	31389.39
450.966	32341.69
451.172	32267.97
451.378	32714.42
451.584	31723.21
451.791	32855.73
451.997	32474.81
452.203	32974.52
452.409	33058.48
452.615	33005.24
452.821	31788.74
453.027	31536.84
453.233	33146.54
453.44	32007.87
453.646	32118.46
453.852	32319.17
454.058	32784.05
454.264	31669.96
454.47	32505.53
454.676	31776.45
454.882	32751.29
455.088	29773.54
455.294	30443.23
455.5	31026.9
455.705	30983.89
455.911	29863.65
456.117	29122.29
456.323	28743.41
456.529	27543.3
456.735	28507.9
456.941	27754.24
457.147	27342.6
457.352	26525.46
457.558	26560.28
457.764	26226.46
457.97	25579.3
458.176	25337.64
458.381	25327.4
458.587	23875.39
458.793	23963.45
458.999	22785.87
459.204	24121.15
459.41	23498.56
459.616	22064.99
459.821	22124.38
460.027	22171.48
460.233	21325.67
460.438	20395.89
460.644	20373.36
460.85	19529.6
461.055	19556.22
461.261	19285.89
461.466	18091.93
461.672	17323.94
461.878	18784.14
462.083	17575.84
462.289	17022.89
462.494	16979.88
462.7	16381.87
462.905	15751.1
463.111	16299.95
463.316	16168.88
463.522	16105.4
463.727	16072.63
463.932	15826.87
464.138	15808.44
464.343	15849.4
464.549	15226.82
464.754	16103.35
464.959	15771.58
465.165	15507.39
465.37	15118.28
465.575	14565.32
465.781	15132.61
465.986	15468.48
466.191	14618.57
466.397	14424.01
466.602	13844.44
466.807	14338
467.012	14174.16
467.218	14362.58
467.423	14065.62
467.628	14215.12
467.833	14800.84
468.038	14118.87
468.244	13846.49
468.449	14311.38
468.654	13866.97
468.859	13778.9
469.064	13600.73
469.269	13031.4
469.474	13336.54
469.679	13660.12
469.885	13170.66
470.09	13346.78
470.295	13090.79
470.5	12961.76
470.705	13012.96
470.91	12642.28
471.115	12371.95
471.32	12601.32
471.525	12689.39
471.73	12638.19
471.935	12349.42
472.139	11712.5
472.344	12161.01
472.549	11937.78
472.754	11898.87
472.959	11485.18
473.164	11200.51
473.369	11061.25
473.574	11569.15
473.778	11503.61
473.983	11524.09
474.188	11192.32
474.393	10795.01
474.598	10739.72
474.802	10833.93
475.007	10614.79
475.212	10557.45
475.417	10315.79
475.621	10301.45
475.826	10471.43
476.031	10065.94
476.235	9975.83
476.44	10162.19
476.645	9809.94
476.849	9875.48
477.054	9811.99
477.259	9439.26
477.463	9537.56
477.668	9228.32
477.872	9492.51
478.077	9338.91
478.282	9164.83
478.486	9052.19
478.691	8931.36
478.895	9113.63
479.1	9031.71
479.304	9082.91
479.509	8501.29
479.713	8863.78
479.918	8552.49
480.122	8345.64
480.326	8527.91
480.531	8658.98
480.735	8454.19
480.94	8470.57
481.144	8747.05
481.348	8314.92
481.553	8431.66
481.757	8138.8
481.961	8472.62
482.166	8466.47
482.37	8366.12
482.574	8110.13
482.778	8296.49
482.983	8278.06
483.187	8146.99
483.391	8390.7
483.595	8321.07
483.8	8253.48
484.004	8372.27
484.208	8362.03
484.412	8208.43
484.616	8302.64
484.821	8267.82
485.025	8130.61
485.229	8218.67
485.433	8083.5
485.637	8253.48
485.841	8347.69
486.045	8169.52
486.249	8175.66
486.453	8245.29
486.657	8335.4
486.861	8300.59
487.065	8132.65
487.269	8443.95
487.473	8103.98
487.677	8292.4
487.881	8392.75
488.085	8235.05
488.289	8132.65
488.493	8169.52
488.697	8523.82
488.901	8267.82
489.105	8378.41
489.309	8423.47
489.512	8431.66
489.716	8214.57
489.92	8296.49
490.124	8247.34
490.328	8507.43
490.531	8405.03
490.735	8509.48
490.939	8382.51
491.143	8509.48
491.346	8423.47
491.55	8724.52
491.754	8562.73
491.958	8564.78
492.161	8474.67
492.365	8785.96
492.569	8763.43
492.772	8769.57
492.976	8966.18
493.18	8790.05
493.383	8822.82
493.587	9070.62
493.79	8951.84
493.994	8947.75
494.197	9273.37
494.401	9070.62
494.605	8957.99
494.808	9363.48
495.012	9216.03
495.215	9531.42
495.419	9666.58
495.622	9355.29
495.825	9660.44
496.029	9535.51
496.232	9842.71
496.436	9758.74
496.639	10117.14
496.843	9953.3
497.046	10266.64
497.249	10217.49
497.453	10264.59
497.656	10371.08
497.859	10399.76
498.063	10616.84
498.266	10709
498.469	10575.88
498.673	10815.49
498.876	11100.16
499.079	11118.59
499.282	11165.7
499.485	11313.15
499.689	11476.99
499.892	11689.98
500.095	11728.89
500.298	11775.99
500.501	11749.37
500.705	12042.23
500.908	12580.84
501.111	12406.77
501.314	12408.81
501.517	12449.77
501.72	12642.28
501.923	12896.23
502.126	13037.54
502.329	13213.67
502.532	13164.51
502.735	13463.52
502.938	13586.4
503.141	13676.51
503.344	13948.89
503.547	14147.54
503.75	14141.39
503.953	14274.51
504.156	14665.67
504.359	14747.59
504.562	14829.51
504.765	15103.94
504.968	15134.66
505.17	15454.14
505.373	15372.22
505.576	15763.39
505.779	15663.04
505.982	15980.47
506.185	16363.44
506.387	16349.11
506.59	16408.5
506.793	16867.24
506.996	16875.43
507.198	17307.55
507.401	17362.85
507.604	17588.13
507.807	17565.6
508.009	17717.15
508.212	18028.44
508.415	18212.76
508.617	18368.4
508.82	18638.73
509.022	18374.55
509.225	19173.25
509.428	19347.33
509.63	19437.44
509.833	19681.15
510.035	19888
510.238	19955.58
510.44	20049.78
510.643	20608.88
510.845	20797.29
511.048	20514.67
511.25	20918.12
511.453	20864.88
511.655	21725.02
511.858	21469.03
512.06	21462.88
512.262	22284.12
512.465	22218.58
512.667	22505.3
512.87	22882.13
513.072	22959.95
513.274	23136.07
513.477	23410.5
513.679	23764.8
513.881	24205.11
514.084	24141.63
514.286	24368.95
514.488	24481.59
514.69	25212.71
514.893	25208.62
515.095	25265.96
515.297	25335.59
515.499	26011.42
515.701	25956.13
515.904	26291.99
516.106	26580.76
516.308	26611.48
516.51	27221.77
516.712	27313.93
516.914	27840.26
517.116	27694.85
517.318	28327.67
517.52	28219.13
517.722	28491.51
517.925	28899.06
518.127	29261.55
518.329	29101.81
518.531	29425.39
518.733	30248.67
518.935	29865.7
519.136	30320.35
519.338	30303.96
519.54	30838.48
519.742	31250.13
519.944	31438.54
520.146	31889.09
520.348	31813.32
520.55	31887.04
520.752	32097.98
520.954	33070.77
521.155	32657.08
521.357	33263.28
521.559	33676.97
521.761	33957.54
521.963	34090.66
522.164	34121.38
522.366	34352.8
522.568	34553.5
522.77	34977.43
522.971	35444.37
523.173	35419.79
523.375	35591.82
523.576	35499.66
523.778	35716.75
523.98	36388.48
524.181	36411.01
524.383	36566.65
524.584	37320.31
524.786	37095.03
524.988	37129.84
525.189	37332.59
525.391	37525.1
525.592	37566.06
525.794	37992.04
525.995	38288.99
526.197	38469.22
526.398	38465.12
526.6	38657.63
526.801	39073.37
527.003	39194.2
527.204	39167.57
527.406	39542.35
527.607	39822.92
527.808	39788.11
528.01	39329.36
528.211	39888.46
528.412	40472.13
528.614	40007.24
528.815	40201.8
529.016	40912.44
529.218	40207.94
529.419	40580.67
529.62	40756.8
529.822	40537.66
530.023	40787.52
530.224	40738.37
530.425	40986.17
530.626	40953.4
530.828	40973.88
531.029	41926.19
531.23	41543.22
531.431	41080.38
531.632	41258.55
531.833	42151.46
532.035	41645.62
532.236	41692.72
532.437	42053.16
532.638	41313.84
532.839	41715.25
533.04	41897.52
533.241	41805.36
533.442	42573.35
533.643	41977.39
533.844	41958.95
534.045	42042.92
534.246	41471.54
534.447	42214.95
534.648	41842.22
534.849	42522.15
535.05	42020.39
535.251	42120.74
535.451	42470.95
535.652	42333.73
535.853	42137.13
536.054	42731.04
536.255	42405.41
536.456	42053.16
536.657	42559.01
536.857	42135.08
537.058	41770.54
537.259	42540.58
537.46	42262.05
537.66	42649.12
537.861	42356.26
538.062	42022.44
538.263	42489.38
538.463	42298.92
538.664	42569.25
538.865	42728.99
539.065	42786.33
539.266	42374.69
539.466	42579.49
539.667	42202.66
539.868	42679.84
540.068	42208.81
540.269	42364.45
540.469	42528.29
540.67	42204.71
540.87	42235.43
541.071	42421.8
541.271	42243.62
541.472	42053.16
541.672	42098.22
541.873	42298.92
542.073	41604.66
542.274	42147.37
542.474	42053.16
542.675	41922.09
542.875	42296.87
543.075	42262.05
543.276	41494.07
543.476	42386.98
543.676	41850.41
543.877	42571.3
544.077	42335.78
544.277	42409.51
544.478	41580.08
544.678	41842.22
544.878	42163.75
545.078	42161.7
545.279	41465.39
545.479	41762.35
545.679	41920.04
545.879	42192.42
546.079	41803.31
546.28	41836.08
546.48	41422.39
546.68	41827.88
546.88	42079.78
547.08	42178.09
547.28	42006.06
547.48	41625.14
547.68	42266.15
547.88	41270.84
548.081	42069.54
548.281	42139.18
548.481	41715.25
548.681	42014.25
548.881	42114.6
549.081	41823.79
549.28	41434.67
549.48	41756.21
549.68	41342.52
549.88	42235.43
550.08	41424.43
550.28	41729.58
550.48	41569.84
550.68	42366.5
550.88	41682.48
551.08	41688.62
551.279	41956.91
551.479	41113.14
551.679	41274.93
551.879	41213.49
552.079	41950.76
552.278	41190.97
552.478	41705.01
552.678	41403.95
552.878	41610.8
553.077	41281.08
553.277	41070.14
553.477	42106.41
553.676	41363
553.876	41516.59
554.076	40672.83
554.275	41397.81
554.475	40834.62
554.674	41391.67
554.874	41254.45
555.074	40871.48
555.273	41141.81
555.473	41113.14
555.672	40898.11
555.872	40705.6
556.071	41205.3
556.271	41070.14
556.47	40449.6
556.67	40810.04
556.869	41195.06
557.068	41225.78
557.268	40590.91
557.467	40881.72
557.667	40664.64
557.866	40425.03
558.065	40523.33
558.265	40435.27
558.464	40322.63
558.663	40504.9
558.863	40138.31
559.062	40640.06
559.261	39820.88
559.461	40412.74
559.66	39485.01
559.859	40027.72
560.058	39845.45
560.258	40097.35
560.457	39417.43
560.656	39790.16
560.855	39532.11
561.054	39859.79
561.253	39456.34
561.453	39253.59
561.652	39628.37
561.851	39626.32
562.05	39362.13
562.249	39024.22
562.448	39882.31
562.647	39233.11
562.846	38987.35
563.045	39032.41
563.244	38452.83
563.443	39024.22
563.642	37930.6
563.841	38604.38
564.04	38276.71
564.239	38694.49
564.438	37813.87
564.637	38428.26
564.836	38264.42
565.035	37860.97
565.234	37840.49
565.432	37932.65
565.631	37987.94
565.83	37850.73
566.029	37414.51
566.228	37467.76
566.427	37408.37
566.625	37238.39
566.824	36767.35
567.023	37070.45
567.222	36724.35
567.42	37131.89
567.619	36916.86
567.818	36445.82
568.016	36667
568.215	37285.49
568.414	36550.27
568.612	36619.9
568.811	36535.93
569.01	36259.46
569.208	35946.12
569.407	35956.36
569.605	35667.59
569.804	36247.17
570.002	35264.14
570.201	35860.1
570.4	35358.35
570.598	35241.62
570.797	34809.5
570.995	35534.48
571.193	34786.97
571.392	35434.13
571.59	35014.29
571.789	34801.3
571.987	34635.42
572.186	34703
572.384	34621.08
572.582	34444.96
572.781	34625.18
572.979	33969.83
573.177	34172.58
573.376	34162.34
573.574	33767.08
573.772	34127.52
573.971	33627.82
574.169	33373.87
574.367	33126.07
574.565	33789.61
574.763	33230.51
574.962	33095.35
575.16	32825.01
575.358	33302.19
575.556	32675.51
575.754	33179.31
575.952	32435.9
576.151	33013.43
576.349	32284.35
576.547	32376.51
576.745	32405.18
576.943	32448.19
577.141	32009.92
577.339	32116.42
577.537	31663.82
577.735	32036.55
577.933	31807.17
578.131	32087.75
578.329	31581.9
578.527	31514.31
578.725	31205.07
578.923	31344.33
579.121	31454.92
579.319	30979.79
579.516	31522.51
579.714	31295.18
579.912	30957.27
580.11	30930.64
580.308	30854.87
580.506	30834.39
580.704	30527.19
580.901	30799.57
581.099	30627.54
581.297	30086.88
581.495	30215.9
581.692	30217.95
581.89	29794.02
582.088	30240.48
582.285	30017.25
582.483	30074.59
582.681	29687.53
582.878	29832.93
583.076	29112.05
583.274	29621.99
583.471	29148.91
583.669	29411.05
583.866	29433.58
584.064	29191.92
584.262	28722.93
584.459	29241.07
584.657	29167.34
584.854	28958.45
585.052	28239.61
585.249	28632.82
585.447	28643.06
585.644	28446.46
585.841	28544.76
586.039	28727.03
586.236	28036.86
586.434	28227.32
586.631	27922.18
586.828	28040.96
587.026	28114.69
587.223	27950.85
587.42	27848.45
587.618	28034.81
587.815	27512.58
588.012	27436.81
588.21	27289.35
588.407	27639.56
588.604	27379.46
588.801	27041.55
588.999	27062.03
589.196	27029.26
589.393	26883.86
589.59	26863.38
589.787	26615.57
589.984	26507.03
590.182	26627.86
590.379	26351.38
590.576	26320.67
590.773	26359.58
590.97	26199.83
591.167	26384.15
591.364	25964.32
591.561	26179.36
591.758	25765.67
591.955	26079
592.152	25956.13
592.349	25595.68
592.546	25540.39
592.743	25724.71
592.94	25413.41
593.137	25304.87
593.334	25378.6
593.531	25118.51
593.727	25431.85
593.924	25218.86
594.121	24950.57
594.318	25255.72
594.515	24700.72
594.712	25259.82
594.908	24637.23
595.105	24450.87
595.302	24532.79
595.499	24739.63
595.696	24547.12
595.892	24391.48
596.089	24475.45
596.286	24057.66
596.482	24069.95
596.679	24313.66
596.876	24160.06
597.072	23852.86
597.269	23875.39
597.466	23584.58
597.662	23664.45
597.859	23793.47
598.055	23560
598.252	23449.41
598.448	23430.98
598.645	23641.92
598.841	23154.51
599.038	23293.77
599.234	23480.13
599.431	22927.18
599.627	23199.56
599.824	23267.14
600.02	23086.92
600.217	22982.48
600.413	22576.98
600.609	22460.24
600.806	22550.35
601.002	22466.39
601.198	22282.07
601.395	22087.51
601.591	22251.35
601.787	22466.39
601.984	22122.33
602.18	22294.36
602.376	21954.4
602.572	22028.12
602.769	21960.54
602.965	21780.32
603.161	22034.27
603.357	21516.13
603.553	21356.39
603.75	21829.47
603.946	21389.16
604.142	21684.06
604.338	21460.84
604.534	21395.3
604.73	21196.65
604.926	21237.61
605.122	21223.27
605.318	20885.36
605.514	20692.85
605.71	20518.77
605.906	20684.66
606.102	20764.53
606.298	20799.34
606.494	20615.02
606.69	20602.74
606.886	20651.89
607.082	20363.12
607.278	20725.61
607.474	19976.06
607.67	20381.56
607.866	20240.25
608.062	20393.84
608.257	19959.67
608.453	20076.41
608.649	20115.32
608.845	19978.11
609.041	19914.62
609.236	20127.61
609.432	19787.64
609.628	19675.01
609.824	19933.05
610.019	19632
610.215	19935.1
610.411	19769.21
610.606	19683.2
610.802	19646.33
610.998	19472.26
611.193	19513.22
611.389	19312.52
611.584	19269.51
611.78	19261.32
611.976	19175.3
612.171	19163.01
612.367	19302.28
612.562	19373.96
612.758	18640.78
612.953	19005.32
613.149	19185.54
613.344	18732.94
613.539	18950.03
613.735	18939.79
613.93	18995.08
614.126	18919.31
614.321	18898.83
614.517	18726.8
614.712	18800.52
614.907	18571.15
615.103	18929.55
615.298	18384.79
615.493	18630.54
615.688	18274.2
615.884	18913.16
616.079	18575.25
616.274	18356.11
616.47	18335.63
616.665	18218.9
616.86	18003.86
617.055	18245.52
617.25	18233.24
617.445	18042.78
617.641	17764.25
617.836	18130.84
618.031	17522.59
618.226	18020.25
618.421	17821.59
618.616	17797.02
618.811	17694.62
619.006	17762.2
619.201	17422.24
619.396	17311.65
619.591	17192.87
619.786	17622.94
619.981	17131.43
620.176	17366.95
620.371	17043.37
620.566	17092.52
620.761	16912.3
620.956	17031.08
621.151	16664.49
621.346	16744.36
621.541	16215.99
621.735	16635.82
621.93	16455.6
622.125	16551.85
622.32	16105.4
622.515	16431.02
622.709	16144.31
622.904	16142.26
623.099	16066.49
623.294	16127.92
623.488	15863.74
623.683	16027.57
623.878	15628.22
624.072	15812.54
624.267	15724.47
624.462	15495.1
624.656	14948.29
624.851	15304.64
625.046	15077.32
625.24	15318.98
625.435	14954.44
625.629	15036.36
625.824	15009.73
626.018	15042.5
626.213	14637
626.407	14729.16
626.602	14454.73
626.796	14729.16
626.991	14401.49
627.185	14333.9
627.38	14374.86
627.574	14176.21
627.768	13866.97
627.963	13875.16
628.157	13852.63
628.352	14016.47
628.546	13944.79
628.74	13848.54
628.935	13719.51
629.129	13721.56
629.323	13494.24
629.517	13694.94
629.712	13537.24
629.906	13191.14
630.1	13109.22
630.294	13146.08
630.489	12935.14
630.683	13144.03
630.877	12972
631.071	12783.59
631.265	12892.13
631.459	12695.53
631.653	12511.21
631.848	12666.86
632.042	12701.67
632.236	12437.48
632.43	12345.33
632.624	12496.88
632.818	12496.88
633.012	12402.67
633.206	11962.36
633.4	12052.47
633.594	11933.68
633.788	11921.4
633.982	11919.35
634.176	11874.29
634.369	11819
634.563	11927.54
634.757	11563
634.951	11802.61
635.145	11769.85
635.339	11565.05
635.533	11427.84
635.726	11622.39
635.92	11227.14
636.114	11122.69
636.308	11208.7
636.501	11163.65
636.695	11151.36
636.889	10852.36
637.083	11012.1
637.276	10700.81
637.47	10569.74
637.664	10760.2
637.857	10686.47
638.051	10774.53
638.244	10534.92
638.438	10514.44
638.632	10516.49
638.825	10422.28
639.019	10485.77
639.212	10301.45
639.406	10479.63
639.599	10104.85
639.793	10260.49
639.986	10199.06
640.18	10129.42
640.373	9824.28
640.567	9904.15
640.76	9900.05
640.954	9768.98
641.147	9721.88
641.34	9547.8
641.534	9543.71
641.727	9504.79
641.92	9439.26
642.114	9265.18
642.307	9445.4
642.5	9447.45
642.694	9244.7
642.887	9267.23
643.08	9373.72
643.273	9343
643.467	9177.12
643.66	9121.82
643.853	8765.48
644.046	9021.47
644.239	8892.45
644.432	8869.92
644.626	9009.19
644.819	8953.89
645.012	8904.74
645.205	8773.67
645.398	8718.37
645.591	8501.29
645.784	8554.54
645.977	8538.15
646.17	8613.93
646.363	8386.6
646.556	8284.2
646.749	8382.51
646.942	8421.42
647.135	8407.08
647.328	8374.31
647.521	8243.24
647.714	7952.43
647.907	8091.7
648.099	8063.02
648.292	8138.8
648.485	7895.09
648.678	7821.36
648.871	7843.89
649.064	7864.37
649.256	7962.67
649.449	7843.89
649.642	7485.5
649.835	7436.35
650.027	7594.04
650.22	7575.61
650.413	7526.46
650.605	7688.25
650.798	7475.26
650.991	7159.87
651.183	7233.6
651.376	7315.52
651.568	7188.54
651.761	7204.92
651.954	7209.02
652.146	7143.49
652.339	7077.95
652.531	7002.18
652.724	6971.46
652.916	6920.26
653.109	7080
653.301	6821.95
653.494	7137.34
653.686	6764.61
653.879	7061.57
654.071	6766.66
654.263	6826.05
654.456	6686.79
654.648	6758.47
654.84	6512.71
655.033	6649.93
655.225	6608.97
655.417	6582.34
655.61	6645.83
655.802	6568.01
655.994	6418.5
656.186	6316.11
656.379	6459.46
656.571	6172.75
656.763	6266.96
656.955	6342.73
657.148	6312.01
657.34	6148.17
657.532	6236.24
657.724	6154.32
657.916	6176.84
658.108	6160.46
658.3	6189.13
658.492	6158.41
658.684	6029.39
658.876	5994.58
659.068	5750.87
659.26	5920.85
659.452	5861.46
659.644	6008.91
659.836	6017.1
660.028	5828.69
660.22	5711.96
660.412	5652.56
660.604	5750.87
660.796	5822.55
660.988	5646.42
661.18	5668.95
661.372	5519.45
661.563	5627.99
661.755	5587.03
661.947	5556.31
662.139	5580.89
662.331	5468.25
662.522	5324.89
662.714	5513.3
662.906	5312.6
663.097	5441.62
663.289	5136.48
663.481	5331.03
663.673	5345.37
663.864	5230.68
664.056	5236.83
664.247	5185.63
664.439	5109.85
664.631	5249.11
664.822	5283.93
665.014	5261.4
665.205	5027.93
665.397	5068.89
665.588	5029.98
665.78	5095.52
665.971	4978.78
666.163	5122.14
666.354	4982.88
666.546	5079.13
666.737	4960.35
666.929	4825.19
667.12	4898.91
667.311	4829.28
667.503	5005.41
667.694	4860
667.885	4782.18
668.077	4843.62
668.268	4681.83
668.459	4880.48
668.651	4636.77
668.842	4796.51
669.033	4692.07
669.224	4821.09
669.416	4798.56
669.607	4733.03
669.798	4698.21
669.989	4673.64
670.18	4671.59
670.371	4532.33
670.563	4579.43
670.754	4673.64
670.945	4384.87
671.136	4624.48
671.327	4585.57
671.518	4571.24
671.709	4561
671.9	4552.81
672.091	4546.66
672.282	4472.93
672.473	4370.54
672.664	4479.08
672.855	4591.72
673.046	4522.09
673.237	4403.3
673.428	4513.89
673.619	4528.23
673.809	4427.88
674	4505.7
674.191	4452.45
674.382	4497.51
674.573	4382.82
674.764	4429.93
674.954	4386.92
675.145	4307.05
675.336	4386.92
675.527	4143.21
675.717	4276.33
675.908	4280.43
676.099	4343.91
676.289	4350.06
676.48	4280.43
676.671	4266.09
676.861	4196.46
677.052	4343.91
677.243	4190.31
677.433	4360.3
677.624	4421.74
677.814	4145.26
678.005	4282.47
678.195	4302.95
678.386	4321.38
678.576	4249.71
678.767	4218.99
678.957	4341.86
679.148	4264.04
679.338	4239.47
679.529	4212.84
679.719	4194.41
679.909	4266.09
680.1	4372.58
680.29	4298.86
680.481	4241.51
680.671	4253.8
680.861	4255.85
681.052	4274.28
681.242	4255.85
681.432	4186.22
681.622	4200.55
681.813	4163.69
682.003	4409.45
682.193	4173.93
682.383	4249.71
682.573	4159.6
682.764	4178.03
682.954	4175.98
683.144	4130.92
683.334	4001.9
683.524	4046.96
683.714	4354.15
683.904	4073.58
684.094	4280.43
684.284	4173.93
684.474	4266.09
684.664	4307.05
684.854	4171.88
685.044	4128.88
685.234	4139.12
685.424	4229.23
685.614	4110.44
685.804	4118.64
685.994	4135.02
686.184	3903.6
686.374	4001.9
686.564	3942.51
686.753	4040.81
686.943	3854.45
687.133	4026.48
687.323	4016.24
687.513	3950.7
687.702	3989.61
687.892	3903.6
688.082	4012.14
688.272	4006
688.461	3934.32
688.651	3928.17
688.841	3715.19
689.03	3735.67
689.22	3784.82
689.41	3723.38
689.599	3815.54
689.789	3692.66
689.979	3776.63
690.168	3698.8
690.358	3649.65
690.547	3659.89
690.737	3709.04
690.926	3608.69
691.116	3575.92
691.305	3635.32
691.495	3584.12
691.684	3498.1
691.874	3668.08
692.063	3494.01
692.252	3631.22
692.442	3496.05
692.631	3434.61
692.82	3491.96
693.01	3434.61
693.199	3469.43
693.388	3256.44
693.578	3453.05
693.767	3537.01
693.956	3278.97
694.146	3305.59
694.335	3440.76
694.524	3295.35
694.713	3428.47
694.902	3258.49
695.092	3235.96
695.281	3342.46
695.47	3197.05
695.659	3113.08
695.848	3260.54
696.037	3203.19
696.226	3233.91
696.415	3178.62
696.604	3342.46
696.793	3184.76
696.982	3100.8
697.171	3080.32
697.36	3199.1
697.549	3178.62
697.738	3111.04
697.927	2963.58
698.116	3281.02
698.305	3168.38
698.494	3102.84
698.683	3076.22
698.872	3201.15
699.061	3084.41
699.25	3141.75
699.438	3072.12
699.627	3219.58
699.816	3244.15
700.005	2971.77
700.193	3065.98
700.382	3104.89
700.571	3055.74
700.76	3119.23
700.948	3176.57
701.137	3057.79
701.326	3133.56
701.514	3123.32
701.703	3135.61
701.892	3158.14
702.08	3143.8
702.269	3088.51
702.457	3004.54
702.646	3108.99
702.834	2934.91
703.023	3065.98
703.212	3041.4
703.4	3022.97
703.589	3106.94
703.777	3033.21
703.965	2893.95
704.154	3117.18
704.342	3084.41
704.531	3004.54
704.719	2953.34
704.907	3100.8
705.096	2990.21
705.284	3006.59
705.472	3117.18
705.661	3004.54
705.849	3094.65
706.037	3012.73
706.226	3197.05
706.414	3088.51
706.602	2947.2
706.79	3219.58
706.979	3029.12
707.167	3133.56
707.355	3117.18
707.543	3102.84
707.731	2975.87
707.919	3057.79
708.107	3018.88
708.296	3084.41
708.484	2996.35
708.672	3119.23
708.86	3117.18
709.048	3164.28
709.236	3006.59
709.424	3162.23
709.612	3133.56
709.8	3092.6
709.988	3072.12
710.176	3078.27
710.364	3168.38
710.551	3178.62
710.739	3133.56
710.927	2926.72
711.115	3186.81
711.303	3186.81
711.491	3115.13
711.679	3135.61
711.866	3080.32
712.054	3149.95
712.242	3041.4
712.43	3149.95
712.617	3022.97
712.805	3076.22
712.993	3014.78
713.181	3156.09
713.368	3174.52
713.556	3160.19
713.744	3090.56
713.931	3274.87
714.119	3115.13
714.306	3092.6
714.494	3039.36
714.682	3135.61
714.869	3035.26
715.057	3231.87
715.244	3115.13
715.432	3225.72
715.619	3195
715.807	3209.34
715.994	3141.75
716.182	3260.54
716.369	3149.95
716.556	3242.11
716.744	3127.42
716.931	3188.86
717.119	3233.91
717.306	3111.04
717.493	3203.19
717.681	3186.81
717.868	3283.06
718.055	3276.92
718.242	3295.35
718.43	3313.78
718.617	3303.54
718.804	3162.23
718.991	3252.35
719.179	3401.85
719.366	3272.82
719.553	3166.33
719.74	3260.54
719.927	3256.44
720.114	3168.38
720.301	3326.07
720.488	3195
720.676	3276.92
720.863	3395.7
721.05	3266.68
721.237	3246.2
721.424	3412.09
721.611	3272.82
721.798	3219.58
721.985	3315.83
722.172	3211.39
722.358	3264.63
722.545	3250.3
722.732	3289.21
722.919	3375.22
723.106	3426.42
723.293	3364.98
723.48	3444.85
723.667	3274.87
723.853	3315.83
724.04	3434.61
724.227	3262.58
724.414	3321.98
724.6	3213.43
724.787	3467.38
724.974	3315.83
725.161	3272.82
725.347	3227.77
725.534	3442.81
725.72	3428.47
725.907	3319.93
726.094	3426.42
726.28	3295.35
726.467	3324.02
726.653	3362.94
726.84	3483.77
727.027	3311.74
727.213	3399.8
727.4	3432.57
727.586	3457.14
727.773	3410.04
727.959	3326.07
728.145	3430.52
728.332	3197.05
728.518	3455.09
728.705	3485.81
728.891	3405.94
729.077	3412.09
729.264	3520.63
729.45	3321.98
729.636	3532.92
729.823	3465.33
730.009	3455.09
730.195	3489.91
730.382	3494.01
730.568	3436.66
730.754	3508.34
730.94	3487.86
731.126	3420.28
731.313	3575.92
731.499	3567.73
731.685	3498.1
731.871	3504.25
732.057	3436.66
732.243	3563.64
732.429	3512.44
732.615	3391.61
732.801	3524.72
732.987	3580.02
733.173	3387.51
733.359	3453.05
733.545	3512.44
733.731	3434.61
733.917	3641.46
734.103	3537.01
734.289	3608.69
734.475	3524.72
734.661	3598.45
734.847	3594.36
735.033	3463.29
735.219	3442.81
735.404	3549.3
735.59	3545.2
735.776	3459.19
735.962	3496.05
736.148	3528.82
736.333	3471.48
736.519	3430.52
736.705	3444.85
736.89	3590.26
737.076	3713.14
737.262	3534.96
737.447	3547.25
737.633	3563.64
737.819	3440.76
738.004	3545.2
738.19	3610.74
738.375	3510.39
738.561	3571.83
738.747	3469.43
738.932	3524.72
739.118	3580.02
739.303	3463.29
739.489	3522.68
739.674	3453.05
739.859	3465.33
740.045	3377.27
740.23	3487.86
740.416	3383.42
740.601	3369.08
740.786	3324.02
740.972	3442.81
741.157	3324.02
741.342	3375.22
741.528	3272.82
741.713	3371.13
741.898	3448.95
742.084	3389.56
742.269	3354.74
742.454	3352.7
742.639	3283.06
742.824	3442.81
743.01	3442.81
743.195	3412.09
743.38	3334.26
743.565	3229.82
743.75	3342.46
743.935	3336.31
744.12	3276.92
744.305	3176.57
744.49	3195
744.675	3160.19
744.86	3229.82
745.045	3264.63
745.23	3272.82
745.415	3240.06
745.6	3211.39
745.785	3201.15
745.97	3068.03
746.155	3092.6
746.34	3166.33
746.525	3035.26
746.71	3244.15
746.895	3063.93
747.079	3143.8
747.264	2945.15
747.449	3123.32
747.634	3108.99
747.819	3098.75
748.003	2928.77
748.188	2984.06
748.373	2881.66
748.557	2949.25
748.742	2967.68
748.927	2912.38
749.111	2783.36
749.296	2799.74
749.481	2975.87
749.665	2816.13
749.85	2742.4
750.034	2842.75
750.219	2818.18
750.404	2769.02
750.588	2666.63
750.773	2769.02
750.957	2689.15
751.141	2627.71
751.326	2756.74
751.51	2752.64
751.695	2652.29
751.879	2656.39
752.064	2795.65
752.248	2715.78
752.432	2656.39
752.617	2508.93
752.801	2640
752.985	2558.08
753.17	2553.99
753.354	2467.97
753.538	2570.37
753.722	2467.97
753.907	2463.88
754.091	2441.35
754.275	2465.93
754.459	2424.97
754.643	2384.01
754.828	2240.65
755.012	2371.72
755.196	2263.18
755.38	2402.44
755.564	2312.33
755.748	2414.73
755.932	2431.11
756.116	2355.33
756.3	2263.18
756.484	2232.46
756.668	2310.28
756.852	2254.98
757.036	2146.44
757.22	2121.87
757.404	2168.97
757.588	2105.48
757.772	2175.11
757.956	2113.67
758.14	2265.22
758.323	2140.3
758.507	2111.63
758.691	2078.86
758.875	2048.14
759.059	2066.57
759.242	2091.15
759.426	1982.6
759.61	2087.05
759.794	1900.69
759.977	2021.52
760.161	2031.76
760.345	1931.41
760.528	1982.6
760.712	1974.41
760.895	1898.64
761.079	1964.17
761.263	1896.59
761.446	1839.25
761.63	1919.12
761.813	1872.01
761.997	1781.9
762.18	1890.45
762.364	1810.58
762.547	1751.18
762.731	1861.77
762.914	1771.66
763.098	1747.09
763.281	1740.94
763.464	1798.29
763.648	1826.96
763.831	1757.33
764.015	1747.09
764.198	1781.9
764.381	1695.89
764.564	1831.05
764.748	1755.28
764.931	1900.69
765.114	1742.99
765.297	1779.86
765.481	1628.31
765.664	1798.29
765.847	1640.59
766.03	1579.15
766.213	1640.59
766.397	1693.84
766.58	1583.25
766.763	1620.11
766.946	1607.83
767.129	1560.72
767.312	1650.83
767.495	1515.67
767.678	1554.58
767.861	1613.97
768.044	1638.55
768.227	1616.02
768.41	1636.5
768.593	1603.73
768.776	1573.01
768.959	1560.72
769.142	1562.77
769.324	1538.2
769.507	1542.29
769.69	1497.24
769.873	1556.63
770.056	1570.96
770.239	1532.05
770.421	1505.43
770.604	1548.44
770.787	1489.04
770.97	1446.04
771.152	1482.9
771.335	1429.65
771.518	1454.23
771.7	1491.09
771.883	1448.08
772.066	1306.77
772.248	1349.78
772.431	1487
772.613	1384.6
772.796	1325.21
772.978	1380.5
773.161	1378.45
773.343	1284.25
773.526	1310.87
773.708	1243.29
773.891	1251.48
774.073	1298.58
774.256	1282.2
774.438	1294.49
774.621	1288.34
774.803	1284.25
774.985	1187.99
775.168	1308.82
775.35	1302.68
775.532	1325.21
775.715	1183.9
775.897	1190.04
776.079	1159.32
776.261	1185.94
776.444	1206.42
776.626	1149.08
776.808	1175.7
776.99	1114.27
777.173	1169.56
777.355	1124.51
777.537	1120.41
777.719	1087.64
777.901	1020.06
778.083	1048.73
778.265	1013.92
778.447	1155.23
778.629	1099.93
778.811	1032.35
778.993	1007.77
779.175	1169.56
779.357	1050.78
779.539	1028.25
779.721	1013.92
779.903	1005.72
780.085	1005.72
780.267	975
780.449	1077.4
780.631	1015.96
780.812	1038.49
780.994	983.2
781.176	958.62
781.358	1013.92
781.54	970.91
781.721	944.28
781.903	960.67
782.085	1054.87
782.267	915.61
782.448	852.13
782.63	852.13
782.812	866.46
782.993	856.22
783.175	888.99
783.357	919.71
783.538	862.37
783.72	805.02
783.901	854.17
784.083	897.18
784.264	819.36
784.446	829.6
784.627	794.78
784.809	917.66
784.99	747.68
785.172	891.04
785.353	788.64
785.535	833.69
785.716	755.87
785.897	772.25
786.079	751.78
786.26	755.87
786.441	798.88
786.623	684.19
786.804	700.58
786.985	759.97
787.167	688.29
787.348	716.96
787.529	813.21
787.71	708.77
787.891	716.96
788.073	747.68
788.254	684.19
788.435	684.19
788.616	659.62
788.797	659.62
788.978	618.66
789.159	600.23
789.34	696.48
789.522	620.71
789.703	700.58
789.884	673.95
790.065	706.72
790.246	684.19
790.427	673.95
790.607	721.06
790.788	594.08
790.969	594.08
791.15	526.5
791.331	600.23
791.512	657.57
791.693	635.04
791.874	499.88
792.054	594.08
792.235	549.03
792.416	534.69
792.597	512.16
792.778	602.27
792.958	624.8
793.139	592.03
793.32	503.97
793.5	567.46
793.681	594.08
793.862	487.59
794.042	522.4
794.223	477.35
794.404	598.18
794.584	495.78
794.765	508.07
794.945	491.68
795.126	559.27
795.306	569.51
795.487	512.16
795.667	528.55
795.848	471.2
796.028	483.49
796.209	489.64
796.389	555.17
796.57	512.16
796.75	557.22
796.93	450.72
797.111	426.15
797.291	473.25
797.471	495.78
797.652	424.1
797.832	501.92
798.012	491.68
798.192	424.1
798.373	434.34
798.553	405.67
798.733	493.73
798.913	495.78
799.093	434.34
799.274	432.29
799.454	491.68
799.634	512.16
799.814	438.44
799.994	428.2
800.174	397.48
800.354	465.06
800.534	370.85
800.714	471.2
800.894	374.95
801.074	342.18
801.254	340.13
801.434	483.49
801.614	374.95
801.794	352.42
801.974	1118.36
802.154	417.96
802.334	438.44
802.514	348.33
802.693	446.63
802.873	389.28
803.053	415.91
803.233	323.75
803.413	342.18
803.592	383.14
803.772	356.52
803.952	411.81
804.131	307.37
804.311	399.52
804.491	438.44
804.67	313.51
804.85	313.51
805.03	383.14
805.209	426.15
805.389	299.17
805.568	313.51
805.748	377
805.928	364.71
806.107	325.8
806.287	272.55
806.466	299.17
806.646	356.52
806.825	397.48
807.004	428.2
807.184	362.66
807.363	370.85
807.543	350.37
807.722	385.19
807.901	348.33
808.081	323.75
808.26	276.65
808.439	245.93
808.619	290.98
808.798	309.41
808.977	372.9
809.156	286.89
809.336	266.41
809.515	303.27
809.694	293.03
809.873	315.56
810.052	299.17
810.231	354.47
810.411	250.02
810.59	286.89
810.769	336.04
810.948	338.09
811.127	303.27
811.306	301.22
811.485	247.97
811.664	307.37
811.843	256.17
812.022	280.74
812.201	270.5
812.38	243.88
812.559	241.83
812.737	325.8
812.916	254.12
813.095	239.78
813.274	299.17
813.453	323.75
813.632	237.74
813.811	362.66
813.989	227.5
814.168	266.41
814.347	252.07
814.526	260.26
814.704	223.4
814.883	266.41
815.062	286.89
815.24	293.03
815.419	254.12
815.598	231.59
815.776	178.34
815.955	217.26
816.133	143.53
816.312	260.26
816.49	274.6
816.669	272.55
816.847	260.26
817.026	217.26
817.204	219.3
817.383	178.34
817.561	266.41
817.74	333.99
817.918	235.69
818.097	221.35
818.275	184.49
818.453	329.89
818.632	266.41
818.81	217.26
818.988	209.06
819.167	202.92
819.345	219.3
819.523	266.41
819.701	159.91
819.879	258.21
820.058	231.59
820.236	215.21
820.414	241.83
820.592	256.17
820.77	260.26
820.948	186.54
821.127	247.97
821.305	309.41
821.483	225.45
821.661	237.74
821.839	245.93
822.017	192.68
822.195	194.73
822.373	241.83
822.551	202.92
822.729	137.38
822.907	245.93
823.085	227.5
823.262	266.41
823.44	192.68
823.618	139.43
823.796	233.64
823.974	198.82
824.152	170.15
824.329	245.93
824.507	227.5
824.685	161.96
824.863	196.78
825.04	180.39
825.218	184.49
825.396	143.53
825.574	108.71
825.751	186.54
825.929	168.1
826.107	159.91
826.284	225.45
826.462	77.99
826.639	190.63
826.817	147.62
826.994	168.1
827.172	161.96
827.349	286.89
827.527	274.6
827.704	182.44
827.882	196.78
828.059	129.19
828.237	145.58
828.414	123.05
828.591	57.51
828.769	192.68
828.946	145.58
829.124	200.87
829.301	125.1
829.478	153.77
829.655	211.11
829.833	125.1
830.01	34.99
830.187	192.68
830.364	116.9
830.542	192.68
830.719	190.63
830.896	63.66
831.073	182.44
831.25	219.3
831.427	139.43
831.604	161.96
831.782	143.53
831.959	106.67
832.136	88.23
832.313	153.77
832.49	172.2
832.667	98.47
832.844	168.1
833.021	202.92
833.198	145.58
833.374	159.91
833.551	159.91
833.728	168.1
833.905	161.96
834.082	98.47
834.259	129.19
834.436	188.58
834.612	114.86
834.789	243.88
834.966	204.97
835.143	139.43
835.319	98.47
835.496	213.16
835.673	131.24
835.85	172.2
836.026	112.81
836.203	211.11
836.38	145.58
836.556	151.72
836.733	166.06
836.909	145.58
837.086	92.33
837.262	98.47
837.439	170.15
837.616	131.24
837.792	63.66
837.968	190.63
838.145	155.82
838.321	18.6
838.498	153.77
838.674	149.67
838.851	77.99
839.027	127.14
839.203	92.33
839.38	129.19
839.556	135.34
839.732	125.1
839.909	71.85
840.085	149.67
840.261	73.9
840.437	96.43
840.614	73.9
840.79	151.72
840.966	114.86
841.142	194.73
841.318	69.8
841.494	102.57
841.671	170.15
841.847	88.23
842.023	75.95
842.199	135.34
842.375	102.57
842.551	65.71
842.727	47.27
842.903	204.97
843.079	-3.93
843.255	96.43
843.431	59.56
843.607	131.24
843.783	30.89
843.959	55.47
844.134	77.99
844.31	225.45
844.486	84.14
844.662	73.9
844.838	86.19
845.013	104.62
845.189	127.14
845.365	110.76
845.541	104.62
845.716	69.8
845.892	108.71
846.068	61.61
846.244	67.75
846.419	98.47
846.595	86.19
846.77	43.18
846.946	100.52
847.122	47.27
847.297	18.6
847.473	82.09
847.648	43.18
847.824	86.19
847.999	30.89
848.175	94.38
848.35	90.28
848.526	100.52
848.701	137.38
848.876	194.73
849.052	151.72
849.227	86.19
849.403	55.47
849.578	114.86
849.753	168.1
849.929	133.29
850.104	63.66
850.279	47.27
850.454	61.61
850.63	86.19
850.805	157.86
850.98	61.61
851.155	14.51
851.33	43.18
851.505	69.8
851.681	123.05
851.856	137.38
852.031	147.62
852.206	100.52
852.381	26.79
852.556	94.38
852.731	82.09
852.906	77.99
853.081	65.71
853.256	172.2
853.431	65.71
853.606	28.84
853.781	53.42
853.956	61.61
854.131	28.84
854.305	153.77
854.48	86.19
854.655	59.56
854.83	114.86
855.005	116.9
855.18	110.76
855.354	-28.5
855.529	73.9
855.704	73.9
855.879	37.03
856.053	139.43
856.228	123.05
856.403	59.56
856.577	94.38
856.752	49.32
856.926	59.56
857.101	86.19
857.276	10.41
857.45	63.66
857.625	127.14
857.799	73.9
857.974	65.71
858.148	63.66
858.323	98.47
858.497	10.41
858.672	67.75
858.846	39.08
859.02	106.67
859.195	49.32
859.369	77.99
859.543	43.18
859.718	114.86
859.892	67.75
860.066	114.86
860.241	32.94
860.415	0.17
860.589	67.75
860.763	121
860.938	39.08
861.112	43.18
861.286	96.43
861.46	37.03
861.634	45.23
861.808	112.81
861.982	22.7
862.157	2.22
862.331	71.85
862.505	34.99
862.679	-26.45
862.853	22.7
863.027	71.85
863.201	37.03
863.375	55.47
863.549	61.61
863.722	133.29
863.896	41.13
864.07	24.75
864.244	-14.17
864.418	55.47
864.592	73.9
864.766	71.85
864.939	-5.97
865.113	20.65
865.287	63.66
865.461	26.79
865.634	63.66
865.808	22.7
865.982	34.99
866.156	4.27
866.329	28.84
866.503	26.79
866.676	65.71
866.85	51.37
867.024	61.61
867.197	88.23
867.371	172.2
867.544	34.99
867.718	37.03
867.891	57.51
868.065	61.61
868.238	88.23
868.412	63.66
868.585	41.13
868.759	47.27
868.932	-30.55
869.105	37.03
869.279	24.75
869.452	71.85
869.625	-1.88
869.799	84.14
869.972	-32.6
870.145	16.55
870.319	24.75
870.492	26.79
870.665	41.13
870.838	2.22
871.011	14.51
871.185	39.08
871.358	20.65
871.531	53.42
871.704	61.61
871.877	94.38
872.05	69.8
872.223	43.18
872.396	45.23
872.569	69.8
872.742	6.31
872.915	108.71
873.088	-30.55
873.261	45.23
873.434	104.62
873.607	-10.07
873.78	77.99
873.953	65.71
874.126	102.57
874.299	16.55
874.471	49.32
874.644	69.8
874.817	112.81
874.99	20.65
875.163	24.75
875.335	-18.26
875.508	34.99
875.681	100.52
875.853	-42.84
876.026	73.9
876.199	67.75
876.371	24.75
876.544	-3.93
876.717	104.62
876.889	80.04
877.062	69.8
877.234	-55.12
877.407	39.08
877.579	49.32
877.752	82.09
877.924	90.28
878.097	8.36
878.269	71.85
878.442	77.99
878.614	77.99
878.786	26.79
878.959	32.94
879.131	63.66
879.303	-24.4
879.476	-42.84
879.648	8.36
879.82	47.27
879.993	6.31
880.165	-22.36
880.337	22.7
880.509	34.99
880.681	28.84
880.854	4.27
881.026	84.14
881.198	73.9
881.37	45.23
881.542	26.79
881.714	0.17
881.886	63.66
882.058	51.37
882.23	18.6
882.402	28.84
882.574	49.32
882.746	75.95
882.918	98.47
883.09	32.94
883.262	24.75
883.434	88.23
883.606	12.46
883.778	26.79
883.95	65.71
884.122	39.08
884.293	57.51
884.465	39.08
884.637	30.89
884.809	71.85
884.98	-12.12
885.152	32.94
885.324	26.79
885.496	-18.26
885.667	82.09
885.839	16.55
886.011	143.53
886.182	-1.88
886.354	84.14
886.525	100.52
886.697	55.47
886.869	-30.55
887.04	-5.97
887.212	100.52
887.383	57.51
887.555	-1.88
887.726	39.08
887.897	-12.12
888.069	108.71
888.24	69.8
888.412	30.89
888.583	45.23
888.754	32.94
888.926	26.79
889.097	4.27
889.268	26.79
889.44	30.89
889.611	-20.31
889.782	18.6
889.953	53.42
890.125	129.19
890.296	-40.79
890.467	59.56
890.638	75.95
890.809	49.32
890.98	28.84
891.151	12.46
891.323	77.99
891.494	102.57
891.665	-20.31
891.836	37.03
892.007	43.18
892.178	86.19
892.349	37.03
892.52	-16.21
892.691	-26.45
892.862	18.6
893.032	-40.79
893.203	6.31
893.374	75.95
893.545	57.51
893.716	30.89
893.887	47.27
894.057	77.99
894.228	-32.6
894.399	-42.84
894.57	49.32
894.74	16.55
894.911	51.37
895.082	-40.79
895.253	-10.07
895.423	53.42
895.594	73.9
895.764	-40.79
895.935	32.94
896.106	32.94
896.276	-16.21
896.447	55.47
896.617	47.27
896.788	77.99
896.958	-3.93
897.129	-55.12
897.299	59.56
897.47	39.08
897.64	71.85
897.81	16.55
897.981	57.51
898.151	55.47
898.322	80.04
898.492	-26.45
898.662	8.36
898.832	-18.26
899.003	37.03
899.173	59.56
899.343	16.55
899.513	-10.07
