Data from USB4F104151__76__12-24-22-081.txt Node

Date: Fri Mar 14 12:24:22 EDT 2025
User: louis
Spectrometer: USB4F10415
Trigger mode: 4
Integration Time (sec): 3.500000E-2
Scans to average: 1
Electric dark correction enabled: true
Nonlinearity correction enabled: false
Boxcar width: 0
XAxis mode: Wavelengths
Number of Pixels in Spectrum: 3648
>>>>>Begin Spectral Data<<<<<
178.204	-61.78
178.424	-61.78
178.644	-61.78
178.864	-178.51
179.084	-149.84
179.304	-33.11
179.524	-35.16
179.744	-8.53
179.964	24.23
180.184	-41.3
180.404	-2.39
180.624	22.19
180.844	52.91
181.064	-43.35
181.283	48.81
181.503	-6.49
181.723	22.19
181.943	-90.45
182.163	30.38
182.383	13.99
182.602	28.33
182.822	89.77
183.042	63.15
183.262	-0.34
183.482	-8.53
183.701	13.99
183.921	26.28
184.141	-14.68
184.361	-12.63
184.58	57
184.8	36.52
185.02	3.75
185.239	73.39
185.459	18.09
185.679	20.14
185.898	-8.53
186.118	89.77
186.338	34.47
186.557	91.82
186.777	-57.68
186.997	22.19
187.216	-16.73
187.436	75.43
187.655	61.1
187.875	5.8
188.095	-2.39
188.314	50.86
188.534	89.77
188.753	-53.59
188.973	79.53
189.192	54.95
189.412	59.05
189.631	1.71
189.851	42.67
190.07	71.34
190.29	22.19
190.509	-24.92
190.729	134.82
190.948	24.23
191.168	175.78
191.387	122.54
191.607	61.1
191.826	52.91
192.045	95.91
192.265	-4.44
192.484	7.85
192.704	126.63
192.923	18.09
193.142	104.11
193.362	32.43
193.581	108.2
193.8	-6.49
194.02	122.54
194.239	5.8
194.458	11.95
194.678	-14.68
194.897	-20.82
195.116	-16.73
195.335	26.28
195.555	69.29
195.774	28.33
195.993	44.71
196.212	-10.58
196.432	20.14
196.651	-2.39
196.87	57
197.089	91.82
197.308	77.48
197.528	-6.49
197.747	3.75
197.966	61.1
198.185	122.54
198.404	-33.11
198.623	-41.3
198.842	128.68
199.062	52.91
199.281	-0.34
199.5	40.62
199.719	32.43
199.938	52.91
200.157	36.52
200.376	-20.82
200.595	75.43
200.814	30.38
201.033	38.57
201.252	106.15
201.471	36.52
201.69	54.95
201.909	13.99
202.128	46.76
202.347	93.87
202.566	54.95
202.785	-16.73
203.004	87.72
203.223	26.28
203.442	54.95
203.661	-37.2
203.879	85.67
204.098	34.47
204.317	-26.96
204.536	34.47
204.755	59.05
204.974	69.29
205.193	85.67
205.411	46.76
205.63	13.99
205.849	69.29
206.068	77.48
206.287	59.05
206.505	11.95
206.724	-10.58
206.943	67.24
207.162	1.71
207.381	40.62
207.599	30.38
207.818	83.63
208.037	-8.53
208.255	-0.34
208.474	18.09
208.693	28.33
208.911	40.62
209.13	24.23
209.349	40.62
209.567	32.43
209.786	-33.11
210.005	18.09
210.223	20.14
210.442	-10.58
210.661	75.43
210.879	18.09
211.098	69.29
211.316	-6.49
211.535	118.44
211.753	85.67
211.972	46.76
212.191	89.77
212.409	30.38
212.628	65.19
212.846	7.85
213.065	42.67
213.283	46.76
213.502	24.23
213.72	-10.58
213.938	7.85
214.157	-2.39
214.375	26.28
214.594	3.75
214.812	13.99
215.031	13.99
215.249	59.05
215.467	50.86
215.686	59.05
215.904	89.77
216.122	-29.01
216.341	112.3
216.559	71.34
216.778	83.63
216.996	91.82
217.214	-45.4
217.432	3.75
217.651	-18.77
217.869	1.71
218.087	3.75
218.306	104.11
218.524	34.47
218.742	16.04
218.96	24.23
219.179	91.82
219.397	1.71
219.615	40.62
219.833	16.04
220.051	40.62
220.27	81.58
220.488	-0.34
220.706	48.81
220.924	-10.58
221.142	9.9
221.36	-22.87
221.578	3.75
221.796	3.75
222.015	44.71
222.233	46.76
222.451	97.96
222.669	18.09
222.887	34.47
223.105	9.9
223.323	-22.87
223.541	34.47
223.759	110.25
223.977	-37.2
224.195	81.58
224.413	163.5
224.631	7.85
224.849	46.76
225.067	57
225.285	-16.73
225.503	1.71
225.721	-37.2
225.939	46.76
226.157	-22.87
226.375	110.25
226.592	-0.34
226.81	50.86
227.028	114.34
227.246	67.24
227.464	40.62
227.682	42.67
227.9	40.62
228.117	63.15
228.335	13.99
228.553	11.95
228.771	38.57
228.989	-16.73
229.206	100.01
229.424	48.81
229.642	-26.96
229.86	-24.92
230.077	69.29
230.295	59.05
230.513	75.43
230.731	54.95
230.948	20.14
231.166	87.72
231.384	-33.11
231.601	20.14
231.819	108.2
232.037	20.14
232.254	-18.77
232.472	-4.44
232.689	26.28
232.907	11.95
233.125	-51.54
233.342	34.47
233.56	57
233.777	11.95
233.995	-4.44
234.213	102.06
234.43	57
234.648	-16.73
234.865	-53.59
235.083	-2.39
235.3	81.58
235.518	77.48
235.735	128.68
235.953	83.63
236.17	54.95
236.388	9.9
236.605	65.19
236.822	48.81
237.04	93.87
237.257	89.77
237.475	44.71
237.692	65.19
237.909	13.99
238.127	-0.34
238.344	36.52
238.562	75.43
238.779	-43.35
238.996	32.43
239.214	-26.96
239.431	69.29
239.648	-14.68
239.865	79.53
240.083	54.95
240.3	22.19
240.517	-47.44
240.735	-6.49
240.952	65.19
241.169	-2.39
241.386	46.76
241.603	-41.3
241.821	75.43
242.038	36.52
242.255	65.19
242.472	44.71
242.689	52.91
242.907	83.63
243.124	-6.49
243.341	48.81
243.558	7.85
243.775	-26.96
243.992	24.23
244.209	52.91
244.426	114.34
244.643	73.39
244.86	-29.01
245.078	38.57
245.295	28.33
245.512	83.63
245.729	20.14
245.946	85.67
246.163	-67.92
246.38	13.99
246.597	-10.58
246.814	-20.82
247.031	-2.39
247.248	13.99
247.464	-33.11
247.681	-29.01
247.898	85.67
248.115	26.28
248.332	63.15
248.549	102.06
248.766	63.15
248.983	79.53
249.2	36.52
249.417	36.52
249.633	-69.97
249.85	59.05
250.067	5.8
250.284	-22.87
250.501	77.48
250.717	38.57
250.934	-49.49
251.151	16.04
251.368	75.43
251.585	40.62
251.801	-12.63
252.018	-12.63
252.235	48.81
252.451	-22.87
252.668	-33.11
252.885	50.86
253.102	52.91
253.318	26.28
253.535	-41.3
253.752	-2.39
253.968	44.71
254.185	-16.73
254.401	52.91
254.618	16.04
254.835	-98.64
255.051	61.1
255.268	42.67
255.484	3.75
255.701	81.58
255.917	7.85
256.134	-8.53
256.351	-41.3
256.567	-22.87
256.784	-41.3
257	-74.07
257.217	-31.06
257.433	108.2
257.65	28.33
257.866	36.52
258.082	32.43
258.299	-49.49
258.515	9.9
258.732	42.67
258.948	-29.01
259.165	46.76
259.381	-4.44
259.597	36.52
259.814	1.71
260.03	-18.77
260.246	61.1
260.463	16.04
260.679	97.96
260.895	-35.16
261.112	24.23
261.328	-4.44
261.544	100.01
261.761	102.06
261.977	-22.87
262.193	-0.34
262.409	106.15
262.626	67.24
262.842	65.19
263.058	5.8
263.274	42.67
263.49	40.62
263.707	67.24
263.923	32.43
264.139	-6.49
264.355	-0.34
264.571	57
264.787	-31.06
265.004	26.28
265.22	28.33
265.436	-14.68
265.652	-24.92
265.868	-12.63
266.084	-39.25
266.3	97.96
266.516	-10.58
266.732	40.62
266.948	81.58
267.164	75.43
267.38	65.19
267.596	11.95
267.812	46.76
268.028	48.81
268.244	30.38
268.46	44.71
268.676	9.9
268.892	32.43
269.108	46.76
269.324	7.85
269.54	63.15
269.756	-76.12
269.972	9.9
270.188	18.09
270.403	-20.82
270.619	-51.54
270.835	95.91
271.051	42.67
271.267	-31.06
271.483	9.9
271.698	100.01
271.914	79.53
272.13	59.05
272.346	-10.58
272.562	42.67
272.777	40.62
272.993	-18.77
273.209	-53.59
273.425	46.76
273.64	32.43
273.856	32.43
274.072	-2.39
274.287	20.14
274.503	9.9
274.719	57
274.934	-12.63
275.15	-35.16
275.366	-63.83
275.581	46.76
275.797	-39.25
276.012	-53.59
276.228	11.95
276.444	48.81
276.659	100.01
276.875	13.99
277.09	3.75
277.306	-16.73
277.521	30.38
277.737	-20.82
277.952	-0.34
278.168	28.33
278.383	79.53
278.599	24.23
278.814	71.34
279.03	46.76
279.245	48.81
279.461	42.67
279.676	61.1
279.892	-12.63
280.107	3.75
280.322	16.04
280.538	32.43
280.753	34.47
280.969	59.05
281.184	40.62
281.399	67.24
281.615	11.95
281.83	30.38
282.045	-39.25
282.26	40.62
282.476	-29.01
282.691	11.95
282.906	83.63
283.122	11.95
283.337	32.43
283.552	5.8
283.767	44.71
283.983	36.52
284.198	11.95
284.413	93.87
284.628	-16.73
284.843	50.86
285.058	-51.54
285.274	1.71
285.489	16.04
285.704	65.19
285.919	18.09
286.134	-12.63
286.349	20.14
286.564	28.33
286.779	54.95
286.995	-20.82
287.21	-80.21
287.425	9.9
287.64	32.43
287.855	24.23
288.07	50.86
288.285	54.95
288.5	1.71
288.715	120.49
288.93	48.81
289.145	11.95
289.36	50.86
289.575	46.76
289.79	85.67
290.004	73.39
290.219	-37.2
290.434	40.62
290.649	-6.49
290.864	-18.77
291.079	-51.54
291.294	61.1
291.509	13.99
291.724	34.47
291.938	18.09
292.153	7.85
292.368	5.8
292.583	48.81
292.798	77.48
293.012	59.05
293.227	-53.59
293.442	13.99
293.657	108.2
293.871	26.28
294.086	65.19
294.301	42.67
294.516	48.81
294.73	-45.4
294.945	50.86
295.16	-8.53
295.374	67.24
295.589	32.43
295.804	26.28
296.018	46.76
296.233	26.28
296.447	11.95
296.662	-94.55
296.877	26.28
297.091	42.67
297.306	95.91
297.52	50.86
297.735	9.9
297.949	67.24
298.164	79.53
298.378	5.8
298.593	-8.53
298.807	50.86
299.022	28.33
299.236	77.48
299.451	-18.77
299.665	24.23
299.88	-8.53
300.094	40.62
300.309	44.71
300.523	89.77
300.737	48.81
300.952	61.1
301.166	63.15
301.381	-12.63
301.595	-0.34
301.809	38.57
302.024	-26.96
302.238	-26.96
302.452	97.96
302.667	46.76
302.881	-24.92
303.095	83.63
303.309	128.68
303.524	7.85
303.738	-22.87
303.952	22.19
304.166	26.28
304.381	-102.74
304.595	22.19
304.809	67.24
305.023	85.67
305.237	42.67
305.452	9.9
305.666	46.76
305.88	73.39
306.094	61.1
306.308	69.29
306.522	28.33
306.736	36.52
306.95	46.76
307.164	28.33
307.379	7.85
307.593	106.15
307.807	100.01
308.021	67.24
308.235	7.85
308.449	-53.59
308.663	1.71
308.877	108.2
309.091	36.52
309.305	-22.87
309.519	-10.58
309.733	38.57
309.947	22.19
310.161	5.8
310.374	73.39
310.588	-12.63
310.802	-26.96
311.016	40.62
311.23	30.38
311.444	71.34
311.658	77.48
311.872	34.47
312.085	-8.53
312.299	100.01
312.513	89.77
312.727	1.71
312.941	13.99
313.154	32.43
313.368	54.95
313.582	102.06
313.796	18.09
314.009	3.75
314.223	77.48
314.437	38.57
314.651	26.28
314.864	-6.49
315.078	18.09
315.292	24.23
315.505	89.77
315.719	50.86
315.933	116.39
316.146	24.23
316.36	24.23
316.573	32.43
316.787	104.11
317.001	38.57
317.214	-37.2
317.428	59.05
317.641	-18.77
317.855	54.95
318.068	-18.77
318.282	91.82
318.495	79.53
318.709	52.91
318.922	5.8
319.136	77.48
319.349	89.77
319.563	38.57
319.776	65.19
319.99	-6.49
320.203	32.43
320.417	69.29
320.63	48.81
320.843	81.58
321.057	73.39
321.27	32.43
321.483	-14.68
321.697	112.3
321.91	-2.39
322.124	77.48
322.337	50.86
322.55	-2.39
322.763	3.75
322.977	77.48
323.19	44.71
323.403	-4.44
323.617	24.23
323.83	112.3
324.043	7.85
324.256	65.19
324.469	-10.58
324.683	38.57
324.896	16.04
325.109	63.15
325.322	9.9
325.535	24.23
325.748	91.82
325.962	44.71
326.175	26.28
326.388	71.34
326.601	5.8
326.814	24.23
327.027	48.81
327.24	110.25
327.453	-18.77
327.666	-8.53
327.879	63.15
328.092	16.04
328.305	67.24
328.518	-8.53
328.731	-10.58
328.944	69.29
329.157	38.57
329.37	3.75
329.583	40.62
329.796	38.57
330.009	9.9
330.222	18.09
330.435	50.86
330.648	9.9
330.861	32.43
331.073	73.39
331.286	71.34
331.499	-26.96
331.712	42.67
331.925	11.95
332.138	57
332.35	-4.44
332.563	-2.39
332.776	36.52
332.989	38.57
333.202	-24.92
333.414	57
333.627	-20.82
333.84	132.78
334.053	-20.82
334.265	32.43
334.478	13.99
334.691	30.38
334.903	104.11
335.116	-16.73
335.329	32.43
335.541	3.75
335.754	57
335.966	-39.25
336.179	5.8
336.392	57
336.604	-24.92
336.817	61.1
337.029	69.29
337.242	11.95
337.454	54.95
337.667	81.58
337.88	69.29
338.092	57
338.305	24.23
338.517	48.81
338.729	85.67
338.942	73.39
339.154	87.72
339.367	26.28
339.579	-14.68
339.792	69.29
340.004	38.57
340.217	3.75
340.429	34.47
340.641	1.71
340.854	-26.96
341.066	-74.07
341.278	52.91
341.491	136.87
341.703	67.24
341.915	-45.4
342.128	85.67
342.34	34.47
342.552	-2.39
342.764	24.23
342.977	30.38
343.189	91.82
343.401	-8.53
343.613	95.91
343.826	-6.49
344.038	3.75
344.25	65.19
344.462	67.24
344.674	124.58
344.886	34.47
345.099	59.05
345.311	-2.39
345.523	-67.92
345.735	44.71
345.947	36.52
346.159	-6.49
346.371	13.99
346.583	-8.53
346.795	155.3
347.007	46.76
347.219	57
347.431	63.15
347.643	104.11
347.855	40.62
348.067	46.76
348.279	-4.44
348.491	-24.92
348.703	118.44
348.915	-14.68
349.127	-22.87
349.339	75.43
349.551	16.04
349.763	95.91
349.975	28.33
350.187	-37.2
350.399	59.05
350.61	18.09
350.822	3.75
351.034	77.48
351.246	71.34
351.458	48.81
351.669	-4.44
351.881	9.9
352.093	46.76
352.305	75.43
352.517	18.09
352.728	38.57
352.94	-12.63
353.152	54.95
353.363	46.76
353.575	11.95
353.787	116.39
353.999	9.9
354.21	108.2
354.422	75.43
354.633	24.23
354.845	26.28
355.057	28.33
355.268	63.15
355.48	26.28
355.692	46.76
355.903	3.75
356.115	-6.49
356.326	-20.82
356.538	100.01
356.749	7.85
356.961	79.53
357.172	46.76
357.384	3.75
357.595	175.78
357.807	26.28
358.018	102.06
358.23	40.62
358.441	24.23
358.653	57
358.864	71.34
359.075	18.09
359.287	-6.49
359.498	67.24
359.709	5.8
359.921	61.1
360.132	50.86
360.344	18.09
360.555	-4.44
360.766	102.06
360.977	-26.96
361.189	50.86
361.4	9.9
361.611	132.78
361.823	102.06
362.034	-0.34
362.245	-24.92
362.456	3.75
362.667	18.09
362.879	93.87
363.09	73.39
363.301	40.62
363.512	-12.63
363.723	48.81
363.935	34.47
364.146	59.05
364.357	-0.34
364.568	59.05
364.779	-2.39
364.99	67.24
365.201	44.71
365.412	42.67
365.623	16.04
365.834	34.47
366.045	-57.68
366.256	112.3
366.467	3.75
366.678	26.28
366.889	73.39
367.1	32.43
367.311	34.47
367.522	-37.2
367.733	97.96
367.944	50.86
368.155	26.28
368.366	20.14
368.577	93.87
368.788	87.72
368.999	-4.44
369.209	36.52
369.42	118.44
369.631	147.11
369.842	44.71
370.053	59.05
370.264	38.57
370.474	24.23
370.685	112.3
370.896	120.49
371.107	83.63
371.317	-22.87
371.528	-8.53
371.739	106.15
371.95	20.14
372.16	104.11
372.371	-18.77
372.582	38.57
372.792	87.72
373.003	100.01
373.214	-29.01
373.424	102.06
373.635	16.04
373.846	136.87
374.056	26.28
374.267	46.76
374.477	32.43
374.688	20.14
374.898	79.53
375.109	44.71
375.319	24.23
375.53	87.72
375.74	79.53
375.951	52.91
376.161	67.24
376.372	40.62
376.582	87.72
376.793	26.28
377.003	57
377.214	52.91
377.424	57
377.635	118.44
377.845	16.04
378.055	-4.44
378.266	-16.73
378.476	50.86
378.686	46.76
378.897	79.53
379.107	97.96
379.317	32.43
379.528	48.81
379.738	91.82
379.948	22.19
380.158	157.35
380.369	-4.44
380.579	34.47
380.789	57
380.999	67.24
381.21	30.38
381.42	73.39
381.63	34.47
381.84	85.67
382.05	42.67
382.261	34.47
382.471	75.43
382.681	-2.39
382.891	97.96
383.101	63.15
383.311	30.38
383.521	42.67
383.731	81.58
383.941	89.77
384.151	124.58
384.361	-41.3
384.571	61.1
384.781	57
384.991	118.44
385.201	102.06
385.411	30.38
385.621	97.96
385.831	36.52
386.041	71.34
386.251	48.81
386.461	126.63
386.671	79.53
386.881	71.34
387.091	24.23
387.301	85.67
387.511	83.63
387.72	57
387.93	-4.44
388.14	16.04
388.35	26.28
388.56	177.83
388.769	61.1
388.979	61.1
389.189	28.33
389.399	26.28
389.609	28.33
389.818	112.3
390.028	106.15
390.238	73.39
390.447	63.15
390.657	36.52
390.867	67.24
391.076	13.99
391.286	61.1
391.496	85.67
391.705	63.15
391.915	46.76
392.125	91.82
392.334	28.33
392.544	81.58
392.753	102.06
392.963	18.09
393.172	28.33
393.382	-4.44
393.591	134.82
393.801	91.82
394.01	106.15
394.22	61.1
394.429	130.73
394.639	85.67
394.848	67.24
395.058	73.39
395.267	81.58
395.477	91.82
395.686	81.58
395.895	69.29
396.105	38.57
396.314	112.3
396.524	65.19
396.733	114.34
396.942	77.48
397.152	38.57
397.361	83.63
397.57	118.44
397.78	112.3
397.989	132.78
398.198	210.6
398.407	20.14
398.617	44.71
398.826	126.63
399.035	16.04
399.244	145.06
399.453	61.1
399.663	97.96
399.872	40.62
400.081	87.72
400.29	110.25
400.499	46.76
400.708	63.15
400.917	63.15
401.127	136.87
401.336	116.39
401.545	132.78
401.754	116.39
401.963	114.34
402.172	22.19
402.381	77.48
402.59	89.77
402.799	71.34
403.008	95.91
403.217	130.73
403.426	112.3
403.635	87.72
403.844	118.44
404.053	100.01
404.262	114.34
404.471	112.3
404.68	95.91
404.888	136.87
405.097	116.39
405.306	194.22
405.515	122.54
405.724	122.54
405.933	108.2
406.142	226.98
406.35	136.87
406.559	216.74
406.768	120.49
406.977	253.61
407.185	173.74
407.394	206.5
407.603	159.4
407.812	179.88
408.02	169.64
408.229	130.73
408.438	200.36
408.646	130.73
408.855	214.7
409.064	212.65
409.272	206.5
409.481	226.98
409.69	224.94
409.898	136.87
410.107	247.46
410.315	372.39
410.524	302.76
410.733	300.71
410.941	249.51
411.15	233.13
411.358	284.33
411.567	413.35
411.775	335.53
411.984	376.48
412.192	343.72
412.401	294.57
412.609	433.83
412.818	437.92
413.026	439.97
413.234	415.4
413.443	478.88
413.651	411.3
413.86	466.6
414.068	515.75
414.276	472.74
414.485	493.22
414.693	525.99
414.901	587.43
415.11	636.58
415.318	556.71
415.526	718.5
415.734	650.91
415.943	720.54
416.151	614.05
416.359	710.3
416.567	698.02
416.776	767.65
416.984	743.07
417.192	814.75
417.4	763.55
417.608	827.04
417.817	812.7
418.025	890.53
418.233	960.16
418.441	908.96
418.649	966.3
418.857	1011.36
419.065	1093.27
419.273	1060.51
419.481	1095.32
419.689	1242.78
419.897	1355.41
420.105	1169.05
420.313	1310.36
420.521	1386.13
420.729	1291.93
420.937	1418.9
421.145	1390.23
421.353	1556.11
421.561	1722
421.769	1609.36
421.977	1609.36
422.185	1670.8
422.393	1756.82
422.601	1932.94
422.809	1963.66
423.017	1883.79
423.224	1984.14
423.432	1978
423.64	2086.54
423.848	2215.56
424.056	2133.64
424.263	2383.49
424.471	2342.53
424.679	2436.74
424.887	2485.89
425.094	2653.83
425.302	2619.01
425.51	2733.7
425.718	2635.39
425.925	2745.98
426.133	2858.62
426.341	3090.04
426.548	3094.14
426.756	3194.49
426.964	3325.56
427.171	3468.92
427.379	3522.16
427.586	3518.07
427.794	3632.76
428.001	3896.94
428.209	3999.34
428.417	3991.15
428.624	4165.23
428.832	4322.92
429.039	4038.25
429.247	4126.32
429.454	4540.01
429.662	4896.35
429.869	4703.84
430.076	4912.74
430.284	4820.58
430.491	5052
430.699	5250.65
430.906	5324.38
431.114	5408.34
431.321	5615.19
431.528	5666.39
431.736	6041.17
431.943	6436.42
432.15	6276.68
432.358	6321.74
432.565	6594.12
432.772	6551.11
432.979	6954.56
433.187	6901.31
433.394	7046.72
433.601	7509.56
433.808	7648.82
434.016	7556.66
434.223	7765.56
434.43	8324.65
434.637	8177.2
434.844	8664.61
435.052	8687.14
435.259	8885.8
435.466	8957.47
435.673	8711.72
435.88	9504.28
436.087	9874.96
436.294	9915.92
436.501	9741.85
436.708	9850.39
436.915	10133.01
437.122	10739.21
437.329	10561.03
437.537	11087.36
437.743	11066.88
437.95	11023.87
438.157	11580.92
438.364	12023.28
438.571	11935.22
438.778	12004.85
438.985	13182.43
439.192	12701.16
439.399	13151.71
439.606	12762.6
439.813	13473.25
440.02	14198.23
440.227	14030.29
440.433	13872.6
440.64	14480.85
440.847	14282.19
441.054	14718.41
441.261	15818.17
441.467	15603.13
441.674	15785.4
441.881	16276.91
442.088	16256.43
442.294	16205.24
442.501	16721.32
442.708	16844.2
442.914	17429.92
443.121	18226.58
443.328	17720.73
443.534	19201.41
443.741	18568.59
443.948	18232.72
444.154	19760.51
444.361	19445.12
444.568	19776.89
444.774	19578.24
444.981	19965.31
445.187	20241.78
445.394	21618.02
445.6	21269.86
445.807	23149.9
446.013	22193.5
446.22	22445.4
446.426	23412.04
446.633	23747.9
446.839	24460.6
447.046	23549.25
447.252	24808.75
447.459	24786.22
447.665	24790.32
447.871	25941.28
448.078	26934.54
448.284	25718.05
448.491	26275.1
448.697	27176.2
448.903	27856.13
449.11	27723.01
449.316	27616.52
449.522	28011.78
449.728	28880.11
449.935	29152.49
450.141	28714.23
450.347	29168.88
450.553	28826.87
450.76	28853.49
450.966	29893.86
451.172	29791.46
451.378	30500.06
451.584	29826.28
451.791	30485.72
451.997	30385.37
452.203	30805.2
452.409	31038.67
452.615	30756.05
452.821	29537.51
453.027	29334.76
453.233	30633.18
453.44	29265.13
453.646	29875.43
453.852	29977.83
454.058	30567.64
454.264	29492.46
454.47	30156
454.676	29775.08
454.882	30555.35
455.088	27800.83
455.294	28214.52
455.5	28566.77
455.705	28884.21
455.911	27901.18
456.117	27100.43
456.323	26686.74
456.529	25394.47
456.735	26756.37
456.941	26023.2
457.147	25441.57
457.352	24657.2
457.558	24284.47
457.764	24436.02
457.97	23842.11
458.176	23301.45
458.381	23768.38
458.587	22164.82
458.793	22353.24
458.999	21007.72
459.204	22627.67
459.41	21863.77
459.616	20233.59
459.821	20264.31
460.027	20354.42
460.233	19922.3
460.438	19099.02
460.644	19146.12
460.85	18292.12
461.055	18193.81
461.261	17929.63
461.466	16590.25
461.672	15955.38
461.878	17393.06
462.083	16037.3
462.289	15721.91
462.494	15816.12
462.7	15023.56
462.905	14261.71
463.111	14970.31
463.316	15031.75
463.522	14933.45
463.727	14886.34
463.932	14765.51
464.138	14734.79
464.343	14724.55
464.549	14355.92
464.754	14820.81
464.959	14689.74
465.165	14665.16
465.37	13995.48
465.575	13524.44
465.781	14108.12
465.986	14194.13
466.191	13843.93
466.397	13186.53
466.602	12936.68
466.807	13313.5
467.012	13290.98
467.218	13256.16
467.423	12912.1
467.628	13215.2
467.833	13594.08
468.038	13325.79
468.244	13053.41
468.449	13282.78
468.654	12797.42
468.859	12748.26
469.064	12740.07
469.269	11941.36
469.474	12314.09
469.679	12498.41
469.885	12107.25
470.09	12396.01
470.295	12039.67
470.5	11851.25
470.705	12113.39
470.91	11617.79
471.115	11691.51
471.32	11718.14
471.525	11859.45
471.73	11509.24
471.935	11632.12
472.139	11249.15
472.344	11070.98
472.549	11073.03
472.754	10843.65
472.959	10677.77
473.164	10384.91
473.369	10397.2
473.574	10741.25
473.778	10589.71
473.983	10511.88
474.188	10425.87
474.393	10096.14
474.598	10016.27
474.802	9969.17
475.007	9870.87
475.212	9872.92
475.417	9694.74
475.621	9661.98
475.826	9643.54
476.031	9459.23
476.235	9289.24
476.44	9313.82
476.645	9182.75
476.849	9139.74
477.054	8953.38
477.259	8961.57
477.463	8977.95
477.668	8650.28
477.872	8930.85
478.077	8746.53
478.282	8353.32
478.486	8351.28
478.691	8375.85
478.895	8212.01
479.1	8293.93
479.304	8392.23
479.509	8175.15
479.713	8150.57
479.918	8068.66
480.122	7829.04
480.326	8113.71
480.531	7964.21
480.735	7804.47
480.94	7855.67
481.144	8214.06
481.348	7710.26
481.553	7777.84
481.757	7642.68
481.961	7663.16
482.166	7951.92
482.37	7720.5
482.574	7839.28
482.778	7700.02
482.983	7775.8
483.187	7800.37
483.391	7616.05
483.595	7636.53
483.8	7581.24
484.004	7669.3
484.208	7634.49
484.412	7681.59
484.616	7736.88
484.821	7632.44
485.025	7697.97
485.229	7777.84
485.433	7538.23
485.637	7622.2
485.841	7560.76
486.045	7564.86
486.249	7704.12
486.453	7507.51
486.657	7757.36
486.861	7839.28
487.065	7593.53
487.269	7593.53
487.473	7421.5
487.677	7693.88
487.881	7562.81
488.085	7718.45
488.289	7769.65
488.493	7646.77
488.697	7851.57
488.901	7757.36
489.105	7609.91
489.309	7646.77
489.512	7947.83
489.716	7833.14
489.92	7794.23
490.124	7708.21
490.328	7990.83
490.531	7974.45
490.735	7745.08
490.939	7937.59
491.143	7956.02
491.346	8109.61
491.55	8076.85
491.754	8027.7
491.958	8029.74
492.161	8052.27
492.365	8052.27
492.569	8074.8
492.772	7947.83
492.976	8027.7
493.18	8232.49
493.383	8324.65
493.587	8461.87
493.79	8535.59
493.994	8265.26
494.197	8404.52
494.401	8515.11
494.605	8535.59
494.808	8922.66
495.012	8721.96
495.215	8822.31
495.419	8881.7
495.622	8867.36
495.825	8975.91
496.029	9158.17
496.232	9199.13
496.436	9178.65
496.639	9477.66
496.843	9221.66
497.046	9530.91
497.249	9508.38
497.453	9559.58
497.656	9786.9
497.859	9803.29
498.063	9897.49
498.266	10071.57
498.469	9975.31
498.673	10032.66
498.876	10243.6
499.079	10302.99
499.282	10491.4
499.485	10692.1
499.689	10587.66
499.892	10937.86
500.095	10941.96
500.298	11087.36
500.501	11038.21
500.705	11167.23
500.908	11511.29
501.111	11580.92
501.314	11644.41
501.517	11824.63
501.72	12019.19
501.923	12008.95
502.126	12170.74
502.329	12486.12
502.532	12473.84
502.735	12680.68
502.938	12838.37
503.141	12922.34
503.344	13315.55
503.547	13170.15
503.75	13366.75
503.953	13630.94
504.156	13540.83
504.359	13813.21
504.562	13778.39
504.765	14140.88
504.968	14564.81
505.17	14380.5
505.373	14384.59
505.576	14708.17
505.779	14796.23
505.982	15232.45
506.185	15230.4
506.387	15404.48
506.59	15769.02
506.793	15828.41
506.996	15828.41
507.198	16324.02
507.401	16063.93
507.604	16379.31
507.807	16592.3
508.009	16858.54
508.212	16897.45
508.415	17270.18
508.617	17348
508.82	17587.61
509.022	17479.07
509.225	17794.46
509.428	17997.21
509.63	18486.67
509.833	18384.27
510.035	18812.3
510.238	18908.55
510.44	19285.38
510.643	19426.69
510.845	19398.02
511.048	19373.44
511.25	19828.09
511.453	19897.72
511.655	20653.42
511.858	20268.41
512.06	20616.56
512.262	21116.26
512.465	20809.07
512.667	21298.53
512.87	21691.74
513.072	21570.91
513.274	22025.56
513.477	22234.46
513.679	22152.54
513.881	22715.73
514.084	22928.72
514.286	22861.13
514.488	23102.79
514.69	23711.04
514.893	23876.93
515.095	23969.08
515.297	24300.86
515.499	24294.71
515.701	24931.63
515.904	24950.06
516.106	25306.41
516.308	25703.71
516.51	25754.91
516.712	25773.35
516.914	26094.88
517.116	26512.66
517.318	26725.65
517.52	27067.66
517.722	26793.23
517.925	27630.85
518.127	27782.4
518.329	27983.1
518.531	28134.65
518.733	28656.89
518.935	28845.3
519.136	28953.84
519.338	29103.34
519.54	29449.45
519.742	29869.28
519.944	29936.87
520.146	30627.03
520.348	30479.58
520.55	31024.34
520.752	30917.84
520.954	31382.73
521.155	31128.78
521.357	31943.88
521.559	32527.55
521.761	32779.45
521.963	32771.25
522.164	32826.55
522.366	32922.8
522.568	33662.12
522.77	33434.8
522.971	34081.95
523.173	33950.88
523.375	34483.36
523.576	34198.69
523.778	34434.21
523.98	35159.19
524.181	35349.65
524.383	35622.03
524.584	35921.03
524.786	35708.04
524.988	35892.36
525.189	36283.52
525.391	36721.79
525.592	36766.84
525.794	36983.93
525.995	36908.15
526.197	37053.56
526.398	37567.6
526.6	37596.27
526.801	37821.55
527.003	38120.55
527.204	38198.37
527.406	38403.17
527.607	38585.44
527.808	38673.5
528.01	38089.83
528.211	38837.34
528.412	39375.95
528.614	39167.06
528.815	39119.96
529.016	39527.5
529.218	39044.18
529.419	39445.58
529.62	39402.58
529.822	39220.31
530.023	39943.24
530.224	39697.48
530.425	39545.94
530.626	39689.29
530.828	39529.55
531.029	40879.16
531.23	40168.52
531.431	40535.1
531.632	40510.53
531.833	40858.68
532.035	40617.02
532.236	40535.1
532.437	41051.19
532.638	40713.28
532.839	41079.86
533.04	41034.81
533.241	40746.04
533.442	41307.19
533.643	41174.07
533.844	40846.4
534.045	41268.28
534.246	40991.8
534.447	41483.31
534.648	41057.34
534.849	41325.62
535.05	40877.11
535.251	41262.13
535.451	41548.85
535.652	41602.1
535.853	41141.3
536.054	41356.34
536.255	41649.2
536.456	40815.68
536.657	41417.78
536.857	41393.2
537.058	41043
537.259	41612.34
537.46	41266.23
537.66	41428.02
537.861	41579.57
538.062	41012.28
538.263	41745.45
538.463	41354.29
538.664	41772.08
538.865	41546.8
539.065	41313.33
539.266	40901.69
539.466	41614.38
539.667	40731.71
539.868	41788.46
540.068	41204.79
540.269	40985.66
540.469	41411.63
540.67	41401.39
540.87	41262.13
541.071	41446.45
541.271	41454.64
541.472	41487.41
541.672	40850.49
541.873	41143.35
542.073	40715.33
542.274	41587.76
542.474	41364.53
542.675	41112.63
542.875	41788.46
543.075	41301.04
543.276	41026.62
543.476	41770.03
543.676	40868.92
543.877	41155.64
544.077	40897.59
544.277	41217.08
544.478	41165.88
544.678	41075.77
544.878	41313.33
545.078	41589.81
545.279	41215.03
545.479	41206.84
545.679	41122.87
545.879	41086.01
546.079	41026.62
546.28	41135.16
546.48	40885.31
546.68	41163.83
546.88	41493.55
547.08	41339.96
547.28	40680.51
547.48	40614.97
547.68	41280.56
547.88	40877.11
548.081	41374.77
548.281	41043
548.481	40924.22
548.681	41268.28
548.881	41333.81
549.081	41307.19
549.28	40668.22
549.48	41012.28
549.68	40885.31
549.88	41366.58
550.08	40627.26
550.28	40918.07
550.48	40879.16
550.68	41067.58
550.88	40975.42
551.08	40686.65
551.279	40909.88
551.479	40750.14
551.679	40922.17
551.879	40377.41
552.079	41262.13
552.278	40528.96
552.478	40875.07
552.678	40555.58
552.878	41053.24
553.077	40547.39
553.277	40283.2
553.477	41268.28
553.676	40617.02
553.876	40688.7
554.076	40563.78
554.275	40309.83
554.475	39939.15
554.674	40727.61
554.874	40504.38
555.074	40186.95
555.273	40506.43
555.473	40467.52
555.672	40631.36
555.872	40035.4
556.071	40352.83
556.271	40512.58
556.47	40004.68
556.67	39767.12
556.869	40092.74
557.068	39978.06
557.268	39869.51
557.467	39545.94
557.667	39918.67
557.866	39836.75
558.065	39799.88
558.265	39924.81
558.464	39416.91
558.663	39629.9
558.863	38988.89
559.062	39488.59
559.261	39236.69
559.461	39791.69
559.66	39001.18
559.859	39453.78
560.058	38788.19
560.258	39416.91
560.457	38870.11
560.656	39079
560.855	38665.31
561.054	38904.92
561.253	38141.03
561.453	38431.84
561.652	38476.9
561.851	38841.43
562.05	38624.35
562.249	37921.9
562.448	38390.88
562.647	38030.44
562.846	38153.32
563.045	37975.14
563.244	37794.92
563.443	38216.8
563.642	37596.27
563.841	38069.35
564.04	37188.72
564.239	37923.94
564.438	37104.76
564.637	37178.48
564.836	37610.6
565.035	37012.6
565.234	37448.82
565.432	37174.39
565.631	36889.72
565.83	36920.44
566.029	36504.7
566.228	36451.45
566.427	36396.16
566.625	36076.68
566.824	36129.92
567.023	36412.54
567.222	35507.34
567.42	36443.26
567.619	36068.48
567.818	35456.14
568.016	35687.56
568.215	35740.81
568.414	35419.28
568.612	35638.41
568.811	35095.7
569.01	35212.43
569.208	34888.85
569.407	35280.02
569.605	34661.53
569.804	35085.46
570.002	34448.54
570.201	34999.44
570.4	34305.18
570.598	34419.87
570.797	34153.63
570.995	34452.64
571.193	33967.27
571.392	34200.74
571.59	33414.32
571.789	33793.19
571.987	33707.18
572.186	33469.61
572.384	33322.16
572.582	33475.76
572.781	33391.79
572.979	32789.69
573.177	32763.06
573.376	33242.29
573.574	32384.19
573.772	32615.61
573.971	32412.86
574.169	32548.03
574.367	31904.96
574.565	32449.72
574.763	32107.71
574.962	31861.96
575.16	32076.99
575.358	32007.36
575.556	31673.54
575.754	31790.28
575.952	30930.13
576.151	31614.15
576.349	31282.38
576.547	31304.91
576.745	31345.87
576.943	31073.49
577.141	31141.07
577.339	31044.82
577.537	30794.96
577.735	30702.81
577.933	30371.04
578.131	30833.88
578.329	30512.35
578.527	30129.37
578.725	30246.11
578.923	29969.63
579.121	30274.78
579.319	29920.48
579.516	29943.01
579.714	30031.07
579.912	29588.71
580.11	29695.21
580.308	29527.27
580.506	29576.42
580.704	29039.86
580.901	29451.5
581.099	29123.82
581.297	29240.56
581.495	28949.74
581.692	29076.72
581.89	28835.06
582.088	28955.89
582.285	28703.99
582.483	28826.87
582.681	28585.21
582.878	28587.25
583.076	28028.16
583.274	28259.58
583.471	27952.38
583.669	28462.33
583.866	28083.45
584.064	28007.68
584.262	27663.62
584.459	27913.47
584.657	27718.92
584.854	27622.66
585.052	27036.94
585.249	27614.47
585.447	27497.74
585.644	27116.81
585.841	27325.71
586.039	27190.54
586.236	26955.02
586.434	26930.45
586.631	26875.15
586.828	27012.37
587.026	26641.68
587.223	26586.39
587.42	26420.5
587.618	26662.16
587.815	26471.7
588.012	26094.88
588.21	26242.33
588.407	26610.96
588.604	25810.21
588.801	26103.07
588.999	25924.9
589.196	25937.18
589.393	26027.29
589.59	25736.48
589.787	25705.76
589.984	25523.49
590.182	25177.39
590.379	25576.74
590.576	24880.43
590.773	25074.99
590.97	25074.99
591.167	25322.79
591.364	24718.64
591.561	24872.24
591.758	24577.33
591.955	25089.32
592.152	24919.34
592.349	24698.16
592.546	24683.83
592.743	24511.8
592.94	24292.66
593.137	24507.7
593.334	24315.19
593.531	23864.64
593.727	24155.45
593.924	23964.99
594.121	23833.92
594.318	23788.86
594.515	23536.96
594.712	23991.61
594.908	23555.4
595.105	23545.16
595.302	23248.2
595.499	23473.48
595.696	23561.54
595.892	23158.09
596.089	23352.65
596.286	23358.79
596.482	23049.55
596.679	22893.9
596.876	22969.68
597.072	22842.7
597.269	22865.23
597.466	22908.24
597.662	22355.29
597.859	22711.63
598.055	22596.95
598.252	22326.61
598.448	22572.37
598.645	22175.06
598.841	22017.37
599.038	22029.66
599.234	21970.27
599.431	21896.54
599.627	22140.25
599.824	22091.1
600.02	21744.99
600.217	21837.15
600.413	21640.54
600.609	21654.88
600.806	21415.27
601.002	21626.21
601.198	21591.39
601.395	21226.85
601.591	21116.26
601.787	21544.29
601.984	20852.08
602.18	21083.5
602.376	21261.67
602.572	20581.74
602.769	20798.83
602.965	20784.49
603.161	20825.45
603.357	20725.1
603.553	20579.7
603.75	20573.55
603.946	20254.07
604.142	20598.13
604.338	20209.01
604.534	20170.1
604.73	20309.36
604.926	20264.31
605.122	20315.51
605.318	20063.61
605.514	20057.46
605.71	19910.01
605.906	19830.14
606.102	19656.06
606.298	19660.16
606.494	19686.78
606.69	19883.39
606.886	19547.52
607.082	19189.13
607.278	19297.67
607.474	19133.83
607.67	19443.07
607.866	19017.1
608.062	19320.2
608.257	19021.19
608.453	19250.56
608.649	19221.89
608.845	18949.51
609.041	18943.37
609.236	19166.6
609.432	18802.06
609.628	18791.82
609.824	18738.57
610.019	18675.09
610.215	18754.96
610.411	18855.31
610.606	18494.86
610.802	18468.24
610.998	18605.45
611.193	18466.19
611.389	18509.2
611.584	18251.16
611.78	18316.69
611.976	18247.06
612.171	18365.84
612.367	18306.45
612.562	17884.57
612.758	17999.26
612.953	17866.14
613.149	18357.65
613.344	17890.71
613.539	18175.38
613.735	18060.7
613.93	17933.72
614.126	17567.13
614.321	18060.7
614.517	17657.25
614.712	17716.64
614.907	17702.3
615.103	17591.71
615.298	17608.09
615.493	17546.65
615.688	17218.98
615.884	17915.29
616.079	17356.19
616.274	17681.82
616.47	17534.37
616.665	17583.52
616.86	17393.06
617.055	17358.24
617.25	17317.28
617.445	17278.37
617.641	16891.3
617.836	17159.59
618.031	16754.09
618.226	17206.69
618.421	16678.32
618.616	16977.32
618.811	16596.4
619.006	17069.48
619.201	16616.88
619.396	16704.94
619.591	16082.36
619.786	16473.52
619.981	16242.1
620.176	16389.55
620.371	16233.91
620.566	16211.38
620.761	15832.51
620.956	16068.02
621.151	15783.35
621.346	16080.31
621.541	15504.83
621.735	15934.9
621.93	15467.97
622.125	15590.84
622.32	15422.91
622.515	15357.38
622.709	15420.86
622.904	15420.86
623.099	15099.33
623.294	15031.75
623.488	14931.4
623.683	14939.59
623.878	14740.94
624.072	14779.85
624.267	14794.18
624.462	14550.48
624.656	14374.35
624.851	14493.13
625.046	14419.41
625.24	14345.68
625.435	14165.46
625.629	14214.61
625.824	14136.79
626.018	14091.73
626.213	13825.5
626.407	13770.2
626.602	13622.75
626.796	13712.86
626.991	13622.75
627.185	13501.92
627.38	13403.61
627.574	13180.39
627.768	13221.34
627.963	13221.34
628.157	13006.31
628.352	12951.01
628.546	12914.15
628.74	13200.87
628.935	12885.48
629.129	13047.27
629.323	12570.09
629.517	12649.96
629.712	12801.51
629.906	12520.94
630.1	12320.24
630.294	12402.16
630.489	12252.66
630.683	12322.29
630.877	12117.49
631.071	12144.11
631.265	12287.47
631.459	12211.7
631.653	11867.64
631.848	11838.97
632.042	11832.82
632.236	11986.42
632.43	11654.65
632.624	11736.57
632.818	11589.11
633.012	11668.98
633.206	11615.74
633.4	11478.52
633.594	11251.2
633.788	11443.71
633.982	11359.74
634.176	11156.99
634.369	11044.35
634.563	11005.44
634.757	11122.18
634.951	10935.81
635.145	10907.14
635.339	10991.11
635.533	10714.63
635.726	11003.39
635.92	10794.5
636.114	10708.49
636.308	10622.47
636.501	10515.98
636.695	10583.56
636.889	10608.14
637.083	10378.76
637.276	10130.96
637.47	10243.6
637.664	10366.48
637.857	10149.39
638.051	10065.43
638.244	9932.31
638.438	10030.61
638.632	9874.96
638.825	9803.29
639.019	9700.89
639.212	9516.57
639.406	9784.85
639.599	9467.42
639.793	9623.06
639.986	9248.29
640.18	9530.91
640.373	9479.71
640.567	9145.89
640.76	9170.46
640.954	9225.76
641.147	9227.81
641.34	9051.68
641.534	9084.45
641.727	8932.9
641.92	8969.76
642.114	9004.58
642.307	8875.56
642.5	8912.42
642.694	8660.52
642.887	8715.81
643.08	8787.49
643.273	8658.47
643.467	8613.42
643.66	8685.09
643.853	8599.08
644.046	8584.74
644.239	8373.8
644.432	8230.45
644.626	8207.92
644.819	8154.67
645.012	8207.92
645.205	8138.29
645.398	8179.25
645.591	8117.81
645.784	8121.9
645.977	7779.89
646.17	8046.13
646.363	7857.71
646.556	7714.36
646.749	7681.59
646.942	7886.39
647.135	7753.27
647.328	7724.6
647.521	7747.12
647.714	7642.68
647.907	7501.37
648.099	7470.65
648.292	7439.93
648.485	7480.89
648.678	7288.38
648.871	7233.08
649.064	7278.14
649.256	7333.43
649.449	7304.76
649.642	7132.73
649.835	7009.86
650.027	7194.17
650.22	7054.91
650.413	7083.58
650.605	6997.57
650.798	7040.58
650.991	6866.5
651.183	7151.17
651.376	6862.4
651.568	6899.27
651.761	6755.91
651.954	6669.89
652.146	6671.94
652.339	6735.43
652.531	6688.32
652.724	6645.32
652.916	6458.95
653.109	6563.4
653.301	6616.65
653.494	6510.15
653.686	6463.05
653.879	6559.3
654.071	6360.65
654.263	6225.48
654.456	6313.55
654.648	6387.27
654.84	6338.12
655.033	6393.42
655.225	6463.05
655.417	6149.71
655.61	6121.04
655.802	6100.56
655.994	6088.27
656.186	6069.84
656.379	6078.03
656.571	6260.3
656.763	5926.48
656.955	5977.68
657.148	5924.43
657.34	5840.47
657.532	5885.52
657.724	5713.49
657.916	5740.12
658.108	5844.56
658.3	5600.85
658.492	5654.1
658.684	5537.37
658.876	5768.79
659.068	5625.43
659.26	5543.51
659.452	5496.41
659.644	5531.22
659.836	5387.86
660.028	5469.78
660.22	5357.14
660.412	5303.9
660.604	5336.67
660.796	5238.36
660.988	5447.26
661.18	5303.9
661.372	5375.58
661.563	5240.41
661.755	5254.75
661.947	5113.44
662.139	5328.47
662.331	5015.13
662.522	5248.6
662.714	5109.34
662.906	4959.84
663.097	5086.81
663.289	5015.13
663.481	4988.51
663.673	5027.42
663.864	5047.9
664.056	4949.6
664.247	4877.92
664.439	4857.44
664.631	4961.89
664.822	4847.2
665.014	4826.72
665.205	4912.74
665.397	4820.58
665.588	4763.23
665.78	4791.91
665.971	4736.61
666.163	4748.9
666.354	4796
666.546	4574.82
666.737	4664.93
666.929	4593.25
667.12	4671.08
667.311	4681.32
667.503	4525.67
667.694	4656.74
667.885	4460.13
668.077	4656.74
668.268	4525.67
668.459	4554.34
668.651	4585.06
668.842	4597.35
669.033	4394.6
669.224	4251.24
669.416	4443.75
669.607	4482.66
669.798	4435.56
669.989	4531.81
670.18	4453.99
670.371	4484.71
670.563	4427.37
670.754	4318.82
670.945	4372.07
671.136	4314.73
671.327	4279.91
671.518	4302.44
671.709	4378.22
671.9	4337.26
672.091	4408.94
672.282	4314.73
672.473	4220.52
672.664	4210.28
672.855	4296.3
673.046	4177.51
673.237	4275.82
673.428	4247.15
673.619	4351.59
673.809	4081.26
674	4128.36
674.191	4210.28
674.382	4277.87
674.573	4281.96
674.764	4189.8
674.954	4236.91
675.145	4107.88
675.336	4101.74
675.527	4152.94
675.717	4165.23
675.908	4050.54
676.099	4116.08
676.289	4353.64
676.48	4091.5
676.671	4177.51
676.861	4044.4
677.052	4138.6
677.243	4036.21
677.433	3876.46
677.624	4234.86
677.814	4062.83
678.005	4087.4
678.195	4011.63
678.386	4023.92
678.576	4134.51
678.767	4077.16
678.957	4208.23
679.148	4167.28
679.338	4200.04
679.529	4195.95
679.719	4028.01
679.909	4103.79
680.1	4101.74
680.29	4038.25
680.481	4175.47
680.671	4136.56
680.861	4077.16
681.052	4103.79
681.242	4191.85
681.432	4103.79
681.622	4019.82
681.813	4107.88
682.003	4193.9
682.193	3929.71
682.383	4120.17
682.573	3905.14
682.764	3931.76
682.954	3946.09
683.144	4116.08
683.334	4148.84
683.524	4099.69
683.714	4052.59
683.904	4030.06
684.094	4017.77
684.284	4050.54
684.474	4042.35
684.664	4040.3
684.854	3958.38
685.044	4081.26
685.234	4062.83
685.424	3972.72
685.614	4028.01
685.804	3923.57
685.994	4005.49
686.184	4030.06
686.374	3878.51
686.564	3872.37
686.753	3841.65
686.943	3784.3
687.133	3982.96
687.323	3817.07
687.513	3851.89
687.702	3952.24
687.892	3804.78
688.082	3733.11
688.272	3733.11
688.461	3827.31
688.651	3804.78
688.841	3780.21
689.03	3645.04
689.22	3765.87
689.41	3673.71
689.599	3788.4
689.789	3546.74
689.979	3765.87
690.168	3673.71
690.358	3477.11
690.547	3614.32
690.737	3522.16
690.926	3636.85
691.116	3548.79
691.305	3577.46
691.495	3522.16
691.684	3556.98
691.874	3477.11
692.063	3456.63
692.252	3513.97
692.442	3546.74
692.631	3364.47
692.82	3432.05
693.01	3567.22
693.199	3313.27
693.388	3303.03
693.578	3335.8
693.767	3356.28
693.956	3346.04
694.146	3303.03
694.335	3350.14
694.524	3309.18
694.713	3321.46
694.902	3380.86
695.092	3296.89
695.281	3237.5
695.47	3194.49
695.659	3186.3
695.848	3356.28
696.037	3329.66
696.226	3223.16
696.415	3225.21
696.604	3425.91
696.793	3186.3
696.982	3251.83
697.171	3284.6
697.36	3270.26
697.549	3122.81
697.738	3069.56
697.927	2952.83
698.116	3169.91
698.305	3098.24
698.494	3303.03
698.683	3192.44
698.872	3276.41
699.061	2997.88
699.25	3122.81
699.438	3163.77
699.627	3126.91
699.816	3188.35
700.005	3227.26
700.193	3098.24
700.382	3270.26
700.571	3214.97
700.76	3163.77
700.948	3116.67
701.137	3124.86
701.326	3096.19
701.514	2981.5
701.703	3069.56
701.892	3268.22
702.08	3296.89
702.269	3106.43
702.457	3057.28
702.646	3135.1
702.834	3255.93
703.023	3174.01
703.212	3192.44
703.4	3214.97
703.589	3184.25
703.777	3180.15
703.965	3165.82
704.154	3198.59
704.342	3212.92
704.531	3184.25
704.719	3053.18
704.907	3200.63
705.096	3061.37
705.284	3167.87
705.472	3198.59
705.661	3227.26
705.849	3182.2
706.037	3151.48
706.226	3122.81
706.414	3335.8
706.602	3116.67
706.79	3196.54
706.979	3290.74
707.167	3196.54
707.355	3163.77
707.543	3214.97
707.731	3241.59
707.919	3174.01
708.107	3231.35
708.296	3147.39
708.484	3186.3
708.672	3247.74
708.86	3196.54
709.048	3198.59
709.236	3198.59
709.424	3362.42
709.612	3280.5
709.8	3225.21
709.988	3370.62
710.176	3176.06
710.364	3307.13
710.551	3300.98
710.739	3253.88
710.927	3305.08
711.115	3337.85
711.303	3227.26
711.491	3247.74
711.679	3317.37
711.866	3122.81
712.054	3212.92
712.242	3247.74
712.43	3331.7
712.617	3315.32
712.805	3348.09
712.993	3262.07
713.181	3235.45
713.368	3430.01
713.556	3509.88
713.744	3360.38
713.931	3456.63
714.119	3200.63
714.306	3370.62
714.494	3362.42
714.682	3397.24
714.869	3292.79
715.057	3319.42
715.244	3350.14
715.432	3325.56
715.619	3413.62
715.807	3333.75
715.994	3397.24
716.182	3442.29
716.369	3470.97
716.556	3337.85
716.744	3581.56
716.931	3327.61
717.119	3452.53
717.306	3499.64
717.493	3382.9
717.681	3384.95
717.868	3323.51
718.055	3436.15
718.242	3440.25
718.43	3366.52
718.617	3520.12
718.804	3538.55
718.991	3438.2
719.179	3577.46
719.366	3401.33
719.553	3645.04
719.74	3425.91
719.927	3405.43
720.114	3513.97
720.301	3448.44
720.488	3569.27
720.676	3477.11
720.863	3638.9
721.05	3622.52
721.237	3577.46
721.424	3550.84
721.611	3532.4
721.798	3452.53
721.985	3534.45
722.172	3550.84
722.358	3556.98
722.545	3597.94
722.732	3509.88
722.919	3565.17
723.106	3550.84
723.293	3546.74
723.48	3628.66
723.667	3673.71
723.853	3475.06
724.04	3632.76
724.227	3739.25
724.414	3550.84
724.6	3640.95
724.787	3710.58
724.974	3589.75
725.161	3647.09
725.347	3501.69
725.534	3675.76
725.72	3731.06
725.907	3690.1
726.094	3661.43
726.28	3718.77
726.467	3632.76
726.653	3649.14
726.84	3661.43
727.027	3780.21
727.213	3696.24
727.4	3649.14
727.586	3724.91
727.773	3706.48
727.959	3632.76
728.145	3837.55
728.332	3653.23
728.518	3683.95
728.705	3679.86
728.891	3518.07
729.077	3559.03
729.264	3782.26
729.45	3692.15
729.636	3724.91
729.823	3677.81
730.009	3810.93
730.195	3819.12
730.382	4011.63
730.568	3729.01
730.754	3872.37
730.94	3784.3
731.126	3907.18
731.313	3835.5
731.499	3739.25
731.685	3827.31
731.871	3843.7
732.057	3815.02
732.243	3888.75
732.429	3851.89
732.615	3901.04
732.801	3952.24
732.987	3866.22
733.173	3890.8
733.359	3772.02
733.545	3798.64
733.731	3882.61
733.917	3999.34
734.103	3907.18
734.289	3982.96
734.475	3845.74
734.661	3858.03
734.847	3894.9
735.033	3927.66
735.219	3698.29
735.404	3901.04
735.59	3966.57
735.776	3874.42
735.962	3907.18
736.148	3874.42
736.333	3849.84
736.519	3747.44
736.705	3712.63
736.89	3866.22
737.076	3886.7
737.262	3724.91
737.447	3698.29
737.633	3765.87
737.819	3921.52
738.004	3804.78
738.19	3825.26
738.375	3755.63
738.561	3817.07
738.747	3898.99
738.932	3630.71
739.118	3925.61
739.303	3819.12
739.489	3700.34
739.674	3790.45
739.859	3782.26
740.045	3784.3
740.23	3907.18
740.416	3704.43
740.601	3819.12
740.786	3677.81
740.972	3702.39
741.157	3886.7
741.342	3624.56
741.528	3665.52
741.713	3749.49
741.898	3665.52
742.084	3774.07
742.269	3733.11
742.454	3780.21
742.639	3702.39
742.824	3591.8
743.01	3675.76
743.195	3599.99
743.38	3683.95
743.565	3536.5
743.75	3638.9
743.935	3661.43
744.12	3620.47
744.305	3604.08
744.49	3591.8
744.675	3548.79
744.86	3548.79
745.045	3599.99
745.23	3614.32
745.415	3483.25
745.6	3573.36
745.785	3470.97
745.97	3436.15
746.155	3456.63
746.34	3425.91
746.525	3415.67
746.71	3511.93
746.895	3294.84
747.079	3251.83
747.264	3305.08
747.449	3311.22
747.634	3362.42
747.819	3391.09
748.003	3239.55
748.188	3122.81
748.373	3307.13
748.557	3321.46
748.742	3092.09
748.927	3212.92
749.111	3085.95
749.296	3020.41
749.481	3061.37
749.665	3198.59
749.85	3090.04
750.034	3174.01
750.219	3065.47
750.404	3004.03
750.588	2823.81
750.773	3032.7
750.957	3083.9
751.141	2936.45
751.326	2948.73
751.51	2875.01
751.695	2913.92
751.879	2858.62
752.064	2944.64
752.248	2821.76
752.432	2848.38
752.617	2911.87
752.801	2776.7
752.985	2725.51
753.17	2813.57
753.354	2725.51
753.538	2705.03
753.722	2709.12
753.907	2643.59
754.091	2553.48
754.275	2637.44
754.459	2711.17
754.643	2633.35
754.828	2645.63
755.012	2473.6
755.196	2602.63
755.38	2449.03
755.564	2502.28
755.748	2559.62
755.932	2502.28
756.116	2422.41
756.3	2434.69
756.484	2387.59
756.668	2420.36
756.852	2446.98
757.036	2356.87
757.22	2326.15
757.404	2305.67
757.588	2188.94
757.772	2326.15
757.956	2307.72
758.14	2303.62
758.323	2176.65
758.507	2299.53
758.691	2201.23
758.875	2350.73
759.059	2197.13
759.242	2145.93
759.426	2107.02
759.61	2158.22
759.794	2094.73
759.977	2229.9
760.161	2123.4
760.345	2123.4
760.528	2092.68
760.712	2145.93
760.895	2129.55
761.079	2059.92
761.263	2043.53
761.446	1949.32
761.63	2076.3
761.813	2072.2
761.997	1937.04
762.18	1994.38
762.364	2014.86
762.547	1965.71
762.731	1986.19
762.914	1912.46
763.098	1996.43
763.281	1998.48
763.464	1959.56
763.648	1957.52
763.831	1840.78
764.015	1877.65
764.198	1939.09
764.381	1824.4
764.564	1912.46
764.748	1826.45
764.931	1844.88
765.114	1760.91
765.297	1810.06
765.481	1781.39
765.664	1853.07
765.847	1779.34
766.03	1816.21
766.213	1838.73
766.397	1836.69
766.58	1707.66
766.763	1803.92
766.946	1672.85
767.129	1711.76
767.312	1744.53
767.495	1683.09
767.678	1709.71
767.861	1744.53
768.044	1707.66
768.227	1787.54
768.41	1722
768.593	1713.81
768.776	1631.89
768.959	1715.86
769.142	1664.66
769.324	1709.71
769.507	1668.75
769.69	1623.7
769.873	1646.23
770.056	1703.57
770.239	1556.11
770.421	1578.64
770.604	1621.65
770.787	1568.4
770.97	1646.23
771.152	1549.97
771.335	1519.25
771.518	1488.53
771.7	1586.83
771.883	1537.68
772.066	1619.6
772.248	1504.92
772.431	1554.07
772.613	1568.4
772.796	1427.09
772.978	1480.34
773.161	1500.82
773.343	1392.28
773.526	1492.63
773.708	1339.03
773.891	1357.46
774.073	1332.89
774.256	1416.85
774.438	1486.48
774.621	1377.94
774.803	1375.89
774.985	1369.75
775.168	1423
775.35	1332.89
775.532	1259.16
775.715	1226.39
775.897	1353.37
776.079	1332.89
776.261	1293.97
776.444	1212.06
776.626	1253.02
776.808	1371.8
776.99	1259.16
777.173	1177.24
777.355	1216.15
777.537	1349.27
777.719	1201.82
777.901	1216.15
778.083	1171.1
778.265	1068.7
778.447	1173.14
778.629	1179.29
778.811	1214.1
778.993	1177.24
779.175	1064.6
779.357	1179.29
779.539	1103.51
779.721	1115.8
779.903	1152.67
780.085	1054.36
780.267	1080.99
780.449	1074.84
780.631	997.02
780.812	1080.99
780.994	1033.88
781.176	1017.5
781.358	1040.03
781.54	980.64
781.721	970.4
781.903	1040.03
782.085	984.73
782.267	1015.45
782.448	935.58
782.63	1023.64
782.812	982.68
782.993	956.06
783.175	980.64
783.357	947.87
783.538	962.2
783.72	945.82
783.901	839.33
784.083	964.25
784.264	921.24
784.446	802.46
784.627	868
784.809	911
784.99	902.81
785.172	872.09
785.353	876.19
785.535	855.71
785.716	822.94
785.897	769.69
786.079	741.02
786.26	833.18
786.441	816.8
786.623	779.93
786.804	798.37
786.985	743.07
787.167	759.46
787.348	732.83
787.529	794.27
787.71	796.32
787.891	773.79
788.073	708.26
788.254	749.22
788.435	786.08
788.616	722.59
788.797	769.69
788.978	708.26
789.159	763.55
789.34	634.53
789.522	751.26
789.703	722.59
789.884	679.58
790.065	673.44
790.246	722.59
790.427	661.15
790.607	757.41
790.788	673.44
790.969	679.58
791.15	632.48
791.331	695.97
791.512	579.23
791.693	616.1
791.874	638.62
792.054	679.58
792.235	618.15
792.416	515.75
792.597	601.76
792.778	624.29
792.958	548.51
793.139	538.27
793.32	595.62
793.5	609.95
793.681	677.54
793.862	616.1
794.042	607.91
794.223	472.74
794.404	544.42
794.584	472.74
794.765	568.99
794.945	593.57
795.126	577.19
795.306	571.04
795.487	482.98
795.667	536.23
795.848	513.7
796.028	521.89
796.209	499.36
796.389	550.56
796.57	470.69
796.75	444.07
796.93	450.21
797.111	509.6
797.291	523.94
797.471	534.18
797.652	472.74
797.832	530.08
798.012	546.47
798.192	439.97
798.373	474.79
798.553	550.56
798.733	501.41
798.913	444.07
799.093	421.54
799.274	433.83
799.454	462.5
799.634	362.15
799.814	439.97
799.994	456.36
800.174	507.55
800.354	403.11
800.534	325.29
800.714	401.06
800.894	450.21
801.074	425.64
801.254	356.01
801.434	523.94
801.614	356.01
801.794	394.92
801.974	1130.14
802.154	454.31
802.334	415.4
802.514	439.97
802.693	386.72
802.873	405.16
803.053	517.79
803.233	466.6
803.413	390.82
803.592	364.2
803.772	374.44
803.952	433.83
804.131	257.7
804.311	429.73
804.491	347.81
804.67	401.06
804.85	298.66
805.03	446.12
805.209	454.31
805.389	304.81
805.568	241.32
805.748	331.43
805.928	331.43
806.107	349.86
806.287	413.35
806.466	349.86
806.646	360.1
806.825	413.35
807.004	286.37
807.184	300.71
807.363	253.61
807.543	331.43
807.722	362.15
807.901	347.81
808.081	345.77
808.26	267.94
808.439	304.81
808.619	288.42
808.798	263.85
808.977	325.29
809.156	362.15
809.336	411.3
809.515	370.34
809.694	261.8
809.873	308.9
810.052	249.51
810.231	310.95
810.411	358.05
810.59	368.29
810.769	341.67
810.948	325.29
811.127	224.94
811.306	292.52
811.485	241.32
811.664	337.57
811.843	265.89
812.022	253.61
812.201	243.37
812.38	265.89
812.559	267.94
812.737	235.18
812.916	239.27
813.095	272.04
813.274	274.09
813.453	360.1
813.632	294.57
813.811	339.62
813.989	247.46
814.168	222.89
814.347	218.79
814.526	300.71
814.704	341.67
814.883	302.76
815.062	261.8
815.24	280.23
815.419	257.7
815.598	313
815.776	267.94
815.955	308.9
816.133	175.78
816.312	245.41
816.49	216.74
816.669	255.65
816.847	341.67
817.026	214.7
817.204	212.65
817.383	255.65
817.561	233.13
817.74	292.52
817.918	214.7
818.097	208.55
818.275	276.13
818.453	210.6
818.632	231.08
818.81	286.37
818.988	192.17
819.167	259.75
819.345	300.71
819.523	226.98
819.701	294.57
819.879	226.98
820.058	118.44
820.236	224.94
820.414	263.85
820.592	220.84
820.77	149.16
820.948	167.59
821.127	218.79
821.305	218.79
821.483	216.74
821.661	206.5
821.839	143.02
822.017	216.74
822.195	257.7
822.373	241.32
822.551	169.64
822.729	243.37
822.907	192.17
823.085	233.13
823.262	218.79
823.44	153.26
823.618	183.98
823.796	198.31
823.974	143.02
824.152	173.74
824.329	188.07
824.507	186.02
824.685	245.41
824.863	177.83
825.04	212.65
825.218	177.83
825.396	208.55
825.574	179.88
825.751	175.78
825.929	210.6
826.107	145.06
826.284	147.11
826.462	177.83
826.639	145.06
826.817	83.63
826.994	181.93
827.172	116.39
827.349	290.47
827.527	153.26
827.704	194.22
827.882	181.93
828.059	138.92
828.237	134.82
828.414	206.5
828.591	40.62
828.769	167.59
828.946	91.82
829.124	218.79
829.301	216.74
829.478	163.5
829.655	151.21
829.833	224.94
830.01	130.73
830.187	175.78
830.364	122.54
830.542	87.72
830.719	114.34
830.896	261.8
831.073	63.15
831.25	173.74
831.427	138.92
831.604	122.54
831.782	95.91
831.959	110.25
832.136	97.96
832.313	149.16
832.49	85.67
832.667	87.72
832.844	112.3
833.021	124.58
833.198	165.54
833.374	190.12
833.551	167.59
833.728	42.67
833.905	163.5
834.082	122.54
834.259	132.78
834.436	128.68
834.612	59.05
834.789	97.96
834.966	116.39
835.143	42.67
835.319	87.72
835.496	102.06
835.673	136.87
835.85	153.26
836.026	153.26
836.203	163.5
836.38	89.77
836.556	87.72
836.733	59.05
836.909	171.69
837.086	110.25
837.262	106.15
837.439	79.53
837.616	157.35
837.792	93.87
837.968	159.4
838.145	93.87
838.321	38.57
838.498	97.96
838.674	93.87
838.851	75.43
839.027	163.5
839.203	73.39
839.38	132.78
839.556	69.29
839.732	179.88
839.909	157.35
840.085	114.34
840.261	48.81
840.437	183.98
840.614	83.63
840.79	93.87
840.966	104.11
841.142	110.25
841.318	112.3
841.494	128.68
841.671	167.59
841.847	63.15
842.023	52.91
842.199	102.06
842.375	159.4
842.551	77.48
842.727	97.96
842.903	237.22
843.079	108.2
843.255	71.34
843.431	104.11
843.607	85.67
843.783	34.47
843.959	159.4
844.134	132.78
844.31	126.63
844.486	126.63
844.662	93.87
844.838	85.67
845.013	89.77
845.189	-0.34
845.365	100.01
845.541	85.67
845.716	-4.44
845.892	73.39
846.068	30.38
846.244	77.48
846.419	173.74
846.595	91.82
846.77	89.77
846.946	140.97
847.122	32.43
847.297	77.48
847.473	108.2
847.648	46.76
847.824	59.05
847.999	59.05
848.175	54.95
848.35	11.95
848.526	102.06
848.701	120.49
848.876	157.35
849.052	77.48
849.227	67.24
849.403	11.95
849.578	-2.39
849.753	48.81
849.929	57
850.104	118.44
850.279	69.29
850.454	30.38
850.63	81.58
850.805	63.15
850.98	54.95
851.155	42.67
851.33	65.19
851.505	20.14
851.681	63.15
851.856	40.62
852.031	28.33
852.206	32.43
852.381	97.96
852.556	-26.96
852.731	83.63
852.906	77.48
853.081	73.39
853.256	79.53
853.431	59.05
853.606	46.76
853.781	-2.39
853.956	-47.44
854.131	50.86
854.305	-14.68
854.48	11.95
854.655	20.14
854.83	1.71
855.005	57
855.18	3.75
855.354	24.23
855.529	69.29
855.704	104.11
855.879	108.2
856.053	7.85
856.228	57
856.403	13.99
856.577	89.77
856.752	126.63
856.926	73.39
857.101	22.19
857.276	26.28
857.45	54.95
857.625	126.63
857.799	16.04
857.974	11.95
858.148	-29.01
858.323	54.95
858.497	77.48
858.672	42.67
858.846	44.71
859.02	83.63
859.195	52.91
859.369	75.43
859.543	65.19
859.718	28.33
859.892	28.33
860.066	-24.92
860.241	9.9
860.415	7.85
860.589	20.14
860.763	93.87
860.938	3.75
861.112	116.39
861.286	67.24
861.46	54.95
861.634	24.23
861.808	40.62
861.982	13.99
862.157	13.99
862.331	13.99
862.505	28.33
862.679	-18.77
862.853	-26.96
863.027	-8.53
863.201	132.78
863.375	-29.01
863.549	54.95
863.722	42.67
863.896	112.3
864.07	13.99
864.244	18.09
864.418	100.01
864.592	-12.63
864.766	36.52
864.939	-35.16
865.113	-45.4
865.287	73.39
865.461	-16.73
865.634	28.33
865.808	-67.92
865.982	-20.82
866.156	-18.77
866.329	5.8
866.503	44.71
866.676	71.34
866.85	-12.63
867.024	-51.54
867.197	46.76
867.371	46.76
867.544	40.62
867.718	-2.39
867.891	93.87
868.065	-49.49
868.238	7.85
868.412	44.71
868.585	32.43
868.759	22.19
868.932	93.87
869.105	28.33
869.279	1.71
869.452	52.91
869.625	18.09
869.799	46.76
869.972	-31.06
870.145	-12.63
870.319	67.24
870.492	67.24
870.665	50.86
870.838	-22.87
871.011	-20.82
871.185	-102.74
871.358	-51.54
871.531	-6.49
871.704	40.62
871.877	-8.53
872.05	1.71
872.223	22.19
872.396	75.43
872.569	79.53
872.742	85.67
872.915	5.8
873.088	-35.16
873.261	1.71
873.434	114.34
873.607	69.29
873.78	9.9
873.953	11.95
874.126	20.14
874.299	20.14
874.471	22.19
874.644	13.99
874.817	71.34
874.99	151.21
875.163	-10.58
875.335	44.71
875.508	-26.96
875.681	54.95
875.853	-69.97
876.026	-22.87
876.199	-53.59
876.371	65.19
876.544	69.29
876.717	18.09
876.889	1.71
877.062	124.58
877.234	-10.58
877.407	28.33
877.579	-61.78
877.752	-4.44
877.924	118.44
878.097	48.81
878.269	-6.49
878.442	24.23
878.614	40.62
878.786	-12.63
878.959	3.75
879.131	-47.44
879.303	-53.59
879.476	-45.4
879.648	5.8
879.82	-37.2
879.993	-24.92
880.165	50.86
880.337	-20.82
880.509	18.09
880.681	-63.83
880.854	-20.82
881.026	-14.68
881.198	20.14
881.37	-6.49
881.542	-8.53
881.714	1.71
881.886	-29.01
882.058	-20.82
882.23	30.38
882.402	-14.68
882.574	-76.12
882.746	114.34
882.918	54.95
883.09	7.85
883.262	-12.63
883.434	42.67
883.606	-35.16
883.778	65.19
883.95	46.76
884.122	87.72
884.293	65.19
884.465	-10.58
884.637	44.71
884.809	5.8
884.98	16.04
885.152	-41.3
885.324	24.23
885.496	-35.16
885.667	20.14
885.839	30.38
886.011	100.01
886.182	24.23
886.354	110.25
886.525	-47.44
886.697	-10.58
886.869	13.99
887.04	5.8
887.212	9.9
887.383	75.43
887.555	77.48
887.726	18.09
887.897	-4.44
888.069	54.95
888.24	-12.63
888.412	44.71
888.583	-51.54
888.754	-12.63
888.926	-37.2
889.097	36.52
889.268	-20.82
889.44	30.38
889.611	-24.92
889.782	-33.11
889.953	-35.16
890.125	-2.39
890.296	5.8
890.467	7.85
890.638	13.99
890.809	-49.49
890.98	16.04
891.151	-4.44
891.323	13.99
891.494	20.14
891.665	-65.88
891.836	30.38
892.007	-35.16
892.178	34.47
892.349	73.39
892.52	-74.07
892.691	22.19
892.862	20.14
893.032	-8.53
893.203	-14.68
893.374	16.04
893.545	36.52
893.716	5.8
893.887	13.99
894.057	-18.77
894.228	38.57
894.399	-112.98
894.57	61.1
894.74	93.87
894.911	11.95
895.082	-35.16
895.253	22.19
895.423	65.19
895.594	-18.77
895.764	75.43
895.935	-26.96
896.106	5.8
896.276	-24.92
896.447	-31.06
896.617	-39.25
896.788	18.09
896.958	13.99
897.129	-10.58
897.299	-31.06
897.47	79.53
897.64	-14.68
897.81	-10.58
897.981	-57.68
898.151	-14.68
898.322	5.8
898.492	-8.53
898.662	-41.3
898.832	7.85
899.003	-16.73
899.173	36.52
899.343	16.04
899.513	-59.73
