Data from USB4F104151__56__12-24-05-913.txt Node

Date: Fri Mar 14 12:24:05 EDT 2025
User: louis
Spectrometer: USB4F10415
Trigger mode: 4
Integration Time (sec): 3.500000E-2
Scans to average: 1
Electric dark correction enabled: true
Nonlinearity correction enabled: false
Boxcar width: 0
XAxis mode: Wavelengths
Number of Pixels in Spectrum: 3648
>>>>>Begin Spectral Data<<<<<
178.204	-157.18
178.424	-157.18
178.644	-157.18
178.864	-157.18
179.084	-196.09
179.304	8.7
179.524	-15.87
179.744	23.04
179.964	55.81
180.184	31.23
180.404	29.18
180.624	-22.02
180.844	-28.16
181.064	-44.54
181.283	10.75
181.503	-44.54
181.723	-3.58
181.943	-44.54
182.163	55.81
182.383	-17.92
182.602	49.66
182.822	16.9
183.042	39.42
183.262	25.09
183.482	78.33
183.701	-19.97
183.921	27.14
184.141	-13.82
184.361	31.23
184.58	-5.63
184.8	-7.68
185.02	12.8
185.239	82.43
185.459	41.47
185.679	14.85
185.898	57.86
186.118	-54.78
186.338	-52.74
186.557	88.57
186.777	-50.69
186.997	-40.45
187.216	6.66
187.436	72.19
187.655	107.01
187.875	12.8
188.095	27.14
188.314	35.33
188.534	39.42
188.753	-1.54
188.973	2.56
189.192	-26.11
189.412	39.42
189.631	16.9
189.851	-36.35
190.07	6.66
190.29	-11.78
190.509	-69.12
190.729	-7.68
190.948	86.53
191.168	203.26
191.387	-32.26
191.607	-13.82
191.826	51.71
192.045	27.14
192.265	12.8
192.484	25.09
192.704	18.94
192.923	-58.88
193.142	72.19
193.362	45.57
193.581	-3.58
193.8	72.19
194.02	39.42
194.239	-30.21
194.458	12.8
194.678	43.52
194.897	-17.92
195.116	-28.16
195.335	-5.63
195.555	37.38
195.774	-38.4
195.993	20.99
196.212	39.42
196.432	23.04
196.651	90.62
196.87	12.8
197.089	53.76
197.308	96.77
197.528	49.66
197.747	41.47
197.966	51.71
198.185	33.28
198.404	14.85
198.623	18.94
198.842	2.56
199.062	88.57
199.281	72.19
199.5	25.09
199.719	37.38
199.938	31.23
200.157	27.14
200.376	12.8
200.595	-36.35
200.814	-7.68
201.033	64
201.252	-26.11
201.471	-54.78
201.69	27.14
201.909	59.9
202.128	16.9
202.347	31.23
202.566	-11.78
202.785	-15.87
203.004	49.66
203.223	23.04
203.442	-103.93
203.661	33.28
203.879	-13.82
204.098	55.81
204.317	-40.45
204.536	23.04
204.755	-15.87
204.974	-22.02
205.193	2.56
205.411	94.72
205.63	-34.3
205.849	41.47
206.068	-28.16
206.287	-7.68
206.505	0.51
206.724	-17.92
206.943	-17.92
207.162	18.94
207.381	8.7
207.599	49.66
207.818	-22.02
208.037	18.94
208.255	-7.68
208.474	29.18
208.693	10.75
208.911	-36.35
209.13	6.66
209.349	-42.5
209.567	14.85
209.786	12.8
210.005	12.8
210.223	-32.26
210.442	-79.36
210.661	-30.21
210.879	43.52
211.098	47.62
211.316	10.75
211.535	76.29
211.753	8.7
211.972	29.18
212.191	2.56
212.409	51.71
212.628	45.57
212.846	0.51
213.065	23.04
213.283	107.01
213.502	25.09
213.72	39.42
213.938	-77.31
214.157	8.7
214.375	41.47
214.594	-44.54
214.812	53.76
215.031	-58.88
215.249	8.7
215.467	20.99
215.686	-19.97
215.904	43.52
216.122	-28.16
216.341	90.62
216.559	-50.69
216.778	47.62
216.996	55.81
217.214	2.56
217.432	-9.73
217.651	-32.26
217.869	4.61
218.087	43.52
218.306	-1.54
218.524	-1.54
218.742	14.85
218.96	70.14
219.179	25.09
219.397	16.9
219.615	131.58
219.833	76.29
220.051	-7.68
220.27	76.29
220.488	96.77
220.706	14.85
220.924	-42.5
221.142	39.42
221.36	49.66
221.578	59.9
221.796	27.14
222.015	16.9
222.233	0.51
222.451	98.81
222.669	8.7
222.887	43.52
223.105	6.66
223.323	64
223.541	29.18
223.759	59.9
223.977	-48.64
224.195	57.86
224.413	61.95
224.631	25.09
224.849	43.52
225.067	90.62
225.285	31.23
225.503	8.7
225.721	-46.59
225.939	33.28
226.157	6.66
226.375	88.57
226.592	-108.03
226.81	-15.87
227.028	18.94
227.246	8.7
227.464	43.52
227.682	6.66
227.9	27.14
228.117	-34.3
228.335	-24.06
228.553	12.8
228.771	0.51
228.989	10.75
229.206	-19.97
229.424	-22.02
229.642	4.61
229.86	-7.68
230.077	102.91
230.295	29.18
230.513	100.86
230.731	61.95
230.948	41.47
231.166	18.94
231.384	-7.68
231.601	0.51
231.819	107.01
232.037	-17.92
232.254	-42.5
232.472	-1.54
232.689	-5.63
232.907	-5.63
233.125	-34.3
233.342	-62.98
233.56	10.75
233.777	-62.98
233.995	57.86
234.213	74.24
234.43	41.47
234.648	37.38
234.865	43.52
235.083	27.14
235.3	-42.5
235.518	84.48
235.735	59.9
235.953	57.86
236.17	20.99
236.388	-7.68
236.605	-99.84
236.822	37.38
237.04	68.09
237.257	-26.11
237.475	-52.74
237.692	113.15
237.909	49.66
238.127	-13.82
238.344	0.51
238.562	51.71
238.779	43.52
238.996	-13.82
239.214	-15.87
239.431	55.81
239.648	-42.5
239.865	82.43
240.083	-3.58
240.3	59.9
240.517	-54.78
240.735	33.28
240.952	-28.16
241.169	98.81
241.386	-58.88
241.603	-5.63
241.821	-52.74
242.038	49.66
242.255	-38.4
242.472	20.99
242.689	119.29
242.907	2.56
243.124	43.52
243.341	-24.06
243.558	8.7
243.775	-46.59
243.992	-9.73
244.209	37.38
244.426	33.28
244.643	47.62
244.86	-42.5
245.078	25.09
245.295	-11.78
245.512	18.94
245.729	-42.5
245.946	27.14
246.163	2.56
246.38	2.56
246.597	39.42
246.814	-32.26
247.031	10.75
247.248	47.62
247.464	64
247.681	-19.97
247.898	14.85
248.115	16.9
248.332	-34.3
248.549	94.72
248.766	98.81
248.983	115.2
249.2	27.14
249.417	37.38
249.633	-5.63
249.85	84.48
250.067	2.56
250.284	68.09
250.501	-5.63
250.717	51.71
250.934	-32.26
251.151	35.33
251.368	-38.4
251.585	45.57
251.801	37.38
252.018	18.94
252.235	10.75
252.451	-11.78
252.668	-54.78
252.885	76.29
253.102	-11.78
253.318	4.61
253.535	-34.3
253.752	0.51
253.968	41.47
254.185	-34.3
254.401	-7.68
254.618	76.29
254.835	41.47
255.051	107.01
255.268	18.94
255.484	18.94
255.701	29.18
255.917	10.75
256.134	-17.92
256.351	-24.06
256.567	10.75
256.784	-9.73
257	14.85
257.217	2.56
257.433	4.61
257.65	27.14
257.866	23.04
258.082	-44.54
258.299	8.7
258.515	-34.3
258.732	45.57
258.948	-1.54
259.165	64
259.381	-42.5
259.597	-1.54
259.814	4.61
260.03	-34.3
260.246	10.75
260.463	72.19
260.679	80.38
260.895	16.9
261.112	98.81
261.328	64
261.544	37.38
261.761	33.28
261.977	10.75
262.193	55.81
262.409	2.56
262.626	8.7
262.842	-42.5
263.058	41.47
263.274	2.56
263.49	35.33
263.707	80.38
263.923	-24.06
264.139	-3.58
264.355	45.57
264.571	37.38
264.787	35.33
265.004	80.38
265.22	-19.97
265.436	43.52
265.652	2.56
265.868	8.7
266.084	-19.97
266.3	55.81
266.516	39.42
266.732	64
266.948	-28.16
267.164	2.56
267.38	-24.06
267.596	-9.73
267.812	113.15
268.028	55.81
268.244	14.85
268.46	-11.78
268.676	78.33
268.892	20.99
269.108	-54.78
269.324	-3.58
269.54	41.47
269.756	78.33
269.972	-3.58
270.188	16.9
270.403	-32.26
270.619	-17.92
270.835	-9.73
271.051	33.28
271.267	86.53
271.483	90.62
271.698	49.66
271.914	8.7
272.13	-15.87
272.346	47.62
272.562	4.61
272.777	18.94
272.993	33.28
273.209	4.61
273.425	37.38
273.64	-19.97
273.856	31.23
274.072	-3.58
274.287	-48.64
274.503	78.33
274.719	-34.3
274.934	10.75
275.15	-89.6
275.366	37.38
275.581	-1.54
275.797	-1.54
276.012	45.57
276.228	43.52
276.444	-32.26
276.659	47.62
276.875	35.33
277.09	16.9
277.306	-48.64
277.521	16.9
277.737	4.61
277.952	41.47
278.168	12.8
278.383	49.66
278.599	-36.35
278.814	27.14
279.03	18.94
279.245	10.75
279.461	-42.5
279.676	41.47
279.892	-22.02
280.107	-17.92
280.322	23.04
280.538	33.28
280.753	10.75
280.969	70.14
281.184	33.28
281.399	76.29
281.615	-56.83
281.83	53.76
282.045	-1.54
282.26	37.38
282.476	-1.54
282.691	8.7
282.906	57.86
283.122	-24.06
283.337	-9.73
283.552	90.62
283.767	33.28
283.983	154.11
284.198	-19.97
284.413	55.81
284.628	8.7
284.843	16.9
285.058	-36.35
285.274	31.23
285.489	-34.3
285.704	45.57
285.919	-9.73
286.134	-30.21
286.349	59.9
286.564	57.86
286.779	84.48
286.995	-28.16
287.21	25.09
287.425	68.09
287.64	-17.92
287.855	-30.21
288.07	-42.5
288.285	104.96
288.5	64
288.715	-24.06
288.93	-3.58
289.145	-3.58
289.36	-17.92
289.575	41.47
289.79	-34.3
290.004	-87.55
290.219	8.7
290.434	-75.26
290.649	-19.97
290.864	-65.02
291.079	14.85
291.294	61.95
291.509	59.9
291.724	66.05
291.938	6.66
292.153	53.76
292.368	6.66
292.583	88.57
292.798	0.51
293.012	10.75
293.227	-11.78
293.442	18.94
293.657	14.85
293.871	31.23
294.086	33.28
294.301	96.77
294.516	47.62
294.73	-13.82
294.945	14.85
295.16	-46.59
295.374	109.05
295.589	25.09
295.804	-9.73
296.018	53.76
296.233	-13.82
296.447	94.72
296.662	-52.74
296.877	82.43
297.091	43.52
297.306	68.09
297.52	2.56
297.735	25.09
297.949	35.33
298.164	51.71
298.378	-36.35
298.593	16.9
298.807	-17.92
299.022	57.86
299.236	43.52
299.451	-15.87
299.665	8.7
299.88	6.66
300.094	37.38
300.309	-5.63
300.523	57.86
300.737	-44.54
300.952	-28.16
301.166	51.71
301.381	37.38
301.595	49.66
301.809	-46.59
302.024	-48.64
302.238	-7.68
302.452	20.99
302.667	-19.97
302.881	78.33
303.095	68.09
303.309	0.51
303.524	-69.12
303.738	29.18
303.952	-19.97
304.166	139.77
304.381	-40.45
304.595	39.42
304.809	6.66
305.023	4.61
305.237	-44.54
305.452	-3.58
305.666	64
305.88	23.04
306.094	2.56
306.308	29.18
306.522	-11.78
306.736	64
306.95	27.14
307.164	-36.35
307.379	47.62
307.593	109.05
307.807	33.28
308.021	14.85
308.235	-19.97
308.449	-26.11
308.663	-11.78
308.877	51.71
309.091	53.76
309.305	41.47
309.519	-54.78
309.733	86.53
309.947	-7.68
310.161	78.33
310.374	43.52
310.588	16.9
310.802	-34.3
311.016	14.85
311.23	29.18
311.444	-28.16
311.658	-24.06
311.872	39.42
312.085	35.33
312.299	61.95
312.513	-7.68
312.727	23.04
312.941	-5.63
313.154	-56.83
313.368	27.14
313.582	14.85
313.796	35.33
314.009	10.75
314.223	29.18
314.437	-17.92
314.651	39.42
314.864	-5.63
315.078	18.94
315.292	6.66
315.505	-54.78
315.719	2.56
315.933	12.8
316.146	27.14
316.36	-3.58
316.573	-58.88
316.787	2.56
317.001	-36.35
317.214	-13.82
317.428	43.52
317.641	-7.68
317.855	-11.78
318.068	4.61
318.282	45.57
318.495	51.71
318.709	18.94
318.922	27.14
319.136	88.57
319.349	39.42
319.563	16.9
319.776	55.81
319.99	-46.59
320.203	41.47
320.417	41.47
320.63	-1.54
320.843	31.23
321.057	-22.02
321.27	16.9
321.483	-26.11
321.697	53.76
321.91	57.86
322.124	39.42
322.337	25.09
322.55	-7.68
322.763	90.62
322.977	-1.54
323.19	-60.93
323.403	-26.11
323.617	55.81
323.83	-30.21
324.043	-24.06
324.256	-5.63
324.469	33.28
324.683	-7.68
324.896	-11.78
325.109	2.56
325.322	-62.98
325.535	16.9
325.748	27.14
325.962	-24.06
326.175	74.24
326.388	76.29
326.601	23.04
326.814	-50.69
327.027	20.99
327.24	12.8
327.453	-15.87
327.666	55.81
327.879	37.38
328.092	100.86
328.305	-5.63
328.518	27.14
328.731	-91.65
328.944	12.8
329.157	47.62
329.37	-5.63
329.583	-5.63
329.796	102.91
330.009	-75.26
330.222	45.57
330.435	51.71
330.648	4.61
330.861	23.04
331.073	33.28
331.286	47.62
331.499	10.75
331.712	-13.82
331.925	4.61
332.138	-19.97
332.35	27.14
332.563	-19.97
332.776	70.14
332.989	-19.97
333.202	43.52
333.414	43.52
333.627	16.9
333.84	25.09
334.053	29.18
334.265	23.04
334.478	14.85
334.691	14.85
334.903	-15.87
335.116	-40.45
335.329	57.86
335.541	47.62
335.754	74.24
335.966	-17.92
336.179	64
336.392	31.23
336.604	-50.69
336.817	66.05
337.029	-15.87
337.242	64
337.454	37.38
337.667	16.9
337.88	41.47
338.092	2.56
338.305	68.09
338.517	35.33
338.729	-1.54
338.942	102.91
339.154	-34.3
339.367	35.33
339.579	18.94
339.792	-5.63
340.004	8.7
340.217	76.29
340.429	55.81
340.641	-15.87
340.854	29.18
341.066	57.86
341.278	47.62
341.491	76.29
341.703	-1.54
341.915	-28.16
342.128	-9.73
342.34	98.81
342.552	-46.59
342.764	49.66
342.977	6.66
343.189	-13.82
343.401	0.51
343.613	-71.17
343.826	-1.54
344.038	-13.82
344.25	41.47
344.462	-19.97
344.674	-17.92
344.886	0.51
345.099	68.09
345.311	16.9
345.523	45.57
345.735	-3.58
345.947	20.99
346.159	27.14
346.371	12.8
346.583	-44.54
346.795	121.34
347.007	8.7
347.219	-15.87
347.431	39.42
347.643	-22.02
347.855	78.33
348.067	-1.54
348.279	-15.87
348.491	33.28
348.703	72.19
348.915	-1.54
349.127	10.75
349.339	51.71
349.551	-17.92
349.763	41.47
349.975	2.56
350.187	23.04
350.399	84.48
350.61	49.66
350.822	-13.82
351.034	2.56
351.246	-9.73
351.458	18.94
351.669	29.18
351.881	117.25
352.093	-11.78
352.305	35.33
352.517	-34.3
352.728	31.23
352.94	64
353.152	-95.74
353.363	-62.98
353.575	64
353.787	64
353.999	57.86
354.21	78.33
354.422	-7.68
354.633	-69.12
354.845	27.14
355.057	-34.3
355.268	8.7
355.48	25.09
355.692	-65.02
355.903	57.86
356.115	-81.41
356.326	70.14
356.538	74.24
356.749	78.33
356.961	27.14
357.172	55.81
357.384	-1.54
357.595	94.72
357.807	51.71
358.018	25.09
358.23	88.57
358.441	41.47
358.653	-9.73
358.864	68.09
359.075	12.8
359.287	29.18
359.498	64
359.709	37.38
359.921	33.28
360.132	51.71
360.344	-36.35
360.555	-3.58
360.766	92.67
360.977	-75.26
361.189	68.09
361.4	-15.87
361.611	96.77
361.823	14.85
362.034	53.76
362.245	41.47
362.456	16.9
362.667	20.99
362.879	57.86
363.09	27.14
363.301	64
363.512	23.04
363.723	-56.83
363.935	10.75
364.146	78.33
364.357	10.75
364.568	-52.74
364.779	-38.4
364.99	72.19
365.201	-13.82
365.412	61.95
365.623	-38.4
365.834	35.33
366.045	-75.26
366.256	8.7
366.467	45.57
366.678	12.8
366.889	18.94
367.1	-9.73
367.311	16.9
367.522	31.23
367.733	-32.26
367.944	10.75
368.155	12.8
368.366	72.19
368.577	29.18
368.788	10.75
368.999	-75.26
369.209	59.9
369.42	82.43
369.631	35.33
369.842	-9.73
370.053	18.94
370.264	66.05
370.474	-36.35
370.685	-30.21
370.896	10.75
371.107	55.81
371.317	72.19
371.528	-34.3
371.739	66.05
371.95	-28.16
372.16	41.47
372.371	-30.21
372.582	-65.02
372.792	-15.87
373.003	57.86
373.214	-9.73
373.424	25.09
373.635	4.61
373.846	84.48
374.056	33.28
374.267	41.47
374.477	55.81
374.688	2.56
374.898	-13.82
375.109	25.09
375.319	0.51
375.53	51.71
375.74	-54.78
375.951	8.7
376.161	27.14
376.372	82.43
376.582	-46.59
376.793	2.56
377.003	-24.06
377.214	4.61
377.424	-17.92
377.635	0.51
377.845	-17.92
378.055	156.16
378.266	2.56
378.476	76.29
378.686	53.76
378.897	20.99
379.107	29.18
379.317	-19.97
379.528	45.57
379.738	8.7
379.948	10.75
380.158	123.39
380.369	-3.58
380.579	41.47
380.789	57.86
380.999	10.75
381.21	-28.16
381.42	141.82
381.63	49.66
381.84	39.42
382.05	-1.54
382.261	51.71
382.471	-3.58
382.681	8.7
382.891	49.66
383.101	98.81
383.311	-50.69
383.521	29.18
383.731	39.42
383.941	66.05
384.151	18.94
384.361	-17.92
384.571	10.75
384.781	109.05
384.991	0.51
385.201	43.52
385.411	-34.3
385.621	70.14
385.831	-9.73
386.041	-13.82
386.251	-9.73
386.461	78.33
386.671	-60.93
386.881	70.14
387.091	-30.21
387.301	90.62
387.511	68.09
387.72	43.52
387.93	92.67
388.14	-11.78
388.35	-11.78
388.56	61.95
388.769	-58.88
388.979	6.66
389.189	18.94
389.399	10.75
389.609	53.76
389.818	76.29
390.028	18.94
390.238	25.09
390.447	-17.92
390.657	100.86
390.867	18.94
391.076	-65.02
391.286	-7.68
391.496	14.85
391.705	45.57
391.915	160.25
392.125	49.66
392.334	-48.64
392.544	55.81
392.753	14.85
392.963	90.62
393.172	41.47
393.382	98.81
393.591	29.18
393.801	-19.97
394.01	115.2
394.22	96.77
394.429	49.66
394.639	86.53
394.848	70.14
395.058	84.48
395.267	43.52
395.477	82.43
395.686	45.57
395.895	96.77
396.105	14.85
396.314	8.7
396.524	10.75
396.733	-11.78
396.942	150.01
397.152	70.14
397.361	88.57
397.57	92.67
397.78	102.91
397.989	70.14
398.198	102.91
398.407	20.99
398.617	59.9
398.826	-7.68
399.035	-30.21
399.244	74.24
399.453	-9.73
399.663	90.62
399.872	51.71
400.081	-19.97
400.29	49.66
400.499	68.09
400.708	10.75
400.917	100.86
401.127	43.52
401.336	49.66
401.545	64
401.754	143.87
401.963	66.05
402.172	84.48
402.381	53.76
402.59	-15.87
402.799	25.09
403.008	82.43
403.217	23.04
403.426	94.72
403.635	25.09
403.844	57.86
404.053	76.29
404.262	29.18
404.471	107.01
404.68	64
404.888	102.91
405.097	64
405.306	2.56
405.515	125.44
405.724	37.38
405.933	186.88
406.142	141.82
406.35	64
406.559	80.38
406.768	76.29
406.977	219.64
407.185	80.38
407.394	188.93
407.603	47.62
407.812	27.14
408.02	131.58
408.229	119.29
408.438	176.64
408.646	121.34
408.855	131.58
409.064	203.26
409.272	156.16
409.481	150.01
409.69	160.25
409.898	162.3
410.107	190.97
410.315	190.97
410.524	225.79
410.733	201.21
410.941	176.64
411.15	223.74
411.358	199.16
411.567	213.5
411.775	139.77
411.984	199.16
412.192	242.17
412.401	242.17
412.609	254.46
412.818	287.23
413.026	307.71
413.234	299.52
413.443	231.93
413.651	262.65
413.86	305.66
414.068	324.09
414.276	465.4
414.485	336.38
414.693	385.53
414.901	365.05
415.11	346.62
415.318	373.24
415.526	381.43
415.734	428.54
415.943	418.3
416.151	449.02
416.359	416.25
416.567	412.15
416.776	453.11
416.984	635.38
417.192	623.09
417.4	489.98
417.608	537.08
417.817	504.31
418.025	588.28
418.233	664.05
418.441	598.52
418.649	625.14
418.857	698.87
419.065	688.63
419.273	655.86
419.481	801.27
419.689	780.79
419.897	868.85
420.105	827.89
420.313	926.19
420.521	913.91
420.729	862.71
420.937	877.04
421.145	856.56
421.353	1053.17
421.561	1096.18
421.769	1094.13
421.977	1147.37
422.185	1217.01
422.393	1110.51
422.601	1210.86
422.809	1270.25
423.017	1245.68
423.224	1251.82
423.432	1393.13
423.64	1317.36
423.848	1483.24
424.056	1415.66
424.263	1618.41
424.471	1589.74
424.679	1704.42
424.887	1698.28
425.094	1825.25
425.302	1685.99
425.51	1825.25
425.718	1765.86
425.925	1927.65
426.133	1911.27
426.341	2114.02
426.548	2206.17
426.756	2218.46
426.964	2118.11
427.171	2347.48
427.379	2435.55
427.586	2406.88
427.794	2460.12
428.001	2671.06
428.209	2806.23
428.417	2701.78
428.624	2949.59
428.832	2865.62
429.039	2773.46
429.247	2920.92
429.454	3066.32
429.662	3240.4
429.869	3205.58
430.076	3428.81
430.284	3291.6
430.491	3369.42
430.699	3621.32
430.906	3668.42
431.114	3613.13
431.321	3713.48
431.528	3826.12
431.736	3944.9
431.943	4340.16
432.15	3992
432.358	4184.51
432.565	4401.6
432.772	4563.39
432.979	4641.21
433.187	4827.57
433.394	4796.85
433.601	5120.43
433.808	5054.9
434.016	4952.5
434.223	5296.56
434.43	5671.34
434.637	5247.41
434.844	5876.13
435.052	5898.66
435.259	5960.1
435.466	6017.44
435.673	5710.25
435.88	6486.43
436.087	6668.7
436.294	6713.75
436.501	6504.86
436.708	6730.14
436.915	6859.16
437.122	7211.41
437.329	7268.75
437.537	7469.45
437.743	7344.53
437.95	7498.13
438.157	7870.86
438.364	8067.46
438.571	7940.49
438.778	8235.39
438.985	8780.15
439.192	8542.59
439.399	8790.39
439.606	8548.73
439.813	9085.3
440.02	9587.05
440.227	9513.33
440.433	9435.5
440.64	9679.21
440.847	9738.6
441.054	9802.09
441.261	10617.18
441.467	10307.94
441.674	10572.13
441.881	11002.2
442.088	10807.64
442.294	11125.08
442.501	11194.71
442.708	11618.64
442.914	11741.52
443.121	12489.03
443.328	12007.75
443.534	12876.09
443.741	12501.31
443.948	12341.57
444.154	13242.68
444.361	13144.38
444.568	13347.12
444.774	13324.6
444.981	13525.3
445.187	13947.18
445.394	14383.4
445.6	14313.77
445.807	15542.55
446.013	15044.89
446.22	15077.66
446.426	15798.54
446.633	15991.05
446.839	16613.63
447.046	15620.37
447.252	16644.35
447.459	16720.13
447.665	17035.52
447.871	17373.43
448.078	17840.37
448.284	17242.36
448.491	17899.76
448.697	18442.47
448.903	18811.1
449.11	18909.41
449.316	18530.53
449.522	18862.3
449.728	19296.47
449.935	19550.42
450.141	19480.79
450.347	19970.26
450.553	19445.98
450.76	19833.04
450.966	20238.54
451.172	20027.6
451.378	20719.81
451.584	20304.07
451.791	20883.65
451.997	20803.78
452.203	21209.28
452.409	20924.61
452.615	20996.29
452.821	20232.4
453.027	19779.79
453.233	20842.69
453.44	20011.21
453.646	20484.3
453.852	20293.83
454.058	20824.26
454.264	20154.57
454.47	20652.23
454.676	20033.74
454.882	20672.71
455.088	18995.42
455.294	19491.03
455.5	19658.96
455.705	19894.48
455.911	18997.47
456.117	18407.66
456.323	18276.59
456.529	17561.84
456.735	18086.12
456.941	17533.17
457.147	17424.63
457.352	16943.36
457.558	16732.42
457.764	16623.87
457.97	16429.32
458.176	15946
458.381	15741.2
458.587	15067.42
458.793	15335.7
458.999	14319.91
459.204	15495.44
459.41	15001.88
459.616	14068.01
459.821	13912.36
460.027	13922.6
460.233	13570.35
460.438	13074.74
460.644	13107.51
460.85	12329.28
461.055	12212.55
461.261	12292.42
461.466	11356.5
461.672	11041.11
461.878	11880.78
462.083	11088.21
462.289	10932.57
462.494	10801.5
462.7	10264.93
462.905	9914.73
463.111	10430.82
463.316	10447.2
463.522	10361.19
463.727	10275.17
463.932	10006.89
464.138	10113.38
464.343	10088.81
464.549	9906.54
464.754	9834.86
464.959	9939.3
465.165	9791.85
465.37	9408.88
465.575	9136.5
465.781	9648.49
465.986	9738.6
466.191	9320.82
466.397	9183.6
466.602	8786.3
466.807	9077.11
467.012	9277.81
467.218	9130.36
467.423	8771.96
467.628	9054.58
467.833	9263.47
468.038	9019.77
468.244	8647.04
468.449	8948.09
468.654	8767.87
468.859	8876.41
469.064	8575.36
469.269	8233.35
469.474	8493.44
469.679	8591.74
469.885	8223.11
470.09	8614.27
470.295	8212.87
470.5	8075.65
470.705	8094.08
470.91	8053.13
471.115	7764.36
471.32	8014.21
471.525	8010.12
471.73	8006.02
471.935	7790.99
472.139	7448.97
472.344	7633.29
472.549	7471.5
472.754	7453.07
472.959	7412.11
473.164	6924.69
473.369	7111.06
473.574	7287.18
473.778	7268.75
473.983	7303.57
474.188	7070.1
474.393	6820.25
474.598	6883.73
474.802	6875.54
475.007	6631.83
475.212	6799.77
475.417	6613.4
475.621	6441.37
475.826	6441.37
476.031	6451.61
476.235	6318.5
476.44	6474.14
476.645	6267.3
476.849	6388.13
477.054	6181.28
477.259	6119.84
477.463	6031.78
477.668	5960.1
477.872	5976.48
478.077	5818.79
478.282	5730.73
478.486	5861.8
478.691	5773.74
478.895	5822.89
479.1	5644.71
479.304	5728.68
479.509	5374.38
479.713	5802.41
479.918	5474.73
480.122	5409.2
480.326	5405.1
480.531	5446.06
480.735	5358
480.94	5239.22
481.144	5568.94
481.348	5249.46
481.553	5403.05
481.757	5163.44
481.961	5192.11
482.166	5314.99
482.37	5364.14
482.574	5200.3
482.778	5188.02
482.983	5380.53
483.187	5274.03
483.391	5323.18
483.595	5196.21
483.8	5179.82
484.004	5351.85
484.208	5220.78
484.412	5222.83
484.616	5269.94
484.821	5323.18
485.025	5173.68
485.229	5116.34
485.433	5102
485.637	5188.02
485.841	5251.5
486.045	5118.39
486.249	5378.48
486.453	5218.74
486.657	5294.51
486.861	5188.02
487.065	5175.73
487.269	5237.17
487.473	5151.15
487.677	5474.73
487.881	5274.03
488.085	5257.65
488.289	5237.17
488.493	5394.86
488.697	5128.63
488.901	5409.2
489.105	5241.26
489.309	5372.33
489.512	5200.3
489.716	5290.42
489.92	5317.04
490.124	5188.02
490.328	5577.13
490.531	5243.31
490.735	5409.2
490.939	5405.1
491.143	5411.25
491.346	5429.68
491.55	5417.39
491.754	5374.38
491.958	5507.5
492.161	5517.74
492.365	5657
492.569	5417.39
492.772	5611.95
492.976	5683.63
493.18	5624.23
493.383	5663.15
493.587	5859.75
493.79	5736.87
493.994	5568.94
494.197	5738.92
494.401	5906.85
494.605	5872.04
494.808	5949.86
495.012	6013.35
495.215	6050.21
495.419	6150.56
495.622	6214.05
495.825	6039.97
496.029	6134.18
496.232	6175.14
496.436	6177.19
496.639	6281.63
496.843	6220.19
497.046	6568.35
497.249	6648.22
497.453	6451.61
497.656	6558.11
497.859	6699.42
498.063	6705.56
498.266	6945.17
498.469	6871.45
498.673	6734.23
498.876	6959.51
499.079	7047.57
499.282	7092.63
499.485	7571.85
499.689	7399.82
499.892	7283.09
500.095	7530.89
500.298	7682.44
500.501	7520.65
500.705	7922.06
500.908	7801.22
501.111	7958.92
501.314	8032.65
501.517	8159.62
501.72	8167.81
501.923	8163.72
502.126	8485.25
502.329	8483.2
502.532	8616.32
502.735	8694.14
502.938	8683.9
503.141	8751.48
503.344	8954.23
503.547	9013.62
503.75	9070.97
503.953	9240.95
504.156	9408.88
504.359	9333.11
504.562	9642.35
504.765	9853.29
504.968	9705.84
505.17	9994.6
505.373	9910.63
505.576	10266.98
505.779	10189.16
505.982	10101.09
506.185	10502.5
506.387	10459.49
506.59	10568.03
506.793	10828.12
506.996	10795.36
507.198	11381.07
507.401	11151.7
507.604	11268.44
507.807	11385.17
508.009	11374.93
508.212	11665.74
508.415	11821.39
508.617	11985.23
508.82	11960.65
509.022	12112.2
509.225	12120.39
509.428	12288.32
509.63	12554.56
509.833	12833.08
510.035	13293.88
510.238	12812.6
510.44	13121.85
510.643	13570.35
510.845	13349.17
511.048	13592.88
511.25	13873.45
511.453	13697.33
511.655	14217.51
511.858	14178.6
512.06	14313.77
512.262	14426.4
512.465	14561.57
512.667	14768.41
512.87	15071.51
513.072	14987.55
513.274	15327.51
513.477	15290.65
513.679	15391
513.881	15874.32
514.084	16050.44
514.286	16032.01
514.488	16099.59
514.69	16539.91
514.893	16521.48
515.095	16701.7
515.297	16906.49
515.499	17037.56
515.701	17361.14
515.904	17676.53
516.106	17631.47
516.308	18020.59
516.51	18270.44
516.712	18260.2
516.914	18301.16
517.116	18657.51
517.318	18749.67
517.52	18884.83
517.722	18850.02
517.925	19400.92
518.127	19556.57
518.329	19761.36
518.531	19488.98
518.733	20302.03
518.935	20173
519.136	20482.25
519.338	20738.24
519.54	20648.13
519.742	21027.01
519.944	21192.89
520.146	21756.08
520.348	21653.69
520.55	21749.94
520.752	22026.42
520.954	22397.1
521.155	22374.57
521.357	22679.72
521.559	22898.85
521.761	23263.39
521.963	23247.01
522.164	23373.98
522.366	23341.21
522.568	23730.33
522.77	24076.43
522.971	24324.24
523.173	24068.24
523.375	24553.61
523.576	24506.51
523.778	24795.27
523.98	25028.74
524.181	25006.21
524.383	25067.65
524.584	25561.21
524.786	25446.52
524.988	25546.87
525.189	25919.6
525.391	26224.75
525.592	26382.45
525.794	26353.77
525.995	26677.35
526.197	26589.29
526.398	26620.01
526.6	26640.49
526.801	26943.59
527.003	27009.12
527.204	27033.7
527.406	27652.19
527.607	27592.79
527.808	28016.72
528.01	27742.3
528.211	27750.49
528.412	28350.54
528.614	28276.82
528.815	28201.04
529.016	28538.96
529.218	28053.59
529.419	28588.11
529.62	28749.9
529.822	28966.98
530.023	28477.52
530.224	29003.85
530.425	28762.19
530.626	28805.19
530.828	29012.04
531.029	29433.92
531.23	29069.38
531.431	28880.97
531.632	29427.77
531.833	29628.48
532.035	29505.6
532.236	29636.67
532.437	29268.03
532.638	29380.67
532.839	29734.97
533.04	29837.37
533.241	29517.89
533.442	29970.49
533.643	29642.81
533.844	29972.53
534.045	30025.78
534.246	29810.75
534.447	29739.07
534.648	29691.96
534.849	30160.95
535.05	29827.13
535.251	29898.81
535.451	30244.91
535.652	30191.67
535.853	29888.57
536.054	30287.92
536.255	30017.59
536.456	30199.86
536.657	29947.96
536.857	30183.48
537.058	30033.97
537.259	30371.89
537.46	30314.55
537.66	30388.27
537.861	30158.9
538.062	30240.82
538.263	30105.65
538.463	30244.91
538.664	30447.66
538.865	30304.31
539.065	30105.65
539.266	29870.14
539.466	30312.5
539.667	29732.92
539.868	30484.53
540.068	30072.89
540.269	29990.97
540.469	30437.42
540.67	30570.54
540.87	30226.48
541.071	30214.19
541.271	30371.89
541.472	30226.48
541.672	30203.96
541.873	30220.34
542.073	29827.13
542.274	30595.12
542.474	29810.75
542.675	29907
542.875	30423.09
543.075	30212.15
543.276	29892.66
543.476	30525.49
543.676	30079.03
543.877	30240.82
544.077	30316.59
544.277	30656.56
544.478	29820.98
544.678	30183.48
544.878	30220.34
545.078	30292.02
545.279	29792.31
545.479	30072.89
545.679	30253.11
545.879	29601.85
546.079	30228.53
546.28	30277.68
546.48	29868.09
546.68	29823.03
546.88	30261.3
547.08	30306.35
547.28	29974.58
547.48	29841.46
547.68	30396.46
547.88	30060.6
548.081	30113.84
548.281	30058.55
548.481	29552.7
548.681	30249.01
548.881	30017.59
549.081	30046.26
549.28	29997.11
549.48	29976.63
549.68	30029.88
549.88	30201.91
550.08	29915.19
550.28	29831.22
550.48	30048.31
550.68	29990.97
550.88	30058.55
551.08	30130.23
551.279	29794.36
551.479	29894.71
551.679	30060.6
551.879	29683.77
552.079	30222.39
552.278	29759.55
552.478	29904.95
552.678	29915.19
552.878	29884.47
553.077	30089.27
553.277	29624.38
553.477	29980.73
553.676	29788.22
553.876	30175.28
554.076	29888.57
554.275	29761.59
554.475	29599.8
554.674	29505.6
554.874	29952.05
555.074	29665.34
555.273	29587.52
555.473	29741.11
555.672	29747.26
555.872	29323.33
556.071	29411.39
556.271	29476.93
556.47	29053
556.67	29237.31
556.869	29204.55
557.068	29200.45
557.268	28948.55
557.467	28876.87
557.667	29122.63
557.866	29141.06
558.065	29132.87
558.265	28919.88
558.464	28735.56
558.663	29173.83
558.863	28827.72
559.062	29175.87
559.261	28561.48
559.461	29216.83
559.66	28330.06
559.859	28389.45
560.058	28352.59
560.258	28835.91
560.457	28172.37
560.656	28469.33
560.855	28409.93
561.054	28397.65
561.253	27932.76
561.453	28049.49
561.652	28246.1
561.851	28135.51
562.05	27934.81
562.249	27609.18
562.448	28069.97
562.647	27816.02
562.846	27754.58
563.045	27707.48
563.244	27369.57
563.443	27791.45
563.642	27177.06
563.841	27486.3
564.04	27439.2
564.239	27574.36
564.438	27240.54
564.637	27297.89
564.836	27144.29
565.035	26878.05
565.234	26779.75
565.432	26845.29
565.631	26636.39
565.83	26648.68
566.029	26855.53
566.228	26089.59
566.427	26327.15
566.625	26140.79
566.824	25835.64
567.023	26069.11
567.222	25716.86
567.42	26413.16
567.619	25935.99
567.818	25761.91
568.016	25772.15
568.215	25868.41
568.414	25561.21
568.612	26022
568.811	25485.44
569.01	25520.25
569.208	25112.7
569.407	25432.19
569.605	24797.32
569.804	25428.09
570.002	24950.92
570.201	24914.05
570.4	24613
570.598	24633.48
570.797	24557.71
570.995	24449.16
571.193	24154.26
571.392	24594.57
571.59	24148.11
571.789	24092.82
571.987	24058
572.186	23974.03
572.384	23804.05
572.582	24330.38
572.781	23971.99
572.979	23836.82
573.177	24012.95
573.376	23777.43
573.574	23527.58
573.772	23445.66
573.971	23290.01
574.169	22956.19
574.367	22956.19
574.565	23328.92
574.763	23136.41
574.962	23099.55
575.16	22704.29
575.358	22857.89
575.556	22413.48
575.754	22878.37
575.952	22333.61
576.151	22421.67
576.349	22126.77
576.547	22306.99
576.745	22237.36
576.943	22114.48
577.141	22057.14
577.339	21999.79
577.537	22096.05
577.735	21881.01
577.933	21764.28
578.131	21756.08
578.329	21883.06
578.527	21432.5
578.725	21536.95
578.923	21598.39
579.121	21416.12
579.319	21035.2
579.516	21536.95
579.714	21360.83
579.912	20998.34
580.11	20863.17
580.308	20893.89
580.506	20764.87
580.704	20940.99
580.901	21178.56
581.099	20900.03
581.297	20447.43
581.495	20496.58
581.692	20662.47
581.89	20367.56
582.088	20334.79
582.285	20334.79
582.483	20232.4
582.681	20017.36
582.878	20107.47
583.076	20027.6
583.274	20181.2
583.471	19857.62
583.669	19755.22
583.866	19673.3
584.064	19914.96
584.262	19564.76
584.459	19857.62
584.657	19587.29
584.854	19822.8
585.052	19407.06
585.249	19609.81
585.447	19355.86
585.644	19050.72
585.841	19241.18
586.039	19269.85
586.236	19245.27
586.434	19200.22
586.631	18710.75
586.828	18987.23
587.026	18802.91
587.223	18620.64
587.42	18612.45
587.618	18720.99
587.815	18747.62
588.012	18616.55
588.21	18604.26
588.407	18487.53
588.604	18340.07
588.801	18174.19
588.999	18335.98
589.196	18227.43
589.393	18049.26
589.59	18102.51
589.787	18135.28
589.984	18067.69
590.182	17983.73
590.379	17729.78
590.576	17647.86
590.773	17860.85
590.97	17676.53
591.167	17481.97
591.364	17318.14
591.561	17412.34
591.758	17436.92
591.955	17383.67
592.152	17512.69
592.349	17318.14
592.546	17570.04
592.743	17178.87
592.94	16912.64
593.137	17211.64
593.334	17271.03
593.531	16761.09
593.727	17158.39
593.924	17131.77
594.121	16875.77
594.318	16789.76
594.515	16791.81
594.712	16867.58
594.908	16498.95
595.105	16697.6
595.302	16308.49
595.499	16476.42
595.696	16201.99
595.892	16357.64
596.089	16298.25
596.286	16351.49
596.482	16339.21
596.679	16245
596.876	16285.96
597.072	16197.9
597.269	16019.72
597.466	15814.93
597.662	15937.8
597.859	16111.88
598.055	16083.21
598.252	15694.1
598.448	15653.14
598.645	15792.4
598.841	15665.42
599.038	15511.83
599.234	15542.55
599.431	15610.13
599.627	15483.16
599.824	15405.33
600.02	15350.04
600.217	15132.95
600.413	15104.28
600.609	15014.17
600.806	15003.93
601.002	15212.82
601.198	14975.26
601.395	14889.24
601.591	15057.18
601.787	14981.4
601.984	14723.36
602.18	14952.73
602.376	14856.48
602.572	14792.99
602.769	14811.42
602.965	14690.59
603.161	14504.23
603.357	14616.86
603.553	14481.7
603.75	14498.08
603.946	14197.03
604.142	14369.06
604.338	14291.24
604.534	14307.62
604.73	14248.23
604.926	14168.36
605.122	14190.89
605.318	14049.58
605.514	14033.19
605.71	13945.13
605.906	14086.44
606.102	13840.68
606.298	13967.66
606.494	13963.56
606.69	13721.9
606.886	14080.3
607.082	13537.59
607.278	13990.19
607.474	13445.43
607.67	13822.25
607.866	13166.9
608.062	13637.94
608.257	13488.43
608.453	13424.95
608.649	13566.26
608.845	13435.19
609.041	13396.28
609.236	13195.57
609.432	13482.29
609.628	13379.89
609.824	13189.43
610.019	13156.66
610.215	13084.98
610.411	13171
610.606	13082.94
610.802	13044.02
610.998	12831.04
611.193	13048.12
611.389	12792.12
611.584	12794.17
611.78	12972.35
611.976	12769.6
612.171	12964.15
612.367	12751.17
612.562	12880.19
612.758	12497.22
612.953	12501.31
613.149	12898.62
613.344	12423.49
613.539	12589.38
613.735	12632.38
613.93	12577.09
614.126	12550.46
614.321	12740.93
614.517	12751.17
614.712	12595.52
614.907	12515.65
615.103	12284.23
615.298	12175.69
615.493	12378.44
615.688	12208.45
615.884	12435.78
616.079	12063.05
616.274	12181.83
616.47	12124.49
616.665	12230.98
616.86	11983.18
617.055	12077.38
617.25	12194.12
617.445	12024.14
617.641	11821.39
617.836	11940.17
618.031	11702.61
618.226	11993.42
618.421	11669.84
618.616	11942.22
618.811	11825.48
619.006	11688.27
619.201	11540.82
619.396	11708.75
619.591	11565.39
619.786	11592.02
619.981	11524.43
620.176	11354.45
620.371	11090.26
620.566	11286.87
620.761	11338.07
620.956	11268.44
621.151	10932.57
621.346	11061.59
621.541	11108.69
621.735	11086.17
621.93	10879.32
622.125	10914.14
622.32	10746.2
622.515	11014.49
622.709	10850.65
622.904	10486.11
623.099	10492.26
623.294	10670.43
623.488	10584.41
623.683	10520.93
623.878	10471.78
624.072	10252.64
624.267	10213.73
624.462	10244.45
624.656	10287.46
624.851	10273.12
625.046	10015.08
625.24	9965.93
625.435	9793.9
625.629	9769.32
625.824	9826.67
626.018	9791.85
626.213	9593.2
626.407	9701.74
626.602	9542
626.796	9640.3
626.991	9396.59
627.185	9369.97
627.38	9464.18
627.574	9351.54
627.768	9310.58
627.963	9410.93
628.157	9273.71
628.352	9171.32
628.546	9128.31
628.74	9025.91
628.935	9027.96
629.129	9099.64
629.323	8819.07
629.517	8964.47
629.712	8720.76
629.906	8896.89
630.1	8565.12
630.294	8796.54
630.489	8655.23
630.683	8712.57
630.877	8370.56
631.071	8524.16
631.265	8442.24
631.459	8247.68
631.653	8452.48
631.848	8309.12
632.042	8446.34
632.236	8167.81
632.43	8065.41
632.624	8421.76
632.818	8176
633.012	7932.29
633.206	8028.55
633.4	7975.3
633.594	7827.85
633.788	7942.53
633.982	7971.21
634.176	7813.51
634.369	7799.18
634.563	7778.7
634.757	7688.59
634.951	7678.35
635.145	7641.48
635.339	7657.87
635.533	7528.85
635.726	7539.08
635.92	7356.82
636.114	7631.24
636.308	7322
636.501	7502.22
636.695	7281.04
636.889	7143.83
637.083	7066
637.276	7133.59
637.47	7184.79
637.664	7076.24
637.857	7133.59
638.051	7082.39
638.244	7000.47
638.438	7068.05
638.632	6758.81
638.825	6816.15
639.019	6848.92
639.212	6736.28
639.406	6799.77
639.599	6713.75
639.793	6818.2
639.986	6572.44
640.18	6697.37
640.373	6576.54
640.567	6379.93
640.76	6465.95
640.954	6437.28
641.147	6586.78
641.34	6472.09
641.534	6326.69
641.727	6312.35
641.92	6322.59
642.114	6242.72
642.307	6304.16
642.5	6162.85
642.694	6001.06
642.887	6013.35
643.08	6158.75
643.273	6052.26
643.467	5886.37
643.66	5853.61
643.853	5929.38
644.046	5962.15
644.239	5894.57
644.432	5757.35
644.626	5806.5
644.819	5781.93
645.012	5810.6
645.205	5669.29
645.398	5597.61
645.591	5763.5
645.784	5484.97
645.977	5460.4
646.17	5630.38
646.363	5491.12
646.556	5427.63
646.749	5329.33
646.942	5372.33
647.135	5456.3
647.328	5327.28
647.521	5292.46
647.714	5185.97
647.907	5228.98
648.099	5231.02
648.292	5235.12
648.485	5169.59
648.678	5097.91
648.871	4981.17
649.064	5194.16
649.256	4975.03
649.449	5061.04
649.642	4954.55
649.835	4956.6
650.027	4815.29
650.22	4934.07
650.413	4985.27
650.605	4979.12
650.798	4803
650.991	4880.82
651.183	4940.21
651.376	4657.59
651.568	4882.87
651.761	4630.97
651.954	4696.5
652.146	4680.12
652.339	4790.71
652.531	4602.3
652.724	4585.91
652.916	4655.54
653.109	4671.93
653.301	4532.67
653.494	4628.92
653.686	4469.18
653.879	4487.61
654.071	4272.57
654.263	4430.27
654.456	4381.12
654.648	4467.13
654.84	4319.68
655.033	4516.28
655.225	4270.53
655.417	4295.1
655.61	4334.01
655.802	4190.66
655.994	4348.35
656.186	4213.18
656.379	4248
656.571	4098.5
656.763	4211.14
656.955	4225.47
657.148	4309.44
657.34	4078.02
657.532	4018.63
657.724	4008.39
657.916	4098.5
658.108	4088.26
658.3	4135.36
658.492	3985.86
658.684	3838.41
658.876	3967.43
659.068	3998.15
659.26	3807.69
659.452	3787.21
659.644	3901.89
659.836	3760.58
660.028	3826.12
660.22	3697.1
660.412	3684.81
660.604	3801.54
660.796	3774.92
660.988	3754.44
661.18	3645.9
661.372	3674.57
661.563	3733.96
661.755	3594.7
661.947	3725.77
662.139	3731.91
662.331	3574.22
662.522	3508.68
662.714	3760.58
662.906	3609.03
663.097	3531.21
663.289	3434.96
663.481	3404.24
663.673	3455.44
663.864	3441.1
664.056	3543.5
664.247	3557.83
664.439	3516.87
664.631	3441.1
664.822	3482.06
665.014	3383.76
665.205	3402.19
665.397	3394
665.588	3303.89
665.78	3330.51
665.971	3453.39
666.163	3396.04
666.354	3322.32
666.546	3254.73
666.737	3406.28
666.929	3248.59
667.12	3299.79
667.311	3312.08
667.503	3273.17
667.694	3355.08
667.885	3256.78
668.077	3252.69
668.268	3264.97
668.459	3244.49
668.651	3199.44
668.842	3125.71
669.033	3211.73
669.224	3105.23
669.416	3140.05
669.607	3129.81
669.798	3162.58
669.989	3201.49
670.18	3099.09
670.371	3193.3
670.563	3189.2
670.754	3293.65
670.945	3219.92
671.136	3019.22
671.327	3142.1
671.518	3123.66
671.709	3092.94
671.9	3195.34
672.091	3148.24
672.282	3076.56
672.473	3004.88
672.664	3094.99
672.855	3031.51
673.046	3056.08
673.237	3140.05
673.428	3094.99
673.619	3047.89
673.809	3082.7
674	3187.15
674.191	3041.75
674.382	3062.23
674.573	3097.04
674.764	3125.71
674.954	3215.82
675.145	2961.87
675.336	3021.27
675.527	3121.62
675.717	3125.71
675.908	3025.36
676.099	3064.27
676.289	2980.31
676.48	3086.8
676.671	3066.32
676.861	3043.79
677.052	3078.61
677.243	2984.4
677.433	2974.16
677.624	3068.37
677.814	3084.75
678.005	3082.7
678.195	3047.89
678.386	3080.66
678.576	3051.99
678.767	2925.01
678.957	3025.36
679.148	3056.08
679.338	3062.23
679.529	3097.04
679.719	2970.07
679.909	3152.34
680.1	3076.56
680.29	3154.38
680.481	3037.65
680.671	3168.72
680.861	3156.43
681.052	3189.2
681.242	3123.66
681.432	3088.85
681.622	3160.53
681.813	3015.12
682.003	3195.34
682.193	3099.09
682.383	3082.7
682.573	3226.06
682.764	3170.77
682.954	3168.72
683.144	3160.53
683.334	3166.67
683.524	3191.25
683.714	3051.99
683.904	3105.23
684.094	3224.01
684.284	3113.42
684.474	3156.43
684.664	3033.55
684.854	3006.93
685.044	3162.58
685.234	3101.14
685.424	3109.33
685.614	3049.94
685.804	3135.95
685.994	3080.66
686.184	3027.41
686.374	3146.19
686.564	3160.53
686.753	2990.55
686.943	2996.69
687.133	3133.9
687.323	2978.26
687.513	3064.27
687.702	3017.17
687.892	2974.16
688.082	2951.63
688.272	3029.46
688.461	2931.16
688.651	2986.45
688.841	2937.3
689.03	2851.28
689.22	2898.39
689.41	2861.52
689.599	2769.37
689.789	2834.9
689.979	2793.94
690.168	2918.87
690.358	2845.14
690.547	2847.19
690.737	2877.91
690.926	2783.7
691.116	2701.78
691.305	2908.63
691.495	2757.08
691.684	2693.59
691.874	2697.69
692.063	2730.45
692.252	2685.4
692.442	2750.93
692.631	2613.72
692.82	2746.84
693.01	2591.19
693.199	2619.86
693.388	2607.58
693.578	2591.19
693.767	2664.92
693.956	2611.67
694.146	2499.03
694.335	2562.52
694.524	2607.58
694.713	2535.9
694.902	2578.9
695.092	2552.28
695.281	2531.8
695.47	2472.41
695.659	2548.19
695.848	2398.68
696.037	2466.27
696.226	2484.7
696.415	2619.86
696.604	2515.42
696.793	2511.32
696.982	2425.31
697.171	2505.18
697.36	2468.31
697.549	2519.51
697.738	2341.34
697.927	2380.25
698.116	2361.82
698.305	2470.36
698.494	2585.05
698.683	2347.48
698.872	2437.59
699.061	2419.16
699.25	2464.22
699.438	2462.17
699.627	2392.54
699.816	2327
700.005	2453.98
700.193	2451.93
700.382	2480.6
700.571	2449.88
700.76	2460.12
700.948	2421.21
701.137	2517.47
701.326	2361.82
701.514	2480.6
701.703	2429.4
701.892	2451.93
702.08	2525.66
702.269	2408.92
702.457	2499.03
702.646	2488.79
702.834	2499.03
703.023	2503.13
703.212	2380.25
703.4	2376.16
703.589	2449.88
703.777	2458.07
703.965	2507.23
704.154	2537.95
704.342	2494.94
704.531	2441.69
704.719	2425.31
704.907	2570.71
705.096	2472.41
705.284	2419.16
705.472	2511.32
705.661	2451.93
705.849	2499.03
706.037	2453.98
706.226	2351.58
706.414	2523.61
706.602	2531.8
706.79	2587.1
706.979	2355.68
707.167	2462.17
707.355	2431.45
707.543	2466.27
707.731	2587.1
707.919	2472.41
708.107	2486.75
708.296	2544.09
708.484	2417.12
708.672	2634.2
708.86	2509.27
709.048	2517.47
709.236	2613.72
709.424	2556.38
709.612	2673.11
709.8	2556.38
709.988	2615.77
710.176	2673.11
710.364	2660.82
710.551	2669.02
710.739	2578.9
710.927	2515.42
711.115	2603.48
711.303	2615.77
711.491	2628.06
711.679	2574.81
711.866	2648.54
712.054	2568.66
712.242	2626.01
712.43	2595.29
712.617	2554.33
712.805	2675.16
712.993	2632.15
713.181	2601.43
713.368	2537.95
713.556	2576.86
713.744	2576.86
713.931	2712.02
714.119	2699.73
714.306	2740.69
714.494	2734.55
714.682	2714.07
714.869	2630.1
715.057	2752.98
715.244	2669.02
715.432	2795.99
715.619	2666.97
715.807	2773.46
715.994	2834.9
716.182	2802.13
716.369	2697.69
716.556	2828.76
716.744	2798.04
716.931	2757.08
717.119	2812.37
717.306	2843.09
717.493	2679.26
717.681	2728.41
717.868	2830.8
718.055	2912.72
718.242	2951.63
718.43	2820.56
718.617	2914.77
718.804	2798.04
718.991	2863.57
719.179	2931.16
719.366	2912.72
719.553	2961.87
719.74	2882
719.927	2888.15
720.114	2982.35
720.301	2851.28
720.488	2767.32
720.676	2922.96
720.863	2929.11
721.05	2927.06
721.237	2994.64
721.424	2875.86
721.611	2951.63
721.798	2941.4
721.985	2980.31
722.172	2974.16
722.358	2877.91
722.545	2972.11
722.732	2875.86
722.919	2980.31
723.106	2976.21
723.293	2978.26
723.48	2984.4
723.667	2982.35
723.853	3025.36
724.04	2951.63
724.227	2963.92
724.414	3011.03
724.6	2976.21
724.787	3064.27
724.974	3135.95
725.161	3033.55
725.347	3127.76
725.534	3015.12
725.72	2976.21
725.907	3019.22
726.094	3146.19
726.28	3008.98
726.467	3000.79
726.653	3017.17
726.84	3150.29
727.027	3172.82
727.213	2976.21
727.4	3152.34
727.586	3189.2
727.773	3127.76
727.959	3066.32
728.145	3160.53
728.332	3215.82
728.518	3238.35
728.705	3203.54
728.891	3045.84
729.077	3226.06
729.264	3248.59
729.45	3221.97
729.636	3140.05
729.823	3170.77
730.009	3291.6
730.195	3224.01
730.382	3230.16
730.568	3248.59
730.754	3101.14
730.94	3256.78
731.126	3142.1
731.313	3367.37
731.499	3269.07
731.685	3195.34
731.871	3240.4
732.057	3228.11
732.243	3283.41
732.429	3213.77
732.615	3312.08
732.801	3205.58
732.987	3310.03
733.173	3256.78
733.359	3295.69
733.545	3291.6
733.731	3326.41
733.917	3412.43
734.103	3389.9
734.289	3336.65
734.475	3242.45
734.661	3346.89
734.847	3299.79
735.033	3301.84
735.219	3400.14
735.404	3291.6
735.59	3314.13
735.776	3267.02
735.962	3371.47
736.148	3391.95
736.333	3398.09
736.519	3312.08
736.705	3369.42
736.89	3350.99
737.076	3414.48
737.262	3381.71
737.447	3369.42
737.633	3350.99
737.819	3297.74
738.004	3273.17
738.19	3377.61
738.375	3238.35
738.561	3336.65
738.747	3287.5
738.932	3320.27
739.118	3391.95
739.303	3365.32
739.489	3363.28
739.674	3357.13
739.859	3260.88
740.045	3277.26
740.23	3181.01
740.416	3234.25
740.601	3211.73
740.786	3244.49
740.972	3264.97
741.157	3340.75
741.342	3320.27
741.528	3289.55
741.713	3176.91
741.898	3183.06
742.084	3150.29
742.269	3285.45
742.454	3336.65
742.639	3250.64
742.824	3174.86
743.01	3203.54
743.195	3287.5
743.38	3238.35
743.565	3219.92
743.75	3166.67
743.935	3039.7
744.12	3144.14
744.305	2974.16
744.49	3119.57
744.675	3178.96
744.86	3074.51
745.045	3017.17
745.23	3203.54
745.415	3006.93
745.6	3002.83
745.785	2986.45
745.97	3047.89
746.155	3166.67
746.34	3027.41
746.525	2791.89
746.71	3072.47
746.895	2927.06
747.079	3013.07
747.264	2968.02
747.449	2978.26
747.634	2980.31
747.819	2847.19
748.003	2791.89
748.188	2834.9
748.373	2877.91
748.557	2890.2
748.742	2761.17
748.927	2896.34
749.111	2781.65
749.296	2648.54
749.481	2824.66
749.665	2712.02
749.85	2650.58
750.034	2687.45
750.219	2675.16
750.404	2605.53
750.588	2634.2
750.773	2621.91
750.957	2566.62
751.141	2546.14
751.326	2644.44
751.51	2492.89
751.695	2517.47
751.879	2492.89
752.064	2613.72
752.248	2562.52
752.432	2554.33
752.617	2556.38
752.801	2490.84
752.985	2462.17
753.17	2380.25
753.354	2429.4
753.538	2443.74
753.722	2363.87
753.907	2400.73
754.091	2251.23
754.275	2353.63
754.459	2374.11
754.643	2296.28
754.828	2324.96
755.012	2343.39
755.196	2261.47
755.38	2216.41
755.564	2175.45
755.748	2107.87
755.932	2191.84
756.116	2253.28
756.3	2159.07
756.484	2079.2
756.668	2134.5
756.852	2103.78
757.036	2089.44
757.22	2015.71
757.404	2103.78
757.588	2040.29
757.772	1974.75
757.956	1984.99
758.14	2105.82
758.323	1911.27
758.507	2007.52
758.691	2011.62
758.875	1956.32
759.059	1991.14
759.242	1815.01
759.426	1927.65
759.61	2025.95
759.794	2005.47
759.977	1898.98
760.161	2023.91
760.345	1894.88
760.528	1872.36
760.712	1917.41
760.895	1710.57
761.079	1796.58
761.263	1780.2
761.446	1833.44
761.63	1765.86
761.813	1765.86
761.997	1735.14
762.18	1812.96
762.364	1767.91
762.547	1673.7
762.731	1724.9
762.914	1702.37
763.098	1741.29
763.281	1688.04
763.464	1604.07
763.648	1681.89
763.831	1651.17
764.015	1585.64
764.198	1583.59
764.381	1552.87
764.564	1683.94
764.748	1737.19
764.931	1679.85
765.114	1606.12
765.297	1759.72
765.481	1628.65
765.664	1679.85
765.847	1649.13
766.03	1528.3
766.213	1462.76
766.397	1593.83
766.58	1489.39
766.763	1714.66
766.946	1434.09
767.129	1483.24
767.312	1563.11
767.495	1532.39
767.678	1436.14
767.861	1614.31
768.044	1522.15
768.227	1538.54
768.41	1475.05
768.593	1487.34
768.776	1448.43
768.959	1487.34
769.142	1546.73
769.324	1423.85
769.507	1475.05
769.69	1436.14
769.873	1386.99
770.056	1542.63
770.239	1370.6
770.421	1464.81
770.604	1403.37
770.787	1335.79
770.97	1276.4
771.152	1425.9
771.335	1249.77
771.518	1319.4
771.7	1272.3
771.883	1401.32
772.066	1249.77
772.248	1288.68
772.431	1378.79
772.613	1253.87
772.796	1274.35
772.978	1346.03
773.161	1360.36
773.343	1282.54
773.526	1272.3
773.708	1253.87
773.891	1178.09
774.073	1098.22
774.256	1178.09
774.438	1253.87
774.621	1282.54
774.803	1184.24
774.985	1102.32
775.168	1133.04
775.35	1120.75
775.532	1141.23
775.715	1237.49
775.897	1087.98
776.079	1051.12
776.261	1149.42
776.444	1163.76
776.626	1237.49
776.808	1122.8
776.99	1073.65
777.173	1130.99
777.355	1075.7
777.537	1030.64
777.719	1038.83
777.901	1102.32
778.083	1057.26
778.265	1026.54
778.447	1032.69
778.629	965.11
778.811	1024.5
778.993	1024.5
779.175	969.2
779.357	1026.54
779.539	909.81
779.721	889.33
779.903	977.39
780.085	1030.64
780.267	961.01
780.449	903.67
780.631	891.38
780.812	985.58
780.994	997.87
781.176	885.23
781.358	905.71
781.54	901.62
781.721	872.95
781.903	899.57
782.085	846.32
782.267	854.51
782.448	803.32
782.63	850.42
782.812	866.8
782.993	858.61
783.175	801.27
783.357	662.01
783.538	829.94
783.72	780.79
783.901	776.69
784.083	766.45
784.264	668.15
784.446	711.16
784.627	670.2
784.809	672.25
784.99	723.44
785.172	717.3
785.353	719.35
785.535	594.42
785.716	662.01
785.897	754.16
786.079	748.02
786.26	670.2
786.441	682.49
786.623	602.61
786.804	705.01
786.985	594.42
787.167	649.72
787.348	707.06
787.529	637.43
787.71	686.58
787.891	725.49
788.073	582.14
788.254	672.25
788.435	627.19
788.616	604.66
788.797	612.85
788.978	575.99
789.159	619
789.34	629.24
789.522	614.9
789.703	565.75
789.884	553.46
790.065	604.66
790.246	619
790.427	492.02
790.607	659.96
790.788	606.71
790.969	514.55
791.15	485.88
791.331	551.42
791.512	592.37
791.693	563.7
791.874	485.88
792.054	569.85
792.235	561.66
792.416	444.92
792.597	473.59
792.778	506.36
792.958	461.3
793.139	444.92
793.32	535.03
793.5	506.36
793.681	461.3
793.862	530.94
794.042	543.22
794.223	455.16
794.404	551.42
794.584	403.96
794.765	496.12
794.945	506.36
795.126	455.16
795.306	446.97
795.487	422.39
795.667	479.74
795.848	422.39
796.028	383.48
796.209	467.45
796.389	461.3
796.57	469.5
796.75	377.34
796.93	479.74
797.111	420.35
797.291	342.52
797.471	344.57
797.652	420.35
797.832	399.87
798.012	508.41
798.192	365.05
798.373	313.85
798.553	340.47
798.733	397.82
798.913	354.81
799.093	451.07
799.274	379.39
799.454	395.77
799.634	385.53
799.814	383.48
799.994	391.67
800.174	373.24
800.354	346.62
800.534	307.71
800.714	375.29
800.894	401.91
801.074	352.76
801.254	414.2
801.434	422.39
801.614	348.67
801.794	344.57
801.974	1069.55
802.154	354.81
802.334	387.58
802.514	373.24
802.693	369.15
802.873	320
803.053	377.34
803.233	320
803.413	262.65
803.592	270.84
803.772	328.19
803.952	350.71
804.131	360.95
804.311	264.7
804.491	352.76
804.67	233.98
804.85	338.43
805.03	354.81
805.209	328.19
805.389	231.93
805.568	320
805.748	317.95
805.928	266.75
806.107	293.37
806.287	320
806.466	250.36
806.646	350.71
806.825	320
807.004	305.66
807.184	299.52
807.363	274.94
807.543	289.28
807.722	256.51
807.901	276.99
808.081	313.85
808.26	158.21
808.439	373.24
808.619	287.23
808.798	252.41
808.977	287.23
809.156	246.27
809.336	313.85
809.515	317.95
809.694	233.98
809.873	276.99
810.052	332.28
810.231	320
810.411	266.75
810.59	352.76
810.769	221.69
810.948	229.88
811.127	211.45
811.306	176.64
811.485	260.6
811.664	301.56
811.843	231.93
812.022	203.26
812.201	221.69
812.38	197.12
812.559	291.32
812.737	283.13
812.916	188.93
813.095	197.12
813.274	254.46
813.453	254.46
813.632	193.02
813.811	330.23
813.989	125.44
814.168	225.79
814.347	131.58
814.526	205.31
814.704	266.75
814.883	281.08
815.062	219.64
815.24	244.22
815.419	197.12
815.598	233.98
815.776	152.06
815.955	190.97
816.133	135.68
816.312	199.16
816.49	231.93
816.669	107.01
816.847	154.11
817.026	227.84
817.204	184.83
817.383	117.25
817.561	242.17
817.74	193.02
817.918	199.16
818.097	184.83
818.275	186.88
818.453	270.84
818.632	186.88
818.81	178.69
818.988	246.27
819.167	242.17
819.345	209.4
819.523	195.07
819.701	195.07
819.879	211.45
820.058	209.4
820.236	164.35
820.414	125.44
820.592	215.55
820.77	147.97
820.948	131.58
821.127	129.53
821.305	154.11
821.483	158.21
821.661	262.65
821.839	135.68
822.017	195.07
822.195	139.77
822.373	186.88
822.551	182.78
822.729	168.45
822.907	143.87
823.085	115.2
823.262	203.26
823.44	168.45
823.618	104.96
823.796	145.92
823.974	133.63
824.152	143.87
824.329	178.69
824.507	117.25
824.685	92.67
824.863	96.77
825.04	139.77
825.218	131.58
825.396	184.83
825.574	125.44
825.751	104.96
825.929	184.83
826.107	207.36
826.284	82.43
826.462	182.78
826.639	94.72
826.817	129.53
826.994	129.53
827.172	74.24
827.349	221.69
827.527	61.95
827.704	168.45
827.882	133.63
828.059	127.49
828.237	195.07
828.414	127.49
828.591	143.87
828.769	135.68
828.946	98.81
829.124	203.26
829.301	88.57
829.478	129.53
829.655	55.81
829.833	98.81
830.01	47.62
830.187	180.73
830.364	98.81
830.542	94.72
830.719	147.97
830.896	143.87
831.073	117.25
831.25	102.91
831.427	113.15
831.604	41.47
831.782	147.97
831.959	82.43
832.136	123.39
832.313	84.48
832.49	92.67
832.667	43.52
832.844	94.72
833.021	129.53
833.198	131.58
833.374	113.15
833.551	113.15
833.728	72.19
833.905	150.01
834.082	43.52
834.259	45.57
834.436	127.49
834.612	72.19
834.789	123.39
834.966	78.33
835.143	55.81
835.319	182.78
835.496	176.64
835.673	41.47
835.85	139.77
836.026	86.53
836.203	135.68
836.38	131.58
836.556	94.72
836.733	16.9
836.909	176.64
837.086	102.91
837.262	61.95
837.439	80.38
837.616	37.38
837.792	31.23
837.968	68.09
838.145	92.67
838.321	59.9
838.498	125.44
838.674	92.67
838.851	29.18
839.027	72.19
839.203	61.95
839.38	152.06
839.556	45.57
839.732	53.76
839.909	37.38
840.085	164.35
840.261	98.81
840.437	37.38
840.614	-7.68
840.79	121.34
840.966	100.86
841.142	88.57
841.318	-3.58
841.494	23.04
841.671	43.52
841.847	64
842.023	104.96
842.199	109.05
842.375	90.62
842.551	31.23
842.727	-11.78
842.903	109.05
843.079	64
843.255	107.01
843.431	41.47
843.607	76.29
843.783	0.51
843.959	43.52
844.134	94.72
844.31	113.15
844.486	109.05
844.662	68.09
844.838	45.57
845.013	55.81
845.189	68.09
845.365	55.81
845.541	25.09
845.716	29.18
845.892	25.09
846.068	41.47
846.244	29.18
846.419	66.05
846.595	72.19
846.77	-7.68
846.946	166.4
847.122	-13.82
847.297	76.29
847.473	180.73
847.648	16.9
847.824	16.9
847.999	-7.68
848.175	4.61
848.35	0.51
848.526	41.47
848.701	-3.58
848.876	14.85
849.052	86.53
849.227	2.56
849.403	-1.54
849.578	59.9
849.753	31.23
849.929	72.19
850.104	41.47
850.279	59.9
850.454	107.01
850.63	160.25
850.805	31.23
850.98	18.94
851.155	61.95
851.33	29.18
851.505	14.85
851.681	25.09
851.856	70.14
852.031	49.66
852.206	14.85
852.381	4.61
852.556	-5.63
852.731	8.7
852.906	41.47
853.081	45.57
853.256	68.09
853.431	29.18
853.606	61.95
853.781	4.61
853.956	20.99
854.131	150.01
854.305	4.61
854.48	70.14
854.655	12.8
854.83	74.24
855.005	55.81
855.18	18.94
855.354	-1.54
855.529	92.67
855.704	23.04
855.879	113.15
856.053	39.42
856.228	45.57
856.403	-32.26
856.577	25.09
856.752	33.28
856.926	18.94
857.101	-32.26
857.276	-30.21
857.45	-9.73
857.625	68.09
857.799	-11.78
857.974	102.91
858.148	-34.3
858.323	76.29
858.497	20.99
858.672	-28.16
858.846	-24.06
859.02	86.53
859.195	-42.5
859.369	78.33
859.543	2.56
859.718	29.18
859.892	25.09
860.066	29.18
860.241	-50.69
860.415	-26.11
860.589	35.33
860.763	35.33
860.938	41.47
861.112	100.86
861.286	35.33
861.46	-48.64
861.634	55.81
861.808	123.39
861.982	45.57
862.157	-28.16
862.331	27.14
862.505	14.85
862.679	-9.73
862.853	8.7
863.027	-19.97
863.201	102.91
863.375	70.14
863.549	80.38
863.722	35.33
863.896	-24.06
864.07	23.04
864.244	47.62
864.418	72.19
864.592	18.94
864.766	-9.73
864.939	74.24
865.113	41.47
865.287	2.56
865.461	2.56
865.634	-1.54
865.808	-19.97
865.982	-46.59
866.156	27.14
866.329	-22.02
866.503	-44.54
866.676	119.29
866.85	-28.16
867.024	2.56
867.197	18.94
867.371	61.95
867.544	-13.82
867.718	-69.12
867.891	-17.92
868.065	-95.74
868.238	31.23
868.412	-7.68
868.585	-19.97
868.759	86.53
868.932	51.71
869.105	14.85
869.279	-81.41
869.452	35.33
869.625	31.23
869.799	-22.02
869.972	-65.02
870.145	-65.02
870.319	16.9
870.492	16.9
870.665	-22.02
870.838	29.18
871.011	-32.26
871.185	6.66
871.358	-19.97
871.531	115.2
871.704	-28.16
871.877	-38.4
872.05	-32.26
872.223	-54.78
872.396	57.86
872.569	23.04
872.742	-5.63
872.915	-40.45
873.088	-34.3
873.261	23.04
873.434	-26.11
873.607	53.76
873.78	64
873.953	-50.69
874.126	-34.3
874.299	-52.74
874.471	18.94
874.644	23.04
874.817	-13.82
874.99	104.96
875.163	41.47
875.335	-3.58
875.508	27.14
875.681	25.09
875.853	-40.45
876.026	41.47
876.199	-50.69
876.371	-9.73
876.544	8.7
876.717	41.47
876.889	-40.45
877.062	23.04
877.234	-56.83
877.407	35.33
877.579	29.18
877.752	49.66
877.924	-46.59
878.097	29.18
878.269	-30.21
878.442	49.66
878.614	-7.68
878.786	-1.54
878.959	55.81
879.131	70.14
879.303	-62.98
879.476	-7.68
879.648	31.23
879.82	35.33
879.993	-7.68
880.165	37.38
880.337	-13.82
880.509	-7.68
880.681	-79.36
880.854	-1.54
881.026	0.51
881.198	51.71
881.37	2.56
881.542	57.86
881.714	-30.21
881.886	-60.93
882.058	14.85
882.23	8.7
882.402	4.61
882.574	6.66
882.746	20.99
882.918	43.52
883.09	41.47
883.262	6.66
883.434	-24.06
883.606	4.61
883.778	-54.78
883.95	14.85
884.122	33.28
884.293	33.28
884.465	49.66
884.637	80.38
884.809	-11.78
884.98	-5.63
885.152	43.52
885.324	25.09
885.496	-54.78
885.667	-42.5
885.839	-38.4
886.011	4.61
886.182	59.9
886.354	-7.68
886.525	-44.54
886.697	-13.82
886.869	4.61
887.04	-5.63
887.212	80.38
887.383	150.01
887.555	-32.26
887.726	-42.5
887.897	-13.82
888.069	-22.02
888.24	29.18
888.412	-17.92
888.583	-58.88
888.754	-26.11
888.926	20.99
889.097	27.14
889.268	-34.3
889.44	6.66
889.611	-58.88
889.782	10.75
889.953	27.14
890.125	-5.63
890.296	-95.74
890.467	-38.4
890.638	10.75
890.809	-24.06
890.98	-73.21
891.151	8.7
891.323	59.9
891.494	33.28
891.665	-24.06
891.836	-13.82
892.007	37.38
892.178	25.09
892.349	-26.11
892.52	-50.69
892.691	53.76
892.862	55.81
893.032	-65.02
893.203	57.86
893.374	-24.06
893.545	74.24
893.716	8.7
893.887	18.94
894.057	8.7
894.228	59.9
894.399	-7.68
894.57	49.66
894.74	-22.02
894.911	-26.11
895.082	-60.93
895.253	-65.02
895.423	-9.73
895.594	102.91
895.764	61.95
895.935	-32.26
896.106	-3.58
896.276	-42.5
896.447	14.85
896.617	8.7
896.788	8.7
896.958	-67.07
897.129	-56.83
897.299	-30.21
897.47	113.15
897.64	18.94
897.81	-54.78
897.981	18.94
898.151	-19.97
898.322	-32.26
898.492	-19.97
898.662	18.94
898.832	37.38
899.003	-36.35
899.173	33.28
899.343	-11.78
899.513	-40.45
