Data from USB4F104151__9__12-23-20-664.txt Node

Date: Fri Mar 14 12:23:20 EDT 2025
User: louis
Spectrometer: USB4F10415
Trigger mode: 4
Integration Time (sec): 3.500000E-2
Scans to average: 1
Electric dark correction enabled: true
Nonlinearity correction enabled: false
Boxcar width: 0
XAxis mode: Wavelengths
Number of Pixels in Spectrum: 3648
>>>>>Begin Spectral Data<<<<<
178.204	-219.47
178.424	-219.47
178.644	-219.47
178.864	-110.93
179.084	-180.56
179.304	-43.35
179.524	-0.34
179.744	9.9
179.964	42.67
180.184	-20.82
180.404	38.57
180.624	-51.54
180.844	30.38
181.064	-26.96
181.283	11.95
181.503	-84.31
181.723	93.87
181.943	-47.44
182.163	128.68
182.383	59.05
182.602	9.9
182.822	22.19
183.042	102.06
183.262	-12.63
183.482	36.52
183.701	-0.34
183.921	20.14
184.141	-12.63
184.361	-14.68
184.58	26.28
184.8	-14.68
185.02	-82.26
185.239	11.95
185.459	7.85
185.679	36.52
185.898	-51.54
186.118	13.99
186.338	-8.53
186.557	38.57
186.777	-4.44
186.997	-4.44
187.216	11.95
187.436	42.67
187.655	16.04
187.875	95.91
188.095	-8.53
188.314	128.68
188.534	30.38
188.753	48.81
188.973	9.9
189.192	38.57
189.412	-43.35
189.631	77.48
189.851	38.57
190.07	30.38
190.29	-67.92
190.509	-24.92
190.729	-35.16
190.948	63.15
191.168	169.64
191.387	104.11
191.607	-8.53
191.826	26.28
192.045	24.23
192.265	34.47
192.484	9.9
192.704	30.38
192.923	-72.02
193.142	46.76
193.362	48.81
193.581	38.57
193.8	40.62
194.02	52.91
194.239	36.52
194.458	32.43
194.678	63.15
194.897	57
195.116	59.05
195.335	61.1
195.555	57
195.774	-41.3
195.993	97.96
196.212	1.71
196.432	7.85
196.651	65.19
196.87	9.9
197.089	145.06
197.308	48.81
197.528	59.05
197.747	-47.44
197.966	-41.3
198.185	71.34
198.404	-16.73
198.623	89.77
198.842	69.29
199.062	106.15
199.281	91.82
199.5	-2.39
199.719	1.71
199.938	34.47
200.157	169.64
200.376	11.95
200.595	61.1
200.814	-39.25
201.033	-35.16
201.252	-20.82
201.471	44.71
201.69	81.58
201.909	89.77
202.128	57
202.347	44.71
202.566	57
202.785	73.39
203.004	16.04
203.223	65.19
203.442	46.76
203.661	42.67
203.879	71.34
204.098	34.47
204.317	-57.68
204.536	71.34
204.755	52.91
204.974	38.57
205.193	-10.58
205.411	81.58
205.63	71.34
205.849	34.47
206.068	50.86
206.287	-6.49
206.505	36.52
206.724	-4.44
206.943	-16.73
207.162	34.47
207.381	20.14
207.599	42.67
207.818	-45.4
208.037	13.99
208.255	24.23
208.474	-20.82
208.693	34.47
208.911	57
209.13	-26.96
209.349	-51.54
209.567	36.52
209.786	104.11
210.005	7.85
210.223	48.81
210.442	-10.58
210.661	73.39
210.879	30.38
211.098	-0.34
211.316	11.95
211.535	134.82
211.753	-29.01
211.972	-4.44
212.191	11.95
212.409	67.24
212.628	9.9
212.846	30.38
213.065	87.72
213.283	16.04
213.502	40.62
213.72	30.38
213.938	-33.11
214.157	32.43
214.375	73.39
214.594	38.57
214.812	9.9
215.031	71.34
215.249	36.52
215.467	-10.58
215.686	38.57
215.904	7.85
216.122	-14.68
216.341	44.71
216.559	48.81
216.778	18.09
216.996	65.19
217.214	26.28
217.432	167.59
217.651	-31.06
217.869	-16.73
218.087	71.34
218.306	-6.49
218.524	5.8
218.742	71.34
218.96	57
219.179	9.9
219.397	-10.58
219.615	79.53
219.833	-10.58
220.051	16.04
220.27	-55.64
220.488	87.72
220.706	20.14
220.924	3.75
221.142	30.38
221.36	52.91
221.578	22.19
221.796	71.34
222.015	-76.12
222.233	59.05
222.451	57
222.669	11.95
222.887	38.57
223.105	89.77
223.323	69.29
223.541	-29.01
223.759	18.09
223.977	38.57
224.195	50.86
224.413	34.47
224.631	-4.44
224.849	36.52
225.067	97.96
225.285	18.09
225.503	-4.44
225.721	-92.5
225.939	50.86
226.157	81.58
226.375	104.11
226.592	50.86
226.81	61.1
227.028	-14.68
227.246	69.29
227.464	36.52
227.682	52.91
227.9	30.38
228.117	73.39
228.335	-37.2
228.553	40.62
228.771	24.23
228.989	24.23
229.206	9.9
229.424	-10.58
229.642	28.33
229.86	-41.3
230.077	48.81
230.295	-10.58
230.513	59.05
230.731	63.15
230.948	63.15
231.166	77.48
231.384	46.76
231.601	61.1
231.819	-16.73
232.037	-18.77
232.254	-33.11
232.472	-39.25
232.689	-49.49
232.907	85.67
233.125	-29.01
233.342	-4.44
233.56	-33.11
233.777	63.15
233.995	30.38
234.213	46.76
234.43	32.43
234.648	71.34
234.865	9.9
235.083	-18.77
235.3	22.19
235.518	28.33
235.735	24.23
235.953	13.99
236.17	26.28
236.388	-26.96
236.605	22.19
236.822	44.71
237.04	13.99
237.257	44.71
237.475	13.99
237.692	22.19
237.909	13.99
238.127	-39.25
238.344	28.33
238.562	11.95
238.779	-18.77
238.996	-14.68
239.214	61.1
239.431	102.06
239.648	5.8
239.865	42.67
240.083	79.53
240.3	40.62
240.517	30.38
240.735	-0.34
240.952	67.24
241.169	42.67
241.386	52.91
241.603	22.19
241.821	-31.06
242.038	34.47
242.255	95.91
242.472	-43.35
242.689	104.11
242.907	69.29
243.124	7.85
243.341	30.38
243.558	38.57
243.775	48.81
243.992	13.99
244.209	52.91
244.426	52.91
244.643	5.8
244.86	63.15
245.078	1.71
245.295	-31.06
245.512	13.99
245.729	-69.97
245.946	22.19
246.163	-16.73
246.38	-2.39
246.597	-102.74
246.814	-43.35
247.031	-37.2
247.248	93.87
247.464	48.81
247.681	1.71
247.898	30.38
248.115	48.81
248.332	52.91
248.549	95.91
248.766	128.68
248.983	97.96
249.2	24.23
249.417	63.15
249.633	9.9
249.85	-37.2
250.067	77.48
250.284	38.57
250.501	83.63
250.717	20.14
250.934	7.85
251.151	-4.44
251.368	-12.63
251.585	-10.58
251.801	28.33
252.018	38.57
252.235	46.76
252.451	5.8
252.668	16.04
252.885	118.44
253.102	-16.73
253.318	-2.39
253.535	-78.16
253.752	-59.73
253.968	-12.63
254.185	-45.4
254.401	18.09
254.618	-26.96
254.835	-41.3
255.051	87.72
255.268	26.28
255.484	75.43
255.701	38.57
255.917	65.19
256.134	24.23
256.351	26.28
256.567	-37.2
256.784	65.19
257	-0.34
257.217	71.34
257.433	36.52
257.65	48.81
257.866	91.82
258.082	-53.59
258.299	-41.3
258.515	11.95
258.732	-26.96
258.948	-10.58
259.165	16.04
259.381	-20.82
259.597	1.71
259.814	30.38
260.03	40.62
260.246	32.43
260.463	38.57
260.679	42.67
260.895	40.62
261.112	-14.68
261.328	38.57
261.544	44.71
261.761	52.91
261.977	34.47
262.193	3.75
262.409	13.99
262.626	38.57
262.842	13.99
263.058	13.99
263.274	26.28
263.49	30.38
263.707	77.48
263.923	3.75
264.139	-80.21
264.355	46.76
264.571	11.95
264.787	-45.4
265.004	93.87
265.22	-4.44
265.436	-49.49
265.652	40.62
265.868	34.47
266.084	20.14
266.3	1.71
266.516	-65.88
266.732	77.48
266.948	-10.58
267.164	18.09
267.38	28.33
267.596	28.33
267.812	77.48
268.028	48.81
268.244	-2.39
268.46	5.8
268.676	-22.87
268.892	3.75
269.108	-6.49
269.324	-59.73
269.54	-33.11
269.756	73.39
269.972	-80.21
270.188	9.9
270.403	-0.34
270.619	77.48
270.835	24.23
271.051	77.48
271.267	63.15
271.483	36.52
271.698	16.04
271.914	87.72
272.13	-53.59
272.346	-2.39
272.562	9.9
272.777	130.73
272.993	-2.39
273.209	79.53
273.425	-41.3
273.64	-29.01
273.856	18.09
274.072	91.82
274.287	42.67
274.503	77.48
274.719	32.43
274.934	52.91
275.15	-55.64
275.366	52.91
275.581	40.62
275.797	18.09
276.012	22.19
276.228	-24.92
276.444	-6.49
276.659	16.04
276.875	18.09
277.09	18.09
277.306	57
277.521	42.67
277.737	32.43
277.952	-26.96
278.168	11.95
278.383	65.19
278.599	65.19
278.814	48.81
279.03	5.8
279.245	24.23
279.461	-26.96
279.676	57
279.892	-20.82
280.107	-69.97
280.322	-18.77
280.538	9.9
280.753	-45.4
280.969	-61.78
281.184	16.04
281.399	83.63
281.615	-76.12
281.83	42.67
282.045	18.09
282.26	44.71
282.476	-8.53
282.691	26.28
282.906	114.34
283.122	36.52
283.337	28.33
283.552	-22.87
283.767	42.67
283.983	67.24
284.198	13.99
284.413	22.19
284.628	16.04
284.843	-12.63
285.058	-35.16
285.274	-10.58
285.489	-10.58
285.704	65.19
285.919	9.9
286.134	5.8
286.349	13.99
286.564	22.19
286.779	75.43
286.995	-20.82
287.21	-67.92
287.425	-16.73
287.64	83.63
287.855	32.43
288.07	-14.68
288.285	34.47
288.5	75.43
288.715	63.15
288.93	13.99
289.145	-10.58
289.36	42.67
289.575	50.86
289.79	110.25
290.004	9.9
290.219	34.47
290.434	-41.3
290.649	71.34
290.864	28.33
291.079	48.81
291.294	-37.2
291.509	-18.77
291.724	106.15
291.938	71.34
292.153	104.11
292.368	-35.16
292.583	-26.96
292.798	-20.82
293.012	22.19
293.227	61.1
293.442	7.85
293.657	48.81
293.871	11.95
294.086	24.23
294.301	87.72
294.516	32.43
294.73	73.39
294.945	24.23
295.16	18.09
295.374	48.81
295.589	36.52
295.804	-12.63
296.018	7.85
296.233	9.9
296.447	40.62
296.662	11.95
296.877	65.19
297.091	54.95
297.306	34.47
297.52	5.8
297.735	50.86
297.949	-12.63
298.164	-12.63
298.378	-18.77
298.593	24.23
298.807	-43.35
299.022	50.86
299.236	26.28
299.451	26.28
299.665	24.23
299.88	-2.39
300.094	-49.49
300.309	-6.49
300.523	22.19
300.737	5.8
300.952	-16.73
301.166	5.8
301.381	-33.11
301.595	24.23
301.809	16.04
302.024	69.29
302.238	-59.73
302.452	38.57
302.667	48.81
302.881	138.92
303.095	9.9
303.309	-67.92
303.524	-20.82
303.738	-4.44
303.952	-31.06
304.166	-6.49
304.381	57
304.595	67.24
304.809	-4.44
305.023	26.28
305.237	-12.63
305.452	20.14
305.666	-4.44
305.88	57
306.094	44.71
306.308	46.76
306.522	48.81
306.736	13.99
306.95	61.1
307.164	-22.87
307.379	11.95
307.593	40.62
307.807	-24.92
308.021	-18.77
308.235	-4.44
308.449	-45.4
308.663	-33.11
308.877	151.21
309.091	-22.87
309.305	108.2
309.519	-53.59
309.733	100.01
309.947	-10.58
310.161	22.19
310.374	11.95
310.588	73.39
310.802	-45.4
311.016	11.95
311.23	-2.39
311.444	-72.02
311.658	20.14
311.872	48.81
312.085	42.67
312.299	44.71
312.513	67.24
312.727	54.95
312.941	-31.06
313.154	57
313.368	48.81
313.582	38.57
313.796	-45.4
314.009	-12.63
314.223	54.95
314.437	-0.34
314.651	73.39
314.864	-41.3
315.078	34.47
315.292	3.75
315.505	34.47
315.719	73.39
315.933	11.95
316.146	7.85
316.36	5.8
316.573	20.14
316.787	24.23
317.001	34.47
317.214	-14.68
317.428	24.23
317.641	75.43
317.855	28.33
318.068	-0.34
318.282	13.99
318.495	32.43
318.709	11.95
318.922	13.99
319.136	50.86
319.349	42.67
319.563	-10.58
319.776	-22.87
319.99	9.9
320.203	50.86
320.417	69.29
320.63	46.76
320.843	83.63
321.057	-69.97
321.27	-18.77
321.483	34.47
321.697	83.63
321.91	73.39
322.124	85.67
322.337	-18.77
322.55	-24.92
322.763	-12.63
322.977	81.58
323.19	57
323.403	-12.63
323.617	61.1
323.83	44.71
324.043	-41.3
324.256	-49.49
324.469	26.28
324.683	38.57
324.896	38.57
325.109	69.29
325.322	-18.77
325.535	22.19
325.748	67.24
325.962	-80.21
326.175	61.1
326.388	40.62
326.601	28.33
326.814	13.99
327.027	28.33
327.24	65.19
327.453	-2.39
327.666	5.8
327.879	100.01
328.092	11.95
328.305	44.71
328.518	5.8
328.731	-6.49
328.944	34.47
329.157	54.95
329.37	69.29
329.583	77.48
329.796	102.06
330.009	-82.26
330.222	61.1
330.435	30.38
330.648	-2.39
330.861	16.04
331.073	54.95
331.286	77.48
331.499	57
331.712	5.8
331.925	63.15
332.138	28.33
332.35	67.24
332.563	30.38
332.776	54.95
332.989	54.95
333.202	48.81
333.414	3.75
333.627	11.95
333.84	-49.49
334.053	3.75
334.265	85.67
334.478	11.95
334.691	38.57
334.903	13.99
335.116	16.04
335.329	48.81
335.541	11.95
335.754	65.19
335.966	-22.87
336.179	3.75
336.392	9.9
336.604	18.09
336.817	24.23
337.029	-12.63
337.242	18.09
337.454	-8.53
337.667	52.91
337.88	46.76
338.092	13.99
338.305	69.29
338.517	-0.34
338.729	69.29
338.942	46.76
339.154	-45.4
339.367	-43.35
339.579	11.95
339.792	-12.63
340.004	-26.96
340.217	-0.34
340.429	69.29
340.641	20.14
340.854	9.9
341.066	42.67
341.278	65.19
341.491	120.49
341.703	44.71
341.915	-47.44
342.128	52.91
342.34	91.82
342.552	36.52
342.764	59.05
342.977	-45.4
343.189	112.3
343.401	89.77
343.613	-59.73
343.826	-4.44
344.038	-65.88
344.25	-55.64
344.462	-47.44
344.674	-0.34
344.886	1.71
345.099	-57.68
345.311	69.29
345.523	9.9
345.735	-22.87
345.947	-8.53
346.159	16.04
346.371	71.34
346.583	18.09
346.795	132.78
347.007	5.8
347.219	36.52
347.431	30.38
347.643	40.62
347.855	40.62
348.067	89.77
348.279	5.8
348.491	97.96
348.703	-33.11
348.915	16.04
349.127	-4.44
349.339	59.05
349.551	-41.3
349.763	59.05
349.975	24.23
350.187	36.52
350.399	42.67
350.61	3.75
350.822	18.09
351.034	32.43
351.246	106.15
351.458	79.53
351.669	11.95
351.881	38.57
352.093	40.62
352.305	87.72
352.517	38.57
352.728	59.05
352.94	61.1
353.152	73.39
353.363	-10.58
353.575	24.23
353.787	50.86
353.999	95.91
354.21	89.77
354.422	-18.77
354.633	-14.68
354.845	32.43
355.057	97.96
355.268	26.28
355.48	87.72
355.692	-24.92
355.903	-35.16
356.115	52.91
356.326	22.19
356.538	93.87
356.749	24.23
356.961	75.43
357.172	85.67
357.384	18.09
357.595	73.39
357.807	11.95
358.018	22.19
358.23	40.62
358.441	20.14
358.653	116.39
358.864	-6.49
359.075	3.75
359.287	38.57
359.498	79.53
359.709	1.71
359.921	69.29
360.132	120.49
360.344	34.47
360.555	22.19
360.766	9.9
360.977	26.28
361.189	42.67
361.4	18.09
361.611	59.05
361.823	57
362.034	79.53
362.245	-20.82
362.456	42.67
362.667	54.95
362.879	-39.25
363.09	-8.53
363.301	3.75
363.512	-26.96
363.723	-26.96
363.935	-14.68
364.146	11.95
364.357	-33.11
364.568	83.63
364.779	20.14
364.99	85.67
365.201	-0.34
365.412	97.96
365.623	-35.16
365.834	83.63
366.045	38.57
366.256	18.09
366.467	102.06
366.678	77.48
366.889	42.67
367.1	-2.39
367.311	81.58
367.522	50.86
367.733	-16.73
367.944	77.48
368.155	30.38
368.366	65.19
368.577	59.05
368.788	69.29
368.999	-18.77
369.209	-12.63
369.42	71.34
369.631	116.39
369.842	57
370.053	26.28
370.264	36.52
370.474	26.28
370.685	75.43
370.896	7.85
371.107	1.71
371.317	124.58
371.528	28.33
371.739	83.63
371.95	-37.2
372.16	18.09
372.371	-10.58
372.582	-4.44
372.792	69.29
373.003	59.05
373.214	106.15
373.424	5.8
373.635	-63.83
373.846	81.58
374.056	40.62
374.267	30.38
374.477	50.86
374.688	18.09
374.898	-16.73
375.109	93.87
375.319	30.38
375.53	38.57
375.74	69.29
375.951	-8.53
376.161	91.82
376.372	93.87
376.582	18.09
376.793	-37.2
377.003	26.28
377.214	-110.93
377.424	42.67
377.635	18.09
377.845	-20.82
378.055	54.95
378.266	26.28
378.476	50.86
378.686	-31.06
378.897	50.86
379.107	93.87
379.317	-4.44
379.528	30.38
379.738	36.52
379.948	-10.58
380.158	20.14
380.369	26.28
380.579	175.78
380.789	7.85
380.999	71.34
381.21	42.67
381.42	50.86
381.63	40.62
381.84	5.8
382.05	7.85
382.261	57
382.471	81.58
382.681	38.57
382.891	38.57
383.101	34.47
383.311	-37.2
383.521	-8.53
383.731	89.77
383.941	100.01
384.151	83.63
384.361	18.09
384.571	59.05
384.781	36.52
384.991	93.87
385.201	147.11
385.411	71.34
385.621	93.87
385.831	36.52
386.041	69.29
386.251	54.95
386.461	106.15
386.671	67.24
386.881	16.04
387.091	83.63
387.301	48.81
387.511	-12.63
387.72	87.72
387.93	69.29
388.14	67.24
388.35	32.43
388.56	59.05
388.769	46.76
388.979	93.87
389.189	48.81
389.399	63.15
389.609	122.54
389.818	102.06
390.028	81.58
390.238	9.9
390.447	-37.2
390.657	28.33
390.867	3.75
391.076	9.9
391.286	22.19
391.496	20.14
391.705	-49.49
391.915	61.1
392.125	50.86
392.334	77.48
392.544	22.19
392.753	108.2
392.963	-2.39
393.172	28.33
393.382	57
393.591	112.3
393.801	-6.49
394.01	134.82
394.22	67.24
394.429	13.99
394.639	44.71
394.848	42.67
395.058	87.72
395.267	67.24
395.477	130.73
395.686	50.86
395.895	87.72
396.105	177.83
396.314	100.01
396.524	40.62
396.733	128.68
396.942	87.72
397.152	77.48
397.361	153.26
397.57	18.09
397.78	61.1
397.989	87.72
398.198	192.17
398.407	122.54
398.617	93.87
398.826	173.74
399.035	-4.44
399.244	102.06
399.453	83.63
399.663	38.57
399.872	93.87
400.081	97.96
400.29	159.4
400.499	81.58
400.708	104.11
400.917	95.91
401.127	9.9
401.336	11.95
401.545	73.39
401.754	130.73
401.963	48.81
402.172	79.53
402.381	46.76
402.59	91.82
402.799	20.14
403.008	57
403.217	108.2
403.426	122.54
403.635	97.96
403.844	114.34
404.053	120.49
404.262	175.78
404.471	169.64
404.68	102.06
404.888	59.05
405.097	114.34
405.306	32.43
405.515	114.34
405.724	116.39
405.933	200.36
406.142	167.59
406.35	155.3
406.559	130.73
406.768	177.83
406.977	206.5
407.185	145.06
407.394	136.87
407.603	75.43
407.812	128.68
408.02	208.55
408.229	167.59
408.438	67.24
408.646	134.82
408.855	173.74
409.064	130.73
409.272	143.02
409.481	243.37
409.69	161.45
409.898	151.21
410.107	231.08
410.315	214.7
410.524	257.7
410.733	175.78
410.941	259.75
411.15	214.7
411.358	212.65
411.567	300.71
411.775	220.84
411.984	269.99
412.192	327.33
412.401	310.95
412.609	358.05
412.818	345.77
413.026	341.67
413.234	353.96
413.443	396.96
413.651	370.34
413.86	423.59
414.068	392.87
414.276	460.45
414.485	415.4
414.693	507.55
414.901	511.65
415.11	384.68
415.318	489.12
415.526	511.65
415.734	538.27
415.943	607.91
416.151	546.47
416.359	544.42
416.567	585.38
416.776	632.48
416.984	681.63
417.192	734.88
417.4	630.43
417.608	673.44
417.817	784.03
418.025	691.87
418.233	802.46
418.441	759.46
418.649	868
418.857	857.76
419.065	958.11
419.273	937.63
419.481	917.15
419.689	1013.4
419.897	1080.99
420.105	1062.55
420.313	1056.41
420.521	1173.14
420.729	1150.62
420.937	1117.85
421.145	1095.32
421.353	1361.56
421.561	1312.41
421.769	1345.17
421.977	1404.57
422.185	1408.66
422.393	1580.69
422.601	1713.81
422.809	1537.68
423.017	1582.74
423.224	1732.24
423.432	1654.42
423.64	1754.77
423.848	1928.85
424.056	1889.93
424.263	2008.72
424.471	2051.72
424.679	2066.06
424.887	2277
425.094	2291.34
425.302	2158.22
425.51	2283.14
425.718	2270.86
425.925	2352.77
426.133	2436.74
426.341	2578.05
426.548	2764.42
426.756	2668.16
426.964	2823.81
427.171	2928.25
427.379	2958.97
427.586	3088
427.794	3122.81
428.001	3266.17
428.209	3387
428.417	3307.13
428.624	3661.43
428.832	3567.22
429.039	3702.39
429.247	3565.17
429.454	3925.61
429.662	4064.88
429.869	3870.32
430.076	4341.35
430.284	4138.6
430.491	4263.53
430.699	4580.96
430.906	4556.39
431.114	4613.73
431.321	4712.03
431.528	4796
431.736	5144.16
431.943	5557.85
432.15	5160.54
432.358	5156.44
432.565	5559.89
432.772	5480.02
432.979	5912.14
433.187	5914.19
433.394	5893.71
433.601	6481.48
433.808	6542.92
434.016	6534.73
434.223	6698.56
434.43	6962.75
434.637	6870.59
434.844	7435.83
435.052	7568.95
435.259	7435.83
435.466	7536.18
435.673	7575.1
435.88	8039.98
436.087	8416.81
436.294	8255.02
436.501	8097.33
436.708	8375.85
436.915	8707.62
437.122	8932.9
437.329	9027.1
437.537	9262.62
437.743	9453.08
437.95	9348.64
438.157	9868.82
438.364	10335.76
438.571	10180.11
438.778	10059.28
438.985	11206.14
439.192	10704.39
439.399	11238.91
439.606	10786.31
439.813	11517.43
440.02	12266.99
440.227	11787.77
440.433	11744.76
440.64	12230.13
440.847	12242.42
441.054	12430.83
441.261	13305.31
441.467	13202.91
441.674	13305.31
441.881	13850.07
442.088	13841.88
442.294	13698.52
442.501	14237.14
442.708	14384.59
442.914	14947.78
443.121	15459.77
443.328	15046.09
443.534	16235.95
443.741	15777.21
443.948	15732.15
444.154	16903.59
444.361	16766.38
444.568	16903.59
444.774	16977.32
444.981	16666.03
445.187	17679.77
445.394	18261.4
445.6	17958.3
445.807	19627.39
446.013	19062.15
446.22	19408.26
446.426	19971.45
446.633	20284.79
446.839	21126.5
447.046	20323.7
447.252	21210.47
447.459	21083.5
447.665	21110.12
447.871	22029.66
448.078	22975.82
448.284	21898.59
448.491	22584.66
448.697	23461.19
448.903	23844.16
449.11	23792.96
449.316	23305.54
449.522	24325.43
449.728	24587.57
449.935	25220.39
450.141	24737.07
450.347	25330.98
450.553	24968.49
450.76	25054.51
450.966	25818.4
451.172	25414.95
451.378	26160.41
451.584	25525.54
451.791	26180.89
451.997	26191.13
452.203	26512.66
452.409	26664.21
452.615	26254.62
452.821	25302.31
453.027	24952.11
453.233	26334.49
453.44	25281.83
453.646	25433.38
453.852	25924.9
454.058	26221.85
454.264	25285.93
454.47	25896.22
454.676	25242.92
454.882	26141.98
455.088	23606.59
455.294	23936.32
455.5	24653.11
455.705	25023.79
455.911	23797.06
456.117	23211.34
456.323	22832.46
456.529	21980.51
456.735	22668.62
456.941	21804.38
457.147	21874.01
457.352	21026.15
457.558	20960.62
457.764	20934
457.97	20471.15
458.176	19979.64
458.381	19805.56
458.587	19123.59
458.793	19187.08
458.999	17993.11
459.204	19182.98
459.41	18836.88
459.616	17380.77
459.821	17624.48
460.027	17464.74
460.233	17184.16
460.438	16178.61
460.644	16262.58
460.85	15803.83
461.055	15373.76
461.261	15568.32
461.466	14456.27
461.672	14040.53
461.878	14800.33
462.083	13663.71
462.289	13698.52
462.494	13469.15
462.7	12799.46
462.905	12467.69
463.111	12881.38
463.316	12824.04
463.522	12641.77
463.727	12819.94
463.932	12561.9
464.138	12510.7
464.343	12727.78
464.549	12266.99
464.754	12742.12
464.959	12586.47
465.165	12428.78
465.37	12111.35
465.575	11628.03
465.781	11955.7
465.986	12115.44
466.191	11646.46
466.397	11423.23
466.602	11011.59
466.807	11281.92
467.012	11351.55
467.218	11232.77
467.423	11056.64
467.628	11269.63
467.833	11632.12
468.038	10937.86
468.244	10907.14
468.449	11265.53
468.654	11140.61
468.859	10812.93
469.064	10749.45
469.269	10382.86
469.474	10438.16
469.679	10645
469.885	10425.87
470.09	10491.4
470.295	10485.26
470.5	10425.87
470.705	10255.89
470.91	9987.6
471.115	9793.05
471.32	10071.57
471.525	9936.4
471.73	9653.78
471.935	9672.22
472.139	9657.88
472.344	9399.84
472.549	9563.67
472.754	9369.12
472.959	9172.51
473.164	9074.21
473.369	8898.08
473.574	9401.88
473.778	8955.43
473.983	9070.11
474.188	8904.23
474.393	8498.73
474.598	8783.4
474.802	8492.59
475.007	8400.43
475.212	8449.58
475.417	8173.1
475.621	8201.77
475.826	8162.86
476.031	7994.93
476.235	7867.95
476.44	7996.98
476.645	7753.27
476.849	7968.31
477.054	7499.32
477.259	7687.73
477.463	7603.77
477.668	7376.44
477.872	7536.18
478.077	7327.29
478.282	7173.69
478.486	7212.6
478.691	7050.82
478.895	7296.57
479.1	7079.49
479.304	7181.89
479.509	6817.35
479.713	6977.09
479.918	6854.21
480.122	6583.88
480.326	6811.2
480.531	6757.96
480.735	6835.78
480.94	6727.24
481.144	6975.04
481.348	6417.99
481.553	6753.86
481.757	6463.05
481.961	6637.13
482.166	6733.38
482.37	6420.04
482.574	6555.21
482.778	6782.53
482.983	6714.95
483.187	6520.39
483.391	6510.15
483.595	6481.48
483.8	6489.67
484.004	6477.38
484.208	6542.92
484.412	6530.63
484.616	6495.82
484.821	6559.3
485.025	6616.65
485.229	6532.68
485.433	6514.25
485.637	6630.98
485.841	6567.49
486.045	6514.25
486.249	6461
486.453	6436.42
486.657	6424.14
486.861	6581.83
487.065	6372.94
487.269	6643.27
487.473	6446.66
487.677	6577.73
487.881	6704.71
488.085	6436.42
488.289	6598.21
488.493	6610.5
488.697	6663.75
488.901	6850.11
489.105	6547.01
489.309	6719.04
489.512	6594.12
489.716	6542.92
489.92	6485.58
490.124	6559.3
490.328	6737.48
490.531	6698.56
490.735	6854.21
490.939	6876.74
491.143	6735.43
491.346	6778.44
491.55	6782.53
491.754	6729.28
491.958	6850.11
492.161	6860.35
492.365	7016
492.569	6936.13
492.772	7034.43
492.976	7163.45
493.18	6966.85
493.383	7149.12
493.587	6991.42
493.79	7196.22
493.994	7290.43
494.197	7134.78
494.401	7194.17
494.605	7308.86
494.808	7298.62
495.012	7368.25
495.215	7439.93
495.419	7511.61
495.622	7458.36
495.825	7609.91
496.029	7652.92
496.232	7929.39
496.436	7781.94
496.639	8107.57
496.843	7829.04
497.046	8078.9
497.249	8416.81
497.453	8140.33
497.656	8369.71
497.859	8310.32
498.063	8607.27
498.266	8551.98
498.469	8695.33
498.673	8707.62
498.876	8738.34
499.079	8844.84
499.282	8883.75
499.485	9080.35
499.689	9248.29
499.892	9195.04
500.095	9506.33
500.298	9704.98
500.501	9397.79
500.705	9711.13
500.908	9731.61
501.111	9952.79
501.314	10016.27
501.517	10341.9
501.72	10262.03
501.923	10280.46
502.126	10634.76
502.329	10776.07
502.532	10702.34
502.735	10792.45
502.938	11107.84
503.141	11083.27
503.344	11306.49
503.547	11109.89
503.75	11386.36
503.953	11593.21
504.156	11703.8
504.359	11750.9
504.562	11982.32
504.765	12154.35
504.968	12391.92
505.17	12465.64
505.373	12400.11
505.576	12926.44
505.779	12875.24
505.982	12979.68
506.185	13333.98
506.387	13272.54
506.59	13467.1
506.793	13565.4
506.996	13802.97
507.198	14255.57
507.401	14204.37
507.604	14403.02
507.807	14282.19
508.009	14429.65
508.212	14788.04
508.415	14945.73
508.617	15089.09
508.82	15218.11
509.022	15242.69
509.225	15713.72
509.428	15484.35
509.63	15668.67
509.833	15912.38
510.035	16213.43
510.238	16141.75
510.44	16494
510.643	16520.62
510.845	16919.98
511.048	16874.92
511.25	17477.02
511.453	17343.91
511.655	17788.32
511.858	17919.39
512.06	18081.17
512.262	18183.57
512.465	18267.54
512.667	18554.26
512.87	18685.33
513.072	18988.42
513.274	19299.72
513.477	19711.36
513.679	19955.07
513.881	19471.75
514.084	20215.16
514.286	20241.78
514.488	20180.34
514.69	21151.08
514.893	21138.79
515.095	20927.85
515.297	21474.66
515.499	21327.21
515.701	21943.64
515.904	22064.47
516.106	22263.13
516.308	22682.96
516.51	22682.96
516.712	22805.84
516.914	23164.23
517.116	23559.49
517.318	23506.24
517.52	23870.78
517.722	23909.69
517.925	24567.09
518.127	24417.59
518.329	24917.29
518.531	24669.49
518.733	25255.21
518.935	25728.29
519.136	25765.15
519.338	26019.1
519.54	25920.8
519.742	26424.6
519.944	26608.92
520.146	26993.93
520.348	27432.2
520.55	27448.58
520.752	27706.63
520.954	28071.17
521.155	27968.77
521.357	28337.4
521.559	28568.82
521.761	29086.96
521.963	28902.64
522.164	29170.93
522.366	29605.09
522.568	29768.93
522.77	30018.78
522.971	30158.05
523.173	30469.34
523.375	30686.42
523.576	30577.88
523.778	30655.7
523.98	31530.19
524.181	31198.41
524.383	31591.62
524.584	32357.56
524.786	32150.72
524.988	32320.7
525.189	32584.89
525.391	32789.69
525.592	32847.03
525.794	33037.49
525.995	33299.63
526.197	33158.32
526.398	33500.33
526.6	33731.75
526.801	33973.41
527.003	33828.01
527.204	34307.23
527.406	34323.61
527.607	34606.23
527.808	34868.37
528.01	34385.05
528.211	34841.75
528.412	35527.82
528.614	34884.76
528.815	35632.27
529.016	35806.34
529.218	35159.19
529.419	35413.13
529.62	35722.38
529.822	35587.21
530.023	35966.09
530.224	36441.21
530.425	36174.98
530.626	35818.63
530.828	35845.26
531.029	36723.83
531.23	36082.82
531.431	36662.4
531.632	36660.35
531.833	36670.59
532.035	36703.35
532.236	36746.36
532.437	37215.35
532.638	37045.37
532.839	37254.26
533.04	37024.89
533.241	36486.27
533.442	37373.04
533.643	37256.31
533.844	36871.29
534.045	37389.42
534.246	36990.07
534.447	37268.59
534.648	37254.26
534.849	37352.56
535.05	37139.57
535.251	37622.89
535.451	37272.69
535.652	37799.02
535.853	37506.16
536.054	37837.93
536.255	37665.9
536.456	37284.98
536.657	37565.55
536.857	37575.79
537.058	37608.56
537.259	37801.07
537.46	37547.12
537.66	37373.04
537.861	37629.04
538.062	37512.3
538.263	37717.1
538.463	37561.45
538.664	37606.51
538.865	38104.17
539.065	37854.31
539.266	37467.25
539.466	37887.08
539.667	37608.56
539.868	38048.87
540.068	37897.32
540.269	37616.75
540.469	37948.52
540.67	37231.73
540.87	37481.58
541.071	37481.58
541.271	37756.01
541.472	37561.45
541.672	37786.73
541.873	37645.42
542.073	37014.65
542.274	38147.17
542.474	37241.97
542.675	37616.75
542.875	38077.54
543.075	37612.65
543.276	37319.79
543.476	37731.43
543.676	37667.95
543.877	38104.17
544.077	37665.9
544.277	37502.06
544.478	37366.9
544.678	37540.97
544.878	37127.28
545.078	37682.28
545.279	37178.48
545.479	37512.3
545.679	37700.72
545.879	37782.63
546.079	37799.02
546.28	37506.16
546.48	37293.17
546.68	37592.17
546.88	37735.53
547.08	37655.66
547.28	37391.47
547.48	37117.04
547.68	37352.56
547.88	37254.26
548.081	37264.5
548.281	37235.83
548.481	37297.27
548.681	37749.87
548.881	37569.65
549.081	37409.9
549.28	37393.52
549.48	37557.36
549.68	37082.23
549.88	37991.53
550.08	37024.89
550.28	37377.14
550.48	37551.21
550.68	37858.41
550.88	37438.58
551.08	37127.28
551.279	37368.94
551.479	36822.14
551.679	37354.61
551.879	37356.66
552.079	37076.08
552.278	37289.07
552.478	37045.37
552.678	37493.87
552.878	37887.08
553.077	37274.74
553.277	37215.35
553.477	37549.17
553.676	37282.93
553.876	37250.16
554.076	37088.37
554.275	36916.34
554.475	36760.7
554.674	37104.76
554.874	37207.15
555.074	36830.33
555.273	36680.83
555.473	36895.86
555.672	36670.59
555.872	36299.9
556.071	36770.94
556.271	36732.03
556.47	36428.93
556.67	36433.02
556.869	36615.29
557.068	36271.23
557.268	36215.94
557.467	36471.93
557.667	36543.61
557.866	36148.36
558.065	35972.23
558.265	35970.18
558.464	36041.86
558.663	36215.94
558.863	35450
559.062	36461.69
559.261	35292.3
559.461	36056.2
559.66	35703.95
559.859	35300.5
560.058	35210.39
560.258	35691.66
560.457	35097.75
560.656	35654.79
560.855	35179.67
561.054	35546.25
561.253	35042.45
561.453	35077.27
561.652	35189.91
561.851	35167.38
562.05	34843.8
562.249	34718.87
562.448	35103.89
562.647	34753.69
562.846	34655.39
563.045	34694.3
563.244	34311.33
563.443	35005.59
563.642	34071.71
563.841	34409.63
564.04	33748.14
564.239	34458.78
564.438	33987.75
564.637	34094.24
564.836	33963.17
565.035	33785
565.234	33676.46
565.432	33264.82
565.631	33823.91
565.83	33809.57
566.029	33074.35
566.228	33279.15
566.427	32853.17
566.625	32775.35
566.824	32433.34
567.023	33107.12
567.222	32423.1
567.42	32740.54
567.619	32750.77
567.818	32330.94
568.016	32609.47
568.215	32357.56
568.414	31804.61
568.612	32025.79
568.811	31628.49
569.01	32068.8
569.208	31450.31
569.407	31878.34
569.605	30932.18
569.804	31347.92
570.002	31149.26
570.201	31212.75
570.4	31208.65
570.598	30821.59
570.797	30422.23
570.995	30942.42
571.193	30479.58
571.392	30835.92
571.59	30723.29
571.789	30254.3
571.987	30133.47
572.186	30395.61
572.384	30016.74
572.582	30190.81
572.781	30053.6
572.979	29545.7
573.177	29498.6
573.376	29713.64
573.574	29324.52
573.772	29547.75
573.971	29191.41
574.169	29070.58
574.367	28830.96
574.565	29181.17
574.763	28894.45
574.962	28605.69
575.16	28548.34
575.358	28867.83
575.556	28046.59
575.754	28591.35
575.952	28024.06
576.151	28187.9
576.349	27843.84
576.547	27835.65
576.745	28081.41
576.943	27995.39
577.141	27727.11
577.339	27585.8
577.537	27405.58
577.735	27405.58
577.933	27481.35
578.131	27311.37
578.329	27213.07
578.527	26983.69
578.725	27045.13
578.923	27276.55
579.121	26887.44
579.319	27047.18
579.516	26787.09
579.714	27022.61
579.912	26752.27
580.11	26397.98
580.308	26299.67
580.506	26774.8
580.704	25908.51
580.901	25963.81
581.099	26273.05
581.297	25744.67
581.495	25769.25
581.692	25812.26
581.89	25578.79
582.088	25826.59
582.285	25687.33
582.483	25568.55
582.681	25732.39
582.878	25398.57
583.076	25193.77
583.274	25269.55
583.471	25054.51
583.669	25312.55
583.866	24732.98
584.064	24980.78
584.262	24730.93
584.459	24847.66
584.657	24448.31
584.854	24587.57
585.052	24198.46
585.249	24581.43
585.447	24374.58
585.644	24042.81
585.841	24128.83
586.039	24399.16
586.236	23766.34
586.434	23588.16
586.631	23672.13
586.828	23579.97
587.026	23874.88
587.223	23366.98
587.42	23465.28
587.618	23813.44
587.815	23117.13
588.012	23121.23
588.21	22957.39
588.407	23293.26
588.604	23092.55
588.801	23123.27
588.999	22898
589.196	23002.44
589.393	22695.25
589.59	22437.2
589.787	22533.46
589.984	22691.15
590.182	22334.81
590.379	22721.87
590.576	22181.21
590.773	22353.24
590.97	22115.67
591.167	22416.72
591.364	22218.07
591.561	22072.67
591.758	21734.75
591.955	21736.8
592.152	22259.03
592.349	21679.46
592.546	21491.04
592.743	21349.73
592.94	21302.63
593.137	21556.58
593.334	21536.1
593.531	21206.38
593.727	21435.75
593.924	21527.91
594.121	21175.66
594.318	21251.43
594.515	20977
594.712	21132.65
594.908	21058.92
595.105	21161.32
595.302	20796.78
595.499	20794.73
595.696	20774.25
595.892	20540.79
596.089	20749.68
596.286	20678
596.482	20350.32
596.679	20411.76
596.876	20546.93
597.072	20213.11
597.269	20374.9
597.466	19723.65
597.662	20079.99
597.859	19940.73
598.055	19832.19
598.252	19688.83
598.448	19844.48
598.645	19760.51
598.841	19617.15
599.038	19531.14
599.234	19600.77
599.431	19522.94
599.627	19201.41
599.824	19484.03
600.02	19156.36
600.217	19082.63
600.413	19258.76
600.609	18957.71
600.806	19201.41
601.002	18765.2
601.198	18863.5
601.395	18800.01
601.591	18689.42
601.787	18726.28
601.984	18515.34
602.18	18664.85
602.376	18476.43
602.572	18480.53
602.769	18165.14
602.965	18269.59
603.161	18296.21
603.357	18113.94
603.553	18224.53
603.75	18269.59
603.946	17823.13
604.142	17960.34
604.338	17825.18
604.534	18011.54
604.73	17683.87
604.926	17761.69
605.122	17747.36
605.318	17636.77
605.514	17538.46
605.71	17769.88
605.906	17259.94
606.102	17360.29
606.298	17413.54
606.494	17237.41
606.69	17356.19
606.886	17118.63
607.082	16950.7
607.278	17382.82
607.474	16905.64
607.67	17059.24
607.866	17020.33
608.062	17046.95
608.257	16889.26
608.453	16698.8
608.649	16598.45
608.845	16569.77
609.041	16795.05
609.236	16819.63
609.432	16457.14
609.628	16655.79
609.824	16571.82
610.019	16352.69
610.215	16524.72
610.411	16428.46
610.606	16350.64
610.802	16440.75
610.998	16268.72
611.193	16111.03
611.389	16082.36
611.584	16164.28
611.78	16004.53
611.976	15818.17
612.171	16168.37
612.367	16006.58
612.562	15766.97
612.758	15879.61
612.953	15904.18
613.149	15994.29
613.344	15799.74
613.539	15990.2
613.735	15738.3
613.93	15766.97
614.126	15359.42
614.321	15551.93
614.517	15308.23
614.712	15396.29
614.907	15513.02
615.103	15551.93
615.298	15406.53
615.493	15494.59
615.688	15267.27
615.884	15474.11
616.079	15062.47
616.274	15187.39
616.47	15085
616.665	15371.71
616.86	15128
617.055	15015.37
617.25	14894.54
617.445	14986.69
617.641	14785.99
617.836	15091.14
618.031	14788.04
618.226	14964.17
618.421	14986.69
618.616	14851.53
618.811	14476.75
619.006	14847.43
619.201	14384.59
619.396	14390.74
619.591	14314.96
619.786	14317.01
619.981	13983.19
620.176	14425.55
620.371	14110.16
620.566	14042.58
620.761	14151.12
620.956	14331.34
621.151	13876.69
621.346	13909.46
621.541	13731.29
621.735	13798.87
621.93	13534.68
622.125	13643.23
622.32	13356.51
622.515	13438.43
622.709	13430.24
622.904	13420
623.099	13241.82
623.294	13444.57
623.488	12965.35
623.683	13071.84
623.878	13112.8
624.072	12981.73
624.267	12842.47
624.462	12580.33
624.656	12619.24
624.851	12576.23
625.046	12703.21
625.24	12459.5
625.435	12426.73
625.629	12334.57
625.824	12373.49
626.018	12242.42
626.213	12019.19
626.407	12066.29
626.602	11886.07
626.796	12105.2
626.991	11992.56
627.185	11720.18
627.38	11699.7
627.574	11740.66
627.768	11470.33
627.963	11595.26
628.157	11255.29
628.352	11603.45
628.546	11255.29
628.74	11380.22
628.935	11341.31
629.129	11204.1
629.323	11177.47
629.517	11073.03
629.712	10831.37
629.906	11142.66
630.1	10737.16
630.294	10839.56
630.489	10866.18
630.683	10892.8
630.877	10556.94
631.071	10827.27
631.265	10536.46
631.459	10618.38
631.653	10372.62
631.848	10466.83
632.042	10284.56
632.236	10272.27
632.43	10139.15
632.624	10436.11
632.818	10012.18
633.012	10044.95
633.206	10040.85
633.4	10124.82
633.594	9682.45
633.788	9907.73
633.982	9754.13
634.176	9860.63
634.369	9672.22
634.563	9821.72
634.757	9604.63
634.951	9635.35
635.145	9653.78
635.339	9606.68
635.533	9287.2
635.726	9430.55
635.92	9262.62
636.114	9326.11
636.308	9379.36
636.501	9416.22
636.695	9203.23
636.889	9033.25
637.083	8994.34
637.276	9055.78
637.47	8947.23
637.664	8824.36
637.857	8703.53
638.051	8781.35
638.244	8676.9
638.438	8697.38
638.632	8672.81
638.825	8635.94
639.019	8511.02
639.212	8406.57
639.406	8435.24
639.599	8478.25
639.793	8218.16
639.986	8199.73
640.18	8367.66
640.373	8203.82
640.567	8003.12
640.76	8048.18
640.954	8072.75
641.147	8058.42
641.34	7857.71
641.534	8003.12
641.727	8052.27
641.92	7829.04
642.114	7726.64
642.307	7820.85
642.5	7654.97
642.694	7595.57
642.887	7536.18
643.08	7519.8
643.273	7450.17
643.467	7444.03
643.66	7204.41
643.853	7439.93
644.046	7374.39
644.239	7419.45
644.432	7081.53
644.626	7081.53
644.819	7081.53
645.012	7120.45
645.205	7054.91
645.398	7112.25
645.591	7091.77
645.784	6991.42
645.977	7145.02
646.17	6858.31
646.363	6901.31
646.556	6671.94
646.749	6542.92
646.942	6712.9
647.135	6567.49
647.328	6626.89
647.521	6604.36
647.714	6559.3
647.907	6454.86
648.099	6532.68
648.292	6590.02
648.485	6305.35
648.678	6172.24
648.871	6301.26
649.064	6356.55
649.256	6444.62
649.449	6348.36
649.642	6321.74
649.835	6288.97
650.027	6225.48
650.22	6026.83
650.413	5975.63
650.605	6108.75
650.798	6092.37
650.991	5793.36
651.183	5910.1
651.376	5885.52
651.568	6000.21
651.761	5811.79
651.954	5873.23
652.146	5979.73
652.339	5762.64
652.531	5801.55
652.724	5604.95
652.916	5625.43
653.109	5557.85
653.301	5652.05
653.494	5609.05
653.686	5512.79
653.879	5604.95
654.071	5586.52
654.263	5693.01
654.456	5416.54
654.648	5459.54
654.84	5391.96
655.033	5394.01
655.225	5277.27
655.417	5236.31
655.61	5260.89
655.802	5365.34
655.994	5369.43
656.186	5248.6
656.379	5162.59
656.571	5162.59
656.763	5131.87
656.955	4963.93
657.148	5181.02
657.34	4931.17
657.532	4982.37
657.724	4976.22
657.916	4879.97
658.108	5185.12
658.3	4879.97
658.492	4877.92
658.684	4763.23
658.876	4793.95
659.068	4791.91
659.26	4759.14
659.452	4658.79
659.644	4851.3
659.836	4693.6
660.028	4652.64
660.22	4628.07
660.412	4814.43
660.604	4691.56
660.796	4574.82
660.988	4574.82
661.18	4628.07
661.372	4413.03
661.563	4517.48
661.755	4374.12
661.947	4515.43
662.139	4472.42
662.331	4437.61
662.522	4333.16
662.714	4439.65
662.906	4349.54
663.097	4427.37
663.289	4353.64
663.481	4284.01
663.673	4361.83
663.864	4169.32
664.056	4277.87
664.247	4095.6
664.439	4349.54
664.631	4114.03
664.822	4167.28
665.014	4216.43
665.205	4140.65
665.397	3958.38
665.588	4232.81
665.78	4175.47
665.971	4161.13
666.163	4210.28
666.354	3995.25
666.546	4085.36
666.737	3919.47
666.929	4118.12
667.12	4036.21
667.311	4136.56
667.503	3911.28
667.694	3931.76
667.885	3886.7
668.077	4126.32
668.268	3878.51
668.459	3933.81
668.651	3954.29
668.842	3767.92
669.033	3929.71
669.224	3800.69
669.416	3888.75
669.607	3821.17
669.798	3788.4
669.989	3905.14
670.18	3774.07
670.371	3847.79
670.563	3806.83
670.754	3831.41
670.945	3804.78
671.136	3743.35
671.327	3817.07
671.518	3776.11
671.709	3716.72
671.9	3798.64
672.091	3733.11
672.282	3817.07
672.473	3765.87
672.664	3835.5
672.855	3739.25
673.046	3726.96
673.237	3624.56
673.428	3663.47
673.619	3683.95
673.809	3704.43
674	3667.57
674.191	3903.09
674.382	3630.71
674.573	3683.95
674.764	3599.99
674.954	3671.67
675.145	3556.98
675.336	3710.58
675.527	3511.93
675.717	3587.7
675.908	3569.27
676.099	3702.39
676.289	3704.43
676.48	3630.71
676.671	3571.32
676.861	3550.84
677.052	3634.8
677.243	3497.59
677.433	3733.11
677.624	3735.15
677.814	3620.47
678.005	3638.9
678.195	3759.73
678.386	3688.05
678.576	3563.12
678.767	3544.69
678.957	3485.3
679.148	3583.6
679.338	3702.39
679.529	3538.55
679.719	3677.81
679.909	3710.58
680.1	3675.76
680.29	3698.29
680.481	3573.36
680.671	3665.52
680.861	3655.28
681.052	3634.8
681.242	3612.28
681.432	3675.76
681.622	3561.08
681.813	3632.76
682.003	3729.01
682.193	3688.05
682.383	3716.72
682.573	3657.33
682.764	3554.93
682.954	3614.32
683.144	3683.95
683.334	3526.26
683.524	3671.67
683.714	3657.33
683.904	3585.65
684.094	3747.44
684.284	3765.87
684.474	3761.78
684.664	3698.29
684.854	3724.91
685.044	3649.14
685.234	3524.21
685.424	3638.9
685.614	3565.17
685.804	3573.36
685.994	3593.84
686.184	3722.87
686.374	3614.32
686.564	3491.45
686.753	3651.19
686.943	3546.74
687.133	3450.49
687.323	3561.08
687.513	3470.97
687.702	3460.73
687.892	3485.3
688.082	3468.92
688.272	3559.03
688.461	3546.74
688.651	3546.74
688.841	3470.97
689.03	3440.25
689.22	3384.95
689.41	3298.94
689.599	3444.34
689.789	3462.77
689.979	3370.62
690.168	3430.01
690.358	3249.79
690.547	3288.7
690.737	3280.5
690.926	3262.07
691.116	3178.11
691.305	3315.32
691.495	3194.49
691.684	3436.15
691.874	3190.39
692.063	3278.46
692.252	3323.51
692.442	3161.72
692.631	3120.76
692.82	3077.76
693.01	3102.33
693.199	3008.12
693.388	3085.95
693.578	3096.19
693.767	3028.6
693.956	3147.39
694.146	3042.94
694.335	3112.57
694.524	2993.79
694.713	3190.39
694.902	3061.37
695.092	2975.36
695.281	2971.26
695.47	2946.69
695.659	3110.52
695.848	3081.85
696.037	2985.6
696.226	3049.08
696.415	2905.73
696.604	3004.03
696.793	2985.6
696.982	2961.02
697.171	2993.79
697.36	3020.41
697.549	2991.74
697.738	2772.61
697.927	2909.82
698.116	2987.65
698.305	3004.03
698.494	3024.51
698.683	2954.88
698.872	2950.78
699.061	2920.06
699.25	2944.64
699.438	3001.98
699.627	3051.13
699.816	2977.41
700.005	2834.05
700.193	2983.55
700.382	2963.07
700.571	3100.28
700.76	2989.69
700.948	3067.52
701.137	3012.22
701.326	3118.72
701.514	2932.35
701.703	3047.04
701.892	2985.6
702.08	3090.04
702.269	2952.83
702.457	2958.97
702.646	2973.31
702.834	2995.84
703.023	2979.45
703.212	2983.55
703.4	3116.67
703.589	2938.49
703.777	3069.56
703.965	2858.62
704.154	2979.45
704.342	2905.73
704.531	3001.98
704.719	2932.35
704.907	3018.36
705.096	2997.88
705.284	2956.93
705.472	3094.14
705.661	2999.93
705.849	3053.18
706.037	2995.84
706.226	2928.25
706.414	3122.81
706.602	3067.52
706.79	3022.46
706.979	2936.45
707.167	3042.94
707.355	3178.11
707.543	3010.17
707.731	3116.67
707.919	3028.6
708.107	3073.66
708.296	3032.7
708.484	3028.6
708.672	3098.24
708.86	3155.58
709.048	3090.04
709.236	3102.33
709.424	3214.97
709.612	3012.22
709.8	3006.08
709.988	3014.27
710.176	3243.64
710.364	3167.87
710.551	3116.67
710.739	3180.15
710.927	3014.27
711.115	3120.76
711.303	3153.53
711.491	3206.78
711.679	3198.59
711.866	3137.15
712.054	3276.41
712.242	3241.59
712.43	3157.63
712.617	3139.19
712.805	3239.55
712.993	3167.87
713.181	3102.33
713.368	3247.74
713.556	3272.31
713.744	3307.13
713.931	3374.71
714.119	3249.79
714.306	3348.09
714.494	3176.06
714.682	3255.93
714.869	3276.41
715.057	3221.11
715.244	3239.55
715.432	3245.69
715.619	3167.87
715.807	3210.87
715.994	3343.99
716.182	3210.87
716.369	3364.47
716.556	3217.02
716.744	3204.73
716.931	3341.94
717.119	3399.29
717.306	3378.81
717.493	3313.27
717.681	3475.06
717.868	3395.19
718.055	3323.51
718.242	3343.99
718.43	3466.87
718.617	3337.85
718.804	3411.57
718.991	3368.57
719.179	3407.48
719.366	3354.23
719.553	3436.15
719.74	3325.56
719.927	3511.93
720.114	3288.7
720.301	3425.91
720.488	3354.23
720.676	3309.18
720.863	3532.4
721.05	3470.97
721.237	3466.87
721.424	3450.49
721.611	3399.29
721.798	3409.53
721.985	3432.05
722.172	3315.32
722.358	3417.72
722.545	3409.53
722.732	3430.01
722.919	3432.05
723.106	3530.36
723.293	3536.5
723.48	3403.38
723.667	3470.97
723.853	3454.58
724.04	3544.69
724.227	3520.12
724.414	3595.89
724.6	3602.04
724.787	3452.53
724.974	3599.99
725.161	3458.68
725.347	3513.97
725.534	3493.49
725.72	3618.42
725.907	3595.89
726.094	3575.41
726.28	3491.45
726.467	3489.4
726.653	3593.84
726.84	3579.51
727.027	3716.72
727.213	3475.06
727.4	3507.83
727.586	3661.43
727.773	3737.2
727.959	3597.94
728.145	3581.56
728.332	3618.42
728.518	3530.36
728.705	3718.77
728.891	3430.01
729.077	3559.03
729.264	3722.87
729.45	3669.62
729.636	3620.47
729.823	3552.88
730.009	3716.72
730.195	3700.34
730.382	3704.43
730.568	3733.11
730.754	3690.1
730.94	3720.82
731.126	3698.29
731.313	3546.74
731.499	3708.53
731.685	3817.07
731.871	3745.39
732.057	3643
732.243	3743.35
732.429	3649.14
732.615	3763.83
732.801	3692.15
732.987	3739.25
733.173	3620.47
733.359	3698.29
733.545	3673.71
733.731	3677.81
733.917	3735.15
734.103	3763.83
734.289	3788.4
734.475	3772.02
734.661	3788.4
734.847	3731.06
735.033	3733.11
735.219	3776.11
735.404	3765.87
735.59	3628.66
735.776	3700.34
735.962	3694.19
736.148	3747.44
736.333	3686
736.519	3722.87
736.705	3737.2
736.89	3645.04
737.076	3681.91
737.262	3663.47
737.447	3698.29
737.633	3673.71
737.819	3710.58
738.004	3700.34
738.19	3778.16
738.375	3565.17
738.561	3741.3
738.747	3559.03
738.932	3700.34
739.118	3780.21
739.303	3636.85
739.489	3651.19
739.674	3602.04
739.859	3632.76
740.045	3653.23
740.23	3706.48
740.416	3659.38
740.601	3761.78
740.786	3675.76
740.972	3518.07
741.157	3626.61
741.342	3477.11
741.528	3540.6
741.713	3571.32
741.898	3579.51
742.084	3604.08
742.269	3520.12
742.454	3579.51
742.639	3561.08
742.824	3401.33
743.01	3448.44
743.195	3620.47
743.38	3427.96
743.565	3542.64
743.75	3477.11
743.935	3458.68
744.12	3479.16
744.305	3520.12
744.49	3522.16
744.675	3425.91
744.86	3403.38
745.045	3350.14
745.23	3391.09
745.415	3343.99
745.6	3485.3
745.785	3276.41
745.97	3403.38
746.155	3397.24
746.34	3384.95
746.525	3260.02
746.71	3370.62
746.895	3204.73
747.079	3225.21
747.264	3100.28
747.449	3239.55
747.634	3221.11
747.819	3245.69
748.003	3081.85
748.188	3034.75
748.373	3184.25
748.557	3042.94
748.742	3200.63
748.927	3098.24
749.111	2965.12
749.296	3010.17
749.481	3102.33
749.665	3004.03
749.85	3012.22
750.034	3022.46
750.219	2928.25
750.404	2942.59
750.588	2856.58
750.773	2866.81
750.957	2860.67
751.141	2805.38
751.326	2840.19
751.51	2797.18
751.695	2713.22
751.879	2743.94
752.064	2854.53
752.248	2694.79
752.432	2731.65
752.617	2729.6
752.801	2735.74
752.985	2580.1
753.17	2688.64
753.354	2680.45
753.538	2668.16
753.722	2688.64
753.907	2555.52
754.091	2535.04
754.275	2526.85
754.459	2604.67
754.643	2436.74
754.828	2436.74
755.012	2451.08
755.196	2489.99
755.38	2453.13
755.564	2426.5
755.748	2444.93
755.932	2487.94
756.116	2381.45
756.3	2238.09
756.484	2320.01
756.668	2356.87
756.852	2233.99
757.036	2272.9
757.22	2317.96
757.404	2299.53
757.588	2254.47
757.772	2330.25
757.956	2215.56
758.14	2205.32
758.323	2215.56
758.507	2244.23
758.691	2172.55
758.875	2176.65
759.059	2109.07
759.242	2107.02
759.426	2021
759.61	2190.99
759.794	2131.59
759.977	2096.78
760.161	2190.99
760.345	2096.78
760.528	1988.24
760.712	2043.53
760.895	1951.37
761.079	1934.99
761.263	1932.94
761.446	1973.9
761.63	1988.24
761.813	2002.57
761.997	1947.28
762.18	1937.04
762.364	2002.57
762.547	1851.02
762.731	2053.77
762.914	1894.03
763.098	1828.49
763.281	1984.14
763.464	1908.37
763.648	1896.08
763.831	1775.25
764.015	1789.58
764.198	1832.59
764.381	1816.21
764.564	1814.16
764.748	1703.57
764.931	1797.78
765.114	1795.73
765.297	1816.21
765.481	1687.18
765.664	1707.66
765.847	1738.38
766.03	1734.29
766.213	1752.72
766.397	1640.08
766.58	1662.61
766.763	1771.15
766.946	1689.23
767.129	1631.89
767.312	1580.69
767.495	1650.32
767.678	1705.62
767.861	1656.47
768.044	1547.92
768.227	1611.41
768.41	1668.75
768.593	1547.92
768.776	1590.93
768.959	1502.87
769.142	1631.89
769.324	1523.35
769.507	1486.48
769.69	1490.58
769.873	1490.58
770.056	1592.98
770.239	1496.72
770.421	1562.26
770.604	1427.09
770.787	1562.26
770.97	1484.44
771.152	1509.01
771.335	1500.82
771.518	1492.63
771.7	1535.64
771.883	1502.87
772.066	1439.38
772.248	1502.87
772.431	1480.34
772.613	1420.95
772.796	1316.5
772.978	1379.99
773.161	1576.59
773.343	1382.04
773.526	1355.41
773.708	1296.02
773.891	1302.17
774.073	1334.93
774.256	1298.07
774.438	1398.42
774.621	1291.93
774.803	1345.17
774.985	1265.3
775.168	1345.17
775.35	1314.45
775.532	1250.97
775.715	1261.21
775.897	1281.69
776.079	1136.28
776.261	1248.92
776.444	1248.92
776.626	1230.49
776.808	1224.34
776.99	1216.15
777.173	1154.71
777.355	1138.33
777.537	1126.04
777.719	1216.15
777.901	1152.67
778.083	1056.41
778.265	1025.69
778.447	1132.19
778.629	1031.83
778.811	1130.14
778.993	1175.19
779.175	1083.03
779.357	1119.9
779.539	964.25
779.721	1091.23
779.903	1119.9
780.085	1060.51
780.267	1017.5
780.449	997.02
780.631	1011.36
780.812	968.35
780.994	935.58
781.176	947.87
781.358	964.25
781.54	958.11
781.721	935.58
781.903	984.73
782.085	904.86
782.267	982.68
782.448	894.62
782.63	861.85
782.812	868
782.993	941.72
783.175	913.05
783.357	925.34
783.538	925.34
783.72	908.96
783.901	882.33
784.083	865.95
784.264	831.13
784.446	784.03
784.627	792.22
784.809	798.37
784.99	779.93
785.172	829.09
785.353	757.41
785.535	808.61
785.716	704.16
785.897	773.79
786.079	800.41
786.26	773.79
786.441	730.78
786.623	718.5
786.804	681.63
786.985	691.87
787.167	775.84
787.348	669.34
787.529	708.26
787.71	730.78
787.891	663.2
788.073	693.92
788.254	757.41
788.435	759.46
788.616	657.06
788.797	681.63
788.978	556.71
789.159	634.53
789.34	642.72
789.522	566.95
789.703	700.06
789.884	679.58
790.065	659.1
790.246	728.74
790.427	673.44
790.607	632.48
790.788	698.02
790.969	542.37
791.15	659.1
791.331	648.86
791.512	513.7
791.693	573.09
791.874	583.33
792.054	667.3
792.235	536.23
792.416	583.33
792.597	472.74
792.778	554.66
792.958	595.62
793.139	474.79
793.32	614.05
793.5	505.51
793.681	599.71
793.862	577.19
794.042	448.16
794.223	495.27
794.404	470.69
794.584	444.07
794.765	521.89
794.945	536.23
795.126	538.27
795.306	609.95
795.487	550.56
795.667	497.32
795.848	464.55
796.028	503.46
796.209	521.89
796.389	489.12
796.57	497.32
796.75	450.21
796.93	388.77
797.111	452.26
797.291	452.26
797.471	446.12
797.652	478.88
797.832	429.73
798.012	523.94
798.192	427.68
798.373	396.96
798.553	444.07
798.733	409.25
798.913	399.01
799.093	444.07
799.274	476.84
799.454	429.73
799.634	462.5
799.814	333.48
799.994	466.6
800.174	413.35
800.354	458.4
800.534	364.2
800.714	452.26
800.894	403.11
801.074	480.93
801.254	386.72
801.434	376.48
801.614	415.4
801.794	364.2
801.974	1154.71
802.154	374.44
802.334	425.64
802.514	390.82
802.693	341.67
802.873	374.44
803.053	423.59
803.233	370.34
803.413	353.96
803.592	399.01
803.772	399.01
803.952	423.59
804.131	329.38
804.311	339.62
804.491	366.25
804.67	259.75
804.85	317.09
805.03	310.95
805.209	353.96
805.389	333.48
805.568	349.86
805.748	302.76
805.928	341.67
806.107	376.48
806.287	345.77
806.466	239.27
806.646	310.95
806.825	351.91
807.004	339.62
807.184	294.57
807.363	294.57
807.543	265.89
807.722	267.94
807.901	392.87
808.081	313
808.26	231.08
808.439	276.13
808.619	229.03
808.798	300.71
808.977	306.85
809.156	300.71
809.336	362.15
809.515	333.48
809.694	216.74
809.873	261.8
810.052	265.89
810.231	362.15
810.411	265.89
810.59	329.38
810.769	288.42
810.948	327.33
811.127	206.5
811.306	226.98
811.485	171.69
811.664	302.76
811.843	298.66
812.022	298.66
812.201	341.67
812.38	265.89
812.559	220.84
812.737	276.13
812.916	292.52
813.095	290.47
813.274	335.53
813.453	243.37
813.632	296.61
813.811	237.22
813.989	222.89
814.168	259.75
814.347	265.89
814.526	261.8
814.704	306.85
814.883	206.5
815.062	233.13
815.24	243.37
815.419	224.94
815.598	306.85
815.776	255.65
815.955	212.65
816.133	177.83
816.312	186.02
816.49	249.51
816.669	267.94
816.847	243.37
817.026	251.56
817.204	224.94
817.383	198.31
817.561	130.73
817.74	282.28
817.918	204.46
818.097	298.66
818.275	175.78
818.453	208.55
818.632	272.04
818.81	138.92
818.988	222.89
819.167	265.89
819.345	214.7
819.523	247.46
819.701	147.11
819.879	155.3
820.058	194.22
820.236	229.03
820.414	233.13
820.592	183.98
820.77	222.89
820.948	143.02
821.127	95.91
821.305	165.54
821.483	198.31
821.661	226.98
821.839	194.22
822.017	155.3
822.195	194.22
822.373	269.99
822.551	95.91
822.729	183.98
822.907	126.63
823.085	249.51
823.262	186.02
823.44	124.58
823.618	114.34
823.796	126.63
823.974	122.54
824.152	200.36
824.329	173.74
824.507	128.68
824.685	159.4
824.863	169.64
825.04	120.49
825.218	200.36
825.396	151.21
825.574	126.63
825.751	124.58
825.929	216.74
826.107	138.92
826.284	114.34
826.462	181.93
826.639	91.82
826.817	149.16
826.994	161.45
827.172	112.3
827.349	202.41
827.527	128.68
827.704	163.5
827.882	114.34
828.059	97.96
828.237	149.16
828.414	237.22
828.591	114.34
828.769	192.17
828.946	106.15
829.124	222.89
829.301	171.69
829.478	183.98
829.655	145.06
829.833	93.87
830.01	159.4
830.187	114.34
830.364	196.26
830.542	149.16
830.719	157.35
830.896	210.6
831.073	161.45
831.25	208.55
831.427	116.39
831.604	61.1
831.782	97.96
831.959	124.58
832.136	34.47
832.313	173.74
832.49	81.58
832.667	102.06
832.844	102.06
833.021	130.73
833.198	108.2
833.374	128.68
833.551	89.77
833.728	87.72
833.905	100.01
834.082	85.67
834.259	69.29
834.436	77.48
834.612	59.05
834.789	151.21
834.966	44.71
835.143	100.01
835.319	73.39
835.496	126.63
835.673	104.11
835.85	159.4
836.026	136.87
836.203	38.57
836.38	159.4
836.556	87.72
836.733	34.47
836.909	67.24
837.086	67.24
837.262	120.49
837.439	93.87
837.616	57
837.792	140.97
837.968	69.29
838.145	69.29
838.321	140.97
838.498	77.48
838.674	81.58
838.851	50.86
839.027	112.3
839.203	159.4
839.38	100.01
839.556	143.02
839.732	67.24
839.909	85.67
840.085	108.2
840.261	46.76
840.437	67.24
840.614	83.63
840.79	40.62
840.966	93.87
841.142	69.29
841.318	32.43
841.494	171.69
841.671	34.47
841.847	75.43
842.023	87.72
842.199	11.95
842.375	79.53
842.551	73.39
842.727	24.23
842.903	116.39
843.079	26.28
843.255	145.06
843.431	65.19
843.607	44.71
843.783	42.67
843.959	110.25
844.134	95.91
844.31	91.82
844.486	40.62
844.662	30.38
844.838	28.33
845.013	118.44
845.189	40.62
845.365	20.14
845.541	5.8
845.716	112.3
845.892	61.1
846.068	79.53
846.244	42.67
846.419	106.15
846.595	16.04
846.77	20.14
846.946	122.54
847.122	77.48
847.297	22.19
847.473	204.46
847.648	-6.49
847.824	83.63
847.999	44.71
848.175	54.95
848.35	-18.77
848.526	52.91
848.701	102.06
848.876	140.97
849.052	97.96
849.227	26.28
849.403	89.77
849.578	59.05
849.753	26.28
849.929	102.06
850.104	-24.92
850.279	145.06
850.454	-8.53
850.63	13.99
850.805	112.3
850.98	65.19
851.155	61.1
851.33	54.95
851.505	9.9
851.681	44.71
851.856	16.04
852.031	61.1
852.206	18.09
852.381	5.8
852.556	16.04
852.731	116.39
852.906	40.62
853.081	83.63
853.256	32.43
853.431	61.1
853.606	54.95
853.781	24.23
853.956	16.04
854.131	124.58
854.305	11.95
854.48	38.57
854.655	16.04
854.83	7.85
855.005	100.01
855.18	81.58
855.354	46.76
855.529	52.91
855.704	28.33
855.879	179.88
856.053	-47.44
856.228	50.86
856.403	34.47
856.577	54.95
856.752	16.04
856.926	52.91
857.101	38.57
857.276	11.95
857.45	-12.63
857.625	63.15
857.799	-22.87
857.974	71.34
858.148	40.62
858.323	-6.49
858.497	48.81
858.672	-39.25
858.846	5.8
859.02	67.24
859.195	-0.34
859.369	34.47
859.543	87.72
859.718	38.57
859.892	16.04
860.066	38.57
860.241	-20.82
860.415	-2.39
860.589	38.57
860.763	-33.11
860.938	59.05
861.112	91.82
861.286	-6.49
861.46	-2.39
861.634	75.43
861.808	46.76
861.982	26.28
862.157	104.11
862.331	28.33
862.505	5.8
862.679	30.38
862.853	100.01
863.027	16.04
863.201	83.63
863.375	77.48
863.549	-10.58
863.722	-12.63
863.896	40.62
864.07	-26.96
864.244	38.57
864.418	-4.44
864.592	7.85
864.766	77.48
864.939	50.86
865.113	-6.49
865.287	71.34
865.461	-35.16
865.634	89.77
865.808	26.28
865.982	-53.59
866.156	16.04
866.329	7.85
866.503	89.77
866.676	7.85
866.85	7.85
867.024	-2.39
867.197	87.72
867.371	61.1
867.544	71.34
867.718	-22.87
867.891	16.04
868.065	-16.73
868.238	-12.63
868.412	91.82
868.585	59.05
868.759	18.09
868.932	-2.39
869.105	1.71
869.279	-59.73
869.452	85.67
869.625	104.11
869.799	42.67
869.972	26.28
870.145	-31.06
870.319	-24.92
870.492	22.19
870.665	-4.44
870.838	32.43
871.011	-33.11
871.185	-76.12
871.358	16.04
871.531	1.71
871.704	46.76
871.877	13.99
872.05	34.47
872.223	11.95
872.396	36.52
872.569	44.71
872.742	18.09
872.915	3.75
873.088	-35.16
873.261	24.23
873.434	3.75
873.607	46.76
873.78	1.71
873.953	-20.82
874.126	32.43
874.299	36.52
874.471	44.71
874.644	40.62
874.817	46.76
874.99	110.25
875.163	-6.49
875.335	-8.53
875.508	59.05
875.681	52.91
875.853	5.8
876.026	-12.63
876.199	-10.58
876.371	32.43
876.544	11.95
876.717	34.47
876.889	-18.77
877.062	-26.96
877.234	-61.78
877.407	9.9
877.579	-2.39
877.752	-39.25
877.924	38.57
878.097	-31.06
878.269	48.81
878.442	-6.49
878.614	95.91
878.786	67.24
878.959	-31.06
879.131	-47.44
879.303	-49.49
879.476	-74.07
879.648	79.53
879.82	18.09
879.993	18.09
880.165	-33.11
880.337	-67.92
880.509	36.52
880.681	-16.73
880.854	-88.4
881.026	13.99
881.198	120.49
881.37	-0.34
881.542	-14.68
881.714	54.95
881.886	-18.77
882.058	22.19
882.23	3.75
882.402	48.81
882.574	11.95
882.746	16.04
882.918	26.28
883.09	57
883.262	36.52
883.434	-69.97
883.606	-82.26
883.778	-88.4
883.95	52.91
884.122	36.52
884.293	13.99
884.465	18.09
884.637	108.2
884.809	-8.53
884.98	-31.06
885.152	48.81
885.324	46.76
885.496	-63.83
885.667	1.71
885.839	9.9
886.011	81.58
886.182	-8.53
886.354	100.01
886.525	-55.64
886.697	61.1
886.869	-16.73
887.04	44.71
887.212	-10.58
887.383	75.43
887.555	42.67
887.726	-41.3
887.897	-2.39
888.069	50.86
888.24	-18.77
888.412	24.23
888.583	13.99
888.754	22.19
888.926	-29.01
889.097	-2.39
889.268	-74.07
889.44	32.43
889.611	-24.92
889.782	16.04
889.953	-18.77
890.125	-8.53
890.296	-110.93
890.467	-18.77
890.638	9.9
890.809	-10.58
890.98	-18.77
891.151	-18.77
891.323	-4.44
891.494	32.43
891.665	52.91
891.836	-24.92
892.007	18.09
892.178	83.63
892.349	5.8
892.52	46.76
892.691	26.28
892.862	13.99
893.032	-47.44
893.203	3.75
893.374	34.47
893.545	65.19
893.716	3.75
893.887	65.19
894.057	-43.35
894.228	-20.82
894.399	5.8
894.57	-12.63
894.74	1.71
894.911	-22.87
895.082	-16.73
895.253	-76.12
895.423	-51.54
895.594	52.91
895.764	44.71
895.935	85.67
896.106	-16.73
896.276	40.62
896.447	-16.73
896.617	-31.06
896.788	11.95
896.958	-55.64
897.129	3.75
897.299	-16.73
897.47	63.15
897.64	-8.53
897.81	16.04
897.981	30.38
898.151	-55.64
898.322	-26.96
898.492	71.34
898.662	-10.58
898.832	-22.87
899.003	63.15
899.173	-57.68
899.343	-129.36
899.513	-67.92
