Data from USB4F104151__18__12-23-27-102.txt Node

Date: Fri Mar 14 12:23:27 EDT 2025
User: louis
Spectrometer: USB4F10415
Trigger mode: 4
Integration Time (sec): 3.500000E-2
Scans to average: 1
Electric dark correction enabled: true
Nonlinearity correction enabled: false
Boxcar width: 0
XAxis mode: Wavelengths
Number of Pixels in Spectrum: 3648
>>>>>Begin Spectral Data<<<<<
178.204	-167.76
178.424	-167.76
178.644	-167.76
178.864	-104.28
179.084	-198.48
179.304	18.6
179.524	39.08
179.744	-40.79
179.964	10.41
180.184	-75.6
180.404	20.65
180.624	-22.36
180.844	-20.31
181.064	26.79
181.283	-8.02
181.503	12.46
181.723	39.08
181.943	26.79
182.163	30.89
182.383	-30.55
182.602	-10.07
182.822	10.41
183.042	14.51
183.262	16.55
183.482	-63.32
183.701	-18.26
183.921	-48.98
184.141	-30.55
184.361	114.86
184.58	22.7
184.8	61.61
185.02	-36.69
185.239	51.37
185.459	34.99
185.679	59.56
185.898	59.56
186.118	61.61
186.338	26.79
186.557	96.43
186.777	8.36
186.997	4.27
187.216	30.89
187.436	67.75
187.655	94.38
187.875	45.23
188.095	67.75
188.314	-1.88
188.534	30.89
188.753	34.99
188.973	-30.55
189.192	143.53
189.412	16.55
189.631	-28.5
189.851	39.08
190.07	92.33
190.29	-14.17
190.509	16.55
190.729	24.75
190.948	90.28
191.168	166.06
191.387	114.86
191.607	16.55
191.826	75.95
192.045	82.09
192.265	14.51
192.484	18.6
192.704	155.82
192.923	30.89
193.142	143.53
193.362	22.7
193.581	57.51
193.8	49.32
194.02	88.23
194.239	26.79
194.458	51.37
194.678	-12.12
194.897	86.19
195.116	55.47
195.335	18.6
195.555	84.14
195.774	49.32
195.993	90.28
196.212	32.94
196.432	88.23
196.651	0.17
196.87	6.31
197.089	69.8
197.308	61.61
197.528	30.89
197.747	53.42
197.966	125.1
198.185	80.04
198.404	47.27
198.623	37.03
198.842	-5.97
199.062	94.38
199.281	63.66
199.5	75.95
199.719	84.14
199.938	22.7
200.157	22.7
200.376	127.14
200.595	82.09
200.814	55.47
201.033	10.41
201.252	59.56
201.471	63.66
201.69	43.18
201.909	8.36
202.128	57.51
202.347	69.8
202.566	-16.21
202.785	-14.17
203.004	-12.12
203.223	110.76
203.442	4.27
203.661	84.14
203.879	71.85
204.098	77.99
204.317	-73.56
204.536	125.1
204.755	80.04
204.974	106.67
205.193	24.75
205.411	164.01
205.63	4.27
205.849	114.86
206.068	47.27
206.287	57.51
206.505	26.79
206.724	-5.97
206.943	75.95
207.162	6.31
207.381	92.33
207.599	-16.21
207.818	84.14
208.037	16.55
208.255	125.1
208.474	82.09
208.693	45.23
208.911	-16.21
209.13	90.28
209.349	30.89
209.567	49.32
209.786	77.99
210.005	20.65
210.223	49.32
210.442	-22.36
210.661	-12.12
210.879	84.14
211.098	-16.21
211.316	88.23
211.535	100.52
211.753	-14.17
211.972	88.23
212.191	-1.88
212.409	137.38
212.628	71.85
212.846	18.6
213.065	110.76
213.283	125.1
213.502	39.08
213.72	4.27
213.938	8.36
214.157	71.85
214.375	4.27
214.594	14.51
214.812	-40.79
215.031	30.89
215.249	-30.55
215.467	71.85
215.686	106.67
215.904	45.23
216.122	8.36
216.341	51.37
216.559	53.42
216.778	55.47
216.996	80.04
217.214	34.99
217.432	28.84
217.651	-26.45
217.869	18.6
218.087	69.8
218.306	0.17
218.524	147.62
218.742	4.27
218.96	96.43
219.179	69.8
219.397	41.13
219.615	92.33
219.833	43.18
220.051	-16.21
220.27	84.14
220.488	86.19
220.706	8.36
220.924	67.75
221.142	59.56
221.36	18.6
221.578	55.47
221.796	2.22
222.015	20.65
222.233	69.8
222.451	67.75
222.669	2.22
222.887	61.61
223.105	-24.4
223.323	32.94
223.541	55.47
223.759	28.84
223.977	6.31
224.195	57.51
224.413	69.8
224.631	59.56
224.849	30.89
225.067	125.1
225.285	63.66
225.503	4.27
225.721	-5.97
225.939	88.23
226.157	-30.55
226.375	139.43
226.592	112.81
226.81	49.32
227.028	8.36
227.246	86.19
227.464	65.71
227.682	73.9
227.9	75.95
228.117	86.19
228.335	73.9
228.553	77.99
228.771	30.89
228.989	-3.93
229.206	32.94
229.424	43.18
229.642	-26.45
229.86	49.32
230.077	59.56
230.295	121
230.513	108.71
230.731	88.23
230.948	34.99
231.166	123.05
231.384	63.66
231.601	41.13
231.819	53.42
232.037	14.51
232.254	61.61
232.472	65.71
232.689	57.51
232.907	51.37
233.125	26.79
233.342	59.56
233.56	10.41
233.777	41.13
233.995	14.51
234.213	82.09
234.43	57.51
234.648	39.08
234.865	92.33
235.083	100.52
235.3	18.6
235.518	108.71
235.735	59.56
235.953	67.75
236.17	28.84
236.388	-40.79
236.605	49.32
236.822	41.13
237.04	61.61
237.257	41.13
237.475	-10.07
237.692	32.94
237.909	47.27
238.127	-5.97
238.344	65.71
238.562	86.19
238.779	-1.88
238.996	53.42
239.214	32.94
239.431	2.22
239.648	-22.36
239.865	118.95
240.083	57.51
240.3	28.84
240.517	22.7
240.735	88.23
240.952	26.79
241.169	47.27
241.386	69.8
241.603	88.23
241.821	-16.21
242.038	69.8
242.255	41.13
242.472	12.46
242.689	0.17
242.907	80.04
243.124	47.27
243.341	14.51
243.558	71.85
243.775	59.56
243.992	2.22
244.209	141.48
244.426	112.81
244.643	75.95
244.86	32.94
245.078	59.56
245.295	39.08
245.512	18.6
245.729	75.95
245.946	45.23
246.163	104.62
246.38	61.61
246.597	41.13
246.814	34.99
247.031	53.42
247.248	24.75
247.464	20.65
247.681	37.03
247.898	49.32
248.115	34.99
248.332	0.17
248.549	45.23
248.766	110.76
248.983	59.56
249.2	12.46
249.417	141.48
249.633	49.32
249.85	100.52
250.067	100.52
250.284	-3.93
250.501	88.23
250.717	73.9
250.934	-24.4
251.151	47.27
251.368	53.42
251.585	77.99
251.801	59.56
252.018	59.56
252.235	116.9
252.451	28.84
252.668	47.27
252.885	59.56
253.102	112.81
253.318	86.19
253.535	45.23
253.752	4.27
253.968	8.36
254.185	43.18
254.401	112.81
254.618	49.32
254.835	34.99
255.051	104.62
255.268	32.94
255.484	18.6
255.701	86.19
255.917	110.76
256.134	-14.17
256.351	8.36
256.567	39.08
256.784	47.27
257	-26.45
257.217	75.95
257.433	155.82
257.65	106.67
257.866	43.18
258.082	22.7
258.299	41.13
258.515	123.05
258.732	-63.32
258.948	45.23
259.165	18.6
259.381	39.08
259.597	14.51
259.814	-20.31
260.03	157.86
260.246	45.23
260.463	-20.31
260.679	133.29
260.895	57.51
261.112	82.09
261.328	2.22
261.544	-8.02
261.761	143.53
261.977	8.36
262.193	28.84
262.409	59.56
262.626	98.47
262.842	65.71
263.058	18.6
263.274	65.71
263.49	51.37
263.707	90.28
263.923	41.13
264.139	16.55
264.355	51.37
264.571	51.37
264.787	20.65
265.004	73.9
265.22	-5.97
265.436	53.42
265.652	-14.17
265.868	61.61
266.084	32.94
266.3	55.47
266.516	69.8
266.732	12.46
266.948	77.99
267.164	65.71
267.38	55.47
267.596	88.23
267.812	75.95
268.028	20.65
268.244	30.89
268.46	73.9
268.676	-16.21
268.892	32.94
269.108	24.75
269.324	-12.12
269.54	51.37
269.756	139.43
269.972	20.65
270.188	32.94
270.403	22.7
270.619	55.47
270.835	6.31
271.051	84.14
271.267	0.17
271.483	2.22
271.698	75.95
271.914	92.33
272.13	-22.36
272.346	-26.45
272.562	8.36
272.777	0.17
272.993	14.51
273.209	0.17
273.425	88.23
273.64	45.23
273.856	90.28
274.072	37.03
274.287	6.31
274.503	75.95
274.719	43.18
274.934	-77.65
275.15	32.94
275.366	55.47
275.581	47.27
275.797	37.03
276.012	34.99
276.228	-14.17
276.444	32.94
276.659	151.72
276.875	49.32
277.09	-38.74
277.306	41.13
277.521	30.89
277.737	47.27
277.952	80.04
278.168	0.17
278.383	51.37
278.599	32.94
278.814	129.19
279.03	39.08
279.245	108.71
279.461	59.56
279.676	37.03
279.892	6.31
280.107	34.99
280.322	20.65
280.538	49.32
280.753	39.08
280.969	57.51
281.184	20.65
281.399	-24.4
281.615	6.31
281.83	71.85
282.045	26.79
282.26	63.66
282.476	121
282.691	145.58
282.906	-20.31
283.122	82.09
283.337	18.6
283.552	67.75
283.767	61.61
283.983	41.13
284.198	45.23
284.413	14.51
284.628	34.99
284.843	61.61
285.058	-5.97
285.274	26.79
285.489	-14.17
285.704	53.42
285.919	-10.07
286.134	73.9
286.349	-5.97
286.564	39.08
286.779	168.1
286.995	57.51
287.21	-40.79
287.425	24.75
287.64	61.61
287.855	102.57
288.07	-10.07
288.285	104.62
288.5	28.84
288.715	69.8
288.93	-3.93
289.145	4.27
289.36	39.08
289.575	8.36
289.79	10.41
290.004	118.95
290.219	59.56
290.434	6.31
290.649	106.67
290.864	37.03
291.079	-8.02
291.294	30.89
291.509	32.94
291.724	77.99
291.938	28.84
292.153	39.08
292.368	12.46
292.583	14.51
292.798	8.36
293.012	90.28
293.227	34.99
293.442	12.46
293.657	92.33
293.871	39.08
294.086	118.95
294.301	47.27
294.516	43.18
294.73	39.08
294.945	45.23
295.16	-20.31
295.374	139.43
295.589	14.51
295.804	53.42
296.018	94.38
296.233	94.38
296.447	143.53
296.662	-24.4
296.877	26.79
297.091	43.18
297.306	61.61
297.52	104.62
297.735	2.22
297.949	32.94
298.164	108.71
298.378	106.67
298.593	34.99
298.807	-14.17
299.022	51.37
299.236	112.81
299.451	4.27
299.665	18.6
299.88	49.32
300.094	20.65
300.309	-36.69
300.523	75.95
300.737	90.28
300.952	51.37
301.166	-3.93
301.381	-34.64
301.595	34.99
301.809	98.47
302.024	127.14
302.238	49.32
302.452	32.94
302.667	63.66
302.881	143.53
303.095	12.46
303.309	34.99
303.524	30.89
303.738	10.41
303.952	37.03
304.166	96.43
304.381	41.13
304.595	71.85
304.809	82.09
305.023	-3.93
305.237	77.99
305.452	-63.32
305.666	63.66
305.88	49.32
306.094	12.46
306.308	127.14
306.522	30.89
306.736	30.89
306.95	118.95
307.164	53.42
307.379	26.79
307.593	86.19
307.807	73.9
308.021	94.38
308.235	53.42
308.449	-32.6
308.663	34.99
308.877	127.14
309.091	90.28
309.305	69.8
309.519	59.56
309.733	84.14
309.947	-30.55
310.161	77.99
310.374	57.51
310.588	12.46
310.802	49.32
311.016	-32.6
311.23	14.51
311.444	47.27
311.658	108.71
311.872	61.61
312.085	-3.93
312.299	88.23
312.513	73.9
312.727	30.89
312.941	34.99
313.154	28.84
313.368	10.41
313.582	51.37
313.796	67.75
314.009	26.79
314.223	24.75
314.437	10.41
314.651	69.8
314.864	-1.88
315.078	22.7
315.292	41.13
315.505	41.13
315.719	51.37
315.933	71.85
316.146	22.7
316.36	14.51
316.573	77.99
316.787	39.08
317.001	30.89
317.214	12.46
317.428	61.61
317.641	53.42
317.855	63.66
318.068	10.41
318.282	84.14
318.495	65.71
318.709	41.13
318.922	86.19
319.136	39.08
319.349	49.32
319.563	37.03
319.776	34.99
319.99	-14.17
320.203	102.57
320.417	-30.55
320.63	77.99
320.843	98.47
321.057	-55.12
321.27	63.66
321.483	61.61
321.697	159.91
321.91	49.32
322.124	37.03
322.337	90.28
322.55	100.52
322.763	51.37
322.977	71.85
323.19	16.55
323.403	59.56
323.617	-5.97
323.83	73.9
324.043	49.32
324.256	14.51
324.469	73.9
324.683	77.99
324.896	-30.55
325.109	98.47
325.322	-73.56
325.535	84.14
325.748	49.32
325.962	71.85
326.175	10.41
326.388	94.38
326.601	73.9
326.814	-12.12
327.027	6.31
327.24	121
327.453	98.47
327.666	39.08
327.879	73.9
328.092	106.67
328.305	34.99
328.518	22.7
328.731	55.47
328.944	63.66
329.157	92.33
329.37	80.04
329.583	135.34
329.796	106.67
330.009	26.79
330.222	98.47
330.435	180.39
330.648	82.09
330.861	65.71
331.073	26.79
331.286	20.65
331.499	57.51
331.712	-10.07
331.925	47.27
332.138	24.75
332.35	10.41
332.563	-10.07
332.776	63.66
332.989	-16.21
333.202	129.19
333.414	18.6
333.627	14.51
333.84	47.27
334.053	22.7
334.265	45.23
334.478	49.32
334.691	32.94
334.903	57.51
335.116	6.31
335.329	84.14
335.541	-8.02
335.754	51.37
335.966	51.37
336.179	102.57
336.392	16.55
336.604	32.94
336.817	75.95
337.029	86.19
337.242	96.43
337.454	-22.36
337.667	39.08
337.88	82.09
338.092	55.47
338.305	47.27
338.517	55.47
338.729	30.89
338.942	106.67
339.154	51.37
339.367	-3.93
339.579	8.36
339.792	34.99
340.004	61.61
340.217	34.99
340.429	34.99
340.641	-22.36
340.854	22.7
341.066	22.7
341.278	24.75
341.491	61.61
341.703	18.6
341.915	67.75
342.128	53.42
342.34	-3.93
342.552	32.94
342.764	-20.31
342.977	55.47
343.189	51.37
343.401	55.47
343.613	0.17
343.826	32.94
344.038	14.51
344.25	71.85
344.462	-22.36
344.674	110.76
344.886	67.75
345.099	143.53
345.311	16.55
345.523	67.75
345.735	8.36
345.947	67.75
346.159	55.47
346.371	86.19
346.583	45.23
346.795	67.75
347.007	6.31
347.219	98.47
347.431	-8.02
347.643	96.43
347.855	41.13
348.067	96.43
348.279	32.94
348.491	28.84
348.703	53.42
348.915	41.13
349.127	34.99
349.339	65.71
349.551	24.75
349.763	96.43
349.975	55.47
350.187	65.71
350.399	139.43
350.61	75.95
350.822	-38.74
351.034	116.9
351.246	106.67
351.458	8.36
351.669	67.75
351.881	37.03
352.093	80.04
352.305	61.61
352.517	100.52
352.728	139.43
352.94	30.89
353.152	24.75
353.363	-12.12
353.575	96.43
353.787	51.37
353.999	22.7
354.21	80.04
354.422	41.13
354.633	102.57
354.845	-8.02
355.057	71.85
355.268	51.37
355.48	141.48
355.692	-20.31
355.903	121
356.115	28.84
356.326	-1.88
356.538	80.04
356.749	86.19
356.961	-28.5
357.172	-3.93
357.384	-26.45
357.595	110.76
357.807	71.85
358.018	39.08
358.23	129.19
358.441	77.99
358.653	49.32
358.864	20.65
359.075	51.37
359.287	30.89
359.498	182.44
359.709	110.76
359.921	92.33
360.132	88.23
360.344	10.41
360.555	32.94
360.766	59.56
360.977	102.57
361.189	133.29
361.4	12.46
361.611	28.84
361.823	106.67
362.034	84.14
362.245	55.47
362.456	14.51
362.667	63.66
362.879	-24.4
363.09	49.32
363.301	22.7
363.512	57.51
363.723	45.23
363.935	26.79
364.146	96.43
364.357	26.79
364.568	20.65
364.779	-32.6
364.99	67.75
365.201	8.36
365.412	67.75
365.623	43.18
365.834	28.84
366.045	51.37
366.256	45.23
366.467	-5.97
366.678	88.23
366.889	37.03
367.1	30.89
367.311	53.42
367.522	8.36
367.733	28.84
367.944	37.03
368.155	104.62
368.366	67.75
368.577	37.03
368.788	20.65
368.999	14.51
369.209	22.7
369.42	61.61
369.631	112.81
369.842	45.23
370.053	51.37
370.264	145.58
370.474	32.94
370.685	16.55
370.896	53.42
371.107	65.71
371.317	106.67
371.528	-18.26
371.739	174.25
371.95	104.62
372.16	69.8
372.371	75.95
372.582	39.08
372.792	80.04
373.003	55.47
373.214	80.04
373.424	92.33
373.635	61.61
373.846	104.62
374.056	34.99
374.267	77.99
374.477	57.51
374.688	63.66
374.898	80.04
375.109	75.95
375.319	-40.79
375.53	82.09
375.74	16.55
375.951	100.52
376.161	39.08
376.372	75.95
376.582	65.71
376.793	59.56
377.003	-59.22
377.214	-3.93
377.424	57.51
377.635	4.27
377.845	94.38
378.055	143.53
378.266	14.51
378.476	28.84
378.686	20.65
378.897	61.61
379.107	112.81
379.317	172.2
379.528	22.7
379.738	51.37
379.948	-20.31
380.158	129.19
380.369	67.75
380.579	75.95
380.789	32.94
380.999	92.33
381.21	77.99
381.42	100.52
381.63	59.56
381.84	86.19
382.05	47.27
382.261	137.38
382.471	26.79
382.681	-30.55
382.891	71.85
383.101	30.89
383.311	80.04
383.521	-3.93
383.731	69.8
383.941	77.99
384.151	8.36
384.361	88.23
384.571	49.32
384.781	22.7
384.991	92.33
385.201	88.23
385.411	10.41
385.621	121
385.831	41.13
386.041	30.89
386.251	43.18
386.461	108.71
386.671	34.99
386.881	61.61
387.091	-24.4
387.301	155.82
387.511	-26.45
387.72	108.71
387.93	88.23
388.14	-24.4
388.35	39.08
388.56	24.75
388.769	67.75
388.979	18.6
389.189	100.52
389.399	100.52
389.609	47.27
389.818	100.52
390.028	12.46
390.238	75.95
390.447	47.27
390.657	30.89
390.867	22.7
391.076	20.65
391.286	16.55
391.496	67.75
391.705	65.71
391.915	135.34
392.125	118.95
392.334	75.95
392.544	135.34
392.753	84.14
392.963	55.47
393.172	102.57
393.382	28.84
393.591	118.95
393.801	0.17
394.01	65.71
394.22	92.33
394.429	61.61
394.639	41.13
394.848	53.42
395.058	86.19
395.267	61.61
395.477	57.51
395.686	92.33
395.895	137.38
396.105	151.72
396.314	39.08
396.524	82.09
396.733	86.19
396.942	198.82
397.152	69.8
397.361	73.9
397.57	94.38
397.78	182.44
397.989	28.84
398.198	114.86
398.407	71.85
398.617	30.89
398.826	71.85
399.035	59.56
399.244	125.1
399.453	102.57
399.663	73.9
399.872	155.82
400.081	80.04
400.29	102.57
400.499	26.79
400.708	73.9
400.917	88.23
401.127	84.14
401.336	37.03
401.545	100.52
401.754	127.14
401.963	84.14
402.172	82.09
402.381	127.14
402.59	53.42
402.799	82.09
403.008	106.67
403.217	131.24
403.426	88.23
403.635	32.94
403.844	90.28
404.053	106.67
404.262	108.71
404.471	176.3
404.68	131.24
404.888	135.34
405.097	155.82
405.306	176.3
405.515	141.48
405.724	133.29
405.933	102.57
406.142	161.96
406.35	149.67
406.559	198.82
406.768	151.72
406.977	241.83
407.185	104.62
407.394	133.29
407.603	125.1
407.812	145.58
408.02	288.93
408.229	190.63
408.438	129.19
408.646	182.44
408.855	176.3
409.064	258.21
409.272	161.96
409.481	217.26
409.69	188.58
409.898	194.73
410.107	297.13
410.315	274.6
410.524	207.02
410.733	258.21
410.941	233.64
411.15	305.32
411.358	219.3
411.567	374.95
411.775	288.93
411.984	252.07
412.192	338.09
412.401	333.99
412.609	374.95
412.818	354.47
413.026	344.23
413.234	467.11
413.443	381.09
413.651	297.13
413.86	374.95
414.068	489.64
414.276	495.78
414.485	372.9
414.693	503.97
414.901	561.31
415.11	479.4
415.318	526.5
415.526	438.44
415.734	567.46
415.943	608.42
416.151	620.71
416.359	585.89
416.567	520.35
416.776	632.99
416.984	626.85
417.192	620.71
417.4	669.86
417.608	587.94
417.817	706.72
418.025	667.81
418.233	891.04
418.441	790.69
418.649	745.63
418.857	866.46
419.065	870.56
419.273	891.04
419.481	868.51
419.689	977.05
419.897	1075.35
420.105	1054.87
420.313	983.2
420.521	1101.98
420.729	1101.98
420.937	1157.27
421.145	1054.87
421.353	1212.57
421.561	1208.47
421.769	1380.5
421.977	1321.11
422.185	1362.07
422.393	1509.52
422.601	1538.2
422.809	1517.72
423.017	1583.25
423.224	1542.29
423.432	1587.35
423.64	1644.69
423.848	1808.53
424.056	1699.98
424.263	1980.56
424.471	1919.12
424.679	2037.9
424.887	2007.18
425.094	2068.62
425.302	2168.97
425.51	2222.22
425.718	2220.17
425.925	2363.53
426.133	2265.22
426.341	2386.05
426.548	2582.66
426.756	2766.98
426.964	2664.58
427.171	2818.18
427.379	2832.51
427.586	2852.99
427.794	3033.21
428.001	3129.47
428.209	3426.42
428.417	3248.25
428.624	3514.49
428.832	3448.95
429.039	3360.89
429.247	3424.37
429.454	3852.4
429.662	3956.85
429.869	3661.94
430.076	4155.5
430.284	3909.74
430.491	4223.08
430.699	4423.78
430.906	4259.95
431.114	4464.74
431.321	4425.83
431.528	4640.87
431.736	4882.53
431.943	5032.03
432.15	4974.69
432.358	5126.24
432.565	5281.88
432.772	5328.99
432.979	5568.6
433.187	5746.77
433.394	5699.67
433.601	6068.3
433.808	6080.59
434.016	5996.62
434.223	6477.9
434.43	6852.67
434.637	6662.21
434.844	6887.49
435.052	7163.97
435.259	6969.41
435.466	7180.35
435.673	7182.4
435.88	7393.34
436.087	7999.54
436.294	7829.56
436.501	7772.21
436.708	7860.27
436.915	8167.47
437.122	8638.5
437.329	8507.43
437.537	8818.72
437.743	9007.14
437.95	8796.2
438.157	9336.86
438.364	9627.67
438.571	9568.28
438.778	9771.03
438.985	10643.46
439.192	10313.74
439.399	10463.24
439.606	10160.14
439.813	10852.36
440.02	11329.53
440.227	11214.85
440.433	11411.45
440.64	11581.43
440.847	11556.86
441.054	11753.46
441.261	12763.11
441.467	12382.19
441.674	12492.78
441.881	12988.39
442.088	13215.71
442.294	13000.68
442.501	13486.04
442.708	13608.92
442.914	13979.61
443.121	14776.27
443.328	14338
443.534	15310.79
443.741	14663.63
443.948	14618.57
444.154	16000.95
444.361	15665.08
444.568	15953.85
444.774	15859.64
444.981	15959.99
445.187	16471.98
445.394	17377.19
445.6	16717.74
445.807	18556.82
446.013	17977.24
446.22	17938.33
446.426	19060.62
446.633	19132.29
446.839	19898.24
447.046	18710.41
447.252	20119.42
447.459	20086.65
447.665	19609.47
447.871	20836.2
448.078	21694.3
448.284	20502.39
448.491	21124.97
448.697	21950.3
448.903	22255.45
449.11	22648.66
449.316	22095.71
449.522	22802.25
449.728	22976.33
449.935	23201.61
450.141	23336.77
450.347	23768.9
450.553	23213.9
450.76	23396.17
450.966	24405.81
451.172	23889.73
451.378	24782.64
451.584	23836.48
451.791	24573.75
451.997	24549.17
452.203	25022.25
452.409	24858.42
452.615	25030.44
452.821	24158.01
453.027	23371.59
453.233	24921.9
453.44	24031.04
453.646	24241.98
453.852	24057.66
454.058	24600.37
454.264	23459.65
454.47	24282.94
454.676	24022.84
454.882	24860.46
455.088	22415.19
455.294	22871.89
455.5	22918.99
455.705	23459.65
455.911	22566.74
456.117	21815.13
456.323	21596
456.529	20432.75
456.735	21282.66
456.941	21167.98
457.147	20408.18
457.352	19883.9
457.558	19746.69
457.764	19859.32
457.97	19392.39
458.176	18605.97
458.381	18771.85
458.587	17782.68
458.793	18085.78
458.999	16975.78
459.204	18093.97
459.41	17874.84
459.616	16480.18
459.821	16611.25
460.027	16218.04
460.233	16191.41
460.438	15411.14
460.644	15396.8
460.85	14962.63
461.055	14413.77
461.261	14428.11
461.466	13490.14
461.672	13043.68
461.878	13844.44
462.083	12972
462.289	12650.47
462.494	12769.26
462.7	12406.77
462.905	11915.25
463.111	12109.81
463.316	12249.07
463.522	12062.71
463.727	12150.77
463.932	11968.5
464.138	11794.42
464.343	11941.88
464.549	11517.95
464.754	12171.25
464.959	11945.97
465.165	11888.63
465.37	11173.89
465.575	10737.67
465.781	11290.62
465.986	11415.55
466.191	10850.31
466.397	10737.67
466.602	10174.48
466.807	10696.71
467.012	10737.67
467.218	10614.79
467.423	10371.08
467.628	10491.91
467.833	10997.76
468.038	10653.7
468.244	10227.73
468.449	10676.23
468.654	10250.25
468.859	10067.99
469.064	10219.53
469.269	9914.39
469.474	9941.01
469.679	10020.88
469.885	9715.73
470.09	9758.74
470.295	9922.58
470.5	9689.11
470.705	9916.44
470.91	9568.28
471.115	9426.97
471.32	9347.1
471.525	9439.26
471.73	9228.32
471.935	9066.53
472.139	9027.62
472.344	9087.01
472.549	8847.4
472.754	8701.99
472.959	8593.45
473.164	8349.74
473.369	8445.99
473.574	8669.22
473.778	8460.33
473.983	8517.67
474.188	8501.29
474.393	8089.65
474.598	8165.42
474.802	8171.57
475.007	8030.26
475.212	7968.82
475.417	7649.33
475.621	7729.2
475.826	7622.71
476.031	7561.27
476.235	7299.13
476.44	7663.67
476.645	7379
476.849	7364.67
477.054	7323.71
477.259	7299.13
477.463	7352.38
477.668	7166.01
477.872	6985.79
478.077	7057.47
478.282	6815.81
478.486	6981.7
478.691	6647.88
478.895	6844.48
479.1	6692.93
479.304	6932.54
479.509	6520.9
479.713	6746.18
479.918	6432.84
480.122	6322.25
480.326	6434.89
480.531	6559.81
480.735	6473.8
480.94	6334.54
481.144	6318.15
481.348	6139.98
481.553	6361.16
481.757	6283.34
481.961	6189.13
482.166	6217.8
482.37	6223.95
482.574	6096.97
482.778	6135.89
482.983	6219.85
483.187	6215.76
483.391	6348.87
483.595	6064.21
483.8	6088.78
484.004	6242.38
484.208	6238.28
484.412	6217.8
484.616	6144.08
484.821	6234.19
485.025	6056.01
485.229	6199.37
485.433	6088.78
485.637	6174.8
485.841	6189.13
486.045	6158.41
486.249	6123.6
486.453	5959.76
486.657	6144.08
486.861	6217.8
487.065	6051.92
487.269	6191.18
487.473	6029.39
487.677	6187.08
487.881	6387.79
488.085	6309.96
488.289	6393.93
488.493	6049.87
488.697	6316.11
488.901	6279.24
489.105	6307.91
489.309	6291.53
489.512	6287.43
489.716	6215.76
489.92	6250.57
490.124	6199.37
490.328	6502.47
490.531	6258.76
490.735	6338.63
490.939	6438.98
491.143	6361.16
491.346	6328.39
491.55	6434.89
491.754	6406.22
491.958	6504.52
492.161	6602.82
492.365	6565.96
492.569	6539.33
492.772	6578.25
492.976	6594.63
493.18	6643.78
493.383	6682.69
493.587	6748.23
493.79	6942.78
493.994	6744.13
494.197	6830.15
494.401	6897.73
494.605	6783.04
494.808	7032.9
495.012	7129.15
495.215	7188.54
495.419	7182.4
495.622	7135.29
495.825	7317.56
496.029	7209.02
496.232	7376.95
496.436	7368.76
496.639	7397.43
496.843	7694.39
497.046	7612.47
497.249	7673.91
497.453	7856.18
497.656	7815.22
497.859	8038.45
498.063	7841.84
498.266	8120.37
498.469	8083.5
498.673	8101.94
498.876	8347.69
499.079	8458.28
499.282	8376.36
499.485	8636.45
499.689	8765.48
499.892	8986.66
500.095	8808.48
500.298	8988.71
500.501	9019.43
500.705	9152.54
500.908	9312.28
501.111	9351.2
501.314	9324.57
501.517	9793.56
501.72	9697.3
501.923	9644.06
502.126	9900.05
502.329	10008.59
502.532	10186.77
502.735	10395.66
502.938	10489.87
503.141	10469.39
503.344	10776.58
503.547	10749.96
503.75	10819.59
503.953	10917.89
504.156	11196.42
504.359	11137.02
504.562	11356.16
504.765	11497.47
504.968	11534.33
505.17	11802.61
505.373	11671.54
505.576	12081.14
505.779	12201.97
505.982	12310.51
506.185	12349.42
506.387	12705.77
506.59	12832.74
506.793	12996.58
506.996	12802.02
507.198	13305.82
507.401	13295.58
507.604	13434.85
507.807	13596.64
508.009	13795.29
508.212	13864.92
508.415	13928.41
508.617	14200.79
508.82	14450.64
509.022	14200.79
509.225	14827.46
509.428	15015.88
509.63	14819.27
509.833	14954.44
510.035	15591.36
510.238	15548.35
510.44	15458.24
510.643	15820.73
510.845	16295.86
511.048	15941.56
511.25	16396.21
511.453	16205.75
511.655	16965.54
511.858	16902.06
512.06	16897.96
512.262	17047.46
512.465	17082.28
512.667	17553.31
512.87	17815.45
513.072	17682.33
513.274	18071.45
513.477	18235.28
513.679	18577.3
513.881	18644.88
514.084	18798.48
514.286	18747.28
514.488	19259.27
514.69	19629.95
514.893	19490.69
515.095	19756.93
515.297	20100.98
515.499	20109.18
515.701	20494.19
515.904	20785.01
516.106	21137.26
516.308	21079.91
516.51	21352.29
516.712	21536.61
516.914	21698.4
517.116	22103.9
517.318	21987.16
517.52	22538.07
517.722	22335.32
517.925	22869.84
518.127	23193.42
518.329	23568.2
518.531	23498.56
518.733	23662.4
518.935	23850.81
519.136	24246.07
519.338	24661.81
519.54	24842.03
519.742	24784.69
519.944	24987.44
520.146	25421.61
520.348	25431.85
520.55	25562.92
520.752	25855.78
520.954	26513.17
521.155	26576.66
521.357	26875.66
521.559	26933.01
521.761	27631.37
521.963	27287.31
522.164	27645.7
522.366	27795.2
522.568	28247.8
522.77	28454.65
522.971	28655.35
523.173	28741.36
523.375	29187.82
523.576	29089.52
523.778	29368.04
523.98	29644.52
524.181	29742.82
524.383	29769.44
524.584	30271.2
524.786	30359.26
524.988	30467.8
525.189	30684.89
525.391	31096.53
525.592	31164.11
525.794	31141.58
525.995	31452.87
526.197	31461.07
526.398	31596.23
526.6	31805.13
526.801	31921.86
527.003	31770.31
527.204	32515.77
527.406	32698.04
527.607	32734.9
527.808	32890.55
528.01	32556.73
528.211	32851.64
528.412	33525.42
528.614	33689.26
528.815	33588.91
529.016	33846.95
529.218	33402.54
529.419	33689.26
529.62	33627.82
529.822	34211.49
530.023	33986.21
530.224	34186.91
530.425	34199.2
530.626	33986.21
530.828	34092.71
531.029	34977.43
531.23	34055.84
531.431	34903.7
531.632	34895.51
531.833	34954.9
532.035	34565.79
532.236	35110.55
532.437	35210.9
532.638	35128.98
532.839	35198.61
533.04	35122.83
533.241	34993.81
533.442	35341.97
533.643	35266.19
533.844	35393.17
534.045	35231.38
534.246	35006.1
534.447	35702.41
534.648	35167.89
534.849	35913.35
535.05	35206.8
535.251	35600.01
535.451	35294.86
535.652	35968.65
535.853	35454.61
536.054	36009.61
536.255	35563.15
536.456	35563.15
536.657	36202.11
536.857	35939.97
537.058	35387.02
537.259	35741.32
537.46	35958.41
537.66	35411.6
537.861	35810.95
538.062	35878.54
538.263	35552.91
538.463	35763.85
538.664	35540.62
538.865	35825.29
539.065	36243.07
539.266	35753.61
539.466	36097.67
539.667	35301.01
539.868	35634.83
540.068	35997.32
540.269	35825.29
540.469	35688.07
540.67	35712.65
540.87	35708.55
541.071	35663.5
541.271	35497.61
541.472	35438.22
541.672	35432.08
541.873	35755.66
542.073	35110.55
542.274	35870.34
542.474	35741.32
542.675	35470.99
542.875	35964.55
543.075	35726.99
543.276	35497.61
543.476	35958.41
543.676	35522.19
543.877	35772.04
544.077	35354.26
544.277	35430.03
544.478	35694.22
544.678	35694.22
544.878	35798.66
545.078	35649.16
545.279	35479.18
545.479	35507.85
545.679	35581.58
545.879	35946.12
546.079	35581.58
546.28	35624.59
546.48	35516.04
546.68	35874.44
546.88	35751.56
547.08	36034.18
547.28	35337.87
547.48	35217.04
547.68	35647.11
547.88	35327.63
548.081	35686.03
548.281	35962.5
548.481	35384.97
548.681	35708.55
548.881	35313.3
549.081	35638.92
549.28	35190.42
549.48	35604.11
549.68	35380.88
549.88	36048.52
550.08	35407.5
550.28	35485.33
550.48	35444.37
550.68	35718.79
550.88	35522.19
551.08	35171.99
551.279	35757.71
551.479	35186.32
551.679	35444.37
551.879	35292.82
552.079	35993.22
552.278	35309.2
552.478	35563.15
552.678	35808.9
552.878	35518.09
553.077	35430.03
553.277	35407.5
553.477	35456.65
553.676	35382.93
553.876	35509.9
554.076	34838.17
554.275	35159.7
554.475	34965.14
554.674	35354.26
554.874	35309.2
555.074	34805.4
555.273	34987.67
555.473	34883.22
555.672	34727.58
555.872	35239.57
556.071	34959
556.271	35241.62
556.47	34705.05
556.67	34246.3
556.869	34760.34
557.068	35034.77
557.268	34481.82
557.467	34453.15
557.667	34633.37
557.866	34510.49
558.065	34158.24
558.265	34207.39
558.464	34164.39
558.663	34520.73
558.863	33670.82
559.062	34756.25
559.261	34119.33
559.461	34490.01
559.66	33558.19
559.859	33920.68
560.058	33705.64
560.258	33717.93
560.457	33644.2
560.656	33799.85
560.855	32997.04
561.054	33627.82
561.253	33427.12
561.453	33396.4
561.652	33531.56
561.851	33533.61
562.05	33158.83
562.249	32544.44
562.448	33011.38
562.647	32923.32
562.846	32718.52
563.045	33019.57
563.244	32630.46
563.443	32880.31
563.642	32493.24
563.841	32351.93
564.04	32343.74
564.239	32552.63
564.438	32384.7
564.637	32251.58
564.836	32167.62
565.035	32112.32
565.234	32020.16
565.432	31692.49
565.631	31694.54
565.83	31481.55
566.029	31502.03
566.228	31528.65
566.427	31436.49
566.625	31055.57
566.824	30748.37
567.023	31383.24
567.222	30703.32
567.42	31076.05
567.619	30379.74
567.818	30916.31
568.016	30760.66
568.215	30486.23
568.414	30224.09
568.612	30760.66
568.811	29992.67
569.01	30326.49
569.208	29529.83
569.407	30365.4
569.605	29378.28
569.804	29916.9
570.002	29585.13
570.201	29492.97
570.4	29466.35
570.598	29208.3
570.797	29126.38
570.995	29128.43
571.193	28952.3
571.392	29157.1
571.59	28653.3
571.789	28540.66
571.987	28452.6
572.186	28561.14
572.384	28249.85
572.582	28454.65
572.781	28397.31
572.979	27707.14
573.177	27797.25
573.376	28036.86
573.574	27748.1
573.772	27703.04
573.971	27014.93
574.169	27227.92
574.367	27336.46
574.565	27748.1
574.763	27150.09
574.962	27393.8
575.16	26892.05
575.358	27023.12
575.556	26709.78
575.754	27234.06
575.952	26386.2
576.151	26857.23
576.349	26457.88
576.547	26122.01
576.745	26523.41
576.943	26316.57
577.141	26349.34
577.339	26048.29
577.537	26185.5
577.735	25962.27
577.933	25849.63
578.131	25958.17
578.329	25728.8
578.527	25675.55
578.725	25517.86
578.923	25626.4
579.121	25425.7
579.319	25163.56
579.516	25155.37
579.714	25052.97
579.912	24954.67
580.11	25016.11
580.308	24997.68
580.506	24827.7
580.704	24452.92
580.901	24737.59
581.099	24710.96
581.297	24442.68
581.495	24340.28
581.692	24483.64
581.89	24373.05
582.088	24219.45
582.285	23850.81
582.483	24020.8
582.681	23985.98
582.878	24043.32
583.076	23836.48
583.274	24115
583.471	23689.03
583.669	23832.38
583.866	23551.81
584.064	23578.43
584.262	23209.8
584.459	23639.87
584.657	23134.03
584.854	23207.75
585.052	22894.41
585.249	23142.22
585.447	23146.31
585.644	22441.81
585.841	23011.15
586.039	22927.18
586.236	22810.45
586.434	22607.7
586.631	22347.61
586.828	22505.3
587.026	22566.74
587.223	22388.57
587.42	22116.19
587.618	22075.23
587.815	21968.73
588.012	22155.1
588.21	22085.47
588.407	22028.12
588.604	21536.61
588.801	21741.41
588.999	21661.54
589.196	21845.85
589.393	21587.81
589.59	21276.52
589.787	21346.15
589.984	21268.33
590.182	21227.37
590.379	21106.54
590.576	21155.69
590.773	21104.49
590.97	20920.17
591.167	21299.05
591.364	20569.97
591.561	20854.64
591.758	20590.45
591.955	20684.66
592.152	20721.52
592.349	20502.39
592.546	20662.13
592.743	20471.67
592.94	20234.1
593.137	20303.73
593.334	20217.72
593.531	19953.53
593.727	20211.57
593.924	19988.35
594.121	19654.53
594.318	19961.72
594.515	19574.66
594.712	19822.46
594.908	19564.42
595.105	19588.99
595.302	19572.61
595.499	19486.59
595.696	19464.07
595.892	19130.25
596.089	19419.01
596.286	19484.55
596.482	19236.74
596.679	19371.91
596.876	19402.63
597.072	19189.64
597.269	19064.71
597.466	18839.44
597.662	18667.41
597.859	18618.25
598.055	18921.35
598.252	18472.85
598.448	18704.27
598.645	18198.42
598.841	18515.86
599.038	18626.45
599.234	18540.43
599.431	18421.65
599.627	18223
599.824	18214.8
600.02	18149.27
600.217	18212.76
600.413	18085.78
600.609	17989.53
600.806	17872.79
601.002	17930.14
601.198	17553.31
601.395	17610.65
601.591	17811.35
601.787	17864.6
601.984	17518.5
602.18	17739.68
602.376	17803.16
602.572	17624.99
602.769	17381.28
602.965	17174.44
603.161	17385.38
603.357	17002.41
603.553	17293.22
603.75	17229.73
603.946	16836.52
604.142	17131.43
604.338	16902.06
604.534	16816.04
604.73	16641.96
604.926	16779.18
605.122	16574.38
605.318	16650.16
605.514	16492.46
605.71	16496.56
605.906	16494.51
606.102	16527.28
606.298	16445.36
606.494	16484.27
606.69	16320.43
606.886	16269.23
607.082	15910.84
607.278	16062.39
607.474	15763.39
607.67	15996.85
607.866	15992.76
608.062	16086.97
608.257	16011.19
608.453	15810.49
608.649	15824.83
608.845	15923.13
609.041	15947.7
609.236	15570.88
609.432	15650.75
609.628	15624.12
609.824	15515.58
610.019	15206.34
610.215	15704
610.411	15349.7
610.606	15325.12
610.802	15507.39
610.998	15570.88
611.193	15345.6
611.389	15192
611.584	15136.71
611.78	14974.92
611.976	15159.24
612.171	15089.6
612.367	15118.28
612.562	15112.13
612.758	14804.94
612.953	14792.65
613.149	15130.56
613.344	14768.07
613.539	14995.4
613.735	14968.77
613.93	14839.75
614.126	14600.14
614.321	14909.38
614.517	14813.13
614.712	14661.58
614.907	14512.08
615.103	14569.42
615.298	14561.23
615.493	14594
615.688	14397.39
615.884	14497.74
616.079	14114.77
616.274	14471.12
616.47	14292.94
616.665	14290.9
616.86	14014.42
617.055	14208.98
617.25	14219.22
617.445	14270.42
617.641	14143.44
617.836	14127.06
618.031	14026.71
618.226	14114.77
618.421	13852.63
618.616	14131.16
618.811	13662.17
619.006	13787.1
619.201	13752.28
619.396	13772.76
619.591	13537.24
619.786	13733.85
619.981	13467.61
620.176	13758.42
620.371	13230.05
620.566	13555.68
620.761	13445.09
620.956	13365.21
621.151	13201.38
621.346	13555.68
621.541	12871.65
621.735	13316.06
621.93	12859.37
622.125	12695.53
622.32	12701.67
622.515	12752.87
622.709	12609.51
622.904	12816.36
623.099	12392.43
623.294	12734.44
623.488	12455.92
623.683	12490.73
623.878	12179.44
624.072	12267.5
624.267	12244.98
624.462	12218.35
624.656	11833.33
624.851	12079.09
625.046	11876.34
625.24	11669.5
625.435	11548.67
625.629	11782.13
625.824	11632.63
626.018	11575.29
626.213	11624.44
626.407	11390.97
626.602	11300.86
626.796	11399.16
626.991	11315.2
627.185	11182.08
627.38	11266.05
627.574	11022.34
627.768	10909.7
627.963	10774.53
628.157	10792.97
628.352	10883.08
628.546	10637.32
628.74	10670.09
628.935	10690.57
629.129	10631.18
629.323	10485.77
629.517	10498.06
629.712	10588.17
629.906	10422.28
630.1	10321.93
630.294	10330.13
630.489	10233.87
630.683	10321.93
630.877	10043.41
631.071	10162.19
631.265	9953.3
631.459	9859.09
631.653	9775.13
631.848	9842.71
632.042	9672.73
632.236	9945.11
632.43	9674.78
632.624	9717.78
632.818	9588.76
633.012	9535.51
633.206	9553.94
633.4	9369.63
633.594	9213.98
633.788	9443.35
633.982	9394.2
634.176	9277.47
634.369	9066.53
634.563	8892.45
634.757	8972.32
634.951	9201.69
635.145	9158.69
635.339	8871.97
635.533	8978.47
635.726	9033.76
635.92	8943.65
636.114	8753.19
636.308	8845.35
636.501	8706.09
636.695	8734.76
636.889	8642.6
637.083	8525.86
637.276	8552.49
637.47	8390.7
637.664	8497.19
637.857	8335.4
638.051	8425.51
638.244	8099.89
638.438	8118.32
638.632	8173.61
638.825	7952.43
639.019	8190
639.212	7966.77
639.406	7987.25
639.599	7856.18
639.793	8026.16
639.986	7794.74
640.18	7839.8
640.373	7909.43
640.567	7753.78
640.76	7665.72
640.954	7741.49
641.147	7557.18
641.34	7602.23
641.534	7399.48
641.727	7292.99
641.92	7372.86
642.114	7559.22
642.307	7450.68
642.5	7307.32
642.694	7196.73
642.887	6987.84
643.08	7178.3
643.273	7151.68
643.467	7073.85
643.66	7020.61
643.853	6940.74
644.046	6973.5
644.239	6914.11
644.432	6766.66
644.626	7014.46
644.819	6750.28
645.012	6856.77
645.205	6639.69
645.398	6637.64
645.591	6643.78
645.784	6750.28
645.977	6477.9
646.17	6473.8
646.363	6477.9
646.556	6258.76
646.749	6373.45
646.942	6443.08
647.135	6525
647.328	6162.51
647.521	6234.19
647.714	6176.84
647.907	6256.72
648.099	6174.8
648.292	6139.98
648.485	6023.25
648.678	5970
648.871	6082.64
649.064	6213.71
649.256	6129.74
649.449	5865.55
649.642	5791.83
649.835	5851.22
650.027	5843.03
650.22	5787.73
650.413	5904.46
650.605	5933.14
650.798	5697.62
650.991	5695.57
651.183	5589.08
651.376	5748.82
651.568	5720.15
651.761	5687.38
651.954	5546.07
652.146	5433.43
652.339	5546.07
652.531	5429.34
652.724	5392.47
652.916	5304.41
653.109	5333.08
653.301	5423.19
653.494	5328.99
653.686	5267.55
653.879	5308.51
654.071	5263.45
654.263	5355.61
654.456	5247.07
654.648	5212.25
654.84	5261.4
655.033	5195.87
655.225	5070.94
655.417	5181.53
655.61	5175.39
655.802	5005.41
655.994	5077.09
656.186	5029.98
656.379	5015.65
656.571	4751.46
656.763	4827.23
656.955	4911.2
657.148	4933.73
657.34	4886.62
657.532	4913.25
657.724	4667.49
657.916	4896.86
658.108	4681.83
658.3	4649.06
658.492	4700.26
658.684	4720.74
658.876	4665.44
659.068	4726.88
659.26	4520.04
659.452	4515.94
659.644	4517.99
659.836	4538.47
660.028	4634.72
660.22	4382.82
660.412	4462.69
660.604	4399.21
660.796	4448.36
660.988	4327.53
661.18	4380.78
661.372	4413.54
661.563	4380.78
661.755	4382.82
661.947	4419.69
662.139	4393.06
662.331	4466.79
662.522	4184.17
662.714	4126.83
662.906	4247.66
663.097	4163.69
663.289	4198.51
663.481	4006
663.673	4278.38
663.864	4155.5
664.056	4118.64
664.247	3997.81
664.439	4065.39
664.631	4008.05
664.822	4178.03
665.014	3876.98
665.205	4087.92
665.397	3987.57
665.588	4147.31
665.78	3971.18
665.971	4044.91
666.163	3919.98
666.354	3922.03
666.546	3842.16
666.737	3864.69
666.929	4016.24
667.12	3915.89
667.311	3737.71
667.503	3829.87
667.694	3862.64
667.885	3795.06
668.077	3831.92
668.268	3729.52
668.459	3829.87
668.651	3803.25
668.842	3772.53
669.033	3612.79
669.224	3694.71
669.416	3872.88
669.607	3770.48
669.798	3655.79
669.989	3750
670.18	3715.19
670.371	3723.38
670.563	3659.89
670.754	3663.99
670.945	3694.71
671.136	3633.27
671.327	3754.1
671.518	3663.99
671.709	3637.36
671.9	3557.49
672.091	3592.31
672.282	3684.47
672.473	3534.96
672.664	3692.66
672.855	3465.33
673.046	3594.36
673.237	3682.42
673.428	3733.62
673.619	3633.27
673.809	3440.76
674	3551.35
674.191	3803.25
674.382	3555.44
674.573	3588.21
674.764	3405.94
674.954	3541.11
675.145	3598.45
675.336	3453.05
675.527	3496.05
675.717	3551.35
675.908	3545.2
676.099	3612.79
676.289	3469.43
676.48	3559.54
676.671	3524.72
676.861	3663.99
677.052	3537.01
677.243	3500.15
677.433	3534.96
677.624	3600.5
677.814	3655.79
678.005	3473.53
678.195	3586.16
678.386	3551.35
678.576	3475.57
678.767	3625.08
678.957	3723.38
679.148	3547.25
679.338	3647.6
679.529	3551.35
679.719	3461.24
679.909	3549.3
680.1	3600.5
680.29	3686.51
680.481	3680.37
680.671	3594.36
680.861	3580.02
681.052	3670.13
681.242	3481.72
681.432	3438.71
681.622	3610.74
681.813	3623.03
682.003	3526.77
682.193	3582.07
682.383	3786.86
682.573	3586.16
682.764	3565.68
682.954	3543.16
683.144	3623.03
683.334	3653.75
683.524	3582.07
683.714	3659.89
683.904	3666.03
684.094	3569.78
684.284	3598.45
684.474	3711.09
684.664	3620.98
684.854	3737.71
685.044	3704.95
685.234	3539.06
685.424	3678.32
685.614	3682.42
685.804	3663.99
685.994	3543.16
686.184	3508.34
686.374	3584.12
686.564	3547.25
686.753	3596.4
686.943	3600.5
687.133	3444.85
687.323	3496.05
687.513	3420.28
687.702	3387.51
687.892	3541.11
688.082	3387.51
688.272	3422.33
688.461	3383.42
688.651	3418.23
688.841	3440.76
689.03	3405.94
689.22	3471.48
689.41	3330.17
689.599	3209.34
689.789	3262.58
689.979	3444.85
690.168	3328.12
690.358	3164.28
690.547	3264.63
690.737	3223.67
690.926	3221.63
691.116	3270.78
691.305	3227.77
691.495	3307.64
691.684	3192.95
691.874	3078.27
692.063	3104.89
692.252	3156.09
692.442	3221.63
692.631	3162.23
692.82	3137.66
693.01	3065.98
693.199	3068.03
693.388	3057.79
693.578	3031.16
693.767	3106.94
693.956	3129.47
694.146	3018.88
694.335	3092.6
694.524	2869.37
694.713	3145.85
694.902	3051.64
695.092	3049.6
695.281	2916.48
695.47	2984.06
695.659	2891.9
695.848	3051.64
696.037	2852.99
696.226	3008.64
696.415	2973.82
696.604	2855.04
696.793	3012.73
696.982	2949.25
697.171	2848.9
697.36	2883.71
697.549	2877.57
697.738	2855.04
697.927	2984.06
698.116	2896
698.305	2900.09
698.494	2879.61
698.683	2965.63
698.872	2973.82
699.061	2969.73
699.25	2941.05
699.438	2982.01
699.627	2896
699.816	2988.16
700.005	2926.72
700.193	2916.48
700.382	2918.53
700.571	2947.2
700.76	2992.25
700.948	2998.4
701.137	2871.42
701.326	2896
701.514	2764.93
701.703	2943.1
701.892	3125.37
702.08	3082.36
702.269	2928.77
702.457	2896
702.646	3012.73
702.834	2896
703.023	2975.87
703.212	3051.64
703.4	2855.04
703.589	2896
703.777	3057.79
703.965	2996.35
704.154	3074.17
704.342	2885.76
704.531	3010.68
704.719	2922.62
704.907	3006.59
705.096	2998.4
705.284	3004.54
705.472	2975.87
705.661	2992.25
705.849	2969.73
706.037	3029.12
706.226	3102.84
706.414	3063.93
706.602	2988.16
706.79	3010.68
706.979	2992.25
707.167	2973.82
707.355	3070.08
707.543	3092.6
707.731	3094.65
707.919	3022.97
708.107	3063.93
708.296	2920.57
708.484	2990.21
708.672	3133.56
708.86	3104.89
709.048	3121.28
709.236	3111.04
709.424	3123.32
709.612	3127.42
709.8	3014.78
709.988	3000.44
710.176	3252.35
710.364	3123.32
710.551	3080.32
710.739	3094.65
710.927	3254.39
711.115	3051.64
711.303	3227.77
711.491	3225.72
711.679	3008.64
711.866	3123.32
712.054	3221.63
712.242	3059.84
712.43	3211.39
712.617	3201.15
712.805	3098.75
712.993	3076.22
713.181	3258.49
713.368	3301.5
713.556	3178.62
713.744	3182.71
713.931	3246.2
714.119	3252.35
714.306	3264.63
714.494	3231.87
714.682	3217.53
714.869	3125.37
715.057	3432.57
715.244	3244.15
715.432	3197.05
715.619	3219.58
715.807	3328.12
715.994	3229.82
716.182	3246.2
716.369	3254.39
716.556	3360.89
716.744	3324.02
716.931	3178.62
717.119	3287.16
717.306	3197.05
717.493	3278.97
717.681	3551.35
717.868	3328.12
718.055	3344.5
718.242	3414.13
718.43	3420.28
718.617	3438.71
718.804	3424.37
718.991	3534.96
719.179	3426.42
719.366	3344.5
719.553	3332.22
719.74	3498.1
719.927	3496.05
720.114	3446.9
720.301	3424.37
720.488	3471.48
720.676	3532.92
720.863	3500.15
721.05	3627.12
721.237	3469.43
721.424	3534.96
721.611	3534.96
721.798	3407.99
721.985	3467.38
722.172	3641.46
722.358	3432.57
722.545	3610.74
722.732	3438.71
722.919	3526.77
723.106	3594.36
723.293	3491.96
723.48	3563.64
723.667	3520.63
723.853	3477.62
724.04	3604.6
724.227	3401.85
724.414	3600.5
724.6	3668.08
724.787	3688.56
724.974	3586.16
725.161	3627.12
725.347	3500.15
725.534	3600.5
725.72	3623.03
725.907	3520.63
726.094	3678.32
726.28	3561.59
726.467	3774.58
726.653	3475.57
726.84	3659.89
727.027	3965.04
727.213	3584.12
727.4	3788.91
727.586	3752.05
727.773	3733.62
727.959	3756.15
728.145	3799.15
728.332	3678.32
728.518	3760.24
728.705	3678.32
728.891	3715.19
729.077	3614.84
729.264	3721.33
729.45	3795.06
729.636	3917.93
729.823	3780.72
730.009	3770.48
730.195	3813.49
730.382	3623.03
730.568	3764.34
730.754	3788.91
730.94	3725.43
731.126	3868.78
731.313	3803.25
731.499	3901.55
731.685	3936.37
731.871	3735.67
732.057	3788.91
732.243	3895.41
732.429	3889.26
732.615	3866.74
732.801	3764.34
732.987	3803.25
733.173	3819.63
733.359	3827.82
733.545	3909.74
733.731	3895.41
733.917	3891.31
734.103	3856.5
734.289	3922.03
734.475	3829.87
734.661	3993.71
734.847	3891.31
735.033	3786.86
735.219	3889.26
735.404	3790.96
735.59	3795.06
735.776	3750
735.962	3874.93
736.148	3944.56
736.333	3862.64
736.519	3938.41
736.705	3891.31
736.89	3971.18
737.076	3786.86
737.262	3813.49
737.447	3915.89
737.633	3926.13
737.819	3876.98
738.004	3881.07
738.19	3776.63
738.375	3788.91
738.561	3840.11
738.747	3879.02
738.932	3876.98
739.118	3895.41
739.303	3809.39
739.489	3897.46
739.674	3881.07
739.859	3790.96
740.045	3934.32
740.23	3770.48
740.416	3793.01
740.601	3883.12
740.786	3858.54
740.972	3836.02
741.157	3758.19
741.342	3793.01
741.528	3739.76
741.713	3684.47
741.898	3596.4
742.084	3668.08
742.269	3717.23
742.454	3627.12
742.639	3676.27
742.824	3786.86
743.01	3719.28
743.195	3729.52
743.38	3633.27
743.565	3537.01
743.75	3614.84
743.935	3682.42
744.12	3616.88
744.305	3537.01
744.49	3719.28
744.675	3539.06
744.86	3655.79
745.045	3631.22
745.23	3584.12
745.415	3522.68
745.6	3461.24
745.785	3467.38
745.97	3545.2
746.155	3487.86
746.34	3524.72
746.525	3385.46
746.71	3367.03
746.895	3326.07
747.079	3383.42
747.264	3252.35
747.449	3393.65
747.634	3264.63
747.819	3393.65
748.003	3334.26
748.188	3289.21
748.373	3379.32
748.557	3131.51
748.742	3213.43
748.927	3176.57
749.111	3211.39
749.296	3100.8
749.481	3231.87
749.665	3141.75
749.85	3131.51
750.034	3115.13
750.219	3014.78
750.404	3008.64
750.588	3055.74
750.773	3065.98
750.957	3004.54
751.141	2979.97
751.326	2891.9
751.51	3002.49
751.695	2986.11
751.879	2900.09
752.064	2959.49
752.248	2869.37
752.432	2955.39
752.617	2916.48
752.801	2795.65
752.985	2859.14
753.17	2793.6
753.354	2769.02
753.538	2760.83
753.722	2670.72
753.907	2748.54
754.091	2586.76
754.275	2683.01
754.459	2521.22
754.643	2603.14
754.828	2646.15
755.012	2541.7
755.196	2564.23
755.38	2564.23
755.564	2607.23
755.748	2570.37
755.932	2578.56
756.116	2486.4
756.3	2529.41
756.484	2445.45
756.668	2504.84
756.852	2445.45
757.036	2433.16
757.22	2402.44
757.404	2375.81
757.588	2400.39
757.772	2367.62
757.956	2316.42
758.14	2349.19
758.323	2211.98
758.507	2293.9
758.691	2236.55
758.875	2304.14
759.059	2252.94
759.242	2171.02
759.426	2254.98
759.61	2181.26
759.794	2183.31
759.977	2136.2
760.161	2306.18
760.345	2201.74
760.528	2144.39
760.712	2093.19
760.895	2138.25
761.079	2232.46
761.263	2056.33
761.446	2062.48
761.63	2050.19
761.813	2031.76
761.997	1947.79
762.18	2111.63
762.364	2021.52
762.547	2044.04
762.731	1867.92
762.914	1869.97
763.098	1943.69
763.281	1976.46
763.464	1933.45
763.648	1894.54
763.831	1845.39
764.015	1890.45
764.198	1853.58
764.381	1882.25
764.564	1935.5
764.748	1900.69
764.931	1955.98
765.114	1921.17
765.297	1843.34
765.481	1767.57
765.664	1833.1
765.847	1829.01
766.03	1822.86
766.213	1923.21
766.397	1892.49
766.58	1771.66
766.763	1806.48
766.946	1783.95
767.129	1779.86
767.312	1788.05
767.495	1673.36
767.678	1796.24
767.861	1745.04
768.044	1779.86
768.227	1755.28
768.41	1728.66
768.593	1810.58
768.776	1697.94
768.959	1702.03
769.142	1708.18
769.324	1640.59
769.507	1603.73
769.69	1636.5
769.873	1745.04
770.056	1618.07
770.239	1548.44
770.421	1650.83
770.604	1532.05
770.787	1613.97
770.97	1677.46
771.152	1476.76
771.335	1573.01
771.518	1546.39
771.7	1542.29
771.883	1589.39
772.066	1517.72
772.248	1521.81
772.431	1521.81
772.613	1517.72
772.796	1446.04
772.978	1564.82
773.161	1534.1
773.343	1464.47
773.526	1380.5
773.708	1360.02
773.891	1345.69
774.073	1470.61
774.256	1380.5
774.438	1538.2
774.621	1304.73
774.803	1355.93
774.985	1390.74
775.168	1271.96
775.35	1296.53
775.532	1370.26
775.715	1263.77
775.897	1284.25
776.079	1278.1
776.261	1253.53
776.444	1329.3
776.626	1284.25
776.808	1149.08
776.99	1259.67
777.173	1251.48
777.355	1175.7
777.537	1214.62
777.719	1144.99
777.901	1142.94
778.083	1194.14
778.265	1202.33
778.447	1214.62
778.629	1171.61
778.811	1116.31
778.993	1073.31
779.175	1114.27
779.357	1196.18
779.539	1091.74
779.721	1122.46
779.903	1136.79
780.085	1106.07
780.267	1138.84
780.449	1048.73
780.631	1069.21
780.812	1034.39
780.994	1093.79
781.176	1138.84
781.358	985.24
781.54	1065.11
781.721	1040.54
781.903	1087.64
782.085	1036.44
782.267	944.28
782.448	979.1
782.63	925.85
782.812	917.66
782.993	917.66
783.175	1009.82
783.357	913.56
783.538	913.56
783.72	977.05
783.901	903.32
784.083	888.99
784.264	917.66
784.446	886.94
784.627	888.99
784.809	819.36
784.99	854.17
785.172	819.36
785.353	807.07
785.535	823.45
785.716	848.03
785.897	845.98
786.079	856.22
786.26	815.26
786.441	794.78
786.623	776.35
786.804	739.49
786.985	747.68
787.167	678.05
787.348	805.02
787.529	702.62
787.71	755.87
787.891	778.4
788.073	692.38
788.254	721.06
788.435	727.2
788.616	753.82
788.797	639.14
788.978	678.05
789.159	635.04
789.34	770.21
789.522	645.28
789.703	719.01
789.884	641.18
790.065	665.76
790.246	702.62
790.427	716.96
790.607	710.82
790.788	680.1
790.969	610.47
791.15	630.95
791.331	667.81
791.512	706.72
791.693	686.24
791.874	645.28
792.054	694.43
792.235	571.55
792.416	579.75
792.597	579.75
792.778	727.2
792.958	606.37
793.139	645.28
793.32	573.6
793.5	587.94
793.681	596.13
793.862	587.94
794.042	632.99
794.223	497.83
794.404	618.66
794.584	563.36
794.765	520.35
794.945	499.88
795.126	553.12
795.306	604.32
795.487	561.31
795.667	493.73
795.848	567.46
796.028	510.11
796.209	536.74
796.389	614.56
796.57	546.98
796.75	522.4
796.93	657.57
797.111	493.73
797.291	514.21
797.471	561.31
797.652	477.35
797.832	532.64
798.012	549.03
798.192	526.5
798.373	487.59
798.553	491.68
798.733	458.92
798.913	438.44
799.093	438.44
799.274	506.02
799.454	411.81
799.634	497.83
799.814	493.73
799.994	481.44
800.174	422.05
800.354	514.21
800.534	442.53
800.714	444.58
800.894	411.81
801.074	362.66
801.254	428.2
801.434	497.83
801.614	463.01
801.794	403.62
801.974	1124.51
802.154	364.71
802.334	442.53
802.514	342.18
802.693	430.24
802.873	415.91
803.053	379.04
803.233	381.09
803.413	426.15
803.592	321.7
803.772	370.85
803.952	501.92
804.131	391.33
804.311	424.1
804.491	411.81
804.67	420
804.85	370.85
805.03	370.85
805.209	422.05
805.389	262.31
805.568	407.72
805.748	366.76
805.928	387.24
806.107	313.51
806.287	456.87
806.466	344.23
806.646	333.99
806.825	346.28
807.004	301.22
807.184	309.41
807.363	393.38
807.543	354.47
807.722	319.65
807.901	360.61
808.081	356.52
808.26	241.83
808.439	354.47
808.619	295.08
808.798	295.08
808.977	313.51
809.156	372.9
809.336	280.74
809.515	290.98
809.694	268.45
809.873	352.42
810.052	415.91
810.231	397.48
810.411	317.61
810.59	329.89
810.769	352.42
810.948	329.89
811.127	260.26
811.306	303.27
811.485	286.89
811.664	297.13
811.843	194.73
812.022	272.55
812.201	260.26
812.38	284.84
812.559	272.55
812.737	348.33
812.916	293.03
813.095	194.73
813.274	340.13
813.453	274.6
813.632	272.55
813.811	303.27
813.989	272.55
814.168	301.22
814.347	223.4
814.526	303.27
814.704	295.08
814.883	225.45
815.062	223.4
815.24	309.41
815.419	247.97
815.598	250.02
815.776	252.07
815.955	262.31
816.133	235.69
816.312	223.4
816.49	157.86
816.669	274.6
816.847	190.63
817.026	223.4
817.204	245.93
817.383	247.97
817.561	221.35
817.74	250.02
817.918	295.08
818.097	254.12
818.275	108.71
818.453	250.02
818.632	278.69
818.81	204.97
818.988	215.21
819.167	239.78
819.345	204.97
819.523	270.5
819.701	229.54
819.879	219.3
820.058	127.14
820.236	221.35
820.414	293.03
820.592	231.59
820.77	180.39
820.948	256.17
821.127	239.78
821.305	231.59
821.483	147.62
821.661	198.82
821.839	207.02
822.017	190.63
822.195	172.2
822.373	252.07
822.551	184.49
822.729	299.17
822.907	202.92
823.085	168.1
823.262	176.3
823.44	217.26
823.618	118.95
823.796	170.15
823.974	157.86
824.152	178.34
824.329	213.16
824.507	219.3
824.685	204.97
824.863	172.2
825.04	223.4
825.218	215.21
825.396	237.74
825.574	329.89
825.751	286.89
825.929	245.93
826.107	184.49
826.284	182.44
826.462	155.82
826.639	161.96
826.817	184.49
826.994	170.15
827.172	69.8
827.349	186.54
827.527	198.82
827.704	182.44
827.882	164.01
828.059	137.38
828.237	151.72
828.414	245.93
828.591	188.58
828.769	204.97
828.946	121
829.124	258.21
829.301	123.05
829.478	188.58
829.655	159.91
829.833	184.49
830.01	137.38
830.187	204.97
830.364	77.99
830.542	184.49
830.719	235.69
830.896	204.97
831.073	180.39
831.25	84.14
831.427	149.67
831.604	194.73
831.782	133.29
831.959	170.15
832.136	80.04
832.313	168.1
832.49	182.44
832.667	166.06
832.844	110.76
833.021	172.2
833.198	121
833.374	153.77
833.551	159.91
833.728	149.67
833.905	157.86
834.082	106.67
834.259	114.86
834.436	213.16
834.612	147.62
834.789	166.06
834.966	145.58
835.143	231.59
835.319	37.03
835.496	161.96
835.673	166.06
835.85	250.02
836.026	211.11
836.203	176.3
836.38	123.05
836.556	94.38
836.733	131.24
836.909	143.53
837.086	133.29
837.262	67.75
837.439	192.68
837.616	114.86
837.792	166.06
837.968	61.61
838.145	63.66
838.321	100.52
838.498	157.86
838.674	121
838.851	161.96
839.027	80.04
839.203	59.56
839.38	125.1
839.556	100.52
839.732	123.05
839.909	73.9
840.085	164.01
840.261	125.1
840.437	86.19
840.614	96.43
840.79	92.33
840.966	204.97
841.142	104.62
841.318	86.19
841.494	90.28
841.671	157.86
841.847	20.65
842.023	94.38
842.199	151.72
842.375	135.34
842.551	26.79
842.727	129.19
842.903	151.72
843.079	47.27
843.255	153.77
843.431	125.1
843.607	94.38
843.783	69.8
843.959	121
844.134	69.8
844.31	145.58
844.486	59.56
844.662	127.14
844.838	159.91
845.013	102.57
845.189	164.01
845.365	129.19
845.541	47.27
845.716	100.52
845.892	114.86
846.068	77.99
846.244	47.27
846.419	125.1
846.595	49.32
846.77	28.84
846.946	127.14
847.122	84.14
847.297	106.67
847.473	63.66
847.648	47.27
847.824	94.38
847.999	65.71
848.175	57.51
848.35	164.01
848.526	98.47
848.701	51.37
848.876	92.33
849.052	149.67
849.227	88.23
849.403	141.48
849.578	20.65
849.753	63.66
849.929	110.76
850.104	26.79
850.279	0.17
850.454	118.95
850.63	121
850.805	151.72
850.98	80.04
851.155	88.23
851.33	137.38
851.505	6.31
851.681	127.14
851.856	92.33
852.031	86.19
852.206	151.72
852.381	28.84
852.556	65.71
852.731	84.14
852.906	82.09
853.081	102.57
853.256	133.29
853.431	41.13
853.606	43.18
853.781	-5.97
853.956	63.66
854.131	61.61
854.305	32.94
854.48	45.23
854.655	-12.12
854.83	53.42
855.005	49.32
855.18	75.95
855.354	77.99
855.529	34.99
855.704	14.51
855.879	106.67
856.053	80.04
856.228	10.41
856.403	47.27
856.577	39.08
856.752	67.75
856.926	63.66
857.101	118.95
857.276	51.37
857.45	53.42
857.625	67.75
857.799	12.46
857.974	129.19
858.148	32.94
858.323	-22.36
858.497	82.09
858.672	26.79
858.846	16.55
859.02	106.67
859.195	112.81
859.369	6.31
859.543	75.95
859.718	153.77
859.892	137.38
860.066	94.38
860.241	0.17
860.415	84.14
860.589	41.13
860.763	49.32
860.938	63.66
861.112	71.85
861.286	-26.45
861.46	102.57
861.634	65.71
861.808	127.14
861.982	61.61
862.157	20.65
862.331	-3.93
862.505	14.51
862.679	63.66
862.853	49.32
863.027	49.32
863.201	112.81
863.375	65.71
863.549	131.24
863.722	61.61
863.896	37.03
864.07	51.37
864.244	51.37
864.418	51.37
864.592	14.51
864.766	-3.93
864.939	77.99
865.113	34.99
865.287	51.37
865.461	-10.07
865.634	67.75
865.808	80.04
865.982	-12.12
866.156	-22.36
866.329	92.33
866.503	151.72
866.676	49.32
866.85	47.27
867.024	12.46
867.197	-3.93
867.371	104.62
867.544	69.8
867.718	-10.07
867.891	86.19
868.065	69.8
868.238	69.8
868.412	45.23
868.585	73.9
868.759	-22.36
868.932	30.89
869.105	26.79
869.279	30.89
869.452	18.6
869.625	131.24
869.799	26.79
869.972	-3.93
870.145	59.56
870.319	24.75
870.492	34.99
870.665	34.99
870.838	14.51
871.011	-18.26
871.185	-20.31
871.358	28.84
871.531	65.71
871.704	55.47
871.877	12.46
872.05	16.55
872.223	-36.69
872.396	84.14
872.569	22.7
872.742	6.31
872.915	71.85
873.088	16.55
873.261	55.47
873.434	10.41
873.607	16.55
873.78	55.47
873.953	2.22
874.126	-16.21
874.299	20.65
874.471	20.65
874.644	2.22
874.817	94.38
874.99	80.04
875.163	-28.5
875.335	59.56
875.508	18.6
875.681	100.52
875.853	94.38
876.026	96.43
876.199	34.99
876.371	43.18
876.544	-14.17
876.717	30.89
876.889	71.85
877.062	69.8
877.234	28.84
877.407	34.99
877.579	61.61
877.752	-22.36
877.924	41.13
878.097	34.99
878.269	-30.55
878.442	53.42
878.614	151.72
878.786	59.56
878.959	24.75
879.131	55.47
879.303	30.89
879.476	22.7
879.648	69.8
879.82	24.75
879.993	20.65
880.165	2.22
880.337	32.94
880.509	65.71
880.681	6.31
880.854	-3.93
881.026	77.99
881.198	207.02
881.37	94.38
881.542	-3.93
881.714	2.22
881.886	-12.12
882.058	118.95
882.23	67.75
882.402	-14.17
882.574	-3.93
882.746	51.37
882.918	47.27
883.09	-1.88
883.262	-3.93
883.434	-5.97
883.606	-65.36
883.778	-16.21
883.95	92.33
884.122	-10.07
884.293	28.84
884.465	67.75
884.637	39.08
884.809	43.18
884.98	67.75
885.152	10.41
885.324	96.43
885.496	-3.93
885.667	24.75
885.839	-14.17
886.011	75.95
886.182	34.99
886.354	59.56
886.525	26.79
886.697	22.7
886.869	-42.84
887.04	63.66
887.212	75.95
887.383	51.37
887.555	-14.17
887.726	-61.27
887.897	-42.84
888.069	-14.17
888.24	8.36
888.412	53.42
888.583	-20.31
888.754	34.99
888.926	-65.36
889.097	47.27
889.268	-48.98
889.44	104.62
889.611	53.42
889.782	-22.36
889.953	0.17
890.125	51.37
890.296	8.36
890.467	69.8
890.638	14.51
890.809	-22.36
890.98	-14.17
891.151	61.61
891.323	37.03
891.494	10.41
891.665	-34.64
891.836	77.99
892.007	22.7
892.178	-1.88
892.349	32.94
892.52	41.13
892.691	86.19
892.862	47.27
893.032	-22.36
893.203	-22.36
893.374	34.99
893.545	61.61
893.716	75.95
893.887	88.23
894.057	-26.45
894.228	4.27
894.399	-24.4
894.57	67.75
894.74	14.51
894.911	49.32
895.082	30.89
895.253	-26.45
895.423	-28.5
895.594	102.57
895.764	-10.07
895.935	-34.64
896.106	51.37
896.276	-30.55
896.447	47.27
896.617	4.27
896.788	12.46
896.958	20.65
897.129	30.89
897.299	18.6
897.47	69.8
897.64	69.8
897.81	16.55
897.981	39.08
898.151	-20.31
898.322	90.28
898.492	53.42
898.662	12.46
898.832	16.55
899.003	-53.08
899.173	-20.31
899.343	-24.4
899.513	-26.45
