Data from USB4F104151__84__12-24-30-235.txt Node

Date: Fri Mar 14 12:24:30 EDT 2025
User: louis
Spectrometer: USB4F10415
Trigger mode: 4
Integration Time (sec): 3.500000E-2
Scans to average: 1
Electric dark correction enabled: true
Nonlinearity correction enabled: false
Boxcar width: 0
XAxis mode: Wavelengths
Number of Pixels in Spectrum: 3648
>>>>>Begin Spectral Data<<<<<
178.204	-149.16
178.424	-149.16
178.644	-149.16
178.864	-190.12
179.084	-206.5
179.304	57.68
179.524	-18.09
179.744	18.77
179.964	39.25
180.184	-130.73
180.404	31.06
180.624	-32.43
180.844	-11.95
181.064	-24.23
181.283	98.64
181.503	-44.71
181.723	16.73
181.943	-30.38
182.163	74.07
182.383	-57
182.602	29.01
182.822	74.07
183.042	18.77
183.262	26.96
183.482	-50.86
183.701	16.73
183.921	16.73
184.141	10.58
184.361	22.87
184.58	90.45
184.8	-7.85
185.02	37.2
185.239	80.21
185.459	61.78
185.679	72.02
185.898	-20.14
186.118	-1.71
186.338	-11.95
186.557	2.39
186.777	-50.86
186.997	-7.85
187.216	8.53
187.436	35.16
187.655	-3.75
187.875	72.02
188.095	37.2
188.314	-3.75
188.534	69.97
188.753	31.06
188.973	29.01
189.192	24.92
189.412	57.68
189.631	78.16
189.851	6.49
190.07	188.75
190.29	67.92
190.509	51.54
190.729	47.44
190.948	35.16
191.168	94.55
191.387	-9.9
191.607	4.44
191.826	43.35
192.045	59.73
192.265	14.68
192.484	20.82
192.704	41.3
192.923	-22.19
193.142	94.55
193.362	88.4
193.581	72.02
193.8	47.44
194.02	2.39
194.239	26.96
194.458	86.36
194.678	4.44
194.897	80.21
195.116	-54.95
195.335	72.02
195.555	20.82
195.774	49.49
195.993	43.35
196.212	-61.1
196.432	-32.43
196.651	-7.85
196.87	-7.85
197.089	155.99
197.308	51.54
197.528	65.88
197.747	4.44
197.966	-7.85
198.185	80.21
198.404	-28.33
198.623	94.55
198.842	-5.8
199.062	80.21
199.281	108.88
199.5	-42.67
199.719	53.59
199.938	78.16
200.157	90.45
200.376	69.97
200.595	149.84
200.814	8.53
201.033	22.87
201.252	82.26
201.471	31.06
201.69	108.88
201.909	76.12
202.128	51.54
202.347	2.39
202.566	18.77
202.785	65.88
203.004	8.53
203.223	106.84
203.442	24.92
203.661	55.64
203.879	47.44
204.098	47.44
204.317	-9.9
204.536	18.77
204.755	59.73
204.974	59.73
205.193	26.96
205.411	49.49
205.63	69.97
205.849	29.01
206.068	104.79
206.287	12.63
206.505	-3.75
206.724	4.44
206.943	4.44
207.162	-28.33
207.381	69.97
207.599	43.35
207.818	102.74
208.037	-59.05
208.255	76.12
208.474	18.77
208.693	45.4
208.911	72.02
209.13	61.78
209.349	6.49
209.567	41.3
209.786	24.92
210.005	86.36
210.223	-30.38
210.442	22.87
210.661	84.31
210.879	0.34
211.098	98.64
211.316	72.02
211.535	59.73
211.753	-28.33
211.972	80.21
212.191	-5.8
212.409	-44.71
212.628	45.4
212.846	10.58
213.065	55.64
213.283	100.69
213.502	22.87
213.72	67.92
213.938	59.73
214.157	22.87
214.375	12.63
214.594	-9.9
214.812	102.74
215.031	-7.85
215.249	82.26
215.467	35.16
215.686	55.64
215.904	51.54
216.122	4.44
216.341	49.49
216.559	100.69
216.778	96.6
216.996	108.88
217.214	0.34
217.432	94.55
217.651	-13.99
217.869	6.49
218.087	29.01
218.306	-9.9
218.524	94.55
218.742	35.16
218.96	74.07
219.179	-1.71
219.397	29.01
219.615	82.26
219.833	96.6
220.051	12.63
220.27	72.02
220.488	117.08
220.706	41.3
220.924	-18.09
221.142	2.39
221.36	-26.28
221.578	47.44
221.796	43.35
222.015	92.5
222.233	57.68
222.451	10.58
222.669	16.73
222.887	14.68
223.105	-24.23
223.323	76.12
223.541	45.4
223.759	35.16
223.977	96.6
224.195	153.94
224.413	72.02
224.631	94.55
224.849	104.79
225.067	96.6
225.285	18.77
225.503	86.36
225.721	8.53
225.939	14.68
226.157	8.53
226.375	80.21
226.592	33.11
226.81	102.74
227.028	121.17
227.246	63.83
227.464	57.68
227.682	82.26
227.9	61.78
228.117	55.64
228.335	12.63
228.553	49.49
228.771	74.07
228.989	43.35
229.206	12.63
229.424	61.78
229.642	47.44
229.86	51.54
230.077	55.64
230.295	67.92
230.513	35.16
230.731	-1.71
230.948	59.73
231.166	67.92
231.384	-22.19
231.601	129.36
231.819	90.45
232.037	59.73
232.254	-46.76
232.472	69.97
232.689	61.78
232.907	51.54
233.125	94.55
233.342	6.49
233.56	53.59
233.777	43.35
233.995	74.07
234.213	53.59
234.43	86.36
234.648	63.83
234.865	41.3
235.083	74.07
235.3	6.49
235.518	6.49
235.735	110.93
235.953	-32.43
236.17	-11.95
236.388	94.55
236.605	47.44
236.822	90.45
237.04	10.58
237.257	51.54
237.475	6.49
237.692	104.79
237.909	6.49
238.127	-5.8
238.344	104.79
238.562	90.45
238.779	16.73
238.996	14.68
239.214	-63.15
239.431	-16.04
239.648	-32.43
239.865	37.2
240.083	4.44
240.3	22.87
240.517	-9.9
240.735	-9.9
240.952	78.16
241.169	84.31
241.386	51.54
241.603	-5.8
241.821	-40.62
242.038	67.92
242.255	84.31
242.472	-1.71
242.689	43.35
242.907	112.98
243.124	-20.14
243.341	76.12
243.558	20.82
243.775	20.82
243.992	-26.28
244.209	35.16
244.426	112.98
244.643	61.78
244.86	61.78
245.078	123.22
245.295	94.55
245.512	49.49
245.729	-75.43
245.946	98.64
246.163	35.16
246.38	33.11
246.597	135.51
246.814	108.88
247.031	41.3
247.248	51.54
247.464	16.73
247.681	26.96
247.898	80.21
248.115	112.98
248.332	18.77
248.549	43.35
248.766	129.36
248.983	100.69
249.2	35.16
249.417	90.45
249.633	4.44
249.85	82.26
250.067	-32.43
250.284	22.87
250.501	20.82
250.717	41.3
250.934	-67.24
251.151	-9.9
251.368	33.11
251.585	8.53
251.801	86.36
252.018	55.64
252.235	39.25
252.451	22.87
252.668	41.3
252.885	-3.75
253.102	29.01
253.318	0.34
253.535	-7.85
253.752	59.73
253.968	35.16
254.185	-7.85
254.401	-1.71
254.618	61.78
254.835	74.07
255.051	135.51
255.268	31.06
255.484	61.78
255.701	78.16
255.917	22.87
256.134	8.53
256.351	-50.86
256.567	-18.09
256.784	29.01
257	-18.09
257.217	90.45
257.433	43.35
257.65	72.02
257.866	39.25
258.082	14.68
258.299	-24.23
258.515	63.83
258.732	18.77
258.948	67.92
259.165	26.96
259.381	-9.9
259.597	98.64
259.814	-32.43
260.03	41.3
260.246	90.45
260.463	6.49
260.679	98.64
260.895	26.96
261.112	-3.75
261.328	33.11
261.544	-7.85
261.761	164.18
261.977	0.34
262.193	-22.19
262.409	43.35
262.626	55.64
262.842	33.11
263.058	35.16
263.274	2.39
263.49	80.21
263.707	4.44
263.923	41.3
264.139	49.49
264.355	90.45
264.571	133.46
264.787	61.78
265.004	53.59
265.22	-34.47
265.436	18.77
265.652	45.4
265.868	57.68
266.084	41.3
266.3	82.26
266.516	12.63
266.732	84.31
266.948	18.77
267.164	92.5
267.38	61.78
267.596	86.36
267.812	129.36
268.028	65.88
268.244	-5.8
268.46	69.97
268.676	53.59
268.892	47.44
269.108	-30.38
269.324	43.35
269.54	41.3
269.756	63.83
269.972	-1.71
270.188	61.78
270.403	26.96
270.619	86.36
270.835	90.45
271.051	-24.23
271.267	72.02
271.483	55.64
271.698	31.06
271.914	39.25
272.13	35.16
272.346	51.54
272.562	35.16
272.777	47.44
272.993	45.4
273.209	-1.71
273.425	96.6
273.64	35.16
273.856	37.2
274.072	41.3
274.287	2.39
274.503	80.21
274.719	49.49
274.934	2.39
275.15	-11.95
275.366	-3.75
275.581	-26.28
275.797	57.68
276.012	33.11
276.228	84.31
276.444	10.58
276.659	29.01
276.875	82.26
277.09	100.69
277.306	2.39
277.521	35.16
277.737	47.44
277.952	39.25
278.168	33.11
278.383	63.83
278.599	43.35
278.814	80.21
279.03	29.01
279.245	84.31
279.461	61.78
279.676	57.68
279.892	45.4
280.107	-22.19
280.322	6.49
280.538	100.69
280.753	12.63
280.969	18.77
281.184	57.68
281.399	61.78
281.615	57.68
281.83	22.87
282.045	14.68
282.26	0.34
282.476	-89.77
282.691	35.16
282.906	55.64
283.122	131.41
283.337	20.82
283.552	31.06
283.767	98.64
283.983	-7.85
284.198	12.63
284.413	72.02
284.628	18.77
284.843	39.25
285.058	4.44
285.274	74.07
285.489	-32.43
285.704	63.83
285.919	-3.75
286.134	92.5
286.349	76.12
286.564	82.26
286.779	35.16
286.995	63.83
287.21	-42.67
287.425	18.77
287.64	31.06
287.855	106.84
288.07	-46.76
288.285	14.68
288.5	86.36
288.715	112.98
288.93	16.73
289.145	53.59
289.36	63.83
289.575	43.35
289.79	80.21
290.004	59.73
290.219	74.07
290.434	4.44
290.649	-24.23
290.864	41.3
291.079	65.88
291.294	78.16
291.509	61.78
291.724	84.31
291.938	-22.19
292.153	-3.75
292.368	-63.15
292.583	37.2
292.798	88.4
293.012	121.17
293.227	35.16
293.442	-3.75
293.657	-5.8
293.871	88.4
294.086	-3.75
294.301	45.4
294.516	121.17
294.73	10.58
294.945	47.44
295.16	63.83
295.374	63.83
295.589	43.35
295.804	61.78
296.018	53.59
296.233	41.3
296.447	57.68
296.662	69.97
296.877	135.51
297.091	96.6
297.306	49.49
297.52	61.78
297.735	22.87
297.949	51.54
298.164	92.5
298.378	57.68
298.593	-16.04
298.807	-48.81
299.022	43.35
299.236	57.68
299.451	65.88
299.665	43.35
299.88	14.68
300.094	61.78
300.309	90.45
300.523	-18.09
300.737	41.3
300.952	4.44
301.166	53.59
301.381	69.97
301.595	86.36
301.809	35.16
302.024	-20.14
302.238	37.2
302.452	10.58
302.667	65.88
302.881	78.16
303.095	84.31
303.309	18.77
303.524	39.25
303.738	57.68
303.952	22.87
304.166	108.88
304.381	31.06
304.595	57.68
304.809	29.01
305.023	-9.9
305.237	4.44
305.452	22.87
305.666	12.63
305.88	78.16
306.094	121.17
306.308	139.6
306.522	41.3
306.736	6.49
306.95	26.96
307.164	88.4
307.379	10.58
307.593	112.98
307.807	104.79
308.021	45.4
308.235	18.77
308.449	33.11
308.663	35.16
308.877	121.17
309.091	37.2
309.305	-26.28
309.519	-3.75
309.733	59.73
309.947	-20.14
310.161	39.25
310.374	92.5
310.588	145.75
310.802	8.53
311.016	61.78
311.23	10.58
311.444	53.59
311.658	35.16
311.872	88.4
312.085	53.59
312.299	65.88
312.513	135.51
312.727	6.49
312.941	18.77
313.154	57.68
313.368	88.4
313.582	39.25
313.796	49.49
314.009	74.07
314.223	16.73
314.437	43.35
314.651	67.92
314.864	74.07
315.078	53.59
315.292	61.78
315.505	51.54
315.719	2.39
315.933	59.73
316.146	104.79
316.36	-11.95
316.573	104.79
316.787	45.4
317.001	94.55
317.214	-7.85
317.428	59.73
317.641	-50.86
317.855	37.2
318.068	26.96
318.282	47.44
318.495	123.22
318.709	100.69
318.922	47.44
319.136	76.12
319.349	125.27
319.563	41.3
319.776	53.59
319.99	20.82
320.203	20.82
320.417	59.73
320.63	67.92
320.843	117.08
321.057	12.63
321.27	55.64
321.483	57.68
321.697	65.88
321.91	61.78
322.124	2.39
322.337	92.5
322.55	8.53
322.763	20.82
322.977	45.4
323.19	-11.95
323.403	57.68
323.617	31.06
323.83	45.4
324.043	20.82
324.256	96.6
324.469	29.01
324.683	61.78
324.896	41.3
325.109	43.35
325.322	12.63
325.535	129.36
325.748	41.3
325.962	61.78
326.175	41.3
326.388	-20.14
326.601	55.64
326.814	-7.85
327.027	49.49
327.24	96.6
327.453	18.77
327.666	-18.09
327.879	164.18
328.092	18.77
328.305	80.21
328.518	29.01
328.731	4.44
328.944	22.87
329.157	12.63
329.37	-11.95
329.583	49.49
329.796	176.47
330.009	49.49
330.222	76.12
330.435	104.79
330.648	33.11
330.861	57.68
331.073	24.92
331.286	123.22
331.499	104.79
331.712	8.53
331.925	104.79
332.138	43.35
332.35	106.84
332.563	31.06
332.776	104.79
332.989	12.63
333.202	35.16
333.414	55.64
333.627	18.77
333.84	72.02
334.053	102.74
334.265	53.59
334.478	18.77
334.691	104.79
334.903	63.83
335.116	39.25
335.329	57.68
335.541	39.25
335.754	37.2
335.966	78.16
336.179	33.11
336.392	33.11
336.604	78.16
336.817	141.65
337.029	61.78
337.242	20.82
337.454	102.74
337.667	47.44
337.88	33.11
338.092	-13.99
338.305	72.02
338.517	10.58
338.729	33.11
338.942	51.54
339.154	45.4
339.367	-13.99
339.579	49.49
339.792	67.92
340.004	74.07
340.217	41.3
340.429	82.26
340.641	72.02
340.854	22.87
341.066	35.16
341.278	127.32
341.491	88.4
341.703	110.93
341.915	104.79
342.128	49.49
342.34	37.2
342.552	-18.09
342.764	-18.09
342.977	82.26
343.189	20.82
343.401	16.73
343.613	67.92
343.826	147.8
344.038	51.54
344.25	-5.8
344.462	-18.09
344.674	16.73
344.886	84.31
345.099	90.45
345.311	37.2
345.523	31.06
345.735	80.21
345.947	100.69
346.159	74.07
346.371	41.3
346.583	47.44
346.795	49.49
347.007	37.2
347.219	100.69
347.431	104.79
347.643	104.79
347.855	4.44
348.067	133.46
348.279	47.44
348.491	41.3
348.703	-9.9
348.915	72.02
349.127	14.68
349.339	24.92
349.551	18.77
349.763	-1.71
349.975	0.34
350.187	123.22
350.399	100.69
350.61	74.07
350.822	53.59
351.034	-16.04
351.246	59.73
351.458	26.96
351.669	37.2
351.881	125.27
352.093	119.12
352.305	69.97
352.517	41.3
352.728	213.33
352.94	53.59
353.152	53.59
353.363	82.26
353.575	102.74
353.787	133.46
353.999	69.97
354.21	160.08
354.422	-26.28
354.633	0.34
354.845	22.87
355.057	65.88
355.268	57.68
355.48	108.88
355.692	-36.52
355.903	104.79
356.115	96.6
356.326	26.96
356.538	102.74
356.749	100.69
356.961	67.92
357.172	-11.95
357.384	24.92
357.595	65.88
357.807	-5.8
358.018	-40.62
358.23	57.68
358.441	102.74
358.653	90.45
358.864	24.92
359.075	24.92
359.287	45.4
359.498	117.08
359.709	49.49
359.921	51.54
360.132	59.73
360.344	-3.75
360.555	31.06
360.766	2.39
360.977	39.25
361.189	59.73
361.4	22.87
361.611	65.88
361.823	29.01
362.034	117.08
362.245	2.39
362.456	18.77
362.667	53.59
362.879	86.36
363.09	74.07
363.301	80.21
363.512	90.45
363.723	61.78
363.935	129.36
364.146	88.4
364.357	22.87
364.568	112.98
364.779	22.87
364.99	127.32
365.201	115.03
365.412	72.02
365.623	41.3
365.834	88.4
366.045	51.54
366.256	119.12
366.467	20.82
366.678	82.26
366.889	31.06
367.1	20.82
367.311	158.03
367.522	96.6
367.733	90.45
367.944	115.03
368.155	43.35
368.366	100.69
368.577	170.32
368.788	147.8
368.999	4.44
369.209	72.02
369.42	143.7
369.631	137.56
369.842	49.49
370.053	37.2
370.264	65.88
370.474	43.35
370.685	35.16
370.896	41.3
371.107	137.56
371.317	47.44
371.528	-30.38
371.739	31.06
371.95	63.83
372.16	125.27
372.371	2.39
372.582	37.2
372.792	88.4
373.003	98.64
373.214	78.16
373.424	69.97
373.635	-1.71
373.846	74.07
374.056	80.21
374.267	-3.75
374.477	37.2
374.688	26.96
374.898	112.98
375.109	78.16
375.319	82.26
375.53	78.16
375.74	45.4
375.951	35.16
376.161	94.55
376.372	119.12
376.582	16.73
376.793	57.68
377.003	78.16
377.214	-20.14
377.424	82.26
377.635	4.44
377.845	-28.33
378.055	106.84
378.266	24.92
378.476	-5.8
378.686	65.88
378.897	104.79
379.107	98.64
379.317	125.27
379.528	69.97
379.738	104.79
379.948	22.87
380.158	20.82
380.369	12.63
380.579	59.73
380.789	96.6
380.999	84.31
381.21	61.78
381.42	94.55
381.63	67.92
381.84	98.64
382.05	26.96
382.261	74.07
382.471	135.51
382.681	80.21
382.891	53.59
383.101	94.55
383.311	47.44
383.521	65.88
383.731	92.5
383.941	92.5
384.151	82.26
384.361	117.08
384.571	39.25
384.781	47.44
384.991	201.04
385.201	123.22
385.411	160.08
385.621	78.16
385.831	96.6
386.041	57.68
386.251	51.54
386.461	51.54
386.671	88.4
386.881	106.84
387.091	108.88
387.301	102.74
387.511	104.79
387.72	55.64
387.93	18.77
388.14	-7.85
388.35	39.25
388.56	102.74
388.769	74.07
388.979	139.6
389.189	14.68
389.399	96.6
389.609	67.92
389.818	63.83
390.028	108.88
390.238	155.99
390.447	35.16
390.657	106.84
390.867	110.93
391.076	0.34
391.286	119.12
391.496	53.59
391.705	65.88
391.915	149.84
392.125	104.79
392.334	88.4
392.544	125.27
392.753	47.44
392.963	63.83
393.172	39.25
393.382	104.79
393.591	168.27
393.801	45.4
394.01	106.84
394.22	90.45
394.429	72.02
394.639	63.83
394.848	123.22
395.058	100.69
395.267	57.68
395.477	31.06
395.686	110.93
395.895	143.7
396.105	139.6
396.314	108.88
396.524	49.49
396.733	53.59
396.942	117.08
397.152	141.65
397.361	110.93
397.57	78.16
397.78	104.79
397.989	117.08
398.198	219.47
398.407	123.22
398.617	145.75
398.826	123.22
399.035	90.45
399.244	100.69
399.453	110.93
399.663	76.12
399.872	166.23
400.081	69.97
400.29	178.51
400.499	149.84
400.708	80.21
400.917	67.92
401.127	123.22
401.336	129.36
401.545	164.18
401.754	137.56
401.963	158.03
402.172	39.25
402.381	190.8
402.59	125.27
402.799	139.6
403.008	158.03
403.217	143.7
403.426	170.32
403.635	143.7
403.844	133.46
404.053	194.9
404.262	170.32
404.471	248.15
404.68	129.36
404.888	176.47
405.097	121.17
405.306	123.22
405.515	203.09
405.724	182.61
405.933	162.13
406.142	188.75
406.35	211.28
406.559	186.71
406.768	248.15
406.977	280.91
407.185	278.87
407.394	215.38
407.603	112.98
407.812	262.48
408.02	219.47
408.229	313.68
408.438	270.67
408.646	192.85
408.855	248.15
409.064	276.82
409.272	317.78
409.481	280.91
409.69	334.16
409.898	276.82
410.107	272.72
410.315	371.02
410.524	262.48
410.733	293.2
410.941	291.15
411.15	299.34
411.358	379.22
411.567	403.79
411.775	375.12
411.984	366.93
412.192	479.57
412.401	463.18
412.609	469.33
412.818	516.43
413.026	508.24
413.234	498
413.443	563.53
413.651	473.42
413.86	635.21
414.068	508.24
414.276	633.16
414.485	631.12
414.693	667.98
414.901	659.79
415.11	708.94
415.318	682.31
415.526	719.18
415.734	764.23
415.943	827.72
416.151	876.87
416.359	872.78
416.567	844.1
416.776	938.31
416.984	1036.61
417.192	975.17
417.4	928.07
417.608	917.83
417.817	1069.38
418.025	1153.35
418.233	1120.58
418.441	1005.89
418.649	1038.66
418.857	1253.7
419.065	1290.56
419.273	1208.64
419.481	1341.76
419.689	1370.43
419.897	1323.33
420.105	1530.17
420.313	1511.74
420.521	1526.08
420.729	1663.29
420.937	1624.38
421.145	1708.35
421.353	1700.16
421.561	1868.09
421.769	1886.52
421.977	2068.79
422.185	1974.58
422.393	2031.93
422.601	2203.96
422.809	2199.86
423.017	2320.69
423.224	2388.27
423.432	2437.42
423.64	2451.76
423.848	2746.67
424.056	2660.65
424.263	2771.24
424.471	2679.08
424.679	2787.63
424.887	2949.42
425.094	3070.25
425.302	3084.58
425.51	3256.61
425.718	3424.55
425.925	3297.57
426.133	3438.88
426.341	3645.73
426.548	3875.1
426.756	3936.54
426.964	3848.47
427.171	4038.94
427.379	4262.16
427.586	4233.49
427.794	4542.74
428.001	4727.05
428.209	4817.16
428.417	4688.14
428.624	5112.07
428.832	4985.1
429.039	5087.5
429.247	5183.75
429.454	5327.11
429.662	5884.16
429.869	5376.26
430.076	5910.78
430.284	5777.66
430.491	6088.95
430.699	6281.46
430.906	6037.75
431.114	6293.75
431.321	6664.43
431.528	6822.13
431.736	7076.07
431.943	7551.2
432.15	7397.6
432.358	7639.26
432.565	7862.49
432.772	7784.67
432.979	8052.95
433.187	8419.54
433.394	8423.64
433.601	8890.57
433.808	9031.88
434.016	8947.92
434.223	9406.66
434.43	9717.95
434.637	9846.98
434.844	10320.06
435.052	10393.78
435.259	10594.48
435.466	10571.96
435.673	10608.82
435.88	11088.04
436.087	11585.7
436.294	11700.39
436.501	11362.47
436.708	11585.7
436.915	12148.89
437.122	12578.97
437.329	12402.84
437.537	13076.62
437.743	13131.92
437.95	13123.73
438.157	13916.29
438.364	14116.99
438.571	14153.85
438.778	14225.53
438.985	15485.03
439.192	14835.83
439.399	15513.7
439.606	15044.72
439.813	16097.38
440.02	16902.23
440.227	16580.7
440.433	16513.11
440.64	17023.06
440.847	17049.68
441.054	17408.08
441.261	18987.06
441.467	18286.65
441.674	18825.27
441.881	19406.89
442.088	19243.06
442.294	18964.53
442.501	19804.2
442.708	20441.12
442.914	20856.86
443.121	21633.04
443.328	21331.98
443.534	22751.23
443.741	21936.13
443.948	21622.8
444.154	23271.41
444.361	23209.97
444.568	23240.69
444.774	23166.96
444.981	23601.13
445.187	24621.02
445.394	25235.41
445.6	25278.42
445.807	27555.76
446.013	26265.54
446.22	26816.44
446.426	27654.06
446.633	27916.2
446.839	28997.53
447.046	27944.87
447.252	29421.46
447.459	29329.3
447.665	29409.17
447.871	30707.58
448.078	31821.68
448.284	30504.84
448.491	31383.41
448.697	32538.47
448.903	33052.51
449.11	32919.39
449.316	32268.14
449.522	33167.2
449.728	33984.33
449.935	34332.49
450.141	34410.31
450.347	35084.09
450.553	34275.15
450.76	34113.36
450.966	35407.67
451.172	35280.7
451.378	35981.1
451.584	35385.15
451.791	36390.7
451.997	36159.28
452.203	36788
452.409	36605.73
452.615	36359.98
452.821	35276.6
453.027	34535.24
453.233	36562.73
453.44	35168.06
453.646	35540.79
453.852	35524.41
454.058	36347.69
454.264	35241.79
454.47	36011.82
454.676	35075.9
454.882	36151.09
455.088	33347.42
455.294	33746.77
455.5	33828.69
455.705	34080.59
455.911	32890.72
456.117	32386.92
456.323	32012.14
456.529	30330.76
456.735	31442.81
456.941	30822.27
457.147	30113.67
457.352	29560.72
457.558	29245.34
457.764	29147.03
457.97	28288.93
458.176	28028.84
458.381	27901.87
458.587	26191.81
458.793	26458.05
458.999	25133.01
459.204	26886.08
459.41	26025.93
459.616	24332.26
459.821	24338.4
460.027	24672.22
460.233	23908.33
460.438	22681.6
460.644	22898.68
460.85	21999.62
461.055	21555.21
461.261	21635.08
461.466	19793.96
461.672	19216.43
461.878	20602.91
462.083	19376.17
462.289	18706.49
462.494	18651.19
462.7	17965.12
462.905	17657.93
463.111	18282.56
463.316	18237.5
463.522	17664.07
463.727	18020.42
463.932	17827.91
464.138	17418.32
464.343	17467.47
464.549	17072.21
464.754	17641.54
464.959	17426.51
465.165	17420.36
465.37	16564.31
465.575	16162.91
465.781	16818.26
465.986	17037.39
466.191	16619.61
466.397	15890.53
466.602	15245.42
466.807	15788.13
467.012	15994.98
467.218	15702.12
467.423	15462.51
467.628	15624.29
467.833	16406.62
468.038	15773.8
468.244	15112.3
468.449	15812.71
468.654	15308.91
468.859	15313
469.064	15114.35
469.269	14671.99
469.474	14700.66
469.679	15038.58
469.885	14149.76
470.09	14764.15
470.295	14657.65
470.5	14139.52
470.705	14604.41
470.91	14168.19
471.115	14018.69
471.32	13949.06
471.525	14008.45
471.73	13621.38
471.935	13662.34
472.139	13191.31
472.344	13222.03
472.549	13383.82
472.754	12986.51
472.959	12744.85
473.164	12535.96
473.369	12292.25
473.574	12853.39
473.778	12652.69
473.983	12517.53
474.188	12634.26
474.393	12032.16
474.598	12286.11
474.802	11899.04
475.007	11753.63
475.212	11731.11
475.417	11178.15
475.621	11526.31
475.826	11389.1
476.031	11251.88
476.235	10979.5
476.44	11102.38
476.645	10942.64
476.849	11032.75
477.054	10782.9
477.259	10635.44
477.463	10836.14
477.668	10447.03
477.872	10621.11
478.077	10387.64
478.282	10229.95
478.486	10152.12
478.691	10086.59
478.895	10074.3
479.1	9763.01
479.304	9953.47
479.509	9531.59
479.713	9826.5
479.918	9504.96
480.122	9482.44
480.326	9760.96
480.531	9568.45
480.735	9511.11
480.94	9539.78
481.144	9660.61
481.348	9277.64
481.553	9509.06
481.757	9199.82
481.961	9169.1
482.166	9314.5
482.37	9339.08
482.574	9255.11
482.778	9251.02
482.983	9285.83
483.187	9296.07
483.391	9377.99
483.595	9052.36
483.8	8882.38
484.004	9175.24
484.208	9287.88
484.412	9236.68
484.616	9271.5
484.821	9185.48
485.025	8925.39
485.229	9187.53
485.433	9269.45
485.637	9042.12
485.841	9109.71
486.045	9173.19
486.249	9003.21
486.453	9162.95
486.657	9009.36
486.861	9244.87
487.065	8986.83
487.269	9048.27
487.473	9144.52
487.677	9287.88
487.881	9197.77
488.085	9081.03
488.289	9128.14
488.493	9107.66
488.697	9320.65
488.901	9296.07
489.105	9093.32
489.309	9240.78
489.512	9208.01
489.716	9437.38
489.92	9363.65
490.124	9171.15
490.328	9566.4
490.531	9531.59
490.735	9650.37
490.939	9382.09
491.143	9289.93
491.346	9390.28
491.55	9713.86
491.754	9617.6
491.958	9638.08
492.161	9642.18
492.365	9586.88
492.569	9464
492.772	9713.86
492.976	9740.48
493.18	9855.17
493.383	9939.13
493.587	10027.2
493.79	10051.77
493.994	9959.61
494.197	10399.93
494.401	10272.95
494.605	10115.26
494.808	10062.01
495.012	10334.39
495.215	10442.93
495.419	10541.24
495.622	10528.95
495.825	10719.41
496.029	10733.75
496.232	10985.65
496.436	10971.31
496.639	11229.35
496.843	10916.01
497.046	11243.69
497.249	11503.78
497.453	11544.74
497.656	11425.96
497.859	11692.19
498.063	11874.46
498.266	12118.17
498.469	11944.1
498.673	12279.96
498.876	12109.98
499.079	12343.45
499.282	12413.08
499.485	12791.95
499.689	12875.92
499.892	13140.11
500.095	12923.02
500.298	13154.44
500.501	13269.13
500.705	13316.23
500.908	13693.06
501.111	13666.44
501.314	13779.08
501.517	14307.45
501.72	14188.67
501.923	14360.7
502.126	14590.07
502.329	14932.08
502.532	14778.48
502.735	15061.1
502.938	15282.28
503.141	15218.8
503.344	15779.94
503.547	15687.78
503.75	15908.96
503.953	16181.34
504.156	16062.56
504.359	16121.95
504.562	16562.26
504.765	16603.22
504.968	16939.09
505.17	16992.34
505.373	17166.42
505.576	17639.5
505.779	17762.37
505.982	17737.8
506.185	18298.94
506.387	18362.43
506.59	18548.79
506.793	18767.93
506.996	18618.43
507.198	19265.58
507.401	19030.07
507.604	19507.24
507.807	19816.49
508.009	19810.34
508.212	19945.51
508.415	20115.49
508.617	20586.52
508.82	20631.58
509.022	20723.74
509.225	21291.02
509.428	21434.38
509.63	21514.25
509.833	21669.9
510.035	22468.61
510.238	22067.2
510.44	22315.01
510.643	22992.89
510.845	23279.6
511.048	22757.37
511.25	23169.01
511.453	23422.96
511.655	24432.61
511.858	24109.03
512.06	24377.31
512.262	24678.36
512.465	24600.54
512.667	24934.36
512.87	25294.8
513.072	25436.11
513.274	25970.63
513.477	26302.4
513.679	26386.37
513.881	26767.29
514.084	26886.08
514.286	26744.77
514.488	27293.62
514.69	27908.01
514.893	28084.14
515.095	28188.58
515.297	28716.96
515.499	28678.05
515.701	29124.5
515.904	29501.33
516.106	29357.97
516.308	30103.43
516.51	30232.46
516.712	30341
516.914	30637.95
517.116	31172.47
517.318	31199.1
517.52	31420.28
517.722	31592.31
517.925	32040.81
518.127	32663.39
518.329	32618.34
518.531	32657.25
518.733	33314.65
518.935	33632.08
519.136	33638.23
519.338	34252.62
519.54	34197.32
519.742	34740.04
519.944	34500.42
520.146	35477.3
520.348	35415.86
520.55	35698.48
520.752	35962.67
520.954	36781.86
521.155	36329.26
521.357	37142.3
521.559	37263.13
521.761	37637.91
521.963	37570.33
522.164	37902.1
522.366	37979.92
522.568	38655.75
522.77	38790.92
522.971	39565.05
523.173	38962.95
523.375	39649.02
523.576	40052.47
523.778	39778.04
523.98	40425.2
524.181	40505.07
524.383	41281.25
524.584	41060.07
524.786	41299.68
524.988	41203.42
525.189	41793.24
525.391	41821.91
525.592	41879.25
525.794	42288.85
525.995	42727.11
526.197	42680.01
526.398	42809.03
526.6	43130.56
526.801	43179.71
527.003	43841.21
527.204	43466.43
527.406	43611.84
527.607	44050.1
527.808	44390.06
528.01	43812.54
528.211	44136.12
528.412	44760.75
528.614	44127.92
528.815	44996.26
529.016	45303.46
529.218	44959.4
529.419	45196.96
529.62	45455.01
529.822	45493.92
530.023	45088.42
530.224	45813.4
530.425	45405.86
530.626	45729.44
530.828	45481.63
531.029	46503.57
531.23	45686.43
531.431	45801.11
531.632	46249.62
531.833	46272.15
532.035	46247.57
532.236	46497.42
532.437	46593.68
532.638	46548.62
532.839	46597.77
533.04	46753.42
533.241	46122.65
533.442	47330.95
533.643	46974.6
533.844	46734.99
534.045	46843.53
534.246	46593.68
534.447	47132.29
534.648	46534.29
534.849	47036.04
535.05	46749.32
535.251	47079.05
535.451	46874.25
535.652	47265.41
535.853	47312.52
536.054	47111.81
536.255	47326.85
536.456	46923.4
536.657	47464.07
536.857	47246.98
537.058	46784.14
537.259	47154.82
537.46	47337.09
537.66	46980.74
537.861	47111.81
538.062	47427.2
538.263	46851.72
538.463	46978.7
538.664	47085.19
538.865	47259.27
539.065	47328.9
539.266	46894.73
539.466	47386.24
539.667	46821
539.868	47445.63
540.068	47165.06
540.269	47099.53
540.469	46913.16
540.67	47070.86
540.87	47517.31
541.071	47187.59
541.271	47339.14
541.472	46687.88
541.672	46734.99
541.873	46925.45
542.073	46558.86
542.274	47478.4
542.474	47105.67
542.675	46630.54
542.875	47271.56
543.075	46812.81
543.276	46483.09
543.476	47392.39
543.676	46997.13
543.877	47298.18
544.077	46980.74
544.277	47005.32
544.478	46999.18
544.678	46749.32
544.878	47163.01
545.078	47009.42
545.279	46878.35
545.479	46886.54
545.679	46978.7
545.879	46478.99
546.079	46536.34
546.28	46677.65
546.48	46102.17
546.68	46859.91
546.88	47197.83
547.08	47099.53
547.28	46818.95
547.48	46429.84
547.68	46491.28
547.88	46544.53
548.081	46737.04
548.281	46751.37
548.481	46610.06
548.681	46855.82
548.881	46497.42
549.081	46485.14
549.28	46313.11
549.48	46847.63
549.68	46284.44
549.88	47077
550.08	46352.02
550.28	47003.27
550.48	46544.53
550.68	46786.19
550.88	46472.85
551.08	46423.7
551.279	46511.76
551.479	46227.09
551.679	46546.58
551.879	45672.09
552.079	46732.94
552.278	46335.63
552.478	46552.72
552.678	46483.09
552.878	46669.45
553.077	46079.64
553.277	46050.97
553.477	47165.06
553.676	45786.78
553.876	46059.16
554.076	45960.86
554.275	45962.9
554.475	45549.21
554.674	45758.11
554.874	46175.89
555.074	46151.32
555.273	45960.86
555.473	46104.21
555.672	45762.2
555.872	45684.38
556.071	45958.81
556.271	45854.36
556.47	45444.77
556.67	44934.82
556.869	45405.86
557.068	45954.71
557.268	45643.42
557.467	45618.85
557.667	45506.21
557.866	45037.22
558.065	45487.78
558.265	44805.8
558.464	45051.56
558.663	45135.52
558.863	44918.44
559.062	45393.57
559.261	44543.66
559.461	44914.34
559.66	44488.37
559.859	44850.86
560.058	44666.54
560.258	44398.26
560.457	44003
560.656	44818.09
560.855	44543.66
561.054	44236.47
561.253	43908.79
561.453	43947.7
561.652	44547.76
561.851	44529.33
562.05	43847.35
562.249	43622.08
562.448	43892.41
562.647	43679.42
562.846	43484.86
563.045	43458.24
563.244	43255.49
563.443	43478.72
563.642	42903.24
563.841	43228.87
564.04	42780.36
564.239	43163.33
564.438	42759.88
564.637	42811.08
564.836	42688.2
565.035	42161.87
565.234	42438.35
565.432	42071.76
565.631	42012.37
565.83	42682.06
566.029	41834.2
566.228	41930.45
566.427	41467.61
566.625	41365.21
566.824	41533.15
567.023	41803.48
567.222	41043.68
567.42	41823.96
567.619	41033.44
567.818	41103.07
568.016	40941.28
568.215	41623.26
568.414	40963.81
568.612	41094.88
568.811	40531.69
569.01	40578.79
569.208	39868.15
569.407	40537.83
569.605	39913.2
569.804	40081.14
570.002	39882.48
570.201	40132.34
570.4	39839.48
570.598	39079.68
570.797	39137.02
570.995	39603.96
571.193	39304.96
571.392	39171.84
571.59	39098.11
571.789	39120.64
571.987	38991.62
572.186	38717.19
572.384	38622.98
572.582	38690.57
572.781	38805.25
572.979	37889.81
573.177	38283.02
573.376	38356.75
573.574	37951.25
573.772	38178.57
573.971	37732.12
574.169	37742.36
574.367	37416.73
574.565	37803.8
574.763	37351.2
574.962	37095.2
575.16	36886.31
575.358	37150.49
575.556	36732.71
575.754	37279.52
575.952	36861.73
576.151	36738.85
576.349	36386.6
576.547	36388.65
576.745	36347.69
576.943	36276.01
577.141	36470.57
577.339	36228.91
577.537	35755.83
577.735	35938.1
577.933	35022.65
578.131	35743.54
578.329	35647.29
578.527	35297.08
578.725	35694.39
578.923	35669.81
579.121	34901.82
579.319	34975.55
579.516	35305.27
579.714	35010.37
579.912	34504.52
580.11	34916.16
580.308	34805.57
580.506	34981.7
580.704	34228.04
580.901	34570.05
581.099	34608.97
581.297	34357.07
581.495	34123.6
581.692	34207.56
581.89	33439.58
582.088	33988.43
582.285	33605.46
582.483	33732.43
582.681	33357.66
582.878	33175.39
583.076	32919.39
583.274	33242.97
583.471	32694.11
583.669	32837.47
583.866	32780.13
584.064	32900.96
584.262	32421.73
584.459	32692.07
584.657	32235.37
584.854	32431.97
585.052	31981.42
585.249	32411.49
585.447	32231.27
585.644	31627.12
585.841	31975.28
586.039	32094.06
586.236	31663.99
586.434	31770.48
586.631	31633.27
586.828	31682.42
587.026	31444.85
587.223	31657.84
587.42	31207.29
587.618	31278.97
587.815	30744.45
588.012	30791.55
588.21	30683.01
588.407	30947.2
588.604	30580.61
588.801	30527.36
588.999	30439.3
589.196	30637.95
589.393	30306.18
589.59	30226.31
589.787	30228.36
589.984	29994.89
590.182	29726.61
590.379	30271.37
590.576	29843.34
590.773	29861.77
590.97	29685.65
591.167	29415.32
591.364	29220.76
591.561	29568.91
591.758	29026.2
591.955	29136.79
592.152	29405.08
592.349	29067.16
592.546	28946.33
592.743	28964.76
592.94	28495.78
593.137	28837.79
593.334	28751.77
593.531	28479.39
593.727	28561.31
593.924	28364.71
594.121	28059.56
594.318	28018.6
594.515	28002.22
594.712	28315.56
594.908	27914.16
595.105	27938.73
595.302	27836.33
595.499	27537.33
595.696	27563.95
595.892	27551.66
596.089	27486.13
596.286	27498.42
596.482	27097.02
596.679	27058.1
596.876	27213.75
597.072	26986.43
597.269	26886.08
597.466	26922.94
597.662	26830.78
597.859	26476.48
598.055	26824.64
598.252	26595.26
598.448	26355.65
598.645	26464.19
598.841	26113.99
599.038	26193.86
599.234	26255.3
599.431	25698.25
599.627	25901
599.824	25690.06
600.02	25718.73
600.217	25851.85
600.413	25606.09
600.609	25346
600.806	25284.56
601.002	25829.32
601.198	25456.59
601.395	25358.29
601.591	25380.82
601.787	25042.9
601.984	24754.14
602.18	25368.53
602.376	24995.8
602.572	25077.72
602.769	24952.79
602.965	24504.29
603.161	24960.98
603.357	24727.52
603.553	24551.39
603.75	24446.94
603.946	24115.17
604.142	24334.31
604.338	23746.54
604.534	24051.69
604.73	23568.37
604.926	23869.42
605.122	23713.77
605.318	23511.02
605.514	23457.78
605.71	23699.44
605.906	23322.61
606.102	23443.44
606.298	23441.39
606.494	23152.63
606.69	23549.93
606.886	23234.55
607.082	23037.94
607.278	23113.72
607.474	22919.16
607.67	23160.82
607.866	22640.64
608.062	23056.37
608.257	22628.35
608.453	22710.27
608.649	22810.62
608.845	22513.66
609.041	22665.21
609.236	22851.58
609.432	22620.16
609.628	22417.41
609.824	22302.72
610.019	22272
610.215	22433.79
610.411	22489.09
610.606	21923.85
610.802	22202.37
610.998	22185.99
611.193	22038.53
611.389	21860.36
611.584	21712.91
611.78	21792.78
611.976	21907.46
612.171	21964.81
612.367	21901.32
612.562	21747.72
612.758	21493.77
612.953	21381.14
613.149	21493.77
613.344	21225.49
613.539	21618.7
613.735	21362.7
613.93	21248.02
614.126	21170.19
614.321	21395.47
614.517	21149.71
614.712	21311.5
614.907	21051.41
615.103	21274.64
615.298	21057.56
615.493	21325.84
615.688	20826.14
615.884	21157.91
616.079	20920.34
616.274	21039.12
616.47	20787.22
616.665	20873.24
616.86	20543.52
617.055	20586.52
617.25	20006.95
617.445	20787.22
617.641	20326.43
617.836	20373.53
618.031	20088.87
618.226	20262.94
618.421	20310.05
618.616	20303.9
618.811	19951.65
619.006	20215.84
619.201	19650.6
619.396	19738.66
619.591	19529.77
619.786	19732.52
619.981	19398.7
620.176	19623.98
620.371	19486.76
620.566	19521.58
620.761	18923.57
620.956	19464.24
621.151	18933.81
621.346	18802.74
621.541	18696.25
621.735	19138.61
621.93	18737.21
622.125	18620.47
622.32	18393.15
622.515	18530.36
622.709	18495.55
622.904	18401.34
623.099	18020.42
623.294	18313.28
623.488	17680.46
623.683	17983.55
623.878	17524.81
624.072	17776.71
624.267	17789
624.462	17467.47
624.656	17471.56
624.851	17598.54
625.046	17086.54
625.24	17330.25
625.435	16896.08
625.629	16996.43
625.824	16844.88
626.018	16900.18
626.213	16609.37
626.407	16545.88
626.602	16420.95
626.796	16537.69
626.991	16529.5
627.185	16404.57
627.38	16250.97
627.574	15876.2
627.768	16064.61
627.963	15941.73
628.157	15806.56
628.352	15984.74
628.546	15343.72
628.74	15671.4
628.935	15274.09
629.129	15482.99
629.323	15181.93
629.517	15243.37
629.712	15120.49
629.906	15292.52
630.1	14944.37
630.294	14968.94
630.489	14796.92
630.683	14766.2
630.877	14551.16
631.071	14612.6
631.265	14563.45
631.459	14504.06
631.653	14579.83
631.848	14399.61
632.042	14108.8
632.236	14264.44
632.43	13994.11
632.624	14028.93
632.818	13912.19
633.012	13648.01
633.206	13856.9
633.4	13977.73
633.594	13584.52
633.788	13621.38
633.982	13674.63
634.176	13410.44
634.369	13082.77
634.563	13105.29
634.757	13250.7
634.951	13172.88
635.145	13113.49
635.339	13095.05
635.533	13054.09
635.726	12982.42
635.92	12744.85
636.114	12714.13
636.308	12574.87
636.501	12730.52
636.695	12611.73
636.889	12574.87
637.083	12218.52
637.276	12368.02
637.47	12314.78
637.664	12116.12
637.857	12236.95
638.051	11976.86
638.244	12056.73
638.438	12099.74
638.632	11806.88
638.825	11597.99
639.019	11565.22
639.212	11622.56
639.406	11636.9
639.599	11565.22
639.793	11542.69
639.986	11538.6
640.18	11497.64
640.373	11180.2
640.567	11104.43
640.76	11329.7
640.954	10961.07
641.147	11030.7
641.34	11083.95
641.534	10981.55
641.727	11016.37
641.92	10983.6
642.114	10782.9
642.307	10682.55
642.5	10762.42
642.694	10508.47
642.887	10610.87
643.08	10481.85
643.273	10385.59
643.467	10322.1
643.66	10231.99
643.853	10287.29
644.046	10320.06
644.239	10256.57
644.432	10109.12
644.626	9992.38
644.819	10049.72
645.012	9996.48
645.205	9851.07
645.398	9863.36
645.591	9750.72
645.784	9814.21
645.977	9666.75
646.17	9445.57
646.363	9552.07
646.556	9570.5
646.749	9470.15
646.942	9371.85
647.135	9224.39
647.328	9216.2
647.521	9179.34
647.714	9105.61
647.907	9226.44
648.099	9128.14
648.292	9158.86
648.485	9035.98
648.678	8884.43
648.871	8986.83
649.064	8855.76
649.256	8894.67
649.449	8700.11
649.642	8554.71
649.835	8763.6
650.027	8603.86
650.22	8589.52
650.413	8542.42
650.605	8526.04
650.798	8476.88
650.991	8341.72
651.183	8327.38
651.376	8218.84
651.568	8198.36
651.761	8227.03
651.954	8186.07
652.146	8267.99
652.339	8349.91
652.531	8007.9
652.724	8110.3
652.916	8091.87
653.109	7909.6
653.301	7944.41
653.494	8005.85
653.686	7823.58
653.879	7979.23
654.071	7784.67
654.263	7608.55
654.456	7637.22
654.648	7665.89
654.84	7485.67
655.033	7604.45
655.225	7575.78
655.417	7297.25
655.61	7452.9
655.802	7436.52
655.994	7428.32
656.186	7336.17
656.379	7270.63
656.571	7299.3
656.763	7280.87
656.955	7258.34
657.148	7233.77
657.34	7180.52
657.532	7016.68
657.724	7014.63
657.916	7088.36
658.108	6904.04
658.3	6840.56
658.492	6914.28
658.684	6791.41
658.876	6824.17
659.068	6953.2
659.26	6654.19
659.452	6633.71
659.644	6871.28
659.836	6717.68
660.028	6719.73
660.22	6555.89
660.412	6533.36
660.604	6609.14
660.796	6615.28
660.988	6551.79
661.18	6351.09
661.372	6600.94
661.563	6451.44
661.755	6306.04
661.947	6385.91
662.139	6392.05
662.331	6273.27
662.522	6056.18
662.714	6211.83
662.906	6158.58
663.097	6103.29
663.289	5900.54
663.481	6099.19
663.673	5900.54
663.864	5959.93
664.056	5939.45
664.247	5935.35
664.439	5822.72
664.631	5884.16
664.822	5875.96
665.014	5810.43
665.205	5792
665.397	5792
665.588	5703.93
665.78	5701.89
665.971	5759.23
666.163	5701.89
666.354	5558.53
666.546	5492.99
666.737	5585.15
666.929	5669.12
667.12	5533.95
667.311	5497.09
667.503	5501.19
667.694	5574.91
667.885	5492.99
668.077	5497.09
668.268	5521.67
668.459	5581.06
668.651	5351.68
668.842	5349.64
669.033	5466.37
669.224	5452.03
669.416	5406.98
669.607	5345.54
669.798	5296.39
669.989	5431.55
670.18	5187.85
670.371	5327.11
670.563	5114.12
670.754	5255.43
670.945	5230.85
671.136	5064.97
671.327	5071.11
671.518	5202.18
671.709	5214.47
671.9	5058.82
672.091	5054.73
672.282	5142.79
672.473	5087.5
672.664	5171.46
672.855	5001.48
673.046	5112.07
673.237	5048.58
673.428	4991.24
673.619	4958.47
673.809	4997.39
674	4931.85
674.191	4995.34
674.382	4956.43
674.573	4954.38
674.764	4933.9
674.954	5021.96
675.145	4952.33
675.336	4851.98
675.527	4860.17
675.717	4933.9
675.908	4870.41
676.099	4952.33
676.289	4888.84
676.48	4765.96
676.671	4870.41
676.861	4940.04
677.052	4802.83
677.243	4854.03
677.433	4892.94
677.624	4757.77
677.814	4741.39
678.005	4856.08
678.195	4931.85
678.386	4725.01
678.576	4626.7
678.767	4659.47
678.957	4647.18
679.148	4888.84
679.338	4794.64
679.529	4878.6
679.719	4772.11
679.909	5003.53
680.1	4716.81
680.29	4782.35
680.481	4702.48
680.671	4907.27
680.861	4731.15
681.052	4673.81
681.242	4802.83
681.432	4825.36
681.622	4698.38
681.813	4706.57
682.003	4561.17
682.193	4647.18
682.383	4798.73
682.573	4684.05
682.764	4725.01
682.954	4802.83
683.144	4612.37
683.334	4598.03
683.524	4661.52
683.714	4714.77
683.904	4641.04
684.094	4682
684.284	4466.96
684.474	4706.57
684.664	4569.36
684.854	4585.74
685.044	4653.33
685.234	4411.67
685.424	4669.71
685.614	4491.54
685.804	4485.39
685.994	4534.54
686.184	4505.87
686.374	4462.87
686.564	4512.02
686.753	4397.33
686.943	4378.9
687.133	4610.32
687.323	4557.07
687.513	4405.52
687.702	4278.55
687.892	4313.36
688.082	4432.15
688.272	4419.86
688.461	4413.71
688.651	4325.65
688.841	4172.05
689.03	4370.71
689.22	4215.06
689.41	4227.35
689.599	4251.92
689.789	4182.29
689.979	4124.95
690.168	4180.25
690.358	4145.43
690.547	4065.56
690.737	4055.32
690.926	4114.71
691.116	3924.25
691.305	4120.85
691.495	4026.65
691.684	3993.88
691.874	4014.36
692.063	3950.87
692.252	4137.24
692.442	3854.62
692.631	3844.38
692.82	3823.9
693.01	3770.65
693.199	3811.61
693.388	3799.32
693.578	3961.11
693.767	3772.7
693.956	3924.25
694.146	3762.46
694.335	3817.76
694.524	3770.65
694.713	3887.39
694.902	3825.95
695.092	3776.8
695.281	3682.59
695.47	3733.79
695.659	3649.82
695.848	3694.88
696.037	3670.3
696.226	3705.12
696.415	3553.57
696.604	3635.49
696.793	3592.48
696.982	3612.96
697.171	3582.24
697.36	3602.72
697.549	3479.84
697.738	3555.62
697.927	3485.98
698.116	3559.71
698.305	3645.73
698.494	3582.24
698.683	3473.7
698.872	3518.75
699.061	3586.33
699.25	3512.61
699.438	3541.28
699.627	3625.25
699.816	3555.62
700.005	3563.81
700.193	3379.49
700.382	3557.66
700.571	3514.66
700.76	3676.45
700.948	3592.48
701.137	3502.37
701.326	3469.6
701.514	3574.05
701.703	3479.84
701.892	3440.93
702.08	3549.47
702.269	3488.03
702.457	3391.78
702.646	3545.38
702.834	3420.45
703.023	3455.26
703.212	3498.27
703.4	3612.96
703.589	3572
703.777	3572
703.965	3539.23
704.154	3477.79
704.342	3508.51
704.531	3531.04
704.719	3418.4
704.907	3598.62
705.096	3440.93
705.284	3569.95
705.472	3426.59
705.661	3447.07
705.849	3506.46
706.037	3377.44
706.226	3651.87
706.414	3719.45
706.602	3512.61
706.79	3651.87
706.979	3451.17
707.167	3381.54
707.355	3469.6
707.543	3522.85
707.731	3494.18
707.919	3453.22
708.107	3604.77
708.296	3510.56
708.484	3451.17
708.672	3565.85
708.86	3586.33
709.048	3563.81
709.236	3397.92
709.424	3649.82
709.612	3512.61
709.8	3500.32
709.988	3559.71
710.176	3559.71
710.364	3551.52
710.551	3553.57
710.739	3504.42
710.927	3541.28
711.115	3424.55
711.303	3617.05
711.491	3551.52
711.679	3612.96
711.866	3569.95
712.054	3588.38
712.242	3498.27
712.43	3621.15
712.617	3621.15
712.805	3680.54
712.993	3498.27
713.181	3461.41
713.368	3723.55
713.556	3658.01
713.744	3496.22
713.931	3795.23
714.119	3553.57
714.306	3715.36
714.494	3643.68
714.682	3565.85
714.869	3551.52
715.057	3574.05
715.244	3459.36
715.432	3678.49
715.619	3557.66
715.807	3662.11
715.994	3735.84
716.182	3625.25
716.369	3653.92
716.556	3617.05
716.744	3506.46
716.931	3621.15
717.119	3737.88
717.306	3664.16
717.493	3576.09
717.681	3748.12
717.868	3670.3
718.055	3778.84
718.242	3784.99
718.43	3711.26
718.617	3658.01
718.804	3682.59
718.991	3819.8
719.179	3666.21
719.366	3780.89
719.553	3780.89
719.74	3682.59
719.927	3731.74
720.114	3807.52
720.301	3778.84
720.488	3684.64
720.676	3674.4
720.863	3834.14
721.05	3750.17
721.237	3811.61
721.424	3664.16
721.611	3672.35
721.798	3668.25
721.985	3645.73
722.172	3619.1
722.358	3725.6
722.545	3885.34
722.732	3897.63
722.919	3840.28
723.106	3858.71
723.293	3821.85
723.48	3705.12
723.667	3846.43
723.853	3744.03
724.04	3922.2
724.227	3735.84
724.414	3827.99
724.6	3682.59
724.787	3897.63
724.974	3891.48
725.161	3772.7
725.347	3717.4
725.534	3909.91
725.72	3834.14
725.907	3887.39
726.094	3817.76
726.28	3914.01
726.467	3838.23
726.653	3774.75
726.84	4022.55
727.027	3856.67
727.213	3838.23
727.4	3807.52
727.586	3924.25
727.773	3969.3
727.959	3930.39
728.145	4014.36
728.332	3901.72
728.518	3784.99
728.705	3934.49
728.891	3928.35
729.077	3813.66
729.264	3944.73
729.45	3858.71
729.636	3881.24
729.823	3887.39
730.009	4083.99
730.195	3979.54
730.382	4010.26
730.568	3889.43
730.754	3944.73
730.94	3905.82
731.126	4081.94
731.313	3965.21
731.499	4026.65
731.685	3965.21
731.871	4102.42
732.057	3934.49
732.243	3918.11
732.429	3940.63
732.615	3995.93
732.801	4051.22
732.987	4024.6
733.173	3942.68
733.359	4063.51
733.545	3961.11
733.731	3963.16
733.917	3936.54
734.103	4092.18
734.289	3916.06
734.475	4016.41
734.661	3983.64
734.847	4069.66
735.033	3946.78
735.219	4000.02
735.404	3838.23
735.59	4047.13
735.776	4024.6
735.962	3903.77
736.148	4061.46
736.333	3944.73
736.519	4090.13
736.705	3873.05
736.89	4020.5
737.076	4018.46
737.262	3905.82
737.447	4040.98
737.633	4077.85
737.819	3991.83
738.004	3979.54
738.19	4104.47
738.375	3899.67
738.561	4055.32
738.747	3879.19
738.932	3936.54
739.118	4073.75
739.303	4032.79
739.489	4069.66
739.674	4036.89
739.859	4030.74
740.045	3965.21
740.23	3856.67
740.416	3885.34
740.601	4038.94
740.786	3928.35
740.972	3889.43
741.157	3977.5
741.342	3805.47
741.528	3805.47
741.713	3965.21
741.898	3893.53
742.084	3766.56
742.269	3957.02
742.454	3735.84
742.639	3920.15
742.824	3778.84
743.01	3807.52
743.195	3969.3
743.38	3803.42
743.565	3848.47
743.75	3844.38
743.935	3701.02
744.12	3707.16
744.305	3670.3
744.49	3686.69
744.675	3711.26
744.86	3662.11
745.045	3748.12
745.23	3662.11
745.415	3617.05
745.6	3649.82
745.785	3555.62
745.97	3553.57
746.155	3617.05
746.34	3567.9
746.525	3453.22
746.71	3698.97
746.895	3528.99
747.079	3492.13
747.264	3430.69
747.449	3432.74
747.634	3418.4
747.819	3430.69
748.003	3418.4
748.188	3363.11
748.373	3344.67
748.557	3375.39
748.742	3227.94
748.927	3402.02
749.111	3154.21
749.296	3344.67
749.481	3229.99
749.665	3111.21
749.85	3150.12
750.034	3281.19
750.219	3180.84
750.404	3000.62
750.588	3166.5
750.773	2982.18
750.957	3086.63
751.141	2949.42
751.326	3031.34
751.51	2996.52
751.695	3012.9
751.879	3057.96
752.064	2996.52
752.248	2992.42
752.432	2914.6
752.617	2826.54
752.801	2865.45
752.985	2887.98
753.17	2879.79
753.354	2853.16
753.538	2853.16
753.722	2890.03
753.907	2810.15
754.091	2674.99
754.275	2795.82
754.459	2720.04
754.643	2629.93
754.828	2668.84
755.012	2775.34
755.196	2601.26
755.38	2603.31
755.564	2427.18
755.748	2505.01
755.932	2566.45
756.116	2474.29
756.3	2578.73
756.484	2462
756.668	2494.77
756.852	2511.15
757.036	2539.82
757.22	2386.22
757.404	2404.66
757.588	2351.41
757.772	2443.57
757.956	2351.41
758.14	2502.96
758.323	2382.13
758.507	2367.79
758.691	2367.79
758.875	2335.03
759.059	2443.57
759.242	2277.68
759.426	2375.99
759.61	2294.07
759.794	2378.03
759.977	2283.83
760.161	2345.27
760.345	2308.4
760.528	2328.88
760.712	2132.28
760.895	2144.56
761.079	2228.53
761.263	2144.56
761.446	2021.69
761.63	2103.61
761.813	2183.48
761.997	2009.4
762.18	2081.08
762.364	2015.54
762.547	1925.43
762.731	1941.82
762.914	1966.39
763.098	2036.02
763.281	2109.75
763.464	2072.89
763.648	1962.3
763.831	1958.2
764.015	1947.96
764.198	1935.67
764.381	1950.01
764.564	1966.39
764.748	1960.25
764.931	1925.43
765.114	2003.25
765.297	1984.82
765.481	1907
765.664	1802.55
765.847	1818.94
766.03	1847.61
766.213	1857.85
766.397	1796.41
766.58	1775.93
766.763	1857.85
766.946	1829.18
767.129	1704.25
767.312	1853.75
767.495	1857.85
767.678	1728.83
767.861	1745.21
768.044	1859.9
768.227	1796.41
768.41	1780.03
768.593	1687.87
768.776	1616.19
768.959	1728.83
769.142	1714.49
769.324	1739.07
769.507	1706.3
769.69	1708.35
769.873	1573.18
770.056	1702.2
770.239	1620.28
770.421	1714.49
770.604	1601.85
770.787	1587.52
770.97	1651
771.152	1622.33
771.335	1567.04
771.518	1634.62
771.7	1648.96
771.883	1585.47
772.066	1612.09
772.248	1669.44
772.431	1681.72
772.613	1538.37
772.796	1552.7
772.978	1509.69
773.161	1628.48
773.343	1542.46
773.526	1458.5
773.708	1454.4
773.891	1440.06
774.073	1481.02
774.256	1395.01
774.438	1595.71
774.621	1464.64
774.803	1352
774.985	1435.97
775.168	1376.58
775.35	1374.53
775.532	1380.67
775.715	1349.95
775.897	1349.95
776.079	1311.04
776.261	1325.38
776.444	1341.76
776.626	1284.42
776.808	1284.42
776.99	1331.52
777.173	1306.95
777.355	1352
777.537	1239.36
777.719	1237.31
777.901	1300.8
778.083	1237.31
778.265	1153.35
778.447	1251.65
778.629	1196.36
778.811	1179.97
778.993	1265.99
779.175	1132.87
779.357	1216.83
779.539	1157.44
779.721	1116.48
779.903	1186.12
780.085	1124.68
780.267	1106.24
780.449	1081.67
780.631	1083.72
780.812	1118.53
780.994	1020.23
781.176	1038.66
781.358	1001.8
781.54	1055.05
781.721	1053
781.903	1001.8
782.085	1022.28
782.267	1034.57
782.448	1085.76
782.63	964.93
782.812	940.36
782.993	952.65
783.175	989.51
783.357	926.02
783.538	1001.8
783.72	1001.8
783.901	889.16
784.083	915.78
784.264	825.67
784.446	878.92
784.627	858.44
784.809	936.26
784.99	889.16
785.172	880.97
785.353	819.53
785.535	864.58
785.716	842.06
785.897	805.19
786.079	766.28
786.26	831.82
786.441	858.44
786.623	792.91
786.804	819.53
786.985	747.85
787.167	790.86
787.348	794.95
787.529	733.51
787.71	807.24
787.891	770.38
788.073	710.99
788.254	774.47
788.435	846.15
788.616	784.71
788.797	792.91
788.978	710.99
789.159	782.67
789.34	659.79
789.522	745.8
789.703	739.66
789.884	704.84
790.065	694.6
790.246	653.64
790.427	690.51
790.607	680.27
790.788	665.93
790.969	663.88
791.15	694.6
791.331	663.88
791.512	690.51
791.693	651.6
791.874	704.84
792.054	631.12
792.235	729.42
792.416	616.78
792.597	565.58
792.778	596.3
792.958	692.55
793.139	635.21
793.32	629.07
793.5	604.49
793.681	624.97
793.862	530.77
794.042	575.82
794.223	549.2
794.404	563.53
794.584	510.29
794.765	483.66
794.945	586.06
795.126	653.64
795.306	573.77
795.487	545.1
795.667	581.96
795.848	549.2
796.028	491.85
796.209	596.3
796.389	647.5
796.57	575.82
796.75	508.24
796.93	512.33
797.111	526.67
797.291	475.47
797.471	528.72
797.652	471.37
797.832	475.47
798.012	557.39
798.192	448.85
798.373	477.52
798.553	487.76
798.733	510.29
798.913	506.19
799.093	414.03
799.274	555.34
799.454	532.81
799.634	571.72
799.814	538.96
799.994	485.71
800.174	430.41
800.354	389.46
800.534	432.46
800.714	500.05
800.894	454.99
801.074	409.94
801.254	438.61
801.434	395.6
801.614	393.55
801.794	375.12
801.974	1175.88
802.154	362.83
802.334	506.19
802.514	420.17
802.693	465.23
802.873	457.04
803.053	465.23
803.233	418.13
803.413	401.74
803.592	291.15
803.772	436.56
803.952	409.94
804.131	325.97
804.311	434.51
804.491	387.41
804.67	338.26
804.85	416.08
805.03	381.26
805.209	448.85
805.389	434.51
805.568	334.16
805.748	450.89
805.928	440.65
806.107	485.71
806.287	442.7
806.466	391.5
806.646	317.78
806.825	338.26
807.004	305.49
807.184	360.78
807.363	411.98
807.543	330.06
807.722	301.39
807.901	383.31
808.081	444.75
808.26	262.48
808.439	352.59
808.619	352.59
808.798	334.16
808.977	330.06
809.156	414.03
809.336	340.3
809.515	317.78
809.694	207.19
809.873	309.58
810.052	401.74
810.231	328.02
810.411	250.19
810.59	299.34
810.769	371.02
810.948	375.12
811.127	282.96
811.306	305.49
811.485	280.91
811.664	366.93
811.843	325.97
812.022	313.68
812.201	233.81
812.38	301.39
812.559	225.62
812.737	285.01
812.916	229.71
813.095	266.58
813.274	252.24
813.453	248.15
813.632	233.81
813.811	315.73
813.989	186.71
814.168	295.25
814.347	272.72
814.526	262.48
814.704	340.3
814.883	313.68
815.062	285.01
815.24	309.58
815.419	319.82
815.598	287.06
815.776	246.1
815.955	248.15
816.133	213.33
816.312	268.63
816.49	235.86
816.669	272.72
816.847	180.56
817.026	338.26
817.204	209.23
817.383	186.71
817.561	248.15
817.74	239.95
817.918	268.63
818.097	225.62
818.275	342.35
818.453	207.19
818.632	192.85
818.81	196.95
818.988	237.91
819.167	237.91
819.345	289.1
819.523	268.63
819.701	244.05
819.879	260.43
820.058	244.05
820.236	268.63
820.414	211.28
820.592	184.66
820.77	229.71
820.948	258.39
821.127	194.9
821.305	244.05
821.483	182.61
821.661	264.53
821.839	213.33
822.017	160.08
822.195	133.46
822.373	164.18
822.551	225.62
822.729	225.62
822.907	217.43
823.085	219.47
823.262	198.99
823.44	217.43
823.618	237.91
823.796	252.24
823.974	92.5
824.152	217.43
824.329	123.22
824.507	233.81
824.685	155.99
824.863	160.08
825.04	168.27
825.218	242
825.396	184.66
825.574	139.6
825.751	207.19
825.929	172.37
826.107	94.55
826.284	221.52
826.462	201.04
826.639	72.02
826.817	205.14
826.994	166.23
827.172	176.47
827.349	213.33
827.527	184.66
827.704	180.56
827.882	188.75
828.059	155.99
828.237	225.62
828.414	84.31
828.591	72.02
828.769	211.28
828.946	180.56
829.124	242
829.301	172.37
829.478	139.6
829.655	90.45
829.833	145.75
830.01	145.75
830.187	170.32
830.364	139.6
830.542	291.15
830.719	180.56
830.896	190.8
831.073	170.32
831.25	158.03
831.427	86.36
831.604	153.94
831.782	49.49
831.959	203.09
832.136	172.37
832.313	110.93
832.49	143.7
832.667	188.75
832.844	115.03
833.021	250.19
833.198	176.47
833.374	151.89
833.551	143.7
833.728	74.07
833.905	231.76
834.082	88.4
834.259	162.13
834.436	158.03
834.612	80.21
834.789	174.42
834.966	198.99
835.143	115.03
835.319	88.4
835.496	184.66
835.673	106.84
835.85	131.41
836.026	121.17
836.203	205.14
836.38	88.4
836.556	115.03
836.733	29.01
836.909	155.99
837.086	123.22
837.262	67.92
837.439	141.65
837.616	112.98
837.792	176.47
837.968	115.03
838.145	86.36
838.321	151.89
838.498	102.74
838.674	92.5
838.851	164.18
839.027	98.64
839.203	149.84
839.38	164.18
839.556	18.77
839.732	223.57
839.909	141.65
840.085	108.88
840.261	88.4
840.437	84.31
840.614	104.79
840.79	233.81
840.966	149.84
841.142	117.08
841.318	158.03
841.494	170.32
841.671	80.21
841.847	35.16
842.023	90.45
842.199	110.93
842.375	98.64
842.551	104.79
842.727	22.87
842.903	123.22
843.079	90.45
843.255	96.6
843.431	82.26
843.607	78.16
843.783	88.4
843.959	201.04
844.134	86.36
844.31	65.88
844.486	125.27
844.662	59.73
844.838	155.99
845.013	160.08
845.189	129.36
845.365	94.55
845.541	84.31
845.716	74.07
845.892	137.56
846.068	61.78
846.244	57.68
846.419	125.27
846.595	76.12
846.77	88.4
846.946	86.36
847.122	145.75
847.297	55.64
847.473	194.9
847.648	110.93
847.824	67.92
847.999	49.49
848.175	43.35
848.35	96.6
848.526	127.32
848.701	92.5
848.876	59.73
849.052	100.69
849.227	104.79
849.403	92.5
849.578	69.97
849.753	102.74
849.929	94.55
850.104	53.59
850.279	110.93
850.454	131.41
850.63	153.94
850.805	160.08
850.98	106.84
851.155	26.96
851.33	69.97
851.505	78.16
851.681	135.51
851.856	100.69
852.031	123.22
852.206	110.93
852.381	74.07
852.556	82.26
852.731	49.49
852.906	76.12
853.081	121.17
853.256	135.51
853.431	82.26
853.606	125.27
853.781	55.64
853.956	26.96
854.131	86.36
854.305	72.02
854.48	86.36
854.655	55.64
854.83	22.87
855.005	90.45
855.18	121.17
855.354	123.22
855.529	92.5
855.704	-7.85
855.879	84.31
856.053	80.21
856.228	59.73
856.403	-1.71
856.577	35.16
856.752	65.88
856.926	143.7
857.101	117.08
857.276	29.01
857.45	22.87
857.625	78.16
857.799	31.06
857.974	51.54
858.148	4.44
858.323	110.93
858.497	33.11
858.672	10.58
858.846	35.16
859.02	166.23
859.195	35.16
859.369	82.26
859.543	45.4
859.718	55.64
859.892	102.74
860.066	0.34
860.241	55.64
860.415	22.87
860.589	6.49
860.763	88.4
860.938	33.11
861.112	49.49
861.286	6.49
861.46	92.5
861.634	-1.71
861.808	80.21
861.982	59.73
862.157	-3.75
862.331	45.4
862.505	20.82
862.679	6.49
862.853	59.73
863.027	86.36
863.201	57.68
863.375	35.16
863.549	112.98
863.722	22.87
863.896	86.36
864.07	22.87
864.244	49.49
864.418	59.73
864.592	55.64
864.766	67.92
864.939	14.68
865.113	98.64
865.287	63.83
865.461	49.49
865.634	33.11
865.808	6.49
865.982	8.53
866.156	55.64
866.329	26.96
866.503	35.16
866.676	131.41
866.85	43.35
867.024	35.16
867.197	88.4
867.371	74.07
867.544	14.68
867.718	-3.75
867.891	78.16
868.065	2.39
868.238	31.06
868.412	98.64
868.585	78.16
868.759	74.07
868.932	4.44
869.105	10.58
869.279	41.3
869.452	53.59
869.625	-42.67
869.799	63.83
869.972	-3.75
870.145	35.16
870.319	22.87
870.492	51.54
870.665	61.78
870.838	-13.99
871.011	-13.99
871.185	22.87
871.358	16.73
871.531	67.92
871.704	31.06
871.877	37.2
872.05	-40.62
872.223	-3.75
872.396	57.68
872.569	-22.19
872.742	2.39
872.915	8.53
873.088	53.59
873.261	61.78
873.434	153.94
873.607	47.44
873.78	16.73
873.953	-61.1
874.126	43.35
874.299	49.49
874.471	-3.75
874.644	41.3
874.817	90.45
874.99	108.88
875.163	4.44
875.335	53.59
875.508	55.64
875.681	41.3
875.853	0.34
876.026	16.73
876.199	69.97
876.371	57.68
876.544	26.96
876.717	53.59
876.889	-77.48
877.062	53.59
877.234	33.11
877.407	-13.99
877.579	16.73
877.752	49.49
877.924	45.4
878.097	53.59
878.269	45.4
878.442	20.82
878.614	72.02
878.786	55.64
878.959	-50.86
879.131	65.88
879.303	39.25
879.476	12.63
879.648	74.07
879.82	-13.99
879.993	69.97
880.165	-13.99
880.337	-18.09
880.509	-7.85
880.681	-44.71
880.854	2.39
881.026	29.01
881.198	164.18
881.37	18.77
881.542	-16.04
881.714	-3.75
881.886	98.64
882.058	55.64
882.23	106.84
882.402	53.59
882.574	141.65
882.746	29.01
882.918	37.2
883.09	31.06
883.262	-26.28
883.434	100.69
883.606	-30.38
883.778	106.84
883.95	14.68
884.122	6.49
884.293	82.26
884.465	0.34
884.637	14.68
884.809	41.3
884.98	35.16
885.152	-7.85
885.324	76.12
885.496	-26.28
885.667	-32.43
885.839	22.87
886.011	78.16
886.182	110.93
886.354	59.73
886.525	22.87
886.697	-30.38
886.869	16.73
887.04	59.73
887.212	117.08
887.383	115.03
887.555	33.11
887.726	-28.33
887.897	-22.19
888.069	33.11
888.24	20.82
888.412	65.88
888.583	-9.9
888.754	41.3
888.926	-97.96
889.097	-1.71
889.268	2.39
889.44	-20.14
889.611	18.77
889.782	14.68
889.953	-13.99
890.125	6.49
890.296	51.54
890.467	4.44
890.638	-28.33
890.809	-40.62
890.98	20.82
891.151	37.2
891.323	133.46
891.494	31.06
891.665	24.92
891.836	0.34
892.007	-1.71
892.178	39.25
892.349	-11.95
892.52	-13.99
892.691	43.35
892.862	-3.75
893.032	-7.85
893.203	16.73
893.374	-75.43
893.545	55.64
893.716	-7.85
893.887	22.87
894.057	67.92
894.228	2.39
894.399	10.58
894.57	45.4
894.74	-1.71
894.911	78.16
895.082	-38.57
895.253	0.34
895.423	53.59
895.594	63.83
895.764	10.58
895.935	20.82
896.106	39.25
896.276	33.11
896.447	35.16
896.617	2.39
896.788	18.77
896.958	33.11
897.129	-11.95
897.299	-36.52
897.47	53.59
897.64	90.45
897.81	-18.09
897.981	59.73
898.151	74.07
898.322	24.92
898.492	14.68
898.662	18.77
898.832	-7.85
899.003	90.45
899.173	6.49
899.343	4.44
899.513	-24.23
