Data from USB4F104151__4__12-23-17-058.txt Node

Date: Fri Mar 14 12:23:17 EDT 2025
User: louis
Spectrometer: USB4F10415
Trigger mode: 4
Integration Time (sec): 3.500000E-2
Scans to average: 1
Electric dark correction enabled: true
Nonlinearity correction enabled: false
Boxcar width: 0
XAxis mode: Wavelengths
Number of Pixels in Spectrum: 3648
>>>>>Begin Spectral Data<<<<<
178.204	-196.26
178.424	-196.26
178.644	-196.26
178.864	-110.25
179.084	-163.5
179.304	-61.1
179.524	-11.95
179.744	4.44
179.964	-20.14
180.184	61.78
180.404	29.01
180.624	8.53
180.844	6.49
181.064	8.53
181.283	-16.04
181.503	-5.8
181.723	-3.75
181.943	-57
182.163	67.92
182.383	8.53
182.602	-36.52
182.822	-46.76
183.042	-46.76
183.262	-9.9
183.482	-54.95
183.701	0.34
183.921	-16.04
184.141	-24.23
184.361	63.83
184.58	45.4
184.8	-13.99
185.02	-32.43
185.239	80.21
185.459	-61.1
185.679	49.49
185.898	-50.86
186.118	24.92
186.338	22.87
186.557	35.16
186.777	14.68
186.997	22.87
187.216	-79.53
187.436	117.08
187.655	72.02
187.875	67.92
188.095	10.58
188.314	76.12
188.534	55.64
188.753	33.11
188.973	20.82
189.192	6.49
189.412	-5.8
189.631	41.3
189.851	8.53
190.07	67.92
190.29	12.63
190.509	22.87
190.729	-16.04
190.948	22.87
191.168	153.94
191.387	10.58
191.607	-7.85
191.826	-1.71
192.045	26.96
192.265	55.64
192.484	72.02
192.704	53.59
192.923	-63.15
193.142	12.63
193.362	-34.47
193.581	63.83
193.8	37.2
194.02	45.4
194.239	-63.15
194.458	-9.9
194.678	16.73
194.897	67.92
195.116	-1.71
195.335	24.92
195.555	2.39
195.774	26.96
195.993	2.39
196.212	33.11
196.432	72.02
196.651	63.83
196.87	14.68
197.089	86.36
197.308	-22.19
197.528	31.06
197.747	-1.71
197.966	47.44
198.185	45.4
198.404	-28.33
198.623	37.2
198.842	6.49
199.062	35.16
199.281	80.21
199.5	12.63
199.719	10.58
199.938	6.49
200.157	78.16
200.376	22.87
200.595	57.68
200.814	10.58
201.033	45.4
201.252	20.82
201.471	39.25
201.69	37.2
201.909	65.88
202.128	35.16
202.347	-36.52
202.566	-46.76
202.785	2.39
203.004	6.49
203.223	106.84
203.442	-36.52
203.661	-52.91
203.879	45.4
204.098	-5.8
204.317	-71.34
204.536	90.45
204.755	-13.99
204.974	90.45
205.193	45.4
205.411	53.59
205.63	67.92
205.849	-28.33
206.068	-69.29
206.287	35.16
206.505	43.35
206.724	-20.14
206.943	-20.14
207.162	35.16
207.381	86.36
207.599	49.49
207.818	-3.75
208.037	-42.67
208.255	-9.9
208.474	-18.09
208.693	26.96
208.911	80.21
209.13	-13.99
209.349	-3.75
209.567	31.06
209.786	108.88
210.005	43.35
210.223	31.06
210.442	-46.76
210.661	-38.57
210.879	-46.76
211.098	-13.99
211.316	10.58
211.535	88.4
211.753	31.06
211.972	8.53
212.191	-22.19
212.409	-28.33
212.628	-16.04
212.846	8.53
213.065	49.49
213.283	33.11
213.502	4.44
213.72	-83.63
213.938	18.77
214.157	10.58
214.375	47.44
214.594	80.21
214.812	33.11
215.031	0.34
215.249	-44.71
215.467	-20.14
215.686	-13.99
215.904	72.02
216.122	35.16
216.341	2.39
216.559	55.64
216.778	18.77
216.996	20.82
217.214	-3.75
217.432	-34.47
217.651	-79.53
217.869	-61.1
218.087	16.73
218.306	55.64
218.524	-11.95
218.742	39.25
218.96	-9.9
219.179	22.87
219.397	-7.85
219.615	59.73
219.833	82.26
220.051	-18.09
220.27	49.49
220.488	29.01
220.706	78.16
220.924	43.35
221.142	-24.23
221.36	29.01
221.578	61.78
221.796	-18.09
222.015	35.16
222.233	59.73
222.451	16.73
222.669	-26.28
222.887	33.11
223.105	-44.71
223.323	14.68
223.541	6.49
223.759	26.96
223.977	-18.09
224.195	92.5
224.413	26.96
224.631	-9.9
224.849	69.97
225.067	108.88
225.285	-28.33
225.503	-1.71
225.721	-36.52
225.939	-3.75
226.157	-30.38
226.375	131.41
226.592	4.44
226.81	47.44
227.028	53.59
227.246	45.4
227.464	-22.19
227.682	18.77
227.9	45.4
228.117	6.49
228.335	-1.71
228.553	2.39
228.771	20.82
228.989	-5.8
229.206	74.07
229.424	-50.86
229.642	37.2
229.86	33.11
230.077	-28.33
230.295	47.44
230.513	37.2
230.731	67.92
230.948	90.45
231.166	117.08
231.384	22.87
231.601	10.58
231.819	53.59
232.037	-7.85
232.254	-30.38
232.472	51.54
232.689	-20.14
232.907	67.92
233.125	-7.85
233.342	4.44
233.56	0.34
233.777	39.25
233.995	125.27
234.213	106.84
234.43	37.2
234.648	-16.04
234.865	55.64
235.083	31.06
235.3	35.16
235.518	-1.71
235.735	86.36
235.953	45.4
236.17	45.4
236.388	45.4
236.605	61.78
236.822	20.82
237.04	51.54
237.257	-5.8
237.475	-61.1
237.692	45.4
237.909	51.54
238.127	6.49
238.344	-1.71
238.562	22.87
238.779	-54.95
238.996	-59.05
239.214	41.3
239.431	33.11
239.648	12.63
239.865	-18.09
240.083	76.12
240.3	-48.81
240.517	33.11
240.735	43.35
240.952	26.96
241.169	26.96
241.386	51.54
241.603	-79.53
241.821	2.39
242.038	35.16
242.255	49.49
242.472	26.96
242.689	47.44
242.907	59.73
243.124	39.25
243.341	-28.33
243.558	29.01
243.775	-18.09
243.992	22.87
244.209	53.59
244.426	59.73
244.643	-28.33
244.86	-7.85
245.078	-3.75
245.295	24.92
245.512	-50.86
245.729	-13.99
245.946	94.55
246.163	-50.86
246.38	26.96
246.597	2.39
246.814	2.39
247.031	-61.1
247.248	57.68
247.464	39.25
247.681	-24.23
247.898	-32.43
248.115	0.34
248.332	51.54
248.549	8.53
248.766	78.16
248.983	63.83
249.2	20.82
249.417	45.4
249.633	43.35
249.85	-48.81
250.067	-61.1
250.284	-22.19
250.501	24.92
250.717	-9.9
250.934	-38.57
251.151	16.73
251.368	2.39
251.585	-24.23
251.801	0.34
252.018	-46.76
252.235	29.01
252.451	-81.58
252.668	16.73
252.885	-7.85
253.102	49.49
253.318	-9.9
253.535	0.34
253.752	-69.29
253.968	-22.19
254.185	-59.05
254.401	-7.85
254.618	86.36
254.835	12.63
255.051	35.16
255.268	18.77
255.484	12.63
255.701	6.49
255.917	53.59
256.134	-63.15
256.351	33.11
256.567	8.53
256.784	43.35
257	-7.85
257.217	10.58
257.433	31.06
257.65	-42.67
257.866	76.12
258.082	-32.43
258.299	-11.95
258.515	90.45
258.732	-26.28
258.948	22.87
259.165	53.59
259.381	-30.38
259.597	-87.72
259.814	6.49
260.03	-5.8
260.246	26.96
260.463	55.64
260.679	76.12
260.895	14.68
261.112	-48.81
261.328	41.3
261.544	-13.99
261.761	-11.95
261.977	-38.57
262.193	18.77
262.409	49.49
262.626	47.44
262.842	55.64
263.058	-54.95
263.274	-3.75
263.49	-24.23
263.707	74.07
263.923	39.25
264.139	0.34
264.355	-22.19
264.571	-7.85
264.787	43.35
265.004	2.39
265.22	-1.71
265.436	12.63
265.652	-20.14
265.868	10.58
266.084	18.77
266.3	-24.23
266.516	-114.34
266.732	4.44
266.948	24.92
267.164	-11.95
267.38	-7.85
267.596	2.39
267.812	76.12
268.028	18.77
268.244	-67.24
268.46	29.01
268.676	20.82
268.892	65.88
269.108	8.53
269.324	-59.05
269.54	0.34
269.756	100.69
269.972	2.39
270.188	-38.57
270.403	-87.72
270.619	-20.14
270.835	78.16
271.051	-16.04
271.267	49.49
271.483	24.92
271.698	31.06
271.914	47.44
272.13	20.82
272.346	8.53
272.562	47.44
272.777	20.82
272.993	16.73
273.209	-1.71
273.425	4.44
273.64	-69.29
273.856	31.06
274.072	-46.76
274.287	20.82
274.503	-42.67
274.719	41.3
274.934	35.16
275.15	0.34
275.366	16.73
275.581	20.82
275.797	0.34
276.012	47.44
276.228	88.4
276.444	-34.47
276.659	76.12
276.875	22.87
277.09	-34.47
277.306	10.58
277.521	76.12
277.737	-20.14
277.952	24.92
278.168	47.44
278.383	35.16
278.599	-83.63
278.814	39.25
279.03	26.96
279.245	72.02
279.461	14.68
279.676	63.83
279.892	-1.71
280.107	-22.19
280.322	-71.34
280.538	55.64
280.753	-3.75
280.969	-38.57
281.184	-30.38
281.399	29.01
281.615	84.31
281.83	61.78
282.045	-9.9
282.26	-81.58
282.476	41.3
282.691	29.01
282.906	-20.14
283.122	-7.85
283.337	10.58
283.552	80.21
283.767	22.87
283.983	45.4
284.198	24.92
284.413	-5.8
284.628	35.16
284.843	-22.19
285.058	69.97
285.274	31.06
285.489	-22.19
285.704	-42.67
285.919	-30.38
286.134	51.54
286.349	18.77
286.564	33.11
286.779	117.08
286.995	-7.85
287.21	-52.91
287.425	80.21
287.64	-36.52
287.855	98.64
288.07	-48.81
288.285	41.3
288.5	31.06
288.715	121.17
288.93	-22.19
289.145	14.68
289.36	-81.58
289.575	29.01
289.79	69.97
290.004	-42.67
290.219	-13.99
290.434	20.82
290.649	33.11
290.864	2.39
291.079	12.63
291.294	88.4
291.509	61.78
291.724	76.12
291.938	82.26
292.153	0.34
292.368	-42.67
292.583	10.58
292.798	76.12
293.012	43.35
293.227	69.97
293.442	49.49
293.657	16.73
293.871	29.01
294.086	78.16
294.301	104.79
294.516	18.77
294.73	31.06
294.945	22.87
295.16	-22.19
295.374	92.5
295.589	10.58
295.804	-40.62
296.018	-69.29
296.233	57.68
296.447	26.96
296.662	24.92
296.877	55.64
297.091	65.88
297.306	33.11
297.52	57.68
297.735	10.58
297.949	69.97
298.164	-5.8
298.378	53.59
298.593	22.87
298.807	-36.52
299.022	-11.95
299.236	-11.95
299.451	-20.14
299.665	10.58
299.88	-57
300.094	12.63
300.309	8.53
300.523	24.92
300.737	22.87
300.952	-16.04
301.166	53.59
301.381	-28.33
301.595	-18.09
301.809	-11.95
302.024	4.44
302.238	-46.76
302.452	67.92
302.667	59.73
302.881	-18.09
303.095	37.2
303.309	-9.9
303.524	39.25
303.738	22.87
303.952	-13.99
304.166	41.3
304.381	-44.71
304.595	33.11
304.809	-16.04
305.023	49.49
305.237	45.4
305.452	10.58
305.666	14.68
305.88	-24.23
306.094	98.64
306.308	-20.14
306.522	20.82
306.736	0.34
306.95	65.88
307.164	12.63
307.379	67.92
307.593	26.96
307.807	63.83
308.021	14.68
308.235	22.87
308.449	16.73
308.663	53.59
308.877	82.26
309.091	-67.24
309.305	43.35
309.519	31.06
309.733	82.26
309.947	2.39
310.161	10.58
310.374	26.96
310.588	-16.04
310.802	20.82
311.016	10.58
311.23	65.88
311.444	-36.52
311.658	76.12
311.872	0.34
312.085	49.49
312.299	59.73
312.513	72.02
312.727	37.2
312.941	-32.43
313.154	4.44
313.368	33.11
313.582	47.44
313.796	-69.29
314.009	-36.52
314.223	16.73
314.437	-16.04
314.651	61.78
314.864	-11.95
315.078	-11.95
315.292	-77.48
315.505	-36.52
315.719	-32.43
315.933	-52.91
316.146	8.53
316.36	31.06
316.573	22.87
316.787	20.82
317.001	22.87
317.214	26.96
317.428	10.58
317.641	-122.54
317.855	-1.71
318.068	45.4
318.282	37.2
318.495	-42.67
318.709	82.26
318.922	-5.8
319.136	10.58
319.349	29.01
319.563	6.49
319.776	-59.05
319.99	-69.29
320.203	20.82
320.417	41.3
320.63	24.92
320.843	63.83
321.057	43.35
321.27	69.97
321.483	37.2
321.697	37.2
321.91	31.06
322.124	-52.91
322.337	4.44
322.55	-18.09
322.763	29.01
322.977	63.83
323.19	-3.75
323.403	72.02
323.617	0.34
323.83	84.31
324.043	-18.09
324.256	-34.47
324.469	-9.9
324.683	49.49
324.896	55.64
325.109	16.73
325.322	-52.91
325.535	24.92
325.748	29.01
325.962	0.34
326.175	-3.75
326.388	49.49
326.601	-44.71
326.814	-52.91
327.027	-7.85
327.24	110.93
327.453	-20.14
327.666	72.02
327.879	74.07
328.092	69.97
328.305	92.5
328.518	31.06
328.731	8.53
328.944	63.83
329.157	57.68
329.37	98.64
329.583	88.4
329.796	82.26
330.009	61.78
330.222	72.02
330.435	20.82
330.648	-1.71
330.861	4.44
331.073	37.2
331.286	43.35
331.499	-32.43
331.712	41.3
331.925	12.63
332.138	24.92
332.35	88.4
332.563	-16.04
332.776	29.01
332.989	-50.86
333.202	4.44
333.414	10.58
333.627	35.16
333.84	49.49
334.053	39.25
334.265	-16.04
334.478	22.87
334.691	-18.09
334.903	29.01
335.116	24.92
335.329	-36.52
335.541	106.84
335.754	102.74
335.966	53.59
336.179	-54.95
336.392	22.87
336.604	20.82
336.817	-11.95
337.029	12.63
337.242	-50.86
337.454	26.96
337.667	-3.75
337.88	4.44
338.092	-20.14
338.305	35.16
338.517	43.35
338.729	47.44
338.942	53.59
339.154	-5.8
339.367	-9.9
339.579	10.58
339.792	41.3
340.004	47.44
340.217	18.77
340.429	61.78
340.641	-28.33
340.854	29.01
341.066	-24.23
341.278	92.5
341.491	33.11
341.703	49.49
341.915	6.49
342.128	-65.19
342.34	39.25
342.552	10.58
342.764	4.44
342.977	-34.47
343.189	47.44
343.401	6.49
343.613	-7.85
343.826	33.11
344.038	10.58
344.25	65.88
344.462	-59.05
344.674	39.25
344.886	80.21
345.099	-42.67
345.311	-13.99
345.523	-40.62
345.735	-9.9
345.947	51.54
346.159	61.78
346.371	72.02
346.583	26.96
346.795	41.3
347.007	29.01
347.219	4.44
347.431	-40.62
347.643	57.68
347.855	-16.04
348.067	37.2
348.279	-42.67
348.491	35.16
348.703	12.63
348.915	6.49
349.127	37.2
349.339	22.87
349.551	4.44
349.763	45.4
349.975	-5.8
350.187	-28.33
350.399	96.6
350.61	67.92
350.822	-18.09
351.034	45.4
351.246	33.11
351.458	61.78
351.669	-1.71
351.881	53.59
352.093	22.87
352.305	96.6
352.517	22.87
352.728	24.92
352.94	35.16
353.152	22.87
353.363	43.35
353.575	33.11
353.787	110.93
353.999	53.59
354.21	20.82
354.422	10.58
354.633	-48.81
354.845	35.16
355.057	49.49
355.268	59.73
355.48	20.82
355.692	33.11
355.903	63.83
356.115	16.73
356.326	-3.75
356.538	78.16
356.749	76.12
356.961	39.25
357.172	-46.76
357.384	20.82
357.595	69.97
357.807	-11.95
358.018	-9.9
358.23	45.4
358.441	18.77
358.653	0.34
358.864	-5.8
359.075	86.36
359.287	65.88
359.498	14.68
359.709	37.2
359.921	8.53
360.132	16.73
360.344	-81.58
360.555	-54.95
360.766	18.77
360.977	47.44
361.189	-16.04
361.4	72.02
361.611	92.5
361.823	-7.85
362.034	6.49
362.245	26.96
362.456	-24.23
362.667	0.34
362.879	-46.76
363.09	37.2
363.301	-13.99
363.512	10.58
363.723	4.44
363.935	20.82
364.146	86.36
364.357	31.06
364.568	0.34
364.779	72.02
364.99	33.11
365.201	-22.19
365.412	37.2
365.623	12.63
365.834	-32.43
366.045	-30.38
366.256	106.84
366.467	-28.33
366.678	-1.71
366.889	65.88
367.1	2.39
367.311	76.12
367.522	59.73
367.733	31.06
367.944	18.77
368.155	-16.04
368.366	8.53
368.577	20.82
368.788	8.53
368.999	35.16
369.209	-26.28
369.42	63.83
369.631	135.51
369.842	-71.34
370.053	94.55
370.264	63.83
370.474	6.49
370.685	-28.33
370.896	-24.23
371.107	31.06
371.317	37.2
371.528	10.58
371.739	22.87
371.95	125.27
372.16	35.16
372.371	0.34
372.582	-40.62
372.792	-22.19
373.003	63.83
373.214	43.35
373.424	26.96
373.635	121.17
373.846	145.75
374.056	-3.75
374.267	26.96
374.477	65.88
374.688	-32.43
374.898	65.88
375.109	37.2
375.319	20.82
375.53	8.53
375.74	45.4
375.951	41.3
376.161	31.06
376.372	41.3
376.582	-5.8
376.793	16.73
377.003	-46.76
377.214	4.44
377.424	8.53
377.635	6.49
377.845	31.06
378.055	80.21
378.266	37.2
378.476	72.02
378.686	51.54
378.897	47.44
379.107	31.06
379.317	39.25
379.528	-20.14
379.738	63.83
379.948	49.49
380.158	-9.9
380.369	26.96
380.579	31.06
380.789	35.16
380.999	86.36
381.21	88.4
381.42	59.73
381.63	-28.33
381.84	6.49
382.05	37.2
382.261	2.39
382.471	84.31
382.681	20.82
382.891	133.46
383.101	45.4
383.311	8.53
383.521	10.58
383.731	123.22
383.941	-1.71
384.151	49.49
384.361	-16.04
384.571	-7.85
384.781	14.68
384.991	92.5
385.201	74.07
385.411	78.16
385.621	43.35
385.831	37.2
386.041	41.3
386.251	14.68
386.461	88.4
386.671	-9.9
386.881	53.59
387.091	-7.85
387.301	-26.28
387.511	6.49
387.72	63.83
387.93	-16.04
388.14	-24.23
388.35	10.58
388.56	69.97
388.769	33.11
388.979	-24.23
389.189	26.96
389.399	14.68
389.609	-54.95
389.818	10.58
390.028	55.64
390.238	-9.9
390.447	72.02
390.657	-5.8
390.867	20.82
391.076	-20.14
391.286	49.49
391.496	18.77
391.705	33.11
391.915	47.44
392.125	127.32
392.334	-75.43
392.544	37.2
392.753	0.34
392.963	84.31
393.172	0.34
393.382	110.93
393.591	149.84
393.801	-3.75
394.01	102.74
394.22	18.77
394.429	57.68
394.639	45.4
394.848	100.69
395.058	6.49
395.267	47.44
395.477	45.4
395.686	-7.85
395.895	123.22
396.105	155.99
396.314	51.54
396.524	98.64
396.733	94.55
396.942	78.16
397.152	63.83
397.361	123.22
397.57	-16.04
397.78	80.21
397.989	106.84
398.198	76.12
398.407	43.35
398.617	88.4
398.826	22.87
399.035	67.92
399.244	51.54
399.453	100.69
399.663	26.96
399.872	131.41
400.081	20.82
400.29	110.93
400.499	31.06
400.708	55.64
400.917	86.36
401.127	61.78
401.336	45.4
401.545	80.21
401.754	67.92
401.963	100.69
402.172	90.45
402.381	82.26
402.59	104.79
402.799	92.5
403.008	49.49
403.217	115.03
403.426	26.96
403.635	63.83
403.844	69.97
404.053	31.06
404.262	76.12
404.471	106.84
404.68	168.27
404.888	12.63
405.097	123.22
405.306	49.49
405.515	158.03
405.724	92.5
405.933	110.93
406.142	98.64
406.35	174.42
406.559	102.74
406.768	106.84
406.977	149.84
407.185	133.46
407.394	176.47
407.603	115.03
407.812	72.02
408.02	211.28
408.229	76.12
408.438	102.74
408.646	172.37
408.855	104.79
409.064	155.99
409.272	129.36
409.481	170.32
409.69	117.08
409.898	20.82
410.107	108.88
410.315	170.32
410.524	217.43
410.733	225.62
410.941	227.67
411.15	215.38
411.358	256.34
411.567	227.67
411.775	252.24
411.984	186.71
412.192	207.19
412.401	205.14
412.609	364.88
412.818	350.54
413.026	334.16
413.234	287.06
413.443	266.58
413.651	342.35
413.86	352.59
414.068	364.88
414.276	368.98
414.485	368.98
414.693	471.37
414.901	475.47
415.11	414.03
415.318	373.07
415.526	454.99
415.734	532.81
415.943	457.04
416.151	487.76
416.359	532.81
416.567	524.62
416.776	500.05
416.984	538.96
417.192	612.68
417.4	524.62
417.608	592.2
417.817	639.31
418.025	637.26
418.233	756.04
418.441	635.21
418.649	676.17
418.857	743.75
419.065	811.34
419.273	743.75
419.481	911.69
419.689	858.44
419.897	926.02
420.105	915.78
420.313	995.65
420.521	1014.09
420.729	1040.71
420.937	1089.86
421.145	1063.24
421.353	1079.62
421.561	1274.18
421.769	1214.79
421.977	1243.46
422.185	1229.12
422.393	1341.76
422.601	1362.24
422.809	1423.68
423.017	1417.54
423.224	1411.39
423.432	1624.38
423.64	1524.03
423.848	1739.07
424.056	1671.48
424.263	1763.64
424.471	1605.95
424.679	1837.37
424.887	2003.25
425.094	1892.66
425.302	1966.39
425.51	1939.77
425.718	2021.69
425.925	2083.13
426.133	2154.8
426.341	2425.14
426.548	2300.21
426.756	2363.7
426.964	2509.1
427.171	2609.45
427.379	2588.97
427.586	2703.66
427.794	2810.15
428.001	3017
428.209	2916.65
428.417	2992.42
428.624	3254.56
428.832	3131.69
429.039	3246.37
429.247	3123.49
429.454	3459.36
429.662	3729.69
429.869	3449.12
430.076	3643.68
430.284	3549.47
430.491	3758.36
430.699	3920.15
430.906	4067.61
431.114	4047.13
431.321	4307.22
431.528	4380.95
431.736	4462.87
431.943	4776.2
432.15	4632.85
432.358	4712.72
432.565	4937.99
432.772	4778.25
432.979	5087.5
433.187	5439.75
433.394	5335.3
433.601	5615.87
433.808	5660.93
434.016	5615.87
434.223	5912.83
434.43	6177.02
434.637	6148.34
434.844	6430.96
435.052	6506.74
435.259	6531.31
435.466	6856.94
435.673	6668.53
435.88	6965.48
436.087	7258.34
436.294	7438.56
436.501	7184.62
436.708	7444.71
436.915	7594.21
437.122	7954.65
437.329	7854.3
437.537	8044.76
437.743	8270.04
437.95	8196.31
438.157	8677.58
438.364	8749.26
438.571	8974.54
438.778	9097.42
438.985	9857.21
439.192	9517.25
439.399	9748.67
439.606	9556.16
439.813	10127.55
440.02	10692.79
440.227	10543.28
440.433	10391.73
440.64	10850.48
440.847	10621.11
441.054	11147.44
441.261	11548.84
441.467	11606.18
441.674	11755.68
441.881	12351.64
442.088	12165.28
442.294	12411.03
442.501	12253.34
442.708	12712.08
442.914	13308.04
443.121	13693.06
443.328	13361.29
443.534	14372.99
443.741	13953.15
443.948	13901.95
444.154	14692.47
444.361	14499.96
444.568	14661.75
444.774	14829.68
444.981	15108.21
445.187	15364.2
445.394	16121.95
445.6	15671.4
445.807	17160.27
446.013	16668.76
446.22	16918.61
446.426	17541.19
446.633	17832.01
446.839	18434.11
447.046	17743.94
447.252	18982.96
447.459	18481.21
447.665	18649.14
447.871	19245.1
448.078	20322.34
448.284	19351.6
448.491	19918.89
448.697	20621.34
448.903	21041.17
449.11	21153.81
449.316	20578.33
449.522	21407.76
449.728	21807.11
449.935	21868.55
450.141	21606.41
450.347	22503.42
450.553	21608.46
450.76	22007.81
450.966	22646.78
451.172	22169.6
451.378	23080.95
451.584	22310.91
451.791	22951.93
451.997	23207.92
452.203	23422.96
452.409	23310.32
452.615	23504.88
452.821	22398.98
453.027	22253.57
453.233	23420.91
453.44	22384.64
453.646	22726.65
453.852	22827
454.058	23171.06
454.264	22644.73
454.47	22544.38
454.676	22333.44
454.882	23191.54
455.088	21119
455.294	21301.26
455.5	21682.19
455.705	22265.86
455.911	21141.52
456.117	20885.53
456.323	20234.27
456.529	19370.03
456.735	20099.11
456.941	19427.37
457.147	19236.91
457.352	18798.65
457.558	18233.41
457.764	18384.96
457.97	18223.17
458.176	18128.96
458.381	17520.71
458.587	16746.58
458.793	16801.88
458.999	15921.25
459.204	16869.46
459.41	16699.48
459.616	15437.93
459.821	15478.89
460.027	15376.49
460.233	15085.68
460.438	14762.1
460.644	14409.85
460.85	14028.93
461.055	13572.23
461.261	13467.78
461.466	12759.19
461.672	12081.31
461.878	13103.25
462.083	12148.89
462.289	11925.66
462.494	11894.94
462.7	11526.31
462.905	11210.92
463.111	11663.52
463.316	11419.82
463.522	11415.72
463.727	11262.12
463.932	11094.19
464.138	10950.83
464.343	11153.58
464.549	10965.17
464.754	11032.75
464.959	11223.21
465.165	10981.55
465.37	10469.56
465.575	10289.34
465.781	10821.81
465.986	10764.47
466.191	10168.51
466.397	9965.76
466.602	9525.44
466.807	10064.06
467.012	10019
467.218	10025.15
467.423	9953.47
467.628	9932.99
467.833	10340.54
468.038	9906.37
468.244	9572.55
468.449	10010.81
468.654	9760.96
468.859	9543.88
469.064	9683.14
469.269	9314.5
469.474	9351.37
469.679	9431.24
469.885	9017.55
470.09	9353.41
470.295	9214.15
470.5	8894.67
470.705	9275.59
470.91	9009.36
471.115	8872.14
471.32	8919.25
471.525	8962.25
471.73	8671.44
471.935	8560.85
472.139	8208.6
472.344	8333.53
472.549	8007.9
472.754	8247.51
472.959	8147.16
473.164	7938.27
473.369	7809.25
473.574	8179.93
473.778	8175.83
473.983	7839.97
474.188	7768.29
474.393	7407.84
474.598	7702.75
474.802	7454.95
475.007	7407.84
475.212	7618.79
475.417	7098.6
475.621	7215.34
475.826	7065.83
476.031	7229.67
476.235	7071.98
476.44	6967.53
476.645	6973.67
476.849	6861.04
477.054	6596.85
477.259	6662.38
477.463	6652.14
477.668	6684.91
477.872	6693.1
478.077	6502.64
478.282	6355.19
478.486	6381.81
478.691	6199.54
478.895	6310.13
479.1	6351.09
479.304	6340.85
479.509	6033.66
479.713	6185.21
479.918	5988.6
480.122	5955.83
480.326	5878.01
480.531	6084.86
480.735	5855.48
480.94	5951.74
481.144	6076.66
481.348	5722.37
481.553	5990.65
481.757	5771.52
481.961	5878.01
482.166	5937.4
482.37	5875.96
482.574	5693.69
482.778	5861.63
482.983	5939.45
483.187	5767.42
483.391	5931.26
483.595	5630.21
483.8	5857.53
484.004	5935.35
484.208	5984.51
484.412	5945.59
484.616	5765.37
484.821	5736.7
485.025	5708.03
485.229	5908.73
485.433	5622.02
485.637	5869.82
485.841	5824.76
486.045	5693.69
486.249	5814.52
486.453	5650.69
486.657	5677.31
486.861	5744.89
487.065	5722.37
487.269	5802.24
487.473	5757.18
487.677	5847.29
487.881	5918.97
488.085	5763.33
488.289	5773.57
488.493	5755.13
488.697	5847.29
488.901	5863.68
489.105	5802.24
489.309	5742.85
489.512	5765.37
489.716	5978.36
489.92	5935.35
490.124	5882.11
490.328	6129.91
490.531	5826.81
490.735	5884.16
490.939	6037.75
491.143	5961.98
491.346	6117.62
491.55	6107.38
491.754	6117.62
491.958	6123.77
492.161	6191.35
492.365	6148.34
492.569	6291.7
492.772	6091
492.976	6174.97
493.18	6291.7
493.383	6191.35
493.587	6334.71
493.79	6435.06
493.994	6215.93
494.197	6414.58
494.401	6435.06
494.605	6547.7
494.808	6678.77
495.012	6658.29
495.215	6744.3
495.419	6625.52
495.622	6594.8
495.825	6682.86
496.029	6678.77
496.232	7088.36
496.436	7049.45
496.639	7051.5
496.843	7114.98
497.046	7151.85
497.249	7362.79
497.453	7141.61
497.656	7284.97
497.859	7354.6
498.063	7600.35
498.266	7633.12
498.469	7624.93
498.673	7655.65
498.876	7727.33
499.079	7889.12
499.282	7983.32
499.485	8241.37
499.689	8286.42
499.892	8347.86
500.095	8265.94
500.298	8491.22
500.501	8356.05
500.705	8702.16
500.908	8722.64
501.111	8800.46
501.314	9013.45
501.517	8982.73
501.72	9152.71
501.923	8970.44
502.126	9418.95
502.329	9597.12
502.532	9468.1
502.735	9656.51
502.938	9664.71
503.141	9779.39
503.344	9998.52
503.547	10033.34
503.75	10115.26
503.953	10191.03
504.156	10506.42
504.359	10754.23
504.562	10614.96
504.765	11020.46
504.968	10999.98
505.17	10930.35
505.373	11161.77
505.576	11337.9
505.779	11645.09
505.982	11421.86
506.185	11884.7
506.387	11831.46
506.59	11974.81
506.793	12208.28
506.996	12071.07
507.198	12392.6
507.401	12466.33
507.604	12755.09
507.807	13146.25
508.009	12947.6
508.212	13209.74
508.415	13136.01
508.617	13553.8
508.82	13682.82
509.022	13594.76
509.225	13865.09
509.428	14102.65
509.63	14061.69
509.833	14315.64
510.035	14674.04
510.238	14483.58
510.44	14917.75
510.643	14948.47
510.845	15241.32
511.048	14915.7
511.25	15569
511.453	15652.97
511.655	16072.8
511.858	15818.85
512.06	15876.2
512.262	16367.71
512.465	16392.28
512.667	16590.94
512.87	16752.73
513.072	16914.52
513.274	17360.97
513.477	17377.36
513.679	17852.48
513.881	17844.29
514.084	17844.29
514.286	17930.31
514.488	18300.99
514.69	18860.09
514.893	18782.26
515.095	18944.05
515.297	19126.32
515.499	19152.95
515.701	19306.54
515.904	19646.51
516.106	20109.35
516.308	20101.15
516.51	20148.26
516.712	20498.46
516.914	20727.83
517.116	20852.76
517.318	21227.54
517.52	21395.47
517.722	21637.13
517.925	21696.52
518.127	21848.07
518.329	22046.72
518.531	22120.45
518.733	22876.15
518.935	22738.94
519.136	22847.48
519.338	23148.53
519.54	23638
519.742	24043.49
519.944	23865.32
520.146	24379.36
520.348	24545.25
520.55	24895.45
520.752	24911.83
520.954	25409.49
521.155	24899.55
521.357	25472.98
521.559	26058.7
521.761	26253.25
521.963	26304.45
522.164	26271.68
522.366	26456
522.568	26845.12
522.77	27137.98
522.971	27557.81
523.173	27226.04
523.375	28063.66
523.576	27785.13
523.778	27930.54
523.98	28319.65
524.181	28526.5
524.383	28565.41
524.584	28833.69
524.786	28944.28
524.988	28839.84
525.189	29798.29
525.391	29294.49
525.592	29757.33
525.794	29882.25
525.995	29882.25
526.197	30087.05
526.398	30134.15
526.6	30320.52
526.801	30453.64
527.003	31111.03
527.204	30820.22
527.406	31139.71
527.607	31461.24
527.808	31428.47
528.01	31088.51
528.211	31180.67
528.412	32118.64
528.614	31807.34
528.815	32020.33
529.016	32380.78
529.218	31790.96
529.419	32204.65
529.62	32419.69
529.822	32415.59
530.023	32583.52
530.224	32733.03
530.425	32937.82
530.626	32368.49
530.828	32524.13
531.029	33130.33
531.23	32972.64
531.431	33216.35
531.632	32946.01
531.833	33349.46
532.035	33333.08
532.236	33494.87
532.437	33429.34
532.638	33292.12
532.839	33621.84
533.04	33515.35
533.241	32978.78
533.442	33990.48
533.643	33775.44
533.844	34029.39
534.045	33982.29
534.246	33503.06
534.447	34217.8
534.648	33949.52
534.849	34324.3
535.05	33544.02
535.251	34047.82
535.451	33808.21
535.652	34099.02
535.853	34205.52
536.054	33937.23
536.255	34056.01
536.456	33918.8
536.657	34170.7
536.857	33849.17
537.058	34076.49
537.259	34426.7
537.46	34260.81
537.66	33683.28
537.861	34322.25
538.062	34166.6
538.263	34162.51
538.463	33742.67
538.664	34021.2
538.865	34262.86
539.065	34264.91
539.266	33849.17
539.466	34473.8
539.667	33908.56
539.868	34412.36
540.068	34211.66
540.269	33832.79
540.469	34199.37
540.67	34088.78
540.87	34291.53
541.071	34393.93
541.271	34477.9
541.472	33996.62
541.672	34215.76
541.873	34266.95
542.073	33617.75
542.274	34430.79
542.474	34082.64
542.675	33988.43
542.875	34512.71
543.075	33873.74
543.276	33709.91
543.476	34350.92
543.676	33797.97
543.877	34447.18
544.077	34043.73
544.277	34064.21
544.478	34027.34
544.678	33806.16
544.878	33894.22
545.078	34084.69
545.279	33886.03
545.479	33812.31
545.679	34056.01
545.879	34064.21
546.079	33898.32
546.28	34031.44
546.48	33609.56
546.68	33894.22
546.88	33732.43
547.08	34010.96
547.28	33941.33
547.48	33996.62
547.68	34176.84
547.88	33726.29
548.081	33709.91
548.281	33660.76
548.481	33961.81
548.681	34037.58
548.881	34297.67
549.081	33843.02
549.28	33750.87
549.48	33724.24
549.68	33814.35
549.88	34301.77
550.08	33673.04
550.28	34164.56
550.48	33838.93
550.68	34013.01
550.88	33533.78
551.08	33974.09
551.279	34039.63
551.479	33468.25
551.679	33761.11
551.879	33740.63
552.079	33894.22
552.278	33863.5
552.478	33605.46
552.678	34047.82
552.878	34033.49
553.077	33752.91
553.277	33310.55
553.477	33775.44
553.676	33761.11
553.876	33883.98
554.076	33288.03
554.275	33351.51
554.475	32950.11
554.674	33607.51
554.874	33871.7
555.074	33404.76
555.273	33429.34
555.473	33617.75
555.672	33531.73
555.872	33152.86
556.071	33492.82
556.271	33714
556.47	33132.38
556.67	32857.95
556.869	32907.1
557.068	32769.89
557.268	33025.89
557.467	32687.97
557.667	33120.09
557.866	32948.06
558.065	33038.17
558.265	32708.45
558.464	32374.63
558.663	32843.62
558.863	32173.93
559.062	32657.25
559.261	32323.43
559.461	32569.19
559.66	32333.67
559.859	32528.23
560.058	32257.9
560.258	32372.58
560.457	31962.99
560.656	32175.98
560.855	32020.33
561.054	32216.94
561.253	31885.17
561.453	31930.22
561.652	32006
561.851	31815.54
562.05	31684.47
562.249	31612.79
562.448	31348.6
562.647	31590.26
562.846	31451
563.045	31334.26
563.244	30945.15
563.443	31407.99
563.642	31235.96
563.841	31111.03
564.04	30840.7
564.239	31010.68
564.438	30525.32
564.637	30713.73
564.836	30566.27
565.035	30396.29
565.234	30394.25
565.432	30232.46
565.631	30062.47
565.83	30214.02
566.029	29843.34
566.228	29757.33
566.427	30050.19
566.625	29597.59
566.824	29351.83
567.023	29708.18
567.222	29417.36
567.42	29771.66
567.619	29605.78
567.818	29415.32
568.016	29167.51
568.215	29732.75
568.414	28864.41
568.612	29042.59
568.811	28903.32
569.01	28614.56
569.208	28704.67
569.407	28815.26
569.605	28243.88
569.804	28641.18
570.002	28004.27
570.201	28469.15
570.4	27813.8
570.598	28043.18
570.797	28028.84
570.995	27760.56
571.193	27600.82
571.392	27563.95
571.59	27514.8
571.789	27606.96
571.987	27348.92
572.186	27283.38
572.384	27207.61
572.582	26806.2
572.781	27244.47
572.979	27021.24
573.177	26804.16
573.376	26716.09
573.574	26652.61
573.772	26945.47
573.971	26273.73
574.169	26279.88
574.367	26070.98
574.565	26345.41
574.763	26087.37
574.962	25974.73
575.16	25733.07
575.358	25823.18
575.556	25653.2
575.754	25903.05
575.952	25253.84
576.151	25614.29
576.349	25071.57
576.547	25501.65
576.745	25272.28
576.943	24954.84
577.141	25180.12
577.339	25022.42
577.537	24879.07
577.735	25073.62
577.933	24934.36
578.131	25006.04
578.329	24397.79
578.527	24459.23
578.725	24469.47
578.923	24555.49
579.121	24365.03
579.319	23859.18
579.516	24274.91
579.714	24176.61
579.912	23924.71
580.11	23812.07
580.308	24109.03
580.506	23717.87
580.704	23582.7
580.901	23611.37
581.099	23803.88
581.297	23724.01
581.495	23306.23
581.692	23556.08
581.89	23429.1
582.088	23285.75
582.285	22849.53
582.483	23361.52
582.681	23023.61
582.878	22898.68
583.076	22650.88
583.274	22855.67
583.471	22538.24
583.669	22546.43
583.866	22401.02
584.064	22763.51
584.262	22198.27
584.459	22294.53
584.657	22165.51
584.854	22450.17
585.052	21639.18
585.249	21975.05
585.447	22292.48
585.644	21721.1
585.841	21737.48
586.039	21985.29
586.236	21577.74
586.434	21903.37
586.631	21516.3
586.828	21479.44
587.026	21458.96
587.223	21319.7
587.42	21131.28
587.618	21692.43
587.815	20983.83
588.012	20797.46
588.21	20910.1
588.407	21127.19
588.604	21192.72
588.801	20783.13
588.999	20711.45
589.196	20709.4
589.393	20731.93
589.59	20434.97
589.787	20781.08
589.984	20434.97
590.182	20293.66
590.379	20660.25
590.576	19980.32
590.773	20453.41
590.97	20086.82
591.167	20133.92
591.364	20043.81
591.561	19972.13
591.758	19818.53
591.955	19703.85
592.152	20027.43
592.349	19566.63
592.546	19759.14
592.743	19669.03
592.94	19011.64
593.137	19486.76
593.334	19396.65
593.531	19161.14
593.727	19333.17
593.924	19349.55
594.121	18966.58
594.318	19220.53
594.515	18858.04
594.712	19214.38
594.908	19150.9
595.105	18618.43
595.302	18896.95
595.499	18944.05
595.696	18587.71
595.892	18511.93
596.089	18546.75
596.286	18620.47
596.482	18311.23
596.679	18436.16
596.876	18493.5
597.072	18239.55
597.269	18448.44
597.466	18020.42
597.662	17743.94
597.859	18155.58
598.055	17872.96
598.252	18018.37
598.448	17829.96
598.645	17797.19
598.841	17610.82
599.038	17799.24
599.234	17954.88
599.431	17291.34
599.627	17473.61
599.824	17616.97
600.02	17506.38
600.217	17426.51
600.413	17539.15
600.609	17176.66
600.806	17045.59
601.002	17264.72
601.198	16965.71
601.395	16795.73
601.591	17117.26
601.787	17088.59
601.984	17008.72
602.18	17004.63
602.376	16642.14
602.572	16732.25
602.769	16986.19
602.965	16685.14
603.161	16603.22
603.357	16560.22
603.553	16447.58
603.75	16582.74
603.946	16476.25
604.142	16269.41
604.338	16220.25
604.534	16117.86
604.73	15990.88
604.926	16320.6
605.122	16400.48
605.318	15841.38
605.514	15833.19
605.71	15648.87
605.906	15687.78
606.102	15845.48
606.298	15722.6
606.494	15968.35
606.69	15419.5
606.886	15767.65
607.082	15343.72
607.278	15378.54
607.474	15343.72
607.67	15597.67
607.866	14891.12
608.062	15507.56
608.257	15249.52
608.453	15151.21
608.649	15456.36
608.845	15384.68
609.041	15083.63
609.236	15100.01
609.432	15009.9
609.628	15456.36
609.824	14952.56
610.019	15036.53
610.215	14719.09
610.411	15042.67
610.606	14663.8
610.802	15001.71
610.998	14815.35
611.193	14846.07
611.389	14702.71
611.584	14805.11
611.78	14485.62
611.976	14481.53
612.171	14635.13
612.367	14520.44
612.562	14207.1
612.758	14231.68
612.953	14160
613.149	14293.12
613.344	14276.73
613.539	14356.6
613.735	14225.53
613.93	14364.79
614.126	14164.09
614.321	14225.53
614.517	14358.65
614.712	14178.43
614.907	13908.1
615.103	14071.93
615.298	14000.26
615.493	14121.09
615.688	13707.4
615.884	14033.02
616.079	13654.15
616.274	13899.91
616.47	13893.76
616.665	13928.58
616.86	13721.73
617.055	13674.63
617.25	13699.2
617.445	13529.22
617.641	13367.43
617.836	13244.56
618.031	13285.51
618.226	13594.76
618.421	13396.1
618.616	13398.15
618.811	13291.66
619.006	13432.97
619.201	13025.42
619.396	13322.38
619.591	12859.54
619.786	13121.68
619.981	12912.78
620.176	13041.81
620.371	12890.26
620.566	12628.12
620.761	12867.73
620.956	12787.86
621.151	12578.97
621.346	12611.73
621.541	12468.38
621.735	12529.81
621.93	12382.36
622.125	12400.79
622.32	12152.99
622.515	12372.12
622.709	12372.12
622.904	12265.63
623.099	12152.99
623.294	12056.73
623.488	11890.85
623.683	12011.68
623.878	11608.23
624.072	11845.79
624.267	11557.03
624.462	11727.01
624.656	11395.24
624.851	11724.96
625.046	11280.55
625.24	11415.72
625.435	11212.97
625.629	11341.99
625.824	11159.72
626.018	11223.21
626.213	10830
626.407	10999.98
626.602	10703.03
626.796	11086
626.991	10760.37
627.185	10846.38
627.38	10471.61
627.574	10715.31
627.768	10545.33
627.963	10449.08
628.157	10381.49
628.352	10387.64
628.546	10102.97
628.74	10385.59
628.935	10377.4
629.129	10281.14
629.323	10068.16
629.517	10006.72
629.712	9998.52
629.906	9957.57
630.1	9924.8
630.294	9822.4
630.489	9730.24
630.683	10000.57
630.877	9625.79
631.071	9816.26
631.265	9642.18
631.459	9552.07
631.653	9521.35
631.848	9390.28
632.042	9377.99
632.236	9287.88
632.43	9345.22
632.624	9222.34
632.818	9255.11
633.012	8915.15
633.206	8831.18
633.4	9081.03
633.594	9050.32
633.788	8849.61
633.982	8945.87
634.176	8880.33
634.369	8972.49
634.563	8847.57
634.757	8782.03
634.951	8841.42
635.145	8624.34
635.339	8636.63
635.533	8653.01
635.726	8657.11
635.92	8370.39
636.114	8235.22
636.308	8347.86
636.501	8409.3
636.695	8485.08
636.889	8274.14
637.083	8378.58
637.276	8306.9
637.47	7952.6
637.664	7876.83
637.857	8063.19
638.051	7968.99
638.244	7905.5
638.438	7809.25
638.632	7782.62
638.825	7819.49
639.019	7760.09
639.212	7510.24
639.406	7637.22
639.599	7667.94
639.793	7676.13
639.986	7495.91
640.18	7512.29
640.373	7432.42
640.567	7309.54
640.76	7319.78
640.954	7244.01
641.147	7295.21
641.34	7149.8
641.534	7213.29
641.727	7082.22
641.92	7289.06
642.114	7153.9
642.307	7033.07
642.5	6820.08
642.694	7067.88
642.887	6957.29
643.08	6920.43
643.273	6877.42
643.467	6840.56
643.66	6764.78
643.853	6557.94
644.046	6379.76
644.239	6822.13
644.432	6668.53
644.626	6457.59
644.819	6443.25
645.012	6480.11
645.205	6516.98
645.398	6547.7
645.591	6279.41
645.784	6127.86
645.977	6242.55
646.17	6283.51
646.363	6318.32
646.556	6252.79
646.749	6136.06
646.942	6195.45
647.135	6195.45
647.328	6215.93
647.521	6043.9
647.714	6019.32
647.907	5937.4
648.099	6009.08
648.292	5974.27
648.485	5761.28
648.678	5845.24
648.871	5794.04
649.064	5742.85
649.256	5908.73
649.449	5800.19
649.642	5716.22
649.835	5617.92
650.027	5617.92
650.22	5511.43
650.413	5572.86
650.605	5482.75
650.798	5372.16
650.991	5478.66
651.183	5529.86
651.376	5271.81
651.568	5492.99
651.761	5404.93
651.954	5277.96
652.146	5325.06
652.339	5388.55
652.531	5224.71
652.724	5136.65
652.916	5036.3
653.109	5118.22
653.301	5126.41
653.494	5339.4
653.686	5038.34
653.879	5038.34
654.071	5073.16
654.263	4935.95
654.456	5165.32
654.648	5058.82
654.84	4931.85
655.033	4935.95
655.225	4856.08
655.417	4868.36
655.61	4905.23
655.802	4837.64
655.994	4753.68
656.186	4786.44
656.379	4813.07
656.571	4729.1
656.763	4679.95
656.955	4610.32
657.148	4659.47
657.34	4718.86
657.532	4563.22
657.724	4616.46
657.916	4626.7
658.108	4600.08
658.3	4411.67
658.492	4460.82
658.684	4374.8
658.876	4368.66
659.068	4337.94
659.26	4436.24
659.452	4530.45
659.644	4329.75
659.836	4499.73
660.028	4206.87
660.22	4335.89
660.412	4272.4
660.604	4204.82
660.796	4315.41
660.988	4165.91
661.18	4305.17
661.372	4274.45
661.563	4274.45
661.755	4188.44
661.947	4106.52
662.139	4159.77
662.331	4227.35
662.522	4112.66
662.714	3983.64
662.906	4000.02
663.097	3950.87
663.289	3946.78
663.481	3797.28
663.673	4065.56
663.864	4049.18
664.056	3811.61
664.247	3866.91
664.439	3696.92
664.631	3911.96
664.822	3971.35
665.014	3877.15
665.205	3744.03
665.397	3803.42
665.588	3842.33
665.78	3899.67
665.971	3713.31
666.163	3770.65
666.354	3725.6
666.546	3686.69
666.737	3639.58
666.929	3696.92
667.12	3684.64
667.311	3741.98
667.503	3739.93
667.694	3535.14
667.885	3516.7
668.077	3621.15
668.268	3414.31
668.459	3713.31
668.651	3543.33
668.842	3526.94
669.033	3551.52
669.224	3326.24
669.416	3641.63
669.607	3563.81
669.798	3348.77
669.989	3578.14
670.18	3453.22
670.371	3412.26
670.563	3453.22
670.754	3363.11
670.945	3481.89
671.136	3336.48
671.327	3418.4
671.518	3363.11
671.709	3473.7
671.9	3383.59
672.091	3258.66
672.282	3258.66
672.473	3426.59
672.664	3244.32
672.855	3324.19
673.046	3250.47
673.237	3334.43
673.428	3485.98
673.619	3381.54
673.809	3436.83
674	3301.67
674.191	3322.15
674.382	3268.9
674.573	3199.27
674.764	3229.99
674.954	3354.91
675.145	3309.86
675.336	3291.43
675.527	3254.56
675.717	3295.52
675.908	3322.15
676.099	3189.03
676.289	3268.9
676.48	3217.7
676.671	3186.98
676.861	3234.08
677.052	3201.32
677.243	3248.42
677.433	3141.93
677.624	3342.63
677.814	3279.14
678.005	3320.1
678.195	3367.2
678.386	3236.13
678.576	3072.29
678.767	3195.17
678.957	3260.71
679.148	3367.2
679.338	3260.71
679.529	3246.37
679.719	3100.97
679.909	3139.88
680.1	3176.74
680.29	3209.51
680.481	3301.67
680.671	3279.14
680.861	3324.19
681.052	3303.71
681.242	3209.51
681.432	3330.34
681.622	3186.98
681.813	3273
682.003	3268.9
682.193	3246.37
682.383	3254.56
682.573	3330.34
682.764	3260.71
682.954	3199.27
683.144	3395.87
683.334	3217.7
683.524	3305.76
683.714	3299.62
683.904	3232.04
684.094	3266.85
684.284	3193.12
684.474	3221.8
684.664	3191.08
684.854	3309.86
685.044	3268.9
685.234	3162.41
685.424	3238.18
685.614	3201.32
685.804	3184.93
685.994	3195.17
686.184	3184.93
686.374	3217.7
686.564	3074.34
686.753	3258.66
686.943	3074.34
687.133	3129.64
687.323	3178.79
687.513	3174.69
687.702	3053.86
687.892	3027.24
688.082	3098.92
688.272	3092.77
688.461	3057.96
688.651	3127.59
688.841	3068.2
689.03	3047.72
689.22	2945.32
689.41	3025.19
689.599	3008.81
689.789	2935.08
689.979	3008.81
690.168	3012.9
690.358	2976.04
690.547	3088.68
690.737	2861.35
690.926	3035.43
691.116	2920.74
691.305	2867.5
691.495	2855.21
691.684	2791.72
691.874	2922.79
692.063	2769.2
692.252	2801.96
692.442	2926.89
692.631	2668.84
692.82	2746.67
693.01	2773.29
693.199	2828.59
693.388	2715.95
693.578	2818.35
693.767	2685.23
693.956	2795.82
694.146	2648.36
694.335	2603.31
694.524	2783.53
694.713	2738.48
694.902	2808.11
695.092	2746.67
695.281	2761
695.47	2834.73
695.659	2687.28
695.848	2541.87
696.037	2623.79
696.226	2713.9
696.415	2679.08
696.604	2771.24
696.793	2701.61
696.982	2677.04
697.171	2701.61
697.36	2642.22
697.549	2689.32
697.738	2615.6
697.927	2709.8
698.116	2683.18
698.305	2670.89
698.494	2691.37
698.683	2711.85
698.872	2621.74
699.061	2642.22
699.25	2541.87
699.438	2543.92
699.627	2718
699.816	2758.96
700.005	2545.97
700.193	2566.45
700.382	2701.61
700.571	2740.52
700.76	2634.03
700.948	2789.67
701.137	2724.14
701.326	2685.23
701.514	2648.36
701.703	2879.79
701.892	2707.76
702.08	2670.89
702.269	2603.31
702.457	2627.89
702.646	2701.61
702.834	2658.6
703.023	2730.28
703.212	2740.52
703.4	2736.43
703.589	2689.32
703.777	2816.3
703.965	2644.27
704.154	2679.08
704.342	2687.28
704.531	2718
704.719	2795.82
704.907	2816.3
705.096	2638.13
705.284	2625.84
705.472	2720.04
705.661	2777.39
705.849	2804.01
706.037	2777.39
706.226	2728.24
706.414	2720.04
706.602	2765.1
706.79	2838.83
706.979	2767.15
707.167	2748.72
707.355	2695.47
707.543	2814.25
707.731	2789.67
707.919	2783.53
708.107	2720.04
708.296	2816.3
708.484	2859.31
708.672	2793.77
708.86	2810.15
709.048	2879.79
709.236	2713.9
709.424	2863.4
709.612	2730.28
709.8	2896.17
709.988	2836.78
710.176	2806.06
710.364	2867.5
710.551	2871.59
710.739	2830.63
710.927	2849.07
711.115	2787.63
711.303	2799.91
711.491	2949.42
711.679	2847.02
711.866	2998.57
712.054	2861.35
712.242	2875.69
712.43	2949.42
712.617	2869.55
712.805	2937.13
712.993	2900.27
713.181	2885.93
713.368	2986.28
713.556	2832.68
713.744	2869.55
713.931	2945.32
714.119	2951.46
714.306	3006.76
714.494	3027.24
714.682	2965.8
714.869	2924.84
715.057	3010.86
715.244	3012.9
715.432	3055.91
715.619	3045.67
715.807	2961.7
715.994	2984.23
716.182	2937.13
716.369	2992.42
716.556	2963.75
716.744	2992.42
716.931	3041.57
717.119	3098.92
717.306	3111.21
717.493	3082.53
717.681	3326.24
717.868	3010.86
718.055	3027.24
718.242	3092.77
718.43	3094.82
718.617	3023.14
718.804	3078.44
718.991	3137.83
719.179	3191.08
719.366	3129.64
719.553	3090.73
719.74	3186.98
719.927	3164.45
720.114	3057.96
720.301	3143.97
720.488	3045.67
720.676	3062.05
720.863	3072.29
721.05	3195.17
721.237	3232.04
721.424	3229.99
721.611	3199.27
721.798	3117.35
721.985	3096.87
722.172	3086.63
722.358	3174.69
722.545	3105.06
722.732	3131.69
722.919	3207.46
723.106	3150.12
723.293	3184.93
723.48	3244.32
723.667	3146.02
723.853	3225.89
724.04	3254.56
724.227	3250.47
724.414	3193.12
724.6	3268.9
724.787	3254.56
724.974	3191.08
725.161	3254.56
725.347	3068.2
725.534	3305.76
725.72	3342.63
725.907	3309.86
726.094	3385.63
726.28	3256.61
726.467	3172.64
726.653	3373.35
726.84	3307.81
727.027	3442.98
727.213	3117.35
727.4	3268.9
727.586	3350.82
727.773	3225.89
727.959	3277.09
728.145	3352.87
728.332	3426.59
728.518	3309.86
728.705	3463.46
728.891	3348.77
729.077	3143.97
729.264	3342.63
729.45	3354.91
729.636	3418.4
729.823	3383.59
730.009	3375.39
730.195	3367.2
730.382	3293.48
730.568	3340.58
730.754	3352.87
730.94	3582.24
731.126	3457.31
731.313	3285.28
731.499	3381.54
731.685	3447.07
731.871	3352.87
732.057	3449.12
732.243	3397.92
732.429	3361.06
732.615	3434.78
732.801	3397.92
732.987	3377.44
733.173	3422.5
733.359	3363.11
733.545	3447.07
733.731	3305.76
733.917	3514.66
734.103	3359.01
734.289	3414.31
734.475	3422.5
734.661	3473.7
734.847	3555.62
735.033	3500.32
735.219	3485.98
735.404	3457.31
735.59	3309.86
735.776	3463.46
735.962	3361.06
736.148	3447.07
736.333	3418.4
736.519	3406.11
736.705	3453.22
736.89	3416.35
737.076	3418.4
737.262	3408.16
737.447	3445.02
737.633	3445.02
737.819	3463.46
738.004	3211.56
738.19	3354.91
738.375	3494.18
738.561	3377.44
738.747	3451.17
738.932	3342.63
739.118	3483.94
739.303	3408.16
739.489	3475.74
739.674	3322.15
739.859	3316
740.045	3428.64
740.23	3219.75
740.416	3365.15
740.601	3395.87
740.786	3330.34
740.972	3289.38
741.157	3371.3
741.342	3264.8
741.528	3404.07
741.713	3260.71
741.898	3207.46
742.084	3281.19
742.269	3455.26
742.454	3197.22
742.639	3408.16
742.824	3164.45
743.01	3260.71
743.195	3313.95
743.38	3281.19
743.565	3250.47
743.75	3227.94
743.935	3283.24
744.12	3172.64
744.305	3125.54
744.49	3154.21
744.675	3062.05
744.86	3100.97
745.045	3232.04
745.23	3100.97
745.415	3066.15
745.6	3094.82
745.785	3066.15
745.97	3055.91
746.155	2949.42
746.34	3111.21
746.525	3029.29
746.71	3082.53
746.895	3041.57
747.079	2892.07
747.264	2894.12
747.449	3060.01
747.634	2945.32
747.819	3023.14
748.003	3041.57
748.188	2865.45
748.373	2769.2
748.557	3004.71
748.742	2810.15
748.927	2791.72
749.111	2877.74
749.296	2892.07
749.481	2830.63
749.665	2728.24
749.85	2765.1
750.034	2773.29
750.219	2746.67
750.404	2689.32
750.588	2703.66
750.773	2586.93
750.957	2656.56
751.141	2666.8
751.326	2734.38
751.51	2627.89
751.695	2621.74
751.879	2521.39
752.064	2648.36
752.248	2484.53
752.432	2560.3
752.617	2513.2
752.801	2416.94
752.985	2519.34
753.17	2451.76
753.354	2416.94
753.538	2492.72
753.722	2404.66
753.907	2169.14
754.091	2310.45
754.275	2300.21
754.459	2412.85
754.643	2306.35
754.828	2265.39
755.012	2324.79
755.196	2279.73
755.38	2206
755.564	2289.97
755.748	2199.86
755.932	2210.1
756.116	2234.68
756.3	2165.04
756.484	2152.76
756.668	2089.27
756.852	2134.32
757.036	2083.13
757.22	2083.13
757.404	2066.74
757.588	2040.12
757.772	2163
757.956	2025.78
758.14	2087.22
758.323	2025.78
758.507	2025.78
758.691	1964.34
758.875	2056.5
759.059	1972.54
759.242	1945.91
759.426	1880.38
759.61	1935.67
759.794	1892.66
759.977	1904.95
760.161	2046.26
760.345	1882.42
760.528	1939.77
760.712	1857.85
760.895	1880.38
761.079	1915.19
761.263	1765.69
761.446	1749.31
761.63	1745.21
761.813	1790.27
761.997	1757.5
762.18	1892.66
762.364	1737.02
762.547	1792.31
762.731	1702.2
762.914	1765.69
763.098	1757.5
763.281	1761.59
763.464	1683.77
763.648	1757.5
763.831	1702.2
764.015	1720.64
764.198	1630.52
764.381	1714.49
764.564	1726.78
764.748	1794.36
764.931	1667.39
765.114	1675.58
765.297	1644.86
765.481	1665.34
765.664	1638.72
765.847	1691.96
766.03	1681.72
766.213	1489.21
766.397	1524.03
766.58	1564.99
766.763	1544.51
766.946	1575.23
767.129	1468.73
767.312	1530.17
767.495	1544.51
767.678	1483.07
767.861	1599.8
768.044	1591.61
768.227	1362.24
768.41	1532.22
768.593	1495.36
768.776	1423.68
768.959	1423.68
769.142	1550.65
769.324	1483.07
769.507	1448.26
769.69	1495.36
769.873	1499.45
770.056	1571.13
770.239	1454.4
770.421	1536.32
770.604	1374.53
770.787	1366.34
770.97	1407.3
771.152	1317.19
771.335	1343.81
771.518	1339.71
771.7	1438.02
771.883	1411.39
772.066	1327.43
772.248	1343.81
772.431	1335.62
772.613	1370.43
772.796	1352
772.978	1407.3
773.161	1376.58
773.343	1265.99
773.526	1284.42
773.708	1296.71
773.891	1212.74
774.073	1198.4
774.256	1235.27
774.438	1245.51
774.621	1241.41
774.803	1294.66
774.985	1175.88
775.168	1179.97
775.35	1110.34
775.532	1167.68
775.715	1179.97
775.897	1161.54
776.079	1118.53
776.261	1169.73
776.444	1167.68
776.626	1167.68
776.808	1016.13
776.99	999.75
777.173	1079.62
777.355	1118.53
777.537	1087.81
777.719	1096
777.901	1009.99
778.083	1120.58
778.265	1073.48
778.447	1087.81
778.629	985.41
778.811	954.69
778.993	1057.09
779.175	942.41
779.357	1053
779.539	977.22
779.721	1018.18
779.903	1005.89
780.085	954.69
780.267	962.89
780.449	891.21
780.631	897.35
780.812	1020.23
780.994	981.32
781.176	934.22
781.358	903.5
781.54	944.45
781.721	928.07
781.903	952.65
782.085	825.67
782.267	864.58
782.448	870.73
782.63	766.28
782.812	868.68
782.993	837.96
783.175	848.2
783.357	700.75
783.538	811.34
783.72	799.05
783.901	704.84
784.083	799.05
784.264	792.91
784.446	741.71
784.627	760.14
784.809	780.62
784.99	723.27
785.172	743.75
785.353	692.55
785.535	729.42
785.716	764.23
785.897	624.97
786.079	764.23
786.26	672.08
786.441	723.27
786.623	637.26
786.804	708.94
786.985	637.26
787.167	620.88
787.348	631.12
787.529	645.45
787.71	696.65
787.891	620.88
788.073	692.55
788.254	608.59
788.435	688.46
788.616	622.92
788.797	543.05
788.978	620.88
789.159	600.4
789.34	627.02
789.522	541.01
789.703	579.92
789.884	588.11
790.065	592.2
790.246	688.46
790.427	534.86
790.607	610.64
790.788	600.4
790.969	518.48
791.15	635.21
791.331	543.05
791.512	442.7
791.693	551.24
791.874	547.15
792.054	622.92
792.235	596.3
792.416	565.58
792.597	446.8
792.778	602.44
792.958	651.6
793.139	528.72
793.32	483.66
793.5	506.19
793.681	524.62
793.862	555.34
794.042	479.57
794.223	489.81
794.404	432.46
794.584	457.04
794.765	440.65
794.945	428.37
795.126	532.81
795.306	549.2
795.487	434.51
795.667	407.89
795.848	457.04
796.028	395.6
796.209	454.99
796.389	520.53
796.57	424.27
796.75	401.74
796.93	426.32
797.111	416.08
797.291	364.88
797.471	475.47
797.652	459.09
797.832	381.26
798.012	426.32
798.192	366.93
798.373	416.08
798.553	387.41
798.733	391.5
798.913	319.82
799.093	323.92
799.274	428.37
799.454	463.18
799.634	352.59
799.814	438.61
799.994	354.64
800.174	420.17
800.354	473.42
800.534	280.91
800.714	373.07
800.894	366.93
801.074	352.59
801.254	319.82
801.434	358.74
801.614	375.12
801.794	418.13
801.974	1134.92
802.154	336.21
802.334	364.88
802.514	293.2
802.693	407.89
802.873	313.68
803.053	379.22
803.233	305.49
803.413	391.5
803.592	319.82
803.772	330.06
803.952	397.65
804.131	280.91
804.311	379.22
804.491	313.68
804.67	323.92
804.85	301.39
805.03	303.44
805.209	438.61
805.389	299.34
805.568	366.93
805.748	274.77
805.928	258.39
806.107	311.63
806.287	356.69
806.466	330.06
806.646	330.06
806.825	256.34
807.004	246.1
807.184	364.88
807.363	401.74
807.543	276.82
807.722	252.24
807.901	285.01
808.081	276.82
808.26	244.05
808.439	239.95
808.619	289.1
808.798	297.3
808.977	262.48
809.156	315.73
809.336	225.62
809.515	250.19
809.694	178.51
809.873	235.86
810.052	272.72
810.231	285.01
810.411	213.33
810.59	336.21
810.769	272.72
810.948	250.19
811.127	151.89
811.306	282.96
811.485	237.91
811.664	325.97
811.843	211.28
812.022	215.38
812.201	244.05
812.38	244.05
812.559	239.95
812.737	299.34
812.916	203.09
813.095	198.99
813.274	213.33
813.453	196.95
813.632	182.61
813.811	239.95
813.989	221.52
814.168	168.27
814.347	231.76
814.526	194.9
814.704	274.77
814.883	147.8
815.062	244.05
815.24	158.03
815.419	182.61
815.598	287.06
815.776	213.33
815.955	237.91
816.133	160.08
816.312	278.87
816.49	225.62
816.669	170.32
816.847	188.75
817.026	178.51
817.204	239.95
817.383	194.9
817.561	190.8
817.74	180.56
817.918	180.56
818.097	211.28
818.275	207.19
818.453	172.37
818.632	158.03
818.81	131.41
818.988	180.56
819.167	172.37
819.345	168.27
819.523	213.33
819.701	149.84
819.879	203.09
820.058	117.08
820.236	194.9
820.414	131.41
820.592	188.75
820.77	203.09
820.948	164.18
821.127	137.56
821.305	186.71
821.483	215.38
821.661	252.24
821.839	88.4
822.017	92.5
822.195	164.18
822.373	162.13
822.551	123.22
822.729	201.04
822.907	125.27
823.085	237.91
823.262	162.13
823.44	98.64
823.618	80.21
823.796	125.27
823.974	184.66
824.152	229.71
824.329	149.84
824.507	143.7
824.685	135.51
824.863	133.46
825.04	203.09
825.218	158.03
825.396	211.28
825.574	162.13
825.751	125.27
825.929	186.71
826.107	8.53
826.284	139.6
826.462	180.56
826.639	168.27
826.817	135.51
826.994	151.89
827.172	53.59
827.349	147.8
827.527	115.03
827.704	108.88
827.882	248.15
828.059	137.56
828.237	112.98
828.414	178.51
828.591	86.36
828.769	72.02
828.946	143.7
829.124	121.17
829.301	172.37
829.478	0.34
829.655	115.03
829.833	135.51
830.01	119.12
830.187	184.66
830.364	104.79
830.542	121.17
830.719	198.99
830.896	153.94
831.073	106.84
831.25	196.95
831.427	137.56
831.604	127.32
831.782	96.6
831.959	201.04
832.136	115.03
832.313	117.08
832.49	51.54
832.667	78.16
832.844	108.88
833.021	151.89
833.198	51.54
833.374	104.79
833.551	51.54
833.728	102.74
833.905	55.64
834.082	115.03
834.259	153.94
834.436	149.84
834.612	55.64
834.789	80.21
834.966	127.32
835.143	145.75
835.319	55.64
835.496	143.7
835.673	96.6
835.85	127.32
836.026	63.83
836.203	119.12
836.38	115.03
836.556	43.35
836.733	74.07
836.909	104.79
837.086	108.88
837.262	125.27
837.439	90.45
837.616	0.34
837.792	135.51
837.968	43.35
838.145	22.87
838.321	69.97
838.498	110.93
838.674	86.36
838.851	86.36
839.027	55.64
839.203	55.64
839.38	67.92
839.556	24.92
839.732	96.6
839.909	53.59
840.085	110.93
840.261	35.16
840.437	119.12
840.614	72.02
840.79	47.44
840.966	119.12
841.142	90.45
841.318	61.78
841.494	49.49
841.671	90.45
841.847	78.16
842.023	41.3
842.199	149.84
842.375	188.75
842.551	10.58
842.727	10.58
842.903	33.11
843.079	-9.9
843.255	74.07
843.431	24.92
843.607	102.74
843.783	-26.28
843.959	26.96
844.134	20.82
844.31	94.55
844.486	22.87
844.662	98.64
844.838	90.45
845.013	67.92
845.189	61.78
845.365	14.68
845.541	78.16
845.716	-20.14
845.892	129.36
846.068	-18.09
846.244	-13.99
846.419	119.12
846.595	37.2
846.77	-1.71
846.946	112.98
847.122	45.4
847.297	106.84
847.473	92.5
847.648	-24.23
847.824	96.6
847.999	8.53
848.175	4.44
848.35	0.34
848.526	16.73
848.701	55.64
848.876	125.27
849.052	78.16
849.227	76.12
849.403	-13.99
849.578	82.26
849.753	88.4
849.929	80.21
850.104	20.82
850.279	49.49
850.454	39.25
850.63	61.78
850.805	8.53
850.98	-44.71
851.155	43.35
851.33	43.35
851.505	12.63
851.681	78.16
851.856	-54.95
852.031	55.64
852.206	35.16
852.381	-22.19
852.556	20.82
852.731	53.59
852.906	119.12
853.081	102.74
853.256	20.82
853.431	119.12
853.606	31.06
853.781	29.01
853.956	18.77
854.131	86.36
854.305	-30.38
854.48	78.16
854.655	12.63
854.83	6.49
855.005	-18.09
855.18	45.4
855.354	59.73
855.529	29.01
855.704	2.39
855.879	96.6
856.053	8.53
856.228	-7.85
856.403	31.06
856.577	26.96
856.752	14.68
856.926	45.4
857.101	112.98
857.276	10.58
857.45	41.3
857.625	57.68
857.799	16.73
857.974	90.45
858.148	-26.28
858.323	18.77
858.497	-11.95
858.672	6.49
858.846	8.53
859.02	45.4
859.195	-9.9
859.369	41.3
859.543	14.68
859.718	-24.23
859.892	94.55
860.066	14.68
860.241	29.01
860.415	39.25
860.589	-93.87
860.763	14.68
860.938	10.58
861.112	43.35
861.286	67.92
861.46	45.4
861.634	2.39
861.808	141.65
861.982	-11.95
862.157	-3.75
862.331	20.82
862.505	22.87
862.679	47.44
862.853	2.39
863.027	-22.19
863.201	100.69
863.375	-48.81
863.549	-65.19
863.722	20.82
863.896	67.92
864.07	-5.8
864.244	18.77
864.418	8.53
864.592	69.97
864.766	0.34
864.939	4.44
865.113	-100.01
865.287	37.2
865.461	-1.71
865.634	29.01
865.808	-16.04
865.982	88.4
866.156	39.25
866.329	49.49
866.503	-44.71
866.676	49.49
866.85	55.64
867.024	26.96
867.197	51.54
867.371	88.4
867.544	-38.57
867.718	37.2
867.891	82.26
868.065	57.68
868.238	51.54
868.412	33.11
868.585	67.92
868.759	-11.95
868.932	-34.47
869.105	-11.95
869.279	61.78
869.452	-11.95
869.625	35.16
869.799	55.64
869.972	-46.76
870.145	33.11
870.319	-3.75
870.492	-5.8
870.665	24.92
870.838	78.16
871.011	-61.1
871.185	14.68
871.358	96.6
871.531	18.77
871.704	10.58
871.877	-9.9
872.05	4.44
872.223	-7.85
872.396	-28.33
872.569	49.49
872.742	59.73
872.915	51.54
873.088	8.53
873.261	-3.75
873.434	51.54
873.607	10.58
873.78	41.3
873.953	-11.95
874.126	2.39
874.299	20.82
874.471	-16.04
874.644	-18.09
874.817	10.58
874.99	59.73
875.163	16.73
875.335	14.68
875.508	-44.71
875.681	26.96
875.853	92.5
876.026	24.92
876.199	18.77
876.371	2.39
876.544	-1.71
876.717	4.44
876.889	33.11
877.062	-1.71
877.234	57.68
877.407	-81.58
877.579	-24.23
877.752	-57
877.924	-28.33
878.097	51.54
878.269	37.2
878.442	-63.15
878.614	63.83
878.786	96.6
878.959	-7.85
879.131	-11.95
879.303	-95.91
879.476	18.77
879.648	-3.75
879.82	20.82
879.993	8.53
880.165	6.49
880.337	-28.33
880.509	-18.09
880.681	-3.75
880.854	-5.8
881.026	-11.95
881.198	61.78
881.37	-52.91
881.542	-34.47
881.714	-50.86
881.886	45.4
882.058	-20.14
882.23	-22.19
882.402	12.63
882.574	-69.29
882.746	45.4
882.918	20.82
883.09	0.34
883.262	-5.8
883.434	-24.23
883.606	-71.34
883.778	16.73
883.95	43.35
884.122	-28.33
884.293	47.44
884.465	-52.91
884.637	-81.58
884.809	-42.67
884.98	6.49
885.152	31.06
885.324	53.59
885.496	-26.28
885.667	2.39
885.839	-1.71
886.011	-32.43
886.182	45.4
886.354	49.49
886.525	16.73
886.697	33.11
886.869	29.01
887.04	-77.48
887.212	-59.05
887.383	55.64
887.555	49.49
887.726	-59.05
887.897	-50.86
888.069	102.74
888.24	12.63
888.412	-26.28
888.583	18.77
888.754	6.49
888.926	-7.85
889.097	2.39
889.268	-7.85
889.44	72.02
889.611	-16.04
889.782	-79.53
889.953	-71.34
890.125	-34.47
890.296	-32.43
890.467	31.06
890.638	37.2
890.809	-3.75
890.98	-20.14
891.151	47.44
891.323	26.96
891.494	-36.52
891.665	47.44
891.836	-16.04
892.007	-3.75
892.178	31.06
892.349	61.78
892.52	-13.99
892.691	18.77
892.862	-46.76
893.032	-26.28
893.203	55.64
893.374	-83.63
893.545	20.82
893.716	-30.38
893.887	-13.99
894.057	-9.9
894.228	8.53
894.399	-81.58
894.57	45.4
894.74	16.73
894.911	12.63
895.082	-11.95
895.253	-83.63
895.423	29.01
895.594	0.34
895.764	-28.33
895.935	-59.05
896.106	43.35
896.276	-3.75
896.447	6.49
896.617	-28.33
896.788	2.39
896.958	-3.75
897.129	-1.71
897.299	-22.19
897.47	45.4
897.64	59.73
897.81	57.68
897.981	-44.71
898.151	-34.47
898.322	69.97
898.492	35.16
898.662	-46.76
898.832	74.07
899.003	-5.8
899.173	-20.14
899.343	-1.71
899.513	-34.47
