Data from USB4F104151__25__12-23-37-636.txt Node

Date: Fri Mar 14 12:23:37 EDT 2025
User: louis
Spectrometer: USB4F10415
Trigger mode: 4
Integration Time (sec): 3.500000E-2
Scans to average: 1
Electric dark correction enabled: true
Nonlinearity correction enabled: false
Boxcar width: 0
XAxis mode: Wavelengths
Number of Pixels in Spectrum: 3648
>>>>>Begin Spectral Data<<<<<
178.204	-135
178.424	-135
178.644	-135
178.864	-202.58
179.084	-112.47
179.304	-12.12
179.524	2.22
179.744	14.51
179.964	57.51
180.184	57.51
180.404	8.36
180.624	-38.74
180.844	41.13
181.064	-89.94
181.283	-36.69
181.503	-22.36
181.723	18.6
181.943	-22.36
182.163	32.94
182.383	-38.74
182.602	82.09
182.822	-34.64
183.042	24.75
183.262	-48.98
183.482	-18.26
183.701	-32.6
183.921	-5.97
184.141	-69.46
184.361	49.32
184.58	32.94
184.8	61.61
185.02	-51.03
185.239	106.67
185.459	22.7
185.679	12.46
185.898	4.27
186.118	12.46
186.338	-36.69
186.557	24.75
186.777	0.17
186.997	6.31
187.216	-40.79
187.436	77.99
187.655	47.27
187.875	14.51
188.095	-26.45
188.314	0.17
188.534	73.9
188.753	-53.08
188.973	-8.02
189.192	59.56
189.412	-53.08
189.631	47.27
189.851	32.94
190.07	69.8
190.29	-28.5
190.509	39.08
190.729	-40.79
190.948	73.9
191.168	92.33
191.387	-30.55
191.607	67.75
191.826	45.23
192.045	-28.5
192.265	-55.12
192.484	-48.98
192.704	34.99
192.923	-42.84
193.142	45.23
193.362	24.75
193.581	22.7
193.8	-30.55
194.02	45.23
194.239	-18.26
194.458	65.71
194.678	-34.64
194.897	-30.55
195.116	24.75
195.335	63.66
195.555	-12.12
195.774	-36.69
195.993	20.65
196.212	-28.5
196.432	67.75
196.651	12.46
196.87	41.13
197.089	96.43
197.308	45.23
197.528	39.08
197.747	-10.07
197.966	-75.6
198.185	41.13
198.404	4.27
198.623	47.27
198.842	55.47
199.062	-28.5
199.281	92.33
199.5	34.99
199.719	77.99
199.938	-40.79
200.157	57.51
200.376	12.46
200.595	80.04
200.814	24.75
201.033	-5.97
201.252	12.46
201.471	73.9
201.69	0.17
201.909	4.27
202.128	12.46
202.347	-1.88
202.566	-18.26
202.785	28.84
203.004	6.31
203.223	12.46
203.442	57.51
203.661	32.94
203.879	28.84
204.098	65.71
204.317	-65.36
204.536	22.7
204.755	-26.45
204.974	30.89
205.193	-14.17
205.411	57.51
205.63	16.55
205.849	22.7
206.068	39.08
206.287	24.75
206.505	47.27
206.724	55.47
206.943	18.6
207.162	-5.97
207.381	63.66
207.599	34.99
207.818	24.75
208.037	2.22
208.255	49.32
208.474	16.55
208.693	18.6
208.911	59.56
209.13	-14.17
209.349	-42.84
209.567	75.95
209.786	49.32
210.005	28.84
210.223	-16.21
210.442	-20.31
210.661	16.55
210.879	4.27
211.098	-14.17
211.316	2.22
211.535	-1.88
211.753	-5.97
211.972	34.99
212.191	-16.21
212.409	-53.08
212.628	-46.93
212.846	-51.03
213.065	77.99
213.283	47.27
213.502	-32.6
213.72	14.51
213.938	24.75
214.157	6.31
214.375	108.71
214.594	-44.88
214.812	24.75
215.031	8.36
215.249	39.08
215.467	43.18
215.686	57.51
215.904	39.08
216.122	-10.07
216.341	39.08
216.559	51.37
216.778	10.41
216.996	-1.88
217.214	-26.45
217.432	10.41
217.651	-5.97
217.869	-28.5
218.087	20.65
218.306	-8.02
218.524	47.27
218.742	16.55
218.96	-5.97
219.179	-22.36
219.397	20.65
219.615	8.36
219.833	34.99
220.051	10.41
220.27	100.52
220.488	104.62
220.706	135.34
220.924	-100.18
221.142	71.85
221.36	71.85
221.578	0.17
221.796	-3.93
222.015	75.95
222.233	-1.88
222.451	129.19
222.669	-48.98
222.887	53.42
223.105	-91.99
223.323	-14.17
223.541	2.22
223.759	112.81
223.977	39.08
224.195	0.17
224.413	61.61
224.631	77.99
224.849	77.99
225.067	71.85
225.285	2.22
225.503	-18.26
225.721	2.22
225.939	84.14
226.157	-34.64
226.375	108.71
226.592	-8.02
226.81	24.75
227.028	84.14
227.246	80.04
227.464	32.94
227.682	65.71
227.9	-22.36
228.117	32.94
228.335	26.79
228.553	-3.93
228.771	-20.31
228.989	-59.22
229.206	-8.02
229.424	59.56
229.642	-10.07
229.86	51.37
230.077	80.04
230.295	-20.31
230.513	77.99
230.731	57.51
230.948	18.6
231.166	24.75
231.384	-83.8
231.601	-32.6
231.819	12.46
232.037	-53.08
232.254	-61.27
232.472	47.27
232.689	-20.31
232.907	73.9
233.125	-16.21
233.342	-20.31
233.56	-65.36
233.777	59.56
233.995	-24.4
234.213	55.47
234.43	-32.6
234.648	14.51
234.865	-46.93
235.083	108.71
235.3	41.13
235.518	4.27
235.735	-8.02
235.953	47.27
236.17	-12.12
236.388	45.23
236.605	-87.89
236.822	16.55
237.04	8.36
237.257	49.32
237.475	-24.4
237.692	92.33
237.909	-26.45
238.127	18.6
238.344	-42.84
238.562	6.31
238.779	-5.97
238.996	-51.03
239.214	-40.79
239.431	28.84
239.648	4.27
239.865	80.04
240.083	10.41
240.3	-14.17
240.517	-34.64
240.735	-40.79
240.952	24.75
241.169	20.65
241.386	63.66
241.603	-42.84
241.821	-48.98
242.038	88.23
242.255	16.55
242.472	2.22
242.689	-36.69
242.907	71.85
243.124	-1.88
243.341	39.08
243.558	-12.12
243.775	0.17
243.992	14.51
244.209	53.42
244.426	139.43
244.643	55.47
244.86	-22.36
245.078	39.08
245.295	22.7
245.512	22.7
245.729	-42.84
245.946	-22.36
246.163	34.99
246.38	57.51
246.597	16.55
246.814	-36.69
247.031	49.32
247.248	14.51
247.464	75.95
247.681	14.51
247.898	-24.4
248.115	51.37
248.332	26.79
248.549	47.27
248.766	69.8
248.983	32.94
249.2	63.66
249.417	47.27
249.633	22.7
249.85	59.56
250.067	14.51
250.284	-22.36
250.501	34.99
250.717	39.08
250.934	-71.51
251.151	-34.64
251.368	18.6
251.585	-55.12
251.801	-57.17
252.018	18.6
252.235	65.71
252.451	-57.17
252.668	28.84
252.885	71.85
253.102	0.17
253.318	-12.12
253.535	55.47
253.752	-32.6
253.968	8.36
254.185	-16.21
254.401	-36.69
254.618	24.75
254.835	-5.97
255.051	116.9
255.268	26.79
255.484	69.8
255.701	8.36
255.917	-24.4
256.134	-5.97
256.351	92.33
256.567	-55.12
256.784	-16.21
257	-28.5
257.217	100.52
257.433	-22.36
257.65	-26.45
257.866	43.18
258.082	-40.79
258.299	39.08
258.515	32.94
258.732	-22.36
258.948	-10.07
259.165	57.51
259.381	-5.97
259.597	51.37
259.814	-26.45
260.03	8.36
260.246	-16.21
260.463	20.65
260.679	110.76
260.895	18.6
261.112	61.61
261.328	-57.17
261.544	14.51
261.761	37.03
261.977	-20.31
262.193	-81.75
262.409	-14.17
262.626	2.22
262.842	71.85
263.058	8.36
263.274	-22.36
263.49	8.36
263.707	-32.6
263.923	8.36
264.139	-38.74
264.355	12.46
264.571	18.6
264.787	34.99
265.004	86.19
265.22	-44.88
265.436	77.99
265.652	63.66
265.868	8.36
266.084	-28.5
266.3	55.47
266.516	6.31
266.732	10.41
266.948	12.46
267.164	-48.98
267.38	18.6
267.596	14.51
267.812	123.05
268.028	-20.31
268.244	-55.12
268.46	-18.26
268.676	-67.41
268.892	-46.93
269.108	-5.97
269.324	32.94
269.54	0.17
269.756	34.99
269.972	-36.69
270.188	34.99
270.403	-48.98
270.619	41.13
270.835	-85.84
271.051	-26.45
271.267	41.13
271.483	39.08
271.698	37.03
271.914	14.51
272.13	8.36
272.346	43.18
272.562	-30.55
272.777	34.99
272.993	6.31
273.209	22.7
273.425	-38.74
273.64	-85.84
273.856	80.04
274.072	39.08
274.287	8.36
274.503	14.51
274.719	12.46
274.934	-16.21
275.15	-48.98
275.366	28.84
275.581	-18.26
275.797	6.31
276.012	16.55
276.228	-57.17
276.444	-22.36
276.659	-18.26
276.875	-22.36
277.09	12.46
277.306	-14.17
277.521	65.71
277.737	-16.21
277.952	-36.69
278.168	32.94
278.383	-79.7
278.599	59.56
278.814	49.32
279.03	-75.6
279.245	51.37
279.461	30.89
279.676	75.95
279.892	-20.31
280.107	-18.26
280.322	65.71
280.538	12.46
280.753	-24.4
280.969	28.84
281.184	4.27
281.399	98.47
281.615	24.75
281.83	-8.02
282.045	-36.69
282.26	45.23
282.476	73.9
282.691	-14.17
282.906	26.79
283.122	47.27
283.337	-1.88
283.552	-3.93
283.767	-28.5
283.983	71.85
284.198	-132.95
284.413	57.51
284.628	-46.93
284.843	28.84
285.058	8.36
285.274	8.36
285.489	-46.93
285.704	65.71
285.919	0.17
286.134	-46.93
286.349	-12.12
286.564	-30.55
286.779	22.7
286.995	47.27
287.21	-34.64
287.425	37.03
287.64	26.79
287.855	22.7
288.07	-26.45
288.285	96.43
288.5	45.23
288.715	86.19
288.93	18.6
289.145	18.6
289.36	-8.02
289.575	-1.88
289.79	26.79
290.004	-1.88
290.219	65.71
290.434	-28.5
290.649	-22.36
290.864	10.41
291.079	-36.69
291.294	6.31
291.509	20.65
291.724	-48.98
291.938	-22.36
292.153	2.22
292.368	-14.17
292.583	53.42
292.798	77.99
293.012	39.08
293.227	59.56
293.442	16.55
293.657	28.84
293.871	4.27
294.086	34.99
294.301	61.61
294.516	-14.17
294.73	-5.97
294.945	-22.36
295.16	71.85
295.374	4.27
295.589	61.61
295.804	-12.12
296.018	-22.36
296.233	92.33
296.447	65.71
296.662	73.9
296.877	-5.97
297.091	47.27
297.306	-12.12
297.52	-1.88
297.735	10.41
297.949	108.71
298.164	-10.07
298.378	47.27
298.593	-30.55
298.807	-48.98
299.022	26.79
299.236	24.75
299.451	-36.69
299.665	-36.69
299.88	16.55
300.094	57.51
300.309	-34.64
300.523	69.8
300.737	10.41
300.952	10.41
301.166	24.75
301.381	-94.04
301.595	69.8
301.809	14.51
302.024	96.43
302.238	-5.97
302.452	59.56
302.667	41.13
302.881	55.47
303.095	77.99
303.309	-8.02
303.524	10.41
303.738	57.51
303.952	-53.08
304.166	-16.21
304.381	-3.93
304.595	59.56
304.809	12.46
305.023	94.38
305.237	-44.88
305.452	18.6
305.666	-10.07
305.88	-28.5
306.094	34.99
306.308	30.89
306.522	114.86
306.736	104.62
306.95	94.38
307.164	114.86
307.379	8.36
307.593	8.36
307.807	-24.4
308.021	10.41
308.235	53.42
308.449	16.55
308.663	-85.84
308.877	84.14
309.091	-32.6
309.305	43.18
309.519	2.22
309.733	18.6
309.947	-69.46
310.161	41.13
310.374	61.61
310.588	45.23
310.802	-26.45
311.016	-14.17
311.23	-55.12
311.444	34.99
311.658	98.47
311.872	22.7
312.085	41.13
312.299	98.47
312.513	-1.88
312.727	32.94
312.941	-153.43
313.154	-10.07
313.368	-48.98
313.582	-24.4
313.796	-28.5
314.009	0.17
314.223	0.17
314.437	-8.02
314.651	34.99
314.864	-26.45
315.078	-22.36
315.292	-16.21
315.505	-63.32
315.719	20.65
315.933	16.55
316.146	104.62
316.36	-98.13
316.573	20.65
316.787	14.51
317.001	-8.02
317.214	18.6
317.428	39.08
317.641	16.55
317.855	4.27
318.068	16.55
318.282	26.79
318.495	63.66
318.709	37.03
318.922	41.13
319.136	100.52
319.349	53.42
319.563	41.13
319.776	10.41
319.99	-5.97
320.203	-10.07
320.417	-67.41
320.63	-1.88
320.843	92.33
321.057	63.66
321.27	-26.45
321.483	10.41
321.697	55.47
321.91	-36.69
322.124	-18.26
322.337	24.75
322.55	-42.84
322.763	63.66
322.977	37.03
323.19	-59.22
323.403	-73.56
323.617	30.89
323.83	16.55
324.043	75.95
324.256	14.51
324.469	-36.69
324.683	63.66
324.896	16.55
325.109	39.08
325.322	20.65
325.535	53.42
325.748	-8.02
325.962	-3.93
326.175	-38.74
326.388	49.32
326.601	110.76
326.814	-18.26
327.027	2.22
327.24	71.85
327.453	-36.69
327.666	-16.21
327.879	-32.6
328.092	-18.26
328.305	37.03
328.518	-65.36
328.731	-34.64
328.944	49.32
329.157	67.75
329.37	-91.99
329.583	98.47
329.796	47.27
330.009	-32.6
330.222	0.17
330.435	-28.5
330.648	-1.88
330.861	20.65
331.073	28.84
331.286	73.9
331.499	86.19
331.712	-8.02
331.925	12.46
332.138	-16.21
332.35	53.42
332.563	-36.69
332.776	47.27
332.989	34.99
333.202	24.75
333.414	-32.6
333.627	8.36
333.84	10.41
334.053	2.22
334.265	51.37
334.478	-8.02
334.691	-16.21
334.903	-16.21
335.116	-48.98
335.329	-30.55
335.541	77.99
335.754	53.42
335.966	6.31
336.179	0.17
336.392	10.41
336.604	73.9
336.817	88.23
337.029	12.46
337.242	-32.6
337.454	45.23
337.667	-40.79
337.88	37.03
338.092	18.6
338.305	86.19
338.517	-14.17
338.729	24.75
338.942	47.27
339.154	14.51
339.367	0.17
339.579	30.89
339.792	10.41
340.004	34.99
340.217	45.23
340.429	65.71
340.641	-71.51
340.854	4.27
341.066	0.17
341.278	82.09
341.491	147.62
341.703	-28.5
341.915	-57.17
342.128	24.75
342.34	18.6
342.552	-38.74
342.764	-1.88
342.977	-1.88
343.189	34.99
343.401	26.79
343.613	-106.32
343.826	-10.07
344.038	-14.17
344.25	-1.88
344.462	-5.97
344.674	80.04
344.886	-42.84
345.099	32.94
345.311	20.65
345.523	14.51
345.735	-26.45
345.947	-57.17
346.159	43.18
346.371	61.61
346.583	-69.46
346.795	90.28
347.007	0.17
347.219	14.51
347.431	45.23
347.643	84.14
347.855	-5.97
348.067	59.56
348.279	-14.17
348.491	6.31
348.703	98.47
348.915	4.27
349.127	4.27
349.339	-8.02
349.551	39.08
349.763	77.99
349.975	-10.07
350.187	67.75
350.399	28.84
350.61	49.32
350.822	-5.97
351.034	65.71
351.246	80.04
351.458	30.89
351.669	14.51
351.881	24.75
352.093	-36.69
352.305	57.51
352.517	65.71
352.728	6.31
352.94	47.27
353.152	43.18
353.363	-61.27
353.575	34.99
353.787	10.41
353.999	20.65
354.21	123.05
354.422	10.41
354.633	6.31
354.845	73.9
355.057	51.37
355.268	22.7
355.48	110.76
355.692	18.6
355.903	-55.12
356.115	-38.74
356.326	-24.4
356.538	94.38
356.749	20.65
356.961	96.43
357.172	39.08
357.384	-75.6
357.595	53.42
357.807	63.66
358.018	-16.21
358.23	45.23
358.441	116.9
358.653	92.33
358.864	39.08
359.075	59.56
359.287	2.22
359.498	53.42
359.709	-10.07
359.921	28.84
360.132	34.99
360.344	49.32
360.555	34.99
360.766	49.32
360.977	6.31
361.189	59.56
361.4	65.71
361.611	94.38
361.823	84.14
362.034	24.75
362.245	-16.21
362.456	-24.4
362.667	63.66
362.879	-36.69
363.09	53.42
363.301	34.99
363.512	82.09
363.723	67.75
363.935	-63.32
364.146	55.47
364.357	20.65
364.568	30.89
364.779	-22.36
364.99	65.71
365.201	-20.31
365.412	45.23
365.623	-67.41
365.834	73.9
366.045	8.36
366.256	32.94
366.467	28.84
366.678	-8.02
366.889	18.6
367.1	51.37
367.311	0.17
367.522	45.23
367.733	37.03
367.944	-18.26
368.155	12.46
368.366	16.55
368.577	2.22
368.788	63.66
368.999	-14.17
369.209	30.89
369.42	69.8
369.631	55.47
369.842	4.27
370.053	65.71
370.264	75.95
370.474	-26.45
370.685	-18.26
370.896	12.46
371.107	86.19
371.317	57.51
371.528	-18.26
371.739	32.94
371.95	8.36
372.16	61.61
372.371	28.84
372.582	18.6
372.792	12.46
373.003	2.22
373.214	30.89
373.424	67.75
373.635	16.55
373.846	157.86
374.056	10.41
374.267	20.65
374.477	0.17
374.688	-28.5
374.898	102.57
375.109	28.84
375.319	-5.97
375.53	82.09
375.74	63.66
375.951	16.55
376.161	24.75
376.372	112.81
376.582	32.94
376.793	-12.12
377.003	-16.21
377.214	14.51
377.424	82.09
377.635	26.79
377.845	41.13
378.055	24.75
378.266	24.75
378.476	47.27
378.686	32.94
378.897	-20.31
379.107	110.76
379.317	98.47
379.528	8.36
379.738	51.37
379.948	-44.88
380.158	53.42
380.369	57.51
380.579	-34.64
380.789	20.65
380.999	47.27
381.21	30.89
381.42	73.9
381.63	28.84
381.84	-12.12
382.05	65.71
382.261	16.55
382.471	-8.02
382.681	-18.26
382.891	47.27
383.101	22.7
383.311	16.55
383.521	-28.5
383.731	-20.31
383.941	65.71
384.151	-34.64
384.361	-30.55
384.571	6.31
384.781	-16.21
384.991	98.47
385.201	88.23
385.411	73.9
385.621	0.17
385.831	57.51
386.041	82.09
386.251	34.99
386.461	6.31
386.671	26.79
386.881	-8.02
387.091	47.27
387.301	88.23
387.511	-10.07
387.72	-22.36
387.93	49.32
388.14	39.08
388.35	-22.36
388.56	-16.21
388.769	2.22
388.979	-24.4
389.189	12.46
389.399	45.23
389.609	86.19
389.818	51.37
390.028	39.08
390.238	51.37
390.447	10.41
390.657	30.89
390.867	-51.03
391.076	-22.36
391.286	47.27
391.496	43.18
391.705	71.85
391.915	100.52
392.125	28.84
392.334	-32.6
392.544	-20.31
392.753	57.51
392.963	90.28
393.172	59.56
393.382	-22.36
393.591	86.19
393.801	92.33
394.01	92.33
394.22	77.99
394.429	61.61
394.639	65.71
394.848	73.9
395.058	-20.31
395.267	-10.07
395.477	63.66
395.686	41.13
395.895	-20.31
396.105	100.52
396.314	28.84
396.524	39.08
396.733	20.65
396.942	137.38
397.152	63.66
397.361	63.66
397.57	57.51
397.78	104.62
397.989	49.32
398.198	133.29
398.407	-30.55
398.617	69.8
398.826	65.71
399.035	32.94
399.244	57.51
399.453	55.47
399.663	94.38
399.872	-1.88
400.081	67.75
400.29	82.09
400.499	61.61
400.708	116.9
400.917	41.13
401.127	71.85
401.336	131.24
401.545	102.57
401.754	80.04
401.963	47.27
402.172	43.18
402.381	24.75
402.59	57.51
402.799	51.37
403.008	73.9
403.217	118.95
403.426	112.81
403.635	73.9
403.844	114.86
404.053	96.43
404.262	73.9
404.471	151.72
404.68	151.72
404.888	108.71
405.097	71.85
405.306	61.61
405.515	47.27
405.724	127.14
405.933	116.9
406.142	55.47
406.35	161.96
406.559	139.43
406.768	71.85
406.977	168.1
407.185	92.33
407.394	137.38
407.603	131.24
407.812	57.51
408.02	98.47
408.229	196.78
408.438	96.43
408.646	98.47
408.855	67.75
409.064	184.49
409.272	129.19
409.481	262.31
409.69	133.29
409.898	145.58
410.107	141.48
410.315	176.3
410.524	186.54
410.733	254.12
410.941	170.15
411.15	164.01
411.358	229.54
411.567	297.13
411.775	274.6
411.984	219.3
412.192	272.55
412.401	260.26
412.609	333.99
412.818	309.41
413.026	319.65
413.234	276.65
413.443	288.93
413.651	290.98
413.86	286.89
414.068	393.38
414.276	372.9
414.485	358.57
414.693	456.87
414.901	518.31
415.11	385.19
415.318	426.15
415.526	501.92
415.734	534.69
415.943	569.51
416.151	549.03
416.359	542.88
416.567	577.7
416.776	508.07
416.984	559.27
417.192	600.23
417.4	600.23
417.608	596.13
417.817	549.03
418.025	585.89
418.233	721.06
418.441	635.04
418.649	725.15
418.857	802.97
419.065	845.98
419.273	825.5
419.481	833.69
419.689	884.89
419.897	909.47
420.105	866.46
420.313	1024.16
420.521	929.95
420.729	999.58
420.937	1009.82
421.145	1155.23
421.353	1132.7
421.561	1206.42
421.769	1325.21
421.977	1144.99
422.185	1300.63
422.393	1245.34
422.601	1454.23
422.809	1337.49
423.017	1403.03
423.224	1521.81
423.432	1556.63
423.64	1538.2
423.848	1679.51
424.056	1640.59
424.263	1753.23
424.471	1648.79
424.679	1831.05
424.887	1896.59
425.094	1955.98
425.302	1978.51
425.51	1951.88
425.718	2166.92
425.925	2107.53
426.133	2146.44
426.341	2277.51
426.548	2416.77
426.756	2384.01
426.964	2431.11
427.171	2570.37
427.379	2625.67
427.586	2812.03
427.794	2779.26
428.001	2912.38
428.209	3094.65
428.417	2914.43
428.624	3340.41
428.832	3291.26
429.039	3156.09
429.247	3278.97
429.454	3528.82
429.662	3776.63
429.869	3514.49
430.076	3926.13
430.284	3580.02
430.491	3643.51
430.699	4036.72
430.906	4016.24
431.114	4143.21
431.321	4229.23
431.528	4511.85
431.736	4583.52
431.943	4849.76
432.15	4751.46
432.358	4894.82
432.565	4989.02
432.772	4954.21
432.979	5177.44
433.187	5208.16
433.394	5343.32
433.601	5883.98
433.808	5685.33
434.016	5595.22
434.223	5875.79
434.43	6309.96
434.637	6207.56
434.844	6574.15
435.052	6629.45
435.259	6627.4
435.466	6719.56
435.673	6656.07
435.88	7096.38
436.087	7424.06
436.294	7346.23
436.501	7317.56
436.708	7520.31
436.915	7782.45
437.122	7944.24
437.329	7997.49
437.537	8374.31
437.743	8284.2
437.95	8374.31
438.157	8841.25
438.364	8978.47
438.571	8855.59
438.778	9007.14
438.985	10027.03
439.192	9400.35
439.399	9721.88
439.606	9574.42
439.813	10168.34
440.02	11024.39
440.227	10639.37
440.433	10518.54
440.64	10825.73
440.847	10862.6
441.054	11077.63
441.261	11884.53
441.467	11649.02
441.674	11995.12
441.881	12247.02
442.088	12136.43
442.294	12267.5
442.501	12435.44
442.708	12673
442.914	13406.17
443.121	13584.35
443.328	13502.43
443.534	14467.02
443.741	13991.89
443.948	13838.3
444.154	14888.9
444.361	14839.75
444.568	14921.67
444.774	14915.53
444.981	15077.32
445.187	15708.09
445.394	16314.29
445.6	16066.49
445.807	17559.45
446.013	16766.89
446.22	17086.37
446.426	17649.57
446.633	17733.53
446.839	18698.13
447.046	17893.27
447.252	18679.69
447.459	18911.11
447.665	18780.04
447.871	19533.7
448.078	20068.22
448.284	19597.18
448.491	20017.02
448.697	20819.82
448.903	21112.68
449.11	21282.66
449.316	20856.68
449.522	21288.81
449.728	21753.69
449.935	22171.48
450.141	21591.91
450.347	22433.62
450.553	21852
450.76	21983.07
450.966	22810.45
451.172	22669.14
451.378	23297.86
451.584	22636.37
451.791	23306.06
451.997	23301.96
452.203	23664.45
452.409	23455.56
452.615	23551.81
452.821	22562.64
453.027	22517.59
453.233	23594.82
453.44	22849.36
453.646	22765.39
453.852	23369.54
454.058	23328.58
454.264	22384.47
454.47	23091.02
454.676	22308.69
454.882	23191.37
455.088	21372.77
455.294	21487.46
455.5	21964.64
455.705	22374.23
455.911	21282.66
456.117	20717.42
456.323	20068.22
456.529	19267.46
456.735	20189.05
456.941	19560.32
457.147	19449.73
457.352	18841.48
457.558	18665.36
457.764	18778
457.97	18149.27
458.176	17813.4
458.381	17833.88
458.587	17223.59
458.793	16783.27
458.999	15957.94
459.204	17096.61
459.41	16783.27
459.616	15712.19
459.821	15589.31
460.027	15603.64
460.233	15448
460.438	14725.07
460.644	14663.63
460.85	13965.27
461.055	13903.83
461.261	13811.67
461.466	12728.3
461.672	12187.63
461.878	13422.56
462.083	12343.28
462.289	12259.31
462.494	12034.04
462.7	11280.38
462.905	11296.77
463.111	11663.35
463.316	11448.32
463.522	11280.38
463.727	11483.13
463.932	11241.47
464.138	11188.22
464.343	11231.23
464.549	10629.13
464.754	11341.82
464.959	10930.18
465.165	11026.43
465.37	10577.93
465.575	10356.75
465.781	10752.01
465.986	10719.24
466.191	10481.67
466.397	10151.95
466.602	9529.37
466.807	10190.86
467.012	10229.77
467.218	10088.46
467.423	9971.73
467.628	9928.72
467.833	10391.56
468.038	9998.35
468.244	9682.97
468.449	10233.87
468.654	9648.15
468.859	9762.84
469.064	9584.66
469.269	9469.98
469.474	9377.82
469.679	9459.74
469.885	9187.36
470.09	9261.09
470.295	9443.35
470.5	9242.65
470.705	9054.24
470.91	8964.13
471.115	8886.31
471.32	9095.2
471.525	9007.14
471.73	8826.92
471.935	8667.17
472.139	8548.39
472.344	8615.98
472.549	8296.49
472.754	8241.2
472.959	8245.29
473.164	8103.98
473.369	7946.29
473.574	8126.51
473.778	8110.13
473.983	7946.29
474.188	8052.78
474.393	7555.13
474.598	7780.4
474.802	7557.18
475.007	7501.88
475.212	7534.65
475.417	7192.64
475.621	7317.56
475.826	7174.21
476.031	7032.9
476.235	7166.01
476.44	7069.76
476.645	6879.3
476.849	6791.24
477.054	6801.47
477.259	6647.88
477.463	6633.54
477.668	6568.01
477.872	6809.67
478.077	6590.53
478.282	6496.33
478.486	6494.28
478.691	6377.55
478.895	6248.52
479.1	6230.09
479.304	6438.98
479.509	6137.93
479.713	6531.14
479.918	6068.3
480.122	6056.01
480.326	6041.68
480.531	6092.88
480.735	6096.97
480.94	5912.66
481.144	6260.81
481.348	5924.94
481.553	6013.01
481.757	5777.49
481.961	5711.96
482.166	5871.7
482.37	5759.06
482.574	5859.41
482.778	5916.75
482.983	5963.86
483.187	5883.98
483.391	5941.33
483.595	5939.28
483.8	5806.16
484.004	5992.53
484.208	5892.18
484.412	5777.49
484.616	5840.98
484.821	5812.31
485.025	5757.01
485.229	5759.06
485.433	5883.98
485.637	5857.36
485.841	5886.03
486.045	5834.83
486.249	5754.96
486.453	5787.73
486.657	5877.84
486.861	5840.98
487.065	5822.55
487.269	5767.25
487.473	5777.49
487.677	5769.3
487.881	5939.28
488.085	5789.78
488.289	5924.94
488.493	5912.66
488.697	5965.9
488.901	5906.51
489.105	6039.63
489.309	6017.1
489.512	5875.79
489.716	6029.39
489.92	5914.7
490.124	5869.65
490.328	6031.44
490.531	5920.85
490.735	5943.38
490.939	5865.55
491.143	5853.27
491.346	6125.65
491.55	6160.46
491.754	5994.58
491.958	6137.93
492.161	6166.6
492.365	6023.25
492.569	6189.13
492.772	6221.9
492.976	6314.06
493.18	6221.9
493.383	6328.39
493.587	6508.62
493.79	6471.75
493.994	6305.87
494.197	6451.27
494.401	6484.04
494.605	6527.05
494.808	6551.62
495.012	6541.38
495.215	6787.14
495.419	6809.67
495.622	6762.56
495.825	6809.67
496.029	6910.02
496.232	7108.67
496.436	7022.66
496.639	7135.29
496.843	6959.17
497.046	7249.98
497.249	7288.89
497.453	7268.41
497.656	7458.87
497.859	7424.06
498.063	7358.52
498.266	7721.01
498.469	7653.43
498.673	7655.48
498.876	7909.43
499.079	7866.42
499.282	7962.67
499.485	8271.92
499.689	7993.39
499.892	8257.58
500.095	8271.92
500.298	8554.54
500.501	8331.31
500.705	8566.82
500.908	8912.93
501.111	8964.13
501.314	9046.05
501.517	9027.62
501.72	9381.92
501.923	9314.33
502.126	9209.89
502.329	9355.29
502.532	9537.56
502.735	9652.25
502.938	10014.74
503.141	9867.28
503.344	10162.19
503.547	10147.86
503.75	10264.59
503.953	10366.99
504.156	10622.98
504.359	10477.58
504.562	10670.09
504.765	10854.41
504.968	11020.29
505.17	11243.52
505.373	11229.18
505.576	11331.58
505.779	11313.15
505.982	11847.67
506.185	11775.99
506.387	11796.47
506.59	11927.54
506.793	12023.8
506.996	12376.05
507.198	12650.47
507.401	12488.68
507.604	12646.38
507.807	12912.61
508.009	12920.81
508.212	13025.25
508.415	13395.93
508.617	13412.32
508.82	13451.23
509.022	13580.25
509.225	13811.67
509.428	13993.94
509.63	14213.07
509.833	14229.46
510.035	14637
510.238	14819.27
510.44	14821.32
510.643	14821.32
510.845	15423.42
511.048	15032.26
511.25	15341.5
511.453	15472.57
511.655	16052.15
511.858	15955.9
512.06	16046.01
512.262	16252.85
512.465	16244.66
512.667	16506.8
512.87	16998.31
513.072	16893.86
513.274	17463.2
513.477	17205.16
513.679	17416.1
513.881	18091.93
514.084	17936.28
514.286	17780.64
514.488	18395.03
514.69	18859.91
514.893	18720.65
515.095	19023.75
515.297	19494.79
515.499	19158.92
515.701	19494.79
515.904	19765.12
516.106	19654.53
516.308	20064.12
516.51	20555.63
516.712	20473.71
516.914	20696.94
517.116	21122.92
517.318	21284.71
517.52	21124.97
517.722	21632.86
517.925	21774.17
518.127	21929.82
518.329	22380.37
518.531	22171.48
518.733	22685.52
518.935	22724.43
519.136	23217.99
519.338	23525.19
519.54	23682.88
519.742	23686.98
519.944	23988.03
520.146	24340.28
520.348	24426.29
520.55	24583.99
520.752	24626.99
520.954	25120.56
521.155	25034.54
521.357	25667.36
521.559	25632.55
521.761	25607.97
521.963	26402.58
522.164	26003.23
522.366	26547.99
522.568	26818.32
522.77	27107.09
522.971	27608.84
523.173	27309.83
523.375	27477.77
523.576	27553.54
523.778	27475.72
523.98	28172.03
524.181	28432.12
524.383	28688.12
524.584	28860.15
524.786	28585.72
524.988	28952.3
525.189	29171.44
525.391	29447.91
525.592	29527.78
525.794	29523.69
525.995	29902.56
526.197	30021.34
526.398	29980.39
526.6	30361.31
526.801	30408.41
527.003	30715.61
527.204	31028.95
527.406	31121.1
527.607	31362.76
527.808	31389.39
528.01	31334.09
528.211	31327.95
528.412	32108.22
528.614	31995.59
528.815	31663.82
529.016	32425.66
529.218	31882.95
529.419	31960.77
529.62	32073.41
529.822	32532.15
530.023	32595.64
530.224	32810.68
530.425	32485.05
530.626	32476.86
530.828	32396.99
531.029	33248.94
531.23	32650.94
531.431	32794.29
531.632	33281.71
531.833	33318.57
532.035	33212.08
532.236	33408.68
532.437	33154.74
532.638	33269.42
532.839	33517.23
533.04	33898.15
533.241	33222.32
533.442	34025.12
533.643	33681.06
533.844	33814.18
534.045	33537.71
534.246	33560.23
534.447	33945.25
534.648	33879.72
534.849	33832.61
535.05	33726.12
535.251	34061.99
535.451	33865.38
535.652	34039.46
535.853	33619.63
536.054	33834.66
536.255	34156.19
536.456	33863.33
536.657	34287.26
536.857	34012.84
537.058	34043.56
537.259	34221.73
537.46	34279.07
537.66	33734.31
537.861	34422.43
538.062	33805.99
538.263	34379.42
538.463	33693.35
538.664	33838.76
538.865	34160.29
539.065	34465.44
539.266	33617.58
539.466	34391.71
539.667	33709.74
539.868	34418.33
540.068	34072.23
540.269	34088.61
540.469	34107.04
540.67	33914.53
540.87	34010.79
541.071	33590.95
541.271	34066.08
541.472	33969.83
541.672	34242.21
541.873	34006.69
542.073	33650.35
542.274	34168.48
542.474	33965.73
542.675	34285.22
542.875	34424.48
543.075	34053.8
543.276	33711.78
543.476	34399.9
543.676	33889.96
543.877	34193.06
544.077	33621.67
544.277	34025.12
544.478	34176.67
544.678	34137.76
544.878	33965.73
545.078	33805.99
545.279	33791.66
545.479	33656.49
545.679	34129.57
545.879	34541.21
546.079	33871.53
546.28	33775.27
546.48	33433.26
546.68	33951.4
546.88	34252.45
547.08	33879.72
547.28	34107.04
547.48	33613.48
547.68	34031.27
547.88	33824.42
548.081	34317.98
548.281	33521.32
548.481	33482.41
548.681	34193.06
548.881	33873.57
549.081	34129.57
549.28	33849
549.48	34152.1
549.68	33345.2
549.88	34074.27
550.08	33887.91
550.28	34084.51
550.48	33619.63
550.68	34096.8
550.88	33681.06
551.08	33935.01
551.279	33789.61
551.479	33683.11
551.679	33472.17
551.879	33773.22
552.079	33953.44
552.278	33547.95
552.478	33717.93
552.678	33709.74
552.878	34100.9
553.077	33836.71
553.277	33562.28
553.477	34223.78
553.676	33341.1
553.876	33660.59
554.076	33298.09
554.275	33390.25
554.475	33179.31
554.674	33853.09
554.874	33529.52
555.074	33353.39
555.273	33818.28
555.473	33615.53
555.672	33048.24
555.872	33040.05
556.071	33558.19
556.271	33724.07
556.47	32741.05
556.67	32730.81
556.869	32405.18
557.068	32816.82
557.268	32716.47
557.467	33054.39
557.667	33054.39
557.866	32825.01
558.065	33207.98
558.265	32673.46
558.464	32542.39
558.663	33214.13
558.863	32353.98
559.062	32845.49
559.261	32323.26
559.461	32767.67
559.66	32157.38
559.859	32409.28
560.058	32020.16
560.258	31987.39
560.457	31930.05
560.656	32507.58
560.855	31934.15
561.054	32399.04
561.253	31518.41
561.453	31940.29
561.652	31622.86
561.851	32011.97
562.05	31373
562.249	31192.78
562.448	31774.41
562.647	31358.67
562.846	31219.41
563.045	31436.49
563.244	30668.5
563.443	31477.45
563.642	30901.97
563.841	30887.64
564.04	30899.92
564.239	31051.47
564.438	30412.51
564.637	30875.35
564.836	30619.35
565.035	30029.54
565.234	30441.18
565.432	30121.7
565.631	30142.17
565.83	30312.16
566.029	30037.73
566.228	29802.21
566.427	29931.23
566.625	29677.29
566.824	29333.23
567.023	29730.53
567.222	29153.01
567.42	29660.9
567.619	29368.04
567.818	29222.64
568.016	28911.35
568.215	29327.08
568.414	29071.09
568.612	29124.33
568.811	28770.04
569.01	28976.88
569.208	28434.17
569.407	28606.2
569.605	28278.52
569.804	28819.19
570.002	28055.29
570.201	28460.79
570.4	28184.32
570.598	28010.24
570.797	27881.22
570.995	28040.96
571.193	27508.49
571.392	27430.66
571.59	27016.97
571.789	27557.64
571.987	27246.35
572.186	27275.02
572.384	26896.14
572.582	27393.8
572.781	27262.73
572.979	26771.22
573.177	26619.67
573.376	26957.58
573.574	26683.16
573.772	26763.03
573.971	26437.4
574.169	26314.52
574.367	25941.79
574.565	26580.76
574.763	26238.75
574.962	25782.05
575.16	25573.16
575.358	25794.34
575.556	25532.2
575.754	25720.61
575.952	25487.14
576.151	25900.83
576.349	25335.59
576.547	24882.99
576.745	25046.83
576.943	25181.99
577.141	25042.73
577.339	24956.72
577.537	24813.36
577.735	24801.07
577.933	24782.64
578.131	24764.21
578.329	24586.04
578.527	24420.15
578.725	24534.84
578.923	24346.42
579.121	24497.97
579.319	24041.28
579.516	24074.04
579.714	24082.24
579.912	23856.96
580.11	23715.65
580.308	23873.34
580.506	23734.08
580.704	23265.1
580.901	23680.83
581.099	23736.13
581.297	23035.72
581.495	23177.03
581.692	23353.16
581.89	22902.61
582.088	23123.79
582.285	23160.65
582.483	23099.21
582.681	22744.91
582.878	22566.74
583.076	22497.11
583.274	22560.59
583.471	22650.71
583.669	22482.77
583.866	22443.86
584.064	22538.07
584.262	22263.64
584.459	22122.33
584.657	22181.72
584.854	22181.72
585.052	21593.95
585.249	21917.53
585.447	22079.32
585.644	21663.58
585.841	22009.69
586.039	22056.79
586.236	21550.95
586.434	21624.67
586.631	21374.82
586.828	21223.27
587.026	21501.79
587.223	21446.5
587.42	21202.79
587.618	21458.79
587.815	21057.39
588.012	21038.95
588.21	21170.02
588.407	21014.38
588.604	20680.56
588.801	20754.29
588.999	20522.87
589.196	20584.3
589.393	20309.88
589.59	20529.01
589.787	20438.9
589.984	20283.25
590.182	20273.01
590.379	20336.5
590.576	20025.21
590.773	20346.74
590.97	19748.73
591.167	20244.34
591.364	20006.78
591.561	19767.17
591.758	20039.54
591.955	19797.88
592.152	19859.32
592.349	19543.94
592.546	19617.66
592.743	19584.9
592.94	19136.39
593.137	19462.02
593.334	19390.34
593.531	19042.18
593.727	19539.84
593.924	19378.05
594.121	18990.98
594.318	19029.9
594.515	18796.43
594.712	19189.64
594.908	18726.8
595.105	18714.51
595.302	18225.04
595.499	18827.15
595.696	18685.84
595.892	18481.04
596.089	18489.23
596.286	18491.28
596.482	18261.91
596.679	18429.84
596.876	18429.84
597.072	18128.79
597.269	18241.43
597.466	18020.25
597.662	18034.58
597.859	17960.86
598.055	18007.96
598.252	17842.07
598.448	17786.78
598.645	17917.85
598.841	17493.92
599.038	17717.15
599.234	17905.56
599.431	17555.36
599.627	16998.31
599.824	17362.85
600.02	17223.59
600.217	17375.14
600.413	17225.64
600.609	17029.03
600.806	17096.61
601.002	17096.61
601.198	16904.1
601.395	16924.58
601.591	16646.06
601.787	16703.4
601.984	16623.53
602.18	17049.51
602.376	16721.84
602.572	16871.34
602.769	16521.13
602.965	16336.82
603.161	16447.41
603.357	16349.11
603.553	16527.28
603.75	16398.26
603.946	16326.58
604.142	16506.8
604.338	16150.45
604.534	16119.73
604.73	16041.91
604.926	16062.39
605.122	16062.39
605.318	15933.37
605.514	15884.22
605.71	15720.38
605.906	15620.03
606.102	15691.71
606.298	15534.01
606.494	15601.6
606.69	15646.65
606.886	15669.18
607.082	15386.56
607.278	15634.36
607.474	15151.04
607.67	15486.91
607.866	15108.04
608.062	15458.24
608.257	15249.35
608.453	15067.08
608.649	15194.05
608.845	15151.04
609.041	15136.71
609.236	15044.55
609.432	14931.91
609.628	14864.33
609.824	14680.01
610.019	14616.52
610.215	14786.51
610.411	14921.67
610.606	14641.1
610.802	14661.58
610.998	14784.46
611.193	14626.76
611.389	14745.55
611.584	14395.34
611.78	14294.99
611.976	14501.84
612.171	14510.03
612.367	14315.47
612.562	14417.87
612.758	14200.79
612.953	14358.48
613.149	14305.23
613.344	14022.61
613.539	14424.01
613.735	14374.86
613.93	14284.75
614.126	13948.89
614.321	14053.33
614.517	14125.01
614.712	14116.82
614.907	13940.69
615.103	14028.76
615.298	13942.74
615.493	14026.71
615.688	13676.51
615.884	14112.72
616.079	13443.04
616.274	13948.89
616.47	13670.36
616.665	13668.31
616.86	13615.07
617.055	13791.19
617.25	13365.21
617.445	13828.06
617.641	13385.69
617.836	13582.3
618.031	13301.73
618.226	13252.58
618.421	13307.87
618.616	13522.91
618.811	13225.95
619.006	13219.81
619.201	13357.02
619.396	13232.1
619.591	13008.87
619.786	13168.61
619.981	12634.09
620.176	12959.72
620.371	12697.58
620.566	12892.13
620.761	12466.16
620.956	12746.73
621.151	12584.94
621.346	12652.52
621.541	12330.99
621.735	12558.32
621.93	12011.51
622.125	12152.82
622.32	12167.15
622.515	12130.29
622.709	12144.63
622.904	12124.15
623.099	12048.37
623.294	12152.82
623.488	11919.35
623.683	11765.75
623.878	11692.02
624.072	11767.8
624.267	11804.66
624.462	11710.46
624.656	11300.86
624.851	11515.9
625.046	11423.74
625.24	11184.13
625.435	11376.64
625.629	11102.21
625.824	11214.85
626.018	11059.2
626.213	10971.14
626.407	10776.58
626.602	10942.47
626.796	10967.04
626.991	10764.29
627.185	10721.29
627.38	10659.85
627.574	10618.89
627.768	10694.66
627.963	10315.79
628.157	10430.48
628.352	10534.92
628.546	10151.95
628.74	10373.13
628.935	10000.4
629.129	10414.09
629.323	10110.99
629.517	10319.89
629.712	10100.75
629.906	10008.59
630.1	9936.92
630.294	9914.39
630.489	9762.84
630.683	9715.73
630.877	9431.07
631.071	9682.97
631.265	9695.25
631.459	9267.23
631.653	9449.5
631.848	9469.98
632.042	9279.52
632.236	9343
632.43	9205.79
632.624	9402.4
632.818	9216.03
633.012	9119.78
633.206	8964.13
633.4	9244.7
633.594	8890.4
633.788	9076.77
633.982	9000.99
634.176	8917.03
634.369	8730.66
634.563	8697.89
634.757	8536.1
634.951	8896.55
635.145	8925.22
635.339	8618.02
635.533	8435.75
635.726	8331.31
635.92	8216.62
636.114	8302.64
636.308	8286.25
636.501	8243.24
636.695	8386.6
636.889	8079.41
637.083	7936.05
637.276	8163.37
637.47	8095.79
637.664	8093.74
637.857	8009.78
638.051	8007.73
638.244	7888.95
638.438	7884.85
638.632	7661.62
638.825	7872.56
639.019	7729.2
639.212	7569.46
639.406	7680.05
639.599	7534.65
639.793	7567.42
639.986	7401.53
640.18	7403.58
640.373	7305.28
640.567	7342.14
640.76	7374.91
640.954	7219.26
641.147	7176.25
641.34	7225.4
641.534	7096.38
641.727	7088.19
641.92	7077.95
642.114	6998.08
642.307	7080
642.5	7131.2
642.694	6873.15
642.887	6928.45
643.08	6805.57
643.273	6887.49
643.467	6701.12
643.66	6678.6
643.853	6678.6
644.046	6637.64
644.239	6545.48
644.432	6504.52
644.626	6553.67
644.819	6400.07
645.012	6369.35
645.205	6486.09
645.398	6473.8
645.591	6434.89
645.784	6254.67
645.977	6185.04
646.17	6244.43
646.363	6191.18
646.556	6039.63
646.749	6086.73
646.942	6139.98
647.135	6219.85
647.328	6154.32
647.521	6010.96
647.714	6025.29
647.907	5873.75
648.099	5945.42
648.292	5894.22
648.485	6025.29
648.678	5781.59
648.871	5912.66
649.064	5742.68
649.256	5838.93
649.449	5779.54
649.642	5695.57
649.835	5754.96
650.027	5564.5
650.22	5668.95
650.413	5445.72
650.605	5564.5
650.798	5410.9
650.991	5550.17
651.183	5548.12
651.376	5468.25
651.568	5429.34
651.761	5353.56
651.954	5496.92
652.146	5335.13
652.339	5234.78
652.531	5316.7
652.724	4978.78
652.916	5122.14
653.109	5343.32
653.301	5113.95
653.494	5091.42
653.686	5107.8
653.879	5140.57
654.071	4913.25
654.263	4989.02
654.456	5105.76
654.648	4974.69
654.84	4892.77
655.033	4939.87
655.225	5034.08
655.417	4954.21
655.61	4788.32
655.802	4845.66
655.994	4792.42
656.186	4620.39
656.379	4696.16
656.571	4821.09
656.763	4757.6
656.955	4466.79
657.148	4843.62
657.34	4610.15
657.532	4608.1
657.724	4493.41
657.916	4511.85
658.108	4620.39
658.3	4587.62
658.492	4546.66
658.684	4315.24
658.876	4474.98
659.068	4448.36
659.26	4243.56
659.452	4472.93
659.644	4362.34
659.836	4200.55
660.028	4415.59
660.22	4266.09
660.412	4270.19
660.604	4208.75
660.796	4423.78
660.988	4171.88
661.18	4175.98
661.372	4155.5
661.563	4216.94
661.755	4020.33
661.947	4126.83
662.139	4075.63
662.331	3981.42
662.522	3915.89
662.714	3991.66
662.906	4014.19
663.097	4126.83
663.289	3805.3
663.481	4038.77
663.673	3960.94
663.864	3825.78
664.056	3778.67
664.247	3795.06
664.439	4018.29
664.631	3891.31
664.822	3821.68
665.014	3850.35
665.205	3719.28
665.397	3807.34
665.588	3893.36
665.78	3793.01
665.971	3879.02
666.163	3801.2
666.354	3666.03
666.546	3596.4
666.737	3620.98
666.929	3760.24
667.12	3666.03
667.311	3741.81
667.503	3647.6
667.694	3743.86
667.885	3610.74
668.077	3494.01
668.268	3506.29
668.459	3766.39
668.651	3676.27
668.842	3516.53
669.033	3377.27
669.224	3647.6
669.416	3674.23
669.607	3483.77
669.798	3709.04
669.989	3590.26
670.18	3477.62
670.371	3528.82
670.563	3569.78
670.754	3557.49
670.945	3352.7
671.136	3483.77
671.327	3459.19
671.518	3496.05
671.709	3500.15
671.9	3549.3
672.091	3571.83
672.282	3457.14
672.473	3422.33
672.664	3457.14
672.855	3475.57
673.046	3506.29
673.237	3371.13
673.428	3451
673.619	3418.23
673.809	3414.13
674	3328.12
674.191	3508.34
674.382	3463.29
674.573	3502.2
674.764	3545.2
674.954	3344.5
675.145	3352.7
675.336	3455.09
675.527	3451
675.717	3307.64
675.908	3588.21
676.099	3389.56
676.289	3512.44
676.48	3332.22
676.671	3324.02
676.861	3332.22
677.052	3373.18
677.243	3367.03
677.433	3330.17
677.624	3242.11
677.814	3485.81
678.005	3477.62
678.195	3491.96
678.386	3299.45
678.576	3405.94
678.767	3403.89
678.957	3393.65
679.148	3442.81
679.338	3514.49
679.529	3491.96
679.719	3442.81
679.909	3473.53
680.1	3422.33
680.29	3356.79
680.481	3559.54
680.671	3455.09
680.861	3407.99
681.052	3385.46
681.242	3457.14
681.432	3424.37
681.622	3346.55
681.813	3448.95
682.003	3483.77
682.193	3281.02
682.383	3561.59
682.573	3410.04
682.764	3367.03
682.954	3442.81
683.144	3446.9
683.334	3360.89
683.524	3424.37
683.714	3684.47
683.904	3371.13
684.094	3444.85
684.284	3448.95
684.474	3575.92
684.664	3465.33
684.854	3539.06
685.044	3541.11
685.234	3467.38
685.424	3424.37
685.614	3373.18
685.804	3438.71
685.994	3424.37
686.184	3516.53
686.374	3321.98
686.564	3391.61
686.753	3381.37
686.943	3235.96
687.133	3350.65
687.323	3235.96
687.513	3354.74
687.702	3344.5
687.892	3379.32
688.082	3240.06
688.272	3311.74
688.461	3319.93
688.651	3369.08
688.841	3201.15
689.03	3367.03
689.22	3248.25
689.41	3246.2
689.599	3223.67
689.789	3184.76
689.979	3213.43
690.168	3240.06
690.358	3172.47
690.547	3131.51
690.737	3156.09
690.926	3151.99
691.116	3059.84
691.305	2982.01
691.495	3080.32
691.684	3010.68
691.874	3072.12
692.063	3002.49
692.252	2990.21
692.442	3043.45
692.631	2988.16
692.82	2969.73
693.01	3055.74
693.199	2869.37
693.388	2973.82
693.578	2934.91
693.767	2982.01
693.956	2875.52
694.146	2867.33
694.335	2814.08
694.524	2832.51
694.713	2879.61
694.902	2834.56
695.092	2883.71
695.281	2943.1
695.47	2879.61
695.659	2762.88
695.848	2771.07
696.037	2814.08
696.226	2748.54
696.415	2748.54
696.604	2775.17
696.793	2742.4
696.982	2775.17
697.171	2807.94
697.36	2709.63
697.549	2809.98
697.738	2797.7
697.927	2719.87
698.116	2758.78
698.305	2760.83
698.494	2779.26
698.683	2799.74
698.872	2924.67
699.061	2861.18
699.25	2619.52
699.438	2736.26
699.627	2715.78
699.816	2828.42
700.005	2742.4
700.193	2855.04
700.382	2777.22
700.571	2797.7
700.76	2719.87
700.948	2758.78
701.137	2869.37
701.326	2644.1
701.514	2748.54
701.703	2941.05
701.892	2695.3
702.08	2885.76
702.269	2695.3
702.457	2703.49
702.646	2777.22
702.834	2785.41
703.023	2701.44
703.212	2787.46
703.4	2695.3
703.589	2836.61
703.777	2785.41
703.965	2670.72
704.154	2740.35
704.342	2730.11
704.531	2793.6
704.719	2760.83
704.907	2857.09
705.096	2762.88
705.284	2769.02
705.472	2762.88
705.661	2805.89
705.849	2893.95
706.037	2721.92
706.226	2920.57
706.414	2842.75
706.602	2846.85
706.79	2812.03
706.979	2758.78
707.167	2685.06
707.355	2693.25
707.543	2922.62
707.731	2934.91
707.919	2844.8
708.107	2795.65
708.296	2807.94
708.484	2715.78
708.672	2871.42
708.86	2893.95
709.048	2908.29
709.236	2816.13
709.424	3010.68
709.612	2914.43
709.8	2793.6
709.988	2801.79
710.176	2912.38
710.364	2949.25
710.551	2861.18
710.739	2932.86
710.927	2951.29
711.115	2877.57
711.303	2914.43
711.491	3039.36
711.679	2787.46
711.866	3008.64
712.054	2936.96
712.242	2887.81
712.43	2891.9
712.617	2914.43
712.805	3051.64
712.993	3041.4
713.181	2961.53
713.368	3014.78
713.556	3004.54
713.744	2924.67
713.931	3170.43
714.119	2908.29
714.306	2988.16
714.494	3004.54
714.682	3084.41
714.869	3012.73
715.057	3119.23
715.244	3041.4
715.432	3106.94
715.619	3012.73
715.807	2957.44
715.994	2953.34
716.182	3086.46
716.369	3037.31
716.556	3115.13
716.744	3156.09
716.931	3068.03
717.119	3102.84
717.306	3197.05
717.493	3108.99
717.681	3184.76
717.868	3156.09
718.055	3108.99
718.242	3117.18
718.43	3027.07
718.617	3111.04
718.804	3192.95
718.991	3182.71
719.179	3180.67
719.366	3053.69
719.553	3227.77
719.74	3229.82
719.927	3172.47
720.114	3252.35
720.301	3195
720.488	3186.81
720.676	3299.45
720.863	3135.61
721.05	3254.39
721.237	3219.58
721.424	3178.62
721.611	3293.3
721.798	3379.32
721.985	3260.54
722.172	3258.49
722.358	3123.32
722.545	3289.21
722.732	3199.1
722.919	3414.13
723.106	3297.4
723.293	3240.06
723.48	3500.15
723.667	3364.98
723.853	3299.45
724.04	3332.22
724.227	3461.24
724.414	3436.66
724.6	3346.55
724.787	3358.84
724.974	3266.68
725.161	3291.26
725.347	3399.8
725.534	3387.51
725.72	3358.84
725.907	3418.23
726.094	3446.9
726.28	3360.89
726.467	3461.24
726.653	3444.85
726.84	3487.86
727.027	3539.06
727.213	3369.08
727.4	3399.8
727.586	3418.23
727.773	3491.96
727.959	3487.86
728.145	3571.83
728.332	3416.18
728.518	3414.13
728.705	3553.4
728.891	3498.1
729.077	3487.86
729.264	3510.39
729.45	3473.53
729.636	3625.08
729.823	3448.95
730.009	3561.59
730.195	3491.96
730.382	3453.05
730.568	3567.73
730.754	3659.89
730.94	3635.32
731.126	3549.3
731.313	3700.85
731.499	3428.47
731.685	3627.12
731.871	3690.61
732.057	3455.09
732.243	3577.97
732.429	3557.49
732.615	3670.13
732.801	3731.57
732.987	3645.56
733.173	3565.68
733.359	3641.46
733.545	3500.15
733.731	3551.35
733.917	3795.06
734.103	3487.86
734.289	3670.13
734.475	3551.35
734.661	3668.08
734.847	3528.82
735.033	3618.93
735.219	3606.64
735.404	3653.75
735.59	3752.05
735.776	3590.26
735.962	3788.91
736.148	3631.22
736.333	3551.35
736.519	3612.79
736.705	3666.03
736.89	3643.51
737.076	3637.36
737.262	3483.77
737.447	3483.77
737.633	3571.83
737.819	3651.7
738.004	3727.47
738.19	3610.74
738.375	3561.59
738.561	3702.9
738.747	3635.32
738.932	3625.08
739.118	3547.25
739.303	3623.03
739.489	3745.91
739.674	3586.16
739.859	3602.55
740.045	3741.81
740.23	3653.75
740.416	3516.53
740.601	3612.79
740.786	3553.4
740.972	3627.12
741.157	3524.72
741.342	3567.73
741.528	3500.15
741.713	3498.1
741.898	3545.2
742.084	3526.77
742.269	3469.43
742.454	3676.27
742.639	3633.27
742.824	3586.16
743.01	3491.96
743.195	3537.01
743.38	3430.52
743.565	3444.85
743.75	3516.53
743.935	3489.91
744.12	3418.23
744.305	3428.47
744.49	3324.02
744.675	3573.88
744.86	3260.54
745.045	3358.84
745.23	3303.54
745.415	3389.56
745.6	3457.14
745.785	3438.71
745.97	3352.7
746.155	3299.45
746.34	3444.85
746.525	3197.05
746.71	3410.04
746.895	3272.82
747.079	3113.08
747.264	3217.53
747.449	3223.67
747.634	3235.96
747.819	3240.06
748.003	3102.84
748.188	3106.94
748.373	3082.36
748.557	3201.15
748.742	3076.22
748.927	3096.7
749.111	3008.64
749.296	2932.86
749.481	3031.16
749.665	2990.21
749.85	2818.18
750.034	2963.58
750.219	2943.1
750.404	2863.23
750.588	2906.24
750.773	2820.22
750.957	2867.33
751.141	2775.17
751.326	2826.37
751.51	2668.67
751.695	2742.4
751.879	2781.31
752.064	2789.5
752.248	2697.35
752.432	2797.7
752.617	2769.02
752.801	2693.25
752.985	2701.44
753.17	2664.58
753.354	2597
753.538	2537.6
753.722	2570.37
753.907	2601.09
754.091	2490.5
754.275	2433.16
754.459	2492.55
754.643	2549.89
754.828	2494.6
755.012	2420.87
755.196	2388.1
755.38	2443.4
755.564	2453.64
755.748	2388.1
755.932	2455.69
756.116	2336.9
756.3	2343.05
756.484	2420.87
756.668	2308.23
756.852	2187.4
757.036	2369.67
757.22	2367.62
757.404	2277.51
757.588	2205.83
757.772	2269.32
757.956	2254.98
758.14	2343.05
758.323	2121.87
758.507	2248.84
758.691	2179.21
758.875	2148.49
759.059	2209.93
759.242	2115.72
759.426	2005.13
759.61	1949.84
759.794	2076.81
759.977	2013.32
760.161	2164.87
760.345	1998.99
760.528	1996.94
760.712	1966.22
760.895	2136.2
761.079	1960.08
761.263	1943.69
761.446	1943.69
761.63	2031.76
761.813	2007.18
761.997	1841.29
762.18	1810.58
762.364	1923.21
762.547	1824.91
762.731	1876.11
762.914	1835.15
763.098	1890.45
763.281	1804.43
763.464	1894.54
763.648	1824.91
763.831	1779.86
764.015	1788.05
764.198	1804.43
764.381	1833.1
764.564	1730.7
764.748	1759.38
764.931	1800.34
765.114	1620.11
765.297	1773.71
765.481	1742.99
765.664	1724.56
765.847	1679.51
766.03	1724.56
766.213	1597.59
766.397	1718.42
766.58	1665.17
766.763	1712.27
766.946	1599.63
767.129	1693.84
767.312	1689.74
767.495	1566.87
767.678	1652.88
767.861	1669.27
768.044	1659.03
768.227	1652.88
768.41	1570.96
768.593	1720.46
768.776	1544.34
768.959	1704.08
769.142	1601.68
769.324	1525.91
769.507	1556.63
769.69	1540.24
769.873	1575.06
770.056	1495.19
770.239	1499.28
770.421	1521.81
770.604	1548.44
770.787	1454.23
770.97	1511.57
771.152	1403.03
771.335	1540.24
771.518	1351.83
771.7	1542.29
771.883	1503.38
772.066	1366.17
772.248	1400.98
772.431	1417.37
772.613	1355.93
772.796	1433.75
772.978	1353.88
773.161	1499.28
773.343	1327.25
773.526	1376.41
773.708	1323.16
773.891	1259.67
774.073	1296.53
774.256	1339.54
774.438	1458.32
774.621	1337.49
774.803	1312.92
774.985	1265.82
775.168	1251.48
775.35	1282.2
775.532	1294.49
775.715	1267.86
775.897	1214.62
776.079	1134.75
776.261	1241.24
776.444	1202.33
776.626	1138.84
776.808	1079.45
776.99	1185.94
777.173	1171.61
777.355	1106.07
777.537	1136.79
777.719	1073.31
777.901	1147.03
778.083	1087.64
778.265	1091.74
778.447	1093.79
778.629	1034.39
778.811	1079.45
778.993	1116.31
779.175	1083.55
779.357	1073.31
779.539	1036.44
779.721	983.2
779.903	1077.4
780.085	1013.92
780.267	1003.68
780.449	934.04
780.631	1001.63
780.812	966.81
780.994	891.04
781.176	1022.11
781.358	911.52
781.54	915.61
781.721	915.61
781.903	954.52
782.085	975
782.267	936.09
782.448	979.1
782.63	895.13
782.812	966.81
782.993	897.18
783.175	966.81
783.357	888.99
783.538	856.22
783.72	786.59
783.901	829.6
784.083	839.84
784.264	796.83
784.446	811.17
784.627	745.63
784.809	813.21
784.99	800.93
785.172	805.02
785.353	790.69
785.535	755.87
785.716	782.49
785.897	764.06
786.079	792.73
786.26	716.96
786.441	839.84
786.623	712.86
786.804	776.35
786.985	749.73
787.167	698.53
787.348	780.45
787.529	694.43
787.71	741.54
787.891	710.82
788.073	569.51
788.254	567.46
788.435	704.67
788.616	628.9
788.797	481.44
788.978	651.42
789.159	626.85
789.34	663.71
789.522	571.55
789.703	637.09
789.884	673.95
790.065	596.13
790.246	721.06
790.427	544.93
790.607	676
790.788	567.46
790.969	598.18
791.15	610.47
791.331	524.45
791.512	549.03
791.693	616.61
791.874	553.12
792.054	563.36
792.235	551.07
792.416	604.32
792.597	581.79
792.778	518.31
792.958	557.22
793.139	528.55
793.32	534.69
793.5	497.83
793.681	628.9
793.862	618.66
794.042	520.35
794.223	407.72
794.404	465.06
794.584	569.51
794.765	438.44
794.945	501.92
795.126	518.31
795.306	524.45
795.487	491.68
795.667	536.74
795.848	471.2
796.028	467.11
796.209	503.97
796.389	612.51
796.57	385.19
796.75	389.28
796.93	428.2
797.111	487.59
797.291	501.92
797.471	522.4
797.652	463.01
797.832	374.95
798.012	428.2
798.192	413.86
798.373	397.48
798.553	383.14
798.733	452.77
798.913	432.29
799.093	411.81
799.274	540.83
799.454	458.92
799.634	508.07
799.814	501.92
799.994	393.38
800.174	450.72
800.354	430.24
800.534	344.23
800.714	372.9
800.894	354.47
801.074	319.65
801.254	325.8
801.434	434.34
801.614	397.48
801.794	387.24
801.974	1144.99
802.154	420
802.334	383.14
802.514	344.23
802.693	370.85
802.873	366.76
803.053	346.28
803.233	379.04
803.413	368.81
803.592	311.46
803.772	282.79
803.952	368.81
804.131	368.81
804.311	436.39
804.491	340.13
804.67	354.47
804.85	323.75
805.03	331.94
805.209	301.22
805.389	290.98
805.568	250.02
805.748	290.98
805.928	338.09
806.107	344.23
806.287	377
806.466	293.03
806.646	381.09
806.825	233.64
807.004	342.18
807.184	348.33
807.363	383.14
807.543	319.65
807.722	268.45
807.901	323.75
808.081	327.85
808.26	270.5
808.439	284.84
808.619	301.22
808.798	264.36
808.977	295.08
809.156	327.85
809.336	256.17
809.515	405.67
809.694	278.69
809.873	225.45
810.052	374.95
810.231	276.65
810.411	264.36
810.59	309.41
810.769	237.74
810.948	278.69
811.127	235.69
811.306	209.06
811.485	282.79
811.664	299.17
811.843	272.55
812.022	190.63
812.201	270.5
812.38	168.1
812.559	223.4
812.737	323.75
812.916	211.11
813.095	225.45
813.274	305.32
813.453	204.97
813.632	235.69
813.811	213.16
813.989	213.16
814.168	241.83
814.347	188.58
814.526	213.16
814.704	280.74
814.883	237.74
815.062	196.78
815.24	274.6
815.419	221.35
815.598	262.31
815.776	161.96
815.955	155.82
816.133	176.3
816.312	243.88
816.49	219.3
816.669	237.74
816.847	217.26
817.026	254.12
817.204	250.02
817.383	260.26
817.561	196.78
817.74	243.88
817.918	164.01
818.097	186.54
818.275	176.3
818.453	180.39
818.632	295.08
818.81	141.48
818.988	200.87
819.167	125.1
819.345	137.38
819.523	233.64
819.701	252.07
819.879	182.44
820.058	143.53
820.236	200.87
820.414	108.71
820.592	135.34
820.77	114.86
820.948	223.4
821.127	161.96
821.305	139.43
821.483	188.58
821.661	237.74
821.839	182.44
822.017	182.44
822.195	149.67
822.373	180.39
822.551	192.68
822.729	116.9
822.907	118.95
823.085	186.54
823.262	125.1
823.44	149.67
823.618	153.77
823.796	110.76
823.974	108.71
824.152	141.48
824.329	186.54
824.507	133.29
824.685	151.72
824.863	172.2
825.04	133.29
825.218	221.35
825.396	118.95
825.574	225.45
825.751	123.05
825.929	127.14
826.107	127.14
826.284	168.1
826.462	147.62
826.639	125.1
826.817	71.85
826.994	172.2
827.172	131.24
827.349	207.02
827.527	59.56
827.704	170.15
827.882	153.77
828.059	141.48
828.237	159.91
828.414	141.48
828.591	118.95
828.769	125.1
828.946	157.86
829.124	172.2
829.301	161.96
829.478	155.82
829.655	188.58
829.833	159.91
830.01	65.71
830.187	137.38
830.364	121
830.542	67.75
830.719	94.38
830.896	164.01
831.073	194.73
831.25	57.51
831.427	86.19
831.604	151.72
831.782	80.04
831.959	131.24
832.136	34.99
832.313	164.01
832.49	168.1
832.667	84.14
832.844	69.8
833.021	73.9
833.198	153.77
833.374	118.95
833.551	47.27
833.728	69.8
833.905	116.9
834.082	90.28
834.259	170.15
834.436	145.58
834.612	39.08
834.789	88.23
834.966	4.27
835.143	116.9
835.319	2.22
835.496	80.04
835.673	155.82
835.85	133.29
836.026	139.43
836.203	139.43
836.38	37.03
836.556	92.33
836.733	30.89
836.909	129.19
837.086	106.67
837.262	30.89
837.439	106.67
837.616	123.05
837.792	-16.21
837.968	90.28
838.145	114.86
838.321	63.66
838.498	82.09
838.674	75.95
838.851	61.61
839.027	168.1
839.203	39.08
839.38	90.28
839.556	14.51
839.732	65.71
839.909	86.19
840.085	88.23
840.261	57.51
840.437	112.81
840.614	28.84
840.79	104.62
840.966	69.8
841.142	172.2
841.318	34.99
841.494	123.05
841.671	59.56
841.847	14.51
842.023	96.43
842.199	88.23
842.375	71.85
842.551	69.8
842.727	110.76
842.903	77.99
843.079	125.1
843.255	49.32
843.431	77.99
843.607	75.95
843.783	30.89
843.959	110.76
844.134	53.42
844.31	147.62
844.486	65.71
844.662	20.65
844.838	49.32
845.013	45.23
845.189	108.71
845.365	53.42
845.541	82.09
845.716	14.51
845.892	96.43
846.068	73.9
846.244	20.65
846.419	82.09
846.595	77.99
846.77	-10.07
846.946	71.85
847.122	37.03
847.297	94.38
847.473	51.37
847.648	37.03
847.824	-16.21
847.999	37.03
848.175	8.36
848.35	55.47
848.526	67.75
848.701	92.33
848.876	135.34
849.052	12.46
849.227	6.31
849.403	53.42
849.578	49.32
849.753	59.56
849.929	94.38
850.104	-28.5
850.279	49.32
850.454	43.18
850.63	26.79
850.805	45.23
850.98	71.85
851.155	37.03
851.33	49.32
851.505	39.08
851.681	45.23
851.856	8.36
852.031	98.47
852.206	53.42
852.381	30.89
852.556	49.32
852.731	57.51
852.906	53.42
853.081	98.47
853.256	71.85
853.431	4.27
853.606	-38.74
853.781	-10.07
853.956	22.7
854.131	10.41
854.305	22.7
854.48	-8.02
854.655	32.94
854.83	26.79
855.005	26.79
855.18	41.13
855.354	73.9
855.529	73.9
855.704	16.55
855.879	121
856.053	-8.02
856.228	24.75
856.403	18.6
856.577	39.08
856.752	-32.6
856.926	39.08
857.101	41.13
857.276	-34.64
857.45	10.41
857.625	57.51
857.799	-8.02
857.974	2.22
858.148	22.7
858.323	88.23
858.497	16.55
858.672	-63.32
858.846	-3.93
859.02	84.14
859.195	8.36
859.369	24.75
859.543	-8.02
859.718	12.46
859.892	59.56
860.066	18.6
860.241	-46.93
860.415	18.6
860.589	28.84
860.763	73.9
860.938	20.65
861.112	-14.17
861.286	-8.02
861.46	10.41
861.634	6.31
861.808	20.65
861.982	-12.12
862.157	4.27
862.331	-1.88
862.505	30.89
862.679	-10.07
862.853	-12.12
863.027	18.6
863.201	43.18
863.375	-87.89
863.549	-12.12
863.722	14.51
863.896	4.27
864.07	-34.64
864.244	39.08
864.418	30.89
864.592	51.37
864.766	-44.88
864.939	22.7
865.113	14.51
865.287	47.27
865.461	16.55
865.634	10.41
865.808	2.22
865.982	-61.27
866.156	-18.26
866.329	55.47
866.503	32.94
866.676	43.18
866.85	26.79
867.024	4.27
867.197	-26.45
867.371	32.94
867.544	41.13
867.718	43.18
867.891	-36.69
868.065	59.56
868.238	14.51
868.412	90.28
868.585	8.36
868.759	-26.45
868.932	-5.97
869.105	0.17
869.279	18.6
869.452	32.94
869.625	47.27
869.799	-42.84
869.972	-14.17
870.145	2.22
870.319	88.23
870.492	-32.6
870.665	-5.97
870.838	-38.74
871.011	-59.22
871.185	6.31
871.358	6.31
871.531	39.08
871.704	-24.4
871.877	-8.02
872.05	0.17
872.223	30.89
872.396	67.75
872.569	8.36
872.742	-22.36
872.915	73.9
873.088	59.56
873.261	39.08
873.434	28.84
873.607	0.17
873.78	45.23
873.953	-32.6
874.126	-16.21
874.299	6.31
874.471	-12.12
874.644	-20.31
874.817	0.17
874.99	59.56
875.163	-14.17
875.335	10.41
875.508	6.31
875.681	71.85
875.853	-57.17
876.026	22.7
876.199	61.61
876.371	37.03
876.544	0.17
876.717	12.46
876.889	-46.93
877.062	32.94
877.234	-48.98
877.407	-57.17
877.579	-26.45
877.752	14.51
877.924	14.51
878.097	61.61
878.269	-14.17
878.442	0.17
878.614	-14.17
878.786	0.17
878.959	53.42
879.131	43.18
879.303	-1.88
879.476	6.31
879.648	-20.31
879.82	-32.6
879.993	-14.17
880.165	51.37
880.337	-24.4
880.509	34.99
880.681	-20.31
880.854	-8.02
881.026	-10.07
881.198	43.18
881.37	20.65
881.542	12.46
881.714	75.95
881.886	-67.41
882.058	26.79
882.23	37.03
882.402	-65.36
882.574	32.94
882.746	2.22
882.918	39.08
883.09	20.65
883.262	-48.98
883.434	18.6
883.606	-38.74
883.778	-28.5
883.95	-28.5
884.122	-26.45
884.293	77.99
884.465	6.31
884.637	-48.98
884.809	0.17
884.98	18.6
885.152	-42.84
885.324	51.37
885.496	-89.94
885.667	-32.6
885.839	-8.02
886.011	32.94
886.182	37.03
886.354	-40.79
886.525	-12.12
886.697	-5.97
886.869	0.17
887.04	12.46
887.212	34.99
887.383	47.27
887.555	14.51
887.726	-51.03
887.897	-38.74
888.069	12.46
888.24	20.65
888.412	-28.5
888.583	24.75
888.754	26.79
888.926	-40.79
889.097	-65.36
889.268	4.27
889.44	-51.03
889.611	-20.31
889.782	-85.84
889.953	6.31
890.125	18.6
890.296	-67.41
890.467	20.65
890.638	-65.36
890.809	0.17
890.98	-24.4
891.151	24.75
891.323	-1.88
891.494	-16.21
891.665	-89.94
891.836	-18.26
892.007	-30.55
892.178	55.47
892.349	34.99
892.52	-73.56
892.691	73.9
892.862	-14.17
893.032	-67.41
893.203	8.36
893.374	43.18
893.545	34.99
893.716	-24.4
893.887	59.56
894.057	-1.88
894.228	-36.69
894.399	-22.36
894.57	8.36
894.74	-22.36
894.911	-18.26
895.082	-26.45
895.253	-12.12
895.423	-30.55
895.594	-1.88
895.764	24.75
895.935	-59.22
896.106	34.99
896.276	-57.17
896.447	-79.7
896.617	-14.17
896.788	-14.17
896.958	-48.98
897.129	-20.31
897.299	6.31
897.47	-14.17
897.64	-24.4
897.81	-12.12
897.981	-36.69
898.151	0.17
898.322	-20.31
898.492	-46.93
898.662	-112.47
898.832	6.31
899.003	2.22
899.173	26.79
899.343	-28.5
899.513	-5.97
