Data from USB4F104151__93__12-24-55-257.txt Node

Date: Fri Mar 14 12:24:55 EDT 2025
User: louis
Spectrometer: USB4F10415
Trigger mode: 4
Integration Time (sec): 3.500000E-2
Scans to average: 1
Electric dark correction enabled: true
Nonlinearity correction enabled: false
Boxcar width: 0
XAxis mode: Wavelengths
Number of Pixels in Spectrum: 3648
>>>>>Begin Spectral Data<<<<<
178.204	-172.37
178.424	-172.37
178.644	-172.37
178.864	-135.51
179.084	-168.27
179.304	-78.16
179.524	36.52
179.744	-31.06
179.964	-2.39
180.184	-49.49
180.404	3.75
180.624	-10.58
180.844	26.28
181.064	-59.73
181.283	91.82
181.503	-24.92
181.723	97.96
181.943	-43.35
182.163	73.39
182.383	-78.16
182.602	20.14
182.822	13.99
183.042	-35.16
183.262	-26.96
183.482	-37.2
183.701	1.71
183.921	52.91
184.141	-16.73
184.361	28.33
184.58	20.14
184.8	-10.58
185.02	-4.44
185.239	83.63
185.459	-4.44
185.679	46.76
185.898	-78.16
186.118	-31.06
186.338	7.85
186.557	63.15
186.777	11.95
186.997	69.29
187.216	48.81
187.436	183.98
187.655	24.23
187.875	36.52
188.095	-8.53
188.314	44.71
188.534	46.76
188.753	28.33
188.973	-18.77
189.192	89.77
189.412	48.81
189.631	54.95
189.851	-14.68
190.07	97.96
190.29	5.8
190.509	46.76
190.729	71.34
190.948	-14.68
191.168	147.11
191.387	13.99
191.607	34.47
191.826	28.33
192.045	26.28
192.265	-65.88
192.484	-10.58
192.704	34.47
192.923	-51.54
193.142	28.33
193.362	16.04
193.581	61.1
193.8	52.91
194.02	71.34
194.239	3.75
194.458	-16.73
194.678	-45.4
194.897	65.19
195.116	85.67
195.335	104.11
195.555	-8.53
195.774	-2.39
195.993	-41.3
196.212	-26.96
196.432	-16.73
196.651	-49.49
196.87	9.9
197.089	177.83
197.308	22.19
197.528	-10.58
197.747	-33.11
197.966	-65.88
198.185	73.39
198.404	-39.25
198.623	-45.4
198.842	9.9
199.062	81.58
199.281	-53.59
199.5	-20.82
199.719	93.87
199.938	-2.39
200.157	97.96
200.376	9.9
200.595	75.43
200.814	57
201.033	-65.88
201.252	83.63
201.471	-4.44
201.69	67.24
201.909	36.52
202.128	34.47
202.347	-0.34
202.566	-4.44
202.785	48.81
203.004	9.9
203.223	69.29
203.442	93.87
203.661	34.47
203.879	-8.53
204.098	128.68
204.317	-6.49
204.536	40.62
204.755	-26.96
204.974	32.43
205.193	26.28
205.411	130.73
205.63	28.33
205.849	40.62
206.068	7.85
206.287	16.04
206.505	63.15
206.724	-16.73
206.943	-8.53
207.162	-63.83
207.381	-65.88
207.599	-53.59
207.818	46.76
208.037	-10.58
208.255	-4.44
208.474	48.81
208.693	-22.87
208.911	5.8
209.13	-18.77
209.349	48.81
209.567	28.33
209.786	-4.44
210.005	79.53
210.223	-14.68
210.442	-43.35
210.661	63.15
210.879	48.81
211.098	7.85
211.316	32.43
211.535	-22.87
211.753	13.99
211.972	20.14
212.191	30.38
212.409	-57.68
212.628	-26.96
212.846	-47.44
213.065	-43.35
213.283	61.1
213.502	-43.35
213.72	-8.53
213.938	-80.21
214.157	63.15
214.375	-24.92
214.594	-72.02
214.812	-4.44
215.031	-22.87
215.249	-67.92
215.467	24.23
215.686	-6.49
215.904	46.76
216.122	11.95
216.341	122.54
216.559	26.28
216.778	61.1
216.996	22.19
217.214	16.04
217.432	9.9
217.651	34.47
217.869	73.39
218.087	-24.92
218.306	-33.11
218.524	61.1
218.742	-31.06
218.96	-4.44
219.179	-0.34
219.397	-26.96
219.615	71.34
219.833	36.52
220.051	42.67
220.27	71.34
220.488	57
220.706	93.87
220.924	26.28
221.142	-47.44
221.36	5.8
221.578	-22.87
221.796	-45.4
222.015	16.04
222.233	22.19
222.451	48.81
222.669	-12.63
222.887	-6.49
223.105	-4.44
223.323	40.62
223.541	22.19
223.759	38.57
223.977	36.52
224.195	77.48
224.413	22.19
224.631	32.43
224.849	20.14
225.067	73.39
225.285	46.76
225.503	75.43
225.721	-92.5
225.939	22.19
226.157	-59.73
226.375	85.67
226.592	-10.58
226.81	20.14
227.028	73.39
227.246	106.15
227.464	7.85
227.682	38.57
227.9	40.62
228.117	5.8
228.335	48.81
228.553	-51.54
228.771	22.19
228.989	-29.01
229.206	-31.06
229.424	-29.01
229.642	20.14
229.86	-39.25
230.077	52.91
230.295	87.72
230.513	20.14
230.731	-26.96
230.948	-18.77
231.166	38.57
231.384	-2.39
231.601	-49.49
231.819	52.91
232.037	-84.31
232.254	-8.53
232.472	-0.34
232.689	13.99
232.907	16.04
233.125	52.91
233.342	30.38
233.56	-41.3
233.777	-10.58
233.995	5.8
234.213	69.29
234.43	20.14
234.648	32.43
234.865	34.47
235.083	3.75
235.3	54.95
235.518	-6.49
235.735	87.72
235.953	-16.73
236.17	30.38
236.388	-37.2
236.605	18.09
236.822	-8.53
237.04	28.33
237.257	9.9
237.475	-43.35
237.692	48.81
237.909	-20.82
238.127	7.85
238.344	57
238.562	9.9
238.779	-47.44
238.996	-39.25
239.214	50.86
239.431	-26.96
239.648	26.28
239.865	-2.39
240.083	-6.49
240.3	9.9
240.517	-20.82
240.735	22.19
240.952	20.14
241.169	-8.53
241.386	44.71
241.603	24.23
241.821	-26.96
242.038	46.76
242.255	77.48
242.472	1.71
242.689	59.05
242.907	32.43
243.124	-39.25
243.341	16.04
243.558	-43.35
243.775	-8.53
243.992	-22.87
244.209	7.85
244.426	89.77
244.643	69.29
244.86	24.23
245.078	57
245.295	13.99
245.512	32.43
245.729	18.09
245.946	38.57
246.163	57
246.38	7.85
246.597	28.33
246.814	30.38
247.031	18.09
247.248	59.05
247.464	48.81
247.681	-12.63
247.898	54.95
248.115	48.81
248.332	-31.06
248.549	-0.34
248.766	13.99
248.983	-33.11
249.2	-22.87
249.417	-22.87
249.633	5.8
249.85	57
250.067	24.23
250.284	-12.63
250.501	7.85
250.717	20.14
250.934	-76.12
251.151	9.9
251.368	16.04
251.585	59.05
251.801	102.06
252.018	-26.96
252.235	11.95
252.451	-12.63
252.668	28.33
252.885	22.19
253.102	63.15
253.318	-29.01
253.535	-92.5
253.752	7.85
253.968	-4.44
254.185	59.05
254.401	-0.34
254.618	7.85
254.835	-45.4
255.051	30.38
255.268	81.58
255.484	59.05
255.701	-98.64
255.917	38.57
256.134	-18.77
256.351	-4.44
256.567	-0.34
256.784	28.33
257	-12.63
257.217	63.15
257.433	-20.82
257.65	32.43
257.866	48.81
258.082	38.57
258.299	-49.49
258.515	5.8
258.732	11.95
258.948	-35.16
259.165	-18.77
259.381	-6.49
259.597	-20.82
259.814	54.95
260.03	16.04
260.246	7.85
260.463	54.95
260.679	59.05
260.895	38.57
261.112	46.76
261.328	52.91
261.544	-61.78
261.761	91.82
261.977	22.19
262.193	-8.53
262.409	5.8
262.626	11.95
262.842	28.33
263.058	-41.3
263.274	71.34
263.49	7.85
263.707	69.29
263.923	71.34
264.139	32.43
264.355	81.58
264.571	26.28
264.787	32.43
265.004	-2.39
265.22	16.04
265.436	-14.68
265.652	20.14
265.868	-65.88
266.084	5.8
266.3	-6.49
266.516	-10.58
266.732	22.19
266.948	5.8
267.164	1.71
267.38	40.62
267.596	-53.59
267.812	120.49
268.028	-24.92
268.244	-45.4
268.46	-4.44
268.676	22.19
268.892	118.44
269.108	-14.68
269.324	63.15
269.54	-37.2
269.756	67.24
269.972	-43.35
270.188	-16.73
270.403	-2.39
270.619	118.44
270.835	52.91
271.051	-8.53
271.267	-29.01
271.483	18.09
271.698	28.33
271.914	-16.73
272.13	-18.77
272.346	-72.02
272.562	-41.3
272.777	9.9
272.993	7.85
273.209	-12.63
273.425	-6.49
273.64	-26.96
273.856	38.57
274.072	-22.87
274.287	-45.4
274.503	42.67
274.719	-39.25
274.934	3.75
275.15	11.95
275.366	26.28
275.581	13.99
275.797	50.86
276.012	34.47
276.228	-16.73
276.444	61.1
276.659	28.33
276.875	-72.02
277.09	-22.87
277.306	36.52
277.521	97.96
277.737	-67.92
277.952	-2.39
278.168	-55.64
278.383	11.95
278.599	69.29
278.814	30.38
279.03	65.19
279.245	7.85
279.461	18.09
279.676	-14.68
279.892	-18.77
280.107	28.33
280.322	-37.2
280.538	-12.63
280.753	-35.16
280.969	42.67
281.184	-24.92
281.399	13.99
281.615	-20.82
281.83	-26.96
282.045	30.38
282.26	-61.78
282.476	48.81
282.691	18.09
282.906	7.85
283.122	42.67
283.337	9.9
283.552	73.39
283.767	32.43
283.983	46.76
284.198	13.99
284.413	1.71
284.628	-61.78
284.843	42.67
285.058	75.43
285.274	34.47
285.489	-63.83
285.704	54.95
285.919	7.85
286.134	24.23
286.349	20.14
286.564	81.58
286.779	75.43
286.995	-133.46
287.21	-6.49
287.425	83.63
287.64	-20.82
287.855	16.04
288.07	-6.49
288.285	57
288.5	16.04
288.715	85.67
288.93	24.23
289.145	-6.49
289.36	34.47
289.575	-8.53
289.79	67.24
290.004	-57.68
290.219	61.1
290.434	73.39
290.649	-43.35
290.864	24.23
291.079	5.8
291.294	-12.63
291.509	-2.39
291.724	-6.49
291.938	-14.68
292.153	34.47
292.368	34.47
292.583	-8.53
292.798	1.71
293.012	22.19
293.227	-12.63
293.442	-35.16
293.657	59.05
293.871	59.05
294.086	-6.49
294.301	104.11
294.516	1.71
294.73	42.67
294.945	42.67
295.16	-18.77
295.374	75.43
295.589	36.52
295.804	-31.06
296.018	-57.68
296.233	63.15
296.447	54.95
296.662	-49.49
296.877	42.67
297.091	24.23
297.306	32.43
297.52	-14.68
297.735	61.1
297.949	-4.44
298.164	42.67
298.378	-37.2
298.593	-61.78
298.807	22.19
299.022	5.8
299.236	22.19
299.451	-51.54
299.665	-16.73
299.88	-49.49
300.094	5.8
300.309	-6.49
300.523	9.9
300.737	16.04
300.952	-10.58
301.166	79.53
301.381	-20.82
301.595	32.43
301.809	-51.54
302.024	52.91
302.238	-12.63
302.452	85.67
302.667	57
302.881	122.54
303.095	48.81
303.309	-4.44
303.524	-26.96
303.738	-6.49
303.952	32.43
304.166	30.38
304.381	-2.39
304.595	87.72
304.809	13.99
305.023	-59.73
305.237	22.19
305.452	63.15
305.666	75.43
305.88	36.52
306.094	26.28
306.308	38.57
306.522	50.86
306.736	13.99
306.95	5.8
307.164	46.76
307.379	-22.87
307.593	128.68
307.807	95.91
308.021	30.38
308.235	102.06
308.449	-31.06
308.663	-2.39
308.877	132.78
309.091	42.67
309.305	-4.44
309.519	16.04
309.733	20.14
309.947	-72.02
310.161	5.8
310.374	114.34
310.588	54.95
310.802	-37.2
311.016	-35.16
311.23	-55.64
311.444	30.38
311.658	36.52
311.872	77.48
312.085	77.48
312.299	122.54
312.513	34.47
312.727	38.57
312.941	3.75
313.154	18.09
313.368	77.48
313.582	57
313.796	38.57
314.009	24.23
314.223	40.62
314.437	1.71
314.651	79.53
314.864	5.8
315.078	18.09
315.292	7.85
315.505	61.1
315.719	32.43
315.933	9.9
316.146	-12.63
316.36	28.33
316.573	89.77
316.787	40.62
317.001	-0.34
317.214	-4.44
317.428	-0.34
317.641	-29.01
317.855	-22.87
318.068	65.19
318.282	114.34
318.495	59.05
318.709	-22.87
318.922	32.43
319.136	77.48
319.349	106.15
319.563	-6.49
319.776	9.9
319.99	1.71
320.203	38.57
320.417	-6.49
320.63	50.86
320.843	52.91
321.057	5.8
321.27	-29.01
321.483	16.04
321.697	128.68
321.91	-8.53
322.124	65.19
322.337	34.47
322.55	-33.11
322.763	18.09
322.977	50.86
323.19	46.76
323.403	38.57
323.617	69.29
323.83	89.77
324.043	5.8
324.256	122.54
324.469	13.99
324.683	48.81
324.896	34.47
325.109	3.75
325.322	11.95
325.535	5.8
325.748	-72.02
325.962	-24.92
326.175	-4.44
326.388	54.95
326.601	48.81
326.814	59.05
327.027	26.28
327.24	69.29
327.453	-24.92
327.666	89.77
327.879	126.63
328.092	147.11
328.305	-2.39
328.518	38.57
328.731	-0.34
328.944	40.62
329.157	36.52
329.37	32.43
329.583	87.72
329.796	108.2
330.009	-18.77
330.222	46.76
330.435	20.14
330.648	32.43
330.861	36.52
331.073	13.99
331.286	32.43
331.499	1.71
331.712	-26.96
331.925	38.57
332.138	48.81
332.35	73.39
332.563	5.8
332.776	44.71
332.989	-22.87
333.202	46.76
333.414	11.95
333.627	40.62
333.84	69.29
334.053	38.57
334.265	-10.58
334.478	-22.87
334.691	5.8
334.903	-20.82
335.116	5.8
335.329	-18.77
335.541	-41.3
335.754	7.85
335.966	9.9
336.179	102.06
336.392	-53.59
336.604	67.24
336.817	61.1
337.029	20.14
337.242	38.57
337.454	52.91
337.667	28.33
337.88	69.29
338.092	9.9
338.305	42.67
338.517	-12.63
338.729	-88.4
338.942	83.63
339.154	34.47
339.367	-43.35
339.579	1.71
339.792	-67.92
340.004	24.23
340.217	38.57
340.429	22.19
340.641	22.19
340.854	32.43
341.066	-59.73
341.278	13.99
341.491	54.95
341.703	87.72
341.915	7.85
342.128	26.28
342.34	-0.34
342.552	5.8
342.764	71.34
342.977	32.43
343.189	-6.49
343.401	24.23
343.613	-22.87
343.826	-4.44
344.038	13.99
344.25	28.33
344.462	-8.53
344.674	-2.39
344.886	-47.44
345.099	20.14
345.311	-8.53
345.523	93.87
345.735	-55.64
345.947	30.38
346.159	3.75
346.371	73.39
346.583	-49.49
346.795	163.5
347.007	-22.87
347.219	28.33
347.431	22.19
347.643	38.57
347.855	16.04
348.067	89.77
348.279	-22.87
348.491	65.19
348.703	95.91
348.915	-20.82
349.127	-86.36
349.339	61.1
349.551	-20.82
349.763	77.48
349.975	61.1
350.187	132.78
350.399	9.9
350.61	48.81
350.822	-57.68
351.034	3.75
351.246	-0.34
351.458	-12.63
351.669	18.09
351.881	50.86
352.093	28.33
352.305	32.43
352.517	3.75
352.728	28.33
352.94	-22.87
353.152	-0.34
353.363	50.86
353.575	-18.77
353.787	38.57
353.999	38.57
354.21	114.34
354.422	44.71
354.633	-22.87
354.845	13.99
355.057	-16.73
355.268	-31.06
355.48	69.29
355.692	-67.92
355.903	46.76
356.115	-6.49
356.326	22.19
356.538	48.81
356.749	91.82
356.961	57
357.172	-43.35
357.384	28.33
357.595	77.48
357.807	71.34
358.018	-39.25
358.23	97.96
358.441	71.34
358.653	48.81
358.864	-10.58
359.075	5.8
359.287	59.05
359.498	71.34
359.709	65.19
359.921	-10.58
360.132	48.81
360.344	22.19
360.555	-4.44
360.766	18.09
360.977	65.19
361.189	89.77
361.4	13.99
361.611	13.99
361.823	-2.39
362.034	24.23
362.245	-90.45
362.456	16.04
362.667	40.62
362.879	-29.01
363.09	13.99
363.301	69.29
363.512	42.67
363.723	71.34
363.935	-55.64
364.146	-2.39
364.357	-29.01
364.568	-16.73
364.779	1.71
364.99	32.43
365.201	11.95
365.412	83.63
365.623	-31.06
365.834	69.29
366.045	-80.21
366.256	67.24
366.467	22.19
366.678	77.48
366.889	-35.16
367.1	32.43
367.311	48.81
367.522	38.57
367.733	59.05
367.944	65.19
368.155	-49.49
368.366	46.76
368.577	22.19
368.788	73.39
368.999	30.38
369.209	65.19
369.42	42.67
369.631	122.54
369.842	69.29
370.053	59.05
370.264	-2.39
370.474	-33.11
370.685	-14.68
370.896	54.95
371.107	22.19
371.317	48.81
371.528	52.91
371.739	97.96
371.95	-35.16
372.16	32.43
372.371	-16.73
372.582	-0.34
372.792	28.33
373.003	61.1
373.214	28.33
373.424	-10.58
373.635	5.8
373.846	57
374.056	-4.44
374.267	48.81
374.477	54.95
374.688	13.99
374.898	42.67
375.109	100.01
375.319	16.04
375.53	48.81
375.74	32.43
375.951	40.62
376.161	18.09
376.372	26.28
376.582	30.38
376.793	-2.39
377.003	130.73
377.214	-31.06
377.424	-72.02
377.635	18.09
377.845	9.9
378.055	93.87
378.266	-49.49
378.476	114.34
378.686	36.52
378.897	40.62
379.107	24.23
379.317	22.19
379.528	-29.01
379.738	52.91
379.948	-43.35
380.158	-8.53
380.369	-16.73
380.579	30.38
380.789	42.67
380.999	48.81
381.21	54.95
381.42	91.82
381.63	16.04
381.84	73.39
382.05	42.67
382.261	54.95
382.471	48.81
382.681	20.14
382.891	59.05
383.101	28.33
383.311	59.05
383.521	85.67
383.731	97.96
383.941	106.15
384.151	73.39
384.361	181.93
384.571	46.76
384.781	28.33
384.991	46.76
385.201	63.15
385.411	63.15
385.621	36.52
385.831	5.8
386.041	-0.34
386.251	57
386.461	87.72
386.671	34.47
386.881	-14.68
387.091	28.33
387.301	36.52
387.511	3.75
387.72	46.76
387.93	61.1
388.14	-10.58
388.35	-18.77
388.56	61.1
388.769	140.97
388.979	42.67
389.189	59.05
389.399	120.49
389.609	61.1
389.818	48.81
390.028	-4.44
390.238	36.52
390.447	13.99
390.657	81.58
390.867	22.19
391.076	59.05
391.286	-35.16
391.496	28.33
391.705	-4.44
391.915	57
392.125	34.47
392.334	5.8
392.544	95.91
392.753	28.33
392.963	38.57
393.172	122.54
393.382	-29.01
393.591	116.39
393.801	-22.87
394.01	71.34
394.22	42.67
394.429	54.95
394.639	36.52
394.848	147.11
395.058	13.99
395.267	18.09
395.477	61.1
395.686	85.67
395.895	118.44
396.105	134.82
396.314	38.57
396.524	67.24
396.733	114.34
396.942	71.34
397.152	124.58
397.361	36.52
397.57	11.95
397.78	59.05
397.989	3.75
398.198	161.45
398.407	48.81
398.617	59.05
398.826	63.15
399.035	46.76
399.244	77.48
399.453	145.06
399.663	93.87
399.872	30.38
400.081	34.47
400.29	91.82
400.499	-20.82
400.708	159.4
400.917	65.19
401.127	83.63
401.336	75.43
401.545	114.34
401.754	42.67
401.963	122.54
402.172	65.19
402.381	48.81
402.59	20.14
402.799	93.87
403.008	57
403.217	85.67
403.426	79.53
403.635	44.71
403.844	63.15
404.053	104.11
404.262	-24.92
404.471	32.43
404.68	124.58
404.888	110.25
405.097	75.43
405.306	102.06
405.515	124.58
405.724	143.02
405.933	124.58
406.142	124.58
406.35	124.58
406.559	93.87
406.768	143.02
406.977	124.58
407.185	114.34
407.394	132.78
407.603	93.87
407.812	124.58
408.02	186.02
408.229	179.88
408.438	151.21
408.646	163.5
408.855	188.07
409.064	173.74
409.272	212.65
409.481	229.03
409.69	149.16
409.898	241.32
410.107	192.17
410.315	147.11
410.524	245.41
410.733	257.7
410.941	132.78
411.15	272.04
411.358	257.7
411.567	325.29
411.775	302.76
411.984	257.7
412.192	294.57
412.401	304.81
412.609	380.58
412.818	321.19
413.026	386.72
413.234	415.4
413.443	374.44
413.651	388.77
413.86	378.53
414.068	409.25
414.276	433.83
414.485	351.91
414.693	413.35
414.901	503.46
415.11	523.94
415.318	482.98
415.526	532.13
415.734	540.32
415.943	573.09
416.151	622.24
416.359	560.8
416.567	550.56
416.776	700.06
416.984	657.06
417.192	769.69
417.4	687.78
417.608	724.64
417.817	761.5
418.025	853.66
418.233	872.09
418.441	796.32
418.649	784.03
418.857	872.09
419.065	947.87
419.273	890.53
419.481	894.62
419.689	1033.88
419.897	1076.89
420.105	1040.03
420.313	1091.23
420.521	1150.62
420.729	1199.77
420.937	1205.91
421.145	1154.71
421.353	1373.85
421.561	1463.96
421.769	1416.85
421.977	1441.43
422.185	1488.53
422.393	1525.4
422.601	1611.41
422.809	1605.27
423.017	1664.66
423.224	1756.82
423.432	1783.44
423.64	1842.83
423.848	2033.29
424.056	2021
424.263	2150.03
424.471	2113.16
424.679	2119.31
424.887	2143.88
425.094	2283.14
425.302	2301.58
425.51	2502.28
425.718	2565.76
425.925	2393.73
426.133	2555.52
426.341	2805.38
426.548	2840.19
426.756	2899.58
426.964	2825.86
427.171	3147.39
427.379	3251.83
427.586	3202.68
427.794	3241.59
428.001	3411.57
428.209	3634.8
428.417	3626.61
428.624	3790.45
428.832	3673.71
429.039	3817.07
429.247	3835.5
429.454	4140.65
429.662	4511.33
429.869	4165.23
430.076	4445.8
430.284	4331.11
430.491	4658.79
430.699	4726.37
430.906	4853.34
431.114	4828.77
431.321	5127.77
431.528	5074.53
431.736	5467.74
431.943	5693.01
432.15	5539.41
432.358	5641.81
432.565	5887.57
432.772	6078.03
432.979	6176.33
433.187	6205
433.394	6448.71
433.601	6717
433.808	6835.78
434.016	6645.32
434.223	7142.97
434.43	7554.62
434.637	7329.34
434.844	7706.17
435.052	7884.34
435.259	7947.83
435.466	7980.59
435.673	7673.4
435.88	8400.43
436.087	8584.74
436.294	8832.55
436.501	8601.13
436.708	8781.35
436.915	9074.21
437.122	9448.99
437.329	9432.6
437.537	9649.69
437.743	9917.97
437.95	9768.47
438.157	10511.88
438.364	10851.85
438.571	10601.99
438.778	10601.99
438.985	11945.46
439.192	11460.09
439.399	11562.49
439.606	11345.41
439.813	12213.74
440.02	12697.06
440.227	12510.7
440.433	12344.81
440.64	13016.55
440.847	12873.19
441.054	13030.88
441.261	13954.52
441.467	13866.46
441.674	14009.81
441.881	14607.82
442.088	14415.31
442.294	14398.93
442.501	14650.83
442.708	15115.72
442.914	15625.66
443.121	16315.83
443.328	15666.62
443.534	16795.05
443.741	16360.88
443.948	16487.86
444.154	17497.5
444.361	17391.01
444.568	17534.37
444.774	17331.62
444.981	17763.74
445.187	18408.85
445.394	19342.72
445.6	19209.61
445.807	20686.19
446.013	19905.91
446.22	20149.62
446.426	20747.63
446.633	21155.18
446.839	21630.3
447.046	20751.73
447.252	22033.75
447.459	22410.58
447.665	22185.3
447.871	22859.09
448.078	24044.86
448.284	23072.07
448.491	23639.36
448.697	24833.33
448.903	25066.8
449.11	24868.14
449.316	24743.22
449.522	25077.04
449.728	25570.6
449.935	25754.91
450.141	25765.15
450.347	26537.24
450.553	25533.73
450.76	25922.85
450.966	26938.64
451.172	26572.05
451.378	27249.93
451.584	26942.74
451.791	27249.93
451.997	27458.82
452.203	27499.78
452.409	27589.89
452.615	27426.06
452.821	26739.99
453.027	26176.8
453.233	27784.45
453.44	26690.84
453.646	27112.72
453.852	27075.85
454.058	27559.17
454.264	26602.77
454.47	27292.94
454.676	26461.46
454.882	27573.51
455.088	25183.53
455.294	25347.37
455.5	26084.64
455.705	26285.34
455.911	24958.25
456.117	24425.78
456.323	24216.89
456.529	23147.85
456.735	23983.42
456.941	23321.93
457.147	22838.61
457.352	22230.36
457.558	22050.14
457.764	22377.81
457.97	21812.57
458.176	21015.91
458.381	21087.59
458.587	20043.13
458.793	20204.92
458.999	18914.7
459.204	20639.09
459.41	19965.31
459.616	18443.67
459.821	18470.29
460.027	18359.7
460.233	18177.43
460.438	17438.11
460.644	17563.04
460.85	16790.95
461.055	16197.04
461.261	16459.18
461.466	15164.87
461.672	14540.24
461.878	15867.32
462.083	14650.83
462.289	14413.26
462.494	14325.2
462.7	13495.77
462.905	13059.56
463.111	13663.71
463.316	13856.22
463.522	13424.09
463.727	13483.48
463.932	13528.54
464.138	13110.75
464.343	13409.76
464.549	12975.59
464.754	13338.08
464.959	13014.5
465.165	12994.02
465.37	12492.27
465.575	12303.85
465.781	12582.38
465.986	12905.96
466.191	12215.79
466.397	12013.04
466.602	11509.24
466.807	12002.8
467.012	11881.97
467.218	12146.16
467.423	11736.57
467.628	11779.57
467.833	12248.56
468.038	11855.35
468.244	11458.04
468.449	12109.3
468.654	11632.12
468.859	11494.91
469.064	11499
469.269	11030.02
469.474	11134.46
469.679	11386.36
469.885	10851.85
470.09	11091.46
470.295	11148.8
470.5	10839.56
470.705	10700.3
470.91	10606.09
471.115	10466.83
471.32	10620.42
471.525	10606.09
471.73	10417.68
471.935	10540.55
472.139	9983.51
472.344	10108.43
472.549	9983.51
472.754	9737.75
472.959	9664.02
473.164	9571.86
473.369	9405.98
473.574	9887.25
473.778	9651.74
473.983	9537.05
474.188	9399.84
474.393	9180.7
474.598	9176.61
474.802	9043.49
475.007	9063.97
475.212	8988.19
475.417	8533.54
475.621	8773.16
475.826	8629.8
476.031	8625.7
476.235	8359.47
476.44	8519.21
476.645	8218.16
476.849	8443.43
477.054	8265.26
477.259	8044.08
477.463	8074.8
477.668	7988.78
477.872	8093.23
478.077	7820.85
478.282	7589.43
478.486	7589.43
478.691	7652.92
478.895	7421.5
479.1	7431.74
479.304	7503.42
479.509	7382.59
479.713	7413.31
479.918	7321.15
480.122	7188.03
480.326	7360.06
480.531	7290.43
480.735	7353.91
480.94	7079.49
481.144	7450.17
481.348	6925.89
481.553	6989.38
481.757	6766.15
481.961	7022.14
482.166	7157.31
482.37	7079.49
482.574	6827.59
482.778	7128.64
482.983	7126.59
483.187	6954.56
483.391	7024.19
483.595	7128.64
483.8	6682.18
484.004	7081.53
484.208	7036.48
484.412	7018.05
484.616	7036.48
484.821	7085.63
485.025	6942.27
485.229	7083.58
485.433	6962.75
485.637	6956.61
485.841	7011.9
486.045	7020.1
486.249	7120.45
486.453	6798.91
486.657	6999.62
486.861	7134.78
487.065	6876.74
487.269	7016
487.473	6809.15
487.677	7147.07
487.881	7106.11
488.085	7059.01
488.289	6989.38
488.493	6915.65
488.697	7208.51
488.901	6938.18
489.105	7040.58
489.309	7054.91
489.512	7018.05
489.716	6938.18
489.92	7198.27
490.124	7099.97
490.328	7300.67
490.531	7159.36
490.735	7300.67
490.939	7171.65
491.143	7020.1
491.346	7198.27
491.55	7288.38
491.754	7374.39
491.958	7341.63
492.161	7325.24
492.365	7202.36
492.569	7298.62
492.772	7413.31
492.976	7470.65
493.18	7403.07
493.383	7423.55
493.587	7700.02
493.79	7667.25
493.994	7765.56
494.197	7736.88
494.401	7720.5
494.605	7720.5
494.808	7923.25
495.012	8007.22
495.215	7900.72
495.419	8068.66
495.622	7925.3
495.825	8205.87
496.029	8394.28
496.232	8474.15
496.436	8279.6
496.639	8545.83
496.843	8381.99
497.046	8615.46
497.249	8906.27
497.453	8807.97
497.656	8793.64
497.859	8787.49
498.063	8982.05
498.266	9322.01
498.469	9109.02
498.673	9172.51
498.876	9539.1
499.079	9301.53
499.282	9664.02
499.485	9760.28
499.689	9776.66
499.892	9940.5
500.095	9846.29
500.298	10003.99
500.501	10006.03
500.705	10266.13
500.908	10468.87
501.111	10649.1
501.314	10647.05
501.517	11013.63
501.72	11007.49
501.923	10827.27
502.126	11056.64
502.329	11337.21
502.532	11341.31
502.735	11425.28
502.938	11812.34
503.141	11777.53
503.344	11851.25
503.547	11980.28
503.75	12168.69
503.953	12379.63
504.156	12498.41
504.359	12543.47
504.562	12678.63
504.765	12891.62
504.968	12951.01
505.17	13104.61
505.373	13039.08
505.576	13467.1
505.779	13610.46
505.982	13753.82
506.185	14124.5
506.387	14013.91
506.59	14220.75
506.793	14374.35
506.996	14411.21
507.198	14998.98
507.401	14878.15
507.604	14937.54
507.807	15273.41
508.009	15322.56
508.212	15453.63
508.415	15742.39
508.617	15867.32
508.82	15967.67
509.022	15898.04
509.225	16588.21
509.428	16369.07
509.63	16608.69
509.833	16584.11
510.035	17198.5
510.238	17110.44
510.44	17388.96
510.643	17581.47
510.845	17880.47
511.048	17771.93
511.25	17907.1
511.453	17968.54
511.655	18621.84
511.858	18816.4
512.06	18744.72
512.262	19074.44
512.465	19049.86
512.667	19422.59
512.87	19428.74
513.072	19594.62
513.274	20319.6
513.477	20233.59
513.679	20616.56
513.881	20741.49
514.084	21052.78
514.286	20890.99
514.488	20995.43
514.69	21765.47
514.893	21673.31
515.095	21663.07
515.297	22087
515.499	22517.08
515.701	22814.03
515.904	22771.02
516.106	22994.25
516.308	23383.37
516.51	23829.82
516.712	23807.3
516.914	24220.99
517.116	24386.87
517.318	24442.17
517.52	24550.71
517.722	24726.83
517.925	25449.77
518.127	25328.94
518.329	25922.85
518.531	25834.78
518.733	26035.49
518.935	25988.38
519.136	26230.04
519.338	26633.49
519.54	27026.7
519.742	27561.22
519.944	27366.67
520.146	28083.45
520.348	28101.89
520.55	28048.64
520.752	28742.9
520.954	29025.52
521.155	28656.89
521.357	29463.79
521.559	29433.07
521.761	29797.6
521.963	29789.41
522.164	30160.09
522.366	30643.42
522.568	30604.5
522.77	30815.44
522.971	31382.73
523.173	31239.37
523.375	31392.97
523.576	31552.71
523.778	31663.3
523.98	32048.32
524.181	32042.18
524.383	32351.42
524.584	32894.13
524.786	33191.09
524.988	32898.23
525.189	33129.65
525.391	33559.72
525.592	33799.33
525.794	34094.24
525.995	34176.16
526.197	34153.63
526.398	34098.34
526.6	34718.87
526.801	34917.53
527.003	34671.77
527.204	34811.03
527.406	35460.24
527.607	35257.49
527.808	35607.69
528.01	35155.09
528.211	35087.51
528.412	35929.22
528.614	36013.19
528.815	36039.81
529.016	36400.26
529.218	36074.63
529.419	36484.22
529.62	36426.88
529.822	36394.11
530.023	36641.92
530.224	36682.87
530.425	37149.81
530.626	36469.89
530.828	36164.74
531.029	37178.48
531.23	36922.49
531.431	36809.85
531.632	37115
531.833	37137.52
532.035	37115
532.236	37381.23
532.437	37647.47
532.638	37291.12
532.839	37696.62
533.04	37745.77
533.241	37403.76
533.442	38087.78
533.643	37426.29
533.844	37678.19
534.045	37913.7
534.246	37547.12
534.447	38184.04
534.648	37377.14
534.849	38095.97
535.05	37680.24
535.251	37966.95
535.451	37807.21
535.652	37901.42
535.853	38157.41
536.054	38059.11
536.255	38415.46
536.456	37614.7
536.657	38366.31
536.857	38044.77
537.058	38007.91
537.259	38337.63
537.46	38401.12
537.66	38071.4
537.861	38280.29
538.062	38163.56
538.263	38339.68
538.463	37936.23
538.664	38278.24
538.865	38194.28
539.065	38095.97
539.266	37618.8
539.466	38382.69
539.667	37889.13
539.868	38206.56
540.068	38071.4
540.269	37958.76
540.469	38200.42
540.67	37786.73
540.87	38290.53
541.071	37964.9
541.271	38110.31
541.472	38204.52
541.672	37889.13
541.873	37682.28
542.073	37909.61
542.274	38517.85
542.474	37608.56
542.675	37905.51
542.875	38294.63
543.075	37661.8
543.276	37831.79
543.476	38120.55
543.676	37772.39
543.877	38138.98
544.077	38253.67
544.277	38032.49
544.478	37706.86
544.678	38548.57
544.878	38229.09
545.078	38050.92
545.279	38069.35
545.479	37831.79
545.679	38040.68
545.879	37944.42
546.079	37784.68
546.28	37954.66
546.48	37737.58
546.68	38263.91
546.88	37864.55
547.08	38098.02
547.28	37962.86
547.48	37510.25
547.68	37913.7
547.88	37479.53
548.081	38044.77
548.281	37872.74
548.481	37731.43
548.681	37930.09
548.881	38106.21
549.081	37782.63
549.28	37493.87
549.48	37989.48
549.68	37717.1
549.88	38069.35
550.08	37586.03
550.28	37979.24
550.48	37858.41
550.68	38104.17
550.88	37530.73
551.08	37639.28
551.279	37729.39
551.479	37764.2
551.679	37545.07
551.879	37536.88
552.079	37555.31
552.278	37600.36
552.478	37426.29
552.678	37598.32
552.878	37977.19
553.077	37524.59
553.277	37370.99
553.477	37846.12
553.676	37424.24
553.876	37434.48
554.076	37502.06
554.275	37657.71
554.475	37090.42
554.674	37190.77
554.874	37338.22
555.074	37088.37
555.273	37264.5
555.473	37321.84
555.672	36861.05
555.872	37405.81
556.071	37577.84
556.271	37340.27
556.47	37178.48
556.67	36953.21
556.869	36861.05
557.068	36529.28
557.268	36582.52
557.467	36682.87
557.667	36836.47
557.866	36955.25
558.065	36336.77
558.265	36279.43
558.464	36250.75
558.663	36623.48
558.863	36162.69
559.062	36865.14
559.261	36154.5
559.461	36195.46
559.66	35751.05
559.859	36189.31
560.058	36172.93
560.258	35918.98
560.457	35650.7
560.656	35892.36
560.855	35906.69
561.054	35929.22
561.253	35280.02
561.453	35556.49
561.652	35681.42
561.851	35554.44
562.05	35114.13
562.249	34901.14
562.448	35341.46
562.647	35026.07
562.846	35357.84
563.045	35273.87
563.244	34528.41
563.443	34989.2
563.642	34456.73
563.841	34942.1
564.04	34573.47
564.239	35095.7
564.438	34526.36
564.637	34561.18
564.836	34882.71
565.035	34006.18
565.234	34413.73
565.432	34256.03
565.631	33907.88
565.83	34325.66
566.029	33813.67
566.228	33803.43
566.427	33793.19
566.625	33451.18
566.824	32937.14
567.023	33707.18
567.222	32734.39
567.42	33340.59
567.619	33459.37
567.818	32914.61
568.016	33137.84
568.215	33373.36
568.414	32773.3
568.612	32896.18
568.811	32578.75
569.01	32748.73
569.208	32113.86
569.407	32793.78
569.605	32257.21
569.804	32140.48
570.002	32134.34
570.201	31997.12
570.4	31984.83
570.598	31413.45
570.797	31339.72
570.995	31595.72
571.193	31177.93
571.392	31829.19
571.59	30751.96
571.789	30852.31
571.987	31020.24
572.186	30862.55
572.384	30622.94
572.582	31114.45
572.781	30936.27
572.979	30495.96
573.177	30553.3
573.376	30481.63
573.574	30110.94
573.772	30364.89
573.971	29947.11
574.169	30127.33
574.367	29547.75
574.565	29762.79
574.763	29568.23
574.962	30084.32
575.16	29525.22
575.358	29744.36
575.556	29265.13
575.754	29514.98
575.952	28822.77
576.151	29316.33
576.349	28933.36
576.547	29027.57
576.745	28953.84
576.943	28916.98
577.141	28794.1
577.339	28685.56
577.537	28742.9
577.735	28370.17
577.933	28097.79
578.131	28390.65
578.329	28493.05
578.527	28245.24
578.725	28067.07
578.923	28120.32
579.121	27931.9
579.319	27870.47
579.516	27876.61
579.714	28056.83
579.912	27489.54
580.11	27344.14
580.308	27440.39
580.506	27389.19
580.704	27073.81
580.901	27288.84
581.099	27616.52
581.297	26883.34
581.495	26948.88
581.692	27125
581.89	26815.76
582.088	27258.12
582.285	26516.76
582.483	26940.69
582.681	26580.25
582.878	26598.68
583.076	26314.01
583.274	26551.57
583.471	25847.07
583.669	26088.73
583.866	25959.71
584.064	25828.64
584.262	25584.93
584.459	25978.14
584.657	25541.92
584.854	25910.56
585.052	25255.21
585.249	25666.85
585.447	25554.21
585.644	25204.01
585.841	25220.39
586.039	25169.19
586.236	25244.97
586.434	25126.19
586.631	24892.72
586.828	24710.45
587.026	24778.03
587.223	24739.12
587.42	24476.98
587.618	24782.13
587.815	24177.98
588.012	24282.42
588.21	24177.98
588.407	24714.55
588.604	24214.84
588.801	23940.41
588.999	24075.58
589.196	24286.52
589.393	23907.65
589.59	23776.58
589.787	23688.51
589.984	23711.04
590.182	23405.89
590.379	23696.71
590.576	23141.71
590.773	23661.89
590.97	23172.43
591.167	23137.61
591.364	23072.07
591.561	23012.68
591.758	22754.64
591.955	23086.41
592.152	23027.02
592.349	22707.54
592.546	22914.38
592.743	22555.99
592.94	22408.53
593.137	22678.86
593.334	22451.54
593.531	22431.06
593.727	22422.87
593.924	22295.89
594.121	22050.14
594.318	22031.71
594.515	21902.68
594.712	22003.03
594.908	21724.51
595.105	22197.59
595.302	21880.16
595.499	22039.9
595.696	21761.37
595.892	21622.11
596.089	21724.51
596.286	21552.48
596.482	21669.22
596.679	21579.11
596.876	21427.56
597.072	21339.49
597.269	21570.91
597.466	21112.17
597.662	20940.14
597.859	21204.33
598.055	21138.79
598.252	20788.59
598.448	20864.36
598.645	20653.42
598.841	20575.6
599.038	20757.87
599.234	20716.91
599.431	20432.24
599.627	20462.96
599.824	20710.77
600.02	20354.42
600.217	20725.1
600.413	20077.94
600.609	20297.08
600.806	20272.5
601.002	20049.27
601.198	20039.03
601.395	19742.08
601.591	19975.55
601.787	19658.11
601.984	19719.55
602.18	19748.22
602.376	19600.77
602.572	19690.88
602.769	19639.68
602.965	19381.63
603.161	19338.63
603.357	19670.4
603.553	19105.16
603.75	19322.24
603.946	19352.96
604.142	18824.59
604.338	18914.7
604.534	19148.17
604.73	18761.1
604.926	18675.09
605.122	19271.04
605.318	18576.78
605.514	18722.19
605.71	18691.47
605.906	18527.63
606.102	18355.6
606.298	18449.81
606.494	18298.26
606.69	18453.91
606.886	18242.96
607.082	17837.47
607.278	18210.2
607.474	17909.15
607.67	18142.61
607.866	17724.83
608.062	18236.82
608.257	18029.98
608.453	18111.89
608.649	17849.75
608.845	17665.44
609.041	17864.09
609.236	17757.6
609.432	17503.65
609.628	17788.32
609.824	17403.3
610.019	17423.78
610.215	17577.37
610.411	17438.11
610.606	17601.95
610.802	17636.77
610.998	17413.54
611.193	17159.59
611.389	17145.25
611.584	17259.94
611.78	17071.53
611.976	17008.04
612.171	17239.46
612.367	17157.54
612.562	16940.46
612.758	16616.88
612.953	16713.13
613.149	17036.71
613.344	16651.69
613.539	16913.83
613.735	16754.09
613.93	16766.38
614.126	16793
614.321	16674.22
614.517	16530.86
614.712	16575.92
614.907	16674.22
615.103	16424.37
615.298	16455.09
615.493	16676.27
615.688	16172.47
615.884	16663.98
616.079	16135.6
616.274	16612.78
616.47	16319.92
616.665	16391.6
616.86	16121.27
617.055	15979.96
617.25	16229.81
617.445	16113.08
617.641	15785.4
617.836	16002.49
618.031	15455.68
618.226	16192.95
618.421	15775.16
618.616	16094.65
618.811	15650.24
619.006	15670.72
619.201	15609.28
619.396	15580.6
619.591	15424.96
619.786	15662.52
619.981	15220.16
620.176	15549.89
620.371	15193.54
620.566	15158.72
620.761	15109.57
620.956	15130.05
621.151	15060.42
621.346	14890.44
621.541	14753.23
621.735	14974.41
621.93	14755.27
622.125	14861.77
622.32	14540.24
622.515	14386.64
622.709	14437.84
622.904	14491.09
623.099	14202.32
623.294	14450.13
623.488	13946.33
623.683	14190.03
623.878	13862.36
624.072	14321.1
624.267	13813.21
624.462	13800.92
624.656	13448.67
624.851	13530.59
625.046	13610.46
625.24	13491.68
625.435	13252.06
625.629	13467.1
625.824	13268.45
626.018	13299.17
626.213	13106.66
626.407	12963.3
626.602	12705.26
626.796	12895.72
626.991	12643.82
627.185	12815.85
627.38	12742.12
627.574	12541.42
627.768	12418.54
627.963	12584.43
628.157	12576.23
628.352	12369.39
628.546	12076.53
628.74	12242.42
628.935	12183.02
629.129	12283.38
629.323	11873.78
629.517	11976.18
629.712	11851.25
629.906	11759.1
630.1	11769.34
630.294	11875.83
630.489	11625.98
630.683	11630.07
630.877	11531.77
631.071	11433.47
631.265	11253.25
631.459	11402.75
631.653	11232.77
631.848	11238.91
632.042	11015.68
632.236	11085.31
632.43	10982.92
632.624	11064.83
632.818	10941.96
633.012	10731.01
633.206	10626.57
633.4	10669.58
633.594	10618.38
633.788	10685.96
633.982	10520.07
634.176	10671.62
634.369	10503.69
634.563	10493.45
634.757	10327.57
634.951	10180.11
635.145	10378.76
635.339	10173.97
635.533	10141.2
635.726	10034.71
635.92	9977.36
636.114	9971.22
636.308	9991.7
636.501	9960.98
636.695	9852.44
636.889	9731.61
637.083	9633.3
637.276	9580.06
637.47	9655.83
637.664	9606.68
637.857	9553.43
638.051	9352.73
638.244	9500.19
638.438	9303.58
638.632	9309.72
638.825	9070.11
639.019	9244.19
639.212	9285.15
639.406	9281.05
639.599	9070.11
639.793	9004.58
639.986	8859.17
640.18	8980
640.373	8767.01
640.567	8865.32
640.76	8681
640.954	8826.4
641.147	8830.5
641.34	8566.31
641.534	8760.87
641.727	8533.54
641.92	8459.82
642.114	8476.2
642.307	8341.04
642.5	8177.2
642.694	8248.88
642.887	8314.41
643.08	8177.2
643.273	8033.84
643.467	8027.7
643.66	8109.61
643.853	8009.26
644.046	8027.7
644.239	7769.65
644.432	8003.12
644.626	7640.63
644.819	7970.35
645.012	7790.13
645.205	7648.82
645.398	7630.39
645.591	7603.77
645.784	7663.16
645.977	7388.73
646.17	7538.23
646.363	7462.46
646.556	7583.29
646.749	7392.83
646.942	7474.74
647.135	7333.43
647.328	7312.96
647.521	7247.42
647.714	7339.58
647.907	7212.6
648.099	7208.51
648.292	7267.9
648.485	6997.57
648.678	6993.47
648.871	7050.82
649.064	7024.19
649.256	7104.06
649.449	6905.41
649.642	6762.05
649.835	6815.3
650.027	6696.52
650.22	6792.77
650.413	6747.72
650.605	6817.35
650.798	6491.72
650.991	6551.11
651.183	6444.62
651.376	6374.99
651.568	6489.67
651.761	6422.09
651.954	6223.44
652.146	6284.87
652.339	6491.72
652.531	6245.96
652.724	6268.49
652.916	6239.82
653.109	6157.9
653.301	6211.15
653.494	6256.2
653.686	5951.06
653.879	6088.27
654.071	5977.68
654.263	5996.11
654.456	6059.6
654.648	6053.45
654.84	5949.01
655.033	5949.01
655.225	5873.23
655.417	5836.37
655.61	5942.86
655.802	5893.71
655.994	5762.64
656.186	5738.07
656.379	5484.12
656.571	5729.88
656.763	5539.41
656.955	5410.39
657.148	5600.85
657.34	5559.89
657.532	5383.77
657.724	5559.89
657.916	5408.34
658.108	5662.29
658.3	5357.14
658.492	5332.57
658.684	5271.13
658.876	5344.86
659.068	5207.64
659.26	5426.78
659.452	5269.08
659.644	5199.45
659.836	5168.73
660.028	5221.98
660.22	5019.23
660.412	5013.09
660.604	5232.22
660.796	5080.67
660.988	4963.93
661.18	5070.43
661.372	4953.7
661.563	5029.47
661.755	4828.77
661.947	4984.41
662.139	4873.82
662.331	4720.23
662.522	4912.74
662.714	4796
662.906	4773.47
663.097	4816.48
663.289	4691.56
663.481	4615.78
663.673	4576.87
663.864	4626.02
664.056	4619.88
664.247	4560.49
664.439	4492.9
664.631	4646.5
664.822	4648.55
665.014	4601.44
665.205	4550.25
665.397	4435.56
665.588	4402.79
665.78	4376.17
665.971	4472.42
666.163	4492.9
666.354	4540.01
666.546	4421.22
666.737	4410.98
666.929	4296.3
667.12	4230.76
667.311	4355.69
667.503	4296.3
667.694	4318.82
667.885	4322.92
668.077	4273.77
668.268	4175.47
668.459	4218.47
668.651	4073.07
668.842	4218.47
669.033	4189.8
669.224	4103.79
669.416	4228.71
669.607	4159.08
669.798	4056.68
669.989	4114.03
670.18	4165.23
670.371	4150.89
670.563	4202.09
670.754	3997.29
670.945	4060.78
671.136	3995.25
671.327	4003.44
671.518	3976.81
671.709	4087.4
671.9	3956.33
672.091	4077.16
672.282	4032.11
672.473	3942
672.664	3823.22
672.855	3884.66
673.046	4021.87
673.237	3898.99
673.428	3923.57
673.619	3815.02
673.809	3726.96
674	3884.66
674.191	3751.54
674.382	3792.5
674.573	3921.52
674.764	3925.61
674.954	3917.42
675.145	3692.15
675.336	3880.56
675.527	3739.25
675.717	3575.41
675.908	3812.98
676.099	3903.09
676.289	3849.84
676.48	3714.67
676.671	3827.31
676.861	3876.46
677.052	3724.91
677.243	3821.17
677.433	3827.31
677.624	3722.87
677.814	3800.69
678.005	3745.39
678.195	3788.4
678.386	3753.59
678.576	3606.13
678.767	3780.21
678.957	3708.53
679.148	3677.81
679.338	3739.25
679.529	3769.97
679.719	3702.39
679.909	3739.25
680.1	3808.88
680.29	3696.24
680.481	3829.36
680.671	3896.94
680.861	3647.09
681.052	3780.21
681.242	3772.02
681.432	3710.58
681.622	3724.91
681.813	3737.2
682.003	3733.11
682.193	3679.86
682.383	3769.97
682.573	3870.32
682.764	3741.3
682.954	3782.26
683.144	3593.84
683.334	3708.53
683.524	3763.83
683.714	3710.58
683.904	3745.39
684.094	3763.83
684.284	3602.04
684.474	3679.86
684.664	3726.96
684.854	3698.29
685.044	3616.37
685.234	3491.45
685.424	3618.42
685.614	3597.94
685.804	3524.21
685.994	3575.41
686.184	3645.04
686.374	3608.18
686.564	3532.4
686.753	3561.08
686.943	3577.46
687.133	3503.73
687.323	3528.31
687.513	3391.09
687.702	3462.77
687.892	3384.95
688.082	3483.25
688.272	3487.35
688.461	3516.02
688.651	3440.25
688.841	3417.72
689.03	3378.81
689.22	3251.83
689.41	3260.02
689.599	3307.13
689.789	3382.9
689.979	3387
690.168	3239.55
690.358	3251.83
690.547	3251.83
690.737	3298.94
690.926	3303.03
691.116	3135.1
691.305	3282.55
691.495	3108.48
691.684	3180.15
691.874	3204.73
692.063	3298.94
692.252	3276.41
692.442	3077.76
692.631	3122.81
692.82	3126.91
693.01	3081.85
693.199	3094.14
693.388	2981.5
693.578	3067.52
693.767	3010.17
693.956	3116.67
694.146	2977.41
694.335	2944.64
694.524	2883.2
694.713	2977.41
694.902	2905.73
695.092	3047.04
695.281	2856.58
695.47	2903.68
695.659	2969.21
695.848	2827.9
696.037	2961.02
696.226	2952.83
696.415	2811.52
696.604	2909.82
696.793	2895.49
696.982	2817.66
697.171	2881.15
697.36	2930.3
697.549	2952.83
697.738	2881.15
697.927	2834.05
698.116	2913.92
698.305	2829.95
698.494	2776.7
698.683	2815.62
698.872	2815.62
699.061	2899.58
699.25	2819.71
699.438	2875.01
699.627	2961.02
699.816	2913.92
700.005	2803.33
700.193	2864.77
700.382	2750.08
700.571	2897.53
700.76	2948.73
700.948	2864.77
701.137	3026.56
701.326	2897.53
701.514	2928.25
701.703	2858.62
701.892	2811.52
702.08	2973.31
702.269	3006.08
702.457	2758.27
702.646	2840.19
702.834	2741.89
703.023	2776.7
703.212	2883.2
703.4	2774.66
703.589	2784.9
703.777	2836.1
703.965	2801.28
704.154	2944.64
704.342	2770.56
704.531	2975.36
704.719	2731.65
704.907	2797.18
705.096	2778.75
705.284	2872.96
705.472	2854.53
705.661	2864.77
705.849	2872.96
706.037	2963.07
706.226	2774.66
706.414	2815.62
706.602	2858.62
706.79	2778.75
706.979	2895.49
707.167	2827.9
707.355	2852.48
707.543	2920.06
707.731	2928.25
707.919	2879.1
708.107	2875.01
708.296	3022.46
708.484	2786.94
708.672	2770.56
708.86	2895.49
709.048	2872.96
709.236	2995.84
709.424	2997.88
709.612	2936.45
709.8	2881.15
709.988	2868.86
710.176	2815.62
710.364	3020.41
710.551	2836.1
710.739	2928.25
710.927	2897.53
711.115	3018.36
711.303	2999.93
711.491	2891.39
711.679	2834.05
711.866	2971.26
712.054	3032.7
712.242	2997.88
712.43	2967.17
712.617	2885.25
712.805	2963.07
712.993	2963.07
713.181	2807.42
713.368	3008.12
713.556	3014.27
713.744	3018.36
713.931	3010.17
714.119	2934.4
714.306	2825.86
714.494	3032.7
714.682	3006.08
714.869	2920.06
715.057	3102.33
715.244	2887.29
715.432	3079.8
715.619	3069.56
715.807	2989.69
715.994	3047.04
716.182	3092.09
716.369	3102.33
716.556	3110.52
716.744	2940.54
716.931	3106.43
717.119	3069.56
717.306	3137.15
717.493	3077.76
717.681	3137.15
717.868	3102.33
718.055	3008.12
718.242	3042.94
718.43	3188.35
718.617	3055.23
718.804	3083.9
718.991	3112.57
719.179	3206.78
719.366	3106.43
719.553	3114.62
719.74	3004.03
719.927	3272.31
720.114	3110.52
720.301	3067.52
720.488	3061.37
720.676	3190.39
720.863	3108.48
721.05	3178.11
721.237	3116.67
721.424	3247.74
721.611	3204.73
721.798	3206.78
721.985	3143.29
722.172	3184.25
722.358	3204.73
722.545	3178.11
722.732	3020.41
722.919	3284.6
723.106	3190.39
723.293	3186.3
723.48	3040.89
723.667	3147.39
723.853	3169.91
724.04	3333.75
724.227	3309.18
724.414	3155.58
724.6	3194.49
724.787	3253.88
724.974	3237.5
725.161	3274.36
725.347	3122.81
725.534	3245.69
725.72	3194.49
725.907	3284.6
726.094	3257.98
726.28	3268.22
726.467	3198.59
726.653	3133.05
726.84	3286.65
727.027	3364.47
727.213	3069.56
727.4	3380.86
727.586	3307.13
727.773	3251.83
727.959	3159.67
728.145	3462.77
728.332	3245.69
728.518	3321.46
728.705	3309.18
728.891	3370.62
729.077	3317.37
729.264	3307.13
729.45	3212.92
729.636	3364.47
729.823	3440.25
730.009	3483.25
730.195	3253.88
730.382	3419.77
730.568	3329.66
730.754	3387
730.94	3411.57
731.126	3452.53
731.313	3559.03
731.499	3343.99
731.685	3333.75
731.871	3477.11
732.057	3436.15
732.243	3397.24
732.429	3227.26
732.615	3499.64
732.801	3387
732.987	3292.79
733.173	3403.38
733.359	3317.37
733.545	3346.04
733.731	3419.77
733.917	3458.68
734.103	3249.79
734.289	3384.95
734.475	3391.09
734.661	3491.45
734.847	3337.85
735.033	3528.31
735.219	3440.25
735.404	3487.35
735.59	3364.47
735.776	3389.05
735.962	3464.82
736.148	3481.21
736.333	3434.1
736.519	3364.47
736.705	3405.43
736.89	3237.5
737.076	3368.57
737.262	3292.79
737.447	3448.44
737.633	3473.01
737.819	3268.22
738.004	3294.84
738.19	3389.05
738.375	3362.42
738.561	3464.82
738.747	3425.91
738.932	3440.25
739.118	3425.91
739.303	3438.2
739.489	3409.53
739.674	3321.46
739.859	3430.01
740.045	3319.42
740.23	3389.05
740.416	3286.65
740.601	3241.59
740.786	3247.74
740.972	3270.26
741.157	3380.86
741.342	3233.4
741.528	3221.11
741.713	3280.5
741.898	3092.09
742.084	3225.21
742.269	3155.58
742.454	3290.74
742.639	3292.79
742.824	3333.75
743.01	3243.64
743.195	3391.09
743.38	3210.87
743.565	3286.65
743.75	3227.26
743.935	3225.21
744.12	3292.79
744.305	3249.79
744.49	2983.55
744.675	3143.29
744.86	2870.91
745.045	3059.32
745.23	3110.52
745.415	3149.43
745.6	3014.27
745.785	3026.56
745.97	3118.72
746.155	3098.24
746.34	2965.12
746.525	2989.69
746.71	3067.52
746.895	2975.36
747.079	2993.79
747.264	2913.92
747.449	3026.56
747.634	2915.97
747.819	2971.26
748.003	2801.28
748.188	2817.66
748.373	2875.01
748.557	2809.47
748.742	2936.45
748.927	2844.29
749.111	2811.52
749.296	2711.17
749.481	2758.27
749.665	2635.39
749.85	2727.55
750.034	2709.12
750.219	2664.07
750.404	2684.55
750.588	2727.55
750.773	2543.24
750.957	2549.38
751.141	2735.74
751.326	2573.96
751.51	2549.38
751.695	2496.13
751.879	2614.91
752.064	2496.13
752.248	2565.76
752.432	2479.75
752.617	2406.02
752.801	2395.78
752.985	2377.35
753.17	2389.64
753.354	2438.79
753.538	2514.56
753.722	2338.44
753.907	2389.64
754.091	2332.3
754.275	2211.46
754.459	2416.26
754.643	2332.3
754.828	2315.91
755.012	2236.04
755.196	2283.14
755.38	2277
755.564	2250.38
755.748	2131.59
755.932	2174.6
756.116	2162.31
756.3	2254.47
756.484	2178.7
756.668	2209.42
756.852	2203.27
757.036	2074.25
757.22	2068.11
757.404	2035.34
757.588	2076.3
757.772	2104.97
757.956	2111.11
758.14	2010.76
758.323	2010.76
758.507	2051.72
758.691	2006.67
758.875	2012.81
759.059	2002.57
759.242	1967.76
759.426	1883.79
759.61	1951.37
759.794	1818.25
759.977	1830.54
760.161	2059.92
760.345	2002.57
760.528	2002.57
760.712	1840.78
760.895	1842.83
761.079	1787.54
761.263	1771.15
761.446	1781.39
761.63	1785.49
761.813	1969.8
761.997	1707.66
762.18	1818.25
762.364	1752.72
762.547	1678.99
762.731	1715.86
762.914	1769.1
763.098	1719.95
763.281	1695.38
763.464	1697.42
763.648	1683.09
763.831	1695.38
764.015	1670.8
764.198	1611.41
764.381	1656.47
764.564	1728.14
764.748	1687.18
764.931	1652.37
765.114	1666.71
765.297	1562.26
765.481	1674.9
765.664	1570.45
765.847	1695.38
766.03	1713.81
766.213	1472.15
766.397	1629.84
766.58	1543.83
766.763	1605.27
766.946	1554.07
767.129	1506.96
767.312	1543.83
767.495	1566.35
767.678	1363.61
767.861	1488.53
768.044	1613.46
768.227	1529.49
768.41	1441.43
768.593	1500.82
768.776	1482.39
768.959	1539.73
769.142	1519.25
769.324	1459.86
769.507	1466
769.69	1488.53
769.873	1435.28
770.056	1535.64
770.239	1435.28
770.421	1437.33
770.604	1474.2
770.787	1414.81
770.97	1392.28
771.152	1390.23
771.335	1357.46
771.518	1382.04
771.7	1420.95
771.883	1429.14
772.066	1334.93
772.248	1392.28
772.431	1390.23
772.613	1242.78
772.796	1248.92
772.978	1236.63
773.161	1363.61
773.343	1293.97
773.526	1298.07
773.708	1298.07
773.891	1181.34
774.073	1224.34
774.256	1138.33
774.438	1316.5
774.621	1205.91
774.803	1253.02
774.985	1220.25
775.168	1216.15
775.35	1121.95
775.532	1113.75
775.715	1177.24
775.897	1199.77
776.079	1160.86
776.261	1154.71
776.444	1132.19
776.626	1048.22
776.808	1078.94
776.99	1087.13
777.173	1128.09
777.355	1097.37
777.537	1117.85
777.719	1126.04
777.901	1009.31
778.083	1044.12
778.265	992.92
778.447	1060.51
778.629	1019.55
778.811	1021.6
778.993	994.97
779.175	1003.16
779.357	1042.07
779.539	902.81
779.721	947.87
779.903	1007.26
780.085	972.44
780.267	1013.4
780.449	1019.55
780.631	892.57
780.812	908.96
780.994	958.11
781.176	876.19
781.358	931.48
781.54	876.19
781.721	994.97
781.903	872.09
782.085	878.24
782.267	931.48
782.448	845.47
782.63	839.33
782.812	884.38
782.993	839.33
783.175	892.57
783.357	773.79
783.538	831.13
783.72	777.89
783.901	765.6
784.083	827.04
784.264	818.85
784.446	702.11
784.627	745.12
784.809	755.36
784.99	710.3
785.172	677.54
785.353	747.17
785.535	747.17
785.716	728.74
785.897	712.35
786.079	700.06
786.26	671.39
786.441	798.37
786.623	695.97
786.804	702.11
786.985	644.77
787.167	657.06
787.348	638.62
787.529	700.06
787.71	648.86
787.891	677.54
788.073	599.71
788.254	622.24
788.435	663.2
788.616	612
788.797	618.15
788.978	573.09
789.159	614.05
789.34	548.51
789.522	583.33
789.703	585.38
789.884	681.63
790.065	642.72
790.246	679.58
790.427	517.79
790.607	612
790.788	689.82
790.969	644.77
791.15	710.3
791.331	530.08
791.512	540.32
791.693	503.46
791.874	519.84
792.054	634.53
792.235	534.18
792.416	521.89
792.597	474.79
792.778	497.32
792.958	489.12
793.139	517.79
793.32	523.94
793.5	464.55
793.681	556.71
793.862	573.09
794.042	550.56
794.223	401.06
794.404	472.74
794.584	431.78
794.765	589.47
794.945	540.32
795.126	392.87
795.306	444.07
795.487	413.35
795.667	423.59
795.848	431.78
796.028	472.74
796.209	409.25
796.389	427.68
796.57	423.59
796.75	409.25
796.93	421.54
797.111	429.73
797.291	427.68
797.471	378.53
797.652	419.49
797.832	448.16
798.012	513.7
798.192	439.97
798.373	388.77
798.553	417.44
798.733	384.68
798.913	415.4
799.093	513.7
799.274	347.81
799.454	452.26
799.634	439.97
799.814	356.01
799.994	452.26
800.174	370.34
800.354	444.07
800.534	384.68
800.714	454.31
800.894	386.72
801.074	356.01
801.254	390.82
801.434	378.53
801.614	282.28
801.794	339.62
801.974	1062.55
802.154	306.85
802.334	425.64
802.514	255.65
802.693	331.43
802.873	362.15
803.053	382.63
803.233	327.33
803.413	386.72
803.592	353.96
803.772	302.76
803.952	366.25
804.131	292.52
804.311	308.9
804.491	368.29
804.67	368.29
804.85	267.94
805.03	272.04
805.209	345.77
805.389	272.04
805.568	302.76
805.748	325.29
805.928	378.53
806.107	313
806.287	401.06
806.466	306.85
806.646	272.04
806.825	319.14
807.004	304.81
807.184	323.24
807.363	296.61
807.543	247.46
807.722	317.09
807.901	353.96
808.081	263.85
808.26	243.37
808.439	229.03
808.619	222.89
808.798	339.62
808.977	282.28
809.156	241.32
809.336	261.8
809.515	286.37
809.694	243.37
809.873	263.85
810.052	249.51
810.231	331.43
810.411	298.66
810.59	245.41
810.769	269.99
810.948	272.04
811.127	216.74
811.306	235.18
811.485	224.94
811.664	382.63
811.843	269.99
812.022	171.69
812.201	265.89
812.38	257.7
812.559	188.07
812.737	331.43
812.916	145.06
813.095	165.54
813.274	274.09
813.453	272.04
813.632	245.41
813.811	245.41
813.989	210.6
814.168	255.65
814.347	130.73
814.526	212.65
814.704	296.61
814.883	263.85
815.062	206.5
815.24	294.57
815.419	233.13
815.598	224.94
815.776	167.59
815.955	255.65
816.133	128.68
816.312	169.64
816.49	126.63
816.669	241.32
816.847	229.03
817.026	212.65
817.204	206.5
817.383	183.98
817.561	151.21
817.74	233.13
817.918	229.03
818.097	235.18
818.275	138.92
818.453	159.4
818.632	235.18
818.81	186.02
818.988	220.84
819.167	183.98
819.345	224.94
819.523	186.02
819.701	159.4
819.879	173.74
820.058	249.51
820.236	204.46
820.414	122.54
820.592	147.11
820.77	147.11
820.948	120.49
821.127	124.58
821.305	173.74
821.483	120.49
821.661	196.26
821.839	196.26
822.017	188.07
822.195	140.97
822.373	206.5
822.551	145.06
822.729	220.84
822.907	173.74
823.085	190.12
823.262	206.5
823.44	65.19
823.618	147.11
823.796	130.73
823.974	202.41
824.152	104.11
824.329	108.2
824.507	194.22
824.685	126.63
824.863	138.92
825.04	122.54
825.218	163.5
825.396	153.26
825.574	97.96
825.751	140.97
825.929	157.35
826.107	175.78
826.284	165.54
826.462	153.26
826.639	134.82
826.817	163.5
826.994	210.6
827.172	91.82
827.349	214.7
827.527	128.68
827.704	167.59
827.882	159.4
828.059	114.34
828.237	138.92
828.414	161.45
828.591	3.75
828.769	147.11
828.946	104.11
829.124	91.82
829.301	157.35
829.478	169.64
829.655	120.49
829.833	108.2
830.01	124.58
830.187	132.78
830.364	85.67
830.542	112.3
830.719	143.02
830.896	85.67
831.073	140.97
831.25	173.74
831.427	177.83
831.604	140.97
831.782	112.3
831.959	106.15
832.136	48.81
832.313	153.26
832.49	-2.39
832.667	48.81
832.844	52.91
833.021	130.73
833.198	134.82
833.374	71.34
833.551	59.05
833.728	73.39
833.905	128.68
834.082	61.1
834.259	54.95
834.436	97.96
834.612	50.86
834.789	100.01
834.966	5.8
835.143	110.25
835.319	18.09
835.496	175.78
835.673	112.3
835.85	140.97
836.026	102.06
836.203	138.92
836.38	108.2
836.556	48.81
836.733	48.81
836.909	149.16
837.086	30.38
837.262	30.38
837.439	81.58
837.616	112.3
837.792	112.3
837.968	157.35
838.145	104.11
838.321	97.96
838.498	91.82
838.674	110.25
838.851	77.48
839.027	67.24
839.203	77.48
839.38	112.3
839.556	50.86
839.732	54.95
839.909	-4.44
840.085	108.2
840.261	46.76
840.437	100.01
840.614	26.28
840.79	102.06
840.966	77.48
841.142	112.3
841.318	46.76
841.494	89.77
841.671	30.38
841.847	61.1
842.023	59.05
842.199	106.15
842.375	30.38
842.551	-0.34
842.727	5.8
842.903	159.4
843.079	59.05
843.255	52.91
843.431	100.01
843.607	42.67
843.783	52.91
843.959	108.2
844.134	52.91
844.31	100.01
844.486	48.81
844.662	-22.87
844.838	-10.58
845.013	65.19
845.189	120.49
845.365	95.91
845.541	32.43
845.716	28.33
845.892	71.34
846.068	40.62
846.244	1.71
846.419	118.44
846.595	28.33
846.77	32.43
846.946	75.43
847.122	-4.44
847.297	44.71
847.473	63.15
847.648	30.38
847.824	97.96
847.999	63.15
848.175	95.91
848.35	75.43
848.526	61.1
848.701	34.47
848.876	63.15
849.052	91.82
849.227	5.8
849.403	44.71
849.578	11.95
849.753	11.95
849.929	16.04
850.104	79.53
850.279	59.05
850.454	73.39
850.63	140.97
850.805	34.47
850.98	91.82
851.155	20.14
851.33	44.71
851.505	-78.16
851.681	65.19
851.856	-4.44
852.031	79.53
852.206	1.71
852.381	-67.92
852.556	46.76
852.731	50.86
852.906	50.86
853.081	65.19
853.256	71.34
853.431	71.34
853.606	36.52
853.781	110.25
853.956	-10.58
854.131	3.75
854.305	73.39
854.48	44.71
854.655	9.9
854.83	3.75
855.005	77.48
855.18	20.14
855.354	67.24
855.529	57
855.704	34.47
855.879	-20.82
856.053	-35.16
856.228	-10.58
856.403	75.43
856.577	22.19
856.752	20.14
856.926	-14.68
857.101	-39.25
857.276	13.99
857.45	95.91
857.625	204.46
857.799	-35.16
857.974	54.95
858.148	3.75
858.323	-29.01
858.497	77.48
858.672	-45.4
858.846	-20.82
859.02	61.1
859.195	3.75
859.369	32.43
859.543	18.09
859.718	42.67
859.892	-2.39
860.066	7.85
860.241	48.81
860.415	54.95
860.589	44.71
860.763	11.95
860.938	54.95
861.112	16.04
861.286	89.77
861.46	42.67
861.634	20.14
861.808	93.87
861.982	-45.4
862.157	24.23
862.331	-10.58
862.505	-33.11
862.679	-65.88
862.853	22.19
863.027	52.91
863.201	89.77
863.375	-2.39
863.549	28.33
863.722	-8.53
863.896	79.53
864.07	26.28
864.244	38.57
864.418	-22.87
864.592	11.95
864.766	-12.63
864.939	-67.92
865.113	-16.73
865.287	13.99
865.461	73.39
865.634	44.71
865.808	16.04
865.982	54.95
866.156	13.99
866.329	11.95
866.503	-12.63
866.676	24.23
866.85	-94.55
867.024	-29.01
867.197	-31.06
867.371	87.72
867.544	81.58
867.718	-92.5
867.891	18.09
868.065	95.91
868.238	-20.82
868.412	100.01
868.585	20.14
868.759	11.95
868.932	-16.73
869.105	-20.82
869.279	1.71
869.452	9.9
869.625	-37.2
869.799	65.19
869.972	11.95
870.145	-43.35
870.319	42.67
870.492	40.62
870.665	18.09
870.838	9.9
871.011	-2.39
871.185	13.99
871.358	-12.63
871.531	46.76
871.704	-16.73
871.877	-4.44
872.05	-24.92
872.223	26.28
872.396	22.19
872.569	122.54
872.742	-59.73
872.915	13.99
873.088	13.99
873.261	-63.83
873.434	61.1
873.607	-59.73
873.78	-8.53
873.953	-59.73
874.126	-31.06
874.299	24.23
874.471	75.43
874.644	46.76
874.817	22.19
874.99	52.91
875.163	-49.49
875.335	-16.73
875.508	54.95
875.681	110.25
875.853	-8.53
876.026	7.85
876.199	-47.44
876.371	-63.83
876.544	-8.53
876.717	-24.92
876.889	-29.01
877.062	9.9
877.234	-16.73
877.407	-29.01
877.579	16.04
877.752	-82.26
877.924	5.8
878.097	73.39
878.269	26.28
878.442	5.8
878.614	-4.44
878.786	9.9
878.959	-37.2
879.131	-8.53
879.303	-74.07
879.476	28.33
879.648	30.38
879.82	-4.44
879.993	30.38
880.165	11.95
880.337	-0.34
880.509	-16.73
880.681	-8.53
880.854	-78.16
881.026	36.52
881.198	65.19
881.37	-4.44
881.542	26.28
881.714	-26.96
881.886	1.71
882.058	-24.92
882.23	-0.34
882.402	-86.36
882.574	5.8
882.746	81.58
882.918	36.52
883.09	1.71
883.262	-37.2
883.434	-18.77
883.606	-0.34
883.778	-24.92
883.95	32.43
884.122	-37.2
884.293	30.38
884.465	7.85
884.637	24.23
884.809	-90.45
884.98	-26.96
885.152	-20.82
885.324	-65.88
885.496	-8.53
885.667	44.71
885.839	16.04
886.011	26.28
886.182	7.85
886.354	-8.53
886.525	61.1
886.697	42.67
886.869	-49.49
887.04	13.99
887.212	63.15
887.383	81.58
887.555	-4.44
887.726	-45.4
887.897	-37.2
888.069	-6.49
888.24	24.23
888.412	9.9
888.583	59.05
888.754	-10.58
888.926	-41.3
889.097	-6.49
889.268	-65.88
889.44	30.38
889.611	-67.92
889.782	-26.96
889.953	30.38
890.125	9.9
890.296	-55.64
890.467	-16.73
890.638	-67.92
890.809	42.67
890.98	-35.16
891.151	11.95
891.323	22.19
891.494	-51.54
891.665	-49.49
891.836	-98.64
892.007	-67.92
892.178	-41.3
892.349	-24.92
892.52	11.95
892.691	-39.25
892.862	-16.73
893.032	-12.63
893.203	-12.63
893.374	-8.53
893.545	30.38
893.716	-4.44
893.887	44.71
894.057	-31.06
894.228	-41.3
894.399	-39.25
894.57	26.28
894.74	11.95
894.911	-39.25
895.082	-26.96
895.253	42.67
895.423	-22.87
895.594	46.76
895.764	-6.49
895.935	-65.88
896.106	44.71
896.276	-2.39
896.447	-29.01
896.617	-8.53
896.788	-59.73
896.958	-10.58
897.129	-69.97
897.299	-12.63
897.47	-90.45
897.64	69.29
897.81	-10.58
897.981	-39.25
898.151	-20.82
898.322	18.09
898.492	-24.92
898.662	9.9
898.832	-41.3
899.003	-4.44
899.173	-33.11
899.343	-6.49
899.513	-65.88
