Data from USB4F104151__32__12-23-44-426.txt Node

Date: Fri Mar 14 12:23:44 EDT 2025
User: louis
Spectrometer: USB4F10415
Trigger mode: 4
Integration Time (sec): 3.500000E-2
Scans to average: 1
Electric dark correction enabled: true
Nonlinearity correction enabled: false
Boxcar width: 0
XAxis mode: Wavelengths
Number of Pixels in Spectrum: 3648
>>>>>Begin Spectral Data<<<<<
178.204	-140.46
178.424	-140.46
178.644	-140.46
178.864	-93.35
179.084	-124.07
179.304	-9.39
179.524	-23.72
179.744	-38.06
179.964	2.9
180.184	21.33
180.404	35.67
180.624	-74.92
180.844	-36.01
181.064	7
181.283	60.24
181.503	-27.82
181.723	82.77
181.943	-46.25
182.163	99.16
182.383	19.29
182.602	45.91
182.822	133.97
183.042	52.05
183.262	47.96
183.482	27.48
183.701	39.76
183.921	115.54
184.141	-52.39
184.361	58.2
184.58	-21.67
184.8	74.58
185.02	41.81
185.239	60.24
185.459	70.48
185.679	56.15
185.898	25.43
186.118	88.92
186.338	17.24
186.557	23.38
186.777	-19.63
186.997	13.14
187.216	66.39
187.436	90.96
187.655	76.63
187.875	17.24
188.095	-3.24
188.314	78.68
188.534	41.81
188.753	35.67
188.973	47.96
189.192	47.96
189.412	-13.48
189.631	56.15
189.851	41.81
190.07	113.49
190.29	72.53
190.509	25.43
190.729	47.96
190.948	60.24
191.168	131.92
191.387	9.05
191.607	13.14
191.826	58.2
192.045	0.85
192.265	72.53
192.484	19.29
192.704	-9.39
192.923	29.52
193.142	129.88
193.362	-33.96
193.581	-17.58
193.8	7
194.02	82.77
194.239	70.48
194.458	90.96
194.678	131.92
194.897	0.85
195.116	74.58
195.335	113.49
195.555	-1.19
195.774	90.96
195.993	62.29
196.212	13.14
196.432	74.58
196.651	47.96
196.87	-9.39
197.089	60.24
197.308	17.24
197.528	47.96
197.747	2.9
197.966	84.82
198.185	127.83
198.404	21.33
198.623	121.68
198.842	58.2
199.062	27.48
199.281	70.48
199.5	2.9
199.719	-9.39
199.938	52.05
200.157	-31.91
200.376	50
200.595	19.29
200.814	9.05
201.033	-33.96
201.252	60.24
201.471	-23.72
201.69	142.16
201.909	60.24
202.128	19.29
202.347	-5.29
202.566	-3.24
202.785	-3.24
203.004	17.24
203.223	43.86
203.442	4.95
203.661	-31.91
203.879	58.2
204.098	74.58
204.317	4.95
204.536	13.14
204.755	25.43
204.974	84.82
205.193	17.24
205.411	54.1
205.63	115.54
205.849	70.48
206.068	70.48
206.287	-52.39
206.505	64.34
206.724	62.29
206.943	15.19
207.162	-50.35
207.381	15.19
207.599	50
207.818	27.48
208.037	35.67
208.255	37.72
208.474	117.59
208.693	84.82
208.911	41.81
209.13	37.72
209.349	-23.72
209.567	52.05
209.786	25.43
210.005	93.01
210.223	56.15
210.442	-23.72
210.661	72.53
210.879	31.57
211.098	-7.34
211.316	50
211.535	37.72
211.753	21.33
211.972	35.67
212.191	70.48
212.409	25.43
212.628	58.2
212.846	27.48
213.065	68.44
213.283	43.86
213.502	0.85
213.72	47.96
213.938	97.11
214.157	11.09
214.375	43.86
214.594	-3.24
214.812	31.57
215.031	-21.67
215.249	-3.24
215.467	78.68
215.686	54.1
215.904	2.9
216.122	19.29
216.341	62.29
216.559	19.29
216.778	41.81
216.996	80.72
217.214	-3.24
217.432	37.72
217.651	-15.53
217.869	66.39
218.087	31.57
218.306	-38.06
218.524	82.77
218.742	41.81
218.96	84.82
219.179	72.53
219.397	60.24
219.615	150.36
219.833	-25.77
220.051	95.06
220.27	133.97
220.488	33.62
220.706	4.95
220.924	31.57
221.142	-13.48
221.36	41.81
221.578	25.43
221.796	-36.01
222.015	23.38
222.233	-31.91
222.451	66.39
222.669	-33.96
222.887	125.78
223.105	-23.72
223.323	56.15
223.541	45.91
223.759	-33.96
223.977	-31.91
224.195	54.1
224.413	74.58
224.631	4.95
224.849	-25.77
225.067	31.57
225.285	19.29
225.503	-29.87
225.721	-85.16
225.939	43.86
226.157	78.68
226.375	103.25
226.592	-40.11
226.81	62.29
227.028	64.34
227.246	90.96
227.464	21.33
227.682	13.14
227.9	105.3
228.117	74.58
228.335	37.72
228.553	-31.91
228.771	62.29
228.989	84.82
229.206	95.06
229.424	-13.48
229.642	37.72
229.86	-1.19
230.077	35.67
230.295	17.24
230.513	68.44
230.731	2.9
230.948	62.29
231.166	76.63
231.384	23.38
231.601	52.05
231.819	19.29
232.037	7
232.254	-17.58
232.472	21.33
232.689	-1.19
232.907	109.4
233.125	39.76
233.342	52.05
233.56	11.09
233.777	23.38
233.995	29.52
234.213	43.86
234.43	45.91
234.648	-19.63
234.865	33.62
235.083	88.92
235.3	78.68
235.518	68.44
235.735	62.29
235.953	70.48
236.17	84.82
236.388	15.19
236.605	93.01
236.822	13.14
237.04	37.72
237.257	27.48
237.475	19.29
237.692	76.63
237.909	97.11
238.127	-42.15
238.344	62.29
238.562	111.44
238.779	-64.68
238.996	4.95
239.214	76.63
239.431	101.2
239.648	39.76
239.865	25.43
240.083	25.43
240.3	31.57
240.517	68.44
240.735	-38.06
240.952	62.29
241.169	90.96
241.386	54.1
241.603	27.48
241.821	0.85
242.038	41.81
242.255	-5.29
242.472	-21.67
242.689	25.43
242.907	93.01
243.124	47.96
243.341	31.57
243.558	15.19
243.775	60.24
243.992	-36.01
244.209	13.14
244.426	64.34
244.643	84.82
244.86	-21.67
245.078	64.34
245.295	-13.48
245.512	17.24
245.729	-9.39
245.946	-1.19
246.163	-25.77
246.38	17.24
246.597	7
246.814	17.24
247.031	45.91
247.248	39.76
247.464	-11.43
247.681	4.95
247.898	23.38
248.115	82.77
248.332	0.85
248.549	2.9
248.766	66.39
248.983	80.72
249.2	41.81
249.417	86.87
249.633	13.14
249.85	127.83
250.067	35.67
250.284	39.76
250.501	97.11
250.717	27.48
250.934	25.43
251.151	-3.24
251.368	54.1
251.585	117.59
251.801	35.67
252.018	27.48
252.235	56.15
252.451	9.05
252.668	21.33
252.885	131.92
253.102	39.76
253.318	47.96
253.535	25.43
253.752	13.14
253.968	-1.19
254.185	-3.24
254.401	37.72
254.618	-23.72
254.835	17.24
255.051	142.16
255.268	17.24
255.484	50
255.701	-17.58
255.917	2.9
256.134	64.34
256.351	41.81
256.567	-17.58
256.784	115.54
257	9.05
257.217	-7.34
257.433	72.53
257.65	4.95
257.866	31.57
258.082	17.24
258.299	31.57
258.515	95.06
258.732	7
258.948	-66.73
259.165	101.2
259.381	9.05
259.597	39.76
259.814	56.15
260.03	66.39
260.246	-27.82
260.463	58.2
260.679	54.1
260.895	0.85
261.112	39.76
261.328	21.33
261.544	52.05
261.761	72.53
261.977	-13.48
262.193	27.48
262.409	-7.34
262.626	-19.63
262.842	90.96
263.058	2.9
263.274	33.62
263.49	41.81
263.707	11.09
263.923	109.4
264.139	-7.34
264.355	60.24
264.571	101.2
264.787	25.43
265.004	181.07
265.22	33.62
265.436	52.05
265.652	80.72
265.868	31.57
266.084	-7.34
266.3	13.14
266.516	13.14
266.732	35.67
266.948	39.76
267.164	17.24
267.38	78.68
267.596	99.16
267.812	103.25
268.028	54.1
268.244	33.62
268.46	84.82
268.676	64.34
268.892	-7.34
269.108	31.57
269.324	-23.72
269.54	-17.58
269.756	47.96
269.972	33.62
270.188	-1.19
270.403	29.52
270.619	52.05
270.835	37.72
271.051	13.14
271.267	39.76
271.483	11.09
271.698	39.76
271.914	17.24
272.13	54.1
272.346	-23.72
272.562	-38.06
272.777	31.57
272.993	21.33
273.209	7
273.425	93.01
273.64	9.05
273.856	70.48
274.072	47.96
274.287	-36.01
274.503	101.2
274.719	11.09
274.934	9.05
275.15	-56.49
275.366	21.33
275.581	21.33
275.797	41.81
276.012	11.09
276.228	13.14
276.444	-50.35
276.659	60.24
276.875	33.62
277.09	86.87
277.306	25.43
277.521	41.81
277.737	43.86
277.952	50
278.168	97.11
278.383	70.48
278.599	47.96
278.814	45.91
279.03	66.39
279.245	84.82
279.461	78.68
279.676	88.92
279.892	-23.72
280.107	2.9
280.322	43.86
280.538	56.15
280.753	23.38
280.969	127.83
281.184	19.29
281.399	72.53
281.615	4.95
281.83	45.91
282.045	27.48
282.26	27.48
282.476	-23.72
282.691	142.16
282.906	25.43
283.122	0.85
283.337	-50.35
283.552	15.19
283.767	-3.24
283.983	76.63
284.198	37.72
284.413	2.9
284.628	-3.24
284.843	29.52
285.058	93.01
285.274	17.24
285.489	15.19
285.704	119.64
285.919	17.24
286.134	90.96
286.349	43.86
286.564	-25.77
286.779	23.38
286.995	97.11
287.21	9.05
287.425	11.09
287.64	37.72
287.855	15.19
288.07	-13.48
288.285	101.2
288.5	90.96
288.715	41.81
288.93	121.68
289.145	31.57
289.36	45.91
289.575	-9.39
289.79	93.01
290.004	-44.2
290.219	72.53
290.434	11.09
290.649	23.38
290.864	-56.49
291.079	11.09
291.294	33.62
291.509	74.58
291.724	15.19
291.938	-17.58
292.153	50
292.368	50
292.583	9.05
292.798	33.62
293.012	58.2
293.227	54.1
293.442	97.11
293.657	23.38
293.871	58.2
294.086	103.25
294.301	95.06
294.516	58.2
294.73	39.76
294.945	25.43
295.16	11.09
295.374	66.39
295.589	138.07
295.804	19.29
296.018	19.29
296.233	107.35
296.447	60.24
296.662	52.05
296.877	84.82
297.091	76.63
297.306	103.25
297.52	7
297.735	58.2
297.949	13.14
298.164	78.68
298.378	105.3
298.593	-15.53
298.807	35.67
299.022	58.2
299.236	113.49
299.451	50
299.665	-17.58
299.88	97.11
300.094	70.48
300.309	68.44
300.523	95.06
300.737	52.05
300.952	9.05
301.166	56.15
301.381	86.87
301.595	-3.24
301.809	0.85
302.024	17.24
302.238	-36.01
302.452	82.77
302.667	13.14
302.881	125.78
303.095	31.57
303.309	-15.53
303.524	-25.77
303.738	-33.96
303.952	31.57
304.166	70.48
304.381	-1.19
304.595	103.25
304.809	9.05
305.023	41.81
305.237	-7.34
305.452	7
305.666	50
305.88	19.29
306.094	78.68
306.308	25.43
306.522	80.72
306.736	50
306.95	80.72
307.164	56.15
307.379	33.62
307.593	45.91
307.807	82.77
308.021	97.11
308.235	33.62
308.449	-31.91
308.663	13.14
308.877	84.82
309.091	-11.43
309.305	78.68
309.519	-42.15
309.733	50
309.947	4.95
310.161	41.81
310.374	11.09
310.588	156.5
310.802	72.53
311.016	2.9
311.23	39.76
311.444	39.76
311.658	33.62
311.872	82.77
312.085	31.57
312.299	54.1
312.513	70.48
312.727	43.86
312.941	-3.24
313.154	99.16
313.368	13.14
313.582	72.53
313.796	58.2
314.009	43.86
314.223	33.62
314.437	101.2
314.651	23.38
314.864	68.44
315.078	60.24
315.292	25.43
315.505	-21.67
315.719	105.3
315.933	19.29
316.146	37.72
316.36	66.39
316.573	74.58
316.787	50
317.001	90.96
317.214	-44.2
317.428	4.95
317.641	-17.58
317.855	29.52
318.068	78.68
318.282	31.57
318.495	148.31
318.709	60.24
318.922	68.44
319.136	131.92
319.349	86.87
319.563	66.39
319.776	97.11
319.99	-7.34
320.203	86.87
320.417	88.92
320.63	88.92
320.843	74.58
321.057	-15.53
321.27	25.43
321.483	99.16
321.697	174.93
321.91	7
322.124	27.48
322.337	60.24
322.55	4.95
322.763	95.06
322.977	-23.72
323.19	9.05
323.403	-5.29
323.617	90.96
323.83	31.57
324.043	47.96
324.256	52.05
324.469	27.48
324.683	88.92
324.896	58.2
325.109	-7.34
325.322	-36.01
325.535	107.35
325.748	86.87
325.962	19.29
326.175	43.86
326.388	47.96
326.601	0.85
326.814	74.58
327.027	13.14
327.24	60.24
327.453	-66.73
327.666	93.01
327.879	4.95
328.092	-31.91
328.305	54.1
328.518	66.39
328.731	35.67
328.944	4.95
329.157	47.96
329.37	-15.53
329.583	29.52
329.796	86.87
330.009	19.29
330.222	0.85
330.435	103.25
330.648	31.57
330.861	43.86
331.073	39.76
331.286	50
331.499	68.44
331.712	-42.15
331.925	33.62
332.138	76.63
332.35	50
332.563	11.09
332.776	74.58
332.989	25.43
333.202	9.05
333.414	0.85
333.627	-1.19
333.84	52.05
334.053	25.43
334.265	17.24
334.478	148.31
334.691	76.63
334.903	50
335.116	0.85
335.329	15.19
335.541	121.68
335.754	43.86
335.966	58.2
336.179	-19.63
336.392	9.05
336.604	64.34
336.817	23.38
337.029	9.05
337.242	-1.19
337.454	50
337.667	11.09
337.88	15.19
338.092	54.1
338.305	125.78
338.517	101.2
338.729	68.44
338.942	66.39
339.154	90.96
339.367	-1.19
339.579	41.81
339.792	2.9
340.004	72.53
340.217	-5.29
340.429	31.57
340.641	27.48
340.854	93.01
341.066	-21.67
341.278	107.35
341.491	99.16
341.703	17.24
341.915	-27.82
342.128	-19.63
342.34	62.29
342.552	25.43
342.764	82.77
342.977	-17.58
343.189	86.87
343.401	29.52
343.613	11.09
343.826	13.14
344.038	-3.24
344.25	113.49
344.462	47.96
344.674	56.15
344.886	47.96
345.099	29.52
345.311	-17.58
345.523	0.85
345.735	-5.29
345.947	50
346.159	82.77
346.371	-11.43
346.583	64.34
346.795	127.83
347.007	15.19
347.219	-1.19
347.431	-13.48
347.643	80.72
347.855	160.59
348.067	66.39
348.279	27.48
348.491	37.72
348.703	52.05
348.915	58.2
349.127	84.82
349.339	93.01
349.551	35.67
349.763	31.57
349.975	23.38
350.187	117.59
350.399	54.1
350.61	41.81
350.822	41.81
351.034	113.49
351.246	76.63
351.458	41.81
351.669	11.09
351.881	99.16
352.093	90.96
352.305	74.58
352.517	66.39
352.728	80.72
352.94	39.76
353.152	19.29
353.363	-21.67
353.575	119.64
353.787	43.86
353.999	52.05
354.21	-3.24
354.422	47.96
354.633	9.05
354.845	31.57
355.057	62.29
355.268	13.14
355.48	50
355.692	-31.91
355.903	-23.72
356.115	86.87
356.326	-38.06
356.538	113.49
356.749	66.39
356.961	144.21
357.172	60.24
357.384	45.91
357.595	138.07
357.807	52.05
358.018	39.76
358.23	45.91
358.441	117.59
358.653	64.34
358.864	60.24
359.075	43.86
359.287	70.48
359.498	95.06
359.709	80.72
359.921	50
360.132	82.77
360.344	62.29
360.555	-42.15
360.766	58.2
360.977	47.96
361.189	52.05
361.4	13.14
361.611	115.54
361.823	76.63
362.034	78.68
362.245	-15.53
362.456	13.14
362.667	17.24
362.879	41.81
363.09	-5.29
363.301	2.9
363.512	76.63
363.723	19.29
363.935	19.29
364.146	52.05
364.357	52.05
364.568	76.63
364.779	-46.25
364.99	78.68
365.201	-85.16
365.412	125.78
365.623	-1.19
365.834	31.57
366.045	66.39
366.256	68.44
366.467	56.15
366.678	72.53
366.889	64.34
367.1	62.29
367.311	74.58
367.522	45.91
367.733	-13.48
367.944	58.2
368.155	23.38
368.366	133.97
368.577	66.39
368.788	78.68
368.999	13.14
369.209	47.96
369.42	127.83
369.631	154.45
369.842	93.01
370.053	2.9
370.264	35.67
370.474	13.14
370.685	7
370.896	25.43
371.107	74.58
371.317	70.48
371.528	35.67
371.739	86.87
371.95	64.34
372.16	33.62
372.371	-56.49
372.582	0.85
372.792	-5.29
373.003	35.67
373.214	56.15
373.424	113.49
373.635	17.24
373.846	121.68
374.056	9.05
374.267	35.67
374.477	123.73
374.688	-7.34
374.898	74.58
375.109	80.72
375.319	72.53
375.53	-13.48
375.74	33.62
375.951	29.52
376.161	9.05
376.372	0.85
376.582	45.91
376.793	88.92
377.003	-40.11
377.214	41.81
377.424	56.15
377.635	15.19
377.845	56.15
378.055	88.92
378.266	-13.48
378.476	66.39
378.686	43.86
378.897	76.63
379.107	105.3
379.317	99.16
379.528	50
379.738	37.72
379.948	-3.24
380.158	117.59
380.369	58.2
380.579	93.01
380.789	-3.24
380.999	95.06
381.21	31.57
381.42	101.2
381.63	41.81
381.84	39.76
382.05	-9.39
382.261	146.26
382.471	68.44
382.681	35.67
382.891	76.63
383.101	123.73
383.311	31.57
383.521	47.96
383.731	60.24
383.941	4.95
384.151	50
384.361	64.34
384.571	29.52
384.781	50
384.991	68.44
385.201	111.44
385.411	95.06
385.621	41.81
385.831	43.86
386.041	68.44
386.251	23.38
386.461	125.78
386.671	62.29
386.881	29.52
387.091	72.53
387.301	72.53
387.511	50
387.72	84.82
387.93	103.25
388.14	27.48
388.35	33.62
388.56	97.11
388.769	60.24
388.979	-5.29
389.189	27.48
389.399	-54.44
389.609	-23.72
389.818	113.49
390.028	111.44
390.238	37.72
390.447	54.1
390.657	45.91
390.867	21.33
391.076	4.95
391.286	60.24
391.496	0.85
391.705	13.14
391.915	166.74
392.125	31.57
392.334	82.77
392.544	103.25
392.753	60.24
392.963	90.96
393.172	45.91
393.382	82.77
393.591	107.35
393.801	54.1
394.01	97.11
394.22	29.52
394.429	29.52
394.639	93.01
394.848	88.92
395.058	7
395.267	72.53
395.477	68.44
395.686	90.96
395.895	209.75
396.105	189.27
396.314	74.58
396.524	74.58
396.733	62.29
396.942	97.11
397.152	82.77
397.361	45.91
397.57	37.72
397.78	80.72
397.989	60.24
398.198	193.36
398.407	90.96
398.617	45.91
398.826	90.96
399.035	119.64
399.244	101.2
399.453	66.39
399.663	72.53
399.872	45.91
400.081	17.24
400.29	187.22
400.499	103.25
400.708	97.11
400.917	56.15
401.127	101.2
401.336	109.4
401.545	109.4
401.754	125.78
401.963	105.3
402.172	121.68
402.381	56.15
402.59	4.95
402.799	76.63
403.008	113.49
403.217	70.48
403.426	179.03
403.635	84.82
403.844	115.54
404.053	58.2
404.262	64.34
404.471	224.08
404.68	109.4
404.888	142.16
405.097	88.92
405.306	113.49
405.515	101.2
405.724	103.25
405.933	148.31
406.142	127.83
406.35	123.73
406.559	152.4
406.768	203.6
406.977	179.03
407.185	119.64
407.394	133.97
407.603	144.21
407.812	187.22
408.02	199.51
408.229	158.55
408.438	201.55
408.646	121.68
408.855	150.36
409.064	136.02
409.272	144.21
409.481	238.42
409.69	224.08
409.898	154.45
410.107	279.38
410.315	222.03
410.524	224.08
410.733	293.71
410.941	306
411.15	287.57
411.358	281.43
411.567	394.06
411.775	312.14
411.984	291.66
412.192	349.01
412.401	330.58
412.609	365.39
412.818	367.44
413.026	328.53
413.234	275.28
413.443	328.53
413.651	332.62
413.86	369.49
414.068	461.65
414.276	553.8
414.485	418.64
414.693	531.28
414.901	529.23
415.11	582.48
415.318	600.91
415.526	523.09
415.734	496.46
415.943	598.86
416.151	645.96
416.359	543.57
416.567	623.44
416.776	738.12
416.984	658.25
417.192	799.56
417.4	680.78
417.608	783.18
417.817	834.38
418.025	838.47
418.233	889.67
418.441	713.55
418.649	858.95
418.857	926.54
419.065	953.16
419.273	983.88
419.481	953.16
419.689	1098.56
419.897	1059.65
420.105	1037.13
420.313	1137.48
420.521	1280.83
420.729	1215.3
420.937	1207.11
421.145	1225.54
421.353	1325.89
421.561	1461.06
421.769	1532.73
421.977	1545.02
422.185	1616.7
422.393	1516.35
422.601	1696.57
422.809	1755.96
423.017	1772.35
423.224	1749.82
423.432	1854.27
423.64	1827.64
423.848	1987.38
424.056	1919.8
424.263	2104.12
424.471	1968.95
424.679	2081.59
424.887	2351.92
425.094	2399.02
425.302	2327.35
425.51	2321.2
425.718	2587.44
425.925	2523.95
426.133	2648.88
426.341	2702.12
426.548	2933.54
426.756	2906.92
426.964	2843.43
427.171	3037.99
427.379	3277.6
427.586	3359.52
427.794	3246.88
428.001	3437.34
428.209	3705.63
428.417	3603.23
428.624	3754.78
428.832	3754.78
429.039	3935
429.247	3791.64
429.454	4211.48
429.662	4481.81
429.869	4141.85
430.076	4354.83
430.284	4193.05
430.491	4578.06
430.699	4866.83
430.906	4735.76
431.114	4922.12
431.321	4993.8
431.528	5208.84
431.736	5419.78
431.943	5677.82
432.15	5606.14
432.358	5526.27
432.565	5774.08
432.772	5901.05
432.979	6263.54
433.187	6482.67
433.394	6441.72
433.601	6642.42
433.808	7000.81
434.016	6765.29
434.223	7006.95
434.43	7428.84
434.637	7164.65
434.844	7807.71
435.052	7772.89
435.259	7936.73
435.466	7977.69
435.673	7811.81
435.88	8389.33
436.087	8948.43
436.294	8764.11
436.501	8630.99
436.708	8762.06
436.915	9134.79
437.122	9419.46
437.329	9493.19
437.537	9695.94
437.743	10052.28
437.95	9876.16
438.157	10404.53
438.364	10767.03
438.571	10650.29
438.778	11055.79
438.985	11901.6
439.192	11207.34
439.399	11772.58
439.606	11252.39
439.813	12098.2
440.02	12841.62
440.227	12409.5
440.433	12149.4
440.64	12806.8
440.847	12726.93
441.054	13077.13
441.261	13783.68
441.467	13550.21
441.674	13900.42
441.881	14602.87
442.088	14531.19
442.294	14439.03
442.501	14801.52
442.708	15237.74
442.914	15794.79
443.121	16409.18
443.328	15940.19
443.534	17154.64
443.741	16433.75
443.948	16228.96
444.154	17625.67
444.361	17584.71
444.568	17678.92
444.774	17750.6
444.981	17547.85
445.187	18391.61
445.394	19001.91
445.6	19016.24
445.807	20738.58
446.013	19935.78
446.22	20226.59
446.426	21025.3
446.633	21264.91
446.839	21758.47
447.046	21111.32
447.252	22241.79
447.459	22110.72
447.665	22020.61
447.871	23060.98
448.078	24392.16
448.284	22825.47
448.491	23384.56
448.697	24627.68
448.903	24785.37
449.11	24863.19
449.316	24347.11
449.522	24902.11
449.728	25778.64
449.935	25897.42
450.141	26012.1
450.347	26755.52
450.553	25606.61
450.76	26067.4
450.966	26606.02
451.172	26739.13
451.378	27292.08
451.584	26577.34
451.791	27253.17
451.997	26845.63
452.203	27767.21
452.409	27726.25
452.615	27480.5
452.821	26554.82
453.027	25858.51
453.233	27894.19
453.44	26722.75
453.646	26642.88
453.852	26968.51
454.058	27406.77
454.264	26698.17
454.47	27228.6
454.676	26186.18
454.882	27058.62
455.088	24801.75
455.294	25231.83
455.5	25387.47
455.705	25741.77
455.911	24807.9
456.117	24719.84
456.323	23788.01
456.529	23036.41
456.735	23921.13
456.941	23296.5
457.147	22630.91
457.352	22012.42
457.558	21621.26
457.764	21735.95
457.97	21527.05
458.176	20988.44
458.381	20890.13
458.587	19933.73
458.793	19704.36
458.999	18823.73
459.204	19835.43
459.41	19376.69
459.616	18248.25
459.821	18182.72
460.027	18225.73
460.233	17619.53
460.438	16919.12
460.644	17125.97
460.85	16400.99
461.055	15878.76
461.261	16319.07
461.466	14883.44
461.672	14348.92
461.878	15198.83
462.083	14375.55
462.289	14137.98
462.494	13982.34
462.7	13390.47
462.905	12915.34
463.111	13613.7
463.316	13556.36
463.522	13140.62
463.727	13216.4
463.932	13277.83
464.138	13005.45
464.343	13144.72
464.549	12737.17
464.754	13228.68
464.959	12944.02
465.165	12925.58
465.37	12401.3
465.575	12024.48
465.781	12692.12
465.986	12546.71
466.191	12206.75
466.397	11942.56
466.602	11182.76
466.807	11635.36
467.012	11850.4
467.218	11782.82
467.423	11625.12
467.628	11696.8
467.833	12159.64
468.038	11700.9
468.244	11408.04
468.449	11776.67
468.654	11358.89
468.859	11174.57
469.064	11293.35
469.269	10777.26
469.474	10947.25
469.679	11047.6
469.885	10912.43
470.09	10980.01
470.295	10801.84
470.5	10623.67
470.705	10719.92
470.91	10545.84
471.115	10377.91
471.32	10463.93
471.525	10382.01
471.73	10250.94
471.935	10156.73
472.139	9992.89
472.344	9917.12
472.549	9749.18
472.754	9792.19
472.959	9566.92
473.164	9327.3
473.369	9261.77
473.574	9509.57
473.778	9288.39
473.983	9374.41
474.188	9298.63
474.393	9005.77
474.598	9018.06
474.802	9026.25
475.007	8606.42
475.212	8811.21
475.417	8385.24
475.621	8551.12
475.826	8598.23
476.031	8336.09
476.235	8213.21
476.44	8471.25
476.645	8207.06
476.849	8129.24
477.054	8043.23
477.259	7957.21
477.463	7944.92
477.668	7908.06
477.872	7865.05
478.077	7789.28
478.282	7420.64
478.486	7529.19
478.691	7316.2
478.895	7252.71
479.1	7277.29
479.304	7367.4
479.509	7121.64
479.713	7348.97
479.918	7265
480.122	6910.7
480.326	7105.26
480.531	7217.9
480.735	6972.14
480.94	6814.45
481.144	7113.45
481.348	6957.8
481.553	6966
481.757	6748.91
481.961	6732.53
482.166	6980.33
482.37	6949.61
482.574	6773.49
482.778	6966
482.983	7060.2
483.187	6879.98
483.391	7029.48
483.595	6812.4
483.8	6759.15
484.004	6771.44
484.208	6898.41
484.412	6888.17
484.616	6857.45
484.821	6824.69
485.025	6642.42
485.229	6843.12
485.433	6689.52
485.637	6931.18
485.841	6634.22
486.045	6845.16
486.249	6834.93
486.453	6830.83
486.657	6736.62
486.861	6810.35
487.065	6763.25
487.269	6841.07
487.473	6554.35
487.677	6738.67
487.881	6849.26
488.085	6722.29
488.289	6853.36
488.493	6736.62
488.697	6927.08
488.901	6894.32
489.105	6879.98
489.309	6853.36
489.512	6847.21
489.716	6974.19
489.92	6761.2
490.124	6777.58
490.328	7039.72
490.531	6791.92
490.735	7064.3
490.939	7066.35
491.143	6812.4
491.346	6871.79
491.55	7197.42
491.754	6861.55
491.958	7150.31
492.161	7158.5
492.365	7070.44
492.569	7160.55
492.772	7265
492.976	7097.07
493.18	7299.81
493.383	7377.64
493.587	7434.98
493.79	7512.8
493.994	7445.22
494.197	7387.88
494.401	7697.12
494.605	7578.34
494.808	7680.74
495.012	7781.09
495.215	7840.48
495.419	8053.47
495.622	7686.88
495.825	7844.57
496.029	8002.27
496.232	8123.1
496.436	8041.18
496.639	8241.88
496.843	8391.38
497.046	8491.73
497.249	8600.27
497.453	8329.94
497.656	8551.12
497.859	8596.18
498.063	8561.36
498.266	8831.69
498.469	8712.91
498.673	9050.83
498.876	9120.46
499.079	9054.92
499.282	9417.41
499.485	9589.44
499.689	9568.96
499.892	9661.12
500.095	9548.48
500.298	9945.79
500.501	9749.18
500.705	10076.86
500.908	10128.06
501.111	10324.66
501.314	10404.53
501.517	10482.36
501.72	10771.12
501.923	10609.33
502.126	10871.47
502.329	11018.93
502.532	11033.26
502.735	11266.73
502.938	11342.5
503.141	11434.66
503.344	11543.21
503.547	11811.49
503.75	11799.2
503.953	11868.83
504.156	11956.89
504.359	12157.6
504.562	12204.7
504.765	12595.86
504.968	12665.49
505.17	12712.6
505.373	12976.78
505.576	13015.69
505.779	13046.41
505.982	13163.15
506.185	13552.26
506.387	13795.97
506.59	13625.99
506.793	14103.17
506.996	13914.75
507.198	14375.55
507.401	14178.94
507.604	14545.53
507.807	14912.11
508.009	14953.07
508.212	15295.08
508.415	15368.81
508.617	15417.96
508.82	15377
509.022	15268.46
509.225	15776.36
509.428	15850.08
509.63	15972.96
509.833	16407.13
510.035	16519.77
510.238	16521.82
510.44	16753.24
510.643	17267.28
510.845	17435.21
511.048	17113.68
511.25	17429.07
511.453	17873.48
511.655	18082.37
511.858	18195.01
512.06	18233.92
512.262	18299.45
512.465	18559.55
512.667	19003.96
512.87	18948.66
513.072	18922.04
513.274	19378.73
513.477	19728.94
513.679	19702.31
513.881	20177.44
514.084	20322.85
514.286	20046.37
514.488	20357.66
514.69	21174.8
514.893	21006.87
515.095	21334.54
515.297	21621.26
515.499	21359.12
515.701	21854.73
515.904	22526.46
516.106	22483.45
516.308	22592
516.51	23003.64
516.712	22645.24
516.914	22968.82
517.116	23462.38
517.318	23673.32
517.52	23745
517.722	23777.77
517.925	24107.49
518.127	24568.29
518.329	25012.7
518.531	24934.87
518.733	25575.89
518.935	25354.71
519.136	25442.77
519.338	25946.57
519.54	26175.94
519.742	26247.62
519.944	26601.92
520.146	27029.94
520.348	26943.93
520.55	27484.59
520.752	27181.49
520.954	28250.53
521.155	27552.18
521.357	28404.13
521.559	28672.42
521.761	29075.87
521.963	29077.91
522.164	29219.22
522.366	29680.02
522.568	29688.21
522.77	29692.3
522.971	30347.65
523.173	30243.21
523.375	30704
523.576	30515.59
523.778	30667.14
523.98	30980.48
524.181	31519.09
524.383	31416.69
524.584	31779.18
524.786	32145.77
524.988	32012.65
525.189	32371.05
525.391	32663.91
525.592	32555.36
525.794	32706.91
525.995	32919.9
526.197	32964.96
526.398	33169.76
526.6	33538.39
526.801	33442.14
527.003	33784.15
527.204	33452.37
527.406	33956.18
527.607	33763.67
527.808	34898.24
528.01	34015.57
528.211	34459.98
528.412	34865.47
528.614	34832.71
528.815	34589
529.016	35414.33
529.218	34988.35
529.419	35170.62
529.62	35017.02
529.822	35346.75
530.023	35146.05
530.224	35424.57
530.425	35641.65
530.626	35490.1
530.828	35129.66
531.029	36450.6
531.23	35561.78
531.431	36063.54
531.632	35950.9
531.833	36380.97
532.035	36266.28
532.236	36303.15
532.437	36417.83
532.638	36116.78
532.839	36434.22
533.04	36634.92
533.241	36116.78
533.442	36845.86
533.643	36221.23
533.844	36532.52
534.045	36645.16
534.246	36456.75
534.447	36985.12
534.648	36682.02
534.849	36966.69
535.05	36397.35
535.251	36854.05
535.451	36692.26
535.652	36981.03
535.853	36962.59
536.054	36837.67
536.255	37001.5
536.456	36604.2
536.657	37146.91
536.857	36929.83
537.058	36546.86
537.259	37159.2
537.46	36868.39
537.66	36985.12
537.861	37257.5
538.062	36813.09
538.263	36876.58
538.463	36591.91
538.664	36915.49
538.865	36778.28
539.065	37277.98
539.266	36733.22
539.466	37091.62
539.667	36940.07
539.868	36995.36
540.068	36895.01
540.269	36993.31
540.469	37089.57
540.67	36391.21
540.87	36987.17
541.071	36542.76
541.271	37013.79
541.472	36981.03
541.672	36667.69
541.873	37030.18
542.073	36227.37
542.274	37380.38
542.474	37208.35
542.675	36405.55
542.875	36909.35
543.075	36782.37
543.276	36727.08
543.476	36870.43
543.676	36495.66
543.877	36950.31
544.077	36692.26
544.277	36909.35
544.478	36432.17
544.678	36770.08
544.878	36905.25
545.078	36612.39
545.279	36473.13
545.479	36667.69
545.679	36505.9
545.879	36811.04
546.079	36655.4
546.28	36579.62
546.48	36239.66
546.68	36872.48
546.88	36751.65
547.08	36888.87
547.28	36821.28
547.48	36442.41
547.68	36737.32
547.88	36505.9
548.081	36897.06
548.281	36641.06
548.481	36647.21
548.681	36692.26
548.881	36598.05
549.081	36401.45
549.28	36364.59
549.48	36671.78
549.68	36837.67
549.88	36981.03
550.08	36454.7
550.28	36729.12
550.48	36514.09
550.68	36741.41
550.88	35950.9
551.08	36399.4
551.279	36536.62
551.479	35856.69
551.679	36514.09
551.879	36405.55
552.079	36516.14
552.278	36307.24
552.478	36643.11
552.678	36749.6
552.878	36358.44
553.077	36055.34
553.277	36022.58
553.477	36669.73
553.676	36096.3
553.876	36086.06
554.076	36268.33
554.275	36063.54
554.475	35561.78
554.674	36389.16
554.874	36264.24
555.074	36098.35
555.273	35905.84
555.473	36065.58
555.672	35828.02
555.872	35858.74
556.071	35590.45
556.271	35881.27
556.47	35275.07
556.67	35510.58
556.869	35629.37
557.068	35606.84
557.268	35520.82
557.467	35506.49
557.667	35414.33
557.866	35236.16
558.065	35522.87
558.265	34998.59
558.464	34949.44
558.663	35451.19
558.863	34509.13
559.062	35655.99
559.261	34881.86
559.461	35162.43
559.66	34371.91
559.859	35230.01
560.058	34388.3
560.258	34976.06
560.457	34095.44
560.656	34709.83
560.855	34560.33
561.054	34609.48
561.253	34466.12
561.453	34208.08
561.652	34193.74
561.851	34087.25
562.05	33958.22
562.249	33810.77
562.448	34191.69
562.647	34160.97
562.846	33925.46
563.045	34152.78
563.244	33483.09
563.443	33853.78
563.642	32987.49
563.841	33317.21
564.04	33493.33
564.239	33642.84
564.438	33130.84
564.637	33241.43
564.836	33309.02
565.035	32762.21
565.234	33061.21
565.432	32858.46
565.631	32606.56
565.83	32602.47
566.029	32588.13
566.228	32266.6
566.427	32219.5
566.625	32182.63
566.824	31451.51
567.023	32213.35
567.222	31783.28
567.42	31859.06
567.619	31560.05
567.818	31746.42
568.016	31719.79
568.215	31918.45
568.414	31336.82
568.612	31742.32
568.811	31404.41
569.01	31267.19
569.208	30708.1
569.407	31197.56
569.605	30554.5
569.804	30957.95
570.002	30488.96
570.201	30923.13
570.4	30574.98
570.598	30185.86
570.797	30290.31
570.995	30343.56
571.193	29768.08
571.392	30062.99
571.59	29610.39
571.789	29876.62
571.987	29583.76
572.186	29735.31
572.384	29434.26
572.582	29682.06
572.781	29684.11
572.979	28963.23
573.177	29266.33
573.376	29069.72
573.574	28840.35
573.772	28926.36
573.971	28598.69
574.169	28651.94
574.367	28465.57
574.565	28770.72
574.763	28301.73
574.962	28172.71
575.16	28074.41
575.358	28228.01
575.556	27920.81
575.754	28219.81
575.952	27570.61
576.151	28012.97
576.349	27791.79
576.547	27367.86
576.745	27408.82
576.943	27851.18
577.141	27384.24
577.339	27318.71
577.537	27154.87
577.735	27673.01
577.933	27062.71
578.131	26974.65
578.329	26786.24
578.527	26730.94
578.725	26825.15
578.923	26714.56
579.121	26732.99
579.319	26327.49
579.516	26472.9
579.714	26177.99
579.912	26345.92
580.11	26364.36
580.308	26008.01
580.506	26091.98
580.704	25688.53
580.901	25958.86
581.099	25913.8
581.297	25700.81
581.495	25776.59
581.692	25848.27
581.89	25377.23
582.088	25555.41
582.285	25176.53
582.483	25278.93
582.681	25082.33
582.878	25168.34
583.076	24771.04
583.274	24955.35
583.471	24719.84
583.669	24392.16
583.866	24738.27
584.064	24836.57
584.262	24424.93
584.459	24605.15
584.657	24631.77
584.854	24717.79
585.052	23806.44
585.249	24140.26
585.447	24138.21
585.644	24046.05
585.841	23865.83
586.039	24226.28
586.236	23587.31
586.434	23441.9
586.631	23691.76
586.828	23706.09
587.026	23859.69
587.223	23613.93
587.42	23259.63
587.618	23325.17
587.815	23142.9
588.012	23206.39
588.21	23142.9
588.407	23091.7
588.604	23013.88
588.801	22766.07
588.999	22723.07
589.196	22626.81
589.393	22798.84
589.59	22532.61
589.787	22561.28
589.984	22653.44
590.182	22045.19
590.379	22505.98
590.576	22010.37
590.773	22073.86
590.97	21885.45
591.167	22012.42
591.364	21752.33
591.561	21871.11
591.758	21826.06
591.955	21879.3
592.152	21969.41
592.349	21559.82
592.546	21897.74
592.743	21254.67
592.94	21168.66
593.137	21248.53
593.334	21545.48
593.531	21135.89
593.727	21232.15
593.924	21096.98
594.121	20722.2
594.318	21156.37
594.515	20759.06
594.712	21049.88
594.908	20722.2
595.105	20967.96
595.302	20595.23
595.499	20460.06
595.696	20419.1
595.892	20191.78
596.089	20609.56
596.286	20607.51
596.482	20337.18
596.679	20210.21
596.876	20138.53
597.072	20146.72
597.269	19966.5
597.466	19954.21
597.662	19776.04
597.859	20001.32
598.055	19903.01
598.252	19458.6
598.448	19792.42
598.645	19405.36
598.841	19507.76
599.038	19341.87
599.234	19739.18
599.431	19348.01
599.627	19206.7
599.824	19286.58
600.02	19118.64
600.217	19257.9
600.413	18956.85
600.609	19003.96
600.806	18731.58
601.002	18866.74
601.198	18739.77
601.395	18479.68
601.591	18647.61
601.787	18698.81
601.984	18577.98
602.18	18846.26
602.376	18379.32
602.572	18133.57
602.769	18348.61
602.965	17881.67
603.161	18410.04
603.357	18240.06
603.553	18162.24
603.75	18123.33
603.946	18006.59
604.142	17936.96
604.338	17838.66
604.534	17988.16
604.73	17578.57
604.926	17629.77
605.122	17756.74
605.318	17492.55
605.514	17603.14
605.71	17132.11
605.906	17525.32
606.102	17224.27
606.298	17398.35
606.494	17381.96
606.69	17273.42
606.886	17371.72
607.082	16908.88
607.278	17080.91
607.474	16810.58
607.67	16998.99
607.866	16548.44
608.062	16869.97
608.257	16861.78
608.453	16788.05
608.649	17064.53
608.845	16720.47
609.041	16431.71
609.236	16800.34
609.432	16556.63
609.628	16603.74
609.824	16355.93
610.019	16362.08
610.215	16499.29
610.411	16456.28
610.606	16312.92
610.802	16470.62
610.998	16267.87
611.193	16140.9
611.389	16190.05
611.584	16022.11
611.78	16233.05
611.976	15886.95
612.171	15991.39
612.367	15835.75
612.562	16009.83
612.758	15860.32
612.953	15694.44
613.149	16095.84
613.344	15727.21
613.539	15897.19
613.735	15817.32
613.93	15692.39
614.126	15598.18
614.321	15798.88
614.517	15608.42
614.712	15776.36
614.907	15274.6
615.103	15692.39
615.298	15446.63
615.493	15469.16
615.688	15516.26
615.884	15544.94
616.079	15114.86
616.274	15323.76
616.47	15016.56
616.665	15454.83
616.86	15149.68
617.055	15194.73
617.25	15082.1
617.445	15106.67
617.641	14795.38
617.836	15110.77
618.031	14932.59
618.226	15026.8
618.421	14660.21
618.616	14985.84
618.811	14729.84
619.006	14725.75
619.201	14590.58
619.396	14832.24
619.591	14314.11
619.786	14520.95
619.981	14361.21
620.176	14383.74
620.371	14027.39
620.566	14097.02
620.761	14062.21
620.956	13970.05
621.151	14006.91
621.346	14148.22
621.541	13619.85
621.735	13894.27
621.93	13492.87
622.125	13810.31
622.32	13406.86
622.515	13546.12
622.709	13445.77
622.904	13503.11
623.099	13509.26
623.294	13406.86
623.488	13214.35
623.683	13320.84
623.878	12946.06
624.072	13087.37
624.267	12882.58
624.462	12993.17
624.656	12679.83
624.851	12878.48
625.046	12532.37
625.24	12655.25
625.435	12671.64
625.629	12458.65
625.824	12448.41
626.018	12094.11
626.213	12155.55
626.407	12413.59
626.602	11881.12
626.796	12059.29
626.991	12042.91
627.185	12012.19
627.38	11825.82
627.574	11698.85
627.768	11651.75
627.963	11674.28
628.157	11397.8
628.352	11604.64
628.546	11340.46
628.74	11537.06
628.935	11467.43
629.129	11405.99
629.323	11086.51
629.517	11326.12
629.712	11299.5
629.906	11092.65
630.1	10887.86
630.294	11023.02
630.489	10850.99
630.683	10963.63
630.877	10605.24
631.071	10660.53
631.265	10607.28
631.459	10457.78
631.653	10439.35
631.848	10486.45
632.042	10425.01
632.236	10435.25
632.43	10189.5
632.624	10367.67
632.818	10148.54
633.012	10031.8
633.206	9988.8
633.4	9902.78
633.594	9831.1
633.788	9792.19
633.982	9972.41
634.176	9857.73
634.369	9857.73
634.563	9745.09
634.757	9855.68
634.951	9679.55
635.145	9593.54
635.339	9657.03
635.533	9335.49
635.726	9446.09
635.92	9229
636.114	9333.45
636.308	9312.97
636.501	9079.5
636.695	9173.71
636.889	9003.72
637.083	9003.72
637.276	8952.52
637.47	8946.38
637.664	8833.74
637.857	8831.69
638.051	8719.06
638.244	8803.02
638.438	8678.1
638.632	8585.94
638.825	8608.47
639.019	8669.91
639.212	8643.28
639.406	8528.6
639.599	8714.96
639.793	8497.88
639.986	8301.27
640.18	8458.96
640.373	8368.85
640.567	8284.89
640.76	8198.87
640.954	7797.47
641.147	8002.27
641.34	7994.08
641.534	7873.25
641.727	8063.71
641.92	7883.49
642.114	7791.33
642.307	7807.71
642.5	7752.42
642.694	7572.19
642.887	7740.13
643.08	7842.53
643.273	7627.49
643.467	7461.6
643.66	7242.47
643.853	7441.12
644.046	7455.46
644.239	7236.33
644.432	7375.59
644.626	7432.93
644.819	7135.98
645.012	7119.59
645.205	7168.74
645.398	7148.26
645.591	7064.3
645.784	7013.1
645.977	6949.61
646.17	6812.4
646.363	6773.49
646.556	6793.97
646.749	6849.26
646.942	6877.93
647.135	6732.53
647.328	6759.15
647.521	6595.31
647.714	6591.22
647.907	6732.53
648.099	6617.84
648.292	6591.22
648.485	6589.17
648.678	6429.43
648.871	6466.29
649.064	6511.35
649.256	6382.32
649.449	6464.24
649.642	6314.74
649.835	6464.24
650.027	6161.14
650.22	6269.69
650.413	6284.02
650.605	6064.89
650.798	6093.56
650.991	6122.23
651.183	6138.62
651.376	6116.09
651.568	5925.63
651.761	6081.27
651.954	5899
652.146	6071.03
652.339	5837.56
652.531	6056.7
652.724	5749.5
652.916	5591.81
653.109	5616.38
653.301	5798.65
653.494	5839.61
653.686	5487.36
653.879	5643.01
654.071	5600
654.263	5604.1
654.456	5573.38
654.648	5391.11
654.84	5540.61
655.033	5409.54
655.225	5456.64
655.417	5374.72
655.61	5384.96
655.802	5354.24
655.994	5350.15
656.186	5405.44
656.379	5276.42
656.571	5350.15
656.763	5266.18
656.955	5176.07
657.148	5219.08
657.34	5247.75
657.532	5120.78
657.724	5153.54
657.916	5104.39
658.108	5161.73
658.3	5098.25
658.492	5061.38
658.684	4934.41
658.876	4856.59
659.068	4879.11
659.26	4930.31
659.452	4834.06
659.644	4911.88
659.836	4895.5
660.028	4967.18
660.22	4770.57
660.412	4786.96
660.604	4791.05
660.796	4786.96
660.988	4721.42
661.18	4668.17
661.372	4719.37
661.563	4700.94
661.755	4715.28
661.947	4731.66
662.139	4432.66
662.331	4653.84
662.522	4555.54
662.714	4561.68
662.906	4592.4
663.097	4524.82
663.289	4461.33
663.481	4336.4
663.673	4422.42
663.864	4387.6
664.056	4436.75
664.247	4412.18
664.439	4393.75
664.631	4352.79
664.822	4479.76
665.014	4299.54
665.205	4287.25
665.397	4252.44
665.588	4342.55
665.78	4320.02
665.971	4170.52
666.163	4113.17
666.354	4266.77
666.546	4176.66
666.737	4168.47
666.929	4111.13
667.12	4127.51
667.311	4141.85
667.503	4072.22
667.694	3990.3
667.885	4160.28
668.077	4107.03
668.268	3955.48
668.459	4074.26
668.651	3918.62
668.842	3916.57
669.033	4070.17
669.224	3965.72
669.416	4174.61
669.607	3920.67
669.798	3912.47
669.989	3951.39
670.18	3971.86
670.371	3887.9
670.563	3891.99
670.754	3980.06
670.945	3865.37
671.136	4014.87
671.327	3896.09
671.518	3812.12
671.709	4006.68
671.9	3937.05
672.091	3791.64
672.282	3824.41
672.473	3889.95
672.664	3889.95
672.855	3707.68
673.046	3902.23
673.237	3730.2
673.428	3828.51
673.619	3740.44
673.809	3816.22
674	3812.12
674.191	3896.09
674.382	3650.33
674.573	3711.77
674.764	3818.27
674.954	3863.32
675.145	3717.92
675.336	3810.08
675.527	3656.48
675.717	3758.88
675.908	3756.83
676.099	3707.68
676.289	3894.04
676.48	3709.72
676.671	3670.81
676.861	3765.02
677.052	3685.15
677.243	3754.78
677.433	3824.41
677.624	3760.92
677.814	3752.73
678.005	3791.64
678.195	3818.27
678.386	3791.64
678.576	3801.88
678.767	3728.16
678.957	3736.35
679.148	3863.32
679.338	3769.12
679.529	3627.81
679.719	3679.01
679.909	3744.54
680.1	3756.83
680.29	3914.52
680.481	3697.44
680.671	3736.35
680.861	3885.85
681.052	3662.62
681.242	3627.81
681.432	3818.27
681.622	3599.13
681.813	3693.34
682.003	3828.51
682.193	3707.68
682.383	3765.02
682.573	3668.77
682.764	3769.12
682.954	3908.38
683.144	3722.01
683.334	3783.45
683.524	3801.88
683.714	3777.31
683.904	3771.16
684.094	3765.02
684.284	3869.47
684.474	3902.23
684.664	3830.55
684.854	3648.29
685.044	3779.36
685.234	3699.48
685.424	3732.25
685.614	3660.57
685.804	3697.44
685.994	3599.13
686.184	3824.41
686.374	3650.33
686.564	3660.57
686.753	3631.9
686.943	3656.48
687.133	3515.17
687.323	3541.79
687.513	3719.96
687.702	3607.33
687.892	3539.74
688.082	3476.26
688.272	3623.71
688.461	3560.22
688.651	3545.89
688.841	3478.3
689.03	3453.73
689.22	3519.26
689.41	3380
689.599	3521.31
689.789	3484.45
689.979	3357.47
690.168	3490.59
690.358	3400.48
690.547	3412.77
690.737	3394.34
690.926	3271.46
691.116	3279.65
691.305	3425.06
691.495	3244.84
691.684	3234.6
691.874	3187.49
692.063	3199.78
692.252	3302.18
692.442	3267.36
692.631	3136.29
692.82	3142.44
693.01	3148.58
693.199	3132.2
693.388	3130.15
693.578	2933.54
693.767	3126.05
693.956	3081
694.146	3062.57
694.335	3130.15
694.524	3109.67
694.713	3050.28
694.902	2927.4
695.092	3031.85
695.281	3001.13
695.47	2882.35
695.659	2964.26
695.848	3021.61
696.037	2984.74
696.226	3105.57
696.415	3064.61
696.604	2974.5
696.793	2976.55
696.982	3037.99
697.171	3068.71
697.36	2874.15
697.549	2777.9
697.738	2765.61
697.927	2933.54
698.116	2804.52
698.305	2956.07
698.494	3007.27
698.683	2816.81
698.872	2982.7
699.061	2929.45
699.25	2884.39
699.438	2921.26
699.627	2972.46
699.816	3025.7
700.005	2896.68
700.193	2800.43
700.382	2730.8
700.571	2943.78
700.76	2984.74
700.948	2917.16
701.137	2964.26
701.326	2837.29
701.514	2904.87
701.703	2939.69
701.892	2976.55
702.08	2976.55
702.269	2886.44
702.457	2906.92
702.646	2810.67
702.834	2853.67
703.023	2915.11
703.212	2853.67
703.4	2982.7
703.589	2964.26
703.777	2931.5
703.965	2796.33
704.154	2970.41
704.342	2837.29
704.531	2853.67
704.719	2939.69
704.907	3005.22
705.096	2822.95
705.284	2945.83
705.472	2749.23
705.661	3019.56
705.849	2829.1
706.037	3015.46
706.226	2999.08
706.414	2976.55
706.602	2929.45
706.79	3035.94
706.979	2812.71
707.167	2970.41
707.355	2947.88
707.543	3064.61
707.731	3091.24
707.919	2863.91
708.107	2906.92
708.296	2980.65
708.484	2886.44
708.672	2999.08
708.86	2986.79
709.048	2968.36
709.236	2870.06
709.424	3148.58
709.612	3029.8
709.8	3025.7
709.988	3003.18
710.176	3007.27
710.364	2976.55
710.551	3015.46
710.739	3089.19
710.927	3167.01
711.115	3111.72
711.303	3037.99
711.491	3031.85
711.679	3068.71
711.866	3005.22
712.054	3134.25
712.242	2988.84
712.43	3013.42
712.617	3179.3
712.805	3044.13
712.993	3027.75
713.181	3001.13
713.368	3078.95
713.556	3224.36
713.744	2999.08
713.931	3253.03
714.119	3070.76
714.306	3097.38
714.494	3175.2
714.682	3164.97
714.869	3081
715.057	3207.97
715.244	3197.73
715.432	3214.12
715.619	3193.64
715.807	3156.77
715.994	3210.02
716.182	3162.92
716.369	3246.88
716.556	3273.51
716.744	3203.88
716.931	3179.3
717.119	3277.6
717.306	3242.79
717.493	3269.41
717.681	3173.16
717.868	3162.92
718.055	3279.65
718.242	3210.02
718.43	3271.46
718.617	3293.99
718.804	3232.55
718.991	3285.8
719.179	3412.77
719.366	3349.28
719.553	3404.58
719.74	3468.06
719.927	3466.02
720.114	3267.36
720.301	3269.41
720.488	3304.23
720.676	3291.94
720.863	3500.83
721.05	3420.96
721.237	3386.15
721.424	3285.8
721.611	3423.01
721.798	3412.77
721.985	3377.95
722.172	3377.95
722.358	3408.67
722.545	3402.53
722.732	3429.15
722.919	3523.36
723.106	3449.63
723.293	3423.01
723.48	3404.58
723.667	3468.06
723.853	3494.69
724.04	3541.79
724.227	3498.78
724.414	3341.09
724.6	3357.47
724.787	3529.5
724.974	3482.4
725.161	3480.35
725.347	3412.77
725.534	3556.13
725.72	3506.98
725.907	3472.16
726.094	3539.74
726.28	3533.6
726.467	3478.3
726.653	3416.87
726.84	3582.75
727.027	3627.81
727.213	3599.13
727.4	3568.41
727.586	3525.41
727.773	3656.48
727.959	3601.18
728.145	3748.64
728.332	3601.18
728.518	3613.47
728.705	3814.17
728.891	3668.77
729.077	3609.37
729.264	3664.67
729.45	3660.57
729.636	3756.83
729.823	3615.52
730.009	3683.1
730.195	3851.03
730.382	3793.69
730.568	3652.38
730.754	3597.09
730.94	3822.36
731.126	3863.32
731.313	3820.32
731.499	3660.57
731.685	3820.32
731.871	3808.03
732.057	3728.16
732.243	3666.72
732.429	3719.96
732.615	3781.4
732.801	3924.76
732.987	3767.07
733.173	3767.07
733.359	3613.47
733.545	3765.02
733.731	3719.96
733.917	3822.36
734.103	3939.1
734.289	3803.93
734.475	3742.49
734.661	3930.91
734.847	3754.78
735.033	3791.64
735.219	3912.47
735.404	3865.37
735.59	3840.79
735.776	3861.27
735.962	3867.42
736.148	3828.51
736.333	3853.08
736.519	3767.07
736.705	3810.08
736.89	3883.8
737.076	3922.71
737.262	3828.51
737.447	3691.29
737.633	3787.55
737.819	3846.94
738.004	3742.49
738.19	3848.99
738.375	3822.36
738.561	3996.44
738.747	3828.51
738.932	3910.43
739.118	3799.84
739.303	3805.98
739.489	3943.19
739.674	3771.16
739.859	3754.78
740.045	3785.5
740.23	3799.84
740.416	3715.87
740.601	3879.71
740.786	3623.71
740.972	3760.92
741.157	3697.44
741.342	3724.06
741.528	3742.49
741.713	3693.34
741.898	3812.12
742.084	3756.83
742.269	3736.35
742.454	3810.08
742.639	3629.85
742.824	3687.2
743.01	3623.71
743.195	3820.32
743.38	3748.64
743.565	3623.71
743.75	3672.86
743.935	3525.41
744.12	3650.33
744.305	3498.78
744.49	3513.12
744.675	3533.6
744.86	3418.91
745.045	3605.28
745.23	3617.57
745.415	3519.26
745.6	3590.94
745.785	3461.92
745.97	3492.64
746.155	3425.06
746.34	3414.82
746.525	3420.96
746.71	3541.79
746.895	3500.83
747.079	3498.78
747.264	3435.3
747.449	3412.77
747.634	3345.19
747.819	3343.14
748.003	3177.25
748.188	3351.33
748.373	3232.55
748.557	3189.54
748.742	3281.7
748.927	3250.98
749.111	3398.43
749.296	3228.45
749.481	3154.73
749.665	3134.25
749.85	3056.42
750.034	3081
750.219	3154.73
750.404	3160.87
750.588	2919.21
750.773	3005.22
750.957	3021.61
751.141	3070.76
751.326	3066.66
751.51	2851.63
751.695	2978.6
751.879	2966.31
752.064	2958.12
752.248	3021.61
752.432	2865.96
752.617	2816.81
752.801	2833.19
752.985	2870.06
753.17	2804.52
753.354	2777.9
753.538	2673.45
753.722	2585.39
753.907	2642.73
754.091	2706.22
754.275	2687.79
754.459	2769.71
754.643	2566.96
754.828	2612.01
755.012	2599.73
755.196	2618.16
755.38	2536.24
755.564	2544.43
755.748	2558.77
755.932	2624.3
756.116	2509.62
756.3	2526
756.484	2462.51
756.668	2575.15
756.852	2413.36
757.036	2407.22
757.22	2413.36
757.404	2384.69
757.588	2321.2
757.772	2335.54
757.956	2388.78
758.14	2292.53
758.323	2202.42
758.507	2388.78
758.691	2169.65
758.875	2347.83
759.059	2335.54
759.242	2300.72
759.426	2138.93
759.61	2245.43
759.794	2202.42
759.977	2153.27
760.161	2360.11
760.345	2171.7
760.528	2147.12
760.712	2048.82
760.895	2212.66
761.079	2071.35
761.263	2093.88
761.446	2118.45
761.63	2011.96
761.813	2046.77
761.997	2032.44
762.18	2048.82
762.364	2034.49
762.547	1950.52
762.731	2130.74
762.914	2022.2
763.098	1952.57
763.281	1925.94
763.464	1944.38
763.648	2040.63
763.831	1962.81
764.015	1962.81
764.198	1999.67
764.381	1913.66
764.564	1854.27
764.748	1938.23
764.931	1798.97
765.114	1905.46
765.297	1798.97
765.481	1792.83
765.664	1792.83
765.847	1889.08
766.03	1921.85
766.213	1764.15
766.397	1745.72
766.58	1733.43
766.763	1901.37
766.946	1825.59
767.129	1813.31
767.312	1700.67
767.495	1766.2
767.678	1659.71
767.861	1672
768.044	1758.01
768.227	1751.87
768.41	1555.26
768.593	1688.38
768.776	1786.68
768.959	1633.08
769.142	1688.38
769.324	1704.76
769.507	1598.27
769.69	1678.14
769.873	1663.8
770.056	1641.28
770.239	1647.42
770.421	1680.19
770.604	1770.3
770.787	1592.13
770.97	1491.77
771.152	1628.99
771.335	1549.12
771.518	1459.01
771.7	1551.17
771.883	1577.79
772.066	1557.31
772.248	1594.17
772.431	1594.17
772.613	1514.3
772.796	1422.14
772.978	1499.97
773.161	1516.35
773.343	1545.02
773.526	1403.71
773.708	1526.59
773.891	1391.42
774.073	1383.23
774.256	1422.14
774.438	1497.92
774.621	1381.18
774.803	1438.53
774.985	1416
775.168	1397.57
775.35	1372.99
775.532	1340.22
775.715	1358.66
775.897	1348.42
776.079	1364.8
776.261	1250.11
776.444	1160
776.626	1299.27
776.808	1235.78
776.99	1246.02
777.173	1284.93
777.355	1311.55
777.537	1229.63
777.719	1162.05
777.901	1145.67
778.083	1198.92
778.265	1227.59
778.447	1221.44
778.629	1178.44
778.811	1213.25
778.993	1176.39
779.175	1168.2
779.357	1100.61
779.539	1104.71
779.721	1117
779.903	1139.52
780.085	1127.24
780.267	1071.94
780.449	1100.61
780.631	1108.8
780.812	1092.42
780.994	1035.08
781.176	1076.04
781.358	1012.55
781.54	985.93
781.721	932.68
781.903	1039.17
782.085	1080.13
782.267	965.45
782.448	893.77
782.63	959.3
782.812	951.11
782.993	1043.27
783.175	922.44
783.357	932.68
783.538	977.73
783.72	1002.31
783.901	822.09
784.083	928.58
784.264	871.24
784.446	838.47
784.627	840.52
784.809	883.53
784.99	906.06
785.172	904.01
785.353	789.32
785.535	760.65
785.716	768.84
785.897	836.42
786.079	746.31
786.26	746.31
786.441	840.52
786.623	791.37
786.804	725.83
786.985	789.32
787.167	797.51
787.348	791.37
787.529	764.75
787.71	764.75
787.891	768.84
788.073	719.69
788.254	719.69
788.435	748.36
788.616	822.09
788.797	686.92
788.978	705.35
789.159	666.44
789.34	740.17
789.522	721.74
789.703	715.59
789.884	666.44
790.065	672.59
790.246	705.35
790.427	652.11
790.607	760.65
790.788	688.97
790.969	650.06
791.15	721.74
791.331	666.44
791.512	672.59
791.693	598.86
791.874	602.96
792.054	793.42
792.235	525.13
792.416	664.4
792.597	572.24
792.778	629.58
792.958	686.92
793.139	635.72
793.32	596.81
793.5	596.81
793.681	627.53
793.862	621.39
794.042	598.86
794.223	525.13
794.404	527.18
794.584	521.04
794.765	535.37
794.945	557.9
795.126	508.75
795.306	654.16
795.487	580.43
795.667	502.61
795.848	586.57
796.028	545.61
796.209	541.52
796.389	584.52
796.57	551.76
796.75	566.09
796.93	508.75
797.111	469.84
797.291	490.32
797.471	582.48
797.652	420.69
797.832	443.21
798.012	545.61
798.192	439.12
798.373	455.5
798.553	541.52
798.733	465.74
798.913	422.73
799.093	428.88
799.274	525.13
799.454	437.07
799.634	504.65
799.814	449.36
799.994	426.83
800.174	453.45
800.354	451.41
800.534	392.02
800.714	422.73
800.894	383.82
801.074	398.16
801.254	385.87
801.434	428.88
801.614	418.64
801.794	437.07
801.974	1172.29
802.154	361.3
802.334	420.69
802.514	389.97
802.693	428.88
802.873	406.35
803.053	459.6
803.233	385.87
803.413	318.29
803.592	478.03
803.772	342.86
803.952	500.56
804.131	359.25
804.311	475.98
804.491	443.21
804.67	342.86
804.85	392.02
805.03	428.88
805.209	338.77
805.389	344.91
805.568	398.16
805.748	324.43
805.928	338.77
806.107	330.58
806.287	359.25
806.466	357.2
806.646	414.54
806.825	291.66
807.004	338.77
807.184	338.77
807.363	330.58
807.543	324.43
807.722	326.48
807.901	363.34
808.081	340.82
808.26	275.28
808.439	389.97
808.619	330.58
808.798	346.96
808.977	392.02
809.156	349.01
809.336	369.49
809.515	363.34
809.694	287.57
809.873	346.96
810.052	377.68
810.231	385.87
810.411	252.75
810.59	349.01
810.769	336.72
810.948	238.42
811.127	258.9
811.306	306
811.485	338.77
811.664	328.53
811.843	267.09
812.022	295.76
812.201	291.66
812.38	267.09
812.559	273.23
812.737	320.34
812.916	226.13
813.095	275.28
813.274	271.19
813.453	258.9
813.632	330.58
813.811	336.72
813.989	140.12
814.168	275.28
814.347	217.94
814.526	219.99
814.704	344.91
814.883	336.72
815.062	254.8
815.24	281.43
815.419	240.47
815.598	197.46
815.776	271.19
815.955	215.89
816.133	281.43
816.312	289.62
816.49	224.08
816.669	258.9
816.847	279.38
817.026	215.89
817.204	207.7
817.383	262.99
817.561	195.41
817.74	226.13
817.918	246.61
818.097	256.85
818.275	252.75
818.453	265.04
818.632	199.51
818.81	303.95
818.988	195.41
819.167	262.99
819.345	258.9
819.523	209.75
819.701	232.27
819.879	199.51
820.058	179.03
820.236	193.36
820.414	232.27
820.592	222.03
820.77	269.14
820.948	187.22
821.127	228.18
821.305	236.37
821.483	226.13
821.661	244.56
821.839	201.55
822.017	191.31
822.195	240.47
822.373	170.83
822.551	236.37
822.729	275.28
822.907	240.47
823.085	269.14
823.262	191.31
823.44	219.99
823.618	265.04
823.796	160.59
823.974	203.6
824.152	240.47
824.329	232.27
824.507	140.12
824.685	248.66
824.863	156.5
825.04	224.08
825.218	226.13
825.396	162.64
825.574	201.55
825.751	133.97
825.929	191.31
826.107	142.16
826.284	174.93
826.462	197.46
826.639	131.92
826.817	101.2
826.994	207.7
827.172	138.07
827.349	213.84
827.527	142.16
827.704	199.51
827.882	191.31
828.059	164.69
828.237	140.12
828.414	252.75
828.591	82.77
828.769	158.55
828.946	105.3
829.124	201.55
829.301	168.79
829.478	199.51
829.655	174.93
829.833	107.35
830.01	148.31
830.187	170.83
830.364	117.59
830.542	117.59
830.719	138.07
830.896	60.24
831.073	176.98
831.25	131.92
831.427	113.49
831.604	142.16
831.782	189.27
831.959	217.94
832.136	142.16
832.313	115.54
832.49	74.58
832.667	174.93
832.844	111.44
833.021	224.08
833.198	148.31
833.374	140.12
833.551	47.96
833.728	146.26
833.905	209.75
834.082	72.53
834.259	121.68
834.436	232.27
834.612	140.12
834.789	140.12
834.966	162.64
835.143	127.83
835.319	127.83
835.496	140.12
835.673	45.91
835.85	127.83
836.026	140.12
836.203	166.74
836.38	176.98
836.556	78.68
836.733	72.53
836.909	142.16
837.086	93.01
837.262	133.97
837.439	86.87
837.616	197.46
837.792	146.26
837.968	152.4
838.145	62.29
838.321	54.1
838.498	150.36
838.674	99.16
838.851	113.49
839.027	86.87
839.203	101.2
839.38	162.64
839.556	170.83
839.732	191.31
839.909	144.21
840.085	78.68
840.261	133.97
840.437	68.44
840.614	88.92
840.79	144.21
840.966	119.64
841.142	90.96
841.318	131.92
841.494	88.92
841.671	90.96
841.847	80.72
842.023	56.15
842.199	109.4
842.375	150.36
842.551	-11.43
842.727	97.11
842.903	142.16
843.079	54.1
843.255	80.72
843.431	97.11
843.607	68.44
843.783	0.85
843.959	140.12
844.134	2.9
844.31	125.78
844.486	101.2
844.662	78.68
844.838	113.49
845.013	131.92
845.189	117.59
845.365	86.87
845.541	109.4
845.716	138.07
845.892	97.11
846.068	-13.48
846.244	97.11
846.419	25.43
846.595	64.34
846.77	43.86
846.946	131.92
847.122	27.48
847.297	29.52
847.473	164.69
847.648	11.09
847.824	62.29
847.999	56.15
848.175	111.44
848.35	129.88
848.526	97.11
848.701	80.72
848.876	76.63
849.052	66.39
849.227	84.82
849.403	15.19
849.578	78.68
849.753	113.49
849.929	142.16
850.104	4.95
850.279	109.4
850.454	41.81
850.63	105.3
850.805	35.67
850.98	93.01
851.155	23.38
851.33	142.16
851.505	64.34
851.681	66.39
851.856	23.38
852.031	150.36
852.206	115.54
852.381	101.2
852.556	52.05
852.731	52.05
852.906	35.67
853.081	107.35
853.256	133.97
853.431	84.82
853.606	111.44
853.781	88.92
853.956	58.2
854.131	64.34
854.305	9.05
854.48	76.63
854.655	31.57
854.83	82.77
855.005	90.96
855.18	47.96
855.354	17.24
855.529	115.54
855.704	9.05
855.879	99.16
856.053	-27.82
856.228	90.96
856.403	58.2
856.577	-17.58
856.752	37.72
856.926	62.29
857.101	29.52
857.276	84.82
857.45	76.63
857.625	99.16
857.799	50
857.974	88.92
858.148	-5.29
858.323	68.44
858.497	-27.82
858.672	23.38
858.846	-23.72
859.02	111.44
859.195	39.76
859.369	76.63
859.543	37.72
859.718	27.48
859.892	66.39
860.066	70.48
860.241	60.24
860.415	4.95
860.589	37.72
860.763	7
860.938	54.1
861.112	97.11
861.286	0.85
861.46	111.44
861.634	90.96
861.808	103.25
861.982	-13.48
862.157	27.48
862.331	95.06
862.505	4.95
862.679	7
862.853	35.67
863.027	2.9
863.201	50
863.375	4.95
863.549	35.67
863.722	27.48
863.896	70.48
864.07	19.29
864.244	13.14
864.418	121.68
864.592	105.3
864.766	35.67
864.939	62.29
865.113	41.81
865.287	95.06
865.461	31.57
865.634	27.48
865.808	-3.24
865.982	0.85
866.156	43.86
866.329	25.43
866.503	-11.43
866.676	88.92
866.85	90.96
867.024	50
867.197	54.1
867.371	23.38
867.544	7
867.718	66.39
867.891	15.19
868.065	0.85
868.238	35.67
868.412	88.92
868.585	76.63
868.759	58.2
868.932	43.86
869.105	54.1
869.279	43.86
869.452	-27.82
869.625	103.25
869.799	66.39
869.972	-9.39
870.145	19.29
870.319	111.44
870.492	31.57
870.665	-1.19
870.838	62.29
871.011	-58.54
871.185	2.9
871.358	68.44
871.531	123.73
871.704	2.9
871.877	9.05
872.05	70.48
872.223	-23.72
872.396	62.29
872.569	7
872.742	45.91
872.915	19.29
873.088	-11.43
873.261	27.48
873.434	113.49
873.607	37.72
873.78	101.2
873.953	37.72
874.126	31.57
874.299	9.05
874.471	-19.63
874.644	-13.48
874.817	29.52
874.99	80.72
875.163	35.67
875.335	105.3
875.508	95.06
875.681	86.87
875.853	66.39
876.026	50
876.199	-9.39
876.371	9.05
876.544	56.15
876.717	-11.43
876.889	2.9
877.062	-40.11
877.234	-33.96
877.407	19.29
877.579	23.38
877.752	78.68
877.924	17.24
878.097	54.1
878.269	54.1
878.442	13.14
878.614	45.91
878.786	84.82
878.959	2.9
879.131	123.73
879.303	50
879.476	-5.29
879.648	-3.24
879.82	-33.96
879.993	-27.82
880.165	-23.72
880.337	97.11
880.509	23.38
880.681	-52.39
880.854	52.05
881.026	66.39
881.198	70.48
881.37	31.57
881.542	-11.43
881.714	23.38
881.886	-40.11
882.058	35.67
882.23	52.05
882.402	62.29
882.574	9.05
882.746	54.1
882.918	52.05
883.09	35.67
883.262	43.86
883.434	-11.43
883.606	-1.19
883.778	35.67
883.95	80.72
884.122	-17.58
884.293	64.34
884.465	-1.19
884.637	-17.58
884.809	-58.54
884.98	80.72
885.152	74.58
885.324	80.72
885.496	15.19
885.667	41.81
885.839	41.81
886.011	84.82
886.182	19.29
886.354	2.9
886.525	66.39
886.697	76.63
886.869	29.52
887.04	-31.91
887.212	84.82
887.383	43.86
887.555	70.48
887.726	41.81
887.897	39.76
888.069	19.29
888.24	60.24
888.412	39.76
888.583	-31.91
888.754	13.14
888.926	-1.19
889.097	103.25
889.268	13.14
889.44	47.96
889.611	2.9
889.782	27.48
889.953	-1.19
890.125	74.58
890.296	29.52
890.467	-42.15
890.638	-3.24
890.809	-3.24
890.98	-19.63
891.151	33.62
891.323	45.91
891.494	-15.53
891.665	17.24
891.836	-54.44
892.007	29.52
892.178	7
892.349	47.96
892.52	-21.67
892.691	19.29
892.862	-13.48
893.032	-36.01
893.203	9.05
893.374	19.29
893.545	72.53
893.716	-46.25
893.887	115.54
894.057	64.34
894.228	23.38
894.399	7
894.57	74.58
894.74	41.81
894.911	74.58
895.082	-9.39
895.253	15.19
895.423	-15.53
895.594	62.29
895.764	-36.01
895.935	-56.49
896.106	-9.39
896.276	2.9
896.447	43.86
896.617	23.38
896.788	-38.06
896.958	47.96
897.129	-46.25
897.299	25.43
897.47	60.24
897.64	56.15
897.81	15.19
897.981	11.09
898.151	-46.25
898.322	13.14
898.492	31.57
898.662	9.05
898.832	-70.83
899.003	15.19
899.173	-23.72
899.343	-54.44
899.513	17.24
