Data from USB4F104151__64__12-24-12-772.txt Node

Date: Fri Mar 14 12:24:12 EDT 2025
User: louis
Spectrometer: USB4F10415
Trigger mode: 4
Integration Time (sec): 3.500000E-2
Scans to average: 1
Electric dark correction enabled: true
Nonlinearity correction enabled: false
Boxcar width: 0
XAxis mode: Wavelengths
Number of Pixels in Spectrum: 3648
>>>>>Begin Spectral Data<<<<<
178.204	-128
178.424	-128
178.644	-128
178.864	-166.91
179.084	-111.61
179.304	-5.12
179.524	-13.31
179.744	-21.5
179.964	9.22
180.184	15.36
180.404	80.89
180.624	-25.6
180.844	-25.6
181.064	-60.42
181.283	39.94
181.503	-21.5
181.723	27.65
181.943	-33.79
182.163	66.56
182.383	46.08
182.602	33.79
182.822	41.98
183.042	-17.41
183.262	-29.7
183.482	31.74
183.701	5.12
183.921	52.22
184.141	9.22
184.361	23.55
184.58	-5.12
184.8	58.37
185.02	68.61
185.239	115.71
185.459	80.89
185.679	31.74
185.898	37.89
186.118	46.08
186.338	11.26
186.557	-17.41
186.777	-31.74
186.997	60.42
187.216	52.22
187.436	23.55
187.655	19.46
187.875	21.5
188.095	48.13
188.314	58.37
188.534	66.56
188.753	23.55
188.973	97.28
189.192	31.74
189.412	1.02
189.631	21.5
189.851	7.17
190.07	19.46
190.29	-70.65
190.509	25.6
190.729	48.13
190.948	-31.74
191.168	203.77
191.387	54.27
191.607	3.07
191.826	58.37
192.045	15.36
192.265	11.26
192.484	27.65
192.704	-9.22
192.923	11.26
193.142	84.99
193.362	-19.46
193.581	84.99
193.8	23.55
194.02	56.32
194.239	46.08
194.458	82.94
194.678	78.85
194.897	25.6
195.116	-13.31
195.335	1.02
195.555	11.26
195.774	-50.18
195.993	-13.31
196.212	-17.41
196.432	5.12
196.651	54.27
196.87	-41.98
197.089	160.77
197.308	46.08
197.528	7.17
197.747	-21.5
197.966	44.03
198.185	82.94
198.404	19.46
198.623	128
198.842	80.89
199.062	41.98
199.281	66.56
199.5	-82.94
199.719	33.79
199.938	56.32
200.157	99.33
200.376	62.46
200.595	78.85
200.814	46.08
201.033	48.13
201.252	25.6
201.471	50.18
201.69	29.7
201.909	3.07
202.128	27.65
202.347	84.99
202.566	29.7
202.785	52.22
203.004	-62.46
203.223	109.57
203.442	95.23
203.661	5.12
203.879	97.28
204.098	97.28
204.317	-74.75
204.536	21.5
204.755	-1.02
204.974	7.17
205.193	72.7
205.411	56.32
205.63	113.66
205.849	11.26
206.068	-78.85
206.287	29.7
206.505	1.02
206.724	46.08
206.943	39.94
207.162	74.75
207.381	70.65
207.599	35.84
207.818	-5.12
208.037	52.22
208.255	25.6
208.474	66.56
208.693	21.5
208.911	74.75
209.13	-15.36
209.349	54.27
209.567	-3.07
209.786	82.94
210.005	48.13
210.223	46.08
210.442	-82.94
210.661	17.41
210.879	5.12
211.098	-7.17
211.316	52.22
211.535	19.46
211.753	1.02
211.972	35.84
212.191	-31.74
212.409	-31.74
212.628	19.46
212.846	-84.99
213.065	82.94
213.283	60.42
213.502	23.55
213.72	62.46
213.938	31.74
214.157	68.61
214.375	60.42
214.594	-19.46
214.812	17.41
215.031	27.65
215.249	7.17
215.467	39.94
215.686	27.65
215.904	50.18
216.122	64.51
216.341	99.33
216.559	72.7
216.778	54.27
216.996	68.61
217.214	19.46
217.432	-7.17
217.651	31.74
217.869	105.47
218.087	74.75
218.306	-11.26
218.524	68.61
218.742	-21.5
218.96	60.42
219.179	33.79
219.397	52.22
219.615	82.94
219.833	29.7
220.051	11.26
220.27	58.37
220.488	-19.46
220.706	-39.94
220.924	-27.65
221.142	7.17
221.36	132.09
221.578	17.41
221.796	-13.31
222.015	132.09
222.233	-5.12
222.451	105.47
222.669	-56.32
222.887	15.36
223.105	-64.51
223.323	50.18
223.541	-7.17
223.759	70.65
223.977	-33.79
224.195	7.17
224.413	54.27
224.631	48.13
224.849	11.26
225.067	89.09
225.285	56.32
225.503	9.22
225.721	23.55
225.939	23.55
226.157	60.42
226.375	168.96
226.592	-3.07
226.81	33.79
227.028	-48.13
227.246	125.95
227.464	29.7
227.682	41.98
227.9	46.08
228.117	46.08
228.335	13.31
228.553	13.31
228.771	9.22
228.989	15.36
229.206	-35.84
229.424	9.22
229.642	7.17
229.86	-15.36
230.077	31.74
230.295	11.26
230.513	46.08
230.731	5.12
230.948	95.23
231.166	80.89
231.384	21.5
231.601	-91.13
231.819	29.7
232.037	-5.12
232.254	-27.65
232.472	48.13
232.689	11.26
232.907	78.85
233.125	25.6
233.342	-3.07
233.56	-13.31
233.777	11.26
233.995	-19.46
234.213	52.22
234.43	50.18
234.648	-31.74
234.865	60.42
235.083	68.61
235.3	-1.02
235.518	60.42
235.735	13.31
235.953	41.98
236.17	-13.31
236.388	-15.36
236.605	33.79
236.822	95.23
237.04	15.36
237.257	21.5
237.475	3.07
237.692	54.27
237.909	9.22
238.127	37.89
238.344	84.99
238.562	64.51
238.779	7.17
238.996	-23.55
239.214	-35.84
239.431	46.08
239.648	-31.74
239.865	35.84
240.083	19.46
240.3	56.32
240.517	-1.02
240.735	-3.07
240.952	33.79
241.169	48.13
241.386	70.65
241.603	62.46
241.821	-66.56
242.038	15.36
242.255	44.03
242.472	-13.31
242.689	25.6
242.907	50.18
243.124	15.36
243.341	-1.02
243.558	-41.98
243.775	93.18
243.992	-35.84
244.209	-5.12
244.426	74.75
244.643	41.98
244.86	-5.12
245.078	-5.12
245.295	21.5
245.512	-33.79
245.729	33.79
245.946	74.75
246.163	46.08
246.38	35.84
246.597	68.61
246.814	39.94
247.031	27.65
247.248	39.94
247.464	35.84
247.681	23.55
247.898	19.46
248.115	15.36
248.332	-3.07
248.549	115.71
248.766	39.94
248.983	9.22
249.2	19.46
249.417	80.89
249.633	-29.7
249.85	-46.08
250.067	29.7
250.284	-56.32
250.501	7.17
250.717	105.47
250.934	7.17
251.151	-46.08
251.368	64.51
251.585	44.03
251.801	11.26
252.018	-35.84
252.235	1.02
252.451	-11.26
252.668	-48.13
252.885	82.94
253.102	54.27
253.318	-15.36
253.535	50.18
253.752	13.31
253.968	46.08
254.185	-35.84
254.401	74.75
254.618	-29.7
254.835	19.46
255.051	89.09
255.268	48.13
255.484	37.89
255.701	-15.36
255.917	-27.65
256.134	48.13
256.351	-48.13
256.567	-50.18
256.784	87.04
257	19.46
257.217	52.22
257.433	52.22
257.65	-27.65
257.866	95.23
258.082	-3.07
258.299	23.55
258.515	-11.26
258.732	-9.22
258.948	-37.89
259.165	-1.02
259.381	35.84
259.597	58.37
259.814	13.31
260.03	3.07
260.246	15.36
260.463	48.13
260.679	27.65
260.895	35.84
261.112	60.42
261.328	46.08
261.544	-58.37
261.761	68.61
261.977	35.84
262.193	13.31
262.409	56.32
262.626	50.18
262.842	-35.84
263.058	11.26
263.274	-9.22
263.49	70.65
263.707	103.42
263.923	52.22
264.139	54.27
264.355	-44.03
264.571	64.51
264.787	7.17
265.004	31.74
265.22	-31.74
265.436	35.84
265.652	27.65
265.868	9.22
266.084	-15.36
266.3	99.33
266.516	-3.07
266.732	68.61
266.948	7.17
267.164	15.36
267.38	41.98
267.596	48.13
267.812	109.57
268.028	17.41
268.244	54.27
268.46	-31.74
268.676	72.7
268.892	46.08
269.108	9.22
269.324	-15.36
269.54	1.02
269.756	74.75
269.972	-66.56
270.188	60.42
270.403	31.74
270.619	-3.07
270.835	5.12
271.051	44.03
271.267	-52.22
271.483	29.7
271.698	-17.41
271.914	-58.37
272.13	13.31
272.346	-21.5
272.562	-5.12
272.777	35.84
272.993	80.89
273.209	5.12
273.425	21.5
273.64	-15.36
273.856	76.8
274.072	5.12
274.287	27.65
274.503	33.79
274.719	37.89
274.934	52.22
275.15	31.74
275.366	25.6
275.581	17.41
275.797	5.12
276.012	17.41
276.228	17.41
276.444	-13.31
276.659	44.03
276.875	11.26
277.09	29.7
277.306	-13.31
277.521	7.17
277.737	-17.41
277.952	33.79
278.168	70.65
278.383	52.22
278.599	46.08
278.814	70.65
279.03	52.22
279.245	19.46
279.461	62.46
279.676	46.08
279.892	-5.12
280.107	-60.42
280.322	-1.02
280.538	25.6
280.753	5.12
280.969	-15.36
281.184	37.89
281.399	48.13
281.615	41.98
281.83	15.36
282.045	29.7
282.26	33.79
282.476	41.98
282.691	19.46
282.906	56.32
283.122	3.07
283.337	5.12
283.552	68.61
283.767	-7.17
283.983	19.46
284.198	3.07
284.413	128
284.628	-44.03
284.843	-27.65
285.058	15.36
285.274	23.55
285.489	1.02
285.704	101.37
285.919	-27.65
286.134	25.6
286.349	-35.84
286.564	-78.85
286.779	15.36
286.995	25.6
287.21	54.27
287.425	21.5
287.64	9.22
287.855	-19.46
288.07	-76.8
288.285	3.07
288.5	99.33
288.715	84.99
288.93	29.7
289.145	-15.36
289.36	84.99
289.575	95.23
289.79	23.55
290.004	48.13
290.219	7.17
290.434	-39.94
290.649	21.5
290.864	-7.17
291.079	29.7
291.294	58.37
291.509	41.98
291.724	56.32
291.938	64.51
292.153	113.66
292.368	-46.08
292.583	-13.31
292.798	70.65
293.012	41.98
293.227	-5.12
293.442	74.75
293.657	48.13
293.871	128
294.086	62.46
294.301	15.36
294.516	46.08
294.73	121.85
294.945	-3.07
295.16	35.84
295.374	64.51
295.589	48.13
295.804	7.17
296.018	-1.02
296.233	17.41
296.447	146.43
296.662	93.18
296.877	33.79
297.091	84.99
297.306	31.74
297.52	21.5
297.735	70.65
297.949	72.7
298.164	23.55
298.378	56.32
298.593	-5.12
298.807	3.07
299.022	33.79
299.236	68.61
299.451	19.46
299.665	48.13
299.88	50.18
300.094	72.7
300.309	70.65
300.523	-11.26
300.737	52.22
300.952	84.99
301.166	-9.22
301.381	44.03
301.595	-15.36
301.809	-1.02
302.024	7.17
302.238	80.89
302.452	134.14
302.667	31.74
302.881	60.42
303.095	3.07
303.309	13.31
303.524	-56.32
303.738	62.46
303.952	-5.12
304.166	-23.55
304.381	23.55
304.595	48.13
304.809	-19.46
305.023	29.7
305.237	54.27
305.452	29.7
305.666	82.94
305.88	21.5
306.094	48.13
306.308	54.27
306.522	68.61
306.736	48.13
306.95	35.84
307.164	1.02
307.379	-13.31
307.593	66.56
307.807	-3.07
308.021	31.74
308.235	29.7
308.449	-3.07
308.663	44.03
308.877	70.65
309.091	117.76
309.305	44.03
309.519	-29.7
309.733	54.27
309.947	11.26
310.161	101.37
310.374	-1.02
310.588	64.51
310.802	-9.22
311.016	-35.84
311.23	7.17
311.444	9.22
311.658	44.03
311.872	58.37
312.085	72.7
312.299	41.98
312.513	101.37
312.727	89.09
312.941	37.89
313.154	-33.79
313.368	48.13
313.582	39.94
313.796	-13.31
314.009	37.89
314.223	11.26
314.437	-11.26
314.651	46.08
314.864	41.98
315.078	37.89
315.292	-33.79
315.505	52.22
315.719	70.65
315.933	11.26
316.146	68.61
316.36	17.41
316.573	58.37
316.787	107.52
317.001	64.51
317.214	7.17
317.428	-46.08
317.641	33.79
317.855	15.36
318.068	15.36
318.282	56.32
318.495	64.51
318.709	103.42
318.922	-13.31
319.136	39.94
319.349	87.04
319.563	25.6
319.776	97.28
319.99	11.26
320.203	41.98
320.417	107.52
320.63	39.94
320.843	95.23
321.057	50.18
321.27	-27.65
321.483	27.65
321.697	128
321.91	-54.27
322.124	-15.36
322.337	52.22
322.55	27.65
322.763	-31.74
322.977	29.7
323.19	46.08
323.403	21.5
323.617	-72.7
323.83	113.66
324.043	-39.94
324.256	33.79
324.469	-9.22
324.683	60.42
324.896	62.46
325.109	82.94
325.322	1.02
325.535	-11.26
325.748	39.94
325.962	15.36
326.175	76.8
326.388	89.09
326.601	82.94
326.814	15.36
327.027	17.41
327.24	125.95
327.453	-44.03
327.666	64.51
327.879	-17.41
328.092	84.99
328.305	70.65
328.518	-3.07
328.731	39.94
328.944	46.08
329.157	-5.12
329.37	64.51
329.583	87.04
329.796	121.85
330.009	-23.55
330.222	15.36
330.435	52.22
330.648	13.31
330.861	121.85
331.073	107.52
331.286	87.04
331.499	13.31
331.712	48.13
331.925	58.37
332.138	50.18
332.35	33.79
332.563	-11.26
332.776	117.76
332.989	56.32
333.202	66.56
333.414	3.07
333.627	15.36
333.84	-3.07
334.053	7.17
334.265	62.46
334.478	-54.27
334.691	3.07
334.903	-50.18
335.116	-25.6
335.329	48.13
335.541	52.22
335.754	23.55
335.966	41.98
336.179	76.8
336.392	11.26
336.604	46.08
336.817	-19.46
337.029	89.09
337.242	82.94
337.454	52.22
337.667	11.26
337.88	64.51
338.092	107.52
338.305	31.74
338.517	31.74
338.729	21.5
338.942	93.18
339.154	-19.46
339.367	-19.46
339.579	46.08
339.792	33.79
340.004	-35.84
340.217	-13.31
340.429	-13.31
340.641	-11.26
340.854	-54.27
341.066	58.37
341.278	78.85
341.491	74.75
341.703	72.7
341.915	17.41
342.128	41.98
342.34	46.08
342.552	1.02
342.764	97.28
342.977	-15.36
343.189	-35.84
343.401	3.07
343.613	41.98
343.826	87.04
344.038	74.75
344.25	56.32
344.462	23.55
344.674	-37.89
344.886	41.98
345.099	31.74
345.311	41.98
345.523	78.85
345.735	-31.74
345.947	109.57
346.159	-58.37
346.371	72.7
346.583	-29.7
346.795	113.66
347.007	35.84
347.219	66.56
347.431	23.55
347.643	84.99
347.855	-13.31
348.067	-11.26
348.279	-17.41
348.491	-50.18
348.703	78.85
348.915	60.42
349.127	-5.12
349.339	46.08
349.551	23.55
349.763	58.37
349.975	27.65
350.187	7.17
350.399	91.13
350.61	17.41
350.822	-19.46
351.034	27.65
351.246	7.17
351.458	-39.94
351.669	62.46
351.881	44.03
352.093	84.99
352.305	62.46
352.517	35.84
352.728	84.99
352.94	48.13
353.152	41.98
353.363	7.17
353.575	60.42
353.787	-3.07
353.999	97.28
354.21	68.61
354.422	-3.07
354.633	-7.17
354.845	33.79
355.057	-3.07
355.268	48.13
355.48	27.65
355.692	23.55
355.903	76.8
356.115	17.41
356.326	23.55
356.538	72.7
356.749	95.23
356.961	93.18
357.172	68.61
357.384	91.13
357.595	66.56
357.807	84.99
358.018	97.28
358.23	39.94
358.441	64.51
358.653	52.22
358.864	44.03
359.075	62.46
359.287	52.22
359.498	95.23
359.709	66.56
359.921	17.41
360.132	35.84
360.344	66.56
360.555	13.31
360.766	89.09
360.977	27.65
361.189	-19.46
361.4	13.31
361.611	70.65
361.823	89.09
362.034	44.03
362.245	-109.57
362.456	3.07
362.667	33.79
362.879	5.12
363.09	3.07
363.301	89.09
363.512	64.51
363.723	56.32
363.935	3.07
364.146	-13.31
364.357	-1.02
364.568	80.89
364.779	-7.17
364.99	91.13
365.201	25.6
365.412	58.37
365.623	-37.89
365.834	50.18
366.045	9.22
366.256	33.79
366.467	-27.65
366.678	-7.17
366.889	50.18
367.1	9.22
367.311	41.98
367.522	66.56
367.733	58.37
367.944	111.61
368.155	1.02
368.366	97.28
368.577	62.46
368.788	64.51
368.999	-31.74
369.209	31.74
369.42	93.18
369.631	123.9
369.842	15.36
370.053	21.5
370.264	27.65
370.474	31.74
370.685	70.65
370.896	74.75
371.107	128
371.317	-37.89
371.528	-7.17
371.739	64.51
371.95	39.94
372.16	68.61
372.371	25.6
372.582	11.26
372.792	29.7
373.003	113.66
373.214	3.07
373.424	27.65
373.635	9.22
373.846	70.65
374.056	93.18
374.267	-74.75
374.477	84.99
374.688	17.41
374.898	-19.46
375.109	54.27
375.319	50.18
375.53	50.18
375.74	13.31
375.951	15.36
376.161	31.74
376.372	46.08
376.582	23.55
376.793	74.75
377.003	21.5
377.214	11.26
377.424	56.32
377.635	66.56
377.845	37.89
378.055	103.42
378.266	-15.36
378.476	84.99
378.686	80.89
378.897	58.37
379.107	58.37
379.317	50.18
379.528	-9.22
379.738	76.8
379.948	33.79
380.158	91.13
380.369	29.7
380.579	56.32
380.789	-15.36
380.999	37.89
381.21	64.51
381.42	148.48
381.63	-33.79
381.84	162.81
382.05	48.13
382.261	-17.41
382.471	60.42
382.681	13.31
382.891	58.37
383.101	13.31
383.311	39.94
383.521	23.55
383.731	39.94
383.941	31.74
384.151	7.17
384.361	52.22
384.571	50.18
384.781	138.24
384.991	82.94
385.201	125.95
385.411	91.13
385.621	52.22
385.831	39.94
386.041	15.36
386.251	56.32
386.461	162.81
386.671	17.41
386.881	41.98
387.091	44.03
387.301	136.19
387.511	11.26
387.72	-23.55
387.93	76.8
388.14	25.6
388.35	-7.17
388.56	105.47
388.769	41.98
388.979	48.13
389.189	-9.22
389.399	111.61
389.609	87.04
389.818	70.65
390.028	-3.07
390.238	107.52
390.447	37.89
390.657	93.18
390.867	11.26
391.076	-15.36
391.286	25.6
391.496	64.51
391.705	25.6
391.915	111.61
392.125	17.41
392.334	87.04
392.544	93.18
392.753	11.26
392.963	31.74
393.172	76.8
393.382	33.79
393.591	140.29
393.801	58.37
394.01	72.7
394.22	111.61
394.429	74.75
394.639	74.75
394.848	-21.5
395.058	84.99
395.267	87.04
395.477	25.6
395.686	123.9
395.895	136.19
396.105	80.89
396.314	91.13
396.524	31.74
396.733	93.18
396.942	152.57
397.152	91.13
397.361	68.61
397.57	103.42
397.78	50.18
397.989	152.57
398.198	168.96
398.407	91.13
398.617	31.74
398.826	91.13
399.035	99.33
399.244	60.42
399.453	76.8
399.663	119.81
399.872	107.52
400.081	58.37
400.29	177.15
400.499	29.7
400.708	64.51
400.917	76.8
401.127	140.29
401.336	93.18
401.545	162.81
401.754	97.28
401.963	119.81
402.172	64.51
402.381	111.61
402.59	99.33
402.799	152.57
403.008	142.33
403.217	117.76
403.426	107.52
403.635	82.94
403.844	91.13
404.053	107.52
404.262	58.37
404.471	166.91
404.68	173.05
404.888	171.01
405.097	113.66
405.306	142.33
405.515	166.91
405.724	171.01
405.933	195.58
406.142	173.05
406.35	203.77
406.559	123.9
406.768	152.57
406.977	164.86
407.185	146.43
407.394	156.67
407.603	101.37
407.812	195.58
408.02	189.44
408.229	160.77
408.438	160.77
408.646	160.77
408.855	119.81
409.064	168.96
409.272	230.4
409.481	275.45
409.69	214.01
409.898	191.49
410.107	240.64
410.315	312.32
410.524	254.97
410.733	267.26
410.941	248.83
411.15	349.18
411.358	361.47
411.567	461.82
411.775	404.47
411.984	441.34
412.192	361.47
412.401	406.52
412.609	390.14
412.818	455.67
413.026	400.38
413.234	463.86
413.443	386.04
413.651	465.91
413.86	472.06
414.068	582.65
414.276	537.59
414.485	523.26
414.693	576.5
414.901	625.65
415.11	605.17
415.318	580.6
415.526	658.42
415.734	707.57
415.943	719.86
416.151	707.57
416.359	699.38
416.567	826.36
416.776	838.64
416.984	842.74
417.192	943.09
417.4	803.83
417.608	848.88
417.817	875.51
418.025	1053.68
418.233	1031.15
418.441	1072.11
418.649	1035.25
418.857	1088.5
419.065	1133.55
419.273	1076.21
419.481	1164.27
419.689	1186.8
419.897	1342.44
420.105	1385.45
420.313	1416.17
420.521	1446.89
420.729	1448.94
420.937	1553.38
421.145	1414.12
421.353	1643.49
421.561	1711.08
421.769	1803.24
421.977	1850.34
422.185	1790.95
422.393	1930.21
422.601	2092
422.809	2083.81
423.017	2005.99
423.224	2102.24
423.432	2212.83
423.64	2157.54
423.848	2509.79
424.056	2307.04
424.263	2538.46
424.471	2503.64
424.679	2618.33
424.887	2671.58
425.094	2839.51
425.302	2798.55
425.51	2898.9
425.718	3007.44
425.925	3056.59
426.133	3046.35
426.341	3458
426.548	3468.24
426.756	3398.6
426.964	3515.34
427.171	3763.14
427.379	3660.74
427.586	3933.12
427.794	3853.25
428.001	4150.21
428.209	4326.33
428.417	4330.43
428.624	4479.93
428.832	4567.99
429.039	4496.32
429.247	4633.53
429.454	4856.76
429.662	5112.75
429.869	4805.56
430.076	5526.44
430.284	5233.58
430.491	5581.74
430.699	5835.69
430.906	5764.01
431.114	5888.93
431.321	5915.56
431.528	6179.75
431.736	6548.38
431.943	6925.21
432.15	6448.03
432.358	6976.41
432.565	7138.2
432.772	6972.31
432.979	7463.82
433.187	7531.41
433.394	7627.66
433.601	8156.04
433.808	8262.53
434.016	8133.51
434.223	8229.76
434.43	8903.54
434.637	8981.37
434.844	9094.01
435.052	9501.55
435.259	9329.52
435.466	9429.87
435.673	9329.52
435.88	10068.84
436.087	10462.05
436.294	10498.91
436.501	10175.33
436.708	10437.47
436.915	10883.93
437.122	11293.52
437.329	11236.18
437.537	11651.92
437.743	12098.38
437.95	11901.77
438.157	12464.96
438.364	12712.77
438.571	13052.73
438.778	12860.22
438.985	14226.21
439.192	13609.78
439.399	14072.62
439.606	13531.95
439.813	14496.55
440.02	15510.29
440.227	14988.06
440.433	14922.52
440.64	15440.66
440.847	15311.64
441.054	15563.54
441.261	16675.59
441.467	16450.31
441.674	16790.27
441.881	17521.4
442.088	17457.91
442.294	17091.32
442.501	17906.41
442.708	18229.99
442.914	18778.85
443.121	19843.79
443.328	18883.3
443.534	20441.8
443.741	20089.55
443.948	19665.62
444.154	20968.13
444.361	21217.98
444.568	21029.57
444.774	21158.59
444.981	21291.71
445.187	22131.37
445.394	22831.78
445.6	22878.88
445.807	24713.86
446.013	23784.09
446.22	24101.52
446.426	25170.56
446.633	25287.29
446.839	26237.55
447.046	24967.81
447.252	26866.28
447.459	26630.76
447.665	26360.43
447.871	27609.69
448.078	28951.11
448.284	27480.67
448.491	28199.51
448.697	29106.76
448.903	29780.54
449.11	29907.51
449.316	29387.33
449.522	30216.75
449.728	30708.27
449.935	30734.89
450.141	31148.58
450.347	31752.73
450.553	30841.39
450.76	31187.49
450.966	32186.9
451.172	31818.27
451.378	32639.5
451.584	32147.99
451.791	32795.15
451.997	32735.76
452.203	33217.03
452.409	33253.89
452.615	33294.85
452.821	31459.87
453.027	31203.88
453.233	33024.52
453.44	31601.18
453.646	32219.67
453.852	32444.94
454.058	32791.05
454.264	31844.89
454.47	32446.99
454.676	31812.12
454.882	32746
455.088	30040.63
455.294	30282.29
455.5	30816.81
455.705	31025.7
455.911	30018.1
456.117	29131.33
456.323	28871.24
456.529	27136.61
456.735	28408.4
456.941	27847.26
457.147	27384.41
457.352	26548.84
457.558	26225.26
457.764	26401.39
457.97	26104.43
458.176	25291.39
458.381	25246.33
458.587	23947.92
458.793	24015.51
458.999	22878.88
459.204	24099.47
459.41	23526.04
459.616	22158
459.821	22256.3
460.027	21858.99
460.233	21566.13
460.438	20726.47
460.644	20843.2
460.85	19700.44
461.055	19571.41
461.261	19198.68
461.466	17887.98
461.672	17441.53
461.878	18860.77
462.083	17533.68
462.289	17101.56
462.494	16804.61
462.7	16202.5
462.905	15901.45
463.111	16476.93
463.316	16218.89
463.522	16048.91
463.727	15969.04
463.932	16036.62
464.138	15801.1
464.343	16186.12
464.549	15545.11
464.754	15905.55
464.959	15670.03
465.165	15768.34
465.37	14994.2
465.575	14904.09
465.781	15233.82
465.986	15295.25
466.191	14555.94
466.397	14560.03
466.602	13886.25
466.807	14512.93
467.012	14189.35
467.218	14054.19
467.423	13910.83
467.628	14345
467.833	14713.63
468.038	14134.06
468.244	13777.71
468.449	14261.03
468.654	13919.02
468.859	13585.2
469.064	13628.21
469.269	13239.09
469.474	13218.61
469.679	13374.26
469.885	13126.46
470.09	13312.82
470.295	13040.44
470.5	12714.81
470.705	12733.25
470.91	12475.2
471.115	12542.78
471.32	12692.29
471.525	12507.97
471.73	12204.87
471.935	12331.84
472.139	11785.04
472.344	12049.22
472.549	12118.86
472.754	11762.51
472.959	11746.12
473.164	11359.06
473.369	11150.17
473.574	11735.88
473.778	11344.72
473.983	11377.49
474.188	11236.18
474.393	10836.83
474.598	10773.34
474.802	10488.67
475.007	10634.08
475.212	10726.24
475.417	10281.83
475.621	10247.01
475.826	10068.84
476.031	9845.61
476.235	9839.47
476.44	9966.44
476.645	10050.41
476.849	9872.23
477.054	9958.25
477.259	9782.12
477.463	9714.54
477.668	9390.96
477.872	9298.8
478.077	9102.2
478.282	9116.53
478.486	9147.25
478.691	8993.65
478.895	8823.67
479.1	8913.78
479.304	8950.65
479.509	8524.67
479.713	8696.7
479.918	8555.39
480.122	8571.77
480.326	8684.41
480.531	8481.66
480.735	8428.42
480.94	8313.73
481.144	8735.61
481.348	8405.89
481.553	8426.37
481.757	8121.22
481.961	8280.96
482.166	8317.83
482.37	8309.63
482.574	8205.19
482.778	8340.35
482.983	8303.49
483.187	8024.97
483.391	8383.36
483.595	8240
483.8	8262.53
484.004	8311.68
484.208	8258.43
484.412	8305.54
484.616	8254.34
484.821	8274.82
485.025	8381.31
485.229	8278.91
485.433	8147.84
485.637	8436.61
485.841	8078.21
486.045	8264.58
486.249	8174.47
486.453	8143.75
486.657	8209.28
486.861	8260.48
487.065	7928.71
487.269	8031.11
487.473	8039.3
487.677	8373.12
487.881	8266.63
488.085	8102.79
488.289	8125.32
488.493	8213.38
488.697	8446.85
488.901	8311.68
489.105	8141.7
489.309	8350.59
489.512	8364.93
489.716	8389.5
489.92	8244.1
490.124	8272.77
490.328	8584.06
490.531	8387.46
490.735	8553.34
490.939	8379.26
491.143	8272.77
491.346	8420.22
491.55	8639.36
491.754	8627.07
491.958	8676.22
492.161	8483.71
492.365	8833.91
492.569	8526.72
492.772	8588.16
492.976	8881.02
493.18	8813.43
493.383	9130.87
493.587	8737.66
493.79	9016.18
493.994	8940.41
494.197	9354.1
494.401	9182.07
494.605	9233.27
494.808	9225.08
495.012	9384.82
495.215	9395.06
495.419	9360.24
495.622	9278.32
495.825	9468.78
496.029	9472.88
496.232	9876.33
496.436	9763.69
496.639	9880.43
496.843	9706.35
497.046	10005.35
497.249	10240.87
497.453	10265.44
497.656	10351.46
497.859	10328.93
498.063	10611.55
498.266	10707.8
498.469	10646.37
498.673	10699.61
498.876	10967.9
499.079	10965.85
499.282	11162.45
499.485	11656.01
499.689	11549.52
499.892	11590.48
500.095	11613.01
500.298	11725.65
500.501	11696.97
500.705	12176.2
500.908	12272.45
501.111	12626.75
501.314	12430.15
501.517	12690.24
501.72	12704.57
501.923	12794.68
502.126	13009.72
502.329	13476.66
502.532	13517.62
502.735	13302.58
502.938	13626.16
503.141	13605.68
503.344	13966.12
503.547	13873.96
503.75	14166.82
503.953	14560.03
504.156	14512.93
504.359	14787.36
504.562	14797.6
504.765	15225.62
504.968	15188.76
505.17	15459.09
505.373	15215.38
505.576	15844.11
505.779	16024.33
505.982	15774.48
506.185	16177.93
506.387	16403.21
506.59	16583.43
506.793	16931.58
506.996	17021.69
507.198	17505.01
507.401	17109.75
507.604	17367.8
507.807	17537.78
508.009	17750.77
508.212	18049.77
508.415	18168.55
508.617	18625.25
508.82	18485.99
509.022	18518.76
509.225	18873.06
509.428	19186.4
509.63	19718.87
509.833	19473.11
510.035	20099.79
510.238	19866.32
510.44	20001.49
510.643	20456.14
510.845	20515.53
511.048	20669.12
511.25	20837.06
511.453	21058.24
511.655	21672.63
511.858	21574.33
512.06	21639.86
512.262	22014.64
512.465	21971.63
512.667	22469.29
512.87	22719.14
513.072	22790.82
513.274	23095.97
513.477	23423.64
513.679	23853.72
513.881	23825.04
514.084	24097.42
514.286	23958.16
514.488	24193.68
514.69	24930.95
514.893	25074.31
515.095	25420.41
515.297	25813.62
515.499	25772.66
515.701	26313.33
515.904	26022.51
516.106	26311.28
516.308	26595.95
516.51	27222.62
516.712	27282.02
516.914	27275.87
517.116	28068.44
517.318	28074.58
517.52	28191.31
517.722	28465.74
517.925	28805.7
518.127	29098.56
518.329	29432.38
518.531	29114.95
518.733	29770.3
518.935	30065.21
519.136	30263.86
519.338	30681.64
519.54	30894.63
519.742	31199.78
519.944	31326.75
520.146	31758.88
520.348	32152.09
520.55	32039.45
520.752	32244.24
520.954	33131.01
521.155	32324.11
521.357	33204.74
521.559	33321.48
521.761	34421.23
521.963	33772.03
522.164	34216.44
522.366	34245.11
522.568	34441.71
522.77	34646.51
522.971	35674.59
523.173	35236.33
523.375	35545.57
523.576	36039.13
523.778	35584.48
523.98	36241.88
524.181	36598.23
524.383	36274.65
524.584	36803.02
524.786	37030.35
524.988	37288.39
525.189	37573.06
525.391	37984.7
525.592	37775.81
525.794	38242.74
525.995	37722.56
526.197	38205.88
526.398	38226.36
526.6	38519.22
526.801	38869.42
527.003	38898.09
527.204	38947.25
527.406	39317.93
527.607	39412.13
527.808	40020.38
528.01	39211.43
528.211	39674.27
528.412	40499.61
528.614	40432.02
528.815	40249.75
529.016	40550.81
529.218	40241.56
529.419	40657.3
529.62	40720.79
529.822	40649.11
530.023	40817.04
530.224	40737.17
530.425	41089.42
530.626	40782.23
530.828	40726.93
531.029	41689.48
531.23	40966.54
531.431	41187.72
531.632	41419.14
531.833	41648.52
532.035	41413
532.236	41679.24
532.437	41765.25
532.638	41533.83
532.839	41849.22
533.04	41918.85
533.241	41523.59
533.442	42664.31
533.643	42121.6
533.844	41800.07
534.045	41957.76
534.246	41658.76
534.447	42027.39
534.648	41738.63
534.849	42193.28
535.05	41740.68
535.251	42367.35
535.451	42252.67
535.652	42348.92
535.853	42348.92
536.054	42178.94
536.255	42463.61
536.456	41783.68
536.657	42948.98
536.857	42174.84
537.058	42029.44
537.259	42580.34
537.46	42201.47
537.66	42291.58
537.861	42645.88
538.062	42017.15
538.263	42662.26
538.463	41935.23
538.664	42015.1
538.865	42535.29
539.065	42805.62
539.266	41922.94
539.466	42531.19
539.667	41877.89
539.868	42686.84
540.068	41994.62
540.269	42670.45
540.469	42371.45
540.67	42129.79
540.87	41961.86
541.071	42189.18
541.271	42234.24
541.472	42273.15
541.672	41896.32
541.873	42105.21
542.073	41949.57
542.274	42224
542.474	42035.58
542.675	41873.79
542.875	42180.99
543.075	42168.7
543.276	41693.57
543.476	42412.41
543.676	42097.02
543.877	42197.37
544.077	42043.77
544.277	41808.26
544.478	41763.2
544.678	41924.99
544.878	42002.82
545.078	42043.77
545.279	41650.56
545.479	41986.43
545.679	42203.52
545.879	42187.13
546.079	41761.15
546.28	42029.44
546.48	41707.91
546.68	42170.75
546.88	41693.57
547.08	42039.68
547.28	41849.22
547.48	41517.45
547.68	42066.3
547.88	41443.72
548.081	42025.34
548.281	41750.91
548.481	41552.26
548.681	41974.14
548.881	42027.39
549.081	41697.67
549.28	41468.3
549.48	41908.61
549.68	41693.57
549.88	41865.6
550.08	41738.63
550.28	41978.24
550.48	41761.15
550.68	42178.94
550.88	41292.17
551.08	41519.49
551.279	41761.15
551.479	41447.82
551.679	41826.69
551.879	41429.38
552.079	42111.36
552.278	41281.93
552.478	41888.13
552.678	41447.82
552.878	41673.09
553.077	41611.65
553.277	40960.4
553.477	41810.31
553.676	40868.24
553.876	41171.34
554.076	40976.78
554.275	41238.92
554.475	40956.3
554.674	41253.26
554.874	41322.89
555.074	40978.83
555.273	41372.04
555.473	41476.49
555.672	40778.13
555.872	41064.85
556.071	40700.31
556.271	41275.79
556.47	40749.46
556.67	40362.39
556.869	40456.6
557.068	40917.39
557.268	40462.74
557.467	40878.48
557.667	40528.28
557.866	40462.74
558.065	40845.71
558.265	40325.53
558.464	39965.09
558.663	40542.61
558.863	39823.78
559.062	40720.79
559.261	39856.54
559.461	40389.02
559.66	39682.47
559.859	40032.67
560.058	39643.56
560.258	40016.29
560.457	39223.72
560.656	39922.08
560.855	39594.4
561.054	39522.72
561.253	39274.92
561.453	39227.82
561.652	39424.42
561.851	39678.37
562.05	38971.82
562.249	38873.52
562.448	39303.59
562.647	39346.6
562.846	38885.81
563.045	38982.06
563.244	38705.59
563.443	38900.14
563.642	38490.55
563.841	38701.49
564.04	38314.42
564.239	38889.9
564.438	37974.46
564.637	38111.67
564.836	38226.36
565.035	37491.14
565.234	38101.43
565.432	37753.28
565.631	37730.75
565.83	37618.11
566.029	37321.16
566.228	37282.25
566.427	37202.38
566.625	37003.72
566.824	36782.54
567.023	37380.55
567.222	36452.82
567.42	37263.82
567.619	36966.86
567.818	37163.46
568.016	36569.55
568.215	36671.95
568.414	36551.12
568.612	36641.23
568.811	36430.29
569.01	36409.81
569.208	35437.03
569.407	36116.95
569.605	35733.98
569.804	36000.22
570.002	35525.09
570.201	35721.69
570.4	35426.79
570.598	35275.24
570.797	35146.22
570.995	35541.47
571.193	34583.02
571.392	35178.98
571.59	34793.97
571.789	34617.84
571.987	34486.77
572.186	34378.23
572.384	34515.44
572.582	34513.39
572.781	34404.85
572.979	34103.8
573.177	34142.71
573.376	33800.7
573.574	33882.62
573.772	33808.89
573.971	33454.59
574.169	33716.73
574.367	33458.69
574.565	33366.53
574.763	33325.57
574.962	33206.79
575.16	32903.69
575.358	32834.06
575.556	32776.72
575.754	33491.46
575.952	32277.01
576.151	32729.61
576.349	32496.14
576.547	32463.38
576.745	32150.04
576.943	32279.06
577.141	31865.37
577.339	32231.96
577.537	31926.81
577.735	31742.49
577.933	31781.4
578.131	31906.33
578.329	31513.12
578.527	31566.37
578.725	31349.28
578.923	31349.28
579.121	31369.76
579.319	31396.38
579.516	31558.17
579.714	31099.43
579.912	31253.03
580.11	30900.78
580.308	30976.55
580.506	30798.38
580.704	30140.98
580.901	30374.45
581.099	30425.65
581.297	30372.4
581.495	30249.52
581.692	30509.61
581.89	29925.94
582.088	30057.01
582.285	29948.47
582.483	29995.57
582.681	29667.9
582.878	29626.94
583.076	29270.59
583.274	29491.77
583.471	29473.34
583.669	29248.07
583.866	29346.37
584.064	28973.64
584.262	28500.56
584.459	29030.98
584.657	28824.14
584.854	29182.53
585.052	28412.49
585.249	28846.66
585.447	28906.05
585.644	27996.76
585.841	28291.66
586.039	28662.35
586.236	27837.02
586.434	27896.41
586.631	27896.41
586.828	28072.53
587.026	28101.2
587.223	27867.73
587.42	27802.2
587.618	27837.02
587.815	27400.8
588.012	27718.23
588.21	27318.88
588.407	27484.76
588.604	26944.1
588.801	26858.09
588.999	27058.79
589.196	26886.76
589.393	27044.45
589.59	26770.02
589.787	26638.95
589.984	26645.1
590.182	26434.16
590.379	26554.99
590.576	26274.42
590.773	26331.76
590.97	26301.04
591.167	26524.27
591.364	25936.5
591.561	26163.82
591.758	26094.19
591.955	26129.01
592.152	26069.62
592.349	25500.28
592.546	25580.15
592.743	25668.22
592.94	25168.51
593.137	25469.56
593.334	25520.76
593.531	25006.72
593.727	25107.07
593.924	25262.72
594.121	24775.3
594.318	25184.9
594.515	24537.74
594.712	25082.5
594.908	24681.1
595.105	24650.38
595.302	24461.96
595.499	24740.49
595.696	24085.14
595.892	24437.39
596.089	24679.05
596.286	24183.44
596.482	24216.21
596.679	24244.88
596.876	24087.18
597.072	24066.7
597.269	23786.13
597.466	23814.8
597.662	23804.56
597.859	23628.44
598.055	23534.23
598.252	23536.28
598.448	23429.79
598.645	23405.21
598.841	23278.24
599.038	23153.31
599.234	23333.53
599.431	22993.57
599.627	22866.6
599.824	23059.1
600.02	22624.93
600.217	22692.52
600.413	22653.61
600.609	22493.86
600.806	22459.05
601.002	22581.93
601.198	22596.26
601.395	22160.05
601.591	22076.08
601.787	22358.7
601.984	22190.77
602.18	22305.45
602.376	22155.95
602.572	21811.89
602.769	22057.65
602.965	21881.52
603.161	22061.74
603.357	21537.46
603.553	21537.46
603.75	21525.18
603.946	21457.59
604.142	21347
604.338	21238.46
604.534	21502.65
604.73	21123.77
604.926	20980.42
605.122	21238.46
605.318	21062.33
605.514	20478.66
605.71	20712.13
605.906	20906.69
606.102	21029.57
606.298	20746.95
606.494	20650.69
606.69	20800.19
606.886	20634.31
607.082	20171.47
607.278	20292.3
607.474	20413.13
607.67	20302.54
607.866	20181.71
608.062	20550.34
608.257	19956.43
608.453	19983.06
608.649	20046.54
608.845	19933.9
609.041	19880.66
609.236	19911.38
609.432	19774.16
609.628	19819.22
609.824	19501.78
610.019	19682
610.215	19618.52
610.411	19763.92
610.606	19421.91
610.802	19722.96
610.998	19493.59
611.193	19489.49
611.389	19479.25
611.584	19200.73
611.78	19120.86
611.976	18922.21
612.171	19595.99
612.367	19094.24
612.562	19106.52
612.758	18844.38
612.953	18944.73
613.149	18791.14
613.344	18916.06
613.539	19063.52
613.735	18586.34
613.93	18926.3
614.126	18809.57
614.321	18737.89
614.517	18735.84
614.712	18342.63
614.907	18596.58
615.103	18756.32
615.298	18485.99
615.493	18686.69
615.688	18176.75
615.884	18715.36
616.079	18146.03
616.274	18410.22
616.47	18285.29
616.665	18459.37
616.86	17926.89
617.055	18242.28
617.25	17963.76
617.445	17967.85
617.641	17615.6
617.836	17887.98
618.031	17898.22
618.226	18119.4
618.421	17654.51
618.616	17767.15
618.811	17523.44
619.006	17799.92
619.201	17226.49
619.396	17650.42
619.591	17218.3
619.786	17437.43
619.981	17378.04
620.176	17468.15
620.371	16933.63
620.566	17101.56
620.761	17019.64
620.956	17093.37
621.151	16884.48
621.346	17056.51
621.541	16411.4
621.735	16859.9
621.93	16038.67
622.125	16311.05
622.32	16261.9
622.515	16280.33
622.709	16347.91
622.904	16325.38
623.099	15977.23
623.294	16122.63
623.488	15823.63
623.683	16169.74
623.878	15590.16
624.072	15670.03
624.267	15483.67
624.462	15285.01
624.656	15420.18
624.851	15457.04
625.046	15282.97
625.24	15203.1
625.435	14877.47
625.629	14783.26
625.824	14986.01
626.018	14766.88
626.213	14590.75
626.407	14732.06
626.602	14469.92
626.796	14654.24
626.991	14637.86
627.185	14402.34
627.38	13941.55
627.574	13890.35
627.768	13927.21
627.963	13923.12
628.157	13851.44
628.352	13769.52
628.546	13753.13
628.74	14007.08
628.935	13450.03
629.129	13595.44
629.323	13359.92
629.517	13476.66
629.712	13421.36
629.906	13253.43
630.1	12976.95
630.294	13333.3
630.489	13024.06
630.683	13282.1
630.877	12886.84
631.071	12847.93
631.265	12962.62
631.459	12643.14
631.653	12665.66
631.848	12567.36
632.042	12716.86
632.236	12663.61
632.43	12395.33
632.624	12340.04
632.818	12356.42
633.012	12122.95
633.206	12112.71
633.4	12221.25
633.594	12090.18
633.788	12233.54
633.982	11869
634.176	11897.67
634.369	11821.9
634.563	11658.06
634.757	11686.73
634.951	11780.94
635.145	11586.38
635.339	11600.72
635.533	11342.67
635.726	11336.53
635.92	11146.07
636.114	11246.42
636.308	11033.43
636.501	11289.43
636.695	10996.57
636.889	10980.18
637.083	10877.79
637.276	11012.95
637.47	10431.33
637.664	10808.16
637.857	10681.18
638.051	10857.31
638.244	10697.56
638.438	10644.32
638.632	10603.36
638.825	10324.83
639.019	10474.34
639.212	10208.1
639.406	10304.35
639.599	10201.96
639.793	10179.43
639.986	10013.54
640.18	10062.69
640.373	9939.82
640.567	9997.16
640.76	9843.56
640.954	9802.6
641.147	9595.76
641.34	9556.85
641.534	9581.42
641.727	9569.13
641.92	9503.6
642.114	9483.12
642.307	9358.19
642.5	9235.32
642.694	9157.49
642.887	9182.07
643.08	9212.79
643.273	9087.86
643.467	8997.75
643.66	8977.27
643.853	8991.61
644.046	8776.57
644.239	8930.17
644.432	8809.34
644.626	8792.95
644.819	8844.15
645.012	8930.17
645.205	8749.95
645.398	8600.44
645.591	8602.49
645.784	8469.37
645.977	8516.48
646.17	8539.01
646.363	8512.38
646.556	8483.71
646.749	8285.06
646.942	8205.19
647.135	8287.11
647.328	8162.18
647.521	8194.95
647.714	8041.35
647.907	8049.54
648.099	8010.63
648.292	7893.9
648.485	7992.2
648.678	7682.95
648.871	7715.72
649.064	7687.05
649.256	7859.08
649.449	7705.48
649.642	7586.7
649.835	7668.62
650.027	7545.74
650.22	7547.79
650.413	7576.46
650.605	7553.93
650.798	7295.89
650.991	7277.46
651.183	7467.92
651.376	7400.34
651.568	7322.51
651.761	7238.55
651.954	7226.26
652.146	7035.8
652.339	7037.84
652.531	7170.96
652.724	6982.55
652.916	6759.32
653.109	6783.9
653.301	6751.13
653.494	7000.98
653.686	6699.93
653.879	6935.45
654.071	6783.9
654.263	6976.41
654.456	6777.75
654.648	6693.79
654.84	6478.75
655.033	6642.59
655.225	6544.28
655.417	6380.45
655.61	6515.61
655.802	6544.28
655.994	6437.79
656.186	6417.31
656.379	6415.26
656.571	6411.17
656.763	6265.76
656.955	6214.56
657.148	6435.74
657.34	6226.85
657.532	6116.26
657.724	6251.42
657.916	6251.42
658.108	6073.25
658.3	6038.44
658.492	5909.41
658.684	5923.75
658.876	6165.41
659.068	6017.96
659.26	5858.21
659.452	5852.07
659.644	5616.55
659.836	5827.5
660.028	5755.82
660.22	5651.37
660.412	5702.57
660.604	5641.13
660.796	5643.18
660.988	5675.95
661.18	5706.66
661.372	5596.07
661.563	5684.14
661.755	5512.11
661.947	5340.08
662.139	5434.29
662.331	5454.76
662.522	5505.96
662.714	5530.54
662.906	5280.69
663.097	5329.84
663.289	5403.57
663.481	5247.92
663.673	5534.64
663.864	5290.93
664.056	5290.93
664.247	5170.1
664.439	5012.4
664.631	5122.99
664.822	4998.07
665.014	5139.38
665.205	5145.52
665.397	5211.06
665.588	5010.36
665.78	5012.4
665.971	5198.77
666.163	5108.66
666.354	4889.53
666.546	4957.11
666.737	4867
666.929	4975.54
667.12	4830.13
667.311	4879.29
667.503	4867
667.694	4815.8
667.885	4727.74
668.077	4897.72
668.268	4793.27
668.459	4551.61
668.651	4776.89
668.842	4717.5
669.033	4629.43
669.224	4686.78
669.416	4711.35
669.607	4598.71
669.798	4713.4
669.989	4707.26
670.18	4680.63
670.371	4504.51
670.563	4422.59
670.754	4574.14
670.945	4574.14
671.136	4473.79
671.327	4428.73
671.518	4469.69
671.709	4506.56
671.9	4664.25
672.091	4441.02
672.282	4539.32
672.473	4387.77
672.664	4508.6
672.855	4342.72
673.046	4334.53
673.237	4324.29
673.428	4467.64
673.619	4461.5
673.809	4260.8
674	4410.3
674.191	4395.96
674.382	4312
674.573	4422.59
674.764	4291.52
674.954	4268.99
675.145	4248.51
675.336	4260.8
675.527	4221.89
675.717	4236.22
675.908	4199.36
676.099	4139.97
676.289	4277.18
676.48	4258.75
676.671	4199.36
676.861	4258.75
677.052	4287.42
677.243	4191.17
677.433	4062.15
677.624	4152.26
677.814	4285.37
678.005	4262.85
678.195	4225.98
678.386	4127.68
678.576	4072.39
678.767	4146.11
678.957	4201.41
679.148	4215.74
679.338	4127.68
679.529	4217.79
679.719	4185.02
679.909	4232.13
680.1	4264.89
680.29	4119.49
680.481	4131.78
680.671	4240.32
680.861	4238.27
681.052	4135.87
681.242	4197.31
681.432	4123.59
681.622	4131.78
681.813	4113.35
682.003	4158.4
682.193	4176.83
682.383	4275.13
682.573	4078.53
682.764	4113.35
682.954	4199.36
683.144	4162.5
683.334	4131.78
683.524	4037.57
683.714	4008.9
683.904	3978.18
684.094	3965.89
684.284	4047.81
684.474	4180.93
684.664	3924.93
684.854	3994.56
685.044	4152.26
685.234	3951.56
685.424	3949.51
685.614	3926.98
685.804	4015.04
685.994	4094.91
686.184	3867.59
686.374	3955.65
686.564	3853.25
686.753	3900.36
686.943	4056
687.133	3851.21
687.323	3922.88
687.513	4008.9
687.702	3949.51
687.892	3912.64
688.082	3761.09
688.272	3916.74
688.461	3746.76
688.651	3797.96
688.841	3679.18
689.03	3775.43
689.22	3769.29
689.41	3748.81
689.599	3625.93
689.789	3621.83
689.979	3658.7
690.168	3623.88
690.358	3593.16
690.547	3601.35
690.737	3574.73
690.926	3525.58
691.116	3550.15
691.305	3572.68
691.495	3453.9
691.684	3453.9
691.874	3464.14
692.063	3277.77
692.252	3544.01
692.442	3507.15
692.631	3312.59
692.82	3449.8
693.01	3417.04
693.199	3384.27
693.388	3202
693.578	3296.21
693.767	3462.09
693.956	3343.31
694.146	3245.01
694.335	3298.25
694.524	3224.53
694.713	3312.59
694.902	3355.6
695.092	3214.29
695.281	3122.13
695.47	3040.21
695.659	3240.91
695.848	3165.14
696.037	3195.86
696.226	3154.9
696.415	3173.33
696.604	3175.38
696.793	3072.98
696.982	3056.59
697.171	3161.04
697.36	3206.1
697.549	3089.36
697.738	2958.29
697.927	3118.03
698.116	3099.6
698.305	3001.3
698.494	3032.02
698.683	3103.7
698.872	3146.7
699.061	2982.87
699.25	2956.24
699.438	3060.69
699.627	3052.5
699.816	3101.65
700.005	3021.78
700.193	3005.39
700.382	2997.2
700.571	3040.21
700.76	2966.48
700.948	3021.78
701.137	2962.39
701.326	3060.69
701.514	2954.19
701.703	3046.35
701.892	3085.26
702.08	3058.64
702.269	3015.63
702.457	2997.2
702.646	3017.68
702.834	3017.68
703.023	3052.5
703.212	3120.08
703.4	3120.08
703.589	3029.97
703.777	3167.18
703.965	3042.26
704.154	3058.64
704.342	3040.21
704.531	3097.55
704.719	3025.87
704.907	3034.07
705.096	2939.86
705.284	3072.98
705.472	3185.62
705.661	2978.77
705.849	2948.05
706.037	3038.16
706.226	2991.06
706.414	2995.15
706.602	2982.87
706.79	2970.58
706.979	2948.05
707.167	3132.37
707.355	3015.63
707.543	3072.98
707.731	3146.7
707.919	2986.96
708.107	3095.5
708.296	3103.7
708.484	3040.21
708.672	2956.24
708.86	3023.83
709.048	2952.15
709.236	3054.55
709.424	3115.98
709.612	3072.98
709.8	3019.73
709.988	3056.59
710.176	3122.13
710.364	3034.07
710.551	3003.35
710.739	3019.73
710.927	3077.07
711.115	2896.85
711.303	3253.2
711.491	3029.97
711.679	2948.05
711.866	3095.5
712.054	3070.93
712.242	3005.39
712.43	3099.6
712.617	3105.74
712.805	3029.97
712.993	3017.68
713.181	3052.5
713.368	2989.01
713.556	3148.75
713.744	3032.02
713.931	3279.82
714.119	3161.04
714.306	3167.18
714.494	3068.88
714.682	3066.83
714.869	3175.38
715.057	3142.61
715.244	2991.06
715.432	3134.42
715.619	3142.61
715.807	3109.84
715.994	3265.49
716.182	3009.49
716.369	3247.05
716.556	3130.32
716.744	3075.03
716.931	3169.23
717.119	3224.53
717.306	3115.98
717.493	3095.5
717.681	3226.57
717.868	3193.81
718.055	3277.77
718.242	3183.57
718.43	3228.62
718.617	3228.62
718.804	3161.04
718.991	3156.94
719.179	3204.05
719.366	3187.66
719.553	3245.01
719.74	3158.99
719.927	3185.62
720.114	3154.9
720.301	3273.68
720.488	3163.09
720.676	3281.87
720.863	3247.05
721.05	3306.45
721.237	3339.21
721.424	3341.26
721.611	3263.44
721.798	3220.43
721.985	3128.27
722.172	3212.24
722.358	3220.43
722.545	3197.9
722.732	3300.3
722.919	3257.29
723.106	3240.91
723.293	3228.62
723.48	3257.29
723.667	3300.3
723.853	3296.21
724.04	3238.86
724.227	3369.93
724.414	3242.96
724.6	3351.5
724.787	3257.29
724.974	3302.35
725.161	3273.68
725.347	3306.45
725.534	3283.92
725.72	3384.27
725.907	3261.39
726.094	3380.17
726.28	3441.61
726.467	3345.36
726.653	3230.67
726.84	3298.25
727.027	3548.11
727.213	3292.11
727.4	3404.75
727.586	3228.62
727.773	3365.84
727.959	3359.69
728.145	3390.41
728.332	3382.22
728.518	3396.56
728.705	3400.65
728.891	3281.87
729.077	3429.32
729.264	3410.89
729.45	3392.46
729.636	3513.29
729.823	3482.57
730.009	3435.47
730.195	3331.02
730.382	3417.04
730.568	3513.29
730.754	3355.6
730.94	3140.56
731.126	3562.44
731.313	3419.08
731.499	3331.02
731.685	3455.95
731.871	3460.04
732.057	3357.64
732.243	3496.91
732.429	3484.62
732.615	3447.76
732.801	3531.72
732.987	3564.49
733.173	3406.8
733.359	3507.15
733.545	3521.48
733.731	3523.53
733.917	3492.81
734.103	3429.32
734.289	3529.67
734.475	3296.21
734.661	3576.78
734.847	3531.72
735.033	3445.71
735.219	3560.39
735.404	3597.26
735.59	3480.52
735.776	3501
735.962	3556.3
736.148	3480.52
736.333	3568.59
736.519	3519.43
736.705	3398.6
736.89	3374.03
737.076	3554.25
737.262	3371.98
737.447	3406.8
737.633	3312.59
737.819	3562.44
738.004	3408.84
738.19	3365.84
738.375	3517.39
738.561	3554.25
738.747	3501
738.932	3412.94
739.118	3441.61
739.303	3394.51
739.489	3423.18
739.674	3371.98
739.859	3394.51
740.045	3507.15
740.23	3392.46
740.416	3445.71
740.601	3392.46
740.786	3339.21
740.972	3433.42
741.157	3359.69
741.342	3357.64
741.528	3322.83
741.713	3369.93
741.898	3378.12
742.084	3281.87
742.269	3435.47
742.454	3423.18
742.639	3220.43
742.824	3288.01
743.01	3220.43
743.195	3353.55
743.38	3187.66
743.565	3265.49
743.75	3288.01
743.935	3152.85
744.12	3208.14
744.305	3091.41
744.49	3105.74
744.675	3146.7
744.86	3156.94
745.045	3148.75
745.23	3052.5
745.415	3216.33
745.6	3216.33
745.785	3066.83
745.97	3052.5
746.155	2974.67
746.34	3077.07
746.525	3064.79
746.71	3048.4
746.895	2958.29
747.079	3081.17
747.264	2890.71
747.449	2986.96
747.634	3087.31
747.819	2958.29
748.003	2915.28
748.188	2792.41
748.373	2980.82
748.557	2921.43
748.742	2780.12
748.927	2864.08
749.111	2976.72
749.296	2780.12
749.481	2829.27
749.665	2778.07
749.85	2816.98
750.034	2704.34
750.219	2794.45
750.404	2843.6
750.588	2681.82
750.773	2653.14
750.957	2687.96
751.141	2634.71
751.326	2669.53
751.51	2696.15
751.695	2522.07
751.879	2560.98
752.064	2597.85
752.248	2614.23
752.432	2589.66
752.617	2558.94
752.801	2509.79
752.985	2493.4
753.17	2522.07
753.354	2522.07
753.538	2470.87
753.722	2337.76
753.907	2495.45
754.091	2331.61
754.275	2413.53
754.459	2376.67
754.643	2282.46
754.828	2421.72
755.012	2360.28
755.196	2231.26
755.38	2202.59
755.564	2188.25
755.748	2272.22
755.932	2225.12
756.116	2182.11
756.3	2194.4
756.484	2198.49
756.668	2333.66
756.852	2110.43
757.036	2104.29
757.22	2153.44
757.404	2020.32
757.588	2069.47
757.772	2053.09
757.956	2094.05
758.14	2083.81
758.323	2030.56
758.507	1993.7
758.691	2104.29
758.875	2100.19
759.059	2048.99
759.242	1973.22
759.426	1956.83
759.61	1891.3
759.794	1831.91
759.977	1887.2
760.161	1975.27
760.345	1975.27
760.528	1842.15
760.712	1893.35
760.895	1942.5
761.079	1819.62
761.263	1790.95
761.446	1772.52
761.63	1780.71
761.813	1932.26
761.997	1774.56
762.18	1741.8
762.364	1760.23
762.547	1768.42
762.731	1749.99
762.914	1721.32
763.098	1704.93
763.281	1760.23
763.464	1864.68
763.648	1727.46
763.831	1711.08
764.015	1690.6
764.198	1782.76
764.381	1580.01
764.564	1631.21
764.748	1653.73
764.931	1786.85
765.114	1713.13
765.297	1588.2
765.481	1592.3
765.664	1764.33
765.847	1678.31
766.03	1655.78
766.213	1645.54
766.397	1618.92
766.58	1537
766.763	1604.58
766.946	1598.44
767.129	1526.76
767.312	1575.91
767.495	1469.42
767.678	1502.19
767.861	1491.95
768.044	1520.62
768.227	1530.86
768.41	1504.23
768.593	1614.82
768.776	1493.99
768.959	1420.27
769.142	1522.66
769.324	1557.48
769.507	1508.33
769.69	1459.18
769.873	1491.95
770.056	1563.62
770.239	1502.19
770.421	1461.23
770.604	1440.75
770.787	1403.88
770.97	1338.35
771.152	1412.07
771.335	1405.93
771.518	1399.79
771.7	1348.59
771.883	1346.54
772.066	1352.68
772.248	1369.07
772.431	1410.03
772.613	1346.54
772.796	1377.26
772.978	1358.83
773.161	1311.72
773.343	1203.18
773.526	1338.35
773.708	1295.34
773.891	1252.33
774.073	1209.33
774.256	1264.62
774.438	1262.57
774.621	1129.45
774.803	1256.43
774.985	1170.41
775.168	1164.27
775.35	1180.65
775.532	1215.47
775.715	1098.74
775.897	1133.55
776.079	1141.74
776.261	1119.21
776.444	1113.07
776.626	1129.45
776.808	1082.35
776.99	1160.17
777.173	1141.74
777.355	1090.54
777.537	1104.88
777.719	1016.82
777.901	1102.83
778.083	963.57
778.265	1039.34
778.447	1151.98
778.629	1008.62
778.811	1049.58
778.993	1045.49
779.175	875.51
779.357	994.29
779.539	965.62
779.721	1006.58
779.903	957.43
780.085	910.32
780.267	934.9
780.449	949.23
780.631	1008.62
780.812	1055.73
780.994	883.7
781.176	887.79
781.358	945.14
781.54	988.14
781.721	926.71
781.903	938.99
782.085	930.8
782.267	787.44
782.448	820.21
782.63	742.39
782.812	801.78
782.993	887.79
783.175	865.27
783.357	842.74
783.538	875.51
783.72	822.26
783.901	791.54
784.083	742.39
784.264	826.36
784.446	766.96
784.627	732.15
784.809	818.16
784.99	756.72
785.172	773.11
785.353	775.16
785.535	785.4
785.716	785.4
785.897	660.47
786.079	766.96
786.26	703.48
786.441	738.29
786.623	678.9
786.804	728.05
786.985	748.53
787.167	730.1
787.348	670.71
787.529	605.17
787.71	744.44
787.891	664.57
788.073	603.13
788.254	678.9
788.435	689.14
788.616	594.93
788.797	639.99
788.978	713.72
789.159	609.27
789.34	611.32
789.522	670.71
789.703	629.75
789.884	556.02
790.065	605.17
790.246	611.32
790.427	482.3
790.607	605.17
790.788	584.7
790.969	564.22
791.15	551.93
791.331	564.22
791.512	570.36
791.693	474.1
791.874	529.4
792.054	613.37
792.235	562.17
792.416	521.21
792.597	488.44
792.778	592.89
792.958	566.26
793.139	504.82
793.32	527.35
793.5	492.54
793.681	500.73
793.862	435.19
794.042	482.3
794.223	515.06
794.404	461.82
794.584	490.49
794.765	535.54
794.945	490.49
795.126	537.59
795.306	529.4
795.487	599.03
795.667	418.81
795.848	500.73
796.028	459.77
796.209	461.82
796.389	459.77
796.57	504.82
796.75	459.77
796.93	457.72
797.111	412.67
797.291	414.71
797.471	396.28
797.652	467.96
797.832	394.23
798.012	513.02
798.192	429.05
798.373	422.91
798.553	400.38
798.733	476.15
798.913	445.43
799.093	427
799.274	386.04
799.454	410.62
799.634	388.09
799.814	406.52
799.994	414.71
800.174	427
800.354	324.6
800.534	375.8
800.714	400.38
800.894	386.04
801.074	349.18
801.254	383.99
801.434	361.47
801.614	400.38
801.794	400.38
801.974	1170.41
802.154	367.61
802.334	416.76
802.514	310.27
802.693	437.24
802.873	367.61
803.053	310.27
803.233	386.04
803.413	332.79
803.592	310.27
803.772	375.8
803.952	334.84
804.131	285.69
804.311	293.88
804.491	316.41
804.67	343.03
804.85	381.95
805.03	381.95
805.209	367.61
805.389	336.89
805.568	291.84
805.748	230.4
805.928	343.03
806.107	250.88
806.287	359.42
806.466	220.16
806.646	236.54
806.825	289.79
807.004	318.46
807.184	304.12
807.363	293.88
807.543	308.22
807.722	332.79
807.901	287.74
808.081	285.69
808.26	234.49
808.439	338.94
808.619	275.45
808.798	275.45
808.977	343.03
809.156	392.19
809.336	300.03
809.515	336.89
809.694	318.46
809.873	197.63
810.052	246.78
810.231	287.74
810.411	257.02
810.59	224.25
810.769	324.6
810.948	220.16
811.127	232.44
811.306	222.2
811.485	193.53
811.664	291.84
811.843	203.77
812.022	269.31
812.201	214.01
812.38	291.84
812.559	228.35
812.737	265.21
812.916	183.29
813.095	246.78
813.274	246.78
813.453	171.01
813.632	209.92
813.811	199.68
813.989	222.2
814.168	275.45
814.347	185.34
814.526	146.43
814.704	168.96
814.883	261.12
815.062	203.77
815.24	279.55
815.419	162.81
815.598	324.6
815.776	216.06
815.955	189.44
816.133	201.72
816.312	216.06
816.49	211.96
816.669	240.64
816.847	209.92
817.026	185.34
817.204	181.25
817.383	222.2
817.561	189.44
817.74	130.05
817.918	257.02
818.097	138.24
818.275	156.67
818.453	209.92
818.632	171.01
818.81	234.49
818.988	156.67
819.167	146.43
819.345	191.49
819.523	193.53
819.701	205.82
819.879	222.2
820.058	171.01
820.236	232.44
820.414	150.53
820.592	156.67
820.77	140.29
820.948	146.43
821.127	181.25
821.305	189.44
821.483	125.95
821.661	152.57
821.839	207.87
822.017	158.72
822.195	179.2
822.373	183.29
822.551	105.47
822.729	191.49
822.907	148.48
823.085	117.76
823.262	189.44
823.44	107.52
823.618	187.39
823.796	183.29
823.974	101.37
824.152	140.29
824.329	175.1
824.507	160.77
824.685	89.09
824.863	132.09
825.04	230.4
825.218	154.62
825.396	195.58
825.574	140.29
825.751	166.91
825.929	175.1
826.107	103.42
826.284	134.14
826.462	166.91
826.639	84.99
826.817	66.56
826.994	201.72
827.172	119.81
827.349	191.49
827.527	87.04
827.704	205.82
827.882	128
828.059	134.14
828.237	130.05
828.414	191.49
828.591	123.9
828.769	113.66
828.946	211.96
829.124	138.24
829.301	175.1
829.478	199.68
829.655	218.11
829.833	154.62
830.01	82.94
830.187	179.2
830.364	121.85
830.542	107.52
830.719	150.53
830.896	109.57
831.073	142.33
831.25	128
831.427	113.66
831.604	162.81
831.782	-1.02
831.959	136.19
832.136	91.13
832.313	199.68
832.49	89.09
832.667	95.23
832.844	152.57
833.021	101.37
833.198	99.33
833.374	125.95
833.551	101.37
833.728	15.36
833.905	107.52
834.082	107.52
834.259	105.47
834.436	162.81
834.612	78.85
834.789	99.33
834.966	111.61
835.143	121.85
835.319	-58.37
835.496	84.99
835.673	168.96
835.85	144.38
836.026	84.99
836.203	89.09
836.38	95.23
836.556	68.61
836.733	33.79
836.909	136.19
837.086	113.66
837.262	82.94
837.439	52.22
837.616	148.48
837.792	105.47
837.968	62.46
838.145	21.5
838.321	68.61
838.498	87.04
838.674	109.57
838.851	101.37
839.027	25.6
839.203	113.66
839.38	119.81
839.556	84.99
839.732	89.09
839.909	70.65
840.085	99.33
840.261	-27.65
840.437	146.43
840.614	82.94
840.79	185.34
840.966	136.19
841.142	97.28
841.318	138.24
841.494	11.26
841.671	156.67
841.847	58.37
842.023	70.65
842.199	103.42
842.375	123.9
842.551	44.03
842.727	48.13
842.903	54.27
843.079	82.94
843.255	93.18
843.431	39.94
843.607	80.89
843.783	-50.18
843.959	99.33
844.134	84.99
844.31	171.01
844.486	46.08
844.662	50.18
844.838	50.18
845.013	115.71
845.189	115.71
845.365	19.46
845.541	72.7
845.716	41.98
845.892	33.79
846.068	109.57
846.244	60.42
846.419	19.46
846.595	64.51
846.77	66.56
846.946	72.7
847.122	68.61
847.297	41.98
847.473	44.03
847.648	35.84
847.824	39.94
847.999	21.5
848.175	97.28
848.35	5.12
848.526	48.13
848.701	132.09
848.876	35.84
849.052	84.99
849.227	72.7
849.403	76.8
849.578	68.61
849.753	74.75
849.929	84.99
850.104	37.89
850.279	70.65
850.454	109.57
850.63	21.5
850.805	17.41
850.98	99.33
851.155	89.09
851.33	89.09
851.505	25.6
851.681	39.94
851.856	-76.8
852.031	89.09
852.206	60.42
852.381	-5.12
852.556	44.03
852.731	-48.13
852.906	21.5
853.081	113.66
853.256	72.7
853.431	44.03
853.606	-27.65
853.781	23.55
853.956	5.12
854.131	70.65
854.305	-9.22
854.48	56.32
854.655	58.37
854.83	33.79
855.005	-9.22
855.18	35.84
855.354	107.52
855.529	48.13
855.704	-3.07
855.879	23.55
856.053	-3.07
856.228	123.9
856.403	66.56
856.577	66.56
856.752	-41.98
856.926	91.13
857.101	68.61
857.276	62.46
857.45	60.42
857.625	66.56
857.799	-19.46
857.974	3.07
858.148	25.6
858.323	3.07
858.497	39.94
858.672	-48.13
858.846	39.94
859.02	-5.12
859.195	-13.31
859.369	-68.61
859.543	93.18
859.718	35.84
859.892	9.22
860.066	23.55
860.241	-33.79
860.415	-5.12
860.589	1.02
860.763	-5.12
860.938	56.32
861.112	54.27
861.286	19.46
861.46	54.27
861.634	-41.98
861.808	29.7
861.982	64.51
862.157	7.17
862.331	7.17
862.505	19.46
862.679	-58.37
862.853	31.74
863.027	50.18
863.201	91.13
863.375	46.08
863.549	3.07
863.722	19.46
863.896	66.56
864.07	46.08
864.244	27.65
864.418	-7.17
864.592	9.22
864.766	17.41
864.939	68.61
865.113	-60.42
865.287	7.17
865.461	1.02
865.634	64.51
865.808	23.55
865.982	13.31
866.156	1.02
866.329	-7.17
866.503	76.8
866.676	78.85
866.85	35.84
867.024	-1.02
867.197	19.46
867.371	9.22
867.544	3.07
867.718	-27.65
867.891	119.81
868.065	5.12
868.238	29.7
868.412	-19.46
868.585	-23.55
868.759	80.89
868.932	-23.55
869.105	-5.12
869.279	89.09
869.452	35.84
869.625	23.55
869.799	5.12
869.972	17.41
870.145	9.22
870.319	64.51
870.492	46.08
870.665	9.22
870.838	29.7
871.011	-99.33
871.185	80.89
871.358	3.07
871.531	132.09
871.704	1.02
871.877	103.42
872.05	-13.31
872.223	-39.94
872.396	62.46
872.569	11.26
872.742	50.18
872.915	84.99
873.088	17.41
873.261	-11.26
873.434	23.55
873.607	-7.17
873.78	54.27
873.953	31.74
874.126	60.42
874.299	-15.36
874.471	31.74
874.644	35.84
874.817	37.89
874.99	-29.7
875.163	15.36
875.335	-19.46
875.508	123.9
875.681	72.7
875.853	-68.61
876.026	50.18
876.199	-31.74
876.371	-5.12
876.544	-9.22
876.717	-23.55
876.889	-9.22
877.062	-5.12
877.234	-21.5
877.407	82.94
877.579	5.12
877.752	54.27
877.924	80.89
878.097	9.22
878.269	99.33
878.442	15.36
878.614	-33.79
878.786	-39.94
878.959	-1.02
879.131	-3.07
879.303	-25.6
879.476	-7.17
879.648	11.26
879.82	-5.12
879.993	3.07
880.165	-25.6
880.337	-13.31
880.509	70.65
880.681	-39.94
880.854	-39.94
881.026	113.66
881.198	164.86
881.37	-44.03
881.542	-5.12
881.714	17.41
881.886	29.7
882.058	144.38
882.23	-17.41
882.402	-17.41
882.574	-58.37
882.746	27.65
882.918	17.41
883.09	27.65
883.262	-48.13
883.434	33.79
883.606	-5.12
883.778	-23.55
883.95	50.18
884.122	27.65
884.293	35.84
884.465	-23.55
884.637	35.84
884.809	-74.75
884.98	25.6
885.152	89.09
885.324	-11.26
885.496	-41.98
885.667	3.07
885.839	31.74
886.011	87.04
886.182	1.02
886.354	21.5
886.525	-72.7
886.697	15.36
886.869	-33.79
887.04	23.55
887.212	111.61
887.383	46.08
887.555	-17.41
887.726	21.5
887.897	-3.07
888.069	-19.46
888.24	41.98
888.412	-37.89
888.583	-3.07
888.754	-15.36
888.926	-19.46
889.097	-21.5
889.268	-31.74
889.44	-29.7
889.611	-23.55
889.782	-35.84
889.953	-66.56
890.125	33.79
890.296	-31.74
890.467	-52.22
890.638	-33.79
890.809	48.13
890.98	-37.89
891.151	-15.36
891.323	-7.17
891.494	31.74
891.665	-31.74
891.836	-17.41
892.007	29.7
892.178	-15.36
892.349	25.6
892.52	31.74
892.691	-58.37
892.862	-17.41
893.032	21.5
893.203	52.22
893.374	58.37
893.545	39.94
893.716	-48.13
893.887	56.32
894.057	15.36
894.228	-33.79
894.399	-35.84
894.57	41.98
894.74	-37.89
894.911	-5.12
895.082	15.36
895.253	-7.17
895.423	-80.89
895.594	13.31
895.764	46.08
895.935	-39.94
896.106	25.6
896.276	21.5
896.447	23.55
896.617	54.27
896.788	23.55
896.958	-5.12
897.129	-3.07
897.299	-52.22
897.47	-17.41
897.64	1.02
897.81	15.36
897.981	-19.46
898.151	-41.98
898.322	46.08
898.492	13.31
898.662	46.08
898.832	19.46
899.003	5.12
899.173	78.85
899.343	-1.02
899.513	-13.31
