Data from USB4F104151__82__12-24-26-946.txt Node

Date: Fri Mar 14 12:24:26 EDT 2025
User: louis
Spectrometer: USB4F10415
Trigger mode: 4
Integration Time (sec): 3.500000E-2
Scans to average: 1
Electric dark correction enabled: true
Nonlinearity correction enabled: false
Boxcar width: 0
XAxis mode: Wavelengths
Number of Pixels in Spectrum: 3648
>>>>>Begin Spectral Data<<<<<
178.204	-153.94
178.424	-153.94
178.644	-153.94
178.864	-172.37
179.084	-209.23
179.304	13.99
179.524	-72.02
179.744	1.71
179.964	69.29
180.184	-4.44
180.404	22.19
180.624	-121.17
180.844	30.38
181.064	-57.68
181.283	63.15
181.503	5.8
181.723	48.81
181.943	83.63
182.163	85.67
182.383	-20.82
182.602	71.34
182.822	71.34
183.042	26.28
183.262	3.75
183.482	26.28
183.701	-45.4
183.921	69.29
184.141	-65.88
184.361	54.95
184.58	-10.58
184.8	-8.53
185.02	32.43
185.239	79.53
185.459	-59.73
185.679	50.86
185.898	-26.96
186.118	34.47
186.338	-22.87
186.557	-41.3
186.777	-63.83
186.997	5.8
187.216	48.81
187.436	73.39
187.655	20.14
187.875	54.95
188.095	-18.77
188.314	16.04
188.534	116.39
188.753	32.43
188.973	-26.96
189.192	116.39
189.412	89.77
189.631	-2.39
189.851	5.8
190.07	36.52
190.29	-10.58
190.509	-63.83
190.729	28.33
190.948	-2.39
191.168	106.15
191.387	48.81
191.607	-8.53
191.826	50.86
192.045	-104.79
192.265	18.09
192.484	9.9
192.704	54.95
192.923	3.75
193.142	81.58
193.362	42.67
193.581	69.29
193.8	28.33
194.02	65.19
194.239	42.67
194.458	34.47
194.678	20.14
194.897	-8.53
195.116	-20.82
195.335	48.81
195.555	44.71
195.774	-10.58
195.993	69.29
196.212	40.62
196.432	24.23
196.651	-55.64
196.87	-4.44
197.089	63.15
197.308	42.67
197.528	16.04
197.747	83.63
197.966	32.43
198.185	120.49
198.404	24.23
198.623	16.04
198.842	65.19
199.062	9.9
199.281	65.19
199.5	-31.06
199.719	9.9
199.938	22.19
200.157	73.39
200.376	34.47
200.595	1.71
200.814	48.81
201.033	-31.06
201.252	69.29
201.471	-55.64
201.69	40.62
201.909	-0.34
202.128	-4.44
202.347	-29.01
202.566	11.95
202.785	-29.01
203.004	61.1
203.223	83.63
203.442	75.43
203.661	-2.39
203.879	48.81
204.098	36.52
204.317	-55.64
204.536	81.58
204.755	7.85
204.974	54.95
205.193	97.96
205.411	95.91
205.63	3.75
205.849	30.38
206.068	-43.35
206.287	57
206.505	100.01
206.724	112.3
206.943	20.14
207.162	54.95
207.381	57
207.599	38.57
207.818	3.75
208.037	-0.34
208.255	7.85
208.474	16.04
208.693	42.67
208.911	57
209.13	20.14
209.349	32.43
209.567	87.72
209.786	32.43
210.005	-12.63
210.223	16.04
210.442	-4.44
210.661	30.38
210.879	48.81
211.098	-2.39
211.316	136.87
211.535	26.28
211.753	-43.35
211.972	130.73
212.191	59.05
212.409	50.86
212.628	36.52
212.846	-18.77
213.065	63.15
213.283	97.96
213.502	-6.49
213.72	-47.44
213.938	-41.3
214.157	-57.68
214.375	5.8
214.594	3.75
214.812	34.47
215.031	-20.82
215.249	-4.44
215.467	34.47
215.686	44.71
215.904	48.81
216.122	-8.53
216.341	50.86
216.559	71.34
216.778	-12.63
216.996	69.29
217.214	-0.34
217.432	40.62
217.651	7.85
217.869	-84.31
218.087	-16.73
218.306	9.9
218.524	75.43
218.742	1.71
218.96	67.24
219.179	-8.53
219.397	24.23
219.615	100.01
219.833	57
220.051	-39.25
220.27	114.34
220.488	5.8
220.706	110.25
220.924	42.67
221.142	30.38
221.36	38.57
221.578	32.43
221.796	-6.49
222.015	7.85
222.233	5.8
222.451	95.91
222.669	-22.87
222.887	73.39
223.105	-26.96
223.323	-22.87
223.541	-41.3
223.759	-35.16
223.977	-0.34
224.195	69.29
224.413	-16.73
224.631	48.81
224.849	-4.44
225.067	71.34
225.285	-76.12
225.503	46.76
225.721	-39.25
225.939	75.43
226.157	-41.3
226.375	95.91
226.592	-26.96
226.81	42.67
227.028	108.2
227.246	75.43
227.464	44.71
227.682	36.52
227.9	36.52
228.117	22.19
228.335	83.63
228.553	-24.92
228.771	46.76
228.989	24.23
229.206	-2.39
229.424	32.43
229.642	-4.44
229.86	-0.34
230.077	20.14
230.295	5.8
230.513	79.53
230.731	81.58
230.948	73.39
231.166	114.34
231.384	42.67
231.601	-18.77
231.819	48.81
232.037	-4.44
232.254	-41.3
232.472	69.29
232.689	5.8
232.907	97.96
233.125	44.71
233.342	-26.96
233.56	30.38
233.777	-22.87
233.995	13.99
234.213	79.53
234.43	46.76
234.648	-0.34
234.865	36.52
235.083	-8.53
235.3	-20.82
235.518	81.58
235.735	77.48
235.953	151.21
236.17	36.52
236.388	5.8
236.605	-49.49
236.822	65.19
237.04	54.95
237.257	-33.11
237.475	-18.77
237.692	83.63
237.909	-2.39
238.127	50.86
238.344	-53.59
238.562	28.33
238.779	-18.77
238.996	-12.63
239.214	34.47
239.431	30.38
239.648	54.95
239.865	75.43
240.083	85.67
240.3	67.24
240.517	13.99
240.735	-43.35
240.952	71.34
241.169	-2.39
241.386	26.28
241.603	65.19
241.821	13.99
242.038	11.95
242.255	13.99
242.472	-45.4
242.689	30.38
242.907	-4.44
243.124	-8.53
243.341	67.24
243.558	-63.83
243.775	-4.44
243.992	-29.01
244.209	-69.97
244.426	102.06
244.643	83.63
244.86	-20.82
245.078	38.57
245.295	44.71
245.512	-6.49
245.729	20.14
245.946	42.67
246.163	65.19
246.38	81.58
246.597	44.71
246.814	11.95
247.031	-63.83
247.248	16.04
247.464	48.81
247.681	-41.3
247.898	-10.58
248.115	85.67
248.332	7.85
248.549	42.67
248.766	106.15
248.983	16.04
249.2	11.95
249.417	83.63
249.633	-12.63
249.85	81.58
250.067	16.04
250.284	-12.63
250.501	106.15
250.717	48.81
250.934	20.14
251.151	-51.54
251.368	44.71
251.585	7.85
251.801	-26.96
252.018	28.33
252.235	1.71
252.451	71.34
252.668	9.9
252.885	106.15
253.102	-26.96
253.318	69.29
253.535	3.75
253.752	-37.2
253.968	-33.11
254.185	13.99
254.401	9.9
254.618	-16.73
254.835	-29.01
255.051	57
255.268	-6.49
255.484	-55.64
255.701	16.04
255.917	89.77
256.134	-24.92
256.351	-14.68
256.567	-69.97
256.784	36.52
257	-20.82
257.217	71.34
257.433	11.95
257.65	104.11
257.866	75.43
258.082	-39.25
258.299	48.81
258.515	7.85
258.732	-24.92
258.948	9.9
259.165	26.28
259.381	30.38
259.597	54.95
259.814	75.43
260.03	18.09
260.246	-33.11
260.463	32.43
260.679	16.04
260.895	20.14
261.112	104.11
261.328	38.57
261.544	-59.73
261.761	130.73
261.977	42.67
262.193	-39.25
262.409	26.28
262.626	79.53
262.842	-6.49
263.058	-22.87
263.274	20.14
263.49	-16.73
263.707	79.53
263.923	36.52
264.139	-18.77
264.355	50.86
264.571	91.82
264.787	18.09
265.004	26.28
265.22	48.81
265.436	28.33
265.652	-69.97
265.868	73.39
266.084	-59.73
266.3	46.76
266.516	13.99
266.732	42.67
266.948	93.87
267.164	52.91
267.38	59.05
267.596	16.04
267.812	145.06
268.028	-8.53
268.244	20.14
268.46	75.43
268.676	50.86
268.892	7.85
269.108	-35.16
269.324	-39.25
269.54	-20.82
269.756	130.73
269.972	28.33
270.188	34.47
270.403	30.38
270.619	-16.73
270.835	18.09
271.051	1.71
271.267	-12.63
271.483	1.71
271.698	32.43
271.914	5.8
272.13	52.91
272.346	-24.92
272.562	5.8
272.777	-6.49
272.993	-43.35
273.209	-29.01
273.425	20.14
273.64	50.86
273.856	34.47
274.072	-18.77
274.287	-8.53
274.503	28.33
274.719	26.28
274.934	9.9
275.15	22.19
275.366	77.48
275.581	-6.49
275.797	-37.2
276.012	30.38
276.228	71.34
276.444	26.28
276.659	108.2
276.875	1.71
277.09	36.52
277.306	3.75
277.521	91.82
277.737	-20.82
277.952	91.82
278.168	16.04
278.383	34.47
278.599	-22.87
278.814	22.19
279.03	38.57
279.245	69.29
279.461	-16.73
279.676	42.67
279.892	44.71
280.107	93.87
280.322	48.81
280.538	44.71
280.753	-18.77
280.969	40.62
281.184	18.09
281.399	73.39
281.615	9.9
281.83	24.23
282.045	1.71
282.26	-35.16
282.476	3.75
282.691	73.39
282.906	18.09
283.122	-16.73
283.337	42.67
283.552	52.91
283.767	100.01
283.983	26.28
284.198	-67.92
284.413	30.38
284.628	-47.44
284.843	-4.44
285.058	52.91
285.274	-78.16
285.489	5.8
285.704	81.58
285.919	11.95
286.134	32.43
286.349	-26.96
286.564	-18.77
286.779	-6.49
286.995	81.58
287.21	-76.12
287.425	28.33
287.64	-51.54
287.855	-49.49
288.07	11.95
288.285	-6.49
288.5	-16.73
288.715	89.77
288.93	40.62
289.145	13.99
289.36	67.24
289.575	50.86
289.79	100.01
290.004	24.23
290.219	95.91
290.434	7.85
290.649	71.34
290.864	54.95
291.079	26.28
291.294	-2.39
291.509	34.47
291.724	-26.96
291.938	-10.58
292.153	71.34
292.368	1.71
292.583	32.43
292.798	83.63
293.012	-37.2
293.227	-0.34
293.442	36.52
293.657	26.28
293.871	44.71
294.086	52.91
294.301	34.47
294.516	34.47
294.73	57
294.945	-16.73
295.16	-8.53
295.374	61.1
295.589	54.95
295.804	-49.49
296.018	34.47
296.233	54.95
296.447	42.67
296.662	13.99
296.877	91.82
297.091	-0.34
297.306	16.04
297.52	24.23
297.735	5.8
297.949	42.67
298.164	89.77
298.378	32.43
298.593	18.09
298.807	-12.63
299.022	83.63
299.236	61.1
299.451	50.86
299.665	-2.39
299.88	57
300.094	18.09
300.309	57
300.523	24.23
300.737	16.04
300.952	-14.68
301.166	-14.68
301.381	20.14
301.595	-14.68
301.809	26.28
302.024	-72.02
302.238	-65.88
302.452	-39.25
302.667	40.62
302.881	7.85
303.095	36.52
303.309	34.47
303.524	-6.49
303.738	20.14
303.952	5.8
304.166	3.75
304.381	-104.79
304.595	57
304.809	-0.34
305.023	67.24
305.237	108.2
305.452	89.77
305.666	-45.4
305.88	63.15
306.094	36.52
306.308	32.43
306.522	83.63
306.736	61.1
306.95	104.11
307.164	36.52
307.379	18.09
307.593	110.25
307.807	13.99
308.021	89.77
308.235	42.67
308.449	-33.11
308.663	18.09
308.877	100.01
309.091	28.33
309.305	63.15
309.519	22.19
309.733	-35.16
309.947	-53.59
310.161	52.91
310.374	54.95
310.588	69.29
310.802	7.85
311.016	-65.88
311.23	-6.49
311.444	-8.53
311.658	-35.16
311.872	89.77
312.085	63.15
312.299	9.9
312.513	65.19
312.727	32.43
312.941	20.14
313.154	16.04
313.368	34.47
313.582	34.47
313.796	-39.25
314.009	63.15
314.223	143.02
314.437	32.43
314.651	7.85
314.864	-26.96
315.078	-10.58
315.292	7.85
315.505	-18.77
315.719	-0.34
315.933	-53.59
316.146	-90.45
316.36	57
316.573	57
316.787	67.24
317.001	81.58
317.214	9.9
317.428	67.24
317.641	-37.2
317.855	22.19
318.068	100.01
318.282	75.43
318.495	85.67
318.709	71.34
318.922	-43.35
319.136	5.8
319.349	24.23
319.563	-4.44
319.776	-6.49
319.99	-4.44
320.203	65.19
320.417	77.48
320.63	67.24
320.843	54.95
321.057	-37.2
321.27	-16.73
321.483	-55.64
321.697	61.1
321.91	-2.39
322.124	13.99
322.337	11.95
322.55	-8.53
322.763	50.86
322.977	48.81
323.19	40.62
323.403	24.23
323.617	-2.39
323.83	11.95
324.043	-10.58
324.256	112.3
324.469	-69.97
324.683	71.34
324.896	13.99
325.109	110.25
325.322	-8.53
325.535	102.06
325.748	40.62
325.962	63.15
326.175	-26.96
326.388	-18.77
326.601	7.85
326.814	124.58
327.027	13.99
327.24	79.53
327.453	-65.88
327.666	91.82
327.879	89.77
328.092	102.06
328.305	40.62
328.518	16.04
328.731	18.09
328.944	3.75
329.157	83.63
329.37	-18.77
329.583	122.54
329.796	110.25
330.009	-16.73
330.222	38.57
330.435	50.86
330.648	13.99
330.861	63.15
331.073	32.43
331.286	75.43
331.499	59.05
331.712	-22.87
331.925	52.91
332.138	11.95
332.35	108.2
332.563	-29.01
332.776	22.19
332.989	-16.73
333.202	50.86
333.414	34.47
333.627	63.15
333.84	16.04
334.053	85.67
334.265	11.95
334.478	32.43
334.691	-2.39
334.903	52.91
335.116	20.14
335.329	-14.68
335.541	67.24
335.754	97.96
335.966	-24.92
336.179	22.19
336.392	-57.68
336.604	40.62
336.817	-2.39
337.029	-12.63
337.242	9.9
337.454	159.4
337.667	81.58
337.88	114.34
338.092	16.04
338.305	65.19
338.517	-8.53
338.729	108.2
338.942	42.67
339.154	-51.54
339.367	-18.77
339.579	44.71
339.792	-47.44
340.004	20.14
340.217	50.86
340.429	63.15
340.641	26.28
340.854	-0.34
341.066	42.67
341.278	57
341.491	-39.25
341.703	26.28
341.915	-24.92
342.128	132.78
342.34	59.05
342.552	30.38
342.764	13.99
342.977	7.85
343.189	1.71
343.401	11.95
343.613	-51.54
343.826	48.81
344.038	32.43
344.25	30.38
344.462	3.75
344.674	-35.16
344.886	24.23
345.099	57
345.311	46.76
345.523	20.14
345.735	-12.63
345.947	24.23
346.159	100.01
346.371	-39.25
346.583	32.43
346.795	57
347.007	-37.2
347.219	155.3
347.431	-57.68
347.643	63.15
347.855	20.14
348.067	112.3
348.279	-41.3
348.491	-0.34
348.703	63.15
348.915	38.57
349.127	-39.25
349.339	7.85
349.551	-18.77
349.763	9.9
349.975	34.47
350.187	124.58
350.399	79.53
350.61	48.81
350.822	13.99
351.034	30.38
351.246	44.71
351.458	54.95
351.669	22.19
351.881	89.77
352.093	126.63
352.305	24.23
352.517	13.99
352.728	97.96
352.94	73.39
353.152	-33.11
353.363	9.9
353.575	32.43
353.787	61.1
353.999	50.86
354.21	114.34
354.422	5.8
354.633	-0.34
354.845	-0.34
355.057	65.19
355.268	28.33
355.48	57
355.692	44.71
355.903	42.67
356.115	-10.58
356.326	-57.68
356.538	91.82
356.749	61.1
356.961	97.96
357.172	-22.87
357.384	3.75
357.595	30.38
357.807	42.67
358.018	71.34
358.23	-51.54
358.441	50.86
358.653	-6.49
358.864	13.99
359.075	26.28
359.287	57
359.498	59.05
359.709	22.19
359.921	40.62
360.132	-12.63
360.344	104.11
360.555	22.19
360.766	116.39
360.977	81.58
361.189	83.63
361.4	71.34
361.611	40.62
361.823	77.48
362.034	7.85
362.245	13.99
362.456	77.48
362.667	52.91
362.879	108.2
363.09	42.67
363.301	5.8
363.512	50.86
363.723	-29.01
363.935	-6.49
364.146	20.14
364.357	1.71
364.568	40.62
364.779	-84.31
364.99	52.91
365.201	48.81
365.412	126.63
365.623	-31.06
365.834	52.91
366.045	-31.06
366.256	7.85
366.467	65.19
366.678	-4.44
366.889	26.28
367.1	36.52
367.311	22.19
367.522	-0.34
367.733	50.86
367.944	97.96
368.155	36.52
368.366	32.43
368.577	85.67
368.788	38.57
368.999	-39.25
369.209	106.15
369.42	130.73
369.631	163.5
369.842	20.14
370.053	24.23
370.264	44.71
370.474	5.8
370.685	16.04
370.896	-16.73
371.107	26.28
371.317	5.8
371.528	46.76
371.739	26.28
371.95	20.14
372.16	20.14
372.371	52.91
372.582	89.77
372.792	34.47
373.003	52.91
373.214	18.09
373.424	-33.11
373.635	-16.73
373.846	63.15
374.056	-8.53
374.267	11.95
374.477	34.47
374.688	-2.39
374.898	-4.44
375.109	71.34
375.319	-8.53
375.53	134.82
375.74	59.05
375.951	85.67
376.161	136.87
376.372	32.43
376.582	1.71
376.793	87.72
377.003	16.04
377.214	-47.44
377.424	52.91
377.635	112.3
377.845	-80.21
378.055	48.81
378.266	-31.06
378.476	50.86
378.686	67.24
378.897	46.76
379.107	32.43
379.317	20.14
379.528	73.39
379.738	40.62
379.948	91.82
380.158	83.63
380.369	24.23
380.579	73.39
380.789	-41.3
380.999	52.91
381.21	77.48
381.42	11.95
381.63	22.19
381.84	3.75
382.05	5.8
382.261	81.58
382.471	73.39
382.681	-10.58
382.891	95.91
383.101	100.01
383.311	1.71
383.521	26.28
383.731	104.11
383.941	44.71
384.151	32.43
384.361	26.28
384.571	-35.16
384.781	67.24
384.991	69.29
385.201	65.19
385.411	54.95
385.621	63.15
385.831	54.95
386.041	30.38
386.251	24.23
386.461	52.91
386.671	7.85
386.881	-51.54
387.091	69.29
387.301	61.1
387.511	40.62
387.72	52.91
387.93	87.72
388.14	9.9
388.35	57
388.56	28.33
388.769	100.01
388.979	-2.39
389.189	87.72
389.399	42.67
389.609	124.58
389.818	63.15
390.028	89.77
390.238	9.9
390.447	-16.73
390.657	63.15
390.867	-2.39
391.076	48.81
391.286	50.86
391.496	28.33
391.705	36.52
391.915	54.95
392.125	108.2
392.334	-10.58
392.544	147.11
392.753	46.76
392.963	-33.11
393.172	13.99
393.382	69.29
393.591	95.91
393.801	18.09
394.01	85.67
394.22	42.67
394.429	83.63
394.639	52.91
394.848	54.95
395.058	52.91
395.267	130.73
395.477	48.81
395.686	67.24
395.895	87.72
396.105	130.73
396.314	65.19
396.524	54.95
396.733	40.62
396.942	116.39
397.152	42.67
397.361	116.39
397.57	50.86
397.78	42.67
397.989	95.91
398.198	153.26
398.407	104.11
398.617	81.58
398.826	71.34
399.035	42.67
399.244	54.95
399.453	57
399.663	159.4
399.872	128.68
400.081	61.1
400.29	108.2
400.499	5.8
400.708	149.16
400.917	32.43
401.127	38.57
401.336	67.24
401.545	151.21
401.754	130.73
401.963	128.68
402.172	122.54
402.381	69.29
402.59	87.72
402.799	50.86
403.008	75.43
403.217	83.63
403.426	97.96
403.635	106.15
403.844	110.25
404.053	145.06
404.262	57
404.471	167.59
404.68	13.99
404.888	67.24
405.097	5.8
405.306	136.87
405.515	218.79
405.724	179.88
405.933	114.34
406.142	190.12
406.35	81.58
406.559	145.06
406.768	100.01
406.977	247.46
407.185	167.59
407.394	134.82
407.603	95.91
407.812	136.87
408.02	257.7
408.229	257.7
408.438	226.98
408.646	155.3
408.855	272.04
409.064	198.31
409.272	147.11
409.481	237.22
409.69	226.98
409.898	292.52
410.107	218.79
410.315	239.27
410.524	249.51
410.733	353.96
410.941	278.18
411.15	325.29
411.358	347.81
411.567	386.72
411.775	390.82
411.984	431.78
412.192	315.05
412.401	358.05
412.609	415.4
412.818	493.22
413.026	458.4
413.234	439.97
413.443	364.2
413.651	431.78
413.86	472.74
414.068	517.79
414.276	521.89
414.485	435.88
414.693	558.75
414.901	624.29
415.11	595.62
415.318	571.04
415.526	607.91
415.734	618.15
415.943	620.19
416.151	734.88
416.359	726.69
416.567	704.16
416.776	716.45
416.984	831.13
417.192	835.23
417.4	646.82
417.608	716.45
417.817	851.61
418.025	827.04
418.233	994.97
418.441	1009.31
418.649	921.24
418.857	1029.79
419.065	1083.03
419.273	986.78
419.481	1058.46
419.689	1210.01
419.897	1228.44
420.105	1298.07
420.313	1187.48
420.521	1300.12
420.729	1369.75
420.937	1468.05
421.145	1416.85
421.353	1494.68
421.561	1586.83
421.769	1662.61
421.977	1756.82
422.185	1666.71
422.393	1744.53
422.601	1896.08
422.809	1869.45
423.017	1871.5
423.224	1955.47
423.432	2068.11
423.64	2045.58
423.848	2219.66
424.056	2356.87
424.263	2381.45
424.471	2401.93
424.679	2426.5
424.887	2539.14
425.094	2506.37
425.302	2530.95
425.51	2655.87
425.718	2713.22
425.925	2731.65
426.133	2870.91
426.341	3192.44
426.548	3251.83
426.756	3260.02
426.964	3247.74
427.171	3395.19
427.379	3575.41
427.586	3540.6
427.794	3776.11
428.001	3935.85
428.209	4107.88
428.417	4103.79
428.624	4320.87
428.832	4232.81
429.039	4353.64
429.247	4159.08
429.454	4578.92
429.662	4906.59
429.869	4752.99
430.076	5062.24
430.284	4879.97
430.491	5054.05
430.699	5353.05
430.906	5348.95
431.114	5512.79
431.321	5473.88
431.528	5826.13
431.736	6145.61
431.943	6424.14
432.15	6219.34
432.358	6303.31
432.565	6563.4
432.772	6598.21
432.979	6989.38
433.187	7036.48
433.394	7120.45
433.601	7566.9
433.808	7618.1
434.016	7566.9
434.223	7818.8
434.43	8416.81
434.637	8304.17
434.844	8670.76
435.052	8748.58
435.259	8871.46
435.466	8930.85
435.673	8771.11
435.88	9365.02
436.087	9788.95
436.294	9885.2
436.501	9823.76
436.708	9780.76
436.915	10366.48
437.122	10692.1
437.329	10679.82
437.537	11048.45
437.743	11200
437.95	11245.06
438.157	11793.91
438.364	11918.84
438.571	12078.58
438.778	12142.07
438.985	13135.33
439.192	12727.78
439.399	13086.18
439.606	12551.66
439.813	13772.25
440.02	14599.63
440.227	14192.08
440.433	14042.58
440.64	14599.63
440.847	14335.44
441.054	14663.11
441.261	15599.04
441.467	15615.42
441.674	15771.07
441.881	16227.76
442.088	16539.05
442.294	15977.91
442.501	16479.66
442.708	17180.07
442.914	17724.83
443.121	18361.75
443.328	18159
443.534	19166.6
443.741	18742.67
443.948	18496.91
444.154	19766.65
444.361	19676.54
444.568	19987.83
444.774	19842.43
444.981	19985.79
445.187	20680.05
445.394	21366.12
445.6	21134.7
445.807	23338.31
446.013	22314.33
446.22	22801.74
446.426	23778.62
446.633	23860.54
446.839	24593.72
447.046	23745.86
447.252	24878.38
447.459	25183.53
447.665	24935.73
447.871	26090.78
448.078	27540.74
448.284	25806.11
448.491	26436.89
448.697	27479.3
448.903	28042.49
449.11	28296.44
449.316	27933.95
449.522	28024.06
449.728	29244.65
449.935	28937.46
450.141	29461.74
450.347	29654.25
450.553	28828.91
450.76	29613.29
450.966	30278.88
451.172	29699.3
451.378	30883.03
451.584	29916.39
451.791	30702.81
451.997	30754.01
452.203	31274.19
452.409	30872.79
452.615	30831.83
452.821	29719.78
453.027	29727.97
453.233	31366.35
453.44	29861.09
453.646	30315.74
453.852	30360.8
454.058	30921.94
454.264	29914.34
454.47	30631.13
454.676	29691.11
454.882	30659.8
455.088	28138.75
455.294	28515.58
455.5	28742.9
455.705	29486.31
455.911	28187.9
456.117	27938.05
456.323	27098.38
456.529	25810.21
456.735	27043.09
456.941	26092.83
457.147	25789.73
457.352	24747.31
457.558	24636.72
457.764	24765.74
457.97	24014.14
458.176	23971.13
458.381	23784.77
458.587	22818.13
458.793	22447.44
458.999	21509.47
459.204	23106.89
459.41	22465.88
459.616	20753.77
459.821	20723.05
460.027	20618.61
460.233	20370.8
460.438	19242.37
460.644	19643.77
460.85	18646.41
461.055	18470.29
461.261	18199.96
461.466	17067.43
461.672	16422.32
461.878	17448.35
462.083	16512.43
462.289	16262.58
462.494	15871.42
462.7	15367.62
462.905	14970.31
463.111	15377.86
463.316	15443.39
463.522	15316.42
463.727	15250.88
463.932	14986.69
464.138	15062.47
464.343	14984.65
464.549	14435.79
464.754	15089.09
464.959	14990.79
465.165	14486.99
465.37	14179.79
465.575	13927.89
465.781	14474.7
465.986	14255.57
466.191	13831.64
466.397	13635.03
466.602	12975.59
466.807	13458.91
467.012	13333.98
467.218	13452.77
467.423	13426.14
467.628	13278.69
467.833	13712.86
468.038	13247.97
468.244	13080.04
468.449	13526.49
468.654	13059.56
468.859	12883.43
469.064	12918.25
469.269	12477.93
469.474	12412.4
469.679	13041.12
469.885	12363.25
470.09	12568.04
470.295	12217.84
470.5	12283.38
470.705	12107.25
470.91	11781.62
471.115	11791.86
471.32	12103.15
471.525	11951.6
471.73	11841.01
471.935	11695.61
472.139	10948.1
472.344	11331.07
472.549	11286.01
472.754	11187.71
472.959	10946.05
473.164	10810.89
473.369	10673.67
473.574	11030.02
473.778	10991.11
473.983	10704.39
474.188	10616.33
474.393	10223.12
474.598	10372.62
474.802	10173.97
475.007	10083.86
475.212	10092.05
475.417	9854.48
475.621	9815.57
475.826	9846.29
476.031	9582.1
476.235	9532.95
476.44	9455.13
476.645	9211.42
476.849	9201.18
477.054	9375.26
477.259	8969.76
477.463	9207.33
477.668	8920.61
477.872	9135.65
478.077	8715.81
478.282	8607.27
478.486	8742.44
478.691	8379.95
478.895	8644.13
479.1	8502.82
479.304	8439.34
479.509	8201.77
479.713	8461.87
479.918	8216.11
480.122	7986.74
480.326	8216.11
480.531	7972.4
480.735	7999.02
480.94	8087.09
481.144	8347.18
481.348	7822.9
481.553	7970.35
481.757	7663.16
481.961	7781.94
482.166	8033.84
482.37	7933.49
482.574	7874.1
482.778	7777.84
482.983	8029.74
483.187	7925.3
483.391	7794.23
483.595	7808.56
483.8	7820.85
484.004	7675.45
484.208	8001.07
484.412	7671.35
484.616	7792.18
484.821	7898.67
485.025	7749.17
485.229	7831.09
485.433	7802.42
485.637	7806.52
485.841	7708.21
486.045	7745.08
486.249	7708.21
486.453	7994.93
486.657	7763.51
486.861	7829.04
487.065	7585.33
487.269	7677.49
487.473	7712.31
487.677	7863.86
487.881	8113.71
488.085	7851.57
488.289	7749.17
488.493	7814.71
488.697	7876.15
488.901	8023.6
489.105	7839.28
489.309	8119.85
489.512	7935.54
489.716	7923.25
489.92	8039.98
490.124	7978.54
490.328	7921.2
490.531	8154.67
490.735	8177.2
490.939	8015.41
491.143	8218.16
491.346	7921.2
491.55	8197.68
491.754	8128.05
491.958	8218.16
492.161	8062.51
492.365	8162.86
492.569	8144.43
492.772	8216.11
492.976	8265.26
493.18	8314.41
493.383	8533.54
493.587	8562.22
493.79	8666.66
493.994	8328.75
494.197	8703.53
494.401	8842.79
494.605	8615.46
494.808	9086.5
495.012	8703.53
495.215	8816.16
495.419	9201.18
495.622	9045.54
495.825	9078.3
496.029	8959.52
496.232	9326.11
496.436	9387.55
496.639	9602.58
496.843	9426.46
497.046	9745.94
497.249	9707.03
497.453	9793.05
497.656	9637.4
497.859	9807.38
498.063	10022.42
498.266	10427.92
498.469	10165.78
498.673	10317.33
498.876	10515.98
499.079	10591.75
499.282	10706.44
499.485	11003.39
499.689	10901
499.892	11015.68
500.095	10941.96
500.298	11382.27
500.501	11288.06
500.705	11638.27
500.908	11767.29
501.111	11488.76
501.314	11869.69
501.517	12211.7
501.72	12039.67
501.923	12295.66
502.126	12430.83
502.329	12492.27
502.532	12670.44
502.735	12918.25
502.938	13135.33
503.141	12994.02
503.344	13172.19
503.547	13155.81
503.75	13555.16
503.953	13624.79
504.156	13870.55
504.359	14081.49
504.562	13852.12
504.765	14245.33
504.968	14357.97
505.17	14575.05
505.373	14745.03
505.576	15156.68
505.779	15164.87
505.982	15461.82
506.185	15695.29
506.387	15519.17
506.59	15687.1
506.793	16104.88
506.996	16014.77
507.198	16645.55
507.401	16248.24
507.604	16770.47
507.807	16764.33
508.009	17098.15
508.212	17241.51
508.415	17153.44
508.617	17659.29
508.82	17560.99
509.022	17819.03
509.225	18019.74
509.428	18439.57
509.63	18277.78
509.833	18595.21
510.035	19078.54
510.238	18939.27
510.44	19201.41
510.643	19664.25
510.845	19735.93
511.048	19522.94
511.25	19918.2
511.453	19981.69
511.655	20872.56
511.858	20739.44
512.06	21003.63
512.262	21087.59
512.465	21110.12
512.667	21271.91
512.87	21665.12
513.072	21716.32
513.274	22154.58
513.477	22500.69
513.679	22504.79
513.881	22992.2
514.084	23037.26
514.286	23162.19
514.488	23299.4
514.69	23969.08
514.893	24008
515.095	24184.12
515.297	24556.85
515.499	24479.03
515.701	24780.08
515.904	25103.66
516.106	25378.09
516.308	25517.35
516.51	25931.04
516.712	26072.35
516.914	26266.91
517.116	26785.04
517.318	26770.71
517.52	26905.87
517.722	27372.81
517.925	27446.54
518.127	28218.62
518.329	28488.95
518.531	27952.38
518.733	28562.68
518.935	29121.77
519.136	28927.22
519.338	29435.11
519.54	29799.65
519.742	29959.39
519.944	30098.66
520.146	30581.98
520.348	30858.45
520.55	30923.99
520.752	30725.33
520.954	31409.36
521.155	31358.16
521.357	32138.43
521.559	32320.7
521.761	32865.46
521.963	32711.86
522.164	32898.23
522.366	33191.09
522.568	33197.23
522.77	33768.62
522.971	34094.24
523.173	34122.91
523.375	34704.54
523.576	34374.81
523.778	34569.37
523.98	34997.4
524.181	34882.71
524.383	35214.48
524.584	35798.15
524.786	35708.04
524.988	35734.67
525.189	36172.93
525.391	36404.35
525.592	36637.82
525.794	36859
525.995	36641.92
526.197	36936.82
526.398	37135.48
526.6	37612.65
526.801	37370.99
527.003	37622.89
527.204	37758.06
527.406	37971.05
527.607	38399.07
527.808	38388.83
528.01	37846.12
528.211	38225
528.412	39228.5
528.614	39224.4
528.815	39242.84
529.016	39349.33
529.218	39066.71
529.419	38941.78
529.62	38988.89
529.822	39130.2
530.023	39705.68
530.224	39363.67
530.425	39660.62
530.626	39693.39
530.828	39621.71
531.029	40533.06
531.23	39756.88
531.431	39855.18
531.632	40371.27
531.833	40250.44
532.035	40461.38
532.236	40373.31
532.437	40459.33
532.638	40504.38
532.839	40426.56
533.04	40842.3
533.241	40563.78
533.442	40920.12
533.643	40717.37
533.844	40729.66
534.045	41139.25
534.246	40696.89
534.447	40918.07
534.648	40934.46
534.849	40422.47
535.05	40758.33
535.251	40442.95
535.451	40856.64
535.652	41055.29
535.853	40797.24
536.054	40952.89
536.255	41026.62
536.456	40418.37
536.657	41329.72
536.857	40764.48
537.058	40821.82
537.259	41210.93
537.46	41061.43
537.66	40700.99
537.861	41106.49
538.062	40795.2
538.263	40678.46
538.463	40571.97
538.664	40942.65
538.865	40893.5
539.065	41471.03
539.266	40565.82
539.466	41067.58
539.667	40715.33
539.868	41520.18
540.068	40870.97
540.269	40997.95
540.469	40934.46
540.67	40834.11
540.87	40746.04
541.071	41040.95
541.271	41018.42
541.472	41094.2
541.672	40875.07
541.873	40545.34
542.073	40088.65
542.274	41059.38
542.474	40891.45
542.675	41049.14
542.875	41274.42
543.075	41067.58
543.276	40250.44
543.476	41137.21
543.676	40657.98
543.877	41421.87
544.077	40737.85
544.277	40705.09
544.478	40524.86
544.678	40707.13
544.878	40930.36
545.078	40799.29
545.279	40434.75
545.479	40596.54
545.679	40764.48
545.879	40707.13
546.079	40637.5
546.28	40131.65
546.48	40365.12
546.68	40469.57
546.88	40999.99
547.08	40752.19
547.28	40602.69
547.48	40596.54
547.68	40320.07
547.88	40330.31
548.081	40850.49
548.281	40490.05
548.481	40404.03
548.681	40920.12
548.881	40584.26
549.081	40469.57
549.28	40127.56
549.48	40827.96
549.68	40330.31
549.88	41192.5
550.08	40252.48
550.28	40901.69
550.48	40205.38
550.68	40698.94
550.88	40617.02
551.08	40477.76
551.279	40311.88
551.479	39955.53
551.679	40266.82
551.879	40479.81
552.079	40553.54
552.278	40047.69
552.478	40455.23
552.678	40422.47
552.878	40836.16
553.077	40318.02
553.277	39832.65
553.477	40215.62
553.676	39838.79
553.876	40670.27
554.076	40127.56
554.275	39939.15
554.475	39394.39
554.674	40522.82
554.874	40244.29
555.074	39943.24
555.273	39814.22
555.473	39928.91
555.672	39996.49
555.872	40068.17
556.071	39986.25
556.271	40213.57
556.47	39629.9
556.67	39171.16
556.869	39640.14
557.068	39670.86
557.268	39328.85
557.467	39365.71
557.667	39369.81
557.866	39287.89
558.065	39015.51
558.265	39437.39
558.464	39193.68
558.663	39380.05
558.863	39142.49
559.062	39650.38
559.261	39031.9
559.461	39060.57
559.66	38784.09
559.859	38567.01
560.058	38376.55
560.258	39005.27
560.457	38435.94
560.656	38612.06
560.855	38589.53
561.054	38450.27
561.253	38001.77
561.453	38020.2
561.652	38288.48
561.851	38325.35
562.05	38231.14
562.249	38032.49
562.448	38282.34
562.647	38028.39
562.846	37788.78
563.045	37774.44
563.244	37330.03
563.443	37858.41
563.642	37395.57
563.841	37614.7
564.04	37612.65
564.239	37606.51
564.438	37280.88
564.637	37100.66
564.836	37250.16
565.035	36314.24
565.234	36863.1
565.432	36834.42
565.631	36695.16
565.83	37100.66
566.029	36234.37
566.228	36353.15
566.427	36338.82
566.625	36072.58
566.824	36002.95
567.023	36369.54
567.222	35269.78
567.42	36359.3
567.619	35497.1
567.818	35482.77
568.016	35800.2
568.215	35787.91
568.414	35355.79
568.612	35519.63
568.811	34872.47
569.01	35124.37
569.208	34571.42
569.407	35206.29
569.605	34434.21
569.804	35062.93
570.002	34755.74
570.201	34808.98
570.4	34294.94
570.598	34340
570.797	34235.55
570.995	34192.54
571.193	33801.38
571.392	33946.79
571.59	33893.54
571.789	33799.33
571.987	33860.77
572.186	33504.43
572.384	33156.27
572.582	33209.52
572.781	33295.53
572.979	32711.86
573.177	33158.32
573.376	33174.7
573.574	32701.62
573.772	33184.94
573.971	32486.59
574.169	32357.56
574.367	32365.76
574.565	32574.65
574.763	32185.54
574.962	32132.29
575.16	31997.12
575.358	32251.07
575.556	31675.59
575.754	32341.18
575.952	31907.01
576.151	31562.95
576.349	31306.96
576.547	31280.33
576.745	31472.84
576.943	31521.99
577.141	31235.28
577.339	31493.32
577.537	30960.85
577.735	30821.59
577.933	30811.35
578.131	30803.16
578.329	30491.87
578.527	30579.93
578.725	30381.28
578.923	30471.39
579.121	30194.91
579.319	30350.56
579.516	30551.26
579.714	30252.25
579.912	29949.15
580.11	30061.79
580.308	29549.8
580.506	29525.22
580.704	29277.42
580.901	29504.74
581.099	29580.52
581.297	29349.1
581.495	29132.01
581.692	29510.89
581.89	29074.67
582.088	29347.05
582.285	28726.52
582.483	29205.74
582.681	28826.87
582.878	28589.3
583.076	28566.77
583.274	28703.99
583.471	28112.13
583.669	28368.12
583.866	28220.67
584.064	28417.27
584.262	28196.09
584.459	28120.32
584.657	28052.73
584.854	28132.61
585.052	27604.23
585.249	27839.75
585.447	27559.17
585.644	27661.57
585.841	27696.39
586.039	27698.44
586.236	27364.62
586.434	27225.36
586.631	27290.89
586.828	27522.31
587.026	27278.6
587.223	26746.13
587.42	27090.19
587.618	26864.91
587.815	26764.56
588.012	26463.51
588.21	26375.45
588.407	26617.11
588.604	26223.9
588.801	26436.89
588.999	26352.92
589.196	26197.27
589.393	26555.67
589.59	26348.82
589.787	25890.08
589.984	25959.71
590.182	25679.14
590.379	25681.19
590.576	25750.82
590.773	25384.23
590.97	25363.75
591.167	25244.97
591.364	25097.52
591.561	25283.88
591.758	25060.65
591.955	24866.1
592.152	25275.69
592.349	25089.32
592.546	25343.27
592.743	24915.25
592.94	24771.89
593.137	24417.59
593.334	24825.14
593.531	24231.22
593.727	24698.16
593.924	24272.18
594.121	23911.74
594.318	24626.48
594.515	24016.19
594.712	24487.22
594.908	23952.7
595.105	23756.1
595.302	23831.87
595.499	23725.38
595.696	23530.82
595.892	23645.51
596.089	23491.91
596.286	23721.28
596.482	23323.97
596.679	23403.85
596.876	23438.66
597.072	23291.21
597.269	23334.21
597.466	22924.62
597.662	23084.36
597.859	23166.28
598.055	22900.05
598.252	22764.88
598.448	22875.47
598.645	22404.44
598.841	22345.05
599.038	22457.68
599.234	22801.74
599.431	22400.34
599.627	22330.71
599.824	22568.27
600.02	22003.03
600.217	22361.43
600.413	22189.4
600.609	22336.85
600.806	21976.41
601.002	21878.11
601.198	21736.8
601.395	21867.87
601.591	21648.74
601.787	21386.6
601.984	21366.12
602.18	21798.24
602.376	21419.36
602.572	21282.15
602.769	21216.61
602.965	20934
603.161	21339.49
603.357	21208.42
603.553	20764.01
603.75	21292.39
603.946	20831.6
604.142	21022.06
604.338	20624.75
604.534	20858.22
604.73	20311.41
604.926	20618.61
605.122	20671.86
605.318	20321.65
605.514	20266.36
605.71	20467.06
605.906	20295.03
606.102	20092.28
606.298	19867
606.494	20284.79
606.69	20112.76
606.886	19922.3
607.082	19533.18
607.278	20059.51
607.474	19543.42
607.67	19717.5
607.866	19631.49
608.062	19879.29
608.257	19699.07
608.453	19672.45
608.649	19574.14
608.845	19481.99
609.041	19508.61
609.236	19524.99
609.432	19604.86
609.628	19529.09
609.824	19367.3
610.019	19109.26
610.215	19078.54
610.411	19297.67
610.606	19246.47
610.802	19004.81
610.998	19021.19
611.193	18863.5
611.389	18904.46
611.584	18818.44
611.78	18621.84
611.976	18750.86
612.171	18812.3
612.367	18550.16
612.562	18519.44
612.758	18480.53
612.953	18427.28
613.149	18652.56
613.344	18402.71
613.539	18347.41
613.735	18306.45
613.93	18365.84
614.126	18353.55
614.321	18425.23
614.517	18236.82
614.712	18075.03
614.907	18124.18
615.103	18326.93
615.298	17698.2
615.493	18027.93
615.688	17892.76
615.884	18335.12
616.079	17681.82
616.274	17845.66
616.47	17831.32
616.665	17837.47
616.86	17536.42
617.055	17837.47
617.25	17423.78
617.445	17755.55
617.641	17249.7
617.836	17577.37
618.031	17438.11
618.226	17376.67
618.421	17329.57
618.616	17415.58
618.811	16950.7
619.006	17210.79
619.201	16956.84
619.396	17126.82
619.591	16700.84
619.786	16938.41
619.981	16596.4
620.176	16864.68
620.371	16508.33
620.566	16643.5
620.761	16623.02
620.956	16608.69
621.151	16213.43
621.346	16328.11
621.541	16145.84
621.735	16168.37
621.93	15760.83
622.125	16326.07
622.32	15824.31
622.515	15941.05
622.709	15596.99
622.904	15779.26
623.099	15439.3
623.294	15621.56
623.488	15318.46
623.683	15367.62
623.878	15207.87
624.072	15547.84
624.267	15017.41
624.462	15095.24
624.656	14966.21
624.851	15123.91
625.046	14712.27
625.24	14818.76
625.435	14474.7
625.629	14671.31
625.824	14368.21
626.018	14321.1
626.213	14087.64
626.407	14224.85
626.602	14077.4
626.796	14157.27
626.991	14222.8
627.185	14149.07
627.38	14038.48
627.574	13778.39
627.768	13766.1
627.963	13530.59
628.157	13546.97
628.352	13526.49
628.546	13526.49
628.74	13518.3
628.935	13178.34
629.129	13319.65
629.323	13196.77
629.517	12905.96
629.712	12983.78
629.906	12946.92
630.1	12658.15
630.294	12781.03
630.489	12660.2
630.683	12994.02
630.877	12428.78
631.071	12506.6
631.265	12471.79
631.459	12391.92
631.653	12463.6
631.848	12334.57
632.042	11992.56
632.236	12185.07
632.43	12019.19
632.624	12117.49
632.818	11908.6
633.012	11765.24
633.206	11806.2
633.4	11742.71
633.594	11632.12
633.788	11802.1
633.982	11642.36
634.176	11607.55
634.369	11304.45
634.563	11249.15
634.757	11443.71
634.951	11298.3
635.145	11091.46
635.339	11279.87
635.533	11124.22
635.726	10802.69
635.92	10798.6
636.114	11134.46
636.308	10812.93
636.501	10814.98
636.695	10608.14
636.889	10700.3
637.083	10671.62
637.276	10606.09
637.47	10466.83
637.664	10468.87
637.857	10348.04
638.051	10284.56
638.244	10290.7
638.438	10173.97
638.632	10186.26
638.825	10106.38
639.019	10036.75
639.212	9911.83
639.406	9991.7
639.599	9944.59
639.793	9733.65
639.986	9836.05
640.18	9848.34
640.373	9737.75
640.567	9684.5
640.76	9625.11
640.954	9807.38
641.147	9668.12
641.34	9473.56
641.534	9479.71
641.727	9545.24
641.92	9162.27
642.114	9246.24
642.307	9180.7
642.5	9100.83
642.694	8977.95
642.887	8961.57
643.08	9076.26
643.273	8965.67
643.467	8984.1
643.66	8840.74
643.853	8826.4
644.046	8660.52
644.239	8625.7
644.432	8664.61
644.626	8554.02
644.819	8582.7
645.012	8580.65
645.205	8724.01
645.398	8568.36
645.591	8349.23
645.784	8265.26
645.977	8293.93
646.17	8328.75
646.363	8128.05
646.556	8015.41
646.749	8130.09
646.942	8138.29
647.135	7968.31
647.328	8046.13
647.521	7984.69
647.714	7902.77
647.907	7628.34
648.099	7796.28
648.292	7697.97
648.485	7788.08
648.678	7513.66
648.871	7448.12
649.064	7470.65
649.256	7646.77
649.449	7677.49
649.642	7401.02
649.835	7505.46
650.027	7358.01
650.22	7161.41
650.413	7321.15
650.605	7263.8
650.798	7179.84
650.991	7231.04
651.183	7132.73
651.376	7155.26
651.568	7120.45
651.761	6997.57
651.954	7040.58
652.146	6882.88
652.339	7120.45
652.531	6880.83
652.724	6981.18
652.916	6741.57
653.109	6610.5
653.301	6755.91
653.494	6813.25
653.686	6542.92
653.879	6741.57
654.071	6538.82
654.263	6575.69
654.456	6514.25
654.648	6553.16
654.84	6434.38
655.033	6364.75
655.225	6469.19
655.417	6385.23
655.61	6235.72
655.802	6422.09
655.994	6329.93
656.186	6366.79
656.379	6229.58
656.571	6209.1
656.763	6045.26
656.955	6215.24
657.148	6078.03
657.34	6180.43
657.532	5789.27
657.724	6213.2
657.916	6014.54
658.108	5922.38
658.3	5920.34
658.492	5854.8
658.684	5901.9
658.876	5867.09
659.068	5797.46
659.26	5785.17
659.452	5604.95
659.644	5838.42
659.836	5607
660.028	5598.81
660.22	5592.66
660.412	5514.84
660.604	5588.57
660.796	5559.89
660.988	5578.33
661.18	5541.46
661.372	5383.77
661.563	5594.71
661.755	5389.91
661.947	5381.72
662.139	5375.58
662.331	5512.79
662.522	5402.2
662.714	5359.19
662.906	5271.13
663.097	5244.51
663.289	5203.55
663.481	5135.96
663.673	5226.07
663.864	5121.63
664.056	5152.35
664.247	5185.12
664.439	4951.65
664.631	5006.94
664.822	5111.39
665.014	5041.76
665.205	4892.26
665.397	5088.86
665.588	4908.64
665.78	4839.01
665.971	5070.43
666.163	4902.5
666.354	4859.49
666.546	4845.15
666.737	4779.62
666.929	4777.57
667.12	4775.52
667.311	4722.27
667.503	4542.05
667.694	4656.74
667.885	4666.98
668.077	4679.27
668.268	4634.21
668.459	4562.53
668.651	4615.78
668.842	4486.76
669.033	4484.71
669.224	4497
669.416	4646.5
669.607	4535.91
669.798	4540.01
669.989	4566.63
670.18	4509.29
670.371	4542.05
670.563	4554.34
670.754	4488.81
670.945	4419.18
671.136	4433.51
671.327	4441.7
671.518	4406.89
671.709	4546.15
671.9	4488.81
672.091	4374.12
672.282	4320.87
672.473	4357.74
672.664	4365.93
672.855	4329.06
673.046	4327.02
673.237	4351.59
673.428	4365.93
673.619	4382.31
673.809	4124.27
674	4202.09
674.191	4132.46
674.382	4116.08
674.573	4191.85
674.764	4372.07
674.954	4204.14
675.145	4175.47
675.336	4169.32
675.527	4197.99
675.717	4114.03
675.908	4134.51
676.099	4234.86
676.289	4177.51
676.48	4197.99
676.671	4095.6
676.861	4079.21
677.052	4109.93
677.243	4015.73
677.433	4152.94
677.624	4197.99
677.814	4073.07
678.005	4130.41
678.195	3982.96
678.386	4222.57
678.576	4097.64
678.767	3876.46
678.957	4083.31
679.148	4062.83
679.338	4187.75
679.529	4081.26
679.719	3909.23
679.909	4206.19
680.1	4013.68
680.29	4146.8
680.481	3923.57
680.671	4025.97
680.861	3872.37
681.052	4234.86
681.242	3976.81
681.432	4163.18
681.622	3925.61
681.813	3995.25
682.003	4034.16
682.193	4017.77
682.383	4001.39
682.573	3964.53
682.764	4150.89
682.954	3935.85
683.144	4015.73
683.334	3976.81
683.524	4025.97
683.714	4015.73
683.904	4017.77
684.094	3952.24
684.284	3921.52
684.474	4040.3
684.664	4032.11
684.854	3862.13
685.044	3931.76
685.234	3833.46
685.424	3872.37
685.614	3786.35
685.804	3882.61
685.994	3800.69
686.184	4009.58
686.374	3823.22
686.564	3888.75
686.753	3829.36
686.943	3767.92
687.133	3663.47
687.323	3790.45
687.513	3755.63
687.702	3690.1
687.892	3741.3
688.082	3757.68
688.272	3665.52
688.461	3636.85
688.651	3718.77
688.841	3686
689.03	3620.47
689.22	3679.86
689.41	3550.84
689.599	3597.94
689.789	3573.36
689.979	3595.89
690.168	3608.18
690.358	3567.22
690.547	3481.21
690.737	3610.23
690.926	3485.3
691.116	3378.81
691.305	3528.31
691.495	3473.01
691.684	3419.77
691.874	3485.3
692.063	3280.5
692.252	3554.93
692.442	3499.64
692.631	3374.71
692.82	3376.76
693.01	3260.02
693.199	3389.05
693.388	3260.02
693.578	3337.85
693.767	3239.55
693.956	3182.2
694.146	3192.44
694.335	3120.76
694.524	3124.86
694.713	3233.4
694.902	3217.02
695.092	3169.91
695.281	3161.72
695.47	3151.48
695.659	3141.24
695.848	3184.25
696.037	3159.67
696.226	3081.85
696.415	3040.89
696.604	3231.35
696.793	3161.72
696.982	3194.49
697.171	3161.72
697.36	3198.59
697.549	3018.36
697.738	2991.74
697.927	3053.18
698.116	3012.22
698.305	2963.07
698.494	2985.6
698.683	3008.12
698.872	3079.8
699.061	2999.93
699.25	3001.98
699.438	3133.05
699.627	2971.26
699.816	3008.12
700.005	2971.26
700.193	3096.19
700.382	3124.86
700.571	2985.6
700.76	3036.8
700.948	3102.33
701.137	3221.11
701.326	3040.89
701.514	2922.11
701.703	3044.99
701.892	3016.32
702.08	3042.94
702.269	3065.47
702.457	2956.93
702.646	2969.21
702.834	3018.36
703.023	2973.31
703.212	2909.82
703.4	2946.69
703.589	3030.65
703.777	2993.79
703.965	2981.5
704.154	3044.99
704.342	2952.83
704.531	2961.02
704.719	2856.58
704.907	3047.04
705.096	2963.07
705.284	2793.09
705.472	2981.5
705.661	2975.36
705.849	3067.52
706.037	3067.52
706.226	3014.27
706.414	2928.25
706.602	3044.99
706.79	3004.03
706.979	2997.88
707.167	3040.89
707.355	2936.45
707.543	3135.1
707.731	3059.32
707.919	3059.32
708.107	3096.19
708.296	3018.36
708.484	3094.14
708.672	3047.04
708.86	3081.85
709.048	2948.73
709.236	3032.7
709.424	3020.41
709.612	3038.84
709.8	3063.42
709.988	3008.12
710.176	2999.93
710.364	3028.6
710.551	3032.7
710.739	3030.65
710.927	3053.18
711.115	3053.18
711.303	3059.32
711.491	3067.52
711.679	2977.41
711.866	3081.85
712.054	3075.71
712.242	3098.24
712.43	3063.42
712.617	3042.94
712.805	3139.19
712.993	2995.84
713.181	3104.38
713.368	2991.74
713.556	3122.81
713.744	3036.8
713.931	3122.81
714.119	3171.96
714.306	3100.28
714.494	3153.53
714.682	3032.7
714.869	3159.67
715.057	3126.91
715.244	3102.33
715.432	3034.75
715.619	3090.04
715.807	3174.01
715.994	3167.87
716.182	3176.06
716.369	3255.93
716.556	3309.18
716.744	3053.18
716.931	3106.43
717.119	3159.67
717.306	3126.91
717.493	3096.19
717.681	3149.43
717.868	3212.92
718.055	3167.87
718.242	3116.67
718.43	3128.95
718.617	3180.15
718.804	3106.43
718.991	3024.51
719.179	3165.82
719.366	3247.74
719.553	3128.95
719.74	3153.53
719.927	3155.58
720.114	3262.07
720.301	3208.83
720.488	3120.76
720.676	3118.72
720.863	3184.25
721.05	3214.97
721.237	3225.21
721.424	3268.22
721.611	3286.65
721.798	3176.06
721.985	3264.12
722.172	3307.13
722.358	3239.55
722.545	3198.59
722.732	3368.57
722.919	3319.42
723.106	3339.9
723.293	3257.98
723.48	3235.45
723.667	3391.09
723.853	3262.07
724.04	3327.61
724.227	3149.43
724.414	3176.06
724.6	3221.11
724.787	3343.99
724.974	3436.15
725.161	3208.83
725.347	3317.37
725.534	3368.57
725.72	3403.38
725.907	3376.76
726.094	3380.86
726.28	3356.28
726.467	3327.61
726.653	3251.83
726.84	3321.46
727.027	3468.92
727.213	3217.02
727.4	3288.7
727.586	3327.61
727.773	3339.9
727.959	3276.41
728.145	3372.66
728.332	3305.08
728.518	3286.65
728.705	3319.42
728.891	3290.74
729.077	3384.95
729.264	3399.29
729.45	3307.13
729.636	3300.98
729.823	3303.03
730.009	3358.33
730.195	3473.01
730.382	3446.39
730.568	3387
730.754	3462.77
730.94	3481.21
731.126	3446.39
731.313	3407.48
731.499	3329.66
731.685	3438.2
731.871	3391.09
732.057	3421.81
732.243	3438.2
732.429	3475.06
732.615	3528.31
732.801	3364.47
732.987	3364.47
733.173	3583.6
733.359	3448.44
733.545	3382.9
733.731	3368.57
733.917	3487.35
734.103	3491.45
734.289	3425.91
734.475	3452.53
734.661	3624.56
734.847	3389.05
735.033	3550.84
735.219	3561.08
735.404	3491.45
735.59	3468.92
735.776	3460.73
735.962	3419.77
736.148	3452.53
736.333	3458.68
736.519	3538.55
736.705	3477.11
736.89	3475.06
737.076	3430.01
737.262	3415.67
737.447	3343.99
737.633	3434.1
737.819	3434.1
738.004	3436.15
738.19	3475.06
738.375	3407.48
738.561	3409.53
738.747	3372.66
738.932	3337.85
739.118	3391.09
739.303	3440.25
739.489	3378.81
739.674	3393.14
739.859	3325.56
740.045	3460.73
740.23	3380.86
740.416	3257.98
740.601	3352.18
740.786	3366.52
740.972	3309.18
741.157	3288.7
741.342	3341.94
741.528	3341.94
741.713	3350.14
741.898	3268.22
742.084	3270.26
742.269	3174.01
742.454	3278.46
742.639	3251.83
742.824	3237.5
743.01	3319.42
743.195	3272.31
743.38	3094.14
743.565	3112.57
743.75	3225.21
743.935	3159.67
744.12	3360.38
744.305	3118.72
744.49	3253.88
744.675	3145.34
744.86	3100.28
745.045	3251.83
745.23	3143.29
745.415	3102.33
745.6	2999.93
745.785	3126.91
745.97	3131
746.155	3137.15
746.34	3106.43
746.525	3112.57
746.71	3126.91
746.895	2932.35
747.079	3077.76
747.264	2897.53
747.449	2952.83
747.634	3012.22
747.819	2932.35
748.003	2866.81
748.188	2944.64
748.373	2748.03
748.557	2924.16
748.742	2811.52
748.927	2807.42
749.111	2811.52
749.296	2825.86
749.481	2825.86
749.665	2815.62
749.85	2692.74
750.034	2717.31
750.219	2772.61
750.404	2559.62
750.588	2729.6
750.773	2700.93
750.957	2606.72
751.141	2608.77
751.326	2635.39
751.51	2674.31
751.695	2610.82
751.879	2553.48
752.064	2485.89
752.248	2555.52
752.432	2571.91
752.617	2512.52
752.801	2606.72
752.985	2432.65
753.17	2479.75
753.354	2459.27
753.538	2420.36
753.722	2369.16
753.907	2401.93
754.091	2338.44
754.275	2334.34
754.459	2395.78
754.643	2348.68
754.828	2283.14
755.012	2098.83
755.196	2246.28
755.38	2233.99
755.564	2156.17
755.748	2229.9
755.932	2139.79
756.116	2289.29
756.3	2182.79
756.484	2233.99
756.668	2238.09
756.852	2096.78
757.036	2129.55
757.22	2039.44
757.404	2113.16
757.588	2111.11
757.772	2088.59
757.956	2109.07
758.14	2021
758.323	2014.86
758.507	2070.16
758.691	2006.67
758.875	2000.52
759.059	2012.81
759.242	1941.13
759.426	2004.62
759.61	1975.95
759.794	1908.37
759.977	1937.04
760.161	1992.33
760.345	1914.51
760.528	1863.31
760.712	1894.03
760.895	1894.03
761.079	1926.8
761.263	1799.82
761.446	1818.25
761.63	1781.39
761.813	1791.63
761.997	1601.17
762.18	1646.23
762.364	1910.41
762.547	1625.75
762.731	1744.53
762.914	1754.77
763.098	1703.57
763.281	1767.06
763.464	1689.23
763.648	1834.64
763.831	1793.68
764.015	1666.71
764.198	1732.24
764.381	1762.96
764.564	1693.33
764.748	1738.38
764.931	1670.8
765.114	1642.13
765.297	1597.07
765.481	1599.12
765.664	1539.73
765.847	1574.55
766.03	1597.07
766.213	1652.37
766.397	1631.89
766.58	1654.42
766.763	1666.71
766.946	1595.03
767.129	1576.59
767.312	1535.64
767.495	1527.44
767.678	1558.16
767.861	1453.72
768.044	1449.62
768.227	1506.96
768.41	1562.26
768.593	1506.96
768.776	1525.4
768.959	1488.53
769.142	1547.92
769.324	1457.81
769.507	1449.62
769.69	1552.02
769.873	1463.96
770.056	1547.92
770.239	1416.85
770.421	1455.76
770.604	1375.89
770.787	1367.7
770.97	1435.28
771.152	1390.23
771.335	1359.51
771.518	1351.32
771.7	1435.28
771.883	1404.57
772.066	1386.13
772.248	1400.47
772.431	1361.56
772.613	1298.07
772.796	1281.69
772.978	1306.26
773.161	1355.41
773.343	1191.58
773.526	1253.02
773.708	1236.63
773.891	1179.29
774.073	1255.06
774.256	1334.93
774.438	1242.78
774.621	1158.81
774.803	1302.17
774.985	1193.62
775.168	1302.17
775.35	1107.61
775.532	1261.21
775.715	1179.29
775.897	1183.38
776.079	1234.58
776.261	1193.62
776.444	1234.58
776.626	1068.7
776.808	1117.85
776.99	1052.31
777.173	1177.24
777.355	1128.09
777.537	1056.41
777.719	1199.77
777.901	1078.94
778.083	986.78
778.265	982.68
778.447	1099.42
778.629	1019.55
778.811	994.97
778.993	1037.98
779.175	1052.31
779.357	1027.74
779.539	1019.55
779.721	972.44
779.903	1046.17
780.085	978.59
780.267	1054.36
780.449	1001.12
780.631	927.39
780.812	937.63
780.994	892.57
781.176	878.24
781.358	980.64
781.54	884.38
781.721	888.48
781.903	824.99
782.085	874.14
782.267	919.2
782.448	808.61
782.63	833.18
782.812	874.14
782.993	913.05
783.175	822.94
783.357	847.52
783.538	898.72
783.72	743.07
783.901	734.88
784.083	843.42
784.264	757.41
784.446	779.93
784.627	777.89
784.809	773.79
784.99	730.78
785.172	765.6
785.353	771.74
785.535	745.12
785.716	638.62
785.897	693.92
786.079	655.01
786.26	741.02
786.441	810.65
786.623	714.4
786.804	659.1
786.985	767.65
787.167	722.59
787.348	687.78
787.529	669.34
787.71	644.77
787.891	695.97
788.073	634.53
788.254	620.19
788.435	648.86
788.616	644.77
788.797	687.78
788.978	685.73
789.159	620.19
789.34	710.3
789.522	626.34
789.703	675.49
789.884	620.19
790.065	626.34
790.246	589.47
790.427	605.86
790.607	605.86
790.788	585.38
790.969	482.98
791.15	556.71
791.331	601.76
791.512	489.12
791.693	587.43
791.874	511.65
792.054	601.76
792.235	638.62
792.416	558.75
792.597	528.03
792.778	628.39
792.958	532.13
793.139	521.89
793.32	491.17
793.5	446.12
793.681	509.6
793.862	482.98
794.042	487.08
794.223	476.84
794.404	442.02
794.584	372.39
794.765	405.16
794.945	444.07
795.126	517.79
795.306	525.99
795.487	470.69
795.667	491.17
795.848	470.69
796.028	482.98
796.209	456.36
796.389	487.08
796.57	380.58
796.75	429.73
796.93	429.73
797.111	392.87
797.291	458.4
797.471	435.88
797.652	427.68
797.832	423.59
798.012	505.51
798.192	460.45
798.373	456.36
798.553	421.54
798.733	435.88
798.913	372.39
799.093	421.54
799.274	353.96
799.454	435.88
799.634	476.84
799.814	413.35
799.994	331.43
800.174	462.5
800.354	382.63
800.534	310.95
800.714	431.78
800.894	292.52
801.074	390.82
801.254	310.95
801.434	351.91
801.614	427.68
801.794	290.47
801.974	1162.9
802.154	396.96
802.334	409.25
802.514	282.28
802.693	331.43
802.873	304.81
803.053	403.11
803.233	413.35
803.413	351.91
803.592	306.85
803.772	343.72
803.952	360.1
804.131	231.08
804.311	399.01
804.491	439.97
804.67	300.71
804.85	339.62
805.03	351.91
805.209	403.11
805.389	251.56
805.568	339.62
805.748	353.96
805.928	335.53
806.107	319.14
806.287	259.75
806.466	343.72
806.646	331.43
806.825	325.29
807.004	265.89
807.184	315.05
807.363	315.05
807.543	325.29
807.722	243.37
807.901	329.38
808.081	331.43
808.26	237.22
808.439	331.43
808.619	280.23
808.798	308.9
808.977	274.09
809.156	286.37
809.336	282.28
809.515	300.71
809.694	276.13
809.873	239.27
810.052	278.18
810.231	351.91
810.411	290.47
810.59	300.71
810.769	278.18
810.948	304.81
811.127	302.76
811.306	274.09
811.485	282.28
811.664	327.33
811.843	259.75
812.022	243.37
812.201	247.46
812.38	304.81
812.559	206.5
812.737	298.66
812.916	136.87
813.095	218.79
813.274	274.09
813.453	161.45
813.632	253.61
813.811	263.85
813.989	198.31
814.168	214.7
814.347	204.46
814.526	163.5
814.704	310.95
814.883	280.23
815.062	167.59
815.24	313
815.419	136.87
815.598	222.89
815.776	112.3
815.955	192.17
816.133	253.61
816.312	212.65
816.49	226.98
816.669	267.94
816.847	186.02
817.026	175.78
817.204	194.22
817.383	212.65
817.561	190.12
817.74	196.26
817.918	249.51
818.097	192.17
818.275	196.26
818.453	192.17
818.632	241.32
818.81	183.98
818.988	196.26
819.167	145.06
819.345	165.54
819.523	208.55
819.701	179.88
819.879	183.98
820.058	130.73
820.236	192.17
820.414	134.82
820.592	241.32
820.77	243.37
820.948	229.03
821.127	173.74
821.305	167.59
821.483	233.13
821.661	147.11
821.839	120.49
822.017	147.11
822.195	222.89
822.373	261.8
822.551	134.82
822.729	186.02
822.907	145.06
823.085	183.98
823.262	151.21
823.44	210.6
823.618	169.64
823.796	247.46
823.974	67.24
824.152	202.41
824.329	149.16
824.507	239.27
824.685	114.34
824.863	159.4
825.04	200.36
825.218	147.11
825.396	245.41
825.574	134.82
825.751	124.58
825.929	155.3
826.107	106.15
826.284	183.98
826.462	175.78
826.639	59.05
826.817	85.67
826.994	222.89
827.172	79.53
827.349	212.65
827.527	102.06
827.704	83.63
827.882	132.78
828.059	85.67
828.237	79.53
828.414	161.45
828.591	77.48
828.769	149.16
828.946	122.54
829.124	169.64
829.301	153.26
829.478	126.63
829.655	171.69
829.833	181.93
830.01	95.91
830.187	116.39
830.364	54.95
830.542	134.82
830.719	167.59
830.896	183.98
831.073	120.49
831.25	114.34
831.427	186.02
831.604	153.26
831.782	40.62
831.959	165.54
832.136	102.06
832.313	102.06
832.49	54.95
832.667	81.58
832.844	30.38
833.021	177.83
833.198	165.54
833.374	20.14
833.551	153.26
833.728	110.25
833.905	97.96
834.082	79.53
834.259	132.78
834.436	161.45
834.612	40.62
834.789	91.82
834.966	134.82
835.143	110.25
835.319	34.47
835.496	112.3
835.673	120.49
835.85	194.22
836.026	100.01
836.203	214.7
836.38	77.48
836.556	42.67
836.733	34.47
836.909	151.21
837.086	40.62
837.262	87.72
837.439	192.17
837.616	130.73
837.792	83.63
837.968	108.2
838.145	67.24
838.321	40.62
838.498	112.3
838.674	165.54
838.851	75.43
839.027	65.19
839.203	40.62
839.38	116.39
839.556	85.67
839.732	222.89
839.909	108.2
840.085	124.58
840.261	5.8
840.437	104.11
840.614	46.76
840.79	106.15
840.966	97.96
841.142	57
841.318	97.96
841.494	134.82
841.671	46.76
841.847	22.19
842.023	124.58
842.199	63.15
842.375	104.11
842.551	-0.34
842.727	91.82
842.903	143.02
843.079	-33.11
843.255	128.68
843.431	79.53
843.607	26.28
843.783	50.86
843.959	89.77
844.134	-24.92
844.31	120.49
844.486	140.97
844.662	59.05
844.838	26.28
845.013	173.74
845.189	110.25
845.365	110.25
845.541	91.82
845.716	63.15
845.892	128.68
846.068	73.39
846.244	-6.49
846.419	134.82
846.595	-4.44
846.77	93.87
846.946	124.58
847.122	95.91
847.297	77.48
847.473	65.19
847.648	54.95
847.824	138.92
847.999	44.71
848.175	67.24
848.35	18.09
848.526	97.96
848.701	69.29
848.876	75.43
849.052	63.15
849.227	52.91
849.403	18.09
849.578	40.62
849.753	89.77
849.929	81.58
850.104	69.29
850.279	-0.34
850.454	124.58
850.63	112.3
850.805	97.96
850.98	63.15
851.155	85.67
851.33	83.63
851.505	26.28
851.681	106.15
851.856	79.53
852.031	11.95
852.206	128.68
852.381	79.53
852.556	116.39
852.731	36.52
852.906	79.53
853.081	22.19
853.256	95.91
853.431	87.72
853.606	71.34
853.781	-22.87
853.956	16.04
854.131	102.06
854.305	-0.34
854.48	30.38
854.655	50.86
854.83	52.91
855.005	65.19
855.18	81.58
855.354	9.9
855.529	85.67
855.704	-41.3
855.879	75.43
856.053	61.1
856.228	59.05
856.403	-2.39
856.577	106.15
856.752	-10.58
856.926	32.43
857.101	67.24
857.276	-0.34
857.45	-45.4
857.625	128.68
857.799	42.67
857.974	28.33
858.148	-10.58
858.323	71.34
858.497	-6.49
858.672	65.19
858.846	42.67
859.02	32.43
859.195	3.75
859.369	1.71
859.543	81.58
859.718	57
859.892	40.62
860.066	61.1
860.241	-4.44
860.415	1.71
860.589	89.77
860.763	50.86
860.938	20.14
861.112	57
861.286	30.38
861.46	44.71
861.634	-14.68
861.808	22.19
861.982	140.97
862.157	61.1
862.331	-12.63
862.505	28.33
862.679	32.43
862.853	-29.01
863.027	24.23
863.201	130.73
863.375	75.43
863.549	5.8
863.722	40.62
863.896	114.34
864.07	7.85
864.244	5.8
864.418	46.76
864.592	42.67
864.766	-16.73
864.939	67.24
865.113	-14.68
865.287	44.71
865.461	20.14
865.634	16.04
865.808	77.48
865.982	71.34
866.156	5.8
866.329	3.75
866.503	16.04
866.676	-8.53
866.85	-8.53
867.024	-41.3
867.197	-29.01
867.371	75.43
867.544	46.76
867.718	-12.63
867.891	44.71
868.065	-14.68
868.238	54.95
868.412	89.77
868.585	48.81
868.759	-2.39
868.932	-0.34
869.105	-16.73
869.279	30.38
869.452	-6.49
869.625	-0.34
869.799	42.67
869.972	-39.25
870.145	-0.34
870.319	48.81
870.492	-51.54
870.665	34.47
870.838	5.8
871.011	-31.06
871.185	-12.63
871.358	-47.44
871.531	38.57
871.704	24.23
871.877	40.62
872.05	36.52
872.223	59.05
872.396	85.67
872.569	34.47
872.742	57
872.915	75.43
873.088	1.71
873.261	-14.68
873.434	22.19
873.607	-43.35
873.78	26.28
873.953	22.19
874.126	-0.34
874.299	-47.44
874.471	-90.45
874.644	3.75
874.817	46.76
874.99	30.38
875.163	7.85
875.335	50.86
875.508	3.75
875.681	112.3
875.853	36.52
876.026	52.91
876.199	30.38
876.371	-53.59
876.544	-63.83
876.717	95.91
876.889	3.75
877.062	46.76
877.234	30.38
877.407	-10.58
877.579	26.28
877.752	9.9
877.924	42.67
878.097	65.19
878.269	69.29
878.442	26.28
878.614	-4.44
878.786	-22.87
878.959	85.67
879.131	7.85
879.303	-14.68
879.476	-33.11
879.648	-10.58
879.82	85.67
879.993	-39.25
880.165	11.95
880.337	-37.2
880.509	-8.53
880.681	-47.44
880.854	28.33
881.026	65.19
881.198	110.25
881.37	20.14
881.542	34.47
881.714	-10.58
881.886	11.95
882.058	-31.06
882.23	9.9
882.402	-10.58
882.574	81.58
882.746	18.09
882.918	95.91
883.09	-6.49
883.262	-35.16
883.434	-16.73
883.606	-31.06
883.778	-47.44
883.95	75.43
884.122	30.38
884.293	40.62
884.465	75.43
884.637	40.62
884.809	-2.39
884.98	28.33
885.152	61.1
885.324	28.33
885.496	13.99
885.667	18.09
885.839	-43.35
886.011	87.72
886.182	3.75
886.354	40.62
886.525	-10.58
886.697	-24.92
886.869	-4.44
887.04	79.53
887.212	57
887.383	67.24
887.555	-51.54
887.726	-59.73
887.897	22.19
888.069	59.05
888.24	97.96
888.412	54.95
888.583	-10.58
888.754	16.04
888.926	-43.35
889.097	-16.73
889.268	18.09
889.44	-4.44
889.611	20.14
889.782	-22.87
889.953	-51.54
890.125	-18.77
890.296	-76.12
890.467	34.47
890.638	-10.58
890.809	-8.53
890.98	-20.82
891.151	24.23
891.323	26.28
891.494	22.19
891.665	-0.34
891.836	-6.49
892.007	20.14
892.178	-45.4
892.349	-8.53
892.52	40.62
892.691	-74.07
892.862	-12.63
893.032	-80.21
893.203	16.04
893.374	20.14
893.545	-22.87
893.716	-20.82
893.887	67.24
894.057	20.14
894.228	34.47
894.399	-74.07
894.57	122.54
894.74	-0.34
894.911	81.58
895.082	-69.97
895.253	-45.4
895.423	26.28
895.594	-4.44
895.764	-35.16
895.935	-10.58
896.106	20.14
896.276	-33.11
896.447	32.43
896.617	-6.49
896.788	-43.35
896.958	-65.88
897.129	-33.11
897.299	50.86
897.47	-29.01
897.64	38.57
897.81	30.38
897.981	-4.44
898.151	71.34
898.322	-26.96
898.492	1.71
898.662	-65.88
898.832	-12.63
899.003	110.25
899.173	-4.44
899.343	-86.36
899.513	-2.39
