Data from USB4F104151__50__12-24-00-768.txt Node

Date: Fri Mar 14 12:24:00 EDT 2025
User: louis
Spectrometer: USB4F10415
Trigger mode: 4
Integration Time (sec): 3.500000E-2
Scans to average: 1
Electric dark correction enabled: true
Nonlinearity correction enabled: false
Boxcar width: 0
XAxis mode: Wavelengths
Number of Pixels in Spectrum: 3648
>>>>>Begin Spectral Data<<<<<
178.204	-137.04
178.424	-137.04
178.644	-137.04
178.864	-135
179.084	-143.19
179.304	-8.02
179.524	-8.02
179.744	-26.45
179.964	55.47
180.184	-34.64
180.404	6.31
180.624	-57.17
180.844	0.17
181.064	-1.88
181.283	18.6
181.503	-18.26
181.723	73.9
181.943	-81.75
182.163	114.86
182.383	26.79
182.602	8.36
182.822	61.61
183.042	53.42
183.262	-59.22
183.482	-12.12
183.701	63.66
183.921	39.08
184.141	63.66
184.361	127.14
184.58	22.7
184.8	45.23
185.02	84.14
185.239	125.1
185.459	30.89
185.679	88.23
185.898	-44.88
186.118	71.85
186.338	67.75
186.557	43.18
186.777	24.75
186.997	39.08
187.216	-24.4
187.436	90.28
187.655	102.57
187.875	77.99
188.095	0.17
188.314	26.79
188.534	98.47
188.753	14.51
188.973	-24.4
189.192	90.28
189.412	53.42
189.631	63.66
189.851	65.71
190.07	131.24
190.29	-1.88
190.509	0.17
190.729	59.56
190.948	67.75
191.168	123.05
191.387	75.95
191.607	26.79
191.826	51.37
192.045	6.31
192.265	-1.88
192.484	127.14
192.704	34.99
192.923	12.46
193.142	67.75
193.362	86.19
193.581	96.43
193.8	59.56
194.02	100.52
194.239	-20.31
194.458	123.05
194.678	75.95
194.897	2.22
195.116	82.09
195.335	30.89
195.555	53.42
195.774	53.42
195.993	82.09
196.212	-5.97
196.432	-20.31
196.651	0.17
196.87	6.31
197.089	47.27
197.308	20.65
197.528	75.95
197.747	75.95
197.966	-46.93
198.185	102.57
198.404	-1.88
198.623	94.38
198.842	-18.26
199.062	98.47
199.281	100.52
199.5	28.84
199.719	14.51
199.938	143.53
200.157	114.86
200.376	49.32
200.595	63.66
200.814	77.99
201.033	20.65
201.252	65.71
201.471	28.84
201.69	49.32
201.909	16.55
202.128	30.89
202.347	82.09
202.566	4.27
202.785	-12.12
203.004	14.51
203.223	168.1
203.442	-14.17
203.661	59.56
203.879	41.13
204.098	8.36
204.317	69.8
204.536	57.51
204.755	12.46
204.974	57.51
205.193	-40.79
205.411	127.14
205.63	-8.02
205.849	-10.07
206.068	18.6
206.287	-8.02
206.505	71.85
206.724	-14.17
206.943	47.27
207.162	63.66
207.381	30.89
207.599	41.13
207.818	24.75
208.037	16.55
208.255	-102.23
208.474	2.22
208.693	28.84
208.911	-5.97
209.13	49.32
209.349	10.41
209.567	59.56
209.786	24.75
210.005	-42.84
210.223	75.95
210.442	10.41
210.661	12.46
210.879	41.13
211.098	37.03
211.316	157.86
211.535	34.99
211.753	6.31
211.972	10.41
212.191	34.99
212.409	75.95
212.628	53.42
212.846	49.32
213.065	96.43
213.283	47.27
213.502	94.38
213.72	92.33
213.938	34.99
214.157	49.32
214.375	61.61
214.594	-32.6
214.812	63.66
215.031	82.09
215.249	16.55
215.467	30.89
215.686	88.23
215.904	32.94
216.122	-24.4
216.341	84.14
216.559	12.46
216.778	121
216.996	47.27
217.214	-20.31
217.432	82.09
217.651	82.09
217.869	-1.88
218.087	82.09
218.306	73.9
218.524	45.23
218.742	53.42
218.96	2.22
219.179	75.95
219.397	82.09
219.615	125.1
219.833	100.52
220.051	-1.88
220.27	39.08
220.488	96.43
220.706	90.28
220.924	-1.88
221.142	53.42
221.36	67.75
221.578	-34.64
221.796	-24.4
222.015	8.36
222.233	4.27
222.451	82.09
222.669	77.99
222.887	161.96
223.105	63.66
223.323	47.27
223.541	-10.07
223.759	-3.93
223.977	80.04
224.195	63.66
224.413	47.27
224.631	108.71
224.849	59.56
225.067	118.95
225.285	12.46
225.503	12.46
225.721	-18.26
225.939	-18.26
226.157	20.65
226.375	174.25
226.592	14.51
226.81	-22.36
227.028	63.66
227.246	96.43
227.464	77.99
227.682	98.47
227.9	80.04
228.117	94.38
228.335	26.79
228.553	69.8
228.771	100.52
228.989	22.7
229.206	49.32
229.424	20.65
229.642	16.55
229.86	32.94
230.077	164.01
230.295	94.38
230.513	90.28
230.731	6.31
230.948	71.85
231.166	80.04
231.384	71.85
231.601	26.79
231.819	57.51
232.037	0.17
232.254	6.31
232.472	20.65
232.689	69.8
232.907	43.18
233.125	24.75
233.342	10.41
233.56	12.46
233.777	34.99
233.995	20.65
234.213	131.24
234.43	-8.02
234.648	84.14
234.865	-34.64
235.083	18.6
235.3	-14.17
235.518	51.37
235.735	84.14
235.953	65.71
236.17	24.75
236.388	69.8
236.605	53.42
236.822	71.85
237.04	57.51
237.257	47.27
237.475	30.89
237.692	88.23
237.909	-3.93
238.127	71.85
238.344	94.38
238.562	73.9
238.779	4.27
238.996	22.7
239.214	57.51
239.431	80.04
239.648	28.84
239.865	61.61
240.083	59.56
240.3	14.51
240.517	45.23
240.735	100.52
240.952	98.47
241.169	135.34
241.386	63.66
241.603	2.22
241.821	108.71
242.038	-5.97
242.255	137.38
242.472	77.99
242.689	57.51
242.907	47.27
243.124	57.51
243.341	-42.84
243.558	2.22
243.775	-38.74
243.992	-30.55
244.209	47.27
244.426	71.85
244.643	-3.93
244.86	69.8
245.078	37.03
245.295	39.08
245.512	-8.02
245.729	18.6
245.946	55.47
246.163	98.47
246.38	34.99
246.597	47.27
246.814	22.7
247.031	45.23
247.248	57.51
247.464	143.53
247.681	77.99
247.898	67.75
248.115	84.14
248.332	-20.31
248.549	90.28
248.766	57.51
248.983	22.7
249.2	67.75
249.417	73.9
249.633	26.79
249.85	41.13
250.067	94.38
250.284	28.84
250.501	108.71
250.717	108.71
250.934	47.27
251.151	108.71
251.368	28.84
251.585	63.66
251.801	32.94
252.018	28.84
252.235	86.19
252.451	16.55
252.668	14.51
252.885	94.38
253.102	32.94
253.318	71.85
253.535	22.7
253.752	-5.97
253.968	37.03
254.185	65.71
254.401	-16.21
254.618	43.18
254.835	55.47
255.051	114.86
255.268	94.38
255.484	41.13
255.701	80.04
255.917	39.08
256.134	-26.45
256.351	-22.36
256.567	59.56
256.784	-24.4
257	16.55
257.217	2.22
257.433	80.04
257.65	51.37
257.866	100.52
258.082	14.51
258.299	-24.4
258.515	39.08
258.732	-12.12
258.948	14.51
259.165	14.51
259.381	61.61
259.597	65.71
259.814	90.28
260.03	-32.6
260.246	69.8
260.463	57.51
260.679	30.89
260.895	28.84
261.112	80.04
261.328	-42.84
261.544	127.14
261.761	137.38
261.977	26.79
262.193	53.42
262.409	114.86
262.626	106.67
262.842	108.71
263.058	51.37
263.274	-14.17
263.49	55.47
263.707	71.85
263.923	-40.79
264.139	39.08
264.355	71.85
264.571	141.48
264.787	32.94
265.004	26.79
265.22	41.13
265.436	26.79
265.652	22.7
265.868	-59.22
266.084	-30.55
266.3	47.27
266.516	20.65
266.732	47.27
266.948	2.22
267.164	18.6
267.38	90.28
267.596	65.71
267.812	6.31
268.028	59.56
268.244	37.03
268.46	59.56
268.676	34.99
268.892	8.36
269.108	-20.31
269.324	55.47
269.54	39.08
269.756	47.27
269.972	-24.4
270.188	77.99
270.403	51.37
270.619	137.38
270.835	43.18
271.051	37.03
271.267	39.08
271.483	30.89
271.698	104.62
271.914	88.23
272.13	84.14
272.346	39.08
272.562	-38.74
272.777	129.19
272.993	67.75
273.209	121
273.425	-14.17
273.64	22.7
273.856	73.9
274.072	49.32
274.287	6.31
274.503	106.67
274.719	43.18
274.934	141.48
275.15	30.89
275.366	8.36
275.581	22.7
275.797	94.38
276.012	71.85
276.228	51.37
276.444	47.27
276.659	112.81
276.875	-1.88
277.09	53.42
277.306	39.08
277.521	57.51
277.737	88.23
277.952	45.23
278.168	43.18
278.383	24.75
278.599	77.99
278.814	24.75
279.03	53.42
279.245	125.1
279.461	32.94
279.676	37.03
279.892	39.08
280.107	57.51
280.322	-28.5
280.538	90.28
280.753	41.13
280.969	16.55
281.184	90.28
281.399	84.14
281.615	8.36
281.83	127.14
282.045	-14.17
282.26	2.22
282.476	41.13
282.691	69.8
282.906	-36.69
283.122	84.14
283.337	73.9
283.552	47.27
283.767	22.7
283.983	20.65
284.198	12.46
284.413	-34.64
284.628	57.51
284.843	73.9
285.058	86.19
285.274	88.23
285.489	-8.02
285.704	131.24
285.919	-1.88
286.134	92.33
286.349	51.37
286.564	45.23
286.779	67.75
286.995	45.23
287.21	-3.93
287.425	114.86
287.64	104.62
287.855	75.95
288.07	20.65
288.285	108.71
288.5	82.09
288.715	63.66
288.93	55.47
289.145	30.89
289.36	24.75
289.575	34.99
289.79	37.03
290.004	32.94
290.219	20.65
290.434	-1.88
290.649	24.75
290.864	10.41
291.079	-1.88
291.294	-8.02
291.509	94.38
291.724	84.14
291.938	69.8
292.153	110.76
292.368	-26.45
292.583	65.71
292.798	43.18
293.012	6.31
293.227	71.85
293.442	45.23
293.657	71.85
293.871	114.86
294.086	39.08
294.301	161.96
294.516	86.19
294.73	106.67
294.945	39.08
295.16	34.99
295.374	53.42
295.589	49.32
295.804	-26.45
296.018	-3.93
296.233	96.43
296.447	39.08
296.662	-3.93
296.877	18.6
297.091	-1.88
297.306	96.43
297.52	51.37
297.735	108.71
297.949	71.85
298.164	45.23
298.378	28.84
298.593	65.71
298.807	59.56
299.022	10.41
299.236	77.99
299.451	-32.6
299.665	57.51
299.88	28.84
300.094	65.71
300.309	8.36
300.523	71.85
300.737	10.41
300.952	16.55
301.166	75.95
301.381	20.65
301.595	43.18
301.809	10.41
302.024	59.56
302.238	4.27
302.452	63.66
302.667	75.95
302.881	43.18
303.095	102.57
303.309	24.75
303.524	8.36
303.738	-10.07
303.952	82.09
304.166	127.14
304.381	-1.88
304.595	37.03
304.809	110.76
305.023	-5.97
305.237	22.7
305.452	92.33
305.666	51.37
305.88	18.6
306.094	82.09
306.308	75.95
306.522	51.37
306.736	53.42
306.95	26.79
307.164	63.66
307.379	49.32
307.593	57.51
307.807	82.09
308.021	92.33
308.235	61.61
308.449	8.36
308.663	59.56
308.877	98.47
309.091	-16.21
309.305	24.75
309.519	10.41
309.733	110.76
309.947	20.65
310.161	73.9
310.374	141.48
310.588	77.99
310.802	12.46
311.016	-14.17
311.23	18.6
311.444	73.9
311.658	8.36
311.872	114.86
312.085	77.99
312.299	114.86
312.513	100.52
312.727	118.95
312.941	22.7
313.154	88.23
313.368	92.33
313.582	71.85
313.796	71.85
314.009	0.17
314.223	168.1
314.437	28.84
314.651	-3.93
314.864	24.75
315.078	-53.08
315.292	24.75
315.505	73.9
315.719	24.75
315.933	84.14
316.146	32.94
316.36	10.41
316.573	12.46
316.787	92.33
317.001	43.18
317.214	30.89
317.428	6.31
317.641	80.04
317.855	51.37
318.068	26.79
318.282	30.89
318.495	123.05
318.709	39.08
318.922	22.7
319.136	59.56
319.349	59.56
319.563	49.32
319.776	73.9
319.99	102.57
320.203	61.61
320.417	20.65
320.63	26.79
320.843	96.43
321.057	106.67
321.27	24.75
321.483	71.85
321.697	82.09
321.91	71.85
322.124	96.43
322.337	96.43
322.55	26.79
322.763	43.18
322.977	20.65
323.19	16.55
323.403	88.23
323.617	96.43
323.83	118.95
324.043	16.55
324.256	67.75
324.469	8.36
324.683	96.43
324.896	-3.93
325.109	57.51
325.322	49.32
325.535	90.28
325.748	49.32
325.962	82.09
326.175	47.27
326.388	94.38
326.601	57.51
326.814	45.23
327.027	77.99
327.24	135.34
327.453	37.03
327.666	0.17
327.879	30.89
328.092	82.09
328.305	100.52
328.518	41.13
328.731	61.61
328.944	41.13
329.157	51.37
329.37	118.95
329.583	4.27
329.796	121
330.009	63.66
330.222	137.38
330.435	73.9
330.648	88.23
330.861	90.28
331.073	98.47
331.286	114.86
331.499	-8.02
331.712	14.51
331.925	88.23
332.138	49.32
332.35	108.71
332.563	75.95
332.776	127.14
332.989	137.38
333.202	2.22
333.414	-8.02
333.627	4.27
333.84	20.65
334.053	110.76
334.265	67.75
334.478	47.27
334.691	82.09
334.903	0.17
335.116	57.51
335.329	123.05
335.541	106.67
335.754	102.57
335.966	10.41
336.179	104.62
336.392	77.99
336.604	90.28
336.817	114.86
337.029	45.23
337.242	84.14
337.454	116.9
337.667	75.95
337.88	127.14
338.092	34.99
338.305	77.99
338.517	37.03
338.729	116.9
338.942	102.57
339.154	16.55
339.367	75.95
339.579	55.47
339.792	63.66
340.004	77.99
340.217	104.62
340.429	73.9
340.641	-3.93
340.854	-30.55
341.066	55.47
341.278	92.33
341.491	153.77
341.703	94.38
341.915	34.99
342.128	18.6
342.34	-1.88
342.552	41.13
342.764	24.75
342.977	65.71
343.189	63.66
343.401	176.3
343.613	45.23
343.826	55.47
344.038	6.31
344.25	96.43
344.462	73.9
344.674	59.56
344.886	94.38
345.099	151.72
345.311	63.66
345.523	0.17
345.735	43.18
345.947	75.95
346.159	24.75
346.371	-5.97
346.583	59.56
346.795	84.14
347.007	39.08
347.219	135.34
347.431	30.89
347.643	41.13
347.855	57.51
348.067	53.42
348.279	12.46
348.491	75.95
348.703	63.66
348.915	73.9
349.127	8.36
349.339	59.56
349.551	75.95
349.763	129.19
349.975	61.61
350.187	90.28
350.399	125.1
350.61	127.14
350.822	0.17
351.034	114.86
351.246	47.27
351.458	57.51
351.669	92.33
351.881	139.43
352.093	75.95
352.305	63.66
352.517	100.52
352.728	168.1
352.94	106.67
353.152	116.9
353.363	59.56
353.575	39.08
353.787	67.75
353.999	75.95
354.21	141.48
354.422	28.84
354.633	49.32
354.845	108.71
355.057	34.99
355.268	53.42
355.48	67.75
355.692	63.66
355.903	102.57
356.115	-22.36
356.326	34.99
356.538	159.91
356.749	28.84
356.961	149.67
357.172	129.19
357.384	55.47
357.595	182.44
357.807	-28.5
358.018	30.89
358.23	43.18
358.441	194.73
358.653	49.32
358.864	28.84
359.075	18.6
359.287	143.53
359.498	43.18
359.709	37.03
359.921	51.37
360.132	65.71
360.344	82.09
360.555	-3.93
360.766	77.99
360.977	43.18
361.189	30.89
361.4	106.67
361.611	145.58
361.823	90.28
362.034	14.51
362.245	-81.75
362.456	67.75
362.667	86.19
362.879	20.65
363.09	123.05
363.301	77.99
363.512	32.94
363.723	86.19
363.935	49.32
364.146	75.95
364.357	80.04
364.568	22.7
364.779	59.56
364.99	147.62
365.201	43.18
365.412	82.09
365.623	-53.08
365.834	26.79
366.045	88.23
366.256	22.7
366.467	41.13
366.678	69.8
366.889	92.33
367.1	49.32
367.311	96.43
367.522	28.84
367.733	121
367.944	133.29
368.155	121
368.366	82.09
368.577	41.13
368.788	104.62
368.999	16.55
369.209	121
369.42	57.51
369.631	112.81
369.842	73.9
370.053	47.27
370.264	30.89
370.474	59.56
370.685	69.8
370.896	94.38
371.107	112.81
371.317	106.67
371.528	112.81
371.739	59.56
371.95	63.66
372.16	104.62
372.371	55.47
372.582	6.31
372.792	59.56
373.003	131.24
373.214	43.18
373.424	80.04
373.635	8.36
373.846	59.56
374.056	59.56
374.267	86.19
374.477	57.51
374.688	63.66
374.898	82.09
375.109	65.71
375.319	112.81
375.53	104.62
375.74	102.57
375.951	16.55
376.161	47.27
376.372	112.81
376.582	63.66
376.793	127.14
377.003	59.56
377.214	-18.26
377.424	59.56
377.635	90.28
377.845	26.79
378.055	108.71
378.266	30.89
378.476	67.75
378.686	28.84
378.897	18.6
379.107	69.8
379.317	69.8
379.528	69.8
379.738	24.75
379.948	-10.07
380.158	114.86
380.369	73.9
380.579	204.97
380.789	96.43
380.999	71.85
381.21	67.75
381.42	129.19
381.63	112.81
381.84	131.24
382.05	88.23
382.261	73.9
382.471	200.87
382.681	65.71
382.891	121
383.101	57.51
383.311	26.79
383.521	125.1
383.731	30.89
383.941	55.47
384.151	4.27
384.361	67.75
384.571	47.27
384.781	125.1
384.991	145.58
385.201	51.37
385.411	34.99
385.621	149.67
385.831	73.9
386.041	100.52
386.251	90.28
386.461	39.08
386.671	43.18
386.881	84.14
387.091	100.52
387.301	86.19
387.511	75.95
387.72	63.66
387.93	94.38
388.14	43.18
388.35	55.47
388.56	125.1
388.769	184.49
388.979	34.99
389.189	143.53
389.399	98.47
389.609	41.13
389.818	137.38
390.028	57.51
390.238	80.04
390.447	12.46
390.657	34.99
390.867	34.99
391.076	-30.55
391.286	73.9
391.496	49.32
391.705	61.61
391.915	110.76
392.125	123.05
392.334	94.38
392.544	135.34
392.753	65.71
392.963	65.71
393.172	88.23
393.382	-3.93
393.591	145.58
393.801	82.09
394.01	143.53
394.22	172.2
394.429	59.56
394.639	108.71
394.848	127.14
395.058	59.56
395.267	123.05
395.477	153.77
395.686	164.01
395.895	114.86
396.105	213.16
396.314	82.09
396.524	139.43
396.733	90.28
396.942	190.63
397.152	221.35
397.361	182.44
397.57	94.38
397.78	164.01
397.989	108.71
398.198	227.5
398.407	59.56
398.617	237.74
398.826	121
399.035	123.05
399.244	147.62
399.453	125.1
399.663	84.14
399.872	176.3
400.081	168.1
400.29	129.19
400.499	159.91
400.708	184.49
400.917	149.67
401.127	137.38
401.336	225.45
401.545	329.89
401.754	215.21
401.963	131.24
402.172	166.06
402.381	131.24
402.59	172.2
402.799	159.91
403.008	166.06
403.217	192.68
403.426	272.55
403.635	106.67
403.844	241.83
404.053	239.78
404.262	110.76
404.471	196.78
404.68	209.06
404.888	221.35
405.097	184.49
405.306	221.35
405.515	157.86
405.724	157.86
405.933	243.88
406.142	264.36
406.35	370.85
406.559	241.83
406.768	225.45
406.977	268.45
407.185	295.08
407.394	321.7
407.603	207.02
407.812	362.66
408.02	379.04
408.229	327.85
408.438	243.88
408.646	309.41
408.855	338.09
409.064	370.85
409.272	301.22
409.481	387.24
409.69	336.04
409.898	395.43
410.107	352.42
410.315	432.29
410.524	491.68
410.733	422.05
410.941	489.64
411.15	479.4
411.358	536.74
411.567	585.89
411.775	506.02
411.984	602.27
412.192	522.4
412.401	557.22
412.609	745.63
412.818	692.38
413.026	749.73
413.234	649.38
413.443	706.72
413.651	737.44
413.86	788.64
414.068	835.74
414.276	817.31
414.485	919.71
414.693	891.04
414.901	981.15
415.11	1020.06
415.318	913.56
415.526	1024.16
415.734	1118.36
415.943	1155.23
416.151	1194.14
416.359	1138.84
416.567	1253.53
416.776	1228.95
416.984	1226.9
417.192	1364.12
417.4	1337.49
417.608	1339.54
417.817	1382.55
418.025	1509.52
418.233	1599.63
418.441	1536.15
418.649	1564.82
418.857	1786
419.065	1763.47
419.273	1796.24
419.481	1888.4
419.689	1984.65
419.897	1953.93
420.105	2121.87
420.313	2201.74
420.521	2279.56
420.729	2320.52
420.937	2279.56
421.145	2373.77
421.353	2457.73
421.561	2705.54
421.769	2709.63
421.977	2869.37
422.185	2799.74
422.393	2840.7
422.601	3104.89
422.809	3201.15
423.017	3207.29
423.224	3295.35
423.432	3561.59
423.64	3496.05
423.848	3827.82
424.056	3674.23
424.263	3889.26
424.471	3850.35
424.679	4071.53
424.887	4202.6
425.094	4483.17
425.302	4552.81
425.51	4612.2
425.718	4757.6
425.925	4730.98
426.133	4925.54
426.341	5279.83
426.548	5441.62
426.756	5392.47
426.964	5402.71
427.171	5914.7
427.379	5943.38
427.586	6144.08
427.794	6271.05
428.001	6479.94
428.209	6953.02
428.417	6758.47
428.624	7417.91
428.832	7231.55
429.039	7116.86
429.247	7163.97
429.454	7989.3
429.662	8357.93
429.869	7819.32
430.076	8519.72
430.284	8271.92
430.491	8611.88
430.699	9166.88
430.906	8939.55
431.114	9269.28
431.321	9709.59
431.528	9781.27
431.736	10289.17
431.943	10844.17
432.15	10496.01
432.358	10555.4
432.565	11208.7
432.772	11046.91
432.979	11724.79
433.187	11853.81
433.394	12062.71
433.601	12957.67
433.808	13049.83
434.016	12795.88
434.223	13440.99
434.43	14264.27
434.637	14012.37
434.844	14782.41
435.052	14972.87
435.259	14948.29
435.466	15144.9
435.673	15077.32
435.88	15994.81
436.087	16836.52
436.294	16662.44
436.501	16510.89
436.708	16549.81
436.915	17338.27
437.122	18147.22
437.329	17852.31
437.537	18501.52
437.743	19072.9
437.95	18689.93
438.157	19816.32
438.364	20326.26
438.571	20418.42
438.778	20420.47
438.985	22337.37
439.192	21682.02
439.399	22347.61
439.606	21520.23
439.813	23103.31
440.02	24065.85
440.227	23875.39
440.433	23676.74
440.64	24479.54
440.847	24702.77
441.054	24975.15
441.261	26570.52
441.467	26455.83
441.674	26898.19
441.881	27938.56
442.088	27682.56
442.294	27643.65
442.501	28106.49
442.708	28872.43
442.914	29914.85
443.121	31162.06
443.328	30422.75
443.534	32532.15
443.741	31944.39
443.948	31170.26
444.154	33640.11
444.361	33316.53
444.568	33400.49
444.774	33724.07
444.981	34031.27
445.187	34881.17
445.394	36376.19
445.6	35722.89
445.807	39257.68
446.013	37674.6
446.22	38764.12
446.426	39798.35
446.633	40089.16
446.839	41494.07
447.046	39749.2
447.252	42083.88
447.459	42186.28
447.665	42028.59
447.871	43677.2
448.078	45618.67
448.284	43517.46
448.491	44623.36
448.697	46321.13
448.903	46857.7
449.11	47273.43
449.316	46329.32
449.522	47613.4
449.728	49264.06
449.935	49126.85
450.141	48944.58
450.347	49477.05
450.553	48557.51
450.76	48870.85
450.966	50605.48
451.172	50079.15
451.378	51740.05
451.584	50343.34
451.791	51414.43
451.997	51201.44
452.203	51969.43
452.409	52069.78
452.615	51735.96
452.821	49874.35
453.027	49038.78
453.233	51998.1
453.44	50036.14
453.646	50679.21
453.852	50965.92
454.058	51246.49
454.264	49626.55
454.47	51119.52
454.676	49431.99
454.882	51047.84
455.088	46999.01
455.294	47875.54
455.5	48221.64
455.705	48793.03
455.911	46718.43
456.117	46157.29
456.323	45239.8
456.529	43388.44
456.735	44916.22
456.941	43718.16
457.147	42841.63
457.352	41625.14
457.558	41371.19
457.764	41717.29
457.97	40824.38
458.176	39900.75
458.381	39779.92
458.587	37701.23
458.793	37697.13
458.999	35667.59
459.204	38268.51
459.41	37271.15
459.616	34748.06
459.821	34772.63
460.027	34698.91
460.233	33791.66
460.438	32210.62
460.644	32681.66
460.85	30783.19
461.055	30891.73
461.261	30643.93
461.466	28151.55
461.672	27485.96
461.878	29585.13
462.083	28055.29
462.289	26863.38
462.494	26572.57
462.7	25345.83
462.905	24852.27
463.111	25937.69
463.316	25868.06
463.522	24991.53
463.727	25440.04
463.932	25362.22
464.138	24696.63
464.343	25306.92
464.549	24164.15
464.754	25132.84
464.959	24893.23
465.165	24942.38
465.37	23650.11
465.575	23043.92
465.781	24012.6
465.986	23818.05
466.191	23332.68
466.397	22736.72
466.602	21786.46
466.807	22701.9
467.012	22546.26
467.218	22609.75
467.423	21981.02
467.628	22503.25
467.833	23287.62
468.038	22290.26
468.244	21606.24
468.449	22615.89
468.654	21864.29
468.859	21677.92
469.064	21722.98
469.269	20997.99
469.474	20848.49
469.679	21421.92
469.885	20719.47
470.09	21092.2
470.295	20782.96
470.5	20311.92
470.705	20250.49
470.91	20252.53
471.115	19742.59
471.32	20234.1
471.525	19707.77
471.73	19543.94
471.935	19636.1
472.139	18823.05
472.344	18982.79
472.549	19150.73
472.754	18618.25
472.959	18511.76
473.164	17792.92
473.369	17797.02
473.574	18216.85
473.778	17782.68
473.983	17727.39
474.188	17876.89
474.393	17088.42
474.598	16957.35
474.802	16865.19
475.007	17008.55
475.212	16684.97
475.417	16324.53
475.621	16193.46
475.826	16422.83
476.031	15869.88
476.235	15769.53
476.44	15939.51
476.645	15431.62
476.849	15491.01
477.054	15540.16
477.259	15081.41
477.463	14952.39
477.668	14809.03
477.872	14981.06
478.077	14753.74
478.282	14534.6
478.486	14493.65
478.691	14219.22
478.895	14174.16
479.1	14065.62
479.304	14055.38
479.509	13633.5
479.713	13758.42
479.918	13584.35
480.122	13473.76
480.326	13682.65
480.531	13348.83
480.735	13563.87
480.94	13357.02
481.144	13617.11
481.348	13113.31
481.553	13074.4
481.757	13006.82
481.961	13049.83
482.166	13369.31
482.37	13199.33
482.574	12853.22
482.778	13068.26
482.983	13297.63
483.187	13109.22
483.391	13166.56
483.595	12982.24
483.8	12890.09
484.004	13105.12
484.208	13285.34
484.412	13234.14
484.616	13123.55
484.821	13215.71
485.025	12969.96
485.229	13252.58
485.433	12951.53
485.637	13137.89
485.841	12828.65
486.045	12972
486.249	12953.57
486.453	12918.76
486.657	13092.83
486.861	13141.99
487.065	12668.91
487.269	12914.66
487.473	12933.09
487.677	13209.57
487.881	13309.92
488.085	13049.83
488.289	12969.96
488.493	13045.73
488.697	13213.67
488.901	13027.3
489.105	13082.6
489.309	12951.53
489.512	13064.16
489.716	13006.82
489.92	13365.21
490.124	13176.8
490.328	13449.18
490.531	13060.07
490.735	13271.01
490.939	13559.77
491.143	13500.38
491.346	13492.19
491.55	13500.38
491.754	13494.24
491.958	13617.11
492.161	13629.4
492.365	13760.47
492.569	13608.92
492.772	13733.85
492.976	13670.36
493.18	13793.24
493.383	14247.89
493.587	14274.51
493.79	14251.99
493.994	14133.2
494.197	14274.51
494.401	14374.86
494.605	14260.18
494.808	14727.11
495.012	14921.67
495.215	14581.71
495.419	14927.81
495.622	14917.58
495.825	15288.26
496.029	15253.44
496.232	15531.97
496.436	15347.65
496.639	15740.86
496.843	15734.71
497.046	16029.62
497.249	16129.97
497.453	16459.7
497.656	16455.6
497.859	16478.13
498.063	16697.26
498.266	17029.03
498.469	17016.74
498.673	17082.28
498.876	17471.39
499.079	17553.31
499.282	17446.82
499.485	18192.28
499.689	18053.02
499.892	18343.83
500.095	18204.56
500.298	18720.65
500.501	18890.63
500.705	18958.22
500.908	19283.84
501.111	19388.29
501.314	19818.36
501.517	20049.78
501.72	20119.42
501.923	20223.86
502.126	20756.33
502.329	20780.91
502.532	21063.53
502.735	21366.63
502.938	21288.81
503.141	21714.78
503.344	22290.26
503.547	22284.12
503.75	22660.94
503.953	22583.12
504.156	22875.98
504.359	23111.5
504.562	23594.82
504.765	23600.96
504.968	23951.17
505.17	24524.6
505.373	24487.73
505.576	24735.54
505.779	25196.33
505.982	25229.1
506.185	25593.64
506.387	25388.84
506.59	25898.78
506.793	26314.52
506.996	26138.4
507.198	27090.7
507.401	26816.27
507.604	27289.35
507.807	27717.38
508.009	28002.05
508.212	28169.98
508.415	28419.83
508.617	28841.71
508.82	29120.24
509.022	28776.18
509.225	29873.89
509.428	29949.67
509.63	30119.65
509.833	30361.31
510.035	30832.34
510.238	30555.86
510.44	31397.58
510.643	31866.56
510.845	31817.41
511.048	31739.59
511.25	32351.93
511.453	32683.7
511.655	33869.48
511.858	33498.8
512.06	33586.86
512.262	34332.32
512.465	34059.94
512.667	34688.67
512.87	35045.01
513.072	35090.07
513.274	35743.37
513.477	36378.24
513.679	36384.38
513.881	36847.22
514.084	37148.28
514.286	37160.56
514.488	37461.62
514.69	37928.55
514.893	38405.73
515.095	38491.74
515.297	39208.53
515.499	38975.06
515.701	39702.09
515.904	40046.15
516.106	40595.01
516.308	40764.99
516.51	41190.97
516.712	41455.15
516.914	41944.62
517.116	42532.39
517.318	42184.23
517.52	42933.79
517.722	43306.52
517.925	43398.68
518.127	44215.82
518.329	44189.19
518.531	44514.82
518.733	44908.03
518.935	45434.36
519.136	45710.83
519.338	45663.73
519.54	46392.81
519.742	46919.13
519.944	46951.9
520.146	47789.52
520.348	47844.82
520.55	47810
520.752	48272.84
520.954	48754.11
521.155	48899.52
521.357	49522.1
521.559	49864.11
521.761	50466.22
521.963	50271.66
522.164	50724.26
522.366	51234.2
522.568	51557.78
522.77	51563.93
522.971	52635.02
523.173	52215.18
523.375	52821.38
523.576	52297.1
523.778	52733.32
523.98	53828.98
524.181	53794.17
524.383	53398.91
524.584	54265.2
524.786	54766.95
524.988	54711.66
525.189	54812.01
525.391	55297.37
525.592	55641.43
525.794	55805.27
525.995	56229.2
526.197	56100.18
526.398	56167.76
526.6	56390.99
526.801	56862.02
527.003	56751.43
527.204	56929.61
527.406	57365.82
527.607	57425.21
527.808	57926.97
528.01	57148.74
528.211	57562.43
528.412	58821.93
528.614	58576.17
528.815	58445.1
529.016	59061.54
529.218	58668.33
529.419	58797.35
529.62	59202.85
529.822	58836.26
530.023	58930.47
530.224	59374.88
530.425	59069.73
530.626	59059.49
530.828	58582.32
531.029	60585.23
531.23	59665.69
531.431	59954.46
531.632	59845.91
531.833	60079.38
532.035	59573.53
532.236	60126.49
532.437	60654.86
532.638	59618.59
532.839	60462.35
533.04	60388.63
533.241	59729.18
533.442	60763.4
533.643	60491.02
533.844	60144.92
534.045	60663.05
534.246	60118.29
534.447	60853.51
534.648	60431.63
534.849	60720.4
535.05	59985.18
535.251	60431.63
535.451	60298.51
535.652	60450.06
535.853	60699.92
536.054	60632.33
536.255	60771.6
536.456	60149.01
536.657	61048.07
536.857	60470.54
537.058	60149.01
537.259	61123.85
537.46	60691.72
537.66	60474.64
537.861	61052.17
538.062	60382.48
538.263	60687.63
538.463	60247.32
538.664	60374.29
538.865	60650.77
539.065	60830.99
539.266	60052.76
539.466	60726.54
539.667	59854.11
539.868	61173
540.068	60364.05
540.269	60495.12
540.469	60519.7
540.67	60613.9
540.87	60699.92
541.071	60456.21
541.271	60601.61
541.472	60693.77
541.672	60171.54
541.873	60314.9
542.073	59995.42
542.274	60917
542.474	60376.34
542.675	60017.94
542.875	60669.2
543.075	60351.76
543.276	59850.01
543.476	60380.43
543.676	60241.17
543.877	60175.64
544.077	60411.15
544.277	60323.09
544.478	60017.94
544.678	60460.3
544.878	60261.65
545.078	60587.28
545.279	60235.03
545.479	60390.67
545.679	60601.61
545.879	60032.28
546.079	60001.56
546.28	59759.9
546.48	59395.36
546.68	59784.47
546.88	59817.24
547.08	59727.13
547.28	60194.07
547.48	59538.72
547.68	60103.96
547.88	59895.06
548.081	60122.39
548.281	60005.66
548.481	59655.45
548.681	60261.65
548.881	60007.7
549.081	60161.3
549.28	59598.11
549.48	60177.68
549.68	59440.42
549.88	60265.75
550.08	59381.02
550.28	60357.91
550.48	59442.46
550.68	60175.64
550.88	59626.78
551.08	59917.59
551.279	59909.4
551.479	59399.46
551.679	59993.37
551.879	59577.63
552.079	59735.32
552.278	59434.27
552.478	59565.34
552.678	59487.52
552.878	59854.11
553.077	59510.05
553.277	58940.71
553.477	59931.93
553.676	59159.84
553.876	59452.7
554.076	59206.95
554.275	59202.85
554.475	58373.42
554.674	59536.67
554.874	59450.66
555.074	59378.98
555.273	59112.74
555.473	59151.65
555.672	59008.29
555.872	58623.28
556.071	58971.43
556.271	59309.35
556.47	58606.89
556.67	58508.59
556.869	58301.75
557.068	58742.06
557.268	58258.74
557.467	58606.89
557.667	57933.11
557.866	58019.13
558.065	58324.27
558.265	57953.59
558.464	57318.72
558.663	58506.54
558.863	57314.62
559.062	58588.46
559.261	57535.8
559.461	58682.67
559.66	57435.45
559.859	57681.21
560.058	57390.4
560.258	57603.39
560.457	56802.63
560.656	57505.09
560.855	57288
561.054	57275.71
561.253	56925.51
561.453	56864.07
561.652	57089.35
561.851	57414.97
562.05	56790.34
562.249	56487.24
562.448	56618.31
562.647	56778.06
562.846	56573.26
563.045	56300.88
563.244	55805.27
563.443	56577.36
563.642	55360.86
563.841	56247.63
564.04	55909.72
564.239	56388.94
564.438	55889.24
564.637	55838.04
564.836	55756.12
565.035	55020.9
565.234	55614.81
565.432	55283.04
565.631	55102.82
565.83	55362.91
566.029	54988.13
566.228	54437.23
566.427	54877.54
566.625	54793.57
566.824	54029.68
567.023	54545.77
567.222	53697.91
567.42	54220.14
567.619	53998.96
567.818	54353.26
568.016	53198.21
568.215	53898.61
568.414	53691.77
568.612	53785.97
568.811	53198.21
569.01	53581.18
569.208	52460.94
569.407	53300.61
569.605	52610.44
569.804	53128.58
570.002	52596.1
570.201	52635.02
570.4	52061.58
570.598	52499.85
570.797	51918.23
570.995	52172.17
571.193	51606.94
571.392	52235.66
571.59	51582.36
571.789	51901.84
571.987	51750.29
572.186	51592.6
572.384	51355.04
572.582	51596.7
572.781	51367.32
572.979	50685.35
573.177	50707.88
573.376	50906.53
573.574	50415.02
573.772	50685.35
573.971	50488.74
574.169	50068.91
574.367	49663.41
574.565	50218.41
574.763	49769.91
574.962	49890.74
575.16	49386.94
575.358	49558.97
575.556	49161.66
575.754	49667.51
575.952	48805.31
576.151	49341.88
576.349	48983.49
576.547	48973.25
576.745	48618.95
576.943	48577.99
577.141	48764.35
577.339	48260.55
577.537	48395.72
577.735	47967.69
577.933	47666.64
578.131	47758.8
578.329	47881.68
578.527	47556.05
578.725	47226.33
578.923	47613.4
579.121	47312.34
579.319	46925.28
579.516	47273.43
579.714	47224.28
579.912	46929.37
580.11	46470.63
580.308	46341.61
580.506	46439.91
580.704	45823.47
580.901	46331.37
581.099	46388.71
581.297	45643.25
581.495	45641.2
581.692	45919.73
581.89	45444.6
582.088	45843.95
582.285	45098.49
582.483	45585.91
582.681	45110.78
582.878	45217.27
583.076	44490.24
583.274	45118.97
583.471	44312.07
583.669	44580.35
583.866	44068.36
584.064	44738.05
584.262	43783.69
584.459	44168.71
584.657	43873.81
584.854	44348.93
585.052	43083.29
585.249	44152.33
585.447	43558.42
585.644	43513.36
585.841	43580.95
586.039	43771.41
586.236	42718.75
586.434	42706.46
586.631	42694.18
586.828	42958.36
587.026	42954.27
587.223	42452.51
587.42	42585.63
587.618	42679.84
587.815	41850.41
588.012	42004.01
588.21	41797.16
588.407	42268.2
588.604	41485.87
588.801	41618.99
588.999	41190.97
589.196	41854.51
589.393	41215.54
589.59	41297.46
589.787	41133.62
589.984	40842.81
590.182	40506.94
590.379	40859.2
590.576	40574.53
590.773	40367.68
590.97	40248.9
591.167	40314.44
591.364	40109.64
591.561	39638.61
591.758	39999.05
591.955	39517.78
592.152	40238.66
592.349	39366.23
592.546	39249.49
592.743	39147.09
592.94	38819.42
593.137	39046.74
593.334	39691.85
593.531	38508.13
593.727	38970.97
593.924	38803.03
594.121	38344.29
594.318	38458.98
594.515	38284.9
594.712	38622.81
594.908	38227.56
595.105	38078.05
595.302	37830.25
595.499	38424.16
595.696	37822.06
595.892	37543.53
596.089	37883.5
596.286	37320.31
596.482	37002.87
596.679	37289.59
596.876	37062.26
597.072	37140.08
597.269	36943.48
597.466	36697.72
597.662	36687.48
597.859	36656.76
598.055	36238.98
598.252	36152.96
598.448	36241.03
598.645	36179.59
598.841	35960.45
599.038	35778.18
599.234	36148.87
599.431	35856.01
599.627	35534.48
599.824	35634.83
600.02	35118.74
600.217	35511.95
600.413	34920.09
600.609	34940.57
600.806	35143.31
601.002	34813.59
601.198	34639.51
601.395	34559.64
601.591	34436.77
601.787	34922.13
601.984	34604.7
602.18	34754.2
602.376	34363.04
602.572	33912.49
602.769	33951.4
602.965	33746.6
603.161	33955.49
603.357	33355.44
603.553	33451.69
603.75	33732.26
603.946	33404.59
604.142	33595.05
604.338	33101.49
604.534	33246.9
604.73	32753.33
604.926	32947.89
605.122	32847.54
605.318	32462.52
605.514	32384.7
605.71	32005.83
605.906	32589.5
606.102	32427.71
606.298	32366.27
606.494	32282.3
606.69	32181.95
606.886	32063.17
607.082	31831.75
607.278	32177.86
607.474	31395.53
607.67	32241.34
607.866	31178.45
608.062	31684.3
608.257	31260.37
608.453	31624.9
608.649	31581.9
608.845	31307.47
609.041	31051.47
609.236	31334.09
609.432	31213.26
609.628	31074
609.824	30729.94
610.019	30703.32
610.215	31080.14
610.411	30701.27
610.606	30260.96
610.802	30754.52
610.998	30533.34
611.193	30680.79
611.389	30314.2
611.584	30152.41
611.78	29943.52
611.976	30338.78
612.171	30136.03
612.367	30039.78
612.562	30017.25
612.758	29572.84
612.953	29636.33
613.149	29888.23
613.344	29492.97
613.539	30039.78
613.735	29628.13
613.93	29726.44
614.126	29449.96
614.321	29794.02
614.517	29398.76
614.712	29368.04
614.907	29314.8
615.103	29355.75
615.298	29169.39
615.493	29394.67
615.688	28686.07
615.884	29306.6
616.079	28778.23
616.274	28892.91
616.47	28837.62
616.665	28806.9
616.86	28729.08
617.055	28479.22
617.25	28458.74
617.445	28841.71
617.641	28309.24
617.836	28405.5
618.031	28002.05
618.226	28124.93
618.421	27991.81
618.616	27989.76
618.811	27459.34
619.006	28391.16
619.201	27346.7
619.396	27571.97
619.591	27358.99
619.786	27348.75
619.981	27039.5
620.176	27281.16
620.371	26834.71
620.566	26959.63
620.761	26775.31
620.956	27115.28
621.151	26238.75
621.346	26711.83
621.541	26038.05
621.735	26427.16
621.93	25997.09
622.125	25943.84
622.32	25997.09
622.515	26015.52
622.709	25503.53
622.904	25691.94
623.099	25358.12
623.294	25476.9
623.488	25007.92
623.683	25259.82
623.878	24770.35
624.072	24762.16
624.267	24880.94
624.462	24377.14
624.656	24166.2
624.851	24397.62
625.046	24067.9
625.24	23942.97
625.435	23834.43
625.629	23527.24
625.824	23473.99
626.018	23752.51
626.213	23252.81
626.407	23177.03
626.602	22892.37
626.796	23041.87
626.991	23068.49
627.185	22734.67
627.38	22796.11
627.574	22570.83
627.768	22015.83
627.963	22363.99
628.157	22257.5
628.352	22089.56
628.546	21620.58
628.74	21821.28
628.935	21798.75
629.129	21647.2
629.323	20877.16
629.517	21393.25
629.712	21311.33
629.906	21208.94
630.1	20926.32
630.294	20866.92
630.489	20752.24
630.683	20959.08
630.877	20600.69
631.071	20160.38
631.265	20375.41
631.459	20172.66
631.653	20260.73
631.848	20148.09
632.042	19722.11
632.236	19820.41
632.43	19560.32
632.624	19761.02
632.818	19574.66
633.012	19163.01
633.206	19382.15
633.4	19427.2
633.594	19255.17
633.788	18911.11
633.982	18982.79
634.176	18864.01
634.369	18685.84
634.563	18585.49
634.757	18333.59
634.951	18565.01
635.145	18417.55
635.339	18478.99
635.533	18395.03
635.726	18044.82
635.92	17674.14
636.114	17926.04
636.308	17758.11
636.501	17809.31
636.695	17563.55
636.889	17426.34
637.083	17362.85
637.276	17285.03
637.47	17256.36
637.664	17305.51
637.857	17270.69
638.051	16996.26
638.244	16644.01
638.438	16789.42
638.632	16660.4
638.825	16633.77
639.019	16465.84
639.212	16402.35
639.406	16482.22
639.599	16175.03
639.793	16070.58
639.986	15892.41
640.18	16068.53
640.373	16050.1
640.567	15777.72
640.76	15775.67
640.954	15527.87
641.147	15486.91
641.34	15488.96
641.534	15474.62
641.727	15310.79
641.92	15300.55
642.114	15212.48
642.307	14974.92
642.5	15235.01
642.694	14753.74
642.887	14852.04
643.08	14872.52
643.273	14598.09
643.467	14774.22
643.66	14594
643.853	14362.58
644.046	14415.82
644.239	14213.07
644.432	14274.51
644.626	14055.38
644.819	14139.35
645.012	13842.39
645.205	13971.41
645.398	13848.54
645.591	13905.88
645.784	13647.83
645.977	13537.24
646.17	13676.51
646.363	13606.88
646.556	13244.38
646.749	13244.38
646.942	13371.36
647.135	13238.24
647.328	12941.29
647.521	13000.68
647.714	12857.32
647.907	12943.33
648.099	12793.83
648.292	12937.19
648.485	12691.43
648.678	12593.13
648.871	12683.24
649.064	12490.73
649.256	12570.6
649.449	12523.5
649.642	12183.54
649.835	12251.12
650.027	12052.47
650.22	12171.25
650.413	12021.75
650.605	12058.61
650.798	12064.75
650.991	11819
651.183	11843.57
651.376	11700.22
651.568	11644.92
651.761	11485.18
651.954	11732.98
652.146	11415.55
652.339	11472.89
652.531	11413.5
652.724	11274.24
652.916	11005.95
653.109	11210.75
653.301	11229.18
653.494	11378.69
653.686	10897.41
653.879	11153.41
654.071	10778.63
654.263	10874.88
654.456	10792.97
654.648	11018.24
654.84	10772.49
655.033	10729.48
655.225	10461.2
655.417	10547.21
655.61	10549.26
655.802	10692.62
655.994	10524.68
656.186	10223.63
656.379	10217.49
656.571	10203.15
656.763	10010.64
656.955	10248.21
657.148	10127.38
657.34	10045.46
657.532	9955.35
657.724	9781.27
657.916	9934.87
658.108	9863.19
658.3	9719.83
658.492	9517.08
658.684	9664.54
658.876	9639.96
659.068	9429.02
659.26	9410.59
659.452	9555.99
659.644	9410.59
659.836	9250.85
660.028	9412.64
660.22	9230.37
660.412	9173.02
660.604	9052.19
660.796	9152.54
660.988	9103.39
661.18	8939.55
661.372	9031.71
661.563	9162.78
661.755	8927.27
661.947	8839.2
662.139	8728.61
662.331	8671.27
662.522	8730.66
662.714	8757.29
662.906	8527.91
663.097	8572.97
663.289	8497.19
663.481	8572.97
663.673	8466.47
663.864	8312.88
664.056	8284.2
664.247	8347.69
664.439	8271.92
664.631	8112.17
664.822	8306.73
665.014	7997.49
665.205	8142.89
665.397	8085.55
665.588	8157.23
665.78	7864.37
665.971	7747.64
666.163	7884.85
666.354	8017.97
666.546	8056.88
666.737	7761.97
666.929	7858.23
667.12	7649.33
667.311	7727.16
667.503	7802.93
667.694	7798.84
667.885	7727.16
668.077	7716.92
668.268	7546.94
668.459	7471.16
668.651	7653.43
668.842	7581.75
669.033	7438.39
669.224	7319.61
669.416	7516.22
669.607	7446.59
669.798	7383.1
669.989	7370.81
670.18	7231.55
670.371	7297.08
670.563	7170.11
670.754	7362.62
670.945	7172.16
671.136	7094.33
671.327	7098.43
671.518	7102.53
671.709	7112.77
671.9	7112.77
672.091	7071.81
672.282	7018.56
672.473	6813.76
672.664	7104.57
672.855	6924.35
673.046	6873.15
673.237	6762.56
673.428	6871.11
673.619	7008.32
673.809	6705.22
674	6799.43
674.191	6811.71
674.382	6543.43
674.573	6711.36
674.764	6672.45
674.954	6641.73
675.145	6572.1
675.336	6776.9
675.527	6424.65
675.717	6813.76
675.908	6598.73
676.099	6525
676.289	6510.66
676.48	6631.49
676.671	6428.74
676.861	6502.47
677.052	6346.83
677.243	6465.61
677.433	6350.92
677.624	6344.78
677.814	6309.96
678.005	6506.57
678.195	6398.03
678.386	6402.12
678.576	6371.4
678.767	6320.2
678.957	6445.13
679.148	6385.74
679.338	6314.06
679.529	6269
679.719	6352.97
679.909	6385.74
680.1	6217.8
680.29	6363.21
680.481	6168.65
680.671	6383.69
680.861	5883.98
681.052	6156.36
681.242	6053.97
681.432	6223.95
681.622	6219.85
681.813	6170.7
682.003	6129.74
682.193	6000.72
682.383	6072.4
682.573	6002.77
682.764	5937.23
682.954	5990.48
683.144	6137.93
683.334	5873.75
683.524	5922.9
683.714	5963.86
683.904	6080.59
684.094	5869.65
684.284	6035.53
684.474	6043.73
684.664	5853.27
684.854	5941.33
685.044	5920.85
685.234	5845.07
685.424	5800.02
685.614	5888.08
685.804	5836.88
685.994	5820.5
686.184	5869.65
686.374	5879.89
686.564	5777.49
686.753	5746.77
686.943	5693.52
687.133	5632.08
687.323	5591.13
687.513	5527.64
687.702	5603.41
687.892	5638.23
688.082	5570.65
688.272	5593.17
688.461	5462.1
688.651	5474.39
688.841	5376.09
689.03	5462.1
689.22	5314.65
689.41	5371.99
689.599	5310.55
689.789	5206.11
689.979	5140.57
690.168	5228.63
690.358	5181.53
690.547	5116
690.737	5126.24
690.926	5075.04
691.116	4970.59
691.305	5179.48
691.495	5099.61
691.684	5017.69
691.874	4956.26
692.063	4943.97
692.252	4999.26
692.442	5091.42
692.631	4831.33
692.82	4776.03
693.01	4778.08
693.199	4835.42
693.388	4790.37
693.578	4780.13
693.767	4798.56
693.956	4757.6
694.146	4565.09
694.335	4604
694.524	4681.83
694.713	4702.31
694.902	4638.82
695.092	4671.59
695.281	4581.48
695.47	4636.77
695.659	4628.58
695.848	4583.52
696.037	4558.95
696.226	4558.95
696.415	4526.18
696.604	4520.04
696.793	4436.07
696.982	4419.69
697.171	4579.43
697.36	4479.08
697.549	4499.56
697.738	4335.72
697.927	4382.82
698.116	4405.35
698.305	4554.85
698.494	4399.21
698.683	4454.5
698.872	4466.79
699.061	4442.21
699.25	4288.62
699.438	4382.82
699.627	4296.81
699.816	4362.34
700.005	4415.59
700.193	4190.31
700.382	4296.81
700.571	4378.73
700.76	4221.03
700.948	4288.62
701.137	4317.29
701.326	4317.29
701.514	4229.23
701.703	4350.06
701.892	4237.42
702.08	4208.75
702.269	4239.47
702.457	4198.51
702.646	4169.84
702.834	4092.01
703.023	4153.45
703.212	4200.55
703.4	4157.55
703.589	4108.4
703.777	4165.74
703.965	4067.44
704.154	4231.27
704.342	4227.18
704.531	4210.79
704.719	4161.64
704.907	4137.07
705.096	4049
705.284	4169.84
705.472	4067.44
705.661	4157.55
705.849	4141.16
706.037	4063.34
706.226	4079.72
706.414	4120.68
706.602	4077.68
706.79	4073.58
706.979	4128.88
707.167	4098.16
707.355	4046.96
707.543	4020.33
707.731	4100.2
707.919	4137.07
708.107	4036.72
708.296	4132.97
708.484	3997.81
708.672	4001.9
708.86	4100.2
709.048	4063.34
709.236	3870.83
709.424	4100.2
709.612	4022.38
709.8	4094.06
709.988	4059.24
710.176	4059.24
710.364	3960.94
710.551	4036.72
710.739	3965.04
710.927	4055.15
711.115	4073.58
711.303	4067.44
711.491	4198.51
711.679	4018.29
711.866	4014.19
712.054	4104.3
712.242	4030.57
712.43	4065.39
712.617	4077.68
712.805	3930.22
712.993	4141.16
713.181	4075.63
713.368	4030.57
713.556	4104.3
713.744	3938.41
713.931	4255.85
714.119	4063.34
714.306	4118.64
714.494	4024.43
714.682	4044.91
714.869	4081.77
715.057	4001.9
715.244	3997.81
715.432	4083.82
715.619	4159.6
715.807	4231.27
715.994	4116.59
716.182	3922.03
716.369	4028.53
716.556	4159.6
716.744	4124.78
716.931	4071.53
717.119	4186.22
717.306	4081.77
717.493	4028.53
717.681	4006
717.868	4173.93
718.055	4059.24
718.242	4139.12
718.43	4012.14
718.617	4165.74
718.804	3989.61
718.991	4098.16
719.179	4118.64
719.366	4046.96
719.553	4116.59
719.74	4169.84
719.927	3979.37
720.114	4153.45
720.301	4055.15
720.488	3989.61
720.676	4012.14
720.863	4163.69
721.05	4212.84
721.237	4063.34
721.424	4073.58
721.611	4194.41
721.798	4038.77
721.985	4104.3
722.172	4087.92
722.358	4141.16
722.545	3958.89
722.732	4159.6
722.919	4180.07
723.106	3985.52
723.293	4100.2
723.48	4118.64
723.667	4071.53
723.853	4079.72
724.04	4165.74
724.227	4118.64
724.414	4055.15
724.6	4102.25
724.787	4089.96
724.974	4159.6
725.161	4032.62
725.347	4118.64
725.534	4155.5
725.72	4210.79
725.907	4051.05
726.094	4145.26
726.28	4192.36
726.467	4302.95
726.653	4214.89
726.84	4233.32
727.027	4194.41
727.213	4116.59
727.4	4151.4
727.586	4175.98
727.773	4323.43
727.959	4153.45
728.145	4233.32
728.332	4294.76
728.518	4202.6
728.705	4243.56
728.891	4305
729.077	4159.6
729.264	4161.64
729.45	4139.12
729.636	4362.34
729.823	4128.88
730.009	4106.35
730.195	4208.75
730.382	4253.8
730.568	4221.03
730.754	4175.98
730.94	4241.51
731.126	4116.59
731.313	4237.42
731.499	4139.12
731.685	4294.76
731.871	4270.19
732.057	4178.03
732.243	4167.79
732.429	4298.86
732.615	4116.59
732.801	4276.33
732.987	4065.39
733.173	4202.6
733.359	4223.08
733.545	4198.51
733.731	4153.45
733.917	4159.6
734.103	4221.03
734.289	4384.87
734.475	4077.68
734.661	4366.44
734.847	4294.76
735.033	4245.61
735.219	4178.03
735.404	4120.68
735.59	4198.51
735.776	4141.16
735.962	4155.5
736.148	4243.56
736.333	4186.22
736.519	4112.49
736.705	4135.02
736.89	4339.82
737.076	4294.76
737.262	4200.55
737.447	4251.75
737.633	4231.27
737.819	4214.89
738.004	4089.96
738.19	4073.58
738.375	4104.3
738.561	4171.88
738.747	4120.68
738.932	4073.58
739.118	4057.2
739.303	4075.63
739.489	4214.89
739.674	3993.71
739.859	4132.97
740.045	4026.48
740.23	4012.14
740.416	4003.95
740.601	4018.29
740.786	4094.06
740.972	4051.05
741.157	4077.68
741.342	3993.71
741.528	4057.2
741.713	3991.66
741.898	4003.95
742.084	3973.23
742.269	4089.96
742.454	4012.14
742.639	4022.38
742.824	3977.33
743.01	3874.93
743.195	3969.13
743.38	4085.87
743.565	3960.94
743.75	3967.09
743.935	3827.82
744.12	3833.97
744.305	3762.29
744.49	3715.19
744.675	3893.36
744.86	3876.98
745.045	3766.39
745.23	3870.83
745.415	3663.99
745.6	3678.32
745.785	3641.46
745.97	3823.73
746.155	3651.7
746.34	3610.74
746.525	3672.18
746.71	3688.56
746.895	3647.6
747.079	3637.36
747.264	3524.72
747.449	3549.3
747.634	3457.14
747.819	3594.36
748.003	3502.2
748.188	3561.59
748.373	3319.93
748.557	3444.85
748.742	3317.88
748.927	3352.7
749.111	3491.96
749.296	3422.33
749.481	3303.54
749.665	3455.09
749.85	3393.65
750.034	3330.17
750.219	3160.19
750.404	3238.01
750.588	3170.43
750.773	3238.01
750.957	3213.43
751.141	3219.58
751.326	3125.37
751.51	3061.88
751.695	3227.77
751.879	3113.08
752.064	3029.12
752.248	3215.48
752.432	2965.63
752.617	3070.08
752.801	3049.6
752.985	3139.71
753.17	3014.78
753.354	3137.66
753.538	2893.95
753.722	2746.5
753.907	2838.66
754.091	2852.99
754.275	2807.94
754.459	2834.56
754.643	2795.65
754.828	2787.46
755.012	2674.82
755.196	2740.35
755.38	2734.21
755.564	2785.41
755.748	2728.07
755.932	2683.01
756.116	2660.48
756.3	2672.77
756.484	2619.52
756.668	2597
756.852	2486.4
757.036	2558.08
757.22	2549.89
757.404	2517.12
757.588	2429.06
757.772	2457.73
757.956	2556.04
758.14	2547.84
758.323	2365.57
758.507	2402.44
758.691	2400.39
758.875	2353.29
759.059	2355.33
759.242	2355.33
759.426	2394.25
759.61	2379.91
759.794	2324.62
759.977	2355.33
760.161	2404.49
760.345	2359.43
760.528	2324.62
760.712	2347.14
760.895	2224.26
761.079	2279.56
761.263	2140.3
761.446	2226.31
761.63	2236.55
761.813	2254.98
761.997	2234.5
762.18	2173.07
762.364	2064.52
762.547	2150.54
762.731	2093.19
762.914	2097.29
763.098	2156.68
763.281	2154.63
763.464	2078.86
763.648	2164.87
763.831	2064.52
764.015	2080.91
764.198	1986.7
764.381	2216.07
764.564	2021.52
764.748	2017.42
764.931	2013.32
765.114	2080.91
765.297	2050.19
765.481	1929.36
765.664	1906.83
765.847	1919.12
766.03	1837.2
766.213	1888.4
766.397	2017.42
766.58	1861.77
766.763	1908.88
766.946	1953.93
767.129	1867.92
767.312	1872.01
767.495	1968.27
767.678	1849.49
767.861	1892.49
768.044	1872.01
768.227	1878.16
768.41	1861.77
768.593	1941.65
768.776	1814.67
768.959	1771.66
769.142	1849.49
769.324	1818.77
769.507	1763.47
769.69	1683.6
769.873	1802.38
770.056	1804.43
770.239	1681.55
770.421	1810.58
770.604	1730.7
770.787	1804.43
770.97	1671.31
771.152	1671.31
771.335	1695.89
771.518	1675.41
771.7	1683.6
771.883	1708.18
772.066	1661.07
772.248	1644.69
772.431	1632.4
772.613	1675.41
772.796	1489.04
772.978	1603.73
773.161	1714.32
773.343	1593.49
773.526	1544.34
773.708	1618.07
773.891	1534.1
774.073	1605.78
774.256	1544.34
774.438	1538.2
774.621	1515.67
774.803	1462.42
774.985	1450.13
775.168	1482.9
775.35	1419.41
775.532	1499.28
775.715	1417.37
775.897	1573.01
776.079	1511.57
776.261	1458.32
776.444	1409.17
776.626	1423.51
776.808	1341.59
776.99	1380.5
777.173	1384.6
777.355	1382.55
777.537	1278.1
777.719	1284.25
777.901	1298.58
778.083	1292.44
778.265	1278.1
778.447	1403.03
778.629	1323.16
778.811	1337.49
778.993	1321.11
779.175	1290.39
779.357	1208.47
779.539	1235.1
779.721	1198.23
779.903	1206.42
780.085	1228.95
780.267	1194.14
780.449	1198.23
780.631	1173.66
780.812	1179.8
780.994	1118.36
781.176	1081.5
781.358	1118.36
781.54	1048.73
781.721	1054.87
781.903	1208.47
782.085	1116.31
782.267	1106.07
782.448	1046.68
782.63	1104.03
782.812	981.15
782.993	1046.68
783.175	1032.35
783.357	1054.87
783.538	942.24
783.72	891.04
783.901	995.48
784.083	946.33
784.264	921.76
784.446	901.28
784.627	874.65
784.809	1032.35
784.99	1001.63
785.172	905.37
785.353	989.34
785.535	932
785.716	903.32
785.897	848.03
786.079	909.47
786.26	862.37
786.441	919.71
786.623	893.09
786.804	862.37
786.985	839.84
787.167	884.89
787.348	794.78
787.529	813.21
787.71	825.5
787.891	800.93
788.073	802.97
788.254	749.73
788.435	807.07
788.616	790.69
788.797	770.21
788.978	762.02
789.159	747.68
789.34	745.63
789.522	782.49
789.703	768.16
789.884	751.78
790.065	784.54
790.246	807.07
790.427	721.06
790.607	727.2
790.788	829.6
790.969	757.92
791.15	682.14
791.331	706.72
791.512	682.14
791.693	651.42
791.874	671.9
792.054	757.92
792.235	745.63
792.416	669.86
792.597	604.32
792.778	676
792.958	702.62
793.139	739.49
793.32	624.8
793.5	594.08
793.681	657.57
793.862	729.25
794.042	618.66
794.223	571.55
794.404	639.14
794.584	553.12
794.765	616.61
794.945	624.8
795.126	616.61
795.306	612.51
795.487	616.61
795.667	620.71
795.848	680.1
796.028	538.79
796.209	577.7
796.389	573.6
796.57	620.71
796.75	581.79
796.93	610.47
797.111	579.75
797.291	614.56
797.471	557.22
797.652	475.3
797.832	592.03
798.012	561.31
798.192	516.26
798.373	542.88
798.553	514.21
798.733	524.45
798.913	524.45
799.093	530.59
799.274	555.17
799.454	520.35
799.634	577.7
799.814	467.11
799.994	450.72
800.174	534.69
800.354	592.03
800.534	395.43
800.714	594.08
800.894	422.05
801.074	432.29
801.254	471.2
801.434	481.44
801.614	489.64
801.794	463.01
801.974	1204.38
802.154	512.16
802.334	497.83
802.514	417.96
802.693	463.01
802.873	438.44
803.053	411.81
803.233	393.38
803.413	381.09
803.592	434.34
803.772	432.29
803.952	393.38
804.131	391.33
804.311	426.15
804.491	485.54
804.67	458.92
804.85	356.52
805.03	374.95
805.209	465.06
805.389	397.48
805.568	436.39
805.748	426.15
805.928	395.43
806.107	426.15
806.287	370.85
806.466	399.52
806.646	379.04
806.825	393.38
807.004	424.1
807.184	280.74
807.363	346.28
807.543	383.14
807.722	358.57
807.901	379.04
808.081	360.61
808.26	297.13
808.439	434.34
808.619	399.52
808.798	372.9
808.977	352.42
809.156	389.28
809.336	389.28
809.515	356.52
809.694	333.99
809.873	370.85
810.052	370.85
810.231	362.66
810.411	317.61
810.59	385.19
810.769	307.37
810.948	399.52
811.127	264.36
811.306	358.57
811.485	340.13
811.664	417.96
811.843	329.89
812.022	377
812.201	282.79
812.38	284.84
812.559	303.27
812.737	344.23
812.916	333.99
813.095	313.51
813.274	297.13
813.453	276.65
813.632	307.37
813.811	364.71
813.989	270.5
814.168	268.45
814.347	299.17
814.526	241.83
814.704	288.93
814.883	338.09
815.062	307.37
815.24	319.65
815.419	260.26
815.598	297.13
815.776	254.12
815.955	286.89
816.133	211.11
816.312	362.66
816.49	430.24
816.669	344.23
816.847	331.94
817.026	288.93
817.204	278.69
817.383	247.97
817.561	254.12
817.74	278.69
817.918	254.12
818.097	245.93
818.275	282.79
818.453	268.45
818.632	272.55
818.81	239.78
818.988	233.64
819.167	153.77
819.345	233.64
819.523	186.54
819.701	280.74
819.879	317.61
820.058	166.06
820.236	262.31
820.414	282.79
820.592	155.82
820.77	297.13
820.948	184.49
821.127	250.02
821.305	250.02
821.483	256.17
821.661	254.12
821.839	209.06
822.017	192.68
822.195	225.45
822.373	252.07
822.551	256.17
822.729	252.07
822.907	202.92
823.085	311.46
823.262	229.54
823.44	153.77
823.618	207.02
823.796	202.92
823.974	235.69
824.152	223.4
824.329	252.07
824.507	254.12
824.685	172.2
824.863	262.31
825.04	133.29
825.218	250.02
825.396	213.16
825.574	237.74
825.751	200.87
825.929	258.21
826.107	161.96
826.284	186.54
826.462	237.74
826.639	196.78
826.817	172.2
826.994	256.17
827.172	161.96
827.349	243.88
827.527	217.26
827.704	127.14
827.882	293.03
828.059	180.39
828.237	192.68
828.414	145.58
828.591	164.01
828.769	231.59
828.946	159.91
829.124	192.68
829.301	272.55
829.478	198.82
829.655	194.73
829.833	196.78
830.01	131.24
830.187	143.53
830.364	170.15
830.542	164.01
830.719	196.78
830.896	114.86
831.073	164.01
831.25	141.48
831.427	151.72
831.604	182.44
831.782	135.34
831.959	196.78
832.136	190.63
832.313	166.06
832.49	80.04
832.667	121
832.844	143.53
833.021	194.73
833.198	202.92
833.374	137.38
833.551	229.54
833.728	139.43
833.905	215.21
834.082	96.43
834.259	161.96
834.436	151.72
834.612	129.19
834.789	202.92
834.966	127.14
835.143	98.47
835.319	147.62
835.496	186.54
835.673	127.14
835.85	202.92
836.026	204.97
836.203	143.53
836.38	125.1
836.556	77.99
836.733	39.08
836.909	184.49
837.086	155.82
837.262	112.81
837.439	147.62
837.616	133.29
837.792	151.72
837.968	131.24
838.145	108.71
838.321	106.67
838.498	123.05
838.674	186.54
838.851	145.58
839.027	194.73
839.203	96.43
839.38	82.09
839.556	121
839.732	182.44
839.909	166.06
840.085	121
840.261	84.14
840.437	114.86
840.614	98.47
840.79	170.15
840.966	145.58
841.142	155.82
841.318	108.71
841.494	147.62
841.671	137.38
841.847	49.32
842.023	14.51
842.199	106.67
842.375	88.23
842.551	86.19
842.727	108.71
842.903	151.72
843.079	127.14
843.255	82.09
843.431	77.99
843.607	166.06
843.783	-30.55
843.959	84.14
844.134	67.75
844.31	145.58
844.486	100.52
844.662	92.33
844.838	98.47
845.013	123.05
845.189	137.38
845.365	157.86
845.541	22.7
845.716	94.38
845.892	141.48
846.068	92.33
846.244	82.09
846.419	133.29
846.595	30.89
846.77	-22.36
846.946	61.61
847.122	86.19
847.297	100.52
847.473	135.34
847.648	47.27
847.824	129.19
847.999	106.67
848.175	180.39
848.35	98.47
848.526	98.47
848.701	100.52
848.876	43.18
849.052	147.62
849.227	100.52
849.403	92.33
849.578	47.27
849.753	88.23
849.929	104.62
850.104	43.18
850.279	65.71
850.454	80.04
850.63	61.61
850.805	-10.07
850.98	170.15
851.155	67.75
851.33	121
851.505	104.62
851.681	178.34
851.856	118.95
852.031	90.28
852.206	104.62
852.381	28.84
852.556	49.32
852.731	80.04
852.906	55.47
853.081	51.37
853.256	155.82
853.431	69.8
853.606	14.51
853.781	59.56
853.956	10.41
854.131	59.56
854.305	24.75
854.48	-28.5
854.655	53.42
854.83	65.71
855.005	47.27
855.18	170.15
855.354	0.17
855.529	110.76
855.704	28.84
855.879	114.86
856.053	6.31
856.228	63.66
856.403	41.13
856.577	55.47
856.752	22.7
856.926	43.18
857.101	49.32
857.276	30.89
857.45	69.8
857.625	59.56
857.799	57.51
857.974	100.52
858.148	-38.74
858.323	34.99
858.497	-30.55
858.672	61.61
858.846	57.51
859.02	45.23
859.195	10.41
859.369	90.28
859.543	8.36
859.718	41.13
859.892	98.47
860.066	61.61
860.241	47.27
860.415	39.08
860.589	28.84
860.763	96.43
860.938	45.23
861.112	108.71
861.286	24.75
861.46	55.47
861.634	-1.88
861.808	86.19
861.982	92.33
862.157	14.51
862.331	-5.97
862.505	53.42
862.679	14.51
862.853	69.8
863.027	-12.12
863.201	65.71
863.375	37.03
863.549	77.99
863.722	37.03
863.896	129.19
864.07	16.55
864.244	26.79
864.418	149.67
864.592	49.32
864.766	55.47
864.939	63.66
865.113	32.94
865.287	114.86
865.461	-3.93
865.634	37.03
865.808	71.85
865.982	28.84
866.156	26.79
866.329	10.41
866.503	75.95
866.676	34.99
866.85	16.55
867.024	63.66
867.197	94.38
867.371	73.9
867.544	92.33
867.718	4.27
867.891	30.89
868.065	18.6
868.238	82.09
868.412	84.14
868.585	24.75
868.759	-10.07
868.932	45.23
869.105	-69.46
869.279	24.75
869.452	-5.97
869.625	37.03
869.799	45.23
869.972	-55.12
870.145	32.94
870.319	80.04
870.492	18.6
870.665	12.46
870.838	20.65
871.011	-61.27
871.185	43.18
871.358	-8.02
871.531	34.99
871.704	0.17
871.877	-24.4
872.05	14.51
872.223	-18.26
872.396	59.56
872.569	39.08
872.742	6.31
872.915	69.8
873.088	30.89
873.261	53.42
873.434	-42.84
873.607	53.42
873.78	43.18
873.953	-36.69
874.126	49.32
874.299	53.42
874.471	43.18
874.644	51.37
874.817	88.23
874.99	39.08
875.163	-71.51
875.335	14.51
875.508	-1.88
875.681	16.55
875.853	61.61
876.026	30.89
876.199	8.36
876.371	-42.84
876.544	8.36
876.717	30.89
876.889	16.55
877.062	18.6
877.234	-16.21
877.407	-55.12
877.579	-22.36
877.752	-12.12
877.924	37.03
878.097	2.22
878.269	-5.97
878.442	4.27
878.614	61.61
878.786	45.23
878.959	59.56
879.131	-16.21
879.303	6.31
879.476	-10.07
879.648	-3.93
879.82	18.6
879.993	24.75
880.165	28.84
880.337	-22.36
880.509	0.17
880.681	-30.55
880.854	-96.08
881.026	-42.84
881.198	53.42
881.37	-3.93
881.542	71.85
881.714	30.89
881.886	0.17
882.058	18.6
882.23	57.51
882.402	-10.07
882.574	77.99
882.746	30.89
882.918	45.23
883.09	67.75
883.262	-63.32
883.434	28.84
883.606	-40.79
883.778	-26.45
883.95	8.36
884.122	20.65
884.293	4.27
884.465	2.22
884.637	84.14
884.809	16.55
884.98	114.86
885.152	59.56
885.324	106.67
885.496	0.17
885.667	26.79
885.839	82.09
886.011	37.03
886.182	30.89
886.354	114.86
886.525	61.61
886.697	-34.64
886.869	16.55
887.04	-3.93
887.212	61.61
887.383	112.81
887.555	-22.36
887.726	-8.02
887.897	16.55
888.069	26.79
888.24	24.75
888.412	41.13
888.583	45.23
888.754	55.47
888.926	-26.45
889.097	-16.21
889.268	-69.46
889.44	0.17
889.611	71.85
889.782	16.55
889.953	-16.21
890.125	-14.17
890.296	45.23
890.467	6.31
890.638	-51.03
890.809	10.41
890.98	39.08
891.151	55.47
891.323	12.46
891.494	-8.02
891.665	12.46
891.836	-10.07
892.007	34.99
892.178	65.71
892.349	-44.88
892.52	71.85
892.691	10.41
892.862	20.65
893.032	-26.45
893.203	-14.17
893.374	39.08
893.545	82.09
893.716	-24.4
893.887	-40.79
894.057	-71.51
894.228	14.51
894.399	24.75
894.57	86.19
894.74	-1.88
894.911	-34.64
895.082	-16.21
895.253	6.31
895.423	16.55
895.594	26.79
895.764	14.51
895.935	28.84
896.106	6.31
896.276	-8.02
896.447	-30.55
896.617	-53.08
896.788	-30.55
896.958	-10.07
897.129	45.23
897.299	8.36
897.47	32.94
897.64	127.14
897.81	32.94
897.981	-12.12
898.151	-75.6
898.322	-16.21
898.492	-16.21
898.662	-16.21
898.832	12.46
899.003	34.99
899.173	51.37
899.343	24.75
899.513	49.32
