Data from USB4F104151__6__12-23-19-649.txt Node

Date: Fri Mar 14 12:23:19 EDT 2025
User: louis
Spectrometer: USB4F10415
Trigger mode: 4
Integration Time (sec): 3.500000E-2
Scans to average: 1
Electric dark correction enabled: true
Nonlinearity correction enabled: false
Boxcar width: 0
XAxis mode: Wavelengths
Number of Pixels in Spectrum: 3648
>>>>>Begin Spectral Data<<<<<
178.204	-149.67
178.424	-149.67
178.644	-149.67
178.864	-110.76
179.084	-51.37
179.304	-20.65
179.524	-32.94
179.744	-22.7
179.964	42.84
180.184	61.27
180.404	-32.94
180.624	28.5
180.844	81.75
181.064	-123.05
181.283	-8.36
181.503	-30.89
181.723	57.17
181.943	-65.71
182.163	108.37
182.383	-10.41
182.602	30.55
182.822	87.89
183.042	44.88
183.262	81.75
183.482	77.65
183.701	16.21
183.921	3.93
184.141	-43.18
184.361	55.12
184.58	44.88
184.8	-10.41
185.02	94.04
185.239	89.94
185.459	16.21
185.679	-8.36
185.898	-2.22
186.118	44.88
186.338	69.46
186.557	28.5
186.777	-2.22
186.997	-24.75
187.216	87.89
187.436	57.17
187.655	73.56
187.875	-16.55
188.095	104.28
188.314	94.04
188.534	87.89
188.753	26.45
188.973	55.12
189.192	85.84
189.412	53.08
189.631	63.32
189.851	38.74
190.07	94.04
190.29	3.93
190.509	18.26
190.729	36.69
190.948	61.27
191.168	239.44
191.387	67.41
191.607	-41.13
191.826	28.5
192.045	36.69
192.265	10.07
192.484	-2.22
192.704	3.93
192.923	22.36
193.142	116.56
193.362	67.41
193.581	100.18
193.8	3.93
194.02	42.84
194.239	46.93
194.458	30.55
194.678	36.69
194.897	24.4
195.116	24.4
195.335	-22.7
195.555	63.32
195.774	55.12
195.993	1.88
196.212	5.97
196.432	-0.17
196.651	-12.46
196.87	32.6
197.089	124.76
197.308	46.93
197.528	100.18
197.747	-22.7
197.966	65.36
198.185	81.75
198.404	59.22
198.623	38.74
198.842	91.99
199.062	30.55
199.281	126.8
199.5	61.27
199.719	69.46
199.938	61.27
200.157	51.03
200.376	114.52
200.595	51.03
200.814	71.51
201.033	61.27
201.252	75.6
201.471	38.74
201.69	65.36
201.909	87.89
202.128	55.12
202.347	57.17
202.566	71.51
202.785	-53.42
203.004	48.98
203.223	102.23
203.442	38.74
203.661	3.93
203.879	102.23
204.098	94.04
204.317	16.21
204.536	32.6
204.755	100.18
204.974	24.4
205.193	14.17
205.411	147.28
205.63	91.99
205.849	26.45
206.068	42.84
206.287	32.6
206.505	-34.99
206.724	42.84
206.943	-18.6
207.162	32.6
207.381	3.93
207.599	40.79
207.818	34.64
208.037	8.02
208.255	-14.51
208.474	16.21
208.693	44.88
208.911	30.55
209.13	75.6
209.349	61.27
209.567	79.7
209.786	59.22
210.005	59.22
210.223	40.79
210.442	-10.41
210.661	38.74
210.879	30.55
211.098	106.32
211.316	69.46
211.535	108.37
211.753	44.88
211.972	48.98
212.191	-2.22
212.409	-6.31
212.628	30.55
212.846	-14.51
213.065	22.36
213.283	94.04
213.502	-4.27
213.72	28.5
213.938	51.03
214.157	59.22
214.375	75.6
214.594	63.32
214.812	8.02
215.031	-53.42
215.249	44.88
215.467	3.93
215.686	14.17
215.904	65.36
216.122	48.98
216.341	51.03
216.559	40.79
216.778	75.6
216.996	-30.89
217.214	26.45
217.432	-12.46
217.651	-16.55
217.869	10.07
218.087	24.4
218.306	-47.27
218.524	-22.7
218.742	1.88
218.96	42.84
219.179	26.45
219.397	5.97
219.615	120.66
219.833	42.84
220.051	-8.36
220.27	65.36
220.488	18.26
220.706	14.17
220.924	-45.23
221.142	40.79
221.36	46.93
221.578	3.93
221.796	8.02
222.015	65.36
222.233	102.23
222.451	120.66
222.669	46.93
222.887	77.65
223.105	18.26
223.323	20.31
223.541	-14.51
223.759	73.56
223.977	30.55
224.195	55.12
224.413	28.5
224.631	57.17
224.849	67.41
225.067	51.03
225.285	-28.84
225.503	-16.55
225.721	32.6
225.939	32.6
226.157	44.88
226.375	151.38
226.592	48.98
226.81	26.45
227.028	26.45
227.246	132.95
227.464	77.65
227.682	59.22
227.9	51.03
228.117	16.21
228.335	26.45
228.553	42.84
228.771	63.32
228.989	3.93
229.206	71.51
229.424	-22.7
229.642	53.08
229.86	14.17
230.077	14.17
230.295	10.07
230.513	51.03
230.731	40.79
230.948	46.93
231.166	91.99
231.384	3.93
231.601	-32.94
231.819	137.04
232.037	108.37
232.254	20.31
232.472	16.21
232.689	1.88
232.907	89.94
233.125	-30.89
233.342	32.6
233.56	20.31
233.777	61.27
233.995	59.22
234.213	8.02
234.43	-18.6
234.648	38.74
234.865	59.22
235.083	192.34
235.3	20.31
235.518	75.6
235.735	69.46
235.953	38.74
236.17	51.03
236.388	42.84
236.605	-6.31
236.822	-10.41
237.04	104.28
237.257	14.17
237.475	36.69
237.692	-28.84
237.909	48.98
238.127	46.93
238.344	65.36
238.562	48.98
238.779	67.41
238.996	-24.75
239.214	18.26
239.431	91.99
239.648	-8.36
239.865	100.18
240.083	110.42
240.3	-12.46
240.517	22.36
240.735	18.26
240.952	61.27
241.169	59.22
241.386	-4.27
241.603	71.51
241.821	16.21
242.038	59.22
242.255	67.41
242.472	-18.6
242.689	65.36
242.907	16.21
243.124	89.94
243.341	-6.31
243.558	51.03
243.775	40.79
243.992	18.26
244.209	55.12
244.426	1.88
244.643	30.55
244.86	48.98
245.078	-2.22
245.295	69.46
245.512	98.13
245.729	28.5
245.946	65.36
246.163	16.21
246.38	-26.79
246.597	81.75
246.814	22.36
247.031	63.32
247.248	26.45
247.464	102.23
247.681	57.17
247.898	42.84
248.115	-0.17
248.332	10.07
248.549	51.03
248.766	118.61
248.983	114.52
249.2	-20.65
249.417	73.56
249.633	30.55
249.85	65.36
250.067	-12.46
250.284	46.93
250.501	36.69
250.717	8.02
250.934	-20.65
251.151	-39.08
251.368	55.12
251.585	22.36
251.801	98.13
252.018	-12.46
252.235	98.13
252.451	-32.94
252.668	46.93
252.885	40.79
253.102	-12.46
253.318	85.84
253.535	55.12
253.752	63.32
253.968	38.74
254.185	3.93
254.401	59.22
254.618	145.24
254.835	59.22
255.051	26.45
255.268	57.17
255.484	69.46
255.701	104.28
255.917	96.08
256.134	-0.17
256.351	18.26
256.567	20.31
256.784	22.36
257	-43.18
257.217	85.84
257.433	71.51
257.65	30.55
257.866	94.04
258.082	51.03
258.299	71.51
258.515	65.36
258.732	8.02
258.948	-26.79
259.165	8.02
259.381	-4.27
259.597	48.98
259.814	61.27
260.03	51.03
260.246	38.74
260.463	67.41
260.679	59.22
260.895	-2.22
261.112	24.4
261.328	16.21
261.544	34.64
261.761	98.13
261.977	59.22
262.193	-18.6
262.409	108.37
262.626	5.97
262.842	34.64
263.058	-34.99
263.274	40.79
263.49	-55.47
263.707	8.02
263.923	12.12
264.139	12.12
264.355	8.02
264.571	120.66
264.787	75.6
265.004	94.04
265.22	155.47
265.436	32.6
265.652	28.5
265.868	36.69
266.084	-10.41
266.3	73.56
266.516	20.31
266.732	32.6
266.948	42.84
267.164	87.89
267.38	-18.6
267.596	55.12
267.812	108.37
268.028	114.52
268.244	1.88
268.46	28.5
268.676	30.55
268.892	83.8
269.108	-26.79
269.324	42.84
269.54	24.4
269.756	24.4
269.972	-8.36
270.188	-4.27
270.403	5.97
270.619	14.17
270.835	61.27
271.051	81.75
271.267	26.45
271.483	59.22
271.698	8.02
271.914	44.88
272.13	-2.22
272.346	69.46
272.562	38.74
272.777	67.41
272.993	46.93
273.209	26.45
273.425	91.99
273.64	-43.18
273.856	-34.99
274.072	44.88
274.287	12.12
274.503	122.71
274.719	124.76
274.934	10.07
275.15	16.21
275.366	98.13
275.581	12.12
275.797	44.88
276.012	104.28
276.228	59.22
276.444	5.97
276.659	65.36
276.875	-2.22
277.09	34.64
277.306	18.26
277.521	42.84
277.737	8.02
277.952	26.45
278.168	63.32
278.383	55.12
278.599	42.84
278.814	51.03
279.03	94.04
279.245	89.94
279.461	89.94
279.676	44.88
279.892	-4.27
280.107	-6.31
280.322	32.6
280.538	36.69
280.753	-26.79
280.969	83.8
281.184	96.08
281.399	67.41
281.615	149.33
281.83	46.93
282.045	-47.27
282.26	34.64
282.476	-22.7
282.691	69.46
282.906	30.55
283.122	100.18
283.337	26.45
283.552	44.88
283.767	18.26
283.983	71.51
284.198	42.84
284.413	87.89
284.628	22.36
284.843	-34.99
285.058	69.46
285.274	36.69
285.489	-14.51
285.704	46.93
285.919	-14.51
286.134	38.74
286.349	53.08
286.564	65.36
286.779	81.75
286.995	-41.13
287.21	-37.03
287.425	46.93
287.64	53.08
287.855	30.55
288.07	44.88
288.285	75.6
288.5	59.22
288.715	-16.55
288.93	-24.75
289.145	8.02
289.36	44.88
289.575	55.12
289.79	20.31
290.004	30.55
290.219	71.51
290.434	28.5
290.649	20.31
290.864	57.17
291.079	-2.22
291.294	61.27
291.509	85.84
291.724	77.65
291.938	-2.22
292.153	143.19
292.368	-14.51
292.583	61.27
292.798	55.12
293.012	36.69
293.227	32.6
293.442	48.98
293.657	79.7
293.871	94.04
294.086	22.36
294.301	85.84
294.516	16.21
294.73	73.56
294.945	-63.66
295.16	20.31
295.374	81.75
295.589	122.71
295.804	18.26
296.018	-6.31
296.233	14.17
296.447	55.12
296.662	28.5
296.877	96.08
297.091	16.21
297.306	59.22
297.52	-41.13
297.735	69.46
297.949	14.17
298.164	114.52
298.378	79.7
298.593	30.55
298.807	14.17
299.022	40.79
299.236	128.85
299.451	77.65
299.665	-6.31
299.88	26.45
300.094	55.12
300.309	32.6
300.523	34.64
300.737	-30.89
300.952	36.69
301.166	81.75
301.381	12.12
301.595	57.17
301.809	75.6
302.024	-4.27
302.238	-51.37
302.452	36.69
302.667	-4.27
302.881	165.71
303.095	1.88
303.309	-26.79
303.524	3.93
303.738	102.23
303.952	26.45
304.166	75.6
304.381	38.74
304.595	10.07
304.809	63.32
305.023	-43.18
305.237	36.69
305.452	-16.55
305.666	75.6
305.88	100.18
306.094	106.32
306.308	42.84
306.522	79.7
306.736	24.4
306.95	30.55
307.164	-10.41
307.379	24.4
307.593	83.8
307.807	63.32
308.021	48.98
308.235	34.64
308.449	-24.75
308.663	40.79
308.877	40.79
309.091	36.69
309.305	10.07
309.519	-14.51
309.733	1.88
309.947	-18.6
310.161	114.52
310.374	12.12
310.588	69.46
310.802	32.6
311.016	48.98
311.23	8.02
311.444	132.95
311.658	12.12
311.872	32.6
312.085	40.79
312.299	75.6
312.513	71.51
312.727	36.69
312.941	44.88
313.154	12.12
313.368	65.36
313.582	81.75
313.796	77.65
314.009	106.32
314.223	44.88
314.437	40.79
314.651	-14.51
314.864	16.21
315.078	32.6
315.292	46.93
315.505	81.75
315.719	8.02
315.933	65.36
316.146	20.31
316.36	16.21
316.573	69.46
316.787	98.13
317.001	135
317.214	55.12
317.428	65.36
317.641	3.93
317.855	100.18
318.068	44.88
318.282	135
318.495	100.18
318.709	96.08
318.922	-49.32
319.136	163.67
319.349	85.84
319.563	-26.79
319.776	122.71
319.99	46.93
320.203	34.64
320.417	44.88
320.63	40.79
320.843	112.47
321.057	94.04
321.27	10.07
321.483	8.02
321.697	112.47
321.91	12.12
322.124	91.99
322.337	55.12
322.55	61.27
322.763	34.64
322.977	57.17
323.19	-14.51
323.403	-22.7
323.617	-14.51
323.83	65.36
324.043	48.98
324.256	65.36
324.469	-28.84
324.683	118.61
324.896	14.17
325.109	18.26
325.322	18.26
325.535	75.6
325.748	53.08
325.962	-4.27
326.175	12.12
326.388	63.32
326.601	51.03
326.814	104.28
327.027	75.6
327.24	122.71
327.453	-28.84
327.666	100.18
327.879	38.74
328.092	55.12
328.305	18.26
328.518	1.88
328.731	-20.65
328.944	40.79
329.157	61.27
329.37	89.94
329.583	59.22
329.796	91.99
330.009	16.21
330.222	57.17
330.435	14.17
330.648	-30.89
330.861	28.5
331.073	100.18
331.286	67.41
331.499	91.99
331.712	100.18
331.925	14.17
332.138	67.41
332.35	98.13
332.563	48.98
332.776	100.18
332.989	32.6
333.202	36.69
333.414	104.28
333.627	36.69
333.84	79.7
334.053	16.21
334.265	42.84
334.478	53.08
334.691	71.51
334.903	1.88
335.116	14.17
335.329	30.55
335.541	-12.46
335.754	143.19
335.966	24.4
336.179	32.6
336.392	18.26
336.604	42.84
336.817	38.74
337.029	89.94
337.242	18.26
337.454	69.46
337.667	-6.31
337.88	75.6
338.092	1.88
338.305	143.19
338.517	73.56
338.729	63.32
338.942	30.55
339.154	57.17
339.367	-30.89
339.579	36.69
339.792	116.56
340.004	26.45
340.217	20.31
340.429	69.46
340.641	77.65
340.854	44.88
341.066	20.31
341.278	100.18
341.491	132.95
341.703	104.28
341.915	51.03
342.128	63.32
342.34	1.88
342.552	22.36
342.764	-4.27
342.977	40.79
343.189	16.21
343.401	94.04
343.613	32.6
343.826	126.8
344.038	-20.65
344.25	42.84
344.462	42.84
344.674	42.84
344.886	3.93
345.099	57.17
345.311	110.42
345.523	65.36
345.735	14.17
345.947	112.47
346.159	51.03
346.371	104.28
346.583	71.51
346.795	110.42
347.007	-0.17
347.219	40.79
347.431	59.22
347.643	106.32
347.855	-22.7
348.067	89.94
348.279	81.75
348.491	67.41
348.703	36.69
348.915	8.02
349.127	48.98
349.339	51.03
349.551	12.12
349.763	26.45
349.975	30.55
350.187	135
350.399	81.75
350.61	22.36
350.822	36.69
351.034	71.51
351.246	98.13
351.458	12.12
351.669	73.56
351.881	67.41
352.093	67.41
352.305	75.6
352.517	18.26
352.728	153.43
352.94	1.88
353.152	137.04
353.363	28.5
353.575	87.89
353.787	141.14
353.999	46.93
354.21	83.8
354.422	24.4
354.633	32.6
354.845	10.07
355.057	59.22
355.268	57.17
355.48	83.8
355.692	26.45
355.903	-16.55
356.115	32.6
356.326	-69.8
356.538	69.46
356.749	-22.7
356.961	120.66
357.172	42.84
357.384	81.75
357.595	173.91
357.807	22.36
358.018	-8.36
358.23	67.41
358.441	67.41
358.653	71.51
358.864	32.6
359.075	20.31
359.287	36.69
359.498	30.55
359.709	42.84
359.921	69.46
360.132	26.45
360.344	55.12
360.555	38.74
360.766	40.79
360.977	14.17
361.189	132.95
361.4	-4.27
361.611	132.95
361.823	73.56
362.034	51.03
362.245	28.5
362.456	38.74
362.667	94.04
362.879	10.07
363.09	112.47
363.301	57.17
363.512	24.4
363.723	30.55
363.935	32.6
364.146	28.5
364.357	91.99
364.568	55.12
364.779	18.26
364.99	65.36
365.201	38.74
365.412	94.04
365.623	32.6
365.834	3.93
366.045	38.74
366.256	91.99
366.467	104.28
366.678	96.08
366.889	94.04
367.1	16.21
367.311	24.4
367.522	-12.46
367.733	-2.22
367.944	77.65
368.155	96.08
368.366	65.36
368.577	83.8
368.788	83.8
368.999	22.36
369.209	12.12
369.42	57.17
369.631	153.43
369.842	32.6
370.053	-18.6
370.264	79.7
370.474	20.31
370.685	57.17
370.896	69.46
371.107	147.28
371.317	30.55
371.528	114.52
371.739	79.7
371.95	126.8
372.16	98.13
372.371	12.12
372.582	-4.27
372.792	40.79
373.003	137.04
373.214	61.27
373.424	85.84
373.635	-16.55
373.846	106.32
374.056	24.4
374.267	32.6
374.477	38.74
374.688	63.32
374.898	42.84
375.109	59.22
375.319	102.23
375.53	26.45
375.74	20.31
375.951	53.08
376.161	69.46
376.372	71.51
376.582	59.22
376.793	1.88
377.003	69.46
377.214	61.27
377.424	30.55
377.635	18.26
377.845	53.08
378.055	89.94
378.266	42.84
378.476	48.98
378.686	130.9
378.897	145.24
379.107	55.12
379.317	118.61
379.528	63.32
379.738	71.51
379.948	32.6
380.158	73.56
380.369	3.93
380.579	69.46
380.789	30.55
380.999	118.61
381.21	100.18
381.42	116.56
381.63	124.76
381.84	65.36
382.05	42.84
382.261	65.36
382.471	94.04
382.681	40.79
382.891	48.98
383.101	143.19
383.311	3.93
383.521	24.4
383.731	102.23
383.941	65.36
384.151	24.4
384.361	69.46
384.571	26.45
384.781	100.18
384.991	143.19
385.201	51.03
385.411	40.79
385.621	26.45
385.831	55.12
386.041	69.46
386.251	116.56
386.461	26.45
386.671	102.23
386.881	65.36
387.091	26.45
387.301	79.7
387.511	22.36
387.72	91.99
387.93	175.95
388.14	67.41
388.35	-10.41
388.56	81.75
388.769	69.46
388.979	85.84
389.189	65.36
389.399	61.27
389.609	73.56
389.818	48.98
390.028	63.32
390.238	110.42
390.447	36.69
390.657	102.23
390.867	18.26
391.076	-2.22
391.286	89.94
391.496	106.32
391.705	16.21
391.915	73.56
392.125	102.23
392.334	53.08
392.544	94.04
392.753	124.76
392.963	77.65
393.172	89.94
393.382	14.17
393.591	87.89
393.801	98.13
394.01	83.8
394.22	53.08
394.429	73.56
394.639	20.31
394.848	67.41
395.058	75.6
395.267	126.8
395.477	94.04
395.686	48.98
395.895	130.9
396.105	165.71
396.314	73.56
396.524	16.21
396.733	91.99
396.942	159.57
397.152	116.56
397.361	89.94
397.57	124.76
397.78	-2.22
397.989	79.7
398.198	112.47
398.407	141.14
398.617	48.98
398.826	83.8
399.035	126.8
399.244	79.7
399.453	91.99
399.663	132.95
399.872	57.17
400.081	38.74
400.29	94.04
400.499	65.36
400.708	188.24
400.917	108.37
401.127	42.84
401.336	36.69
401.545	137.04
401.754	200.53
401.963	149.33
402.172	67.41
402.381	83.8
402.59	126.8
402.799	132.95
403.008	83.8
403.217	180.05
403.426	96.08
403.635	132.95
403.844	94.04
404.053	28.5
404.262	55.12
404.471	180.05
404.68	94.04
404.888	77.65
405.097	98.13
405.306	130.9
405.515	139.09
405.724	135
405.933	200.53
406.142	124.76
406.35	178
406.559	132.95
406.768	188.24
406.977	247.63
407.185	139.09
407.394	194.39
407.603	96.08
407.812	241.49
408.02	210.77
408.229	165.71
408.438	157.52
408.646	104.28
408.855	184.15
409.064	196.43
409.272	114.52
409.481	200.53
409.69	165.71
409.898	204.63
410.107	272.21
410.315	175.95
410.524	202.58
410.733	216.91
410.941	192.34
411.15	307.02
411.358	231.25
411.567	300.88
411.775	261.97
411.984	374.61
412.192	368.46
412.401	313.17
412.609	409.42
412.818	313.17
413.026	317.26
413.234	325.46
413.443	399.18
413.651	393.04
413.86	417.61
414.068	526.16
414.276	515.92
414.485	540.49
414.693	466.77
414.901	454.48
415.11	481.1
415.318	522.06
415.526	509.77
415.734	558.92
415.943	571.21
416.151	579.4
416.359	591.69
416.567	546.64
416.776	597.84
416.984	626.51
417.192	704.33
417.4	649.04
417.608	661.32
417.817	737.1
418.025	802.63
418.233	800.59
418.441	790.35
418.649	821.06
418.857	915.27
419.065	1007.43
419.273	902.98
419.481	1017.67
419.689	1054.53
419.897	964.42
420.105	1029.96
420.313	1158.98
420.521	1187.65
420.729	1165.12
420.937	1154.88
421.145	1247.04
421.353	1285.95
421.561	1345.34
421.769	1382.21
421.977	1306.43
422.185	1357.63
422.393	1478.46
422.601	1593.15
422.809	1578.81
423.017	1627.96
423.224	1601.34
423.432	1851.19
423.64	1881.91
423.848	1898.3
424.056	1910.58
424.263	2041.65
424.471	2088.76
424.679	2041.65
424.887	2197.3
425.094	2219.83
425.302	2242.36
425.51	2320.18
425.718	2410.29
425.925	2422.58
426.133	2576.17
426.341	2578.22
426.548	2772.78
426.756	2662.19
426.964	2742.06
427.171	2971.43
427.379	2879.27
427.586	3209
427.794	3147.56
428.001	3299.11
428.209	3573.53
428.417	3436.32
428.624	3712.8
428.832	3749.66
429.039	3667.74
429.247	3618.59
429.454	3989.27
429.662	4198.17
429.869	4013.85
430.076	4177.69
430.284	4087.57
430.491	4243.22
430.699	4552.46
430.906	4536.08
431.114	4620.05
431.321	4830.99
431.528	4681.49
431.736	5355.27
431.943	5379.84
432.15	5306.12
432.358	5213.96
432.565	5644.03
432.772	5631.74
432.979	5908.22
433.187	5703.42
433.394	5879.55
433.601	6452.98
433.808	6463.22
434.016	6629.1
434.223	6715.12
434.43	7188.2
434.637	7005.93
434.844	7454.44
435.052	7511.78
435.259	7384.8
435.466	7395.04
435.673	7765.73
435.88	7800.54
436.087	8568.53
436.294	8478.42
436.501	8226.52
436.708	8326.87
436.915	8687.31
437.122	9043.66
437.329	8916.69
437.537	9342.66
437.743	9490.12
437.95	9170.63
438.157	10016.44
438.364	10194.62
438.571	10282.68
438.778	10491.57
438.985	11181.74
439.192	10690.23
439.399	11099.82
439.606	10921.65
439.813	11458.21
440.02	12052.13
440.227	12070.56
440.433	11888.29
440.64	12412.57
440.847	12002.97
441.054	12390.04
441.261	13301.39
441.467	13317.77
441.674	13424.26
441.881	14073.47
442.088	13985.41
442.294	13758.08
442.501	14171.77
442.708	14298.75
442.914	14780.02
443.121	15439.47
443.328	15289.96
443.534	16426.59
443.741	15674.98
443.948	15838.82
444.154	16688.73
444.361	16522.84
444.568	16795.22
444.774	16684.63
444.981	16856.66
445.187	17663.56
445.394	18163.26
445.6	17903.17
445.807	19836.45
446.013	19123.76
446.22	19342.89
446.426	20342.3
446.633	20256.29
446.839	21261.84
447.046	19875.37
447.252	21167.63
447.459	21272.08
447.665	21116.44
447.871	22304.26
448.078	23023.09
448.284	21822.98
448.491	22619.64
448.697	23412.21
448.903	23891.43
449.11	23993.83
449.316	23244.27
449.522	24149.48
449.728	24311.27
449.935	24665.56
450.141	24634.85
450.347	25435.6
450.553	24657.37
450.76	25140.69
450.966	25501.14
451.172	25347.54
451.378	26058.18
451.584	25593.29
451.791	26070.47
451.997	26019.27
452.203	26439.11
452.409	26209.73
452.615	26262.98
452.821	25468.37
453.027	25177.56
453.233	26637.76
453.44	25361.87
453.646	25609.68
453.852	25701.84
454.058	26234.31
454.264	25118.17
454.47	25650.64
454.676	25320.91
454.882	26265.03
455.088	23735.79
455.294	24360.42
455.5	24468.96
455.705	24675.8
455.911	23954.92
456.117	23612.91
456.323	23266.8
456.529	21960.2
456.735	22830.58
456.941	22257.15
457.147	22101.51
457.352	20919.83
457.558	21057.04
457.764	21184.02
457.97	20696.6
458.176	20209.18
458.381	19955.24
458.587	19072.56
458.793	18900.53
458.999	18202.18
459.204	19385.9
459.41	19000.88
459.616	17614.41
459.821	17534.54
460.027	17335.88
460.233	17518.15
460.438	16250.46
460.644	16461.4
460.85	15871.59
461.055	15375.98
461.261	15629.93
461.466	14220.92
461.672	13891.2
461.878	14792.31
462.083	13958.78
462.289	13733.51
462.494	13420.17
462.7	12947.09
462.905	12387.99
463.111	13112.97
463.316	13055.63
463.522	12899.98
463.727	12887.7
463.932	12684.95
464.138	12627.6
464.343	12635.8
464.549	12275.35
464.754	12568.21
464.959	12586.65
465.165	12590.74
465.37	11886.24
465.575	11583.14
465.781	12054.17
465.986	12080.8
466.191	11613.86
466.397	11458.21
466.602	10897.07
466.807	11482.79
467.012	11329.19
467.218	11302.57
467.423	11200.17
467.628	11144.88
467.833	11787.94
468.038	11167.4
468.244	11108.01
468.449	11441.83
468.654	10978.99
468.859	10927.79
469.064	10987.18
469.269	10516.15
469.474	10380.98
469.679	10714.8
469.885	10409.65
470.09	10467
470.295	10546.87
470.5	10325.69
470.705	10352.31
470.91	9948.86
471.115	9774.78
471.32	10032.83
471.525	9881.28
471.73	9828.03
471.935	9748.16
472.139	9430.73
472.344	9756.35
472.549	9320.14
472.754	9533.12
472.959	9387.72
473.164	8756.94
473.369	8892.11
473.574	9266.89
473.778	9166.54
473.983	8898.25
474.188	8996.56
474.393	8746.7
474.598	8636.11
474.802	8457.94
475.007	8416.98
475.212	8347.35
475.417	8124.12
475.621	8199.9
475.826	8298.2
476.031	8060.63
476.235	7900.89
476.44	7986.91
476.645	7724.77
476.849	7960.28
477.054	7810.78
477.259	7593.7
477.463	7794.4
477.668	7540.45
477.872	7542.5
478.077	7333.61
478.282	7196.39
478.486	6983.4
478.691	7069.42
478.895	7145.19
479.1	7069.42
479.304	7044.84
479.509	6850.28
479.713	7085.8
479.918	6999.79
480.122	6954.73
480.326	6772.46
480.531	6928.11
480.735	6842.09
480.94	6715.12
481.144	7003.88
481.348	6516.47
481.553	6733.55
481.757	6565.62
481.961	6635.25
482.166	6633.2
482.37	6461.17
482.574	6563.57
482.778	6713.07
482.983	6782.7
483.187	6412.02
483.391	6698.74
483.595	6571.76
483.8	6582
484.004	6612.72
484.208	6569.71
484.412	6510.32
484.616	6508.27
484.821	6586.1
485.025	6440.69
485.229	6584.05
485.433	6471.41
485.637	6563.57
485.841	6610.67
486.045	6360.82
486.249	6647.54
486.453	6534.9
486.657	6780.65
486.861	6700.78
487.065	6379.25
487.269	6500.08
487.473	6438.64
487.677	6653.68
487.881	6678.26
488.085	6530.8
488.289	6739.69
488.493	6504.18
488.697	6592.24
488.901	6641.39
489.105	6741.74
489.309	6604.53
489.512	6706.93
489.716	6620.91
489.92	6737.65
490.124	6745.84
490.328	6856.43
490.531	6616.82
490.735	6727.41
490.939	6766.32
491.143	6684.4
491.346	6835.95
491.55	6962.92
491.754	6815.47
491.958	6872.81
492.161	6969.07
492.365	7012.07
492.569	6960.88
492.772	6946.54
492.976	7083.75
493.18	6848.24
493.383	7085.8
493.587	7073.51
493.79	7202.54
493.994	7165.67
494.197	7259.88
494.401	7206.63
494.605	7276.26
494.808	7429.86
495.012	7444.2
495.215	7450.34
495.419	7526.11
495.622	7487.2
495.825	7794.4
496.029	7653.09
496.232	7593.7
496.436	7880.41
496.639	7999.2
496.843	7888.6
497.046	8066.78
497.249	8210.14
497.453	8191.7
497.656	8343.25
497.859	8339.16
498.063	8535.76
498.266	8586.96
498.469	8607.44
498.673	8752.85
498.876	8750.8
499.079	8789.71
499.282	8969.93
499.485	9088.71
499.689	9051.85
499.892	9410.25
500.095	9293.51
500.298	9533.12
500.501	9586.37
500.705	9678.53
500.908	9928.38
501.111	9905.85
501.314	9963.2
501.517	10256.06
501.72	10186.43
501.923	10438.33
502.126	10389.17
502.329	10598.07
502.532	10854.06
502.735	10565.3
502.938	11026.09
503.141	11089.58
503.344	11450.02
503.547	11560.61
503.75	11402.92
503.953	11634.34
504.156	11832.99
504.359	11865.76
504.562	11611.81
504.765	12230.3
504.968	12326.55
505.17	12586.65
505.373	12334.75
505.576	12498.58
505.779	12988.05
505.982	13160.08
506.185	13379.21
506.387	13391.5
506.59	13479.56
506.793	13868.67
506.996	13729.41
507.198	13989.5
507.401	14182.01
507.604	14331.51
507.807	14429.82
508.009	14708.34
508.212	14755.44
508.415	14802.55
508.617	15128.17
508.82	15343.21
509.022	15023.73
509.225	15550.06
509.428	15617.64
509.63	15900.26
509.833	15818.34
510.035	16379.48
510.238	16283.23
510.44	16467.55
510.643	16713.3
510.845	16916.05
511.048	16842.32
511.25	17172.05
511.453	17194.57
511.655	17954.37
511.858	18103.87
512.06	17958.47
512.262	18169.41
512.465	18325.05
512.667	18593.34
512.87	18646.58
513.072	18941.49
513.274	18931.25
513.477	19299.89
513.679	19805.74
513.881	19885.61
514.084	20096.55
514.286	20174.37
514.488	20268.58
514.69	20921.88
514.893	20938.26
515.095	21055
515.297	21446.16
515.499	21462.54
515.701	21859.85
515.904	22001.16
516.106	22140.42
516.308	22470.14
516.51	22920.7
516.712	22746.62
516.914	23066.1
517.116	23619.05
517.318	23313.91
517.52	23774.7
517.722	23805.42
517.925	24301.03
518.127	24665.56
518.329	24819.16
518.531	24577.5
518.733	25101.78
518.935	25312.72
519.136	25677.26
519.338	26033.61
519.54	26215.88
519.742	26643.9
519.944	26512.83
520.146	27076.02
520.348	27166.13
520.55	27323.83
520.752	27839.92
520.954	27950.51
521.155	28347.81
521.357	28554.66
521.559	28622.24
521.761	29308.31
521.963	29189.53
522.164	29353.37
522.366	29584.79
522.568	29963.66
522.77	30031.24
522.971	30610.82
523.173	30434.69
523.375	30584.19
523.576	30594.43
523.778	30772.61
523.98	31163.77
524.181	31569.27
524.383	31550.84
524.584	32034.16
524.786	32187.75
524.988	32064.88
525.189	32683.36
525.391	32871.78
525.592	32505.19
525.794	32959.84
525.995	33267.03
526.197	33072.48
526.398	33299.8
526.6	33867.09
526.801	33848.66
527.003	34264.39
527.204	33940.82
527.406	34479.43
527.607	34417.99
527.808	34872.64
528.01	34344.27
528.211	34993.47
528.412	35085.63
528.614	35083.58
528.815	35331.39
529.016	35743.03
529.218	35583.29
529.419	35683.64
529.62	35665.21
529.822	35974.45
530.023	35872.05
530.224	35796.28
530.425	35759.41
530.626	35747.12
530.828	35790.13
531.029	36695.33
531.23	36265.26
531.431	36377.9
531.632	36758.82
531.833	36877.6
532.035	36896.03
532.236	36711.72
532.437	36988.19
532.638	36496.68
532.839	37166.37
533.04	37182.75
533.241	37104.93
533.442	37158.17
533.643	37137.69
533.844	37539.1
534.045	37217.57
534.246	36992.29
534.447	37313.82
534.648	37432.6
534.849	37643.54
535.05	36953.38
535.251	37289.24
535.451	37373.21
535.652	37741.85
535.853	37455.13
536.054	37463.32
536.255	37682.45
536.456	36859.17
536.657	38163.73
536.857	37485.85
537.058	37414.17
537.259	37645.59
537.46	37608.73
537.66	37737.75
537.861	37604.63
538.062	37696.79
538.263	37901.59
538.463	37502.23
538.664	37555.48
538.865	37610.78
539.065	37643.54
539.266	37332.25
539.466	37805.33
539.667	37385.5
539.868	38305.04
540.068	37858.58
540.269	37223.71
540.469	37887.25
540.67	37547.29
540.87	37647.64
541.071	37592.34
541.271	37889.3
541.472	37983.51
541.672	37631.26
541.873	37227.81
542.073	36953.38
542.274	38110.48
542.474	37502.23
542.675	37440.79
542.875	37520.66
543.075	37752.09
543.276	37211.42
543.476	37367.07
543.676	37524.76
543.877	37922.07
544.077	37774.61
544.277	37301.53
544.478	37573.91
544.678	37817.62
544.878	37547.29
545.078	37475.61
545.279	37547.29
545.479	37109.02
545.679	37317.92
545.879	37520.66
546.079	37479.71
546.28	37262.62
546.48	36992.29
546.68	37688.6
546.88	37434.65
547.08	37563.67
547.28	37168.41
547.48	37250.33
547.68	37365.02
547.88	37031.2
548.081	37688.6
548.281	37330.2
548.481	37086.5
548.681	37829.91
548.881	37354.78
549.081	37487.9
549.28	37412.12
549.48	37575.96
549.68	37113.12
549.88	37889.3
550.08	37246.24
550.28	37262.62
550.48	37156.13
550.68	37467.42
550.88	37573.91
551.08	37442.84
551.279	37424.41
551.479	36887.84
551.679	37238.05
551.879	37117.21
552.079	37600.54
552.278	37248.28
552.478	37309.72
552.678	37068.06
552.878	37496.09
553.077	36709.67
553.277	36566.31
553.477	37473.56
553.676	36746.53
553.876	37231.9
554.076	36756.77
554.275	36779.3
554.475	36705.57
554.674	36980
554.874	36998.43
555.074	36855.07
555.273	37057.82
555.473	37082.4
555.672	36773.16
555.872	36769.06
556.071	37029.15
556.271	37180.7
556.47	36494.63
556.67	36511.02
556.869	36681
557.068	36666.66
557.268	36103.47
557.467	36173.1
557.667	36427.05
557.866	36533.54
558.065	36097.33
558.265	36146.48
558.464	35872.05
558.663	36341.03
558.863	35552.57
559.062	36429.1
559.261	35456.31
559.461	36240.68
559.66	35484.98
559.859	35704.12
560.058	35423.54
560.258	35312.95
560.457	35298.62
560.656	35527.99
560.855	35175.74
561.054	35372.35
561.253	34778.43
561.453	35196.22
561.652	35108.16
561.851	35315
562.05	34864.45
562.249	34770.24
562.448	35114.3
562.647	34809.15
562.846	34714.95
563.045	34641.22
563.244	34026.83
563.443	34743.62
563.642	33998.16
563.841	34262.35
564.04	34028.88
564.239	34307.4
564.438	34022.73
564.637	33887.57
564.836	33985.87
565.035	33555.8
565.234	33607
565.432	33520.98
565.631	33477.97
565.83	33144.16
566.029	33328.47
566.228	32806.24
566.427	32744.8
566.625	33054.04
566.824	32630.12
567.023	33109.34
567.222	32480.61
567.42	32925.02
567.619	32558.44
567.818	32611.68
568.016	32507.24
568.215	32470.37
568.414	32054.64
568.612	32105.84
568.811	31923.57
569.01	31937.9
569.208	31120.76
569.407	31898.99
569.605	31174.01
569.804	31794.54
570.002	31221.11
570.201	31251.83
570.4	31110.52
570.598	30836.09
570.797	30688.64
570.995	30729.6
571.193	31030.65
571.392	30811.52
571.59	30539.14
571.789	30309.77
571.987	30457.22
572.186	30285.19
572.384	29767.06
572.582	30049.67
572.781	29996.43
572.979	29691.28
573.177	29488.53
573.376	29744.53
573.574	29728.14
573.772	29263.25
573.971	29119.9
574.169	29132.18
574.367	28911
574.565	29183.38
574.763	28769.69
574.962	28781.98
575.16	28560.8
575.358	28622.24
575.556	28192.17
575.754	28599.71
575.952	28085.67
576.151	28413.35
576.349	27997.61
576.547	28274.09
576.745	28243.37
576.943	27665.84
577.141	27649.46
577.339	27598.26
577.537	27682.22
577.735	27710.89
577.933	27297.2
578.131	27252.15
578.329	27104.7
578.527	26850.75
578.725	27047.35
578.923	27168.18
579.121	26854.84
579.319	26746.3
579.516	26834.36
579.714	26676.67
579.912	26727.87
580.11	26328.52
580.308	26383.81
580.506	26037.7
580.704	26109.38
580.901	25818.57
581.099	26305.99
581.297	25970.12
581.495	26207.69
581.692	25966.03
581.89	25632.21
582.088	25644.49
582.285	25372.11
582.483	25720.27
582.681	25499.09
582.878	25482.7
583.076	25099.73
583.274	25411.03
583.471	24987.1
583.669	25056.73
583.866	24853.98
584.064	24923.61
584.262	24425.95
584.459	24722.91
584.657	24624.61
584.854	24794.59
585.052	24296.93
585.249	24604.13
585.447	24538.59
585.644	23952.87
585.841	24096.23
586.039	24239.59
586.236	24288.74
586.434	23928.3
586.631	23823.85
586.828	23956.97
587.026	23909.86
587.223	23686.64
587.42	23389.68
587.618	23592.43
587.815	23115.25
588.012	23444.98
588.21	23346.67
588.407	23528.94
588.604	23455.22
588.801	23066.1
588.999	22939.13
589.196	22732.28
589.393	22754.81
589.59	23086.58
589.787	23029.24
589.984	22705.66
590.182	22523.39
590.379	22631.93
590.576	22414.85
590.773	22394.37
590.97	22377.98
591.167	22267.39
591.364	22107.65
591.561	22052.36
591.758	21964.29
591.955	21665.29
592.152	22177.28
592.349	21659.15
592.546	21745.16
592.743	21773.83
592.94	21270.03
593.137	21290.51
593.334	21468.69
593.531	21155.35
593.727	21411.34
593.924	21212.69
594.121	21120.53
594.318	21304.85
594.515	20952.6
594.712	21274.13
594.908	21067.28
595.105	20928.02
595.302	20700.7
595.499	20735.51
595.696	20659.74
595.892	20706.84
596.089	20334.11
596.286	20514.33
596.482	20401.69
596.679	20588.06
596.876	20276.77
597.072	20160.03
597.269	20401.69
597.466	20102.69
597.662	19824.17
597.859	20035.11
598.055	19940.9
598.252	19971.62
598.448	19945
598.645	19908.13
598.841	19691.05
599.038	19836.45
599.234	19596.84
599.431	19297.84
599.627	19551.79
599.824	19490.35
600.02	19084.85
600.217	19318.32
600.413	19052.08
600.609	19226.16
600.806	18976.31
601.002	19050.03
601.198	18712.12
601.395	18673.21
601.591	18771.51
601.787	18929.2
601.984	18925.11
602.18	18824.76
602.376	18411.07
602.572	18413.12
602.769	18294.33
602.965	18517.56
603.161	18497.08
603.357	18380.35
603.553	18144.83
603.75	18329.15
603.946	18105.92
604.142	17995.33
604.338	17819.21
604.534	18136.64
604.73	17567.31
604.926	17671.75
605.122	17911.36
605.318	17862.21
605.514	17487.43
605.71	17399.37
605.906	17804.87
606.102	17538.63
606.298	17325.64
606.494	17350.22
606.69	17485.39
606.886	17307.21
607.082	17034.83
607.278	17143.38
607.474	17086.03
607.67	16823.89
607.866	16606.81
608.062	16971.35
608.257	16670.29
608.453	16723.54
608.649	16780.89
608.845	16944.72
609.041	16918.1
609.236	16844.37
609.432	16492.12
609.628	16506.46
609.824	16576.09
610.019	16567.9
610.215	16467.55
610.411	16719.45
610.606	16297.56
610.802	16303.71
610.998	16199.26
611.193	16410.2
611.389	16121.44
611.584	16309.85
611.78	16088.67
611.976	16186.97
612.171	15980.13
612.367	16049.76
612.562	16014.94
612.758	15771.24
612.953	15568.49
613.149	15914.59
613.344	15625.83
613.539	16029.28
613.735	15674.98
613.93	15640.17
614.126	15607.4
614.321	15722.09
614.517	15525.48
614.712	15660.65
614.907	15556.2
615.103	15445.61
615.298	15296.11
615.493	15302.25
615.688	15240.81
615.884	15627.88
616.079	15033.97
616.274	15341.16
616.47	15093.36
616.665	15443.56
616.86	15199.85
617.055	15038.06
617.25	15099.5
617.445	15083.12
617.641	14777.97
617.836	14939.76
618.031	14755.44
618.226	14972.53
618.421	14855.79
618.616	14685.81
618.811	14521.98
619.006	14829.17
619.201	14558.84
619.396	14351.99
619.591	14474.87
619.786	14593.65
619.981	14231.16
620.176	14444.15
620.371	14263.93
620.566	13919.87
620.761	13915.78
620.956	14311.03
621.151	13768.32
621.346	14067.33
621.541	13739.65
621.735	13616.77
621.93	13461.13
622.125	13459.08
622.32	13274.76
622.515	13450.89
622.709	13198.99
622.904	13350.54
623.099	13188.75
623.294	13475.46
623.488	12957.33
623.683	13145.74
623.878	13174.41
624.072	12949.14
624.267	12904.08
624.462	12758.67
624.656	12361.37
624.851	12695.19
625.046	12648.08
625.24	12424.86
625.435	12396.18
625.629	12449.43
625.824	12357.27
626.018	12412.57
626.213	11947.68
626.407	12314.27
626.602	12056.22
626.796	12226.2
626.991	11810.47
627.185	11955.87
627.38	11845.28
627.574	11794.08
627.768	11720.35
627.963	11533.99
628.157	11470.5
628.352	11585.19
628.546	11206.31
628.74	11556.52
628.935	11048.62
629.129	11226.79
629.323	10813.1
629.517	10978.99
629.712	10927.79
629.906	11222.7
630.1	10942.13
630.294	11089.58
630.489	11007.66
630.683	10720.95
630.877	10610.36
631.071	10573.49
631.265	10770.1
631.459	10522.29
631.653	10501.81
631.848	10493.62
632.042	10348.22
632.236	10620.6
632.43	10378.93
632.624	10292.92
632.818	10059.45
633.012	10077.88
633.206	10047.16
633.4	10045.12
633.594	9930.43
633.788	9883.33
633.982	9881.28
634.176	9764.54
634.369	9787.07
634.563	9879.23
634.757	9676.48
634.951	9436.87
635.145	9576.13
635.339	9504.45
635.533	9389.77
635.726	9588.42
635.92	9299.66
636.114	9217.74
636.308	9230.02
636.501	9275.08
636.695	9223.88
636.889	9060.04
637.083	9051.85
637.276	8965.84
637.47	8953.55
637.664	8998.6
637.857	8949.45
638.051	8672.98
638.244	8591.06
638.438	8830.67
638.632	8693.46
638.825	8546
639.019	8302.29
639.212	8435.41
639.406	8492.76
639.599	8382.17
639.793	8416.98
639.986	8167.13
640.18	8277.72
640.373	8165.08
640.567	8214.23
640.76	8029.91
640.954	7986.91
641.147	7964.38
641.34	8105.69
641.534	7915.23
641.727	7956.19
641.92	7804.64
642.114	7726.82
642.307	7694.05
642.5	7614.18
642.694	7651.04
642.887	7534.31
643.08	7573.22
643.273	7622.37
643.467	7616.23
643.66	7210.73
643.853	7210.73
644.046	7192.3
644.239	7147.24
644.432	7270.12
644.626	7229.16
644.819	7053.03
645.012	7272.17
645.205	7030.51
645.398	7151.34
645.591	6956.78
645.784	7028.46
645.977	6864.62
646.17	6807.28
646.363	6905.58
646.556	6682.35
646.749	6825.71
646.942	6805.23
647.135	6762.22
647.328	6643.44
647.521	6592.24
647.714	6373.11
647.907	6700.78
648.099	6586.1
648.292	6430.45
648.485	6493.94
648.678	6516.47
648.871	6358.77
649.064	6420.21
649.256	6330.1
649.449	6313.72
649.642	6108.92
649.835	6141.69
650.027	6205.17
650.22	6135.54
650.413	6153.98
650.605	6172.41
650.798	6055.67
650.991	6084.34
651.183	6063.86
651.376	5814.01
651.568	6018.81
651.761	5840.64
651.954	5844.73
652.146	5840.64
652.339	5922.55
652.531	5914.36
652.724	5773.05
652.916	5611.26
653.109	5517.06
653.301	5623.55
653.494	5762.81
653.686	5517.06
653.879	5664.51
654.071	5545.73
654.263	5568.26
654.456	5562.11
654.648	5621.5
654.84	5302.02
655.033	5359.36
655.225	5363.46
655.417	5240.58
655.61	5236.49
655.802	5312.26
655.994	5232.39
656.186	5246.73
656.379	5218.05
656.571	5287.68
656.763	5115.66
656.955	4990.73
657.148	5084.94
657.34	5150.47
657.532	5066.5
657.724	5007.11
657.916	5011.21
658.108	5017.35
658.3	4927.24
658.492	4988.68
658.684	4962.06
658.876	4767.5
659.068	4818.7
659.26	4730.64
659.452	4812.56
659.644	4747.02
659.836	4859.66
660.028	4751.12
660.22	4665.1
660.412	4718.35
660.604	4615.95
660.796	4577.04
660.988	4667.15
661.18	4497.17
661.372	4546.32
661.563	4620.05
661.755	4628.24
661.947	4515.6
662.139	4452.11
662.331	4390.67
662.522	4286.23
662.714	4484.88
662.906	4335.38
663.097	4345.62
663.289	4417.3
663.481	4359.95
663.673	4271.89
663.864	4280.08
664.056	4275.99
664.247	4251.41
664.439	4253.46
664.631	4218.64
664.822	4200.21
665.014	4202.26
665.205	4179.73
665.397	4273.94
665.588	4206.36
665.78	4079.38
665.971	4194.07
666.163	4108.05
666.354	4015.9
666.546	4069.14
666.737	3997.46
666.929	3888.92
667.12	4058.9
667.311	4048.66
667.503	4011.8
667.694	3940.12
667.885	4007.7
668.077	4024.09
668.268	3802.91
668.459	4005.66
668.651	3931.93
668.842	3909.4
669.033	3991.32
669.224	3772.19
669.416	3872.54
669.607	3841.82
669.798	3850.01
669.989	3835.67
670.18	3800.86
670.371	3974.94
670.563	3909.4
670.754	3751.71
670.945	3720.99
671.136	3751.71
671.327	3819.29
671.518	3759.9
671.709	3880.73
671.9	3831.58
672.091	3919.64
672.282	3704.6
672.473	3768.09
672.664	3729.18
672.855	3655.45
673.046	3837.72
673.237	3733.28
673.428	3710.75
673.619	3673.89
673.809	3555.1
674	3694.36
674.191	3620.64
674.382	3669.79
674.573	3774.24
674.764	3667.74
674.954	3813.15
675.145	3671.84
675.336	3598.11
675.527	3604.25
675.717	3731.23
675.908	3618.59
676.099	3692.32
676.289	3688.22
676.48	3510.05
676.671	3620.64
676.861	3688.22
677.052	3573.53
677.243	3604.25
677.433	3677.98
677.624	3634.97
677.814	3733.28
678.005	3620.64
678.195	3583.77
678.386	3589.92
678.576	3561.25
678.767	3516.19
678.957	3671.84
679.148	3723.04
679.338	3761.95
679.529	3682.08
679.719	3641.12
679.909	3637.02
680.1	3626.78
680.29	3716.89
680.481	3587.87
680.671	3753.76
680.861	3618.59
681.052	3645.21
681.242	3516.19
681.432	3634.97
681.622	3561.25
681.813	3587.87
682.003	3794.72
682.193	3610.4
682.383	3677.98
682.573	3598.11
682.764	3510.05
682.954	3741.47
683.144	3583.77
683.334	3626.78
683.524	3729.18
683.714	3729.18
683.904	3712.8
684.094	3653.41
684.284	3569.44
684.474	3860.25
684.664	3755.8
684.854	3598.11
685.044	3585.82
685.234	3600.16
685.424	3723.04
685.614	3591.97
685.804	3505.95
685.994	3594.01
686.184	3555.1
686.374	3522.34
686.564	3620.64
686.753	3540.77
686.943	3462.94
687.133	3596.06
687.323	3479.33
687.513	3446.56
687.702	3464.99
687.892	3436.32
688.082	3444.51
688.272	3508
688.461	3446.56
688.651	3510.05
688.841	3407.65
689.03	3495.71
689.22	3428.13
689.41	3362.59
689.599	3311.39
689.789	3356.45
689.979	3456.8
690.168	3274.53
690.358	3325.73
690.547	3354.4
690.737	3317.54
690.926	3321.63
691.116	3270.44
691.305	3413.79
691.495	3243.81
691.684	3223.33
691.874	3280.68
692.063	3198.76
692.252	3237.67
692.442	3200.8
692.631	3131.17
692.82	3108.65
693.01	3186.47
693.199	3084.07
693.388	3151.65
693.578	3096.36
693.767	2985.77
693.956	3143.46
694.146	3053.35
694.335	2993.96
694.524	3260.2
694.713	3127.08
694.902	3108.65
695.092	3094.31
695.281	2942.76
695.47	3088.17
695.659	2940.71
695.848	3014.44
696.037	3125.03
696.226	3039.01
696.415	2942.76
696.604	3014.44
696.793	3004.2
696.982	2858.79
697.171	2926.38
697.36	3022.63
697.549	2950.95
697.738	2938.66
697.927	2875.18
698.116	2961.19
698.305	3059.49
698.494	2955.05
698.683	2957.1
698.872	3004.2
699.061	2961.19
699.25	2924.33
699.438	2957.1
699.627	2991.91
699.816	3122.98
700.005	2928.42
700.193	2899.75
700.382	3067.69
700.571	2946.86
700.76	3120.93
700.948	3022.63
701.137	2895.66
701.326	2907.94
701.514	2961.19
701.703	2909.99
701.892	2948.9
702.08	2903.85
702.269	3024.68
702.457	2881.32
702.646	2940.71
702.834	2971.43
703.023	2987.82
703.212	3041.06
703.4	3026.73
703.589	3055.4
703.777	3006.25
703.965	2948.9
704.154	3077.93
704.342	3129.13
704.531	2936.62
704.719	3067.69
704.907	2973.48
705.096	2991.91
705.284	3135.27
705.472	2953
705.661	3055.4
705.849	2924.33
706.037	3008.3
706.226	3061.54
706.414	2991.91
706.602	3163.94
706.79	3059.49
706.979	3061.54
707.167	3110.69
707.355	3176.23
707.543	3067.69
707.731	3153.7
707.919	3055.4
708.107	2993.96
708.296	3045.16
708.484	3008.3
708.672	3071.78
708.86	3235.62
709.048	3073.83
709.236	2918.18
709.424	3196.71
709.612	3137.32
709.8	3108.65
709.988	3098.41
710.176	3118.89
710.364	3151.65
710.551	3182.37
710.739	3192.61
710.927	3114.79
711.115	3186.47
711.303	3202.85
711.491	3079.97
711.679	3125.03
711.866	3284.77
712.054	3264.29
712.242	3168.04
712.43	3227.43
712.617	3163.94
712.805	3147.56
712.993	3129.13
713.181	3264.29
713.368	3219.24
713.556	3172.13
713.744	3135.27
713.931	3247.91
714.119	3219.24
714.306	3170.08
714.494	3329.83
714.682	3366.69
714.869	3088.17
715.057	3241.76
715.244	3163.94
715.432	3305.25
715.619	3133.22
715.807	3282.72
715.994	3198.76
716.182	3303.2
716.369	3247.91
716.556	3327.78
716.744	3385.12
716.931	3360.55
717.119	3284.77
717.306	3268.39
717.493	3260.2
717.681	3401.51
717.868	3378.98
718.055	3383.07
718.242	3376.93
718.43	3487.52
718.617	3421.99
718.804	3270.44
718.991	3407.65
719.179	3346.21
719.366	3344.16
719.553	3391.27
719.74	3305.25
719.927	3368.74
720.114	3329.83
720.301	3368.74
720.488	3403.55
720.676	3385.12
720.863	3424.03
721.05	3454.75
721.237	3442.46
721.424	3493.66
721.611	3401.51
721.798	3508
721.985	3491.62
722.172	3350.31
722.358	3540.77
722.545	3512.1
722.732	3579.68
722.919	3534.62
723.106	3505.95
723.293	3419.94
723.48	3522.34
723.667	3426.08
723.853	3626.78
724.04	3528.48
724.227	3540.77
724.414	3469.09
724.6	3442.46
724.787	3471.14
724.974	3536.67
725.161	3606.3
725.347	3421.99
725.534	3645.21
725.72	3589.92
725.907	3508
726.094	3587.87
726.28	3362.59
726.467	3503.9
726.653	3645.21
726.84	3766.04
727.027	3710.75
727.213	3567.39
727.4	3723.04
727.586	3618.59
727.773	3655.45
727.959	3546.91
728.145	3565.34
728.332	3600.16
728.518	3639.07
728.705	3587.87
728.891	3647.26
729.077	3807
729.264	3675.93
729.45	3594.01
729.636	3677.98
729.823	3671.84
730.009	3616.54
730.195	3735.32
730.382	3682.08
730.568	3749.66
730.754	3665.69
730.94	3741.47
731.126	3612.45
731.313	3720.99
731.499	3694.36
731.685	3700.51
731.871	3712.8
732.057	3741.47
732.243	3876.63
732.429	3659.55
732.615	3772.19
732.801	3727.13
732.987	3639.07
733.173	3655.45
733.359	3718.94
733.545	3729.18
733.731	3632.93
733.917	3788.57
734.103	3716.89
734.289	3596.06
734.475	3800.86
734.661	3731.23
734.847	3735.32
735.033	3850.01
735.219	3743.52
735.404	3671.84
735.59	3688.22
735.776	3696.41
735.962	3733.28
736.148	3718.94
736.333	3727.13
736.519	3694.36
736.705	3677.98
736.89	3553.06
737.076	3729.18
737.262	3608.35
737.447	3815.2
737.633	3698.46
737.819	3839.77
738.004	3761.95
738.19	3741.47
738.375	3657.5
738.561	3778.33
738.747	3745.56
738.932	3538.72
739.118	3811.1
739.303	3669.79
739.489	3759.9
739.674	3591.97
739.859	3612.45
740.045	3653.41
740.23	3667.74
740.416	3579.68
740.601	3733.28
740.786	3540.77
740.972	3608.35
741.157	3548.96
741.342	3534.62
741.528	3694.36
741.713	3518.24
741.898	3565.34
742.084	3643.17
742.269	3598.11
742.454	3522.34
742.639	3637.02
742.824	3589.92
743.01	3571.49
743.195	3542.82
743.38	3473.18
743.565	3454.75
743.75	3419.94
743.935	3477.28
744.12	3499.81
744.305	3391.27
744.49	3383.07
744.675	3378.98
744.86	3424.03
745.045	3213.09
745.23	3434.27
745.415	3415.84
745.6	3389.22
745.785	3303.2
745.97	3428.13
746.155	3358.5
746.34	3387.17
746.525	3192.61
746.71	3262.24
746.895	3221.28
747.079	3143.46
747.264	2996.01
747.449	3290.92
747.634	3153.7
747.819	3149.61
748.003	3090.21
748.188	3178.28
748.373	3067.69
748.557	3231.52
748.742	3034.92
748.927	3077.93
749.111	3008.3
749.296	2965.29
749.481	3039.01
749.665	3057.45
749.85	2963.24
750.034	3045.16
750.219	2850.6
750.404	2774.83
750.588	2866.99
750.773	2881.32
750.957	2842.41
751.141	2907.94
751.326	2891.56
751.51	2819.88
751.695	2795.31
751.879	2795.31
752.064	2828.07
752.248	2748.2
752.432	2748.2
752.617	2713.39
752.801	2656.04
752.985	2643.76
753.17	2684.72
753.354	2760.49
753.538	2596.65
753.722	2639.66
753.907	2729.77
754.091	2549.55
754.275	2516.78
754.459	2441.01
754.643	2393.9
754.828	2430.77
755.012	2490.16
755.196	2357.04
755.38	2385.71
755.564	2354.99
755.748	2273.07
755.932	2357.04
756.116	2375.47
756.3	2273.07
756.484	2295.6
756.668	2393.9
756.852	2305.84
757.036	2217.78
757.22	2240.31
757.404	2191.16
757.588	2283.31
757.772	2154.29
757.956	2209.59
758.14	2289.46
758.323	2156.34
758.507	2217.78
758.691	2086.71
758.875	2244.4
759.059	2166.58
759.242	2146.1
759.426	2070.33
759.61	2127.67
759.794	2055.99
759.977	2166.58
760.161	2084.66
760.345	2045.75
760.528	2088.76
760.712	2015.03
760.895	1906.49
761.079	1969.98
761.263	1912.63
761.446	2021.17
761.63	1992.5
761.813	1935.16
761.997	1863.48
762.18	1986.36
762.364	1924.92
762.547	1791.8
762.731	1865.53
762.914	1857.34
763.098	1857.34
763.281	1863.48
763.464	1898.3
763.648	1926.97
763.831	1828.67
764.015	1814.33
764.198	1812.28
764.381	1802.04
764.564	1888.06
764.748	1814.33
764.931	1771.32
765.114	1777.47
765.297	1740.6
765.481	1789.75
765.664	1732.41
765.847	1806.14
766.03	1761.08
766.213	1709.88
766.397	1722.17
766.58	1670.97
766.763	1627.96
766.946	1685.31
767.129	1711.93
767.312	1599.29
767.495	1650.49
767.678	1685.31
767.861	1711.93
768.044	1593.15
768.227	1519.42
768.41	1597.24
768.593	1638.2
768.776	1673.02
768.959	1556.29
769.142	1578.81
769.324	1498.94
769.507	1564.48
769.69	1550.14
769.873	1496.89
770.056	1574.72
770.239	1546.05
770.421	1566.53
770.604	1619.77
770.787	1449.79
770.97	1466.17
771.152	1392.45
771.335	1425.22
771.518	1484.61
771.7	1507.13
771.883	1544
772.066	1537.85
772.248	1482.56
772.431	1560.38
772.613	1453.89
772.796	1451.84
772.978	1449.79
773.161	1365.82
773.343	1361.73
773.526	1384.26
773.708	1363.78
773.891	1230.66
774.073	1410.88
774.256	1331.01
774.438	1382.21
774.621	1294.15
774.803	1363.78
774.985	1312.58
775.168	1300.29
775.35	1269.57
775.532	1267.52
775.715	1251.14
775.897	1363.78
776.079	1238.85
776.261	1294.15
776.444	1181.51
776.626	1345.34
776.808	1187.65
776.99	1111.88
777.173	1132.36
777.355	1093.44
777.537	1156.93
777.719	1179.46
777.901	1230.66
778.083	1140.55
778.265	1068.87
778.447	1154.88
778.629	1161.03
778.811	1118.02
778.993	1032.01
779.175	1111.88
779.357	1120.07
779.539	1046.34
779.721	1083.2
779.903	1093.44
780.085	945.99
780.267	1017.67
780.449	968.52
780.631	921.42
780.812	1040.2
780.994	945.99
781.176	976.71
781.358	941.89
781.54	927.56
781.721	991.05
781.903	976.71
782.085	853.83
782.267	862.02
782.448	902.98
782.63	857.93
782.812	894.79
782.993	896.84
783.175	900.94
783.357	874.31
783.538	933.7
783.72	794.44
783.901	827.21
784.083	862.02
784.264	829.26
784.446	831.3
784.627	823.11
784.809	823.11
784.99	810.82
785.172	786.25
785.353	825.16
785.535	827.21
785.716	800.59
785.897	794.44
786.079	778.06
786.26	798.54
786.441	788.3
786.623	726.86
786.804	708.43
786.985	763.72
787.167	737.1
787.348	745.29
787.529	722.76
787.71	679.75
787.891	704.33
788.073	673.61
788.254	642.89
788.435	702.28
788.616	751.43
788.797	601.93
788.978	702.28
789.159	614.22
789.34	661.32
789.522	622.41
789.703	651.08
789.884	663.37
790.065	663.37
790.246	718.67
790.427	603.98
790.607	612.17
790.788	663.37
790.969	683.85
791.15	677.71
791.331	644.94
791.512	603.98
791.693	603.98
791.874	565.07
792.054	593.74
792.235	659.28
792.416	571.21
792.597	534.35
792.778	593.74
792.958	663.37
793.139	626.51
793.32	534.35
793.5	509.77
793.681	560.97
793.862	513.87
794.042	554.83
794.223	458.57
794.404	517.97
794.584	501.58
794.765	415.57
794.945	511.82
795.126	534.35
795.306	524.11
795.487	499.53
795.667	509.77
795.848	661.32
796.028	444.24
796.209	511.82
796.389	546.64
796.57	493.39
796.75	470.86
796.93	468.81
797.111	515.92
797.291	522.06
797.471	517.97
797.652	448.33
797.832	384.85
798.012	464.72
798.192	429.9
798.373	362.32
798.553	454.48
798.733	458.57
798.913	448.33
799.093	522.06
799.274	425.81
799.454	479.05
799.634	442.19
799.814	382.8
799.994	462.67
800.174	436.05
800.354	419.66
800.534	325.46
800.714	450.38
800.894	382.8
801.074	442.19
801.254	423.76
801.434	376.66
801.614	386.9
801.794	386.9
801.974	1087.3
802.154	339.79
802.334	423.76
802.514	436.05
802.693	395.09
802.873	421.71
803.053	354.13
803.233	376.66
803.413	352.08
803.592	274.26
803.772	319.31
803.952	401.23
804.131	276.31
804.311	423.76
804.491	370.51
804.67	374.61
804.85	374.61
805.03	323.41
805.209	384.85
805.389	372.56
805.568	278.35
805.748	329.55
805.928	370.51
806.107	393.04
806.287	360.27
806.466	395.09
806.646	395.09
806.825	302.93
807.004	350.03
807.184	390.99
807.363	309.07
807.543	364.37
807.722	335.7
807.901	425.81
808.081	311.12
808.26	307.02
808.439	384.85
808.619	364.37
808.798	317.26
808.977	335.7
809.156	231.25
809.336	243.54
809.515	337.74
809.694	194.39
809.873	304.98
810.052	393.04
810.231	302.93
810.411	296.78
810.59	343.89
810.769	319.31
810.948	313.17
811.127	231.25
811.306	255.83
811.485	214.87
811.664	339.79
811.843	288.59
812.022	264.02
812.201	284.5
812.38	266.07
812.559	255.83
812.737	307.02
812.916	251.73
813.095	206.67
813.274	292.69
813.453	231.25
813.632	294.74
813.811	296.78
813.989	210.77
814.168	282.45
814.347	233.3
814.526	266.07
814.704	313.17
814.883	251.73
815.062	225.11
815.24	241.49
815.419	212.82
815.598	335.7
815.776	204.63
815.955	237.39
816.133	214.87
816.312	237.39
816.49	302.93
816.669	264.02
816.847	274.26
817.026	182.1
817.204	173.91
817.383	264.02
817.561	178
817.74	255.83
817.918	302.93
818.097	247.63
818.275	253.78
818.453	264.02
818.632	245.59
818.81	200.53
818.988	223.06
819.167	266.07
819.345	200.53
819.523	196.43
819.701	231.25
819.879	221.01
820.058	266.07
820.236	218.96
820.414	315.22
820.592	155.47
820.77	135
820.948	202.58
821.127	196.43
821.305	182.1
821.483	173.91
821.661	147.28
821.839	198.48
822.017	237.39
822.195	180.05
822.373	231.25
822.551	251.73
822.729	241.49
822.907	190.29
823.085	188.24
823.262	206.67
823.44	225.11
823.618	180.05
823.796	145.24
823.974	182.1
824.152	161.62
824.329	268.11
824.507	190.29
824.685	161.62
824.863	231.25
825.04	204.63
825.218	159.57
825.396	130.9
825.574	137.04
825.751	182.1
825.929	239.44
826.107	46.93
826.284	229.2
826.462	194.39
826.639	118.61
826.817	128.85
826.994	135
827.172	175.95
827.349	229.2
827.527	143.19
827.704	132.95
827.882	159.57
828.059	216.91
828.237	212.82
828.414	208.72
828.591	118.61
828.769	100.18
828.946	184.15
829.124	188.24
829.301	204.63
829.478	178
829.655	87.89
829.833	182.1
830.01	171.86
830.187	180.05
830.364	96.08
830.542	112.47
830.719	206.67
830.896	147.28
831.073	149.33
831.25	157.52
831.427	163.67
831.604	145.24
831.782	147.28
831.959	135
832.136	163.67
832.313	132.95
832.49	114.52
832.667	161.62
832.844	110.42
833.021	137.04
833.198	157.52
833.374	114.52
833.551	126.8
833.728	128.85
833.905	165.71
834.082	102.23
834.259	163.67
834.436	182.1
834.612	89.94
834.789	118.61
834.966	141.14
835.143	108.37
835.319	137.04
835.496	157.52
835.673	118.61
835.85	120.66
836.026	151.38
836.203	96.08
836.38	91.99
836.556	63.32
836.733	139.09
836.909	200.53
837.086	89.94
837.262	100.18
837.439	139.09
837.616	108.37
837.792	147.28
837.968	167.76
838.145	155.47
838.321	110.42
838.498	169.81
838.674	145.24
838.851	67.41
839.027	75.6
839.203	114.52
839.38	149.33
839.556	53.08
839.732	116.56
839.909	73.56
840.085	132.95
840.261	102.23
840.437	106.32
840.614	126.8
840.79	100.18
840.966	163.67
841.142	44.88
841.318	42.84
841.494	110.42
841.671	98.13
841.847	120.66
842.023	139.09
842.199	143.19
842.375	161.62
842.551	40.79
842.727	65.36
842.903	141.14
843.079	51.03
843.255	120.66
843.431	143.19
843.607	51.03
843.783	36.69
843.959	98.13
844.134	34.64
844.31	157.52
844.486	89.94
844.662	71.51
844.838	63.32
845.013	104.28
845.189	87.89
845.365	130.9
845.541	135
845.716	149.33
845.892	108.37
846.068	69.46
846.244	77.65
846.419	91.99
846.595	42.84
846.77	57.17
846.946	81.75
847.122	165.71
847.297	59.22
847.473	98.13
847.648	53.08
847.824	132.95
847.999	32.6
848.175	139.09
848.35	141.14
848.526	132.95
848.701	130.9
848.876	104.28
849.052	81.75
849.227	75.6
849.403	20.31
849.578	61.27
849.753	141.14
849.929	87.89
850.104	51.03
850.279	110.42
850.454	83.8
850.63	77.65
850.805	116.56
850.98	81.75
851.155	69.46
851.33	38.74
851.505	71.51
851.681	77.65
851.856	77.65
852.031	67.41
852.206	91.99
852.381	26.45
852.556	51.03
852.731	108.37
852.906	108.37
853.081	116.56
853.256	38.74
853.431	159.57
853.606	22.36
853.781	65.36
853.956	28.5
854.131	118.61
854.305	46.93
854.48	8.02
854.655	48.98
854.83	-20.65
855.005	-26.79
855.18	26.45
855.354	22.36
855.529	73.56
855.704	69.46
855.879	91.99
856.053	-16.55
856.228	46.93
856.403	-14.51
856.577	42.84
856.752	16.21
856.926	24.4
857.101	59.22
857.276	3.93
857.45	61.27
857.625	59.22
857.799	85.84
857.974	-4.27
858.148	-43.18
858.323	53.08
858.497	42.84
858.672	85.84
858.846	3.93
859.02	38.74
859.195	34.64
859.369	42.84
859.543	69.46
859.718	20.31
859.892	-10.41
860.066	18.26
860.241	-32.94
860.415	14.17
860.589	-14.51
860.763	53.08
860.938	-12.46
861.112	44.88
861.286	-24.75
861.46	79.7
861.634	87.89
861.808	114.52
861.982	-4.27
862.157	30.55
862.331	100.18
862.505	-12.46
862.679	57.17
862.853	-24.75
863.027	42.84
863.201	184.15
863.375	26.45
863.549	104.28
863.722	75.6
863.896	69.46
864.07	-22.7
864.244	81.75
864.418	67.41
864.592	48.98
864.766	34.64
864.939	46.93
865.113	20.31
865.287	55.12
865.461	-2.22
865.634	63.32
865.808	46.93
865.982	59.22
866.156	46.93
866.329	32.6
866.503	40.79
866.676	-8.36
866.85	-4.27
867.024	5.97
867.197	85.84
867.371	57.17
867.544	42.84
867.718	-6.31
867.891	22.36
868.065	32.6
868.238	14.17
868.412	22.36
868.585	77.65
868.759	18.26
868.932	32.6
869.105	38.74
869.279	18.26
869.452	36.69
869.625	85.84
869.799	96.08
869.972	-16.55
870.145	-2.22
870.319	38.74
870.492	-24.75
870.665	30.55
870.838	12.12
871.011	-32.94
871.185	18.26
871.358	22.36
871.531	91.99
871.704	-30.89
871.877	57.17
872.05	63.32
872.223	1.88
872.396	20.31
872.569	108.37
872.742	26.45
872.915	10.07
873.088	-8.36
873.261	48.98
873.434	34.64
873.607	38.74
873.78	55.12
873.953	-43.18
874.126	8.02
874.299	28.5
874.471	30.55
874.644	22.36
874.817	94.04
874.99	42.84
875.163	55.12
875.335	110.42
875.508	3.93
875.681	63.32
875.853	-32.94
876.026	96.08
876.199	65.36
876.371	69.46
876.544	40.79
876.717	32.6
876.889	57.17
877.062	40.79
877.234	40.79
877.407	12.12
877.579	34.64
877.752	69.46
877.924	12.12
878.097	18.26
878.269	36.69
878.442	61.27
878.614	-6.31
878.786	12.12
878.959	57.17
879.131	-18.6
879.303	-16.55
879.476	98.13
879.648	73.56
879.82	34.64
879.993	36.69
880.165	26.45
880.337	73.56
880.509	34.64
880.681	53.08
880.854	1.88
881.026	96.08
881.198	94.04
881.37	36.69
881.542	22.36
881.714	55.12
881.886	108.37
882.058	24.4
882.23	87.89
882.402	26.45
882.574	71.51
882.746	-45.23
882.918	98.13
883.09	16.21
883.262	26.45
883.434	1.88
883.606	-82.09
883.778	77.65
883.95	124.76
884.122	-57.51
884.293	59.22
884.465	16.21
884.637	57.17
884.809	1.88
884.98	38.74
885.152	65.36
885.324	75.6
885.496	14.17
885.667	3.93
885.839	-0.17
886.011	42.84
886.182	63.32
886.354	24.4
886.525	-34.99
886.697	42.84
886.869	-32.94
887.04	24.4
887.212	30.55
887.383	53.08
887.555	51.03
887.726	30.55
887.897	-30.89
888.069	38.74
888.24	77.65
888.412	-0.17
888.583	30.55
888.754	87.89
888.926	-55.47
889.097	71.51
889.268	69.46
889.44	8.02
889.611	-88.23
889.782	10.07
889.953	20.31
890.125	100.18
890.296	-18.6
890.467	-24.75
890.638	-45.23
890.809	-8.36
890.98	-28.84
891.151	5.97
891.323	69.46
891.494	38.74
891.665	-16.55
891.836	34.64
892.007	-26.79
892.178	22.36
892.349	1.88
892.52	-37.03
892.691	10.07
892.862	12.12
893.032	-82.09
893.203	16.21
893.374	-20.65
893.545	32.6
893.716	-88.23
893.887	44.88
894.057	51.03
894.228	-26.79
894.399	24.4
894.57	30.55
894.74	53.08
894.911	-20.65
895.082	53.08
895.253	-51.37
895.423	16.21
895.594	71.51
895.764	-4.27
895.935	-16.55
896.106	55.12
896.276	-39.08
896.447	48.98
896.617	32.6
896.788	22.36
896.958	-6.31
897.129	63.32
897.299	34.64
897.47	108.37
897.64	26.45
897.81	-10.41
897.981	-6.31
898.151	-12.46
898.322	-0.17
898.492	46.93
898.662	51.03
898.832	36.69
899.003	42.84
899.173	120.66
899.343	3.93
899.513	46.93
