Data from USB4F104151__54__12-24-05-213.txt Node

Date: Fri Mar 14 12:24:05 EDT 2025
User: louis
Spectrometer: USB4F10415
Trigger mode: 4
Integration Time (sec): 3.500000E-2
Scans to average: 1
Electric dark correction enabled: true
Nonlinearity correction enabled: false
Boxcar width: 0
XAxis mode: Wavelengths
Number of Pixels in Spectrum: 3648
>>>>>Begin Spectral Data<<<<<
178.204	-183.63
178.424	-183.63
178.644	-183.63
178.864	-148.82
179.084	-175.44
179.304	12.97
179.524	-89.43
179.744	-3.41
179.964	17.07
180.184	15.02
180.404	51.88
180.624	41.64
180.844	-11.61
181.064	-34.13
181.283	27.31
181.503	-5.46
181.723	-21.85
181.943	-62.8
182.163	154.28
182.383	35.5
182.602	25.26
182.822	15.02
183.042	41.64
183.262	27.31
183.482	17.07
183.701	0.68
183.921	-5.46
184.141	17.07
184.361	31.4
184.58	37.55
184.8	-3.41
185.02	86.7
185.239	51.88
185.459	53.93
185.679	90.79
185.898	-40.28
186.118	25.26
186.338	4.78
186.557	90.79
186.777	8.87
186.997	-17.75
187.216	-7.51
187.436	84.65
187.655	35.5
187.875	41.64
188.095	41.64
188.314	4.78
188.534	166.57
188.753	19.11
188.973	98.99
189.192	49.83
189.412	31.4
189.631	58.03
189.851	0.68
190.07	94.89
190.29	45.74
190.509	31.4
190.729	-75.09
190.948	37.55
191.168	141.99
191.387	66.22
191.607	60.07
191.826	53.93
192.045	17.07
192.265	6.83
192.484	-56.66
192.704	19.11
192.923	10.92
193.142	72.36
193.362	96.94
193.581	113.32
193.8	51.88
194.02	62.12
194.239	23.21
194.458	49.83
194.678	39.59
194.897	49.83
195.116	17.07
195.335	-13.65
195.555	72.36
195.774	-60.76
195.993	19.11
196.212	-27.99
196.432	39.59
196.651	-19.8
196.87	-21.85
197.089	29.35
197.308	41.64
197.528	37.55
197.747	37.55
197.966	-56.66
198.185	55.98
198.404	-21.85
198.623	-30.04
198.842	55.98
199.062	12.97
199.281	33.45
199.5	15.02
199.719	-38.23
199.938	-21.85
200.157	41.64
200.376	-23.89
200.595	33.45
200.814	45.74
201.033	-9.56
201.252	96.94
201.471	49.83
201.69	10.92
201.909	64.17
202.128	47.79
202.347	-1.37
202.566	86.7
202.785	-21.85
203.004	-1.37
203.223	141.99
203.442	27.31
203.661	-54.61
203.879	33.45
204.098	37.55
204.317	-15.7
204.536	25.26
204.755	29.35
204.974	21.16
205.193	-36.18
205.411	39.59
205.63	47.79
205.849	4.78
206.068	15.02
206.287	64.17
206.505	72.36
206.724	53.93
206.943	29.35
207.162	4.78
207.381	47.79
207.599	64.17
207.818	-52.56
208.037	-38.23
208.255	-27.99
208.474	-5.46
208.693	10.92
208.911	2.73
209.13	6.83
209.349	60.07
209.567	82.6
209.786	58.03
210.005	43.69
210.223	70.31
210.442	37.55
210.661	-3.41
210.879	8.87
211.098	8.87
211.316	17.07
211.535	4.78
211.753	68.27
211.972	29.35
212.191	23.21
212.409	53.93
212.628	25.26
212.846	-17.75
213.065	19.11
213.283	17.07
213.502	-40.28
213.72	39.59
213.938	88.75
214.157	113.32
214.375	-17.75
214.594	-17.75
214.812	-5.46
215.031	37.55
215.249	-7.51
215.467	92.84
215.686	-21.85
215.904	127.66
216.122	-71
216.341	76.46
216.559	49.83
216.778	-34.13
216.996	49.83
217.214	4.78
217.432	25.26
217.651	66.22
217.869	-13.65
218.087	29.35
218.306	-11.61
218.524	41.64
218.742	4.78
218.96	82.6
219.179	-25.94
219.397	90.79
219.615	23.21
219.833	6.83
220.051	27.31
220.27	41.64
220.488	80.55
220.706	0.68
220.924	72.36
221.142	-34.13
221.36	53.93
221.578	-11.61
221.796	25.26
222.015	-36.18
222.233	43.69
222.451	90.79
222.669	-25.94
222.887	43.69
223.105	2.73
223.323	-44.37
223.541	2.73
223.759	37.55
223.977	72.36
224.195	-25.94
224.413	156.33
224.631	70.31
224.849	53.93
225.067	92.84
225.285	43.69
225.503	107.18
225.721	-23.89
225.939	17.07
226.157	-15.7
226.375	121.51
226.592	-21.85
226.81	33.45
227.028	21.16
227.246	39.59
227.464	55.98
227.682	25.26
227.9	35.5
228.117	-9.56
228.335	-27.99
228.553	-21.85
228.771	10.92
228.989	84.65
229.206	12.97
229.424	6.83
229.642	-11.61
229.86	25.26
230.077	49.83
230.295	41.64
230.513	64.17
230.731	49.83
230.948	76.46
231.166	123.56
231.384	68.27
231.601	19.11
231.819	158.38
232.037	17.07
232.254	12.97
232.472	41.64
232.689	-9.56
232.907	113.32
233.125	-40.28
233.342	53.93
233.56	-32.08
233.777	-9.56
233.995	0.68
234.213	41.64
234.43	27.31
234.648	-34.13
234.865	6.83
235.083	68.27
235.3	76.46
235.518	-7.51
235.735	127.66
235.953	76.46
236.17	0.68
236.388	-27.99
236.605	-30.04
236.822	64.17
237.04	49.83
237.257	94.89
237.475	17.07
237.692	27.31
237.909	51.88
238.127	-60.76
238.344	-30.04
238.562	60.07
238.779	-30.04
238.996	-15.7
239.214	-5.46
239.431	41.64
239.648	-7.51
239.865	101.03
240.083	39.59
240.3	49.83
240.517	-3.41
240.735	21.16
240.952	78.51
241.169	58.03
241.386	-5.46
241.603	-11.61
241.821	29.35
242.038	25.26
242.255	-36.18
242.472	-36.18
242.689	62.12
242.907	41.64
243.124	23.21
243.341	4.78
243.558	-34.13
243.775	-11.61
243.992	-5.46
244.209	66.22
244.426	84.65
244.643	-23.89
244.86	-3.41
245.078	68.27
245.295	62.12
245.512	37.55
245.729	-30.04
245.946	-17.75
246.163	-25.94
246.38	27.31
246.597	80.55
246.814	-5.46
247.031	76.46
247.248	12.97
247.464	88.75
247.681	41.64
247.898	58.03
248.115	15.02
248.332	-21.85
248.549	37.55
248.766	111.27
248.983	62.12
249.2	27.31
249.417	109.22
249.633	-7.51
249.85	39.59
250.067	45.74
250.284	64.17
250.501	10.92
250.717	64.17
250.934	-81.24
251.151	12.97
251.368	-19.8
251.585	119.46
251.801	17.07
252.018	-3.41
252.235	-1.37
252.451	-17.75
252.668	21.16
252.885	88.75
253.102	74.41
253.318	27.31
253.535	15.02
253.752	-27.99
253.968	-13.65
254.185	-13.65
254.401	-23.89
254.618	-40.28
254.835	72.36
255.051	55.98
255.268	45.74
255.484	88.75
255.701	49.83
255.917	98.99
256.134	-62.8
256.351	0.68
256.567	-15.7
256.784	29.35
257	29.35
257.217	2.73
257.433	10.92
257.65	49.83
257.866	105.13
258.082	33.45
258.299	17.07
258.515	17.07
258.732	41.64
258.948	2.73
259.165	82.6
259.381	51.88
259.597	51.88
259.814	19.11
260.03	8.87
260.246	15.02
260.463	53.93
260.679	37.55
260.895	78.51
261.112	41.64
261.328	80.55
261.544	33.45
261.761	92.84
261.977	92.84
262.193	6.83
262.409	111.27
262.626	58.03
262.842	70.31
263.058	-42.32
263.274	58.03
263.49	10.92
263.707	15.02
263.923	27.31
264.139	-30.04
264.355	-19.8
264.571	35.5
264.787	-36.18
265.004	2.73
265.22	43.69
265.436	-1.37
265.652	-25.94
265.868	43.69
266.084	-21.85
266.3	31.4
266.516	80.55
266.732	19.11
266.948	43.69
267.164	-13.65
267.38	107.18
267.596	19.11
267.812	43.69
268.028	0.68
268.244	21.16
268.46	60.07
268.676	-15.7
268.892	8.87
269.108	-73.04
269.324	25.26
269.54	-36.18
269.756	-30.04
269.972	-42.32
270.188	25.26
270.403	-30.04
270.619	51.88
270.835	-17.75
271.051	66.22
271.267	27.31
271.483	-7.51
271.698	27.31
271.914	80.55
272.13	-5.46
272.346	-32.08
272.562	72.36
272.777	47.79
272.993	33.45
273.209	6.83
273.425	4.78
273.64	98.99
273.856	27.31
274.072	-54.61
274.287	53.93
274.503	82.6
274.719	84.65
274.934	-13.65
275.15	15.02
275.366	10.92
275.581	4.78
275.797	43.69
276.012	35.5
276.228	-5.46
276.444	-30.04
276.659	29.35
276.875	-109.91
277.09	47.79
277.306	-15.7
277.521	55.98
277.737	53.93
277.952	19.11
278.168	51.88
278.383	66.22
278.599	88.75
278.814	68.27
279.03	12.97
279.245	113.32
279.461	-1.37
279.676	51.88
279.892	-40.28
280.107	47.79
280.322	-46.42
280.538	15.02
280.753	-17.75
280.969	37.55
281.184	49.83
281.399	68.27
281.615	49.83
281.83	41.64
282.045	-30.04
282.26	55.98
282.476	-17.75
282.691	72.36
282.906	-5.46
283.122	78.51
283.337	51.88
283.552	76.46
283.767	15.02
283.983	76.46
284.198	58.03
284.413	-11.61
284.628	-109.91
284.843	2.73
285.058	45.74
285.274	-15.7
285.489	15.02
285.704	33.45
285.919	-27.99
286.134	-17.75
286.349	39.59
286.564	43.69
286.779	-15.7
286.995	21.16
287.21	2.73
287.425	92.84
287.64	15.02
287.855	133.8
288.07	-40.28
288.285	47.79
288.5	74.41
288.715	31.4
288.93	8.87
289.145	-7.51
289.36	68.27
289.575	94.89
289.79	62.12
290.004	68.27
290.219	88.75
290.434	-46.42
290.649	-17.75
290.864	68.27
291.079	-5.46
291.294	-11.61
291.509	35.5
291.724	47.79
291.938	6.83
292.153	12.97
292.368	0.68
292.583	27.31
292.798	41.64
293.012	33.45
293.227	-25.94
293.442	41.64
293.657	17.07
293.871	23.21
294.086	76.46
294.301	0.68
294.516	127.66
294.73	68.27
294.945	29.35
295.16	47.79
295.374	37.55
295.589	49.83
295.804	4.78
296.018	17.07
296.233	21.16
296.447	10.92
296.662	27.31
296.877	64.17
297.091	53.93
297.306	27.31
297.52	-44.37
297.735	58.03
297.949	-71
298.164	103.08
298.378	0.68
298.593	-32.08
298.807	-58.71
299.022	2.73
299.236	51.88
299.451	-38.23
299.665	-21.85
299.88	12.97
300.094	60.07
300.309	-5.46
300.523	29.35
300.737	62.12
300.952	103.08
301.166	70.31
301.381	76.46
301.595	2.73
301.809	-7.51
302.024	-15.7
302.238	-48.47
302.452	78.51
302.667	19.11
302.881	103.08
303.095	23.21
303.309	17.07
303.524	-66.9
303.738	10.92
303.952	17.07
304.166	-15.7
304.381	-36.18
304.595	10.92
304.809	2.73
305.023	25.26
305.237	80.55
305.452	23.21
305.666	78.51
305.88	76.46
306.094	23.21
306.308	-42.32
306.522	23.21
306.736	8.87
306.95	-23.89
307.164	-52.56
307.379	-11.61
307.593	55.98
307.807	72.36
308.021	23.21
308.235	10.92
308.449	-60.76
308.663	47.79
308.877	72.36
309.091	53.93
309.305	47.79
309.519	-68.95
309.733	43.69
309.947	2.73
310.161	98.99
310.374	31.4
310.588	33.45
310.802	-40.28
311.016	-25.94
311.23	53.93
311.444	0.68
311.658	-15.7
311.872	72.36
312.085	62.12
312.299	131.75
312.513	29.35
312.727	-11.61
312.941	33.45
313.154	-13.65
313.368	-11.61
313.582	19.11
313.796	55.98
314.009	-38.23
314.223	47.79
314.437	-46.42
314.651	58.03
314.864	-42.32
315.078	-17.75
315.292	-11.61
315.505	-32.08
315.719	37.55
315.933	58.03
316.146	76.46
316.36	27.31
316.573	86.7
316.787	33.45
317.001	51.88
317.214	-17.75
317.428	8.87
317.641	-62.8
317.855	25.26
318.068	8.87
318.282	17.07
318.495	82.6
318.709	98.99
318.922	29.35
319.136	94.89
319.349	37.55
319.563	12.97
319.776	27.31
319.99	64.17
320.203	39.59
320.417	94.89
320.63	64.17
320.843	88.75
321.057	23.21
321.27	47.79
321.483	8.87
321.697	68.27
321.91	-9.56
322.124	43.69
322.337	23.21
322.55	-17.75
322.763	35.5
322.977	-32.08
323.19	37.55
323.403	-9.56
323.617	90.79
323.83	33.45
324.043	-27.99
324.256	-13.65
324.469	53.93
324.683	78.51
324.896	47.79
325.109	12.97
325.322	-32.08
325.535	21.16
325.748	39.59
325.962	-11.61
326.175	45.74
326.388	82.6
326.601	49.83
326.814	29.35
327.027	58.03
327.24	-1.37
327.453	0.68
327.666	47.79
327.879	111.27
328.092	27.31
328.305	51.88
328.518	39.59
328.731	-5.46
328.944	31.4
329.157	-21.85
329.37	76.46
329.583	31.4
329.796	33.45
330.009	19.11
330.222	60.07
330.435	43.69
330.648	23.21
330.861	-13.65
331.073	55.98
331.286	72.36
331.499	39.59
331.712	33.45
331.925	55.98
332.138	21.16
332.35	10.92
332.563	-36.18
332.776	-32.08
332.989	43.69
333.202	33.45
333.414	88.75
333.627	-11.61
333.84	-3.41
334.053	25.26
334.265	41.64
334.478	62.12
334.691	10.92
334.903	-38.23
335.116	-30.04
335.329	-7.51
335.541	0.68
335.754	29.35
335.966	-7.51
336.179	10.92
336.392	88.75
336.604	39.59
336.817	70.31
337.029	78.51
337.242	6.83
337.454	96.94
337.667	-17.75
337.88	72.36
338.092	31.4
338.305	33.45
338.517	-68.95
338.729	64.17
338.942	29.35
339.154	-27.99
339.367	-42.32
339.579	88.75
339.792	23.21
340.004	39.59
340.217	27.31
340.429	74.41
340.641	17.07
340.854	-1.37
341.066	-32.08
341.278	49.83
341.491	107.18
341.703	-40.28
341.915	-23.89
342.128	8.87
342.34	43.69
342.552	-36.18
342.764	64.17
342.977	8.87
343.189	55.98
343.401	35.5
343.613	-54.61
343.826	43.69
344.038	4.78
344.25	10.92
344.462	6.83
344.674	39.59
344.886	-3.41
345.099	0.68
345.311	49.83
345.523	15.02
345.735	-3.41
345.947	62.12
346.159	15.02
346.371	-38.23
346.583	-23.89
346.795	123.56
347.007	0.68
347.219	43.69
347.431	-25.94
347.643	19.11
347.855	-56.66
348.067	70.31
348.279	-42.32
348.491	10.92
348.703	29.35
348.915	-13.65
349.127	12.97
349.339	51.88
349.551	-7.51
349.763	51.88
349.975	25.26
350.187	45.74
350.399	101.03
350.61	0.68
350.822	-60.76
351.034	80.55
351.246	-3.41
351.458	84.65
351.669	31.4
351.881	19.11
352.093	49.83
352.305	31.4
352.517	-9.56
352.728	49.83
352.94	29.35
353.152	35.5
353.363	25.26
353.575	51.88
353.787	88.75
353.999	-11.61
354.21	19.11
354.422	-73.04
354.633	35.5
354.845	76.46
355.057	41.64
355.268	-40.28
355.48	51.88
355.692	-3.41
355.903	-19.8
356.115	17.07
356.326	-52.56
356.538	96.94
356.749	-11.61
356.961	150.18
357.172	-62.8
357.384	8.87
357.595	115.37
357.807	4.78
358.018	-15.7
358.23	15.02
358.441	43.69
358.653	64.17
358.864	-17.75
359.075	49.83
359.287	35.5
359.498	29.35
359.709	-5.46
359.921	15.02
360.132	-7.51
360.344	-13.65
360.555	-11.61
360.766	25.26
360.977	70.31
361.189	164.52
361.4	53.93
361.611	45.74
361.823	60.07
362.034	-1.37
362.245	-9.56
362.456	29.35
362.667	80.55
362.879	15.02
363.09	64.17
363.301	19.11
363.512	33.45
363.723	-38.23
363.935	33.45
364.146	-32.08
364.357	-11.61
364.568	6.83
364.779	-5.46
364.99	49.83
365.201	43.69
365.412	21.16
365.623	-50.52
365.834	0.68
366.045	27.31
366.256	74.41
366.467	66.22
366.678	-50.52
366.889	-3.41
367.1	17.07
367.311	39.59
367.522	41.64
367.733	43.69
367.944	19.11
368.155	-5.46
368.366	70.31
368.577	82.6
368.788	45.74
368.999	8.87
369.209	43.69
369.42	98.99
369.631	80.55
369.842	0.68
370.053	4.78
370.264	115.37
370.474	35.5
370.685	23.21
370.896	51.88
371.107	4.78
371.317	148.14
371.528	25.26
371.739	49.83
371.95	17.07
372.16	72.36
372.371	-1.37
372.582	31.4
372.792	101.03
373.003	-3.41
373.214	-19.8
373.424	98.99
373.635	62.12
373.846	35.5
374.056	39.59
374.267	115.37
374.477	-13.65
374.688	-17.75
374.898	25.26
375.109	41.64
375.319	-32.08
375.53	84.65
375.74	105.13
375.951	8.87
376.161	53.93
376.372	29.35
376.582	68.27
376.793	92.84
377.003	101.03
377.214	58.03
377.424	8.87
377.635	109.22
377.845	78.51
378.055	178.86
378.266	72.36
378.476	-1.37
378.686	60.07
378.897	-21.85
379.107	107.18
379.317	-68.95
379.528	43.69
379.738	101.03
379.948	43.69
380.158	74.41
380.369	15.02
380.579	2.73
380.789	66.22
380.999	47.79
381.21	90.79
381.42	58.03
381.63	10.92
381.84	31.4
382.05	66.22
382.261	64.17
382.471	27.31
382.681	43.69
382.891	129.7
383.101	17.07
383.311	-9.56
383.521	-9.56
383.731	72.36
383.941	-3.41
384.151	53.93
384.361	19.11
384.571	41.64
384.781	74.41
384.991	88.75
385.201	72.36
385.411	-7.51
385.621	33.45
385.831	17.07
386.041	35.5
386.251	55.98
386.461	27.31
386.671	-1.37
386.881	4.78
387.091	43.69
387.301	27.31
387.511	92.84
387.72	84.65
387.93	25.26
388.14	25.26
388.35	47.79
388.56	58.03
388.769	68.27
388.979	31.4
389.189	49.83
389.399	-23.89
389.609	105.13
389.818	-46.42
390.028	2.73
390.238	66.22
390.447	29.35
390.657	-17.75
390.867	-15.7
391.076	-40.28
391.286	29.35
391.496	12.97
391.705	25.26
391.915	76.46
392.125	25.26
392.334	-38.23
392.544	82.6
392.753	70.31
392.963	-13.65
393.172	-1.37
393.382	-11.61
393.591	121.51
393.801	31.4
394.01	82.6
394.22	117.42
394.429	62.12
394.639	10.92
394.848	29.35
395.058	101.03
395.267	17.07
395.477	64.17
395.686	35.5
395.895	66.22
396.105	70.31
396.314	86.7
396.524	0.68
396.733	2.73
396.942	105.13
397.152	94.89
397.361	103.08
397.57	113.32
397.78	15.02
397.989	25.26
398.198	125.61
398.407	43.69
398.617	45.74
398.826	94.89
399.035	68.27
399.244	105.13
399.453	53.93
399.663	29.35
399.872	88.75
400.081	8.87
400.29	86.7
400.499	35.5
400.708	25.26
400.917	47.79
401.127	23.21
401.336	25.26
401.545	178.86
401.754	98.99
401.963	101.03
402.172	58.03
402.381	96.94
402.59	76.46
402.799	66.22
403.008	105.13
403.217	35.5
403.426	98.99
403.635	125.61
403.844	62.12
404.053	150.18
404.262	88.75
404.471	144.04
404.68	129.7
404.888	119.46
405.097	58.03
405.306	139.94
405.515	51.88
405.724	82.6
405.933	168.62
406.142	94.89
406.35	146.09
406.559	103.08
406.768	101.03
406.977	123.56
407.185	111.27
407.394	96.94
407.603	94.89
407.812	121.51
408.02	195.24
408.229	94.89
408.438	84.65
408.646	86.7
408.855	80.55
409.064	115.37
409.272	174.76
409.481	176.81
409.69	146.09
409.898	144.04
410.107	152.23
410.315	328.36
410.524	150.18
410.733	221.86
410.941	187.05
411.15	248.49
411.358	258.73
411.567	189.1
411.775	260.77
411.984	228.01
412.192	264.87
412.401	221.86
412.609	268.97
412.818	289.45
413.026	228.01
413.234	344.74
413.443	309.93
413.651	342.69
413.86	236.2
414.068	318.12
414.276	346.79
414.485	395.94
414.693	311.97
414.901	465.57
415.11	412.32
415.318	408.23
415.526	332.45
415.734	389.8
415.943	463.52
416.151	441
416.359	477.86
416.567	494.24
416.776	529.06
416.984	594.59
417.192	518.82
417.4	559.78
417.608	545.44
417.817	496.29
418.025	615.07
418.233	643.74
418.441	584.35
418.649	662.18
418.857	647.84
419.065	699.04
419.273	723.62
419.481	707.23
419.689	819.87
419.897	881.31
420.105	895.64
420.313	879.26
420.521	883.36
420.729	891.55
420.937	871.07
421.145	961.18
421.353	1018.52
421.561	1036.95
421.769	1030.81
421.977	1122.97
422.185	1010.33
422.393	1274.52
422.601	1157.78
422.809	1241.75
423.017	1305.24
423.224	1260.18
423.432	1419.92
423.64	1487.51
423.848	1573.52
424.056	1530.52
424.263	1626.77
424.471	1546.9
424.679	1698.45
424.887	1606.29
425.094	1725.07
425.302	1884.81
425.51	1884.81
425.718	1952.4
425.925	1954.44
426.133	1911.44
426.341	1964.68
426.548	2112.14
426.756	2243.21
426.964	2251.4
427.171	2325.13
427.379	2409.09
427.586	2349.7
427.794	2566.79
428.001	2595.46
428.209	2638.47
428.417	2714.24
428.624	2798.21
428.832	2976.38
429.039	2882.17
429.247	2816.64
429.454	3172.99
429.662	3334.78
429.869	3156.6
430.076	3392.12
430.284	3275.38
430.491	3455.61
430.699	3705.46
430.906	3549.81
431.114	3662.45
431.321	3936.88
431.528	3746.42
431.736	3988.08
431.943	4338.28
432.15	4166.25
432.358	4151.92
432.565	4430.44
432.772	4381.29
432.979	4672.1
433.187	4694.63
433.394	4801.12
433.601	5003.87
433.808	5157.47
434.016	5190.24
434.223	5313.11
434.43	5661.27
434.637	5522.01
434.844	5712.47
435.052	6060.62
435.259	5847.63
435.466	5933.65
435.673	5890.64
435.88	6349.39
436.087	6677.06
436.294	6679.11
436.501	6341.19
436.708	6597.19
436.915	6832.71
437.122	7254.59
437.329	7148.09
437.537	7391.8
437.743	7457.34
437.95	7430.71
438.157	7799.35
438.364	8186.41
438.571	8139.31
438.778	7971.38
438.985	8815.14
439.192	8516.14
439.399	8688.17
439.606	8444.46
439.813	8886.82
440.02	9617.94
440.227	9546.26
440.433	9318.94
440.64	9710.1
440.847	9581.08
441.054	9765.4
441.261	10643.98
441.467	10441.23
441.674	10764.81
441.881	11035.14
442.088	11102.72
442.294	10697.22
442.501	11282.94
442.708	11487.74
442.914	11989.49
443.121	12241.39
443.328	11928.05
443.534	12816.87
443.741	12777.96
443.948	12274.16
444.154	13222.37
444.361	13093.35
444.568	13355.49
444.774	13265.38
444.981	13382.11
445.187	13918.68
445.394	14322.13
445.6	14166.48
445.807	15673.79
446.013	14909.9
446.22	15038.92
446.426	15739.32
446.633	15931.83
446.839	16232.88
447.046	15770.04
447.252	16830.89
447.459	16787.88
447.665	16787.88
447.871	17363.36
448.078	18026.9
448.284	17330.59
448.491	17764.76
448.697	18516.37
448.903	18813.32
449.11	18753.93
449.316	18385.3
449.522	18909.58
449.728	19419.52
449.935	19782.01
450.141	19503.49
450.347	20046.2
450.553	19411.33
450.76	19685.76
450.966	20162.94
451.172	20162.94
451.378	20740.46
451.584	20058.49
451.791	20689.26
451.997	20427.12
452.203	20748.65
452.409	21010.79
452.615	20832.62
452.821	20119.93
453.027	19999.1
453.233	20988.27
453.44	20093.3
453.646	20425.08
453.852	20294.01
454.058	20679.02
454.264	20097.4
454.47	20545.91
454.676	20210.04
454.882	20767.09
455.088	19079.56
455.294	19106.18
455.5	19724.67
455.705	19495.3
455.911	19270.02
456.117	18465.17
456.323	18260.37
456.529	17379.75
456.735	18162.07
456.941	17600.93
457.147	17557.92
457.352	16787.88
457.558	16732.59
457.764	16675.24
457.97	16122.29
458.176	16073.14
458.381	16112.05
458.587	15290.82
458.793	15149.51
458.999	14371.28
459.204	15378.88
459.41	15112.64
459.616	13963.73
459.821	13943.25
460.027	13717.98
460.233	13947.35
460.438	12909.03
460.644	13048.29
460.85	12671.47
461.055	12362.22
461.261	12145.14
461.466	11256.32
461.672	10971.65
461.878	11866.61
462.083	11143.68
462.289	10738.18
462.494	10762.76
462.7	10258.96
462.905	10082.83
463.111	10471.95
463.316	10324.49
463.522	10048.02
463.727	10080.78
463.932	10101.26
464.138	10013.2
464.343	10215.95
464.549	9714.2
464.754	10164.75
464.959	9900.56
465.165	9949.71
465.37	9445.91
465.575	9062.94
465.781	9763.35
465.986	9722.39
466.191	9421.34
466.397	9099.81
466.602	8899.11
466.807	9038.37
467.012	9073.18
467.218	8931.87
467.423	8964.64
467.628	8917.54
467.833	9218.59
468.038	8995.36
468.244	8563.24
468.449	9120.29
468.654	8704.55
468.859	8780.32
469.064	8784.42
469.269	8290.86
469.474	8327.72
469.679	8632.87
469.885	8219.18
470.09	8362.54
470.295	8356.4
470.5	8190.51
470.705	8198.7
470.91	8051.25
471.115	8055.34
471.32	8286.76
471.525	8065.58
471.73	7733.81
471.935	7719.48
472.139	7582.26
472.344	7567.93
472.549	7443
472.754	7316.03
472.959	7356.99
473.164	7074.37
473.369	6974.02
473.574	7479.86
473.778	7350.84
473.983	7166.53
474.188	7117.37
474.393	6904.39
474.598	6914.63
474.802	6742.6
475.007	6625.86
475.212	6861.38
475.417	6398.54
475.621	6560.33
475.826	6736.45
476.031	6433.35
476.235	6470.22
476.44	6423.11
476.645	6255.18
476.849	6263.37
477.054	6179.4
477.259	6183.5
477.463	6048.33
477.668	6046.29
477.872	5890.64
478.077	5872.21
478.282	5857.87
478.486	5702.23
478.691	5775.95
478.895	5882.45
479.1	5708.37
479.304	5632.6
479.509	5587.54
479.713	5718.61
479.918	5380.7
480.122	5284.44
480.326	5499.48
480.531	5616.21
480.735	5290.59
480.94	5241.43
481.144	5612.12
481.348	5331.55
481.553	5354.07
481.757	5304.92
481.961	5237.34
482.166	5341.79
482.37	5300.83
482.574	5323.35
482.778	5323.35
482.983	5251.67
483.187	5276.25
483.391	5311.07
483.595	5409.37
483.8	5153.37
484.004	5245.53
484.208	5296.73
484.412	5243.48
484.616	5376.6
484.821	5227.1
485.025	5091.93
485.229	5257.82
485.433	5161.56
485.637	5085.79
485.841	5163.61
486.045	5141.08
486.249	5171.8
486.453	5114.46
486.657	5204.57
486.861	5259.87
487.065	5122.65
487.269	5327.45
487.473	4977.25
487.677	5280.35
487.881	5372.5
488.085	5134.94
488.289	5315.16
488.493	5255.77
488.697	5188.19
488.901	5255.77
489.105	5247.58
489.309	5184.09
489.512	5349.98
489.716	5313.11
489.92	5390.94
490.124	5171.8
490.328	5524.05
490.531	5266.01
490.735	5423.7
490.939	5550.68
491.143	5403.22
491.346	5380.7
491.55	5401.18
491.754	5382.74
491.958	5380.7
492.161	5417.56
492.365	5540.44
492.569	5599.83
492.772	5554.77
492.976	5630.55
493.18	5597.78
493.383	5663.32
493.587	5605.97
493.79	5935.7
493.994	5712.47
494.197	5655.12
494.401	5651.03
494.605	5978.7
494.808	5988.94
495.012	5921.36
495.215	5892.69
495.419	6117.97
495.622	6025.81
495.825	6185.55
496.029	6212.17
496.232	6158.92
496.436	6191.69
496.639	6359.63
496.843	6500.94
497.046	6500.94
497.249	6644.29
497.453	6732.36
497.656	6791.75
497.859	6474.31
498.063	6795.84
498.266	6918.72
498.469	6838.85
498.673	7041.6
498.876	7240.25
499.079	6980.16
499.282	7039.55
499.485	7307.84
499.689	7361.08
499.892	7449.14
500.095	7535.16
500.298	7694.9
500.501	7633.46
500.705	7799.35
500.908	7846.45
501.111	8157.74
501.314	7998
501.517	8092.21
501.72	8063.54
501.923	8041.01
502.126	8294.96
502.329	8337.96
502.532	8768.04
502.735	8546.86
502.938	8702.5
503.141	8804.9
503.344	8997.41
503.547	9015.84
503.75	9312.8
503.953	9458.2
504.156	9298.46
504.359	9579.03
504.562	9493.02
504.765	9693.72
504.968	9806.36
505.17	9894.42
505.373	9773.59
505.576	10154.51
505.779	10396.17
505.982	10134.03
506.185	10586.63
506.387	10420.75
506.59	10930.69
506.793	10811.91
506.996	10969.6
507.198	11088.39
507.401	11117.06
507.604	11375.1
507.807	11522.55
508.009	11663.86
508.212	11702.78
508.415	11663.86
508.617	11856.37
508.82	11790.84
509.022	12057.07
509.225	12329.45
509.428	12419.57
509.63	12618.22
509.833	12829.16
510.035	13087.2
510.238	12900.84
510.44	12997.09
510.643	13275.62
510.845	13593.05
511.048	13545.95
511.25	13609.43
511.453	13906.39
511.655	14559.69
511.858	14354.9
512.06	14285.26
512.262	14307.79
512.465	14610.89
512.667	14629.32
512.87	14971.33
513.072	14913.99
513.274	15352.26
513.477	15280.58
513.679	15632.83
513.881	15686.08
514.084	15978.93
514.286	15894.97
514.488	15942.07
514.69	16605.61
514.893	16652.72
515.095	16673.2
515.297	16931.24
515.499	17140.13
515.701	17066.41
515.904	17349.03
516.106	17447.33
516.308	17885.59
516.51	18123.16
516.712	17889.69
516.914	18307.48
517.116	18442.64
517.318	18813.32
517.52	18903.43
517.722	19192.2
517.925	19646.85
518.127	19341.7
518.329	19939.71
518.531	19685.76
518.733	19759.49
518.935	20183.41
519.136	20484.47
519.338	20595.06
519.54	20814.19
519.742	21178.73
519.944	20873.58
520.146	21678.43
520.348	21567.84
520.55	21629.28
520.752	21786.97
520.954	22280.53
521.155	22219.1
521.357	22337.88
521.559	22954.32
521.761	23175.5
521.963	23062.86
522.164	23138.63
522.366	23550.28
522.568	23664.96
522.77	23812.42
522.971	24244.54
523.173	24166.71
523.375	24451.38
523.576	24676.66
523.778	24711.47
523.98	25012.53
524.181	25102.64
524.383	25452.84
524.584	25559.33
524.786	25714.98
524.988	25571.62
525.189	25882.91
525.391	26190.11
525.592	26157.34
525.794	26685.72
525.995	26632.47
526.197	26824.98
526.398	26638.61
526.6	27302.15
526.801	26777.87
527.003	27044.11
527.204	27388.17
527.406	27535.62
527.607	27672.84
527.808	27851.01
528.01	27418.89
528.211	27840.77
528.412	28508.41
528.614	28301.56
528.815	27965.7
529.016	28539.13
529.218	28129.53
529.419	28408.06
529.62	28793.08
529.822	28459.26
530.023	28733.68
530.224	28610.81
530.425	29012.21
530.626	28678.39
530.828	28680.44
531.029	29507.82
531.23	29145.33
531.431	29188.33
531.632	29251.82
531.833	29315.31
532.035	29499.62
532.236	29513.96
532.437	29618.41
532.638	29329.64
532.839	29386.99
533.04	29657.32
533.241	29303.02
533.442	30011.62
533.643	29577.45
533.844	29704.42
534.045	29778.15
534.246	29403.37
534.447	30015.71
534.648	29851.88
534.849	30118.11
535.05	29925.6
535.251	30079.2
535.451	30052.58
535.652	30060.77
535.853	30142.69
536.054	30396.63
536.255	30329.05
536.456	30087.39
536.657	30429.4
536.857	30157.02
537.058	30116.06
537.259	30462.17
537.46	29884.64
537.66	29950.18
537.861	30417.11
538.062	30165.21
538.263	30075.1
538.463	29798.63
538.664	29913.31
538.865	30392.54
539.065	30425.31
539.266	29972.71
539.466	30705.88
539.667	29679.85
539.868	30527.7
540.068	30060.77
540.269	29685.99
540.469	30509.27
540.67	29798.63
540.87	30419.16
541.071	29862.12
541.271	30482.65
541.472	30187.74
541.672	30134.49
541.873	30265.56
542.073	29833.44
542.274	30654.68
542.474	29729
542.675	29913.31
542.875	30214.37
543.075	30380.25
543.276	29737.19
543.476	30537.94
543.676	30281.95
543.877	29784.29
544.077	30255.33
544.277	30122.21
544.478	29845.73
544.678	30120.16
544.878	29991.14
545.078	30288.09
545.279	29839.59
545.479	30136.54
545.679	30011.62
545.879	30148.83
546.079	30007.52
546.28	30195.93
546.48	30208.22
546.68	30316.76
546.88	30105.82
547.08	30118.11
547.28	30103.78
547.48	29761.76
547.68	30136.54
547.88	29761.76
548.081	30140.64
548.281	29800.68
548.481	29577.45
548.681	30144.73
548.881	30175.45
549.081	29929.7
549.28	29757.67
549.48	30345.44
549.68	30185.69
549.88	30181.6
550.08	29772
550.28	30447.83
550.48	29761.76
550.68	30279.9
550.88	29677.8
551.08	29788.39
551.279	30185.69
551.479	30023.9
551.679	30122.21
551.879	29538.54
552.079	30269.66
552.278	29839.59
552.478	29657.32
552.678	29667.56
552.878	29903.07
553.077	29845.73
553.277	29462.76
553.477	29993.19
553.676	29683.94
553.876	29757.67
554.076	29665.51
554.275	29901.03
554.475	29204.72
554.674	29896.93
554.874	29663.46
555.074	29487.34
555.273	29653.22
555.473	29530.34
555.672	29321.45
555.872	29417.71
556.071	29456.62
556.271	29716.71
556.47	28942.58
556.67	29327.6
556.869	29180.14
557.068	29296.88
557.268	28780.79
557.467	29001.97
557.667	29069.55
557.866	29225.2
558.065	29128.94
558.265	29081.84
558.464	28788.98
558.663	29071.6
558.863	28430.58
559.062	29155.57
559.261	28516.6
559.461	28807.41
559.66	28268.8
559.859	28590.33
560.058	28539.13
560.258	28743.92
560.457	28188.92
560.656	28549.37
560.855	28193.02
561.054	28610.81
561.253	28051.71
561.453	28502.26
561.652	27889.92
561.851	28051.71
562.05	27891.97
562.249	28070.14
562.448	27973.89
562.647	27519.24
562.846	27523.33
563.045	27666.69
563.244	27603.21
563.443	27947.26
563.642	27484.42
563.841	27261.19
564.04	27064.59
564.239	27531.53
564.438	27001.1
564.637	27015.44
564.836	27359.5
565.035	26771.73
565.234	27355.4
565.432	26753.3
565.631	26591.51
565.83	26796.31
566.029	26360.09
566.228	26536.21
566.427	26487.06
566.625	26186.01
566.824	25831.71
567.023	26288.41
567.222	25848.1
567.42	26337.56
567.619	26138.91
567.818	25714.98
568.016	25854.24
568.215	25958.69
568.414	25747.75
568.612	26030.37
568.811	25553.19
569.01	25407.78
569.208	24924.46
569.407	25350.44
569.605	24928.56
569.804	25348.39
570.002	24840.5
570.201	25014.57
570.4	24867.12
570.598	24502.58
570.797	24701.23
570.995	24379.7
571.193	24146.23
571.392	24254.78
571.59	23953.73
571.789	24248.63
571.987	23888.19
572.186	24064.32
572.384	23755.07
572.582	23916.86
572.781	23796.03
572.979	23836.99
573.177	23697.73
573.376	23771.46
573.574	23429.45
573.772	23402.82
573.971	23095.63
574.169	23159.11
574.367	23290.18
574.565	23085.39
574.763	23028.04
574.962	22982.99
575.16	22569.3
575.358	22839.63
575.556	22436.18
575.754	22946.12
575.952	22475.09
576.151	22542.67
576.349	22514
576.547	22313.3
576.745	22389.08
576.943	22440.28
577.141	21901.66
577.339	22235.48
577.537	21934.43
577.735	21899.61
577.933	21963.1
578.131	21404
578.329	21776.73
578.527	21467.49
578.725	21709.15
578.923	21805.41
579.121	21500.26
579.319	21174.63
579.516	21606.75
579.714	21322.09
579.912	21213.54
580.11	20889.96
580.308	20900.2
580.506	20935.02
580.704	20631.92
580.901	20912.49
581.099	20930.92
581.297	20631.92
581.495	20568.43
581.692	20660.59
581.89	20724.08
582.088	20662.64
582.285	20281.72
582.483	20523.38
582.681	20042.1
582.878	20380.02
583.076	19675.52
583.274	19884.41
583.471	19716.48
583.669	19980.67
583.866	19579.26
584.064	19990.91
584.262	19462.53
584.459	19534.21
584.657	19440
584.854	19751.29
585.052	19255.68
585.249	19532.16
585.447	19329.41
585.644	19257.73
585.841	19220.87
586.039	19270.02
586.236	19128.71
586.434	18919.82
586.631	18842
586.828	18934.15
587.026	18723.21
587.223	18882.95
587.42	18842
587.618	18727.31
587.815	18493.84
588.012	18385.3
588.21	18647.44
588.407	18563.47
588.604	18424.21
588.801	18086.29
588.999	18256.28
589.196	18282.9
589.393	17998.23
589.59	18262.42
589.787	17996.18
589.984	18160.02
590.182	17992.09
590.379	18256.28
590.576	18037.14
590.773	17580.45
590.97	17615.26
591.167	17781.15
591.364	17373.6
591.561	17490.34
591.758	17310.11
591.955	17269.16
592.152	17484.19
592.349	17269.16
592.546	17170.85
592.743	17263.01
592.94	17129.89
593.137	17146.28
593.334	17117.61
593.531	16902.57
593.727	17084.84
593.924	17066.41
594.121	16853.42
594.318	16824.75
594.515	16611.76
594.712	16830.89
594.908	16830.89
595.105	16531.89
595.302	16503.21
595.499	16658.86
595.696	16466.35
595.892	16247.22
596.089	16548.27
596.286	16431.54
596.482	16177.59
596.679	16214.45
596.876	16040.37
597.072	16067
597.269	15983.03
597.466	15937.98
597.662	15741.37
597.859	15911.35
598.055	15899.06
598.252	15714.75
598.448	15927.74
598.645	15534.53
598.841	15421.89
599.038	15485.37
599.234	15864.25
599.431	15514.05
599.627	15555.01
599.824	15567.29
600.02	15247.81
600.217	15172.04
600.413	15325.63
600.609	15022.53
600.806	15249.86
601.002	14930.37
601.198	15233.47
601.395	14928.33
601.591	15108.55
601.787	14913.99
601.984	14842.31
602.18	14969.29
602.376	14852.55
602.572	14764.49
602.769	14600.65
602.965	14637.52
603.161	14445.01
603.357	14510.54
603.553	14463.44
603.75	14182.87
603.946	14447.05
604.142	14410.19
604.338	14586.32
604.534	14170.58
604.73	14008.79
604.926	14186.96
605.122	14205.39
605.318	14074.32
605.514	13951.45
605.71	13791.7
605.906	13963.73
606.102	13787.61
606.298	13980.12
606.494	13617.63
606.69	13894.1
606.886	13763.03
607.082	13507.04
607.278	13599.2
607.474	13332.96
607.67	13607.39
607.866	13296.1
608.062	13568.48
608.257	13400.54
608.453	13345.25
608.649	13406.69
608.845	13287.9
609.041	13251.04
609.236	13263.33
609.432	13271.52
609.628	13396.45
609.824	13435.36
610.019	13292
610.215	13289.95
610.411	12999.14
610.606	13025.76
610.802	12827.11
610.998	12980.71
611.193	13052.39
611.389	12722.66
611.584	12802.54
611.78	12716.52
611.976	12847.59
612.171	12714.47
612.367	12730.86
612.562	12714.47
612.758	12534.25
612.953	12433.9
613.149	12685.8
613.344	12597.74
613.539	12440.04
613.735	12624.36
613.93	12591.59
614.126	12485.1
614.321	12429.8
614.517	12481
614.712	12173.81
614.907	12243.44
615.103	12403.18
615.298	12493.29
615.493	12374.51
615.688	12134.9
615.884	12616.17
616.079	12040.69
616.274	12339.69
616.47	12128.75
616.665	12210.67
616.86	11991.54
617.055	12059.12
617.25	11942.39
617.445	12184.05
617.641	11911.67
617.836	12022.26
618.031	11731.45
618.226	11940.34
618.421	11842.04
618.616	11971.06
618.811	11422.2
619.006	11981.3
619.201	11514.36
619.396	11698.68
619.591	11440.64
619.786	11629.05
619.981	11516.41
620.176	11469.31
620.371	11237.89
620.566	11297.28
620.761	11305.47
620.956	11309.57
621.151	11129.34
621.346	11215.36
621.541	10859.01
621.735	11176.45
621.93	10760.71
622.125	11063.81
622.32	10762.76
622.515	10762.76
622.709	10535.43
622.904	10643.98
623.099	10584.59
623.294	10744.33
623.488	10691.08
623.683	10517
623.878	10117.65
624.072	10304.01
624.267	10367.5
624.462	10185.23
624.656	9923.09
624.851	10031.63
625.046	10011.15
625.24	10052.11
625.435	10103.31
625.629	9869.84
625.824	9978.39
626.018	9759.25
626.213	9435.67
626.407	9695.77
626.602	9613.85
626.796	9619.99
626.991	9562.65
627.185	9386.52
627.38	9353.76
627.574	9439.77
627.768	9396.76
627.963	9251.36
628.157	9202.21
628.352	9286.17
628.546	9140.77
628.74	9189.92
628.935	8831.52
629.129	9034.27
629.323	8974.88
629.517	8835.62
629.712	8780.32
629.906	8890.91
630.1	8649.25
630.294	8634.92
630.489	8647.21
630.683	8651.3
630.877	8587.82
631.071	8454.7
631.265	8538.66
631.459	8428.07
631.653	8356.4
631.848	8366.63
632.042	8391.21
632.236	8460.84
632.43	8311.34
632.624	8303.15
632.818	8106.54
633.012	7887.41
633.206	7954.99
633.4	7989.81
633.594	7848.5
633.788	7682.61
633.982	7766.58
634.176	7787.06
634.369	7715.38
634.563	7840.31
634.757	7463.48
634.951	7764.53
635.145	7561.78
635.339	7539.26
635.533	7580.21
635.726	7541.3
635.92	7443
636.114	7379.51
636.308	7168.57
636.501	7391.8
636.695	7369.27
636.889	7248.44
637.083	7246.4
637.276	7201.34
637.47	7123.52
637.664	7025.22
637.857	7139.9
638.051	7100.99
638.244	7019.07
638.438	7074.37
638.632	6894.15
638.825	6902.34
639.019	6855.23
639.212	6824.51
639.406	6636.1
639.599	6675.01
639.793	6797.89
639.986	6623.81
640.18	6832.71
640.373	6492.74
640.567	6488.65
640.76	6445.64
640.954	6564.42
641.147	6203.98
641.34	6269.51
641.534	6343.24
641.727	6242.89
641.92	6349.39
642.114	6126.16
642.307	6034
642.5	6130.25
642.694	5921.36
642.887	5980.75
643.08	6189.64
643.273	6011.47
643.467	6044.24
643.66	5886.54
643.853	5825.11
644.046	5833.3
644.239	5831.25
644.432	5904.98
644.626	5710.42
644.819	5669.46
645.012	5712.47
645.205	5653.08
645.398	5702.23
645.591	5626.45
645.784	5542.49
645.977	5501.53
646.17	5712.47
646.363	5528.15
646.556	5452.38
646.749	5464.66
646.942	5458.52
647.135	5569.11
647.328	5450.33
647.521	5298.78
647.714	5223
647.907	5296.73
648.099	5339.74
648.292	5270.11
648.485	5272.15
648.678	5126.75
648.871	5110.36
649.064	5053.02
649.256	5063.26
649.449	5046.88
649.642	5136.99
649.835	4874.85
650.027	4958.81
650.22	5026.4
650.413	4915.81
650.605	4837.98
650.798	4835.94
650.991	4743.78
651.183	4770.4
651.376	4760.16
651.568	4848.22
651.761	4655.72
651.954	4794.98
652.146	4751.97
652.339	4749.92
652.531	4790.88
652.724	4692.58
652.916	4563.56
653.109	4602.47
653.301	4581.99
653.494	4602.47
653.686	4364.9
653.879	4612.71
654.071	4510.31
654.263	4485.73
654.456	4407.91
654.648	4543.08
654.84	4317.8
655.033	4258.41
655.225	4358.76
655.417	4242.03
655.61	4389.48
655.802	4461.16
655.994	4176.49
656.186	4395.62
656.379	4244.07
656.571	4100.72
656.763	4078.19
656.955	4141.68
657.148	4053.61
657.34	4090.48
657.532	4108.91
657.724	4047.47
657.916	4201.07
658.108	4037.23
658.3	3986.03
658.492	3957.36
658.684	3844.72
658.876	3953.26
659.068	4022.89
659.26	3785.33
659.452	4022.89
659.644	3893.87
659.836	3754.61
660.028	3854.96
660.22	3820.14
660.412	3766.9
660.604	3777.14
660.796	3758.71
660.988	3750.51
661.18	3781.23
661.372	3857.01
661.563	3484.28
661.755	3558
661.947	3631.73
662.139	3793.52
662.331	3736.18
662.522	3650.16
662.714	3621.49
662.906	3603.06
663.097	3582.58
663.289	3562.1
663.481	3445.37
663.673	3666.55
663.864	3461.75
664.056	3377.78
664.247	3467.89
664.439	3517.04
664.631	3396.21
664.822	3437.17
665.014	3478.13
665.205	3371.64
665.397	3408.5
665.588	3312.25
665.78	3289.72
665.971	3428.98
666.163	3367.54
666.354	3271.29
666.546	3244.67
666.737	3345.02
666.929	3330.68
667.12	3347.06
667.311	3445.37
667.503	3162.75
667.694	3181.18
667.885	3279.48
668.077	3390.07
668.268	3211.9
668.459	3201.66
668.651	3146.36
668.842	3181.18
669.033	3109.5
669.224	3189.37
669.416	3138.17
669.607	3166.84
669.798	3170.94
669.989	3127.93
670.18	3224.19
670.371	3162.75
670.563	2925.18
670.754	3168.89
670.945	3154.55
671.136	3080.83
671.327	3129.98
671.518	3052.16
671.709	3156.6
671.9	3269.24
672.091	3211.9
672.282	3113.6
672.473	2992.76
672.664	3123.83
672.855	3070.59
673.046	3099.26
673.237	3043.96
673.428	3054.2
673.619	3023.48
673.809	3187.32
674	3107.45
674.191	3119.74
674.382	3015.29
674.573	3125.88
674.764	3172.99
674.954	3146.36
675.145	2968.19
675.336	3031.68
675.527	3078.78
675.717	3086.97
675.908	3041.92
676.099	2962.05
676.289	3074.68
676.48	3062.4
676.671	3025.53
676.861	3035.77
677.052	3015.29
677.243	3062.4
677.433	3023.48
677.624	3091.07
677.814	2978.43
678.005	3052.16
678.195	3054.2
678.386	3062.4
678.576	3072.64
678.767	3119.74
678.957	2962.05
679.148	3080.83
679.338	3013.24
679.529	3123.83
679.719	2943.61
679.909	3072.64
680.1	3066.49
680.29	3076.73
680.481	3037.82
680.671	2937.47
680.861	3048.06
681.052	3037.82
681.242	3052.16
681.432	3228.28
681.622	3064.44
681.813	3097.21
682.003	3095.16
682.193	3043.96
682.383	3080.83
682.573	3009.15
682.764	3031.68
682.954	3037.82
683.144	3082.88
683.334	3113.6
683.524	3021.44
683.714	3172.99
683.904	3103.36
684.094	3160.7
684.284	3089.02
684.474	3195.51
684.664	3146.36
684.854	3084.92
685.044	3146.36
685.234	2998.91
685.424	3058.3
685.614	3013.24
685.804	3123.83
685.994	3082.88
686.184	3076.73
686.374	3095.16
686.564	2853.5
686.753	3056.25
686.943	2941.57
687.133	3054.2
687.323	2871.93
687.513	3005.05
687.702	2945.66
687.892	2945.66
688.082	2867.84
688.272	2841.22
688.461	2927.23
688.651	2937.47
688.841	2931.33
689.03	2886.27
689.22	2810.5
689.41	2925.18
689.599	2802.3
689.789	2824.83
689.979	2800.26
690.168	2787.97
690.358	2865.79
690.547	2785.92
690.737	2783.87
690.926	2843.26
691.116	2730.62
691.305	2677.38
691.495	2734.72
691.684	2638.47
691.874	2699.91
692.063	2722.43
692.252	2665.09
692.442	2701.95
692.631	2695.81
692.82	2660.99
693.01	2581.12
693.199	2663.04
693.388	2681.47
693.578	2652.8
693.767	2531.97
693.956	2511.49
694.146	2579.08
694.335	2652.8
694.524	2517.64
694.713	2548.36
694.902	2509.44
695.092	2538.12
695.281	2472.58
695.47	2544.26
695.659	2415.24
695.848	2427.53
696.037	2509.44
696.226	2507.4
696.415	2429.57
696.604	2443.91
696.793	2470.53
696.982	2468.48
697.171	2484.87
697.36	2497.16
697.549	2282.12
697.738	2325.13
697.927	2425.48
698.116	2392.71
698.305	2427.53
698.494	2550.4
698.683	2425.48
698.872	2513.54
699.061	2531.97
699.25	2464.39
699.438	2325.13
699.627	2394.76
699.816	2480.77
700.005	2474.63
700.193	2388.61
700.382	2474.63
700.571	2421.38
700.76	2388.61
700.948	2368.13
701.137	2396.81
701.326	2474.63
701.514	2458.25
701.703	2433.67
701.892	2544.26
702.08	2515.59
702.269	2386.57
702.457	2437.77
702.646	2488.96
702.834	2474.63
703.023	2402.95
703.212	2486.92
703.4	2519.68
703.589	2378.37
703.777	2433.67
703.965	2472.58
704.154	2536.07
704.342	2450.05
704.531	2579.08
704.719	2380.42
704.907	2452.1
705.096	2534.02
705.284	2478.72
705.472	2366.09
705.661	2476.68
705.849	2452.1
706.037	2523.78
706.226	2542.21
706.414	2531.97
706.602	2388.61
706.79	2540.16
706.979	2421.38
707.167	2480.77
707.355	2566.79
707.543	2550.4
707.731	2513.54
707.919	2550.4
708.107	2460.29
708.296	2423.43
708.484	2480.77
708.672	2507.4
708.86	2538.12
709.048	2615.94
709.236	2583.17
709.424	2466.44
709.612	2417.29
709.8	2505.35
709.988	2521.73
710.176	2630.27
710.364	2505.35
710.551	2611.84
710.739	2613.89
710.927	2658.95
711.115	2534.02
711.303	2685.57
711.491	2589.32
711.679	2677.38
711.866	2554.5
712.054	2605.7
712.242	2581.12
712.43	2589.32
712.617	2603.65
712.805	2648.71
712.993	2656.9
713.181	2548.36
713.368	2656.9
713.556	2673.28
713.744	2531.97
713.931	2777.73
714.119	2701.95
714.306	2697.86
714.494	2708.1
714.682	2654.85
714.869	2687.62
715.057	2687.62
715.244	2738.82
715.432	2814.59
715.619	2603.65
715.807	2767.49
715.994	2777.73
716.182	2609.79
716.369	2790.02
716.556	2753.15
716.744	2646.66
716.931	2736.77
717.119	2830.98
717.306	2757.25
717.493	2595.46
717.681	2841.22
717.868	2755.2
718.055	2761.34
718.242	2822.78
718.43	2968.19
718.617	2790.02
718.804	2884.22
718.991	2777.73
719.179	2990.72
719.366	2830.98
719.553	2951.81
719.74	2806.4
719.927	2855.55
720.114	2773.63
720.301	2929.28
720.488	2925.18
720.676	2933.37
720.863	2859.65
721.05	2964.09
721.237	2935.42
721.424	2990.72
721.611	2851.46
721.798	2966.14
721.985	2859.65
722.172	2884.22
722.358	3005.05
722.545	2876.03
722.732	2968.19
722.919	2972.29
723.106	3015.29
723.293	2925.18
723.48	2947.71
723.667	2968.19
723.853	3113.6
724.04	3027.58
724.227	3003
724.414	3089.02
724.6	2876.03
724.787	3056.25
724.974	3132.03
725.161	2923.13
725.347	2951.81
725.534	3076.73
725.72	3103.36
725.907	3007.1
726.094	3164.79
726.28	2953.85
726.467	3023.48
726.653	2949.76
726.84	3080.83
727.027	3129.98
727.213	3160.7
727.4	3121.79
727.586	3179.13
727.773	3119.74
727.959	3279.48
728.145	3179.13
728.332	3129.98
728.518	3146.36
728.705	3048.06
728.891	3172.99
729.077	3183.23
729.264	3316.34
729.45	3129.98
729.636	3185.27
729.823	3107.45
730.009	3148.41
730.195	3172.99
730.382	3222.14
730.568	3160.7
730.754	3142.27
730.94	3213.95
731.126	3197.56
731.313	3248.76
731.499	3240.57
731.685	3117.69
731.871	3103.36
732.057	3148.41
732.243	3259
732.429	3293.82
732.615	3129.98
732.801	3263.1
732.987	3285.62
733.173	3215.99
733.359	3322.49
733.545	3234.43
733.731	3287.67
733.917	3385.97
734.103	3281.53
734.289	3209.85
734.475	3371.64
734.661	3304.06
734.847	3453.56
735.033	3314.3
735.219	3271.29
735.404	3267.19
735.59	3236.47
735.776	3275.38
735.962	3410.55
736.148	3457.65
736.333	3361.4
736.519	3314.3
736.705	3402.36
736.89	3349.11
737.076	3390.07
737.262	3101.31
737.447	3330.68
737.633	3261.05
737.819	3418.74
738.004	3304.06
738.19	3318.39
738.375	3250.81
738.561	3314.3
738.747	3228.28
738.932	3234.43
739.118	3359.35
739.303	3306.1
739.489	3377.78
739.674	3263.1
739.859	3250.81
740.045	3279.48
740.23	3314.3
740.416	3279.48
740.601	3250.81
740.786	3289.72
740.972	3162.75
741.157	3324.54
741.342	3244.67
741.528	3195.51
741.713	3248.76
741.898	3375.74
742.084	3189.37
742.269	3265.14
742.454	3195.51
742.639	3195.51
742.824	3027.58
743.01	3416.69
743.195	3246.71
743.38	3193.47
743.565	3121.79
743.75	3101.31
743.935	3048.06
744.12	3134.07
744.305	3170.94
744.49	3142.27
744.675	2980.48
744.86	3142.27
745.045	3117.69
745.23	3019.39
745.415	3150.46
745.6	2945.66
745.785	3046.01
745.97	3013.24
746.155	3021.44
746.34	3015.29
746.525	3007.1
746.71	2960
746.895	2960
747.079	3021.44
747.264	2742.91
747.449	2964.09
747.634	2845.31
747.819	2933.37
748.003	2867.84
748.188	3000.96
748.373	2886.27
748.557	2785.92
748.742	2781.82
748.927	2863.74
749.111	2779.78
749.296	2816.64
749.481	2878.08
749.665	2730.62
749.85	2683.52
750.034	2876.03
750.219	2851.46
750.404	2620.03
750.588	2609.79
750.773	2693.76
750.957	2564.74
751.141	2499.2
751.326	2466.44
751.51	2521.73
751.695	2472.58
751.879	2572.93
752.064	2462.34
752.248	2531.97
752.432	2443.91
752.617	2462.34
752.801	2509.44
752.985	2523.78
753.17	2382.47
753.354	2427.53
753.538	2423.43
753.722	2429.57
753.907	2273.93
754.091	2255.5
754.275	2284.17
754.459	2306.7
754.643	2218.63
754.828	2312.84
755.012	2278.02
755.196	2177.67
755.38	2120.33
755.564	2165.39
755.748	2130.57
755.932	2214.54
756.116	2122.38
756.3	2253.45
756.484	2067.08
756.668	2079.37
756.852	2093.71
757.036	1979.02
757.22	2132.62
757.404	2042.51
757.588	2032.27
757.772	2044.56
757.956	2015.88
758.14	2067.08
758.323	1970.83
758.507	2134.67
758.691	2015.88
758.875	2007.69
759.059	1905.29
759.242	1876.62
759.426	1809.04
759.61	1866.38
759.794	1829.52
759.977	1942.16
760.161	1878.67
760.345	1915.53
760.528	1827.47
760.712	1852.05
760.895	1841.81
761.079	1858.19
761.263	1766.03
761.446	1827.47
761.63	1852.05
761.813	1835.66
761.997	1811.09
762.18	1725.07
762.364	1893.01
762.547	1645.2
762.731	1723.02
762.914	1749.65
763.098	1716.88
763.281	1677.97
763.464	1692.3
763.648	1753.74
763.831	1698.45
764.015	1606.29
764.198	1776.27
764.381	1671.83
764.564	1596.05
764.748	1606.29
764.931	1663.63
765.114	1602.19
765.297	1649.3
765.481	1577.62
765.664	1608.34
765.847	1548.95
766.03	1610.39
766.213	1622.67
766.397	1485.46
766.58	1587.86
766.763	1583.76
766.946	1516.18
767.129	1503.89
767.312	1505.94
767.495	1544.85
767.678	1446.55
767.861	1565.33
768.044	1471.12
768.227	1632.91
768.41	1495.7
768.593	1483.41
768.776	1505.94
768.959	1501.84
769.142	1467.03
769.324	1493.65
769.507	1342.1
769.69	1405.59
769.873	1442.45
770.056	1522.32
770.239	1356.44
770.421	1397.4
770.604	1344.15
770.787	1378.97
770.97	1364.63
771.152	1370.77
771.335	1303.19
771.518	1305.24
771.7	1456.79
771.883	1280.66
772.066	1311.38
772.248	1376.92
772.431	1374.87
772.613	1299.09
772.796	1288.85
772.978	1276.57
773.161	1274.52
773.343	1243.8
773.526	1305.24
773.708	1188.5
773.891	1243.8
774.073	1211.03
774.256	1170.07
774.438	1223.32
774.621	1268.38
774.803	1231.51
774.985	1145.5
775.168	1151.64
775.35	1092.25
775.532	1069.72
775.715	1149.59
775.897	1227.42
776.079	1125.02
776.261	1092.25
776.444	1020.57
776.626	1110.68
776.808	981.66
776.99	1129.11
777.173	1084.06
777.355	1036.95
777.537	1094.3
777.719	1106.59
777.901	1104.54
778.083	1016.48
778.265	1020.57
778.447	1047.19
778.629	1000.09
778.811	1008.28
778.993	1082.01
779.175	1098.39
779.357	920.22
779.539	1020.57
779.721	946.84
779.903	996
780.085	950.94
780.267	916.12
780.449	899.74
780.631	942.75
780.812	938.65
780.994	862.88
781.176	922.27
781.358	811.68
781.54	838.3
781.721	862.88
781.903	813.73
782.085	791.2
782.267	934.56
782.448	869.02
782.63	850.59
782.812	789.15
782.993	869.02
783.175	836.25
783.357	811.68
783.538	799.39
783.72	789.15
783.901	778.91
784.083	789.15
784.264	799.39
784.446	740
784.627	783.01
784.809	774.81
784.99	715.42
785.172	735.9
785.353	811.68
785.535	815.77
785.716	731.81
785.897	688.8
786.079	674.46
786.26	674.46
786.441	676.51
786.623	641.7
786.804	594.59
786.985	672.42
787.167	580.26
787.348	653.98
787.529	608.93
787.71	713.38
787.891	608.93
788.073	623.27
788.254	635.55
788.435	651.94
788.616	680.61
788.797	608.93
788.978	531.11
789.159	574.11
789.34	592.55
789.522	635.55
789.703	658.08
789.884	590.5
790.065	547.49
790.246	621.22
790.427	524.96
790.607	625.31
790.788	613.03
790.969	541.35
791.15	541.35
791.331	504.48
791.512	518.82
791.693	547.49
791.874	563.87
792.054	582.31
792.235	606.88
792.416	463.52
792.597	494.24
792.778	486.05
792.958	543.39
793.139	461.48
793.32	541.35
793.5	541.35
793.681	465.57
793.862	516.77
794.042	477.86
794.223	404.13
794.404	463.52
794.584	449.19
794.765	553.63
794.945	471.72
795.126	428.71
795.306	531.11
795.487	512.67
795.667	473.76
795.848	492.2
796.028	432.8
796.209	459.43
796.389	445.09
796.57	352.93
796.75	408.23
796.93	496.29
797.111	346.79
797.291	441
797.471	459.43
797.652	422.56
797.832	352.93
798.012	383.65
798.192	436.9
798.373	346.79
798.553	422.56
798.733	397.99
798.913	377.51
799.093	379.56
799.274	434.85
799.454	410.28
799.634	424.61
799.814	402.08
799.994	389.8
800.174	381.6
800.354	338.6
800.534	340.65
800.714	338.6
800.894	346.79
801.074	375.46
801.254	322.21
801.434	397.99
801.614	436.9
801.794	371.36
801.974	1112.73
802.154	318.12
802.334	322.21
802.514	258.73
802.693	326.31
802.873	363.17
803.053	420.52
803.233	426.66
803.413	283.3
803.592	307.88
803.772	279.21
803.952	352.93
804.131	342.69
804.311	287.4
804.491	402.08
804.67	336.55
804.85	320.17
805.03	299.69
805.209	477.86
805.389	240.29
805.568	354.98
805.748	352.93
805.928	346.79
806.107	246.44
806.287	314.02
806.466	311.97
806.646	246.44
806.825	373.41
807.004	258.73
807.184	291.49
807.363	352.93
807.543	322.21
807.722	201.38
807.901	314.02
808.081	303.78
808.26	258.73
808.439	271.01
808.619	291.49
808.798	252.58
808.977	291.49
809.156	346.79
809.336	252.58
809.515	293.54
809.694	219.82
809.873	291.49
810.052	293.54
810.231	334.5
810.411	256.68
810.59	301.73
810.769	287.4
810.948	303.78
811.127	211.62
811.306	244.39
811.485	246.44
811.664	346.79
811.843	260.77
812.022	260.77
812.201	215.72
812.38	268.97
812.559	221.86
812.737	285.35
812.916	146.09
813.095	213.67
813.274	248.49
813.453	205.48
813.632	242.34
813.811	240.29
813.989	156.33
814.168	266.92
814.347	174.76
814.526	236.2
814.704	242.34
814.883	250.53
815.062	125.61
815.24	279.21
815.419	166.57
815.598	246.44
815.776	199.34
815.955	246.44
816.133	170.66
816.312	242.34
816.49	148.14
816.669	221.86
816.847	318.12
817.026	236.2
817.204	225.96
817.383	228.01
817.561	185
817.74	203.43
817.918	199.34
818.097	174.76
818.275	199.34
818.453	250.53
818.632	176.81
818.81	152.23
818.988	195.24
819.167	213.67
819.345	219.82
819.523	135.85
819.701	207.53
819.879	197.29
820.058	217.77
820.236	244.39
820.414	240.29
820.592	158.38
820.77	172.71
820.948	168.62
821.127	250.53
821.305	86.7
821.483	98.99
821.661	174.76
821.839	160.42
822.017	101.03
822.195	107.18
822.373	182.95
822.551	133.8
822.729	174.76
822.907	84.65
823.085	199.34
823.262	219.82
823.44	111.27
823.618	144.04
823.796	191.14
823.974	113.32
824.152	131.75
824.329	101.03
824.507	84.65
824.685	174.76
824.863	133.8
825.04	121.51
825.218	164.52
825.396	211.62
825.574	201.38
825.751	178.86
825.929	207.53
826.107	174.76
826.284	217.77
826.462	176.81
826.639	152.23
826.817	98.99
826.994	139.94
827.172	105.13
827.349	170.66
827.527	45.74
827.704	176.81
827.882	125.61
828.059	78.51
828.237	162.47
828.414	215.72
828.591	144.04
828.769	135.85
828.946	144.04
829.124	125.61
829.301	141.99
829.478	90.79
829.655	113.32
829.833	66.22
830.01	90.79
830.187	131.75
830.364	92.84
830.542	150.18
830.719	41.64
830.896	137.9
831.073	66.22
831.25	203.43
831.427	103.08
831.604	121.51
831.782	123.56
831.959	129.7
832.136	70.31
832.313	96.94
832.49	39.59
832.667	144.04
832.844	84.65
833.021	109.22
833.198	72.36
833.374	78.51
833.551	115.37
833.728	92.84
833.905	111.27
834.082	70.31
834.259	58.03
834.436	185
834.612	23.21
834.789	78.51
834.966	131.75
835.143	119.46
835.319	49.83
835.496	154.28
835.673	119.46
835.85	144.04
836.026	76.46
836.203	164.52
836.38	62.12
836.556	158.38
836.733	45.74
836.909	117.42
837.086	82.6
837.262	10.92
837.439	107.18
837.616	92.84
837.792	45.74
837.968	98.99
838.145	113.32
838.321	68.27
838.498	92.84
838.674	150.18
838.851	76.46
839.027	74.41
839.203	129.7
839.38	47.79
839.556	141.99
839.732	90.79
839.909	92.84
840.085	111.27
840.261	94.89
840.437	125.61
840.614	45.74
840.79	49.83
840.966	119.46
841.142	105.13
841.318	101.03
841.494	37.55
841.671	154.28
841.847	51.88
842.023	127.66
842.199	92.84
842.375	146.09
842.551	41.64
842.727	-75.09
842.903	92.84
843.079	66.22
843.255	33.45
843.431	76.46
843.607	29.35
843.783	-11.61
843.959	174.76
844.134	55.98
844.31	72.36
844.486	47.79
844.662	-5.46
844.838	49.83
845.013	76.46
845.189	107.18
845.365	88.75
845.541	4.78
845.716	51.88
845.892	152.23
846.068	84.65
846.244	92.84
846.419	55.98
846.595	6.83
846.77	82.6
846.946	58.03
847.122	51.88
847.297	15.02
847.473	111.27
847.648	23.21
847.824	27.31
847.999	-21.85
848.175	10.92
848.35	101.03
848.526	49.83
848.701	119.46
848.876	94.89
849.052	55.98
849.227	49.83
849.403	80.55
849.578	115.37
849.753	35.5
849.929	17.07
850.104	-11.61
850.279	62.12
850.454	78.51
850.63	43.69
850.805	37.55
850.98	80.55
851.155	62.12
851.33	74.41
851.505	-15.7
851.681	23.21
851.856	35.5
852.031	39.59
852.206	78.51
852.381	10.92
852.556	107.18
852.731	41.64
852.906	31.4
853.081	60.07
853.256	80.55
853.431	103.08
853.606	29.35
853.781	39.59
853.956	-3.41
854.131	-21.85
854.305	49.83
854.48	-34.13
854.655	-42.32
854.83	47.79
855.005	2.73
855.18	19.11
855.354	53.93
855.529	39.59
855.704	21.16
855.879	80.55
856.053	12.97
856.228	109.22
856.403	-62.8
856.577	62.12
856.752	-3.41
856.926	41.64
857.101	-3.41
857.276	-62.8
857.45	43.69
857.625	101.03
857.799	43.69
857.974	21.16
858.148	-48.47
858.323	90.79
858.497	-11.61
858.672	8.87
858.846	21.16
859.02	135.85
859.195	-103.76
859.369	-15.7
859.543	60.07
859.718	103.08
859.892	94.89
860.066	-23.89
860.241	41.64
860.415	-19.8
860.589	-7.51
860.763	82.6
860.938	12.97
861.112	62.12
861.286	-50.52
861.46	19.11
861.634	39.59
861.808	66.22
861.982	-15.7
862.157	-7.51
862.331	-42.32
862.505	4.78
862.679	-17.75
862.853	53.93
863.027	0.68
863.201	76.46
863.375	74.41
863.549	82.6
863.722	2.73
863.896	78.51
864.07	4.78
864.244	35.5
864.418	80.55
864.592	-3.41
864.766	-46.42
864.939	31.4
865.113	-44.37
865.287	12.97
865.461	6.83
865.634	15.02
865.808	62.12
865.982	25.26
866.156	-101.72
866.329	-75.09
866.503	10.92
866.676	64.17
866.85	19.11
867.024	-17.75
867.197	70.31
867.371	-5.46
867.544	-5.46
867.718	23.21
867.891	17.07
868.065	-15.7
868.238	8.87
868.412	43.69
868.585	-11.61
868.759	-21.85
868.932	-52.56
869.105	0.68
869.279	-5.46
869.452	49.83
869.625	-21.85
869.799	4.78
869.972	8.87
870.145	29.35
870.319	23.21
870.492	29.35
870.665	70.31
870.838	6.83
871.011	-15.7
871.185	47.79
871.358	39.59
871.531	-56.66
871.704	33.45
871.877	-48.47
872.05	35.5
872.223	27.31
872.396	10.92
872.569	39.59
872.742	-23.89
872.915	-27.99
873.088	-7.51
873.261	19.11
873.434	-17.75
873.607	37.55
873.78	23.21
873.953	6.83
874.126	29.35
874.299	41.64
874.471	0.68
874.644	10.92
874.817	19.11
874.99	49.83
875.163	-52.56
875.335	58.03
875.508	4.78
875.681	0.68
875.853	-11.61
876.026	55.98
876.199	-7.51
876.371	27.31
876.544	45.74
876.717	-42.32
876.889	-81.24
877.062	60.07
877.234	-32.08
877.407	21.16
877.579	15.02
877.752	66.22
877.924	70.31
878.097	-46.42
878.269	-46.42
878.442	43.69
878.614	17.07
878.786	72.36
878.959	33.45
879.131	78.51
879.303	55.98
879.476	15.02
879.648	33.45
879.82	-23.89
879.993	-7.51
880.165	-58.71
880.337	23.21
880.509	-23.89
880.681	-32.08
880.854	6.83
881.026	-21.85
881.198	74.41
881.37	80.55
881.542	53.93
881.714	-42.32
881.886	-50.52
882.058	-25.94
882.23	53.93
882.402	-11.61
882.574	66.22
882.746	10.92
882.918	17.07
883.09	-44.37
883.262	72.36
883.434	-5.46
883.606	-21.85
883.778	0.68
883.95	-27.99
884.122	-40.28
884.293	8.87
884.465	-46.42
884.637	-5.46
884.809	41.64
884.98	-40.28
885.152	45.74
885.324	8.87
885.496	-7.51
885.667	-21.85
885.839	15.02
886.011	8.87
886.182	15.02
886.354	23.21
886.525	0.68
886.697	66.22
886.869	-54.61
887.04	35.5
887.212	74.41
887.383	109.22
887.555	-1.37
887.726	23.21
887.897	-13.65
888.069	29.35
888.24	-30.04
888.412	29.35
888.583	-11.61
888.754	-17.75
888.926	-13.65
889.097	-15.7
889.268	-40.28
889.44	70.31
889.611	25.26
889.782	-9.56
889.953	-64.85
890.125	41.64
890.296	-38.23
890.467	0.68
890.638	-77.14
890.809	60.07
890.98	-66.9
891.151	58.03
891.323	39.59
891.494	0.68
891.665	-52.56
891.836	43.69
892.007	45.74
892.178	58.03
892.349	10.92
892.52	-40.28
892.691	-50.52
892.862	-3.41
893.032	-7.51
893.203	-40.28
893.374	25.26
893.545	25.26
893.716	23.21
893.887	-40.28
894.057	6.83
894.228	17.07
894.399	-17.75
894.57	0.68
894.74	37.55
894.911	-60.76
895.082	17.07
895.253	2.73
895.423	33.45
895.594	82.6
895.764	10.92
895.935	15.02
896.106	39.59
896.276	6.83
896.447	6.83
896.617	-83.28
896.788	-9.56
896.958	15.02
897.129	-7.51
897.299	60.07
897.47	58.03
897.64	78.51
897.81	-30.04
897.981	43.69
898.151	-7.51
898.322	8.87
898.492	17.07
898.662	10.92
898.832	-23.89
899.003	27.31
899.173	-9.56
899.343	-25.94
899.513	4.78
