Data from USB4F104151__63__12-24-10-287.txt Node

Date: Fri Mar 14 12:24:10 EDT 2025
User: louis
Spectrometer: USB4F10415
Trigger mode: 4
Integration Time (sec): 3.500000E-2
Scans to average: 1
Electric dark correction enabled: true
Nonlinearity correction enabled: false
Boxcar width: 0
XAxis mode: Wavelengths
Number of Pixels in Spectrum: 3648
>>>>>Begin Spectral Data<<<<<
178.204	-185
178.424	-185
178.644	-185
178.864	-156.33
179.084	-111.27
179.304	-21.16
179.524	-6.83
179.744	13.65
179.964	50.52
180.184	5.46
180.404	38.23
180.624	-10.92
180.844	44.37
181.064	-17.07
181.283	-8.87
181.503	-17.07
181.723	-70.31
181.943	-6.83
182.163	95.57
182.383	89.43
182.602	58.71
182.822	109.91
183.042	50.52
183.262	3.41
183.482	-25.26
183.701	-41.64
183.921	73.04
184.141	1.37
184.361	-37.55
184.58	40.28
184.8	91.48
185.02	73.04
185.239	109.91
185.459	34.13
185.679	79.19
185.898	17.75
186.118	101.72
186.338	40.28
186.557	56.66
186.777	-92.84
186.997	-66.22
187.216	3.41
187.436	58.71
187.655	66.9
187.875	30.04
188.095	-10.92
188.314	-12.97
188.534	11.61
188.753	-2.73
188.973	75.09
189.192	79.19
189.412	17.75
189.631	30.04
189.851	-6.83
190.07	66.9
190.29	23.89
190.509	-0.68
190.729	9.56
190.948	32.08
191.168	83.28
191.387	46.42
191.607	25.94
191.826	11.61
192.045	44.37
192.265	30.04
192.484	30.04
192.704	-8.87
192.923	-6.83
193.142	77.14
193.362	36.18
193.581	11.61
193.8	-0.68
194.02	81.24
194.239	-23.21
194.458	5.46
194.678	44.37
194.897	23.89
195.116	23.89
195.335	56.66
195.555	66.9
195.774	-6.83
195.993	71
196.212	-25.26
196.432	-58.03
196.651	1.37
196.87	81.24
197.089	202.07
197.308	19.8
197.528	17.75
197.747	-60.07
197.966	62.8
198.185	71
198.404	-0.68
198.623	15.7
198.842	116.05
199.062	38.23
199.281	-35.5
199.5	38.23
199.719	-4.78
199.938	54.61
200.157	54.61
200.376	-6.83
200.595	-2.73
200.814	46.42
201.033	-10.92
201.252	93.52
201.471	-21.16
201.69	83.28
201.909	5.46
202.128	79.19
202.347	107.86
202.566	-37.55
202.785	17.75
203.004	23.89
203.223	138.58
203.442	-43.69
203.661	23.89
203.879	-17.07
204.098	89.43
204.317	7.51
204.536	79.19
204.755	7.51
204.974	52.56
205.193	-25.26
205.411	60.76
205.63	1.37
205.849	73.04
206.068	107.86
206.287	52.56
206.505	-0.68
206.724	-6.83
206.943	48.47
207.162	11.61
207.381	-49.83
207.599	-15.02
207.818	89.43
208.037	-6.83
208.255	38.23
208.474	21.85
208.693	54.61
208.911	60.76
209.13	15.7
209.349	48.47
209.567	11.61
209.786	107.86
210.005	17.75
210.223	-4.78
210.442	-47.79
210.661	-45.74
210.879	42.32
211.098	-23.21
211.316	32.08
211.535	93.52
211.753	36.18
211.972	19.8
212.191	44.37
212.409	56.66
212.628	46.42
212.846	11.61
213.065	32.08
213.283	68.95
213.502	7.51
213.72	87.38
213.938	64.85
214.157	15.7
214.375	15.7
214.594	58.71
214.812	44.37
215.031	36.18
215.249	11.61
215.467	-39.59
215.686	58.71
215.904	5.46
216.122	13.65
216.341	73.04
216.559	-2.73
216.778	38.23
216.996	44.37
217.214	38.23
217.432	32.08
217.651	73.04
217.869	83.28
218.087	19.8
218.306	19.8
218.524	19.8
218.742	-33.45
218.96	27.99
219.179	15.7
219.397	83.28
219.615	109.91
219.833	66.9
220.051	60.76
220.27	-8.87
220.488	-39.59
220.706	15.7
220.924	-45.74
221.142	11.61
221.36	32.08
221.578	118.1
221.796	13.65
222.015	85.33
222.233	62.8
222.451	1.37
222.669	-4.78
222.887	77.14
223.105	52.56
223.323	-4.78
223.541	-43.69
223.759	42.32
223.977	34.13
224.195	60.76
224.413	36.18
224.631	44.37
224.849	21.85
225.067	52.56
225.285	-72.36
225.503	-29.35
225.721	15.7
225.939	23.89
226.157	36.18
226.375	89.43
226.592	7.51
226.81	34.13
227.028	77.14
227.246	60.76
227.464	-4.78
227.682	54.61
227.9	25.94
228.117	38.23
228.335	-17.07
228.553	48.47
228.771	-8.87
228.989	13.65
229.206	17.75
229.424	-29.35
229.642	-84.65
229.86	27.99
230.077	27.99
230.295	3.41
230.513	73.04
230.731	83.28
230.948	77.14
231.166	99.67
231.384	7.51
231.601	-0.68
231.819	46.42
232.037	23.89
232.254	-6.83
232.472	-15.02
232.689	-0.68
232.907	-12.97
233.125	34.13
233.342	42.32
233.56	-19.11
233.777	44.37
233.995	5.46
234.213	52.56
234.43	52.56
234.648	1.37
234.865	-27.31
235.083	50.52
235.3	50.52
235.518	34.13
235.735	81.24
235.953	25.94
236.17	-0.68
236.388	-10.92
236.605	21.85
236.822	85.33
237.04	81.24
237.257	-15.02
237.475	15.7
237.692	73.04
237.909	75.09
238.127	7.51
238.344	36.18
238.562	36.18
238.779	-47.79
238.996	-119.46
239.214	40.28
239.431	42.32
239.648	-37.55
239.865	93.52
240.083	-10.92
240.3	-4.78
240.517	-31.4
240.735	62.8
240.952	95.57
241.169	52.56
241.386	9.56
241.603	62.8
241.821	3.41
242.038	48.47
242.255	48.47
242.472	-51.88
242.689	93.52
242.907	71
243.124	-2.73
243.341	9.56
243.558	-19.11
243.775	38.23
243.992	-127.66
244.209	11.61
244.426	-0.68
244.643	128.34
244.86	-17.07
245.078	32.08
245.295	-0.68
245.512	-29.35
245.729	77.14
245.946	68.95
246.163	79.19
246.38	-10.92
246.597	-19.11
246.814	21.85
247.031	30.04
247.248	89.43
247.464	15.7
247.681	-17.07
247.898	9.56
248.115	50.52
248.332	-35.5
248.549	68.95
248.766	58.71
248.983	-37.55
249.2	34.13
249.417	15.7
249.633	71
249.85	13.65
250.067	-17.07
250.284	25.94
250.501	73.04
250.717	27.99
250.934	-19.11
251.151	-8.87
251.368	-27.31
251.585	32.08
251.801	30.04
252.018	62.8
252.235	48.47
252.451	40.28
252.668	-31.4
252.885	58.71
253.102	99.67
253.318	75.09
253.535	-35.5
253.752	34.13
253.968	-39.59
254.185	-53.93
254.401	25.94
254.618	-2.73
254.835	1.37
255.051	48.47
255.268	11.61
255.484	40.28
255.701	60.76
255.917	44.37
256.134	9.56
256.351	36.18
256.567	-131.75
256.784	50.52
257	-35.5
257.217	1.37
257.433	3.41
257.65	103.76
257.866	46.42
258.082	3.41
258.299	-51.88
258.515	25.94
258.732	99.67
258.948	-51.88
259.165	27.99
259.381	17.75
259.597	40.28
259.814	40.28
260.03	-8.87
260.246	50.52
260.463	136.53
260.679	40.28
260.895	83.28
261.112	-41.64
261.328	-55.98
261.544	-10.92
261.761	60.76
261.977	23.89
262.193	5.46
262.409	118.1
262.626	66.9
262.842	32.08
263.058	27.99
263.274	23.89
263.49	44.37
263.707	73.04
263.923	95.57
264.139	-21.16
264.355	40.28
264.571	11.61
264.787	25.94
265.004	-29.35
265.22	-2.73
265.436	79.19
265.652	79.19
265.868	111.96
266.084	-37.55
266.3	50.52
266.516	9.56
266.732	15.7
266.948	50.52
267.164	21.85
267.38	30.04
267.596	3.41
267.812	52.56
268.028	46.42
268.244	-31.4
268.46	23.89
268.676	34.13
268.892	50.52
269.108	-60.07
269.324	68.95
269.54	-15.02
269.756	48.47
269.972	15.7
270.188	50.52
270.403	17.75
270.619	42.32
270.835	34.13
271.051	17.75
271.267	21.85
271.483	-21.16
271.698	71
271.914	81.24
272.13	-10.92
272.346	15.7
272.562	7.51
272.777	23.89
272.993	71
273.209	-23.21
273.425	50.52
273.64	-41.64
273.856	56.66
274.072	-64.17
274.287	-45.74
274.503	-8.87
274.719	27.99
274.934	40.28
275.15	-31.4
275.366	-31.4
275.581	-8.87
275.797	60.76
276.012	-31.4
276.228	-6.83
276.444	11.61
276.659	36.18
276.875	9.56
277.09	75.09
277.306	71
277.521	3.41
277.737	21.85
277.952	95.57
278.168	36.18
278.383	-49.83
278.599	-15.02
278.814	44.37
279.03	11.61
279.245	15.7
279.461	40.28
279.676	89.43
279.892	-39.59
280.107	52.56
280.322	5.46
280.538	66.9
280.753	56.66
280.969	46.42
281.184	62.8
281.399	25.94
281.615	9.56
281.83	-10.92
282.045	34.13
282.26	-15.02
282.476	-55.98
282.691	79.19
282.906	23.89
283.122	21.85
283.337	21.85
283.552	54.61
283.767	32.08
283.983	64.85
284.198	19.8
284.413	68.95
284.628	-6.83
284.843	32.08
285.058	42.32
285.274	-35.5
285.489	-8.87
285.704	60.76
285.919	42.32
286.134	17.75
286.349	3.41
286.564	17.75
286.779	126.29
286.995	3.41
287.21	-19.11
287.425	71
287.64	17.75
287.855	19.8
288.07	81.24
288.285	38.23
288.5	-19.11
288.715	-19.11
288.93	93.52
289.145	-35.5
289.36	3.41
289.575	163.15
289.79	-21.16
290.004	-84.65
290.219	87.38
290.434	7.51
290.649	-15.02
290.864	-35.5
291.079	15.7
291.294	11.61
291.509	46.42
291.724	21.85
291.938	-2.73
292.153	93.52
292.368	-8.87
292.583	34.13
292.798	91.48
293.012	62.8
293.227	15.7
293.442	-86.7
293.657	83.28
293.871	62.8
294.086	27.99
294.301	85.33
294.516	87.38
294.73	71
294.945	15.7
295.16	-15.02
295.374	13.65
295.589	44.37
295.804	30.04
296.018	3.41
296.233	107.86
296.447	85.33
296.662	36.18
296.877	21.85
297.091	-0.68
297.306	68.95
297.52	62.8
297.735	64.85
297.949	40.28
298.164	32.08
298.378	9.56
298.593	-58.03
298.807	13.65
299.022	30.04
299.236	21.85
299.451	17.75
299.665	-15.02
299.88	7.51
300.094	32.08
300.309	58.71
300.523	64.85
300.737	-53.93
300.952	-0.68
301.166	52.56
301.381	-19.11
301.595	62.8
301.809	36.18
302.024	21.85
302.238	87.38
302.452	48.47
302.667	-19.11
302.881	19.8
303.095	50.52
303.309	81.24
303.524	42.32
303.738	40.28
303.952	21.85
304.166	-25.26
304.381	-6.83
304.595	99.67
304.809	-15.02
305.023	48.47
305.237	15.7
305.452	73.04
305.666	-6.83
305.88	52.56
306.094	62.8
306.308	87.38
306.522	40.28
306.736	40.28
306.95	-4.78
307.164	101.72
307.379	30.04
307.593	58.71
307.807	23.89
308.021	85.33
308.235	-33.45
308.449	17.75
308.663	5.46
308.877	109.91
309.091	60.76
309.305	68.95
309.519	-2.73
309.733	9.56
309.947	9.56
310.161	99.67
310.374	21.85
310.588	9.56
310.802	-8.87
311.016	58.71
311.23	79.19
311.444	-17.07
311.658	-10.92
311.872	85.33
312.085	52.56
312.299	46.42
312.513	60.76
312.727	64.85
312.941	-62.12
313.154	-27.31
313.368	-31.4
313.582	73.04
313.796	11.61
314.009	19.8
314.223	-64.17
314.437	58.71
314.651	15.7
314.864	-21.16
315.078	27.99
315.292	-27.31
315.505	-27.31
315.719	58.71
315.933	23.89
316.146	19.8
316.36	-4.78
316.573	50.52
316.787	109.91
317.001	91.48
317.214	15.7
317.428	13.65
317.641	-33.45
317.855	11.61
318.068	52.56
318.282	3.41
318.495	103.76
318.709	48.47
318.922	44.37
319.136	32.08
319.349	36.18
319.563	-8.87
319.776	23.89
319.99	-31.4
320.203	58.71
320.417	-29.35
320.63	73.04
320.843	120.15
321.057	58.71
321.27	-39.59
321.483	48.47
321.697	36.18
321.91	-33.45
322.124	17.75
322.337	54.61
322.55	42.32
322.763	7.51
322.977	-35.5
323.19	-41.64
323.403	-4.78
323.617	142.68
323.83	32.08
324.043	9.56
324.256	75.09
324.469	73.04
324.683	71
324.896	3.41
325.109	11.61
325.322	23.89
325.535	-6.83
325.748	30.04
325.962	30.04
326.175	-2.73
326.388	-4.78
326.601	40.28
326.814	93.52
327.027	3.41
327.24	77.14
327.453	17.75
327.666	13.65
327.879	52.56
328.092	68.95
328.305	21.85
328.518	-2.73
328.731	64.85
328.944	-47.79
329.157	23.89
329.37	5.46
329.583	77.14
329.796	132.44
330.009	1.37
330.222	58.71
330.435	118.1
330.648	68.95
330.861	36.18
331.073	-4.78
331.286	71
331.499	30.04
331.712	-6.83
331.925	48.47
332.138	15.7
332.35	73.04
332.563	3.41
332.776	105.81
332.989	-15.02
333.202	25.94
333.414	58.71
333.627	-82.6
333.84	-25.26
334.053	-2.73
334.265	3.41
334.478	7.51
334.691	17.75
334.903	21.85
335.116	17.75
335.329	-35.5
335.541	77.14
335.754	83.28
335.966	-82.6
336.179	19.8
336.392	13.65
336.604	68.95
336.817	46.42
337.029	62.8
337.242	15.7
337.454	73.04
337.667	7.51
337.88	25.94
338.092	48.47
338.305	15.7
338.517	-2.73
338.729	34.13
338.942	140.63
339.154	58.71
339.367	-29.35
339.579	40.28
339.792	11.61
340.004	34.13
340.217	38.23
340.429	13.65
340.641	-29.35
340.854	-4.78
341.066	81.24
341.278	146.77
341.491	132.44
341.703	95.57
341.915	-53.93
342.128	38.23
342.34	-78.51
342.552	71
342.764	40.28
342.977	9.56
343.189	114
343.401	3.41
343.613	27.99
343.826	62.8
344.038	17.75
344.25	21.85
344.462	-37.55
344.674	56.66
344.886	-43.69
345.099	-15.02
345.311	54.61
345.523	79.19
345.735	-0.68
345.947	25.94
346.159	32.08
346.371	40.28
346.583	109.91
346.795	58.71
347.007	-39.59
347.219	42.32
347.431	54.61
347.643	46.42
347.855	21.85
348.067	56.66
348.279	-33.45
348.491	21.85
348.703	1.37
348.915	-27.31
349.127	-19.11
349.339	19.8
349.551	23.89
349.763	36.18
349.975	107.86
350.187	52.56
350.399	58.71
350.61	64.85
350.822	17.75
351.034	71
351.246	-4.78
351.458	99.67
351.669	111.96
351.881	23.89
352.093	7.51
352.305	120.15
352.517	46.42
352.728	107.86
352.94	3.41
353.152	56.66
353.363	-23.21
353.575	38.23
353.787	38.23
353.999	75.09
354.21	52.56
354.422	93.52
354.633	83.28
354.845	52.56
355.057	-31.4
355.268	40.28
355.48	114
355.692	7.51
355.903	40.28
356.115	52.56
356.326	-62.12
356.538	75.09
356.749	3.41
356.961	105.81
357.172	52.56
357.384	-25.26
357.595	101.72
357.807	-10.92
358.018	17.75
358.23	25.94
358.441	142.68
358.653	38.23
358.864	-31.4
359.075	-72.36
359.287	124.24
359.498	85.33
359.709	-10.92
359.921	19.8
360.132	52.56
360.344	1.37
360.555	19.8
360.766	38.23
360.977	56.66
361.189	54.61
361.4	-4.78
361.611	81.24
361.823	58.71
362.034	1.37
362.245	-25.26
362.456	19.8
362.667	66.9
362.879	7.51
363.09	34.13
363.301	89.43
363.512	73.04
363.723	25.94
363.935	32.08
364.146	77.14
364.357	-47.79
364.568	79.19
364.779	-45.74
364.99	-8.87
365.201	79.19
365.412	71
365.623	-31.4
365.834	89.43
366.045	77.14
366.256	3.41
366.467	27.99
366.678	32.08
366.889	75.09
367.1	42.32
367.311	95.57
367.522	-27.31
367.733	85.33
367.944	11.61
368.155	48.47
368.366	71
368.577	50.52
368.788	68.95
368.999	66.9
369.209	19.8
369.42	64.85
369.631	83.28
369.842	97.62
370.053	-47.79
370.264	83.28
370.474	-37.55
370.685	-6.83
370.896	19.8
371.107	64.85
371.317	58.71
371.528	17.75
371.739	122.2
371.95	75.09
372.16	50.52
372.371	-45.74
372.582	-51.88
372.792	34.13
373.003	36.18
373.214	42.32
373.424	-10.92
373.635	34.13
373.846	77.14
374.056	60.76
374.267	130.39
374.477	19.8
374.688	71
374.898	46.42
375.109	3.41
375.319	64.85
375.53	73.04
375.74	75.09
375.951	38.23
376.161	-15.02
376.372	-12.97
376.582	-2.73
376.793	-47.79
377.003	-8.87
377.214	27.99
377.424	5.46
377.635	56.66
377.845	5.46
378.055	120.15
378.266	-70.31
378.476	25.94
378.686	109.91
378.897	34.13
379.107	105.81
379.317	11.61
379.528	-6.83
379.738	23.89
379.948	-74.41
380.158	38.23
380.369	73.04
380.579	58.71
380.789	13.65
380.999	64.85
381.21	89.43
381.42	122.2
381.63	-10.92
381.84	42.32
382.05	68.95
382.261	66.9
382.471	118.1
382.681	21.85
382.891	54.61
383.101	19.8
383.311	-35.5
383.521	73.04
383.731	95.57
383.941	52.56
384.151	95.57
384.361	58.71
384.571	66.9
384.781	56.66
384.991	48.47
385.201	44.37
385.411	81.24
385.621	-0.68
385.831	32.08
386.041	1.37
386.251	32.08
386.461	83.28
386.671	1.37
386.881	62.8
387.091	-66.22
387.301	91.48
387.511	50.52
387.72	68.95
387.93	64.85
388.14	85.33
388.35	-31.4
388.56	27.99
388.769	56.66
388.979	3.41
389.189	-6.83
389.399	107.86
389.609	116.05
389.818	64.85
390.028	42.32
390.238	60.76
390.447	30.04
390.657	46.42
390.867	-4.78
391.076	40.28
391.286	62.8
391.496	9.56
391.705	21.85
391.915	44.37
392.125	19.8
392.334	42.32
392.544	50.52
392.753	93.52
392.963	7.51
393.172	48.47
393.382	30.04
393.591	58.71
393.801	38.23
394.01	181.59
394.22	48.47
394.429	85.33
394.639	7.51
394.848	60.76
395.058	73.04
395.267	77.14
395.477	132.44
395.686	79.19
395.895	64.85
396.105	95.57
396.314	159.06
396.524	73.04
396.733	50.52
396.942	83.28
397.152	-21.16
397.361	114
397.57	122.2
397.78	-29.35
397.989	32.08
398.198	93.52
398.407	101.72
398.617	-4.78
398.826	50.52
399.035	73.04
399.244	107.86
399.453	93.52
399.663	25.94
399.872	142.68
400.081	40.28
400.29	116.05
400.499	120.15
400.708	46.42
400.917	91.48
401.127	9.56
401.336	9.56
401.545	159.06
401.754	163.15
401.963	93.52
402.172	-6.83
402.381	30.04
402.59	77.14
402.799	52.56
403.008	32.08
403.217	93.52
403.426	64.85
403.635	89.43
403.844	64.85
404.053	87.38
404.262	75.09
404.471	132.44
404.68	177.49
404.888	128.34
405.097	99.67
405.306	99.67
405.515	191.83
405.724	109.91
405.933	97.62
406.142	150.87
406.35	163.15
406.559	52.56
406.768	128.34
406.977	200.02
407.185	142.68
407.394	122.2
407.603	95.57
407.812	173.39
408.02	173.39
408.229	118.1
408.438	142.68
408.646	126.29
408.855	134.48
409.064	208.21
409.272	210.26
409.481	245.07
409.69	181.59
409.898	179.54
410.107	150.87
410.315	175.44
410.524	220.5
410.733	226.64
410.941	195.92
411.15	275.79
411.358	247.12
411.567	331.09
411.775	238.93
411.984	267.6
412.192	290.13
412.401	341.33
412.609	228.69
412.818	437.58
413.026	415.06
413.234	296.27
413.443	355.66
413.651	376.14
413.86	331.09
414.068	451.92
414.276	449.87
414.485	427.34
414.693	429.39
414.901	451.92
415.11	443.73
415.318	492.88
415.526	488.78
415.734	529.74
415.943	499.02
416.151	613.71
416.359	570.7
416.567	603.47
416.776	623.95
416.984	664.91
417.192	699.72
417.4	570.7
417.608	642.38
417.817	601.42
418.025	609.61
418.233	820.55
418.441	724.3
418.649	750.92
418.857	802.12
419.065	798.03
419.273	892.23
419.481	873.8
419.689	881.99
419.897	951.62
420.105	996.68
420.313	1037.64
420.521	1103.17
420.729	1074.5
420.937	1129.8
421.145	1207.62
421.353	1181
421.561	1174.85
421.769	1355.07
421.977	1361.22
422.185	1264.96
422.393	1453.38
422.601	1566.01
422.809	1545.53
423.017	1586.49
423.224	1668.41
423.432	1652.03
423.64	1658.17
423.848	1871.16
424.056	1766.71
424.263	1938.74
424.471	1885.5
424.679	1910.07
424.887	2022.71
425.094	2090.29
425.302	2121.01
425.51	2071.86
425.718	2295.09
425.925	2180.4
426.133	2303.28
426.341	2540.85
426.548	2600.24
426.756	2647.34
426.964	2694.44
427.171	2792.75
427.379	2798.89
427.586	2923.82
427.794	2835.75
428.001	3011.88
428.209	3255.59
428.417	3036.45
428.624	3517.73
428.832	3527.97
429.039	3403.04
429.247	3403.04
429.454	3708.19
429.662	3912.99
429.869	3726.62
430.076	3976.47
430.284	3908.89
430.491	4015.38
430.699	4183.32
430.906	4351.25
431.114	4326.68
431.321	4644.11
431.528	4564.24
431.736	5004.55
431.943	5072.14
432.15	5018.89
432.358	5096.71
432.565	5428.48
432.772	5414.15
432.979	5504.26
433.187	5725.44
433.394	5672.19
433.601	5901.56
433.808	6165.75
434.016	5901.56
434.223	6247.67
434.43	6452.47
434.637	6554.87
434.844	7009.51
435.052	7077.1
435.259	7130.34
435.466	7091.43
435.673	7134.44
435.88	7560.42
436.087	7931.1
436.294	7896.28
436.501	7595.23
436.708	7853.28
436.915	8248.54
437.122	8469.72
437.329	8559.83
437.537	8778.96
437.743	8754.38
437.95	8944.84
438.157	9268.42
438.364	9419.97
438.571	9557.19
438.778	9761.98
438.985	10661.04
439.192	10212.54
439.399	10351.8
439.606	10044.6
439.813	10947.76
440.02	11521.19
440.227	11383.98
440.433	11109.55
440.64	11476.13
440.847	11261.1
441.054	11852.96
441.261	12692.63
441.467	12344.47
441.674	12399.77
441.881	12936.34
442.088	13003.92
442.294	13163.66
442.501	13151.37
442.708	13472.9
442.914	14259.32
443.121	14699.64
443.328	14232.7
443.534	15379.56
443.741	14711.92
443.948	14769.27
444.154	15776.87
444.361	15703.14
444.568	15549.54
444.774	15615.08
444.981	15803.49
445.187	16620.63
445.394	17359.95
445.6	16948.31
445.807	18392.12
446.013	17597.51
446.22	17962.05
446.426	18641.98
446.633	19119.15
446.839	19883.05
447.046	18879.54
447.252	19821.61
447.459	19792.94
447.665	19952.68
447.871	20804.63
448.078	21554.19
448.284	20544.54
448.491	21103.64
448.697	21998.6
448.903	22547.45
449.11	22354.94
449.316	21914.63
449.522	22594.56
449.728	23022.58
449.935	23362.54
450.141	22991.86
450.347	23743.47
450.553	22787.07
450.76	23325.68
450.966	24050.66
451.172	24021.99
451.378	24515.55
451.584	24318.95
451.791	24437.73
451.997	24153.06
452.203	24802.27
452.409	25134.04
452.615	24730.59
452.821	23950.31
453.027	23589.87
453.233	24753.12
453.44	23821.29
453.646	24400.86
453.852	24263.65
454.058	24749.02
454.264	23589.87
454.47	24277.99
454.676	23929.83
454.882	24832.99
455.088	22647.8
455.294	22961.14
455.5	23075.83
455.705	23200.76
455.911	22543.36
456.117	21791.75
456.323	21695.5
456.529	20569.12
456.735	21490.7
456.941	20753.43
457.147	20472.86
457.352	19909.67
457.558	19676.2
457.764	19631.15
457.97	19237.94
458.176	19231.79
458.381	18928.69
458.587	17861.7
458.793	17992.77
458.999	17028.18
459.204	18185.28
459.41	17734.73
459.616	16280.67
459.821	16503.9
460.027	16454.75
460.233	15930.47
460.438	15344.75
460.644	15318.12
460.85	14806.13
461.055	14599.29
461.261	14408.83
461.466	13495.43
461.672	13192.33
461.878	13978.75
462.083	13042.83
462.289	12733.59
462.494	12367
462.7	12070.05
462.905	11762.85
463.111	12266.65
463.316	12346.52
463.522	11875.49
463.727	11893.92
463.932	11818.15
464.138	11674.79
464.343	12080.28
464.549	11422.89
464.754	11852.96
464.959	11883.68
465.165	11781.28
465.37	11291.82
465.575	10919.09
465.781	11349.16
465.986	11457.7
466.191	11064.49
466.397	10851.5
466.602	10366.14
466.807	10734.77
467.012	10509.49
467.218	10681.52
467.423	10601.65
467.628	10517.68
467.833	11019.44
468.038	10585.27
468.244	10280.12
468.449	10536.12
468.654	10437.81
468.859	10474.68
469.064	10267.83
469.269	9673.92
469.474	9915.58
469.679	10228.92
469.885	9839.81
470.09	10179.77
470.295	9776.32
470.5	9692.35
470.705	9663.68
470.91	9471.17
471.115	9381.06
471.32	9594.05
471.525	9567.43
471.73	9303.24
471.935	9030.86
472.139	8864.97
472.344	9012.43
472.549	8844.49
472.754	8840.4
472.959	8514.77
473.164	8342.74
473.369	8324.31
473.574	8594.64
473.778	8588.5
473.983	8551.63
474.188	8326.36
474.393	8086.75
474.598	8379.61
474.802	8068.31
475.007	7843.04
475.212	8074.46
475.417	7687.39
475.621	7840.99
475.826	7814.37
476.031	7458.02
476.235	7347.43
476.44	7738.59
476.645	7281.89
476.849	7505.12
477.054	7343.33
477.259	7247.08
477.463	7318.76
477.668	7111.91
477.872	7060.71
478.077	7027.95
478.282	6706.42
478.486	6690.03
478.691	6782.19
478.895	6728.94
479.1	6692.08
479.304	6532.34
479.509	6431.99
479.713	6700.27
479.918	6368.5
480.122	6292.73
480.326	6692.08
480.531	6444.28
480.735	6307.06
480.94	6282.49
481.144	6614.26
481.348	6184.18
481.553	6378.74
481.757	6092.02
481.961	6214.9
482.166	6427.89
482.37	6233.33
482.574	6175.99
482.778	6120.7
482.983	6364.4
483.187	6202.61
483.391	6192.37
483.595	6077.69
483.8	6130.94
484.004	6161.66
484.208	6335.73
484.412	6352.12
484.616	6186.23
484.821	6122.74
485.025	6067.45
485.229	6104.31
485.433	6114.55
485.637	6137.08
485.841	6120.7
486.045	6298.87
486.249	6139.13
486.453	6190.33
486.657	6102.26
486.861	6001.91
487.065	6108.41
487.269	6087.93
487.473	6034.68
487.677	6251.77
487.881	6298.87
488.085	6186.23
488.289	6268.15
488.493	6130.94
488.697	6311.16
488.901	6180.09
489.105	6243.57
489.309	6360.31
489.512	6212.85
489.716	6292.73
489.92	6376.69
490.124	6251.77
490.328	6286.58
490.531	6182.14
490.735	6485.23
490.939	6563.06
491.143	6126.84
491.346	6354.16
491.55	6489.33
491.754	6431.99
491.958	6438.13
492.161	6251.77
492.365	6522.1
492.569	6534.39
492.772	6368.5
492.976	6700.27
493.18	6608.11
493.383	6638.83
493.587	6765.81
493.79	6757.61
493.994	6952.17
494.197	6534.39
494.401	6923.5
494.605	6702.32
494.808	6980.84
495.012	7097.58
495.215	7093.48
495.419	7191.78
495.622	7064.81
495.825	7367.91
496.029	7210.22
496.232	7341.29
496.436	7234.79
496.639	7611.62
496.843	7492.84
497.046	7564.51
497.249	7935.2
497.453	7789.79
497.656	7892.19
497.859	7750.88
498.063	7949.53
498.266	7998.68
498.469	8002.78
498.673	8314.07
498.876	8314.07
499.079	8176.86
499.282	8348.89
499.485	8701.14
499.689	8514.77
499.892	8846.54
500.095	8762.58
500.298	8897.74
500.501	8826.06
500.705	9018.57
500.908	9168.07
501.111	9272.52
501.314	9260.23
501.517	9598.15
501.72	9518.28
501.923	9393.35
502.126	9927.87
502.329	10013.88
502.532	10017.98
502.735	10200.25
502.938	10349.75
503.141	10566.84
503.344	10474.68
503.547	10640.56
503.75	10675.38
503.953	10945.71
504.156	10929.33
504.359	11293.86
504.562	11158.7
504.765	11324.58
504.968	11556
505.17	11922.59
505.373	11754.66
505.576	11895.97
505.779	12123.29
505.982	11795.62
506.185	12303.51
506.387	12520.6
506.59	12496.02
506.793	12709.01
506.996	12956.82
507.198	13196.43
507.401	13028.49
507.604	13317.26
507.807	13513.86
508.009	13493.38
508.212	13784.19
508.415	13792.39
508.617	14179.45
508.82	13999.23
509.022	14288
509.225	14701.68
509.428	14840.95
509.63	14871.67
509.833	14906.48
510.035	15531.11
510.238	15352.94
510.44	15647.85
510.643	15441
510.845	15725.67
511.048	15918.18
511.25	16077.92
511.453	16188.51
511.655	16843.86
511.858	16639.06
512.06	16878.68
512.262	16991.31
512.465	17118.29
512.667	17364.04
512.87	17484.87
513.072	17638.47
513.274	17941.57
513.477	18302.01
513.679	18312.25
513.881	18613.31
514.084	18965.56
514.286	18711.61
514.488	19244.08
514.69	19541.04
514.893	19340.33
515.095	19897.38
515.297	19776.55
515.499	20038.69
515.701	20313.12
515.904	20479
516.106	20859.93
516.308	21056.53
516.51	21222.42
516.712	21392.4
516.914	21537.8
517.116	21990.41
517.318	21928.97
517.52	22223.87
517.722	22303.74
517.925	22582.27
518.127	22819.83
518.329	23086.07
518.531	23034.87
518.733	23593.97
518.935	23626.73
519.136	23733.23
519.338	24161.25
519.54	24474.59
519.742	24611.81
519.944	25115.61
520.146	25437.14
520.348	25095.13
520.55	25553.87
520.752	25596.88
520.954	26237.89
521.155	25873.35
521.357	26557.38
521.559	26555.33
521.761	26966.97
521.963	27304.88
522.164	27292.6
522.366	27777.97
522.568	27775.92
522.77	28158.89
522.971	28601.25
523.173	28205.99
523.375	28527.52
523.576	28502.95
523.778	28879.77
523.98	29074.33
524.181	29404.05
524.383	29455.25
524.584	30129.03
524.786	29766.54
524.988	29877.13
525.189	30194.57
525.391	30921.6
525.592	30614.4
525.794	30825.34
525.995	30958.46
526.197	30950.27
526.398	31017.85
526.6	31351.67
526.801	31796.08
527.003	31691.63
527.204	31839.09
527.406	32416.61
527.607	32441.19
527.808	32830.3
528.01	31978.35
528.211	32445.29
528.412	32858.98
528.614	33039.2
528.815	33082.2
529.016	33047.39
529.218	32944.99
529.419	33416.02
529.62	33596.24
529.822	33430.36
530.023	33499.99
530.224	33897.3
530.425	33569.62
530.626	33510.23
530.828	33610.58
531.029	34298.7
531.23	33596.24
531.431	33755.99
531.632	33932.11
531.833	34177.87
532.035	34274.12
532.236	33915.73
532.437	34538.31
532.638	34036.56
532.839	34499.4
533.04	34515.78
533.241	34433.86
533.442	34935.62
533.643	34708.29
533.844	34349.9
534.045	34646.85
534.246	34466.63
534.447	35439.42
534.648	34573.13
534.849	35216.19
535.05	34487.11
535.251	34923.33
535.451	34997.06
535.652	35056.45
535.853	34980.67
536.054	34960.19
536.255	35476.28
536.456	34716.48
536.657	35461.94
536.857	35341.11
537.058	34683.72
537.259	35302.2
537.46	35363.64
537.66	34949.95
537.861	35224.38
538.062	34894.66
538.263	35052.35
538.463	34892.61
538.664	35113.79
538.865	35054.4
539.065	35224.38
539.266	34857.79
539.466	35228.48
539.667	34642.76
539.868	35580.73
540.068	35038.01
540.269	35013.44
540.469	35380.03
540.67	34739.01
540.87	35130.17
541.071	35197.76
541.271	35218.24
541.472	35070.78
541.672	34845.51
541.873	34790.21
542.073	34759.49
542.274	35263.29
542.474	35183.42
542.675	34802.5
542.875	35193.66
543.075	34986.82
543.276	34634.56
543.476	35078.97
543.676	34931.52
543.877	34935.62
544.077	35181.37
544.277	35007.3
544.478	34868.03
544.678	34978.62
544.878	34863.94
545.078	35033.92
545.279	34769.73
545.479	34532.17
545.679	35171.13
545.879	34794.31
546.079	35189.56
546.28	34947.9
546.48	34771.78
546.68	34784.07
546.88	34798.4
547.08	35064.64
547.28	34878.27
547.48	34259.79
547.68	34814.79
547.88	34820.93
548.081	34988.86
548.281	34673.48
548.481	34831.17
548.681	35128.13
548.881	34896.7
549.081	34616.13
549.28	34575.17
549.48	34743.11
549.68	34747.2
549.88	35439.42
550.08	34751.3
550.28	35054.4
550.48	34493.25
550.68	34837.31
550.88	34530.12
551.08	34325.32
551.279	34872.13
551.479	34562.89
551.679	34921.28
551.879	34440.01
552.079	34452.3
552.278	34599.75
552.478	34566.98
552.678	34704.2
552.878	34460.49
553.077	34683.72
553.277	34394.95
553.477	34720.58
553.676	34440.01
553.876	34728.77
554.076	34134.86
554.275	34302.79
554.475	34112.33
554.674	34538.31
554.874	34126.67
555.074	34186.06
555.273	33930.06
555.473	34243.4
555.672	34120.52
555.872	34247.5
556.071	34077.52
556.271	34220.88
556.47	33997.65
556.67	33919.82
556.869	34032.46
557.068	34120.52
557.268	33606.48
557.467	33860.43
557.667	33846.1
557.866	33768.27
558.065	33645.4
558.265	33633.11
558.464	33274.71
558.663	33465.17
558.863	33393.5
559.062	33786.71
559.261	33100.64
559.461	33219.42
559.66	33018.72
559.859	32932.7
560.058	33010.53
560.258	33217.37
560.457	32779.11
560.656	32981.85
560.855	32508.77
561.054	32729.95
561.253	32303.98
561.453	33069.92
561.652	32830.3
561.851	32258.92
562.05	32512.87
562.249	32379.75
562.448	32580.45
562.647	32465.77
562.846	32011.12
563.045	32236.39
563.244	31540.08
563.443	32129.9
563.642	31789.94
563.841	32050.03
564.04	31495.03
564.239	31630.19
564.438	31341.43
564.637	31505.27
564.836	31316.86
565.035	30845.82
565.234	31304.57
565.432	31083.39
565.631	30954.36
565.83	31089.53
566.029	30669.7
566.228	30489.48
566.427	30899.07
566.625	30436.23
566.824	30129.03
567.023	30630.79
567.222	29946.76
567.42	30555.01
567.619	30135.18
567.818	29909.9
568.016	29721.49
568.215	30284.68
568.414	29502.36
568.612	29813.65
568.811	29502.36
569.01	29680.53
569.208	29254.55
569.407	29526.93
569.605	29072.28
569.804	29424.53
570.002	28699.55
570.201	29123.48
570.4	28666.78
570.598	28464.03
570.797	28470.18
570.995	28423.08
571.193	28318.63
571.392	28406.69
571.59	28038.06
571.789	28099.5
571.987	28122.02
572.186	28038.06
572.384	27581.36
572.582	28027.82
572.781	27861.93
572.979	27390.9
573.177	27685.81
573.376	27773.87
573.574	27153.33
573.772	27511.73
573.971	27018.17
574.169	26895.29
574.367	26811.32
574.565	26805.18
574.763	26856.38
574.962	26809.28
575.16	26020.81
575.358	26663.87
575.556	26239.94
575.754	26561.47
575.952	26270.66
576.151	26368.96
576.349	26006.47
576.547	25897.93
576.745	25963.47
576.943	26098.63
577.141	25793.48
577.339	25838.54
577.537	25576.4
577.735	25686.99
577.933	25121.75
578.131	25338.83
578.329	25482.19
578.527	24951.77
578.725	25371.6
578.923	24919
579.121	25002.97
579.319	24916.95
579.516	24937.43
579.714	24863.71
579.912	24507.36
580.11	24380.39
580.308	24234.98
580.506	24339.43
580.704	23917.54
580.901	24142.82
581.099	24337.38
581.297	24282.08
581.495	23903.21
581.692	23978.98
581.89	23770.09
582.088	23974.89
582.285	23657.45
582.483	23981.03
582.681	23430.13
582.878	23616.49
583.076	23284.72
583.274	23399.41
583.471	23184.37
583.669	23227.38
583.866	23151.6
584.064	23251.95
584.262	22830.07
584.459	22957.05
584.657	22733.82
584.854	23225.33
585.052	22402.05
585.249	22764.54
585.447	22469.63
585.644	22227.97
585.841	22490.11
586.039	22430.72
586.236	22236.16
586.434	22146.05
586.631	22101
586.828	21965.83
587.026	22055.94
587.223	21961.73
587.42	21713.93
587.618	21789.7
587.815	21629.96
588.012	21599.24
588.21	21754.89
588.407	21738.51
588.604	21310.48
588.801	21242.9
588.999	21423.12
589.196	21290
589.393	21437.45
589.59	21113.88
589.787	21085.2
589.984	20917.27
590.182	21054.48
590.379	20845.59
590.576	20704.28
590.773	20339.74
590.97	20581.4
591.167	20663.32
591.364	20352.03
591.561	20466.72
591.758	20331.55
591.955	20497.44
592.152	20331.55
592.349	20147.23
592.546	20132.9
592.743	20169.76
592.94	19938.34
593.137	19962.92
593.334	19973.16
593.531	19602.47
593.727	19868.71
593.924	20012.07
594.121	19399.73
594.318	19782.7
594.515	19516.46
594.712	19354.67
594.908	19561.51
595.105	19311.66
595.302	19117.11
595.499	19385.39
595.696	18897.97
595.892	19041.33
596.089	19145.78
596.286	18994.23
596.482	19127.35
596.679	19084.34
596.876	19072.05
597.072	18916.4
597.269	18572.35
597.466	18629.69
597.662	18420.8
597.859	18582.59
598.055	18547.77
598.252	18310.21
598.448	18531.39
598.645	18146.37
598.841	18005.06
599.038	18029.63
599.234	18422.84
599.431	18023.49
599.627	17939.52
599.824	18074.69
600.02	17859.65
600.217	17847.36
600.413	17886.28
600.609	17704.01
600.806	17345.61
601.002	17869.89
601.198	17650.76
601.395	17464.39
601.591	17505.35
601.787	17318.99
601.984	17407.05
602.18	17538.12
602.376	17335.37
602.572	17280.08
602.769	17142.86
602.965	16919.64
603.161	17003.6
603.357	16884.82
603.553	16868.44
603.75	16874.58
603.946	16665.69
604.142	16637.02
604.338	16802.9
604.534	17013.84
604.73	16403.55
604.926	16653.4
605.122	16481.37
605.318	16325.72
605.514	16338.01
605.71	16362.59
605.906	16374.88
606.102	16061.54
606.298	16233.57
606.494	16170.08
606.69	16196.7
606.886	16235.61
607.082	15815.78
607.278	15977.57
607.474	15817.83
607.67	15836.26
607.866	15625.32
608.062	15885.41
608.257	15887.46
608.453	15668.33
608.649	15649.89
608.845	15520.87
609.041	15584.36
609.236	15707.24
609.432	15467.63
609.628	15266.92
609.824	15359.08
610.019	15139.95
610.215	15205.49
610.411	15309.93
610.606	15115.37
610.802	15156.33
610.998	14967.92
611.193	15047.79
611.389	14840.95
611.584	15041.65
611.78	14779.51
611.976	14986.35
612.171	14906.48
612.367	14580.85
612.562	14886
612.758	14582.9
612.953	14668.92
613.149	14642.29
613.344	14777.46
613.539	15084.66
613.735	14785.65
613.93	14824.56
614.126	14658.68
614.321	14879.86
614.517	14591.09
614.712	14650.49
614.907	14478.46
615.103	14318.71
615.298	14267.52
615.493	14490.74
615.688	14324.86
615.884	14554.23
616.079	14083.2
616.274	14267.52
616.47	13952.13
616.665	14091.39
616.86	14349.43
617.055	13741.19
617.25	14171.26
617.445	14122.11
617.641	13784.19
617.836	14023.81
618.031	13778.05
618.226	13911.17
618.421	13931.65
618.616	13960.32
618.811	13325.45
619.006	13517.96
619.201	13606.02
619.396	13597.83
619.591	13208.72
619.786	13440.14
619.981	13288.59
620.176	13192.33
620.371	13053.07
620.566	13221
620.761	13083.79
620.956	13225.1
621.151	13001.87
621.346	12844.18
621.541	12954.77
621.735	13130.89
621.93	12756.11
622.125	12756.11
622.32	12332.19
622.515	12547.22
622.709	12465.3
622.904	12623
623.099	12264.6
623.294	12442.78
623.488	12141.72
623.683	12219.55
623.878	11988.13
624.072	12033.18
624.267	12043.42
624.462	11984.03
624.656	11826.34
624.851	12154.01
625.046	11695.27
625.24	11635.88
625.435	11560.1
625.629	11347.11
625.824	11533.48
626.018	11433.13
626.213	11238.57
626.407	11390.12
626.602	11156.65
626.796	11142.32
626.991	11179.18
627.185	11308.2
627.38	11015.34
627.574	10513.59
627.768	11007.15
627.963	10640.56
628.157	10642.61
628.352	10691.76
628.546	10536.12
628.74	10878.13
628.935	10595.51
629.129	10493.11
629.323	10405.05
629.517	10435.77
629.712	10343.61
629.906	10210.49
630.1	10042.56
630.294	10177.72
630.489	10015.93
630.683	10118.33
630.877	9927.87
631.071	10048.7
631.265	9784.51
631.459	9946.3
631.653	9792.7
631.848	9934.01
632.042	9536.71
632.236	9901.25
632.43	9604.29
632.624	9626.82
632.818	9585.86
633.012	9434.31
633.206	9307.34
633.4	9514.18
633.594	9209.03
633.788	9452.74
633.982	9194.7
634.176	9022.67
634.369	9004.24
634.563	9229.51
634.757	8942.8
634.951	8991.95
635.145	9008.33
635.339	9014.48
635.533	8709.33
635.726	8529.11
635.92	8512.72
636.114	8619.22
636.308	8514.77
636.501	8262.87
636.695	8547.54
636.889	8428.76
637.083	8312.02
637.276	8283.35
637.47	8375.51
637.664	8068.31
637.857	8328.41
638.051	8201.43
638.244	8262.87
638.438	8162.52
638.632	8125.66
638.825	7752.93
639.019	7828.7
639.212	7916.76
639.406	7808.22
639.599	7816.41
639.793	7851.23
639.986	7636.19
640.18	7541.99
640.373	7732.45
640.567	7521.51
640.76	7550.18
640.954	7476.45
641.147	7423.2
641.34	7349.48
641.534	7419.11
641.727	7382.24
641.92	7466.21
642.114	7329
642.307	7126.25
642.5	7228.65
642.694	7142.63
642.887	6886.64
643.08	7025.9
643.273	7064.81
643.467	7052.52
643.66	6765.81
643.853	7017.71
644.046	6774
644.239	6968.56
644.432	6776.05
644.626	6857.96
644.819	6829.29
645.012	6757.61
645.205	6634.74
645.398	6673.65
645.591	6728.94
645.784	6536.43
645.977	6409.46
646.17	6372.6
646.363	6427.89
646.556	6280.44
646.749	6171.9
646.942	6341.88
647.135	6321.4
647.328	6188.28
647.521	6235.38
647.714	6081.78
647.907	6135.03
648.099	6026.49
648.292	6096.12
648.485	6040.83
648.678	5909.76
648.871	6038.78
649.064	5911.8
649.256	5973.24
649.449	5778.69
649.642	5864.7
649.835	5885.18
650.027	5729.53
650.22	5733.63
650.413	5655.81
650.605	5776.64
650.798	5651.71
650.991	5514.5
651.183	5483.78
651.376	5563.65
651.568	5461.25
651.761	5438.72
651.954	5606.66
652.146	5530.88
652.339	5455.11
652.531	5498.11
652.724	5391.62
652.916	5248.26
653.109	5242.12
653.301	5416.19
653.494	5334.28
653.686	5098.76
653.879	5297.41
654.071	5227.78
654.263	5094.66
654.456	5096.71
654.648	5137.67
654.84	5123.34
655.033	5059.85
655.225	5115.14
655.417	4988.17
655.61	5096.71
655.802	4867.34
655.994	5002.51
656.186	5127.43
656.379	4969.74
656.571	4818.19
656.763	4838.67
656.955	4932.87
657.148	4945.16
657.34	4838.67
657.532	4842.76
657.724	4619.53
657.916	4738.32
658.108	4656.4
658.3	4584.72
658.492	4719.89
658.684	4547.86
658.876	4609.3
659.068	4562.19
659.26	4523.28
659.452	4439.31
659.644	4594.96
659.836	4586.77
660.028	4533.52
660.22	4320.53
660.412	4431.12
660.604	4386.07
660.796	4367.63
660.988	4326.68
661.18	4445.46
661.372	4349.2
661.563	4304.15
661.755	4365.59
661.947	4175.13
662.139	4203.8
662.331	4209.94
662.522	4205.85
662.714	4185.37
662.906	4117.78
663.097	4033.82
663.289	4185.37
663.481	4048.15
663.673	4228.37
663.864	3892.51
664.056	4109.59
664.247	3976.47
664.439	3966.23
664.631	4007.19
664.822	4052.25
665.014	4013.34
665.205	4003.1
665.397	3996.95
665.588	3976.47
665.78	4001.05
665.971	3904.79
666.163	3904.79
666.354	3912.99
666.546	3872.03
666.737	3833.11
666.929	3886.36
667.12	3851.55
667.311	3792.16
667.503	3693.85
667.694	3765.53
667.885	3720.48
668.077	3847.45
668.268	3603.74
668.459	3695.9
668.651	3779.87
668.842	3691.81
669.033	3527.97
669.224	3663.13
669.416	3855.64
669.607	3656.99
669.798	3749.15
669.989	3652.89
670.18	3777.82
670.371	3738.91
670.563	3611.93
670.754	3556.64
670.945	3636.51
671.136	3656.99
671.327	3501.34
671.518	3513.63
671.709	3634.46
671.9	3689.76
672.091	3484.96
672.282	3540.26
672.473	3628.32
672.664	3544.35
672.855	3562.78
673.046	3630.37
673.237	3583.26
673.428	3534.11
673.619	3493.15
673.809	3355.94
674	3630.37
674.191	3396.9
674.382	3468.58
674.573	3519.78
674.764	3548.45
674.954	3503.39
675.145	3458.34
675.336	3511.58
675.527	3523.87
675.717	3550.5
675.908	3538.21
676.099	3452.19
676.289	3646.75
676.48	3511.58
676.671	3517.73
676.861	3458.34
677.052	3511.58
677.243	3484.96
677.433	3534.11
677.624	3589.41
677.814	3470.62
678.005	3390.75
678.195	3618.08
678.386	3505.44
678.576	3433.76
678.767	3601.69
678.957	3419.43
679.148	3480.86
679.338	3591.45
679.529	3458.34
679.719	3456.29
679.909	3601.69
680.1	3534.11
680.29	3593.5
680.481	3603.74
680.671	3491.1
680.861	3597.6
681.052	3673.37
681.242	3564.83
681.432	3554.59
681.622	3480.86
681.813	3505.44
682.003	3433.76
682.193	3542.3
682.383	3607.84
682.573	3517.73
682.764	3603.74
682.954	3587.36
683.144	3663.13
683.334	3587.36
683.524	3454.24
683.714	3497.25
683.904	3517.73
684.094	3579.17
684.284	3532.06
684.474	3712.28
684.664	3579.17
684.854	3536.16
685.044	3677.47
685.234	3585.31
685.424	3476.77
685.614	3507.49
685.804	3556.64
685.994	3525.92
686.184	3470.62
686.374	3482.91
686.564	3456.29
686.753	3439.9
686.943	3460.38
687.133	3355.94
687.323	3376.42
687.513	3476.77
687.702	3388.71
687.892	3388.71
688.082	3523.87
688.272	3351.84
688.461	3376.42
688.651	3339.55
688.841	3405.09
689.03	3353.89
689.22	3251.49
689.41	3353.89
689.599	3310.88
689.789	3271.97
689.979	3251.49
690.168	3243.3
690.358	3124.52
690.547	3075.37
690.737	3093.8
690.926	3151.14
691.116	3190.05
691.305	3147.05
691.495	3020.07
691.684	3116.33
691.874	3122.47
692.063	3061.03
692.252	3009.83
692.442	3089.7
692.631	3005.74
692.82	3030.31
693.01	2938.15
693.199	2835.75
693.388	2901.29
693.578	3075.37
693.767	2942.25
693.956	2897.19
694.146	2919.72
694.335	2792.75
694.524	2975.02
694.713	2962.73
694.902	2901.29
695.092	2893.1
695.281	2856.23
695.47	2903.34
695.659	2886.95
695.848	2944.3
696.037	2794.79
696.226	2889
696.415	2845.99
696.604	2800.94
696.793	2800.94
696.982	2833.71
697.171	2827.56
697.36	2868.52
697.549	2839.85
697.738	2710.83
697.927	2780.46
698.116	2821.42
698.305	2825.51
698.494	2837.8
698.683	2897.19
698.872	2942.25
699.061	2897.19
699.25	2749.74
699.438	2729.26
699.627	2882.86
699.816	2843.95
700.005	2870.57
700.193	2817.32
700.382	2794.79
700.571	2721.07
700.76	2759.98
700.948	2868.52
701.137	2852.14
701.326	2901.29
701.514	2737.45
701.703	2891.05
701.892	2759.98
702.08	2960.68
702.269	2719.02
702.457	2823.47
702.646	2807.08
702.834	2792.75
703.023	2858.28
703.212	2874.67
703.4	2895.15
703.589	2845.99
703.777	2848.04
703.965	2745.64
704.154	2807.08
704.342	2741.55
704.531	2825.51
704.719	2845.99
704.907	2837.8
705.096	2702.64
705.284	2749.74
705.472	3009.83
705.661	2872.62
705.849	2864.43
706.037	2813.23
706.226	2993.45
706.414	2807.08
706.602	2809.13
706.79	2901.29
706.979	2792.75
707.167	2764.08
707.355	2848.04
707.543	2823.47
707.731	2923.82
707.919	2817.32
708.107	2901.29
708.296	2870.57
708.484	2884.91
708.672	2829.61
708.86	2923.82
709.048	2807.08
709.236	2862.38
709.424	2848.04
709.612	2956.58
709.8	3013.93
709.988	2798.89
710.176	2954.54
710.364	2950.44
710.551	2938.15
710.739	2850.09
710.927	2921.77
711.115	2868.52
711.303	2970.92
711.491	2999.59
711.679	2923.82
711.866	2981.16
712.054	3063.08
712.242	2948.39
712.43	3056.93
712.617	2864.43
712.805	2962.73
712.993	3097.89
713.181	2909.48
713.368	3030.31
713.556	3026.22
713.744	2999.59
713.931	3058.98
714.119	3034.41
714.306	3138.85
714.494	3083.56
714.682	3038.5
714.869	3018.02
715.057	3020.07
715.244	2954.54
715.432	3093.8
715.619	3112.23
715.807	3132.71
715.994	3036.45
716.182	3151.14
716.369	3071.27
716.556	3192.1
716.744	3132.71
716.931	3106.09
717.119	3267.88
717.306	3128.61
717.493	3073.32
717.681	3007.78
717.868	3265.83
718.055	3198.24
718.242	3310.88
718.43	3292.45
718.617	3130.66
718.804	3247.4
718.991	3128.61
719.179	3237.16
719.366	3239.2
719.553	3259.68
719.74	3155.24
719.927	3130.66
720.114	3171.62
720.301	3271.97
720.488	3202.34
720.676	3192.1
720.863	3120.42
721.05	3288.36
721.237	3235.11
721.424	3355.94
721.611	3145
721.798	3196.2
721.985	3108.13
722.172	3204.39
722.358	3343.65
722.545	3390.75
722.732	3310.88
722.919	3200.29
723.106	3333.41
723.293	3251.49
723.48	3329.31
723.667	3288.36
723.853	3263.78
724.04	3181.86
724.227	3337.51
724.414	3317.03
724.6	3450.14
724.787	3351.84
724.974	3310.88
725.161	3362.08
725.347	3364.13
725.534	3560.74
725.72	3368.23
725.907	3441.95
726.094	3370.27
726.28	3380.51
726.467	3353.89
726.653	3446.05
726.84	3458.34
727.027	3568.93
727.213	3456.29
727.4	3472.67
727.586	3482.91
727.773	3298.6
727.959	3523.87
728.145	3450.14
728.332	3435.81
728.518	3458.34
728.705	3632.41
728.891	3513.63
729.077	3398.95
729.264	3650.85
729.45	3388.71
729.636	3587.36
729.823	3507.49
730.009	3519.78
730.195	3640.61
730.382	3509.54
730.568	3581.21
730.754	3446.05
730.94	3489.06
731.126	3689.76
731.313	3599.65
731.499	3566.88
731.685	3724.57
731.871	3636.51
732.057	3665.18
732.243	3530.02
732.429	3462.43
732.615	3652.89
732.801	3755.29
732.987	3499.3
733.173	3708.19
733.359	3616.03
733.545	3591.45
733.731	3671.33
733.917	3573.02
734.103	3665.18
734.289	3595.55
734.475	3589.41
734.661	3775.77
734.847	3591.45
735.033	3728.67
735.219	3732.76
735.404	3714.33
735.59	3583.26
735.776	3677.47
735.962	3644.7
736.148	3831.07
736.333	3636.51
736.519	3710.24
736.705	3675.42
736.89	3628.32
737.076	3753.24
737.262	3630.37
737.447	3636.51
737.633	3595.55
737.819	3798.3
738.004	3691.81
738.19	3603.74
738.375	3675.42
738.561	3636.51
738.747	3714.33
738.932	3702.04
739.118	3767.58
739.303	3638.56
739.489	3745.05
739.674	3693.85
739.859	3607.84
740.045	3616.03
740.23	3421.47
740.416	3497.25
740.601	3790.11
740.786	3599.65
740.972	3624.22
741.157	3570.97
741.342	3478.82
741.528	3706.14
741.713	3691.81
741.898	3650.85
742.084	3495.2
742.269	3558.69
742.454	3603.74
742.639	3448.1
742.824	3530.02
743.01	3462.43
743.195	3429.66
743.38	3415.33
743.565	3503.39
743.75	3470.62
743.935	3398.95
744.12	3458.34
744.305	3452.19
744.49	3444
744.675	3308.83
744.86	3325.22
745.045	3343.65
745.23	3472.67
745.415	3425.57
745.6	3439.9
745.785	3284.26
745.97	3441.95
746.155	3190.05
746.34	3413.28
746.525	3314.98
746.71	3319.07
746.895	3235.11
747.079	3251.49
747.264	3118.37
747.449	3319.07
747.634	3255.59
747.819	3032.36
748.003	3065.13
748.188	3036.45
748.373	3147.05
748.557	3114.28
748.742	3036.45
748.927	3026.22
749.111	3157.29
749.296	2940.2
749.481	3097.89
749.665	3020.07
749.85	2942.25
750.034	2991.4
750.219	2903.34
750.404	2878.76
750.588	2786.6
750.773	2868.52
750.957	2901.29
751.141	2925.86
751.326	2913.58
751.51	2764.08
751.695	2815.27
751.879	2786.6
752.064	2788.65
752.248	2866.47
752.432	2843.95
752.617	2757.93
752.801	2716.97
752.985	2643.25
753.17	2731.31
753.354	2645.29
753.538	2600.24
753.722	2579.76
753.907	2536.75
754.091	2579.76
754.275	2606.38
754.459	2555.18
754.643	2524.46
754.828	2520.37
755.012	2534.7
755.196	2508.08
755.38	2546.99
755.564	2536.75
755.748	2436.4
755.932	2391.34
756.116	2424.11
756.3	2354.48
756.484	2463.02
756.668	2274.61
756.852	2245.94
757.036	2221.36
757.22	2250.03
757.404	2250.03
757.588	2297.14
757.772	2252.08
757.956	2211.12
758.14	2301.23
758.323	2141.49
758.507	2075.96
758.691	2112.82
758.875	2243.89
759.059	2241.84
759.242	2139.44
759.426	2024.76
759.61	1922.36
759.794	2098.49
759.977	2145.59
760.161	2067.77
760.345	2063.67
760.528	2161.97
760.712	2067.77
760.895	2065.72
761.079	2012.47
761.263	1897.78
761.446	2010.42
761.63	1840.44
761.813	2035
761.997	2006.33
762.18	1840.44
762.364	1963.32
762.547	1932.6
762.731	1895.74
762.914	1965.37
763.098	1840.44
763.281	1822.01
763.464	1817.91
763.648	1836.35
763.831	1785.15
764.015	1762.62
764.198	1826.11
764.381	1815.87
764.564	1865.02
764.748	1758.52
764.931	1910.07
765.114	1779
765.297	1764.67
765.481	1735.99
765.664	1836.35
765.847	1762.62
766.03	1842.49
766.213	1684.8
766.397	1639.74
766.58	1717.56
766.763	1682.75
766.946	1703.23
767.129	1754.43
767.312	1697.08
767.495	1690.94
767.678	1557.82
767.861	1658.17
768.044	1703.23
768.227	1473.85
768.41	1582.4
768.593	1500.48
768.776	1690.94
768.959	1690.94
769.142	1611.07
769.324	1555.77
769.507	1631.55
769.69	1588.54
769.873	1498.43
770.056	1535.29
770.239	1549.63
770.421	1686.84
770.604	1654.08
770.787	1584.45
770.97	1586.49
771.152	1410.37
771.335	1486.14
771.518	1420.61
771.7	1490.24
771.883	1492.29
772.066	1439.04
772.248	1551.68
772.431	1482.05
772.613	1400.13
772.796	1426.75
772.978	1328.45
773.161	1469.76
773.343	1365.31
773.526	1412.42
773.708	1350.98
773.891	1332.55
774.073	1299.78
774.256	1267.01
774.438	1404.22
774.621	1375.55
774.803	1279.3
774.985	1314.11
775.168	1301.83
775.35	1289.54
775.532	1314.11
775.715	1140.04
775.897	1213.76
776.079	1238.34
776.261	1260.87
776.444	1262.91
776.626	1197.38
776.808	1187.14
776.99	1254.72
777.173	1178.95
777.355	1113.41
777.537	1170.76
777.719	1119.56
777.901	1244.48
778.083	1121.6
778.265	1148.23
778.447	1142.08
778.629	984.39
778.811	1051.97
778.993	1109.32
779.175	1125.7
779.357	1164.61
779.539	1166.66
779.721	1135.94
779.903	1082.69
780.085	1080.64
780.267	1035.59
780.449	1129.8
780.631	933.19
780.812	1123.65
780.994	980.29
781.176	935.24
781.358	922.95
781.54	855.37
781.721	965.96
781.903	984.39
782.085	984.39
782.267	1029.45
782.448	908.62
782.63	857.42
782.812	968.01
782.993	900.42
783.175	951.62
783.357	888.14
783.538	894.28
783.72	877.9
783.901	877.9
784.083	877.9
784.264	804.17
784.446	798.03
784.627	841.03
784.809	822.6
784.99	798.03
785.172	791.88
785.353	841.03
785.535	718.15
785.716	793.93
785.897	705.87
786.079	722.25
786.26	836.94
786.441	738.63
786.623	650.57
786.804	628.04
786.985	830.79
787.167	767.31
787.348	728.39
787.529	738.63
787.71	800.07
787.891	771.4
788.073	763.21
788.254	671.05
788.435	765.26
788.616	677.2
788.797	505.17
788.978	677.2
789.159	617.8
789.34	673.1
789.522	677.2
789.703	623.95
789.884	693.58
790.065	671.05
790.246	656.72
790.427	617.8
790.607	671.05
790.788	693.58
790.969	607.56
791.15	634.19
791.331	576.84
791.512	494.93
791.693	552.27
791.874	609.61
792.054	650.57
792.235	535.89
792.416	564.56
792.597	609.61
792.778	626
792.958	501.07
793.139	511.31
793.32	519.5
793.5	591.18
793.681	550.22
793.862	533.84
794.042	486.73
794.223	503.12
794.404	496.97
794.584	392.53
794.765	427.34
794.945	453.97
795.126	466.25
795.306	513.36
795.487	499.02
795.667	472.4
795.848	591.18
796.028	521.55
796.209	490.83
796.389	456.01
796.57	474.45
796.75	494.93
796.93	456.01
797.111	476.49
797.291	427.34
797.471	539.98
797.652	544.08
797.832	466.25
798.012	523.6
798.192	447.82
798.373	402.77
798.553	437.58
798.733	439.63
798.913	370
799.093	466.25
799.274	419.15
799.454	517.45
799.634	398.67
799.814	525.65
799.994	408.91
800.174	507.21
800.354	355.66
800.534	443.73
800.714	431.44
800.894	476.49
801.074	324.94
801.254	312.66
801.434	486.73
801.614	359.76
801.794	376.14
801.974	1187.14
802.154	357.71
802.334	474.45
802.514	363.86
802.693	345.42
802.873	275.79
803.053	374.1
803.233	351.57
803.413	390.48
803.592	355.66
803.772	337.23
803.952	413.01
804.131	353.62
804.311	316.75
804.491	447.82
804.67	347.47
804.85	326.99
805.03	372.05
805.209	374.1
805.389	370
805.568	345.42
805.748	386.38
805.928	298.32
806.107	345.42
806.287	326.99
806.466	308.56
806.646	251.22
806.825	273.75
807.004	357.71
807.184	392.53
807.363	339.28
807.543	324.94
807.722	263.51
807.901	349.52
808.081	320.85
808.26	267.6
808.439	247.12
808.619	312.66
808.798	283.99
808.977	267.6
809.156	271.7
809.336	253.27
809.515	347.47
809.694	279.89
809.873	232.79
810.052	329.04
810.231	333.14
810.411	290.13
810.59	283.99
810.769	288.08
810.948	341.33
811.127	230.74
811.306	265.55
811.485	195.92
811.664	302.42
811.843	255.31
812.022	240.98
812.201	116.05
812.38	234.83
812.559	222.55
812.737	267.6
812.916	189.78
813.095	269.65
813.274	314.7
813.453	257.36
813.632	298.32
813.811	273.75
813.989	222.55
814.168	318.8
814.347	222.55
814.526	265.55
814.704	302.42
814.883	322.9
815.062	202.07
815.24	220.5
815.419	140.63
815.598	269.65
815.776	214.35
815.955	138.58
816.133	202.07
816.312	269.65
816.49	200.02
816.669	208.21
816.847	240.98
817.026	159.06
817.204	212.31
817.383	202.07
817.561	222.55
817.74	202.07
817.918	200.02
818.097	171.35
818.275	249.17
818.453	214.35
818.632	232.79
818.81	234.83
818.988	154.96
819.167	236.88
819.345	157.01
819.523	249.17
819.701	197.97
819.879	224.59
820.058	179.54
820.236	171.35
820.414	169.3
820.592	167.25
820.77	116.05
820.948	191.83
821.127	157.01
821.305	224.59
821.483	249.17
821.661	214.35
821.839	222.55
822.017	193.87
822.195	218.45
822.373	140.63
822.551	234.83
822.729	236.88
822.907	161.11
823.085	116.05
823.262	200.02
823.44	109.91
823.618	183.63
823.796	236.88
823.974	183.63
824.152	83.28
824.329	193.87
824.507	183.63
824.685	240.98
824.863	140.63
825.04	165.2
825.218	185.68
825.396	126.29
825.574	204.11
825.751	128.34
825.929	191.83
826.107	206.16
826.284	208.21
826.462	136.53
826.639	132.44
826.817	177.49
826.994	259.41
827.172	116.05
827.349	216.4
827.527	208.21
827.704	200.02
827.882	167.25
828.059	85.33
828.237	118.1
828.414	171.35
828.591	71
828.769	197.97
828.946	152.92
829.124	251.22
829.301	171.35
829.478	220.5
829.655	126.29
829.833	73.04
830.01	66.9
830.187	138.58
830.364	144.72
830.542	120.15
830.719	136.53
830.896	93.52
831.073	120.15
831.25	214.35
831.427	107.86
831.604	150.87
831.782	56.66
831.959	128.34
832.136	161.11
832.313	148.82
832.49	54.61
832.667	136.53
832.844	95.57
833.021	191.83
833.198	177.49
833.374	167.25
833.551	97.62
833.728	103.76
833.905	159.06
834.082	75.09
834.259	161.11
834.436	105.81
834.612	181.59
834.789	116.05
834.966	193.87
835.143	163.15
835.319	56.66
835.496	118.1
835.673	159.06
835.85	144.72
836.026	181.59
836.203	165.2
836.38	64.85
836.556	130.39
836.733	38.23
836.909	157.01
837.086	111.96
837.262	103.76
837.439	52.56
837.616	132.44
837.792	124.24
837.968	163.15
838.145	109.91
838.321	91.48
838.498	116.05
838.674	214.35
838.851	163.15
839.027	101.72
839.203	27.99
839.38	32.08
839.556	103.76
839.732	116.05
839.909	140.63
840.085	105.81
840.261	54.61
840.437	71
840.614	85.33
840.79	109.91
840.966	89.43
841.142	111.96
841.318	99.67
841.494	144.72
841.671	89.43
841.847	52.56
842.023	56.66
842.199	77.14
842.375	99.67
842.551	-43.69
842.727	64.85
842.903	111.96
843.079	97.62
843.255	97.62
843.431	87.38
843.607	34.13
843.783	-2.73
843.959	54.61
844.134	71
844.31	83.28
844.486	124.24
844.662	58.71
844.838	75.09
845.013	48.47
845.189	144.72
845.365	114
845.541	36.18
845.716	75.09
845.892	109.91
846.068	44.37
846.244	56.66
846.419	89.43
846.595	27.99
846.77	11.61
846.946	71
847.122	79.19
847.297	91.48
847.473	116.05
847.648	17.75
847.824	50.52
847.999	54.61
848.175	-6.83
848.35	38.23
848.526	83.28
848.701	128.34
848.876	56.66
849.052	85.33
849.227	81.24
849.403	89.43
849.578	89.43
849.753	27.99
849.929	25.94
850.104	-15.02
850.279	64.85
850.454	99.67
850.63	68.95
850.805	79.19
850.98	52.56
851.155	25.94
851.33	111.96
851.505	25.94
851.681	103.76
851.856	34.13
852.031	25.94
852.206	130.39
852.381	62.8
852.556	54.61
852.731	46.42
852.906	66.9
853.081	124.24
853.256	52.56
853.431	46.42
853.606	62.8
853.781	68.95
853.956	7.51
854.131	77.14
854.305	71
854.48	34.13
854.655	-8.87
854.83	46.42
855.005	32.08
855.18	44.37
855.354	3.41
855.529	44.37
855.704	66.9
855.879	-15.02
856.053	52.56
856.228	97.62
856.403	-2.73
856.577	81.24
856.752	21.85
856.926	50.52
857.101	11.61
857.276	34.13
857.45	-15.02
857.625	105.81
857.799	17.75
857.974	58.71
858.148	-55.98
858.323	42.32
858.497	13.65
858.672	17.75
858.846	50.52
859.02	83.28
859.195	-2.73
859.369	83.28
859.543	27.99
859.718	48.47
859.892	87.38
860.066	73.04
860.241	3.41
860.415	11.61
860.589	-37.55
860.763	73.04
860.938	32.08
861.112	58.71
861.286	77.14
861.46	36.18
861.634	-25.26
861.808	124.24
861.982	50.52
862.157	9.56
862.331	17.75
862.505	-12.97
862.679	46.42
862.853	-25.26
863.027	-23.21
863.201	71
863.375	3.41
863.549	-4.78
863.722	64.85
863.896	93.52
864.07	38.23
864.244	136.53
864.418	9.56
864.592	52.56
864.766	9.56
864.939	7.51
865.113	-17.07
865.287	60.76
865.461	56.66
865.634	-4.78
865.808	25.94
865.982	58.71
866.156	32.08
866.329	-6.83
866.503	17.75
866.676	42.32
866.85	-12.97
867.024	79.19
867.197	48.47
867.371	73.04
867.544	-12.97
867.718	-37.55
867.891	48.47
868.065	3.41
868.238	15.7
868.412	62.8
868.585	48.47
868.759	-12.97
868.932	-17.07
869.105	9.56
869.279	-2.73
869.452	9.56
869.625	107.86
869.799	11.61
869.972	-29.35
870.145	42.32
870.319	-2.73
870.492	11.61
870.665	36.18
870.838	93.52
871.011	-15.02
871.185	-74.41
871.358	-6.83
871.531	62.8
871.704	7.51
871.877	75.09
872.05	-58.03
872.223	-35.5
872.396	-0.68
872.569	25.94
872.742	-62.12
872.915	-98.99
873.088	11.61
873.261	3.41
873.434	11.61
873.607	-0.68
873.78	32.08
873.953	-113.32
874.126	50.52
874.299	34.13
874.471	-33.45
874.644	60.76
874.817	21.85
874.99	81.24
875.163	-4.78
875.335	36.18
875.508	38.23
875.681	77.14
875.853	9.56
876.026	40.28
876.199	13.65
876.371	48.47
876.544	-8.87
876.717	23.89
876.889	-51.88
877.062	-41.64
877.234	3.41
877.407	-6.83
877.579	75.09
877.752	11.61
877.924	-6.83
878.097	-12.97
878.269	9.56
878.442	-12.97
878.614	46.42
878.786	34.13
878.959	87.38
879.131	30.04
879.303	5.46
879.476	19.8
879.648	40.28
879.82	9.56
879.993	11.61
880.165	54.61
880.337	-45.74
880.509	64.85
880.681	-31.4
880.854	15.7
881.026	64.85
881.198	11.61
881.37	75.09
881.542	7.51
881.714	9.56
881.886	13.65
882.058	9.56
882.23	44.37
882.402	-29.35
882.574	21.85
882.746	27.99
882.918	11.61
883.09	23.89
883.262	-10.92
883.434	9.56
883.606	-72.36
883.778	30.04
883.95	54.61
884.122	-10.92
884.293	30.04
884.465	-39.59
884.637	101.72
884.809	27.99
884.98	44.37
885.152	40.28
885.324	-4.78
885.496	-23.21
885.667	30.04
885.839	44.37
886.011	68.95
886.182	13.65
886.354	-37.55
886.525	44.37
886.697	17.75
886.869	3.41
887.04	25.94
887.212	27.99
887.383	19.8
887.555	32.08
887.726	42.32
887.897	3.41
888.069	5.46
888.24	17.75
888.412	79.19
888.583	34.13
888.754	-21.16
888.926	-12.97
889.097	-70.31
889.268	-4.78
889.44	66.9
889.611	19.8
889.782	-78.51
889.953	-35.5
890.125	17.75
890.296	-37.55
890.467	9.56
890.638	-0.68
890.809	64.85
890.98	-35.5
891.151	40.28
891.323	81.24
891.494	54.61
891.665	48.47
891.836	-31.4
892.007	50.52
892.178	23.89
892.349	-21.16
892.52	-25.26
892.691	23.89
892.862	30.04
893.032	3.41
893.203	60.76
893.374	1.37
893.545	-8.87
893.716	-15.02
893.887	-15.02
894.057	15.7
894.228	-35.5
894.399	-49.83
894.57	5.46
894.74	-55.98
894.911	9.56
895.082	-15.02
895.253	-35.5
895.423	-37.55
895.594	38.23
895.764	-12.97
895.935	95.57
896.106	-58.03
896.276	9.56
896.447	13.65
896.617	-19.11
896.788	-25.26
896.958	21.85
897.129	1.37
897.299	23.89
897.47	87.38
897.64	54.61
897.81	-31.4
897.981	13.65
898.151	-45.74
898.322	-37.55
898.492	15.7
898.662	9.56
898.832	-51.88
899.003	17.75
899.173	-37.55
899.343	3.41
899.513	40.28
