Data from USB4F104151__74__12-24-21-346.txt Node

Date: Fri Mar 14 12:24:21 EDT 2025
User: louis
Spectrometer: USB4F10415
Trigger mode: 4
Integration Time (sec): 3.500000E-2
Scans to average: 1
Electric dark correction enabled: true
Nonlinearity correction enabled: false
Boxcar width: 0
XAxis mode: Wavelengths
Number of Pixels in Spectrum: 3648
>>>>>Begin Spectral Data<<<<<
178.204	-196.26
178.424	-196.26
178.644	-196.26
178.864	-196.26
179.084	-87.72
179.304	-40.62
179.524	-28.33
179.744	-20.14
179.964	29.01
180.184	29.01
180.404	20.82
180.624	2.39
180.844	33.11
181.064	0.34
181.283	69.97
181.503	-112.3
181.723	16.73
181.943	8.53
182.163	76.12
182.383	59.73
182.602	-11.95
182.822	37.2
183.042	53.59
183.262	-3.75
183.482	-3.75
183.701	51.54
183.921	-11.95
184.141	-36.52
184.361	61.78
184.58	2.39
184.8	31.06
185.02	12.63
185.239	49.49
185.459	8.53
185.679	104.79
185.898	-38.57
186.118	20.82
186.338	-61.1
186.557	55.64
186.777	-34.47
186.997	41.3
187.216	-7.85
187.436	41.3
187.655	-26.28
187.875	4.44
188.095	47.44
188.314	61.78
188.534	67.92
188.753	20.82
188.973	72.02
189.192	127.32
189.412	55.64
189.631	-20.14
189.851	-71.34
190.07	98.64
190.29	14.68
190.509	76.12
190.729	8.53
190.948	-11.95
191.168	102.74
191.387	80.21
191.607	67.92
191.826	82.26
192.045	-38.57
192.265	-32.43
192.484	20.82
192.704	16.73
192.923	-22.19
193.142	53.59
193.362	65.88
193.581	-32.43
193.8	106.84
194.02	22.87
194.239	4.44
194.458	117.08
194.678	29.01
194.897	26.96
195.116	31.06
195.335	14.68
195.555	-30.38
195.774	29.01
195.993	-26.28
196.212	37.2
196.432	-52.91
196.651	45.4
196.87	8.53
197.089	100.69
197.308	39.25
197.528	51.54
197.747	76.12
197.966	16.73
198.185	88.4
198.404	-67.24
198.623	-63.15
198.842	41.3
199.062	121.17
199.281	76.12
199.5	-46.76
199.719	-69.29
199.938	-32.43
200.157	22.87
200.376	0.34
200.595	10.58
200.814	26.96
201.033	-20.14
201.252	-16.04
201.471	47.44
201.69	86.36
201.909	24.92
202.128	2.39
202.347	110.93
202.566	-26.28
202.785	-63.15
203.004	-59.05
203.223	133.46
203.442	-9.9
203.661	-18.09
203.879	-1.71
204.098	121.17
204.317	-116.39
204.536	14.68
204.755	63.83
204.974	-13.99
205.193	-22.19
205.411	180.56
205.63	4.44
205.849	10.58
206.068	-44.71
206.287	37.2
206.505	39.25
206.724	31.06
206.943	-48.81
207.162	41.3
207.381	84.31
207.599	22.87
207.818	74.07
208.037	-42.67
208.255	10.58
208.474	45.4
208.693	10.58
208.911	-11.95
209.13	76.12
209.349	49.49
209.567	10.58
209.786	24.92
210.005	35.16
210.223	12.63
210.442	6.49
210.661	-7.85
210.879	-5.8
211.098	-11.95
211.316	26.96
211.535	49.49
211.753	47.44
211.972	20.82
212.191	-59.05
212.409	86.36
212.628	22.87
212.846	10.58
213.065	14.68
213.283	-5.8
213.502	26.96
213.72	80.21
213.938	49.49
214.157	61.78
214.375	-1.71
214.594	-71.34
214.812	-3.75
215.031	-28.33
215.249	-3.75
215.467	63.83
215.686	49.49
215.904	31.06
216.122	-20.14
216.341	78.16
216.559	10.58
216.778	65.88
216.996	92.5
217.214	78.16
217.432	-5.8
217.651	-28.33
217.869	-3.75
218.087	31.06
218.306	-34.47
218.524	33.11
218.742	4.44
218.96	49.49
219.179	-38.57
219.397	-34.47
219.615	47.44
219.833	-40.62
220.051	-24.23
220.27	98.64
220.488	61.78
220.706	-61.1
220.924	94.55
221.142	-7.85
221.36	18.77
221.578	8.53
221.796	41.3
222.015	-11.95
222.233	-11.95
222.451	63.83
222.669	-130.73
222.887	22.87
223.105	-18.09
223.323	-3.75
223.541	59.73
223.759	47.44
223.977	61.78
224.195	72.02
224.413	12.63
224.631	33.11
224.849	0.34
225.067	88.4
225.285	31.06
225.503	61.78
225.721	0.34
225.939	39.25
226.157	55.64
226.375	125.27
226.592	55.64
226.81	-26.28
227.028	59.73
227.246	76.12
227.464	-36.52
227.682	8.53
227.9	-28.33
228.117	65.88
228.335	67.92
228.553	-3.75
228.771	84.31
228.989	29.01
229.206	57.68
229.424	10.58
229.642	18.77
229.86	6.49
230.077	18.77
230.295	-26.28
230.513	86.36
230.731	-22.19
230.948	96.6
231.166	94.55
231.384	29.01
231.601	65.88
231.819	74.07
232.037	-38.57
232.254	-24.23
232.472	72.02
232.689	-32.43
232.907	-11.95
233.125	-24.23
233.342	22.87
233.56	49.49
233.777	18.77
233.995	6.49
234.213	86.36
234.43	-16.04
234.648	-7.85
234.865	39.25
235.083	98.64
235.3	39.25
235.518	45.4
235.735	96.6
235.953	51.54
236.17	69.97
236.388	104.79
236.605	69.97
236.822	96.6
237.04	76.12
237.257	104.79
237.475	-42.67
237.692	49.49
237.909	59.73
238.127	63.83
238.344	82.26
238.562	12.63
238.779	-54.95
238.996	16.73
239.214	-32.43
239.431	80.21
239.648	-18.09
239.865	61.78
240.083	6.49
240.3	-73.39
240.517	16.73
240.735	-28.33
240.952	39.25
241.169	57.68
241.386	-7.85
241.603	14.68
241.821	49.49
242.038	55.64
242.255	31.06
242.472	29.01
242.689	12.63
242.907	41.3
243.124	51.54
243.341	-57
243.558	53.59
243.775	-3.75
243.992	-59.05
244.209	20.82
244.426	94.55
244.643	108.88
244.86	29.01
245.078	82.26
245.295	0.34
245.512	14.68
245.729	4.44
245.946	96.6
246.163	-26.28
246.38	12.63
246.597	86.36
246.814	26.96
247.031	72.02
247.248	63.83
247.464	57.68
247.681	63.83
247.898	6.49
248.115	45.4
248.332	-28.33
248.549	94.55
248.766	123.22
248.983	92.5
249.2	37.2
249.417	57.68
249.633	-18.09
249.85	67.92
250.067	49.49
250.284	26.96
250.501	14.68
250.717	72.02
250.934	-1.71
251.151	104.79
251.368	26.96
251.585	29.01
251.801	47.44
252.018	6.49
252.235	35.16
252.451	-24.23
252.668	14.68
252.885	121.17
253.102	86.36
253.318	10.58
253.535	-3.75
253.752	-42.67
253.968	43.35
254.185	-93.87
254.401	-34.47
254.618	10.58
254.835	35.16
255.051	84.31
255.268	47.44
255.484	84.31
255.701	18.77
255.917	86.36
256.134	-5.8
256.351	12.63
256.567	-1.71
256.784	33.11
257	4.44
257.217	180.56
257.433	39.25
257.65	-9.9
257.866	67.92
258.082	8.53
258.299	26.96
258.515	4.44
258.732	-18.09
258.948	33.11
259.165	92.5
259.381	22.87
259.597	102.74
259.814	-5.8
260.03	-28.33
260.246	22.87
260.463	51.54
260.679	74.07
260.895	24.92
261.112	0.34
261.328	24.92
261.544	-50.86
261.761	49.49
261.977	4.44
262.193	-18.09
262.409	26.96
262.626	18.77
262.842	80.21
263.058	0.34
263.274	69.97
263.49	65.88
263.707	49.49
263.923	63.83
264.139	24.92
264.355	-5.8
264.571	84.31
264.787	8.53
265.004	37.2
265.22	18.77
265.436	49.49
265.652	43.35
265.868	110.93
266.084	-1.71
266.3	4.44
266.516	-9.9
266.732	4.44
266.948	35.16
267.164	53.59
267.38	108.88
267.596	65.88
267.812	39.25
268.028	14.68
268.244	-28.33
268.46	29.01
268.676	-50.86
268.892	45.4
269.108	4.44
269.324	14.68
269.54	-11.95
269.756	127.32
269.972	26.96
270.188	-54.95
270.403	-16.04
270.619	-9.9
270.835	59.73
271.051	-1.71
271.267	-3.75
271.483	6.49
271.698	100.69
271.914	63.83
272.13	72.02
272.346	-7.85
272.562	53.59
272.777	104.79
272.993	8.53
273.209	43.35
273.425	76.12
273.64	-52.91
273.856	31.06
274.072	6.49
274.287	31.06
274.503	37.2
274.719	14.68
274.934	-7.85
275.15	78.16
275.366	-5.8
275.581	2.39
275.797	-22.19
276.012	-24.23
276.228	39.25
276.444	61.78
276.659	133.46
276.875	-83.63
277.09	-22.19
277.306	22.87
277.521	10.58
277.737	-16.04
277.952	10.58
278.168	57.68
278.383	106.84
278.599	121.17
278.814	39.25
279.03	26.96
279.245	20.82
279.461	53.59
279.676	37.2
279.892	-69.29
280.107	-48.81
280.322	-67.24
280.538	69.97
280.753	-5.8
280.969	84.31
281.184	51.54
281.399	69.97
281.615	33.11
281.83	0.34
282.045	-9.9
282.26	-48.81
282.476	29.01
282.691	80.21
282.906	-26.28
283.122	39.25
283.337	53.59
283.552	121.17
283.767	4.44
283.983	90.45
284.198	35.16
284.413	72.02
284.628	-79.53
284.843	18.77
285.058	72.02
285.274	-9.9
285.489	90.45
285.704	74.07
285.919	39.25
286.134	-30.38
286.349	80.21
286.564	18.77
286.779	47.44
286.995	-36.52
287.21	-44.71
287.425	-34.47
287.64	-50.86
287.855	12.63
288.07	-50.86
288.285	90.45
288.5	45.4
288.715	24.92
288.93	-67.24
289.145	8.53
289.36	43.35
289.575	37.2
289.79	57.68
290.004	6.49
290.219	43.35
290.434	31.06
290.649	18.77
290.864	6.49
291.079	-32.43
291.294	4.44
291.509	102.74
291.724	-13.99
291.938	-132.78
292.153	-9.9
292.368	14.68
292.583	22.87
292.798	-13.99
293.012	63.83
293.227	35.16
293.442	33.11
293.657	69.97
293.871	133.46
294.086	-9.9
294.301	51.54
294.516	139.6
294.73	51.54
294.945	43.35
295.16	-52.91
295.374	29.01
295.589	26.96
295.804	-36.52
296.018	55.64
296.233	24.92
296.447	53.59
296.662	-38.57
296.877	96.6
297.091	6.49
297.306	47.44
297.52	-40.62
297.735	4.44
297.949	53.59
298.164	65.88
298.378	74.07
298.593	-38.57
298.807	-87.72
299.022	69.97
299.236	96.6
299.451	14.68
299.665	4.44
299.88	4.44
300.094	35.16
300.309	-13.99
300.523	57.68
300.737	69.97
300.952	6.49
301.166	-11.95
301.381	-30.38
301.595	24.92
301.809	14.68
302.024	-36.52
302.238	20.82
302.452	55.64
302.667	16.73
302.881	59.73
303.095	-7.85
303.309	41.3
303.524	102.74
303.738	-3.75
303.952	47.44
304.166	59.73
304.381	-32.43
304.595	106.84
304.809	10.58
305.023	57.68
305.237	-11.95
305.452	-50.86
305.666	31.06
305.88	22.87
306.094	59.73
306.308	100.69
306.522	57.68
306.736	0.34
306.95	45.4
307.164	-46.76
307.379	41.3
307.593	-9.9
307.807	94.55
308.021	61.78
308.235	67.92
308.449	37.2
308.663	24.92
308.877	129.36
309.091	86.36
309.305	-46.76
309.519	-38.57
309.733	74.07
309.947	-50.86
310.161	55.64
310.374	14.68
310.588	104.79
310.802	39.25
311.016	63.83
311.23	69.97
311.444	16.73
311.658	-24.23
311.872	-54.95
312.085	53.59
312.299	82.26
312.513	16.73
312.727	67.92
312.941	-13.99
313.154	-24.23
313.368	-20.14
313.582	39.25
313.796	76.12
314.009	76.12
314.223	33.11
314.437	78.16
314.651	26.96
314.864	57.68
315.078	82.26
315.292	41.3
315.505	29.01
315.719	55.64
315.933	74.07
316.146	33.11
316.36	49.49
316.573	-9.9
316.787	8.53
317.001	-69.29
317.214	41.3
317.428	45.4
317.641	2.39
317.855	22.87
318.068	-9.9
318.282	49.49
318.495	72.02
318.709	76.12
318.922	84.31
319.136	39.25
319.349	112.98
319.563	41.3
319.776	72.02
319.99	-57
320.203	37.2
320.417	33.11
320.63	33.11
320.843	94.55
321.057	8.53
321.27	49.49
321.483	57.68
321.697	115.03
321.91	76.12
322.124	57.68
322.337	-30.38
322.55	-3.75
322.763	80.21
322.977	14.68
323.19	53.59
323.403	37.2
323.617	57.68
323.83	69.97
324.043	-40.62
324.256	80.21
324.469	-1.71
324.683	94.55
324.896	-36.52
325.109	-5.8
325.322	-18.09
325.535	90.45
325.748	37.2
325.962	18.77
326.175	47.44
326.388	117.08
326.601	110.93
326.814	-54.95
327.027	63.83
327.24	90.45
327.453	-61.1
327.666	18.77
327.879	82.26
328.092	43.35
328.305	12.63
328.518	29.01
328.731	2.39
328.944	-38.57
329.157	51.54
329.37	63.83
329.583	51.54
329.796	55.64
330.009	-97.96
330.222	37.2
330.435	53.59
330.648	61.78
330.861	127.32
331.073	8.53
331.286	41.3
331.499	39.25
331.712	-7.85
331.925	55.64
332.138	24.92
332.35	12.63
332.563	-46.76
332.776	72.02
332.989	6.49
333.202	45.4
333.414	10.58
333.627	47.44
333.84	-9.9
334.053	14.68
334.265	92.5
334.478	29.01
334.691	59.73
334.903	67.92
335.116	26.96
335.329	16.73
335.541	16.73
335.754	135.51
335.966	39.25
336.179	-7.85
336.392	-57
336.604	57.68
336.817	43.35
337.029	51.54
337.242	39.25
337.454	115.03
337.667	2.39
337.88	59.73
338.092	104.79
338.305	61.78
338.517	37.2
338.729	88.4
338.942	39.25
339.154	22.87
339.367	2.39
339.579	24.92
339.792	14.68
340.004	20.82
340.217	74.07
340.429	53.59
340.641	29.01
340.854	-16.04
341.066	29.01
341.278	61.78
341.491	61.78
341.703	33.11
341.915	35.16
342.128	35.16
342.34	16.73
342.552	22.87
342.764	47.44
342.977	55.64
343.189	84.31
343.401	127.32
343.613	20.82
343.826	-13.99
344.038	51.54
344.25	82.26
344.462	47.44
344.674	6.49
344.886	-9.9
345.099	45.4
345.311	24.92
345.523	37.2
345.735	-67.24
345.947	69.97
346.159	-7.85
346.371	4.44
346.583	2.39
346.795	104.79
347.007	-40.62
347.219	72.02
347.431	39.25
347.643	57.68
347.855	-7.85
348.067	45.4
348.279	-16.04
348.491	102.74
348.703	92.5
348.915	47.44
349.127	-46.76
349.339	45.4
349.551	49.49
349.763	92.5
349.975	72.02
350.187	33.11
350.399	182.61
350.61	-34.47
350.822	-20.14
351.034	-22.19
351.246	104.79
351.458	63.83
351.669	33.11
351.881	31.06
352.093	6.49
352.305	22.87
352.517	47.44
352.728	59.73
352.94	26.96
353.152	47.44
353.363	26.96
353.575	96.6
353.787	94.55
353.999	67.92
354.21	84.31
354.422	41.3
354.633	47.44
354.845	41.3
355.057	-5.8
355.268	20.82
355.48	-5.8
355.692	-1.71
355.903	41.3
356.115	63.83
356.326	-24.23
356.538	82.26
356.749	61.78
356.961	-40.62
357.172	26.96
357.384	43.35
357.595	143.7
357.807	47.44
358.018	16.73
358.23	-1.71
358.441	92.5
358.653	-57
358.864	18.77
359.075	-69.29
359.287	14.68
359.498	137.56
359.709	14.68
359.921	39.25
360.132	-11.95
360.344	4.44
360.555	49.49
360.766	45.4
360.977	-1.71
361.189	45.4
361.4	12.63
361.611	129.36
361.823	47.44
362.034	6.49
362.245	16.73
362.456	0.34
362.667	33.11
362.879	-22.19
363.09	26.96
363.301	69.97
363.512	-3.75
363.723	37.2
363.935	29.01
364.146	55.64
364.357	47.44
364.568	14.68
364.779	22.87
364.99	61.78
365.201	63.83
365.412	49.49
365.623	14.68
365.834	49.49
366.045	35.16
366.256	57.68
366.467	84.31
366.678	12.63
366.889	63.83
367.1	20.82
367.311	59.73
367.522	47.44
367.733	92.5
367.944	22.87
368.155	-13.99
368.366	16.73
368.577	76.12
368.788	55.64
368.999	49.49
369.209	55.64
369.42	67.92
369.631	217.43
369.842	35.16
370.053	35.16
370.264	96.6
370.474	16.73
370.685	43.35
370.896	18.77
371.107	29.01
371.317	65.88
371.528	-30.38
371.739	43.35
371.95	43.35
372.16	29.01
372.371	12.63
372.582	39.25
372.792	16.73
373.003	-20.14
373.214	43.35
373.424	4.44
373.635	8.53
373.846	147.8
374.056	35.16
374.267	-9.9
374.477	102.74
374.688	76.12
374.898	139.6
375.109	4.44
375.319	108.88
375.53	106.84
375.74	76.12
375.951	31.06
376.161	-11.95
376.372	76.12
376.582	69.97
376.793	10.58
377.003	65.88
377.214	8.53
377.424	65.88
377.635	72.02
377.845	131.41
378.055	76.12
378.266	45.4
378.476	57.68
378.686	2.39
378.897	-11.95
379.107	119.12
379.317	72.02
379.528	-28.33
379.738	96.6
379.948	-20.14
380.158	92.5
380.369	-32.43
380.579	72.02
380.789	72.02
380.999	49.49
381.21	26.96
381.42	119.12
381.63	-1.71
381.84	16.73
382.05	80.21
382.261	90.45
382.471	108.88
382.681	33.11
382.891	78.16
383.101	90.45
383.311	53.59
383.521	35.16
383.731	20.82
383.941	-28.33
384.151	-69.29
384.361	35.16
384.571	104.79
384.781	59.73
384.991	104.79
385.201	92.5
385.411	86.36
385.621	-13.99
385.831	49.49
386.041	2.39
386.251	20.82
386.461	170.32
386.671	24.92
386.881	57.68
387.091	18.77
387.301	45.4
387.511	16.73
387.72	100.69
387.93	49.49
388.14	26.96
388.35	55.64
388.56	51.54
388.769	86.36
388.979	90.45
389.189	26.96
389.399	92.5
389.609	45.4
389.818	37.2
390.028	61.78
390.238	31.06
390.447	53.59
390.657	31.06
390.867	-3.75
391.076	76.12
391.286	115.03
391.496	18.77
391.705	26.96
391.915	43.35
392.125	143.7
392.334	96.6
392.544	2.39
392.753	88.4
392.963	65.88
393.172	69.97
393.382	49.49
393.591	131.41
393.801	57.68
394.01	43.35
394.22	18.77
394.429	74.07
394.639	125.27
394.848	88.4
395.058	-11.95
395.267	92.5
395.477	80.21
395.686	41.3
395.895	100.69
396.105	80.21
396.314	65.88
396.524	98.64
396.733	100.69
396.942	141.65
397.152	92.5
397.361	80.21
397.57	18.77
397.78	72.02
397.989	98.64
398.198	184.66
398.407	26.96
398.617	45.4
398.826	125.27
399.035	63.83
399.244	-16.04
399.453	63.83
399.663	135.51
399.872	78.16
400.081	104.79
400.29	74.07
400.499	8.53
400.708	155.99
400.917	2.39
401.127	137.56
401.336	63.83
401.545	121.17
401.754	102.74
401.963	65.88
402.172	117.08
402.381	143.7
402.59	133.46
402.799	45.4
403.008	151.89
403.217	174.42
403.426	137.56
403.635	86.36
403.844	198.99
404.053	59.73
404.262	121.17
404.471	207.19
404.68	69.97
404.888	166.23
405.097	102.74
405.306	172.37
405.515	82.26
405.724	139.6
405.933	192.85
406.142	143.7
406.35	207.19
406.559	123.22
406.768	143.7
406.977	182.61
407.185	149.84
407.394	211.28
407.603	172.37
407.812	110.93
408.02	223.57
408.229	188.75
408.438	133.46
408.646	135.51
408.855	260.43
409.064	207.19
409.272	149.84
409.481	295.25
409.69	203.09
409.898	182.61
410.107	153.94
410.315	272.72
410.524	239.95
410.733	276.82
410.941	219.47
411.15	276.82
411.358	291.15
411.567	303.44
411.775	295.25
411.984	323.92
412.192	344.4
412.401	297.3
412.609	454.99
412.818	364.88
413.026	399.7
413.234	364.88
413.443	432.46
413.651	418.13
413.86	409.94
414.068	498
414.276	514.38
414.485	522.57
414.693	481.61
414.901	594.25
415.11	506.19
415.318	495.95
415.526	618.83
415.734	655.69
415.943	622.92
416.151	700.75
416.359	690.51
416.567	696.65
416.776	737.61
416.984	823.62
417.192	751.95
417.4	829.77
417.608	874.82
417.817	868.68
418.025	932.17
418.233	934.22
418.441	885.06
418.649	964.93
418.857	1022.28
419.065	958.79
419.273	1003.85
419.481	1053
419.689	1059.14
419.897	1202.5
420.105	1227.07
420.313	1253.7
420.521	1354.05
420.729	1401.15
420.937	1435.97
421.145	1468.73
421.353	1489.21
421.561	1585.47
421.769	1644.86
421.977	1714.49
422.185	1493.31
422.393	1808.7
422.601	1765.69
422.809	1960.25
423.017	1851.71
423.224	1966.39
423.432	2076.98
423.64	2056.5
423.848	2257.2
424.056	2156.85
424.263	2343.22
424.471	2292.02
424.679	2363.7
424.887	2509.1
425.094	2617.65
425.302	2611.5
425.51	2744.62
425.718	2707.76
425.925	2838.83
426.133	2861.35
426.341	2982.18
426.548	3197.22
426.756	3264.8
426.964	3193.12
427.171	3385.63
427.379	3553.57
427.586	3434.78
427.794	3696.92
428.001	3811.61
428.209	4161.81
428.417	3944.73
428.624	4135.19
428.832	4325.65
429.039	4313.36
429.247	4311.32
429.454	4694.29
429.662	4890.89
429.869	4565.26
430.076	4972.81
430.284	4851.98
430.491	4940.04
430.699	5200.13
430.906	5382.4
431.114	5306.63
431.321	5605.63
431.528	5611.78
431.736	6217.97
431.943	6217.97
432.15	6224.12
432.358	6297.85
432.565	6353.14
432.772	6586.61
432.979	6942.96
433.187	7121.13
433.394	7035.11
433.601	7469.28
433.808	7588.07
434.016	7354.6
434.223	7932.12
434.43	8282.33
434.637	8190.17
434.844	8607.95
435.052	9042.12
435.259	8677.58
435.466	8904.91
435.673	8960.2
435.88	9265.35
436.087	9771.2
436.294	9713.86
436.501	9603.27
436.708	9822.4
436.915	10291.38
437.122	10473.65
437.329	10582.2
437.537	10830
437.743	10887.34
437.95	11030.7
438.157	11690.15
438.364	12122.27
438.571	11913.38
438.778	12095.64
438.985	13095.05
439.192	12619.92
439.399	12925.07
439.606	12669.08
439.813	13387.91
440.02	14229.63
440.227	13932.67
440.433	13944.96
440.64	14303.36
440.847	14270.59
441.054	14778.48
441.261	15431.79
441.467	15200.37
441.674	15673.45
441.881	16029.79
442.088	16330.84
442.294	16009.31
442.501	16519.26
442.708	16885.84
442.914	17461.32
443.121	18479.16
443.328	17838.15
443.534	18968.63
443.741	18692.15
443.948	18214.98
444.154	19599.4
444.361	19521.58
444.568	19415.09
444.774	19339.31
444.981	19951.65
445.187	20332.58
445.394	21135.38
445.6	20885.53
445.807	23105.52
446.013	21897.22
446.22	22390.78
446.426	23508.97
446.633	23789.55
446.839	24618.97
447.046	23580.65
447.252	24717.28
447.459	24174.56
447.665	24532.96
447.871	25741.26
448.078	26742.72
448.284	25524.18
448.491	26144.71
448.697	27221.94
448.903	27555.76
449.11	27522.99
449.316	27379.64
449.522	28057.51
449.728	28438.44
449.935	29011.87
450.141	28903.32
450.347	29509.52
450.553	28643.23
450.76	28688.29
450.966	29814.67
451.172	29327.25
451.378	30556.04
451.584	29523.86
451.791	30015.37
451.997	30209.93
452.203	30531.46
452.409	30453.64
452.615	30566.27
452.821	29427.6
453.027	29046.68
453.233	30703.49
453.44	29519.76
453.646	29804.43
453.852	29712.27
454.058	30728.06
454.264	29568.91
454.47	30052.23
454.676	29187.99
454.882	30488.45
455.088	27695.02
455.294	27850.67
455.5	28286.89
455.705	28585.89
455.911	27375.54
456.117	26593.22
456.323	26615.74
456.529	25321.43
456.735	26288.07
456.941	25487.31
457.147	25434.07
457.352	24184.8
457.558	24256.48
457.764	24422.37
457.97	23885.8
458.176	22851.58
458.381	23166.96
458.587	21968.9
458.793	22099.97
458.999	20746.26
459.204	22212.61
459.41	21993.48
459.616	20064.29
459.821	20459.55
460.027	20557.85
460.233	20052
460.438	18831.41
460.644	19021.88
460.85	18081.86
461.055	17930.31
461.261	17901.64
461.466	16500.83
461.672	16146.53
461.878	17154.13
462.083	16056.42
462.289	15726.69
462.494	15614.06
462.7	14710.9
462.905	14362.75
463.111	15192.17
463.316	14970.99
463.522	14637.17
463.727	14874.74
463.932	14534.78
464.138	14596.21
464.343	14579.83
464.549	14299.26
464.754	14680.18
464.959	14538.87
465.165	14540.92
465.37	13858.95
465.575	13367.43
465.781	14026.88
465.986	14172.29
466.191	13721.73
466.397	13244.56
466.602	12685.46
466.807	13248.65
467.012	13338.76
467.218	13248.65
467.423	12976.27
467.628	12955.79
467.833	13508.74
468.038	13121.68
468.244	12589.21
468.449	13170.83
468.654	12929.17
468.859	12509.33
469.064	12521.62
469.269	12075.17
469.474	12032.16
469.679	12587.16
469.885	11974.81
470.09	12292.25
470.295	12101.79
470.5	11815.07
470.705	11915.42
470.91	11638.95
471.115	11761.83
471.32	11853.98
471.525	11731.11
471.73	11481.25
471.935	11382.95
472.139	11104.43
472.344	11067.56
472.549	11053.23
472.754	11010.22
472.959	10684.59
473.164	10393.78
473.369	10156.22
473.574	10672.31
473.778	10543.28
473.983	10483.89
474.188	10485.94
474.393	10049.72
474.598	9924.8
474.802	9816.26
475.007	9681.09
475.212	9570.5
475.417	9568.45
475.621	9541.83
475.826	9472.2
476.031	9251.02
476.235	9105.61
476.44	9300.17
476.645	9056.46
476.849	9031.88
477.054	9136.33
477.259	8745.17
477.463	8874.19
477.668	8796.37
477.872	8845.52
478.077	8712.4
478.282	8251.61
478.486	8534.23
478.691	8184.02
478.895	8169.69
479.1	8243.42
479.304	8257.75
479.509	8016.09
479.713	8255.7
479.918	7864.54
480.122	7876.83
480.326	7983.32
480.531	7925.98
480.735	7719.14
480.94	7817.44
481.144	7940.32
481.348	7745.76
481.553	7833.82
481.757	7549.15
481.961	7803.1
482.166	7635.17
482.37	7667.94
482.574	7669.98
482.778	7594.21
482.983	7823.58
483.187	7698.66
483.391	7721.18
483.595	7700.7
483.8	7594.21
484.004	7624.93
484.208	8020.19
484.412	7731.42
484.616	7557.35
484.821	7753.95
485.025	7530.72
485.229	7710.94
485.433	7704.8
485.637	7612.64
485.841	7663.84
486.045	7782.62
486.249	7573.73
486.453	7706.85
486.657	7696.61
486.861	7684.32
487.065	7487.72
487.269	7622.88
487.473	7559.39
487.677	7692.51
487.881	7733.47
488.085	7620.83
488.289	7645.41
488.493	7784.67
488.697	7608.55
488.901	7633.12
489.105	7715.04
489.309	7801.05
489.512	7692.51
489.716	7700.7
489.92	7690.46
490.124	7870.69
490.328	7823.58
490.531	7635.17
490.735	7844.06
490.939	8042.71
491.143	7995.61
491.346	7803.1
491.55	8038.62
491.754	7786.72
491.958	7968.99
492.161	7999.71
492.365	8071.39
492.569	8141.02
492.772	8118.49
492.976	8124.63
493.18	8067.29
493.383	8290.52
493.587	8251.61
493.79	8530.13
493.994	8351.96
494.197	8296.66
494.401	8362.2
494.605	8566.99
494.808	8655.06
495.012	8786.13
495.215	8730.83
495.419	8822.99
495.622	8810.7
495.825	8673.49
496.029	8952.01
496.232	9009.36
496.436	9142.47
496.639	9330.89
496.843	9261.26
497.046	9541.83
497.249	9498.82
497.453	9580.74
497.656	9660.61
497.859	9656.51
498.063	9619.65
498.266	10029.24
498.469	10051.77
498.673	10234.04
498.876	10270.9
499.079	10178.75
499.282	10475.7
499.485	10698.93
499.689	10690.74
499.892	10838.19
500.095	10911.92
500.298	11108.52
500.501	10995.89
500.705	11266.22
500.908	11436.2
501.111	11622.56
501.314	11712.67
501.517	11862.18
501.72	11839.65
501.923	11870.37
502.126	12148.89
502.329	12374.17
502.532	12392.6
502.735	12648.6
502.938	12607.64
503.141	12957.84
503.344	13052.05
503.547	13025.42
503.75	13369.48
503.953	13510.79
504.156	13623.43
504.359	13795.46
504.562	13801.6
504.765	14024.83
504.968	14192.76
505.17	14475.38
505.373	14391.42
505.576	14602.36
505.779	14796.92
505.982	14790.77
506.185	15179.89
506.387	15319.15
506.59	15288.43
506.793	15724.65
506.996	15659.11
507.198	16259.17
507.401	16136.29
507.604	16255.07
507.807	16617.56
508.009	16605.27
508.212	16877.65
508.415	17225.81
508.617	17254.48
508.82	17336.4
509.022	17578.06
509.225	17981.51
509.428	17999.94
509.63	18106.43
509.833	18274.37
510.035	18612.28
510.238	18686.01
510.44	18761.78
510.643	18915.38
510.845	19507.24
511.048	19544.11
511.25	19318.83
511.453	19589.16
511.655	20379.68
511.858	20342.81
512.06	20643.87
512.262	20776.98
512.465	20793.37
512.667	21176.34
512.87	21600.27
513.072	21465.1
513.274	21946.37
513.477	21960.71
513.679	22073.35
513.881	22378.5
514.084	22747.13
514.286	22980.6
514.488	23255.03
514.69	23447.54
514.893	23744.49
515.095	23887.85
515.297	24012.77
515.499	24170.47
515.701	24741.85
515.904	25022.42
516.106	25120.73
516.308	25116.63
516.51	25935.82
516.712	25663.44
516.914	25851.85
517.116	26660.8
517.318	26302.4
517.52	26871.74
517.722	27234.23
517.925	27389.88
518.127	27619.25
518.329	27951.02
518.531	27498.42
518.733	28469.15
518.935	28628.9
519.136	28579.75
519.338	29347.73
519.54	29253.53
519.742	29532.05
519.944	29734.8
520.146	30269.32
520.348	30269.32
520.55	30697.34
520.752	30578.56
520.954	31635.31
521.155	30953.34
521.357	31739.76
521.559	32139.11
521.761	32165.74
521.963	32552.8
522.164	32440.17
522.366	32823.14
522.568	33349.46
522.77	33353.56
522.971	33961.81
523.173	33705.81
523.375	33824.59
523.576	34058.06
523.778	34541.38
523.98	34918.21
524.181	34729.8
524.383	34946.88
524.584	35798.84
524.786	35612.47
524.988	35594.04
525.189	36036.4
525.391	36409.13
525.592	36437.8
525.794	36609.83
525.995	36824.87
526.197	36869.92
526.398	37058.34
526.6	37297.95
526.801	37478.17
527.003	37768.98
527.204	37973.78
527.406	37898
527.607	37934.87
527.808	38428.43
528.01	37873.43
528.211	38184.72
528.412	38852.36
528.614	38799.11
528.815	39057.15
529.016	39476.99
529.218	39114.5
529.419	39298.81
529.62	39595.77
529.822	39352.06
530.023	39593.72
530.224	39681.78
530.425	39753.46
530.626	39767.8
530.828	39530.23
531.029	40570.6
531.23	39696.12
531.431	40087.28
531.632	39798.52
531.833	40304.37
532.035	40337.13
532.236	40353.52
532.437	40343.28
532.638	40185.58
532.839	40855.27
533.04	40759.02
533.241	40308.46
533.442	40949.48
533.643	40574.7
533.844	40865.51
534.045	40808.17
534.246	40374
534.447	41098.98
534.648	40670.95
534.849	40802.02
535.05	41066.21
535.251	41139.94
535.451	40929
535.652	41121.51
535.853	41012.96
536.054	40918.76
536.255	41062.11
536.456	40550.12
536.657	41737.94
536.857	40894.18
537.058	40756.97
537.259	41617.11
537.46	40937.19
537.66	41068.26
537.861	41414.37
538.062	40871.65
538.263	41283.3
538.463	40896.23
538.664	41078.5
538.865	40963.81
539.065	41326.3
539.266	40976.1
539.466	41377.5
539.667	41189.09
539.868	41291.49
540.068	40767.21
540.269	40836.84
540.469	41379.55
540.67	41021.16
540.87	41017.06
541.071	41469.66
541.271	41279.2
541.472	41090.79
541.672	40691.43
541.873	40793.83
542.073	40349.42
542.274	41080.55
542.474	41285.34
542.675	40572.65
542.875	41414.37
543.075	40763.11
543.276	40791.78
543.476	41500.38
543.676	40869.61
543.877	40900.33
544.077	40947.43
544.277	41146.08
544.478	41184.99
544.678	41037.54
544.878	40842.98
545.078	40910.57
545.279	40779.5
545.479	40937.19
545.679	40701.67
545.879	40980.2
546.079	41090.79
546.28	41039.59
546.48	40369.9
546.68	41074.4
546.88	40894.18
547.08	40916.71
547.28	41055.97
547.48	40734.44
547.68	40982.24
547.88	40707.82
548.081	41055.97
548.281	40920.8
548.481	40773.35
548.681	40984.29
548.881	40668.9
549.081	40744.68
549.28	40709.86
549.48	40890.09
549.68	40799.97
549.88	41219.81
550.08	40607.47
550.28	40601.32
550.48	40806.12
550.68	40763.11
550.88	40431.34
551.08	40316.65
551.279	41078.5
551.479	40040.18
551.679	40451.82
551.879	40627.95
552.079	40898.28
552.278	40693.48
552.478	40812.26
552.678	40664.81
552.878	40814.31
553.077	40619.75
553.277	39911.16
553.477	40726.25
553.676	40650.47
553.876	40349.42
554.076	40222.45
554.275	39907.06
554.475	39909.11
554.674	40429.29
554.874	39941.88
555.074	39958.26
555.273	40412.91
555.473	40419.05
555.672	39802.61
555.872	40140.53
556.071	39978.74
556.271	39843.57
556.47	40003.31
556.67	39472.89
556.869	39440.12
557.068	39962.36
557.268	39157.5
557.467	39759.61
557.667	39864.05
557.866	39401.21
558.065	39390.97
558.265	39071.49
558.464	38936.32
558.663	39728.89
558.863	38911.75
559.062	39855.86
559.261	38924.04
559.461	39231.23
559.66	38735.62
559.859	39098.11
560.058	39069.44
560.258	38579.98
560.457	38422.28
560.656	38424.33
560.855	38547.21
561.054	38582.02
561.253	38375.18
561.453	38539.02
561.652	38383.37
561.851	38450.95
562.05	38131.47
562.249	37871.38
562.448	38082.32
562.647	38047.5
562.846	37682.97
563.045	37822.23
563.244	37080.86
563.443	38004.5
563.642	37492.51
563.841	37302.04
564.04	37226.27
564.239	37857.04
564.438	37158.69
564.637	36957.99
564.836	36745
565.035	37031.71
565.234	36955.94
565.432	36462.38
565.631	36714.28
565.83	36781.86
566.029	36601.64
566.228	36439.85
566.427	36259.63
566.625	35999.54
566.824	35854.13
567.023	36474.66
567.222	35331.9
567.42	36122.41
567.619	35729.2
567.818	35714.87
568.016	35512.12
568.215	35651.38
568.414	35491.64
568.612	35553.08
568.811	35204.92
569.01	35147.58
569.208	34281.29
569.407	34836.29
569.605	34398.02
569.804	34830.15
570.002	34123.6
570.201	34533.19
570.4	34250.57
570.598	34146.12
570.797	34123.6
570.995	34023.25
571.193	33599.32
571.392	34004.81
571.59	33333.08
571.789	33398.62
571.987	33273.69
572.186	33148.76
572.384	33009.5
572.582	33232.73
572.781	33181.53
572.979	32517.99
573.177	33167.2
573.376	33101.66
573.574	32816.99
573.772	32704.35
573.971	32599.91
574.169	32055.15
574.367	31985.52
574.565	32216.94
574.763	32161.64
574.962	31821.68
575.16	31483.76
575.358	32081.77
575.556	31532.92
575.754	31872.88
575.952	31485.81
576.151	31432.57
576.349	31145.85
576.547	30623.62
576.745	31025.02
576.943	31129.47
577.141	30621.57
577.339	30740.35
577.537	30402.44
577.735	30814.08
577.933	30236.55
578.131	30672.77
578.329	30351.24
578.527	30197.64
578.725	30181.26
578.923	30142.35
579.121	29841.29
579.319	29857.68
579.516	29986.7
579.714	29878.16
579.912	29917.07
580.11	29398.93
580.308	29400.98
580.506	29321.11
580.704	28993.43
580.901	29114.27
581.099	29247.38
581.297	28682.14
581.495	29028.25
581.692	28884.89
581.89	28405.67
582.088	28667.81
582.285	28589.99
582.483	28688.29
582.681	28409.76
582.878	28180.39
583.076	28086.18
583.274	28315.56
583.471	27778.99
583.669	28065.71
583.866	27854.76
584.064	28000.17
584.262	27443.12
584.459	27713.45
584.657	27436.98
584.854	27738.03
585.052	27111.35
585.249	27619.25
585.447	27088.82
585.644	27082.68
585.841	27160.5
586.039	27189.17
586.236	26666.94
586.434	26970.04
586.631	26709.95
586.828	26671.04
587.026	26423.23
587.223	26347.46
587.42	26292.16
587.618	26312.64
587.815	25857.99
588.012	25939.91
588.21	26042.31
588.407	26294.21
588.604	25857.99
588.801	25720.78
588.999	25880.52
589.196	25595.85
589.393	25663.44
589.59	25468.88
589.787	25450.45
589.984	25341.91
590.182	25100.25
590.379	25389.01
590.576	25003.99
590.773	25053.14
590.97	24537.05
591.167	24885.21
591.364	24694.75
591.561	24545.25
591.758	24492
591.955	24340.45
592.152	24608.73
592.349	24279.01
592.546	24545.25
592.743	24295.39
592.94	23896.04
593.137	24195.04
593.334	24348.64
593.531	23586.8
593.727	24111.08
593.924	23795.69
594.121	23564.27
594.318	23906.28
594.515	23472.11
594.712	23783.4
594.908	23597.04
595.105	23611.37
595.302	23435.25
595.499	23461.87
595.696	23121.91
595.892	23054.33
596.089	23267.31
596.286	23267.31
596.482	22921.21
596.679	22773.75
596.876	22837.24
597.072	22708.22
597.269	22786.04
597.466	22581.24
597.662	22501.37
597.859	22532.09
598.055	22323.2
598.252	22171.65
598.448	22433.79
598.645	22267.91
598.841	22161.41
599.038	22171.65
599.234	21870.6
599.431	21901.32
599.627	21717
599.824	21897.22
600.02	21772.3
600.217	21760.01
600.413	21348.37
600.609	21368.85
600.806	21176.34
601.002	21542.92
601.198	21110.8
601.395	21155.86
601.591	21049.36
601.787	21082.13
601.984	20686.87
602.18	21297.17
602.376	20807.7
602.572	20682.78
602.769	20690.97
602.965	20623.39
603.161	20922.39
603.357	20607
603.553	20408.35
603.75	20664.35
603.946	20394.01
604.142	20242.46
604.338	19988.52
604.534	20264.99
604.73	19798.06
604.926	20047.91
605.122	20117.54
605.318	19832.87
605.514	19738.66
605.71	19509.29
605.906	19666.99
606.102	19810.34
606.298	19873.83
606.494	19390.51
606.69	19449.9
606.886	19777.58
607.082	19245.1
607.278	19241.01
607.474	19015.73
607.67	19560.49
607.866	18968.63
608.062	19294.25
608.257	18798.65
608.453	18868.28
608.649	19122.23
608.845	18892.85
609.041	18743.35
609.236	19089.46
609.432	18817.08
609.628	18489.4
609.824	18581.56
610.019	18587.71
610.215	18735.16
610.411	18640.95
610.606	18307.13
610.802	18620.47
610.998	18387
611.193	18577.47
611.389	18479.16
611.584	18165.82
611.78	18036.8
611.976	18266.17
612.171	18368.57
612.367	17909.83
612.562	17823.81
612.758	17719.37
612.953	17807.43
613.149	17975.36
613.344	17715.27
613.539	18155.58
613.735	17612.87
613.93	17702.98
614.126	17610.82
614.321	18104.39
614.517	17832.01
614.712	17760.33
614.907	17768.52
615.103	17692.74
615.298	17489.99
615.493	17717.32
615.688	17322.06
615.884	17920.07
616.079	17092.69
616.274	17391.69
616.47	17213.52
616.665	17256.53
616.86	16947.28
617.055	16889.94
617.25	16822.36
617.445	17305.68
617.641	16914.52
617.836	17297.49
618.031	16679
618.226	17014.87
618.421	16805.97
618.616	16912.47
618.811	16511.07
619.006	16904.28
619.201	16345.18
619.396	16457.82
619.591	16238.69
619.786	16549.98
619.981	16195.68
620.176	16341.08
620.371	16044.13
620.566	16001.12
620.761	15980.64
620.956	16167.01
621.151	15657.06
621.346	16052.32
621.541	15159.41
621.735	15700.07
621.93	15468.65
622.125	15554.66
622.32	15167.6
622.515	15439.98
622.709	15306.86
622.904	15222.89
623.099	15300.72
623.294	15009.9
623.488	14925.94
623.683	15016.05
623.878	14710.9
624.072	14596.21
624.267	14635.13
624.462	14334.07
624.656	14465.14
624.851	14260.35
625.046	14391.42
625.24	14358.65
625.435	14182.52
625.629	14082.17
625.824	13701.25
626.018	14067.84
626.213	13473.93
626.407	13709.44
626.602	13531.27
626.796	13770.88
626.991	13416.58
627.185	13494.41
627.38	13265.03
627.574	13283.47
627.768	13195.4
627.963	13242.51
628.157	13123.73
628.352	13017.23
628.546	12712.08
628.74	12869.78
628.935	12880.02
629.129	12804.24
629.323	12638.36
629.517	12484.76
629.712	12587.16
629.906	12574.87
630.1	12189.85
630.294	12437.66
630.489	12116.12
630.683	12335.26
630.877	12101.79
631.071	12011.68
631.265	11739.3
631.459	12052.64
631.653	12007.58
631.848	11917.47
632.042	11579.56
632.236	11720.87
632.43	11516.07
632.624	11647.14
632.818	11587.75
633.012	11352.23
633.206	11247.79
633.4	11417.77
633.594	11149.48
633.788	11174.06
633.982	11311.27
634.176	11073.71
634.369	10887.34
634.563	10987.69
634.757	10952.88
634.951	10834.1
635.145	11002.03
635.339	10895.54
635.533	10641.59
635.726	10707.12
635.92	10555.57
636.114	10471.61
636.308	10467.51
636.501	10799.28
636.695	10377.4
636.889	10240.19
637.083	10287.29
637.276	10358.97
637.47	10170.55
637.664	10033.34
637.857	10229.95
638.051	9744.58
638.244	9947.33
638.438	9898.17
638.632	9681.09
638.825	9623.75
639.019	9869.5
639.212	9453.77
639.406	9883.84
639.599	9648.32
639.793	9550.02
639.986	9414.85
640.18	9572.55
640.373	9183.43
640.567	9343.17
640.76	9224.39
640.954	9072.84
641.147	9027.79
641.34	9169.1
641.534	9107.66
641.727	9048.27
641.92	8939.72
642.114	9058.51
642.307	8849.61
642.5	8784.08
642.694	8704.21
642.887	8626.39
643.08	8704.21
643.273	8673.49
643.467	8497.36
643.66	8306.9
643.853	8552.66
644.046	8542.42
644.239	8634.58
644.432	8175.83
644.626	8290.52
644.819	8038.62
645.012	8163.54
645.205	8014.04
645.398	8147.16
645.591	7870.69
645.784	7901.4
645.977	7872.73
646.17	7899.36
646.363	7882.97
646.556	7801.05
646.749	7831.77
646.942	7657.7
647.135	7686.37
647.328	7690.46
647.521	7737.57
647.714	7590.11
647.907	7364.84
648.099	7622.88
648.292	7487.72
648.485	7327.97
648.678	7393.51
648.871	7317.73
649.064	7332.07
649.256	7233.77
649.449	7282.92
649.642	7127.27
649.835	7160.04
650.027	7157.99
650.22	6922.48
650.413	7014.63
650.605	7037.16
650.798	7055.59
650.991	6899.95
651.183	6791.41
651.376	6797.55
651.568	6856.94
651.761	6568.18
651.954	6537.46
652.146	6818.03
652.339	6746.35
652.531	6729.97
652.724	6541.55
652.916	6529.27
653.109	6392.05
653.301	6537.46
653.494	6605.04
653.686	6338.8
653.879	6482.16
654.071	6359.28
654.263	6295.8
654.456	6447.35
654.648	6269.17
654.84	6199.54
655.033	6195.45
655.225	6177.02
655.417	6021.37
655.61	6277.37
655.802	6185.21
655.994	6029.56
656.186	5955.83
656.379	5880.06
656.571	5890.3
656.763	5845.24
656.955	5869.82
657.148	5839.1
657.34	5699.84
657.532	5886.2
657.724	5851.39
657.916	5943.55
658.108	5925.11
658.3	5669.12
658.492	5628.16
658.684	5562.62
658.876	5533.95
659.068	5499.14
659.26	5615.87
659.452	5511.43
659.644	5509.38
659.836	5409.03
660.028	5607.68
660.22	5292.29
660.412	5335.3
660.604	5417.22
660.796	5380.36
660.988	5300.48
661.18	5257.48
661.372	5224.71
661.563	5226.76
661.755	5150.98
661.947	5179.65
662.139	5167.37
662.331	5134.6
662.522	5124.36
662.714	5103.88
662.906	5091.59
663.097	4972.81
663.289	5034.25
663.481	4886.79
663.673	5085.45
663.864	5036.3
664.056	4903.18
664.247	4880.65
664.439	4860.17
664.631	4772.11
664.822	4819.21
665.014	4735.25
665.205	4772.11
665.397	4798.73
665.588	4765.96
665.78	4907.27
665.971	4634.89
666.163	4649.23
666.354	4821.26
666.546	4612.37
666.737	4598.03
666.929	4606.22
667.12	4651.28
667.311	4462.87
667.503	4536.59
667.694	4579.6
667.885	4628.75
668.077	4501.78
668.268	4393.23
668.459	4542.74
668.651	4651.28
668.842	4387.09
669.033	4571.41
669.224	4428.05
669.416	4538.64
669.607	4393.23
669.798	4196.63
669.989	4469.01
670.18	4399.38
670.371	4352.27
670.563	4350.23
670.754	4319.51
670.945	4284.69
671.136	4253.97
671.327	4176.15
671.518	4266.26
671.709	4348.18
671.9	4460.82
672.091	4292.88
672.282	4292.88
672.473	4276.5
672.664	4092.18
672.855	4194.58
673.046	4202.77
673.237	4260.12
673.428	4145.43
673.619	4237.59
673.809	4243.73
674	4006.17
674.191	4194.58
674.382	4127
674.573	4161.81
674.764	4178.2
674.954	4200.73
675.145	4020.5
675.336	4036.89
675.527	4133.14
675.717	3967.26
675.908	4079.9
676.099	4034.84
676.289	4139.29
676.48	4092.18
676.671	4079.9
676.861	4143.38
677.052	4022.55
677.243	4057.37
677.433	4149.53
677.624	4118.81
677.814	3926.3
678.005	4073.75
678.195	4215.06
678.386	3997.98
678.576	4020.5
678.767	3965.21
678.957	4057.37
679.148	4219.16
679.338	4194.58
679.529	4090.13
679.719	4112.66
679.909	4215.06
680.1	4114.71
680.29	4038.94
680.481	4141.33
680.671	4040.98
680.861	4065.56
681.052	4067.61
681.242	3985.69
681.432	3997.98
681.622	4008.22
681.813	4098.33
682.003	4047.13
682.193	3975.45
682.383	3989.78
682.573	4002.07
682.764	4014.36
682.954	3989.78
683.144	4018.46
683.334	4053.27
683.524	3938.59
683.714	3938.59
683.904	4063.51
684.094	3977.5
684.284	4098.33
684.474	4004.12
684.664	4022.55
684.854	3973.4
685.044	4077.85
685.234	3901.72
685.424	3948.83
685.614	3954.97
685.804	4030.74
685.994	3858.71
686.184	3907.87
686.374	3823.9
686.564	3877.15
686.753	4063.51
686.943	3940.63
687.133	3987.74
687.323	3844.38
687.513	3744.03
687.702	3791.13
687.892	3750.17
688.082	3821.85
688.272	3852.57
688.461	3848.47
688.651	3776.8
688.841	3692.83
689.03	3666.21
689.22	3686.69
689.41	3647.77
689.599	3684.64
689.789	3549.47
689.979	3580.19
690.168	3514.66
690.358	3473.7
690.547	3690.78
690.737	3580.19
690.926	3537.18
691.116	3397.92
691.305	3567.9
691.495	3463.46
691.684	3289.38
691.874	3582.24
692.063	3436.83
692.252	3531.04
692.442	3457.31
692.631	3377.44
692.82	3311.91
693.01	3359.01
693.199	3414.31
693.388	3232.04
693.578	3324.19
693.767	3324.19
693.956	3252.52
694.146	3234.08
694.335	3154.21
694.524	3219.75
694.713	3219.75
694.902	3256.61
695.092	3205.41
695.281	3262.76
695.47	3217.7
695.659	3215.65
695.848	3182.88
696.037	3154.21
696.226	3203.36
696.415	3162.41
696.604	3242.28
696.793	3275.04
696.982	3019.05
697.171	3238.18
697.36	3123.49
697.549	3086.63
697.738	3045.67
697.927	3113.25
698.116	3217.7
698.305	3227.94
698.494	3211.56
698.683	3205.41
698.872	3189.03
699.061	3121.45
699.25	3111.21
699.438	3086.63
699.627	3021.1
699.816	3139.88
700.005	3148.07
700.193	3094.82
700.382	3064.1
700.571	3180.84
700.76	3133.73
700.948	3150.12
701.137	3244.32
701.326	3115.3
701.514	3039.53
701.703	3152.17
701.892	3156.26
702.08	3160.36
702.269	3096.87
702.457	3109.16
702.646	3105.06
702.834	3064.1
703.023	3086.63
703.212	3105.06
703.4	3178.79
703.589	2963.75
703.777	3014.95
703.965	3006.76
704.154	3146.02
704.342	2953.51
704.531	3047.72
704.719	3043.62
704.907	3127.59
705.096	3135.78
705.284	3336.48
705.472	3232.04
705.661	3137.83
705.849	3150.12
706.037	3156.26
706.226	3166.5
706.414	3264.8
706.602	3148.07
706.79	3186.98
706.979	3221.8
707.167	3232.04
707.355	3066.15
707.543	3281.19
707.731	3168.55
707.919	3197.22
708.107	3170.6
708.296	3217.7
708.484	3105.06
708.672	3193.12
708.86	3111.21
709.048	3125.54
709.236	3209.51
709.424	3313.95
709.612	3240.23
709.8	3234.08
709.988	3186.98
710.176	3258.66
710.364	3270.95
710.551	3211.56
710.739	3342.63
710.927	3264.8
711.115	3176.74
711.303	3326.24
711.491	3432.74
711.679	3258.66
711.866	3453.22
712.054	3244.32
712.242	3160.36
712.43	3279.14
712.617	3309.86
712.805	3250.47
712.993	3215.65
713.181	3268.9
713.368	3295.52
713.556	3467.55
713.744	3184.93
713.931	3348.77
714.119	3307.81
714.306	3242.28
714.494	3217.7
714.682	3391.78
714.869	3246.37
715.057	3291.43
715.244	3320.1
715.432	3273
715.619	3166.5
715.807	3313.95
715.994	3299.62
716.182	3299.62
716.369	3449.12
716.556	3406.11
716.744	3295.52
716.931	3281.19
717.119	3512.61
717.306	3492.13
717.493	3346.72
717.681	3438.88
717.868	3406.11
718.055	3385.63
718.242	3469.6
718.43	3422.5
718.617	3449.12
718.804	3418.4
718.991	3588.38
719.179	3383.59
719.366	3463.46
719.553	3584.29
719.74	3481.89
719.927	3440.93
720.114	3445.02
720.301	3473.7
720.488	3514.66
720.676	3432.74
720.863	3432.74
721.05	3555.62
721.237	3457.31
721.424	3602.72
721.611	3557.66
721.798	3389.73
721.985	3516.7
722.172	3645.73
722.358	3461.41
722.545	3555.62
722.732	3617.05
722.919	3424.55
723.106	3627.29
723.293	3580.19
723.48	3535.14
723.667	3592.48
723.853	3463.46
724.04	3547.42
724.227	3457.31
724.414	3623.2
724.6	3582.24
724.787	3674.4
724.974	3488.03
725.161	3682.59
725.347	3567.9
725.534	3643.68
725.72	3649.82
725.907	3625.25
726.094	3533.09
726.28	3670.3
726.467	3596.57
726.653	3608.86
726.84	3709.21
727.027	3696.92
727.213	3639.58
727.4	3776.8
727.586	3643.68
727.773	3727.64
727.959	3651.87
728.145	3731.74
728.332	3604.77
728.518	3686.69
728.705	3827.99
728.891	3666.21
729.077	3754.27
729.264	3672.35
729.45	3623.2
729.636	3805.47
729.823	3672.35
730.009	3852.57
730.195	3715.36
730.382	3879.19
730.568	3832.09
730.754	3780.89
730.94	3739.93
731.126	3784.99
731.313	3795.23
731.499	3633.44
731.685	3748.12
731.871	3852.57
732.057	3895.58
732.243	3674.4
732.429	3723.55
732.615	3854.62
732.801	3803.42
732.987	3782.94
733.173	3897.63
733.359	3840.28
733.545	3709.21
733.731	3737.88
733.917	3813.66
734.103	3868.95
734.289	3711.26
734.475	3754.27
734.661	3940.63
734.847	3809.56
735.033	3748.12
735.219	3907.87
735.404	3793.18
735.59	3799.32
735.776	3842.33
735.962	3805.47
736.148	3832.09
736.333	3950.87
736.519	3703.07
736.705	3848.47
736.89	3750.17
737.076	3772.7
737.262	3727.64
737.447	3981.59
737.633	3889.43
737.819	3731.74
738.004	3909.91
738.19	3819.8
738.375	3703.07
738.561	3760.41
738.747	3709.21
738.932	3735.84
739.118	3731.74
739.303	3727.64
739.489	3721.5
739.674	3801.37
739.859	3744.03
740.045	3717.4
740.23	3836.19
740.416	3696.92
740.601	3752.22
740.786	3795.23
740.972	3629.34
741.157	3723.55
741.342	3473.7
741.528	3631.39
741.713	3664.16
741.898	3717.4
742.084	3619.1
742.269	3629.34
742.454	3639.58
742.639	3662.11
742.824	3602.72
743.01	3668.25
743.195	3531.04
743.38	3496.22
743.565	3647.77
743.75	3633.44
743.935	3584.29
744.12	3600.67
744.305	3553.57
744.49	3391.78
744.675	3424.55
744.86	3320.1
745.045	3410.21
745.23	3465.5
745.415	3361.06
745.6	3547.42
745.785	3422.5
745.97	3383.59
746.155	3537.18
746.34	3297.57
746.525	3322.15
746.71	3322.15
746.895	3344.67
747.079	3436.83
747.264	3189.03
747.449	3309.86
747.634	3354.91
747.819	3385.63
748.003	3256.61
748.188	3121.45
748.373	3250.47
748.557	3143.97
748.742	3014.95
748.927	3193.12
749.111	3092.77
749.296	3078.44
749.481	3010.86
749.665	3066.15
749.85	3084.58
750.034	3043.62
750.219	3025.19
750.404	2924.84
750.588	2973.99
750.773	2892.07
750.957	2879.79
751.141	2928.94
751.326	2834.73
751.51	2978.09
751.695	2799.91
751.879	2838.83
752.064	2892.07
752.248	2769.2
752.432	2883.88
752.617	2912.55
752.801	2734.38
752.985	2718
753.17	2756.91
753.354	2746.67
753.538	2679.08
753.722	2724.14
753.907	2500.91
754.091	2593.07
754.275	2556.21
754.459	2611.5
754.643	2656.56
754.828	2564.4
755.012	2472.24
755.196	2431.28
755.38	2476.34
755.564	2371.89
755.748	2406.7
755.932	2568.49
756.116	2384.18
756.3	2263.35
756.484	2429.23
756.668	2232.63
756.852	2271.54
757.036	2326.83
757.22	2402.61
757.404	2365.75
757.588	2265.39
757.772	2316.59
757.956	2287.92
758.14	2263.35
758.323	2185.52
758.507	2263.35
758.691	2222.39
758.875	2195.76
759.059	2212.15
759.242	2263.35
759.426	2128.18
759.61	2064.69
759.794	2097.46
759.977	2201.91
760.161	2253.11
760.345	2218.29
760.528	2046.26
760.712	2119.99
760.895	1999.16
761.079	2025.78
761.263	2025.78
761.446	2033.97
761.63	2056.5
761.813	1945.91
761.997	1980.73
762.18	1956.15
762.364	1941.82
762.547	1943.86
762.731	1943.86
762.914	1882.42
763.098	1935.67
763.281	1831.23
763.464	1837.37
763.648	1820.99
763.831	1804.6
764.015	1890.62
764.198	1786.17
764.381	1784.12
764.564	1896.76
764.748	1802.55
764.931	1851.71
765.114	1818.94
765.297	1827.13
765.481	1751.35
765.664	1730.87
765.847	1794.36
766.03	1790.27
766.213	1691.96
766.397	1702.2
766.58	1716.54
766.763	1790.27
766.946	1691.96
767.129	1806.65
767.312	1718.59
767.495	1780.03
767.678	1798.46
767.861	1773.88
768.044	1708.35
768.227	1712.44
768.41	1675.58
768.593	1712.44
768.776	1708.35
768.959	1638.72
769.142	1624.38
769.324	1603.9
769.507	1630.52
769.69	1564.99
769.873	1597.76
770.056	1587.52
770.239	1569.09
770.421	1544.51
770.604	1530.17
770.787	1503.55
770.97	1593.66
771.152	1530.17
771.335	1452.35
771.518	1505.6
771.7	1511.74
771.883	1528.13
772.066	1411.39
772.248	1448.26
772.431	1433.92
772.613	1446.21
772.796	1444.16
772.978	1507.65
773.161	1462.59
773.343	1397.06
773.526	1411.39
773.708	1366.34
773.891	1472.83
774.073	1431.87
774.256	1376.58
774.438	1427.78
774.621	1280.32
774.803	1364.29
774.985	1343.81
775.168	1415.49
775.35	1239.36
775.532	1216.83
775.715	1354.05
775.897	1253.7
776.079	1208.64
776.261	1231.17
776.444	1239.36
776.626	1345.86
776.808	1308.99
776.99	1214.79
777.173	1239.36
777.355	1245.51
777.537	1245.51
777.719	1233.22
777.901	1204.55
778.083	1114.44
778.265	1089.86
778.447	1163.59
778.629	1143.11
778.811	1173.83
778.993	1110.34
779.175	1143.11
779.357	1147.2
779.539	1057.09
779.721	983.37
779.903	973.13
780.085	1014.09
780.267	1040.71
780.449	1007.94
780.631	1073.48
780.812	1028.42
780.994	1077.57
781.176	940.36
781.358	930.12
781.54	940.36
781.721	1009.99
781.903	985.41
782.085	944.45
782.267	1091.91
782.448	977.22
782.63	969.03
782.812	952.65
782.993	893.26
783.175	948.55
783.357	880.97
783.538	944.45
783.72	819.53
783.901	923.98
784.083	944.45
784.264	946.5
784.446	911.69
784.627	741.71
784.809	981.32
784.99	819.53
785.172	803.15
785.353	801.1
785.535	874.82
785.716	829.77
785.897	745.8
786.079	858.44
786.26	790.86
786.441	743.75
786.623	753.99
786.804	745.8
786.985	680.27
787.167	829.77
787.348	737.61
787.529	739.66
787.71	784.71
787.891	768.33
788.073	692.55
788.254	706.89
788.435	807.24
788.616	694.6
788.797	647.5
788.978	690.51
789.159	731.47
789.34	758.09
789.522	762.19
789.703	696.65
789.884	710.99
790.065	557.39
790.246	684.36
790.427	622.92
790.607	749.9
790.788	696.65
790.969	614.73
791.15	647.5
791.331	631.12
791.512	592.2
791.693	543.05
791.874	575.82
792.054	655.69
792.235	678.22
792.416	536.91
792.597	518.48
792.778	600.4
792.958	575.82
793.139	569.68
793.32	592.2
793.5	518.48
793.681	557.39
793.862	604.49
794.042	577.87
794.223	538.96
794.404	518.48
794.584	549.2
794.765	528.72
794.945	547.15
795.126	567.63
795.306	502.09
795.487	504.14
795.667	487.76
795.848	536.91
796.028	538.96
796.209	440.65
796.389	489.81
796.57	502.09
796.75	467.28
796.93	473.42
797.111	532.81
797.291	457.04
797.471	518.48
797.652	483.66
797.832	463.18
798.012	485.71
798.192	469.33
798.373	426.32
798.553	440.65
798.733	473.42
798.913	512.33
799.093	434.51
799.274	485.71
799.454	436.56
799.634	409.94
799.814	440.65
799.994	485.71
800.174	524.62
800.354	401.74
800.534	330.06
800.714	504.14
800.894	485.71
801.074	409.94
801.254	352.59
801.434	403.79
801.614	385.36
801.794	397.65
801.974	1145.16
802.154	391.5
802.334	405.84
802.514	364.88
802.693	430.41
802.873	387.41
803.053	407.89
803.233	336.21
803.413	399.7
803.592	454.99
803.772	325.97
803.952	330.06
804.131	354.64
804.311	430.41
804.491	405.84
804.67	307.54
804.85	356.69
805.03	426.32
805.209	375.12
805.389	282.96
805.568	360.78
805.748	186.71
805.928	293.2
806.107	465.23
806.287	360.78
806.466	299.34
806.646	334.16
806.825	360.78
807.004	436.56
807.184	268.63
807.363	385.36
807.543	266.58
807.722	309.58
807.901	403.79
808.081	383.31
808.26	248.15
808.439	321.87
808.619	360.78
808.798	295.25
808.977	350.54
809.156	301.39
809.336	258.39
809.515	389.46
809.694	231.76
809.873	311.63
810.052	323.92
810.231	250.19
810.411	325.97
810.59	346.45
810.769	274.77
810.948	254.29
811.127	295.25
811.306	215.38
811.485	217.43
811.664	303.44
811.843	205.14
812.022	252.24
812.201	153.94
812.38	330.06
812.559	235.86
812.737	334.16
812.916	235.86
813.095	188.75
813.274	313.68
813.453	198.99
813.632	270.67
813.811	272.72
813.989	248.15
814.168	315.73
814.347	198.99
814.526	244.05
814.704	299.34
814.883	315.73
815.062	172.37
815.24	246.1
815.419	235.86
815.598	233.81
815.776	221.52
815.955	266.58
816.133	182.61
816.312	256.34
816.49	280.91
816.669	192.85
816.847	194.9
817.026	268.63
817.204	225.62
817.383	213.33
817.561	158.03
817.74	321.87
817.918	217.43
818.097	268.63
818.275	143.7
818.453	276.82
818.632	184.66
818.81	209.23
818.988	248.15
819.167	227.67
819.345	287.06
819.523	231.76
819.701	203.09
819.879	248.15
820.058	219.47
820.236	282.96
820.414	229.71
820.592	258.39
820.77	252.24
820.948	184.66
821.127	131.41
821.305	268.63
821.483	186.71
821.661	217.43
821.839	160.08
822.017	221.52
822.195	201.04
822.373	207.19
822.551	110.93
822.729	229.71
822.907	155.99
823.085	207.19
823.262	196.95
823.44	119.12
823.618	211.28
823.796	158.03
823.974	104.79
824.152	123.22
824.329	149.84
824.507	176.47
824.685	176.47
824.863	96.6
825.04	151.89
825.218	125.27
825.396	155.99
825.574	190.8
825.751	151.89
825.929	166.23
826.107	84.31
826.284	178.51
826.462	174.42
826.639	184.66
826.817	196.95
826.994	121.17
827.172	119.12
827.349	231.76
827.527	186.71
827.704	131.41
827.882	180.56
828.059	106.84
828.237	151.89
828.414	147.8
828.591	164.18
828.769	196.95
828.946	59.73
829.124	172.37
829.301	219.47
829.478	108.88
829.655	246.1
829.833	96.6
830.01	61.78
830.187	180.56
830.364	153.94
830.542	119.12
830.719	203.09
830.896	127.32
831.073	225.62
831.25	207.19
831.427	143.7
831.604	143.7
831.782	86.36
831.959	88.4
832.136	133.46
832.313	84.31
832.49	80.21
832.667	188.75
832.844	82.26
833.021	168.27
833.198	115.03
833.374	88.4
833.551	129.36
833.728	92.5
833.905	147.8
834.082	129.36
834.259	205.14
834.436	215.38
834.612	86.36
834.789	194.9
834.966	65.88
835.143	112.98
835.319	98.64
835.496	125.27
835.673	133.46
835.85	158.03
836.026	215.38
836.203	174.42
836.38	133.46
836.556	117.08
836.733	139.6
836.909	121.17
837.086	59.73
837.262	65.88
837.439	145.75
837.616	59.73
837.792	196.95
837.968	82.26
838.145	22.87
838.321	84.31
838.498	96.6
838.674	147.8
838.851	127.32
839.027	55.64
839.203	123.22
839.38	190.8
839.556	141.65
839.732	139.6
839.909	76.12
840.085	84.31
840.261	76.12
840.437	-1.71
840.614	82.26
840.79	96.6
840.966	51.54
841.142	137.56
841.318	104.79
841.494	88.4
841.671	69.97
841.847	49.49
842.023	8.53
842.199	147.8
842.375	174.42
842.551	-9.9
842.727	39.25
842.903	106.84
843.079	125.27
843.255	96.6
843.431	84.31
843.607	145.75
843.783	55.64
843.959	147.8
844.134	121.17
844.31	92.5
844.486	94.55
844.662	-18.09
844.838	221.52
845.013	112.98
845.189	141.65
845.365	94.55
845.541	61.78
845.716	65.88
845.892	143.7
846.068	57.68
846.244	47.44
846.419	14.68
846.595	2.39
846.77	20.82
846.946	82.26
847.122	39.25
847.297	39.25
847.473	100.69
847.648	49.49
847.824	90.45
847.999	82.26
848.175	47.44
848.35	22.87
848.526	80.21
848.701	76.12
848.876	69.97
849.052	61.78
849.227	43.35
849.403	20.82
849.578	37.2
849.753	65.88
849.929	76.12
850.104	10.58
850.279	20.82
850.454	119.12
850.63	106.84
850.805	125.27
850.98	86.36
851.155	84.31
851.33	59.73
851.505	-16.04
851.681	127.32
851.856	-32.43
852.031	151.89
852.206	29.01
852.381	98.64
852.556	125.27
852.731	104.79
852.906	106.84
853.081	65.88
853.256	69.97
853.431	-1.71
853.606	45.4
853.781	10.58
853.956	10.58
854.131	106.84
854.305	63.83
854.48	117.08
854.655	10.58
854.83	135.51
855.005	18.77
855.18	88.4
855.354	90.45
855.529	96.6
855.704	65.88
855.879	108.88
856.053	-5.8
856.228	47.44
856.403	22.87
856.577	106.84
856.752	51.54
856.926	67.92
857.101	106.84
857.276	26.96
857.45	100.69
857.625	125.27
857.799	8.53
857.974	55.64
858.148	6.49
858.323	78.16
858.497	16.73
858.672	47.44
858.846	-5.8
859.02	35.16
859.195	57.68
859.369	39.25
859.543	41.3
859.718	78.16
859.892	37.2
860.066	106.84
860.241	55.64
860.415	-7.85
860.589	12.63
860.763	26.96
860.938	20.82
861.112	53.59
861.286	22.87
861.46	24.92
861.634	41.3
861.808	-9.9
861.982	47.44
862.157	37.2
862.331	-5.8
862.505	-50.86
862.679	-85.67
862.853	18.77
863.027	24.92
863.201	98.64
863.375	53.59
863.549	29.01
863.722	22.87
863.896	39.25
864.07	-24.23
864.244	96.6
864.418	112.98
864.592	20.82
864.766	35.16
864.939	-13.99
865.113	31.06
865.287	0.34
865.461	24.92
865.634	102.74
865.808	76.12
865.982	14.68
866.156	-46.76
866.329	-65.19
866.503	106.84
866.676	24.92
866.85	18.77
867.024	-61.1
867.197	29.01
867.371	53.59
867.544	35.16
867.718	-26.28
867.891	96.6
868.065	22.87
868.238	53.59
868.412	53.59
868.585	-3.75
868.759	-22.19
868.932	8.53
869.105	-18.09
869.279	-13.99
869.452	2.39
869.625	-16.04
869.799	37.2
869.972	-18.09
870.145	6.49
870.319	8.53
870.492	2.39
870.665	12.63
870.838	4.44
871.011	-50.86
871.185	-40.62
871.358	90.45
871.531	10.58
871.704	41.3
871.877	41.3
872.05	4.44
872.223	29.01
872.396	88.4
872.569	16.73
872.742	63.83
872.915	20.82
873.088	0.34
873.261	94.55
873.434	72.02
873.607	51.54
873.78	26.96
873.953	20.82
874.126	-11.95
874.299	51.54
874.471	41.3
874.644	-46.76
874.817	-9.9
874.99	51.54
875.163	-28.33
875.335	-7.85
875.508	26.96
875.681	55.64
875.853	-118.44
876.026	37.2
876.199	72.02
876.371	-22.19
876.544	53.59
876.717	12.63
876.889	-7.85
877.062	72.02
877.234	16.73
877.407	-36.52
877.579	8.53
877.752	-1.71
877.924	65.88
878.097	-20.14
878.269	-22.19
878.442	43.35
878.614	0.34
878.786	115.03
878.959	-30.38
879.131	-28.33
879.303	-32.43
879.476	49.49
879.648	33.11
879.82	49.49
879.993	31.06
880.165	35.16
880.337	-65.19
880.509	26.96
880.681	-11.95
880.854	-24.23
881.026	6.49
881.198	102.74
881.37	-26.28
881.542	-22.19
881.714	0.34
881.886	31.06
882.058	-1.71
882.23	-24.23
882.402	61.78
882.574	6.49
882.746	22.87
882.918	18.77
883.09	31.06
883.262	-61.1
883.434	39.25
883.606	-28.33
883.778	33.11
883.95	0.34
884.122	-52.91
884.293	18.77
884.465	78.16
884.637	-36.52
884.809	-40.62
884.98	0.34
885.152	37.2
885.324	55.64
885.496	-16.04
885.667	-67.24
885.839	-93.87
886.011	24.92
886.182	61.78
886.354	72.02
886.525	-32.43
886.697	16.73
886.869	-59.05
887.04	-7.85
887.212	41.3
887.383	2.39
887.555	2.39
887.726	-1.71
887.897	-9.9
888.069	-7.85
888.24	-48.81
888.412	-28.33
888.583	72.02
888.754	12.63
888.926	-28.33
889.097	-38.57
889.268	-28.33
889.44	33.11
889.611	-63.15
889.782	39.25
889.953	-3.75
890.125	49.49
890.296	-91.82
890.467	-50.86
890.638	8.53
890.809	-50.86
890.98	-5.8
891.151	35.16
891.323	31.06
891.494	12.63
891.665	33.11
891.836	-44.71
892.007	16.73
892.178	69.97
892.349	-18.09
892.52	2.39
892.691	29.01
892.862	-16.04
893.032	4.44
893.203	63.83
893.374	-5.8
893.545	12.63
893.716	2.39
893.887	84.31
894.057	29.01
894.228	6.49
894.399	-13.99
894.57	-3.75
894.74	-11.95
894.911	76.12
895.082	59.73
895.253	-108.2
895.423	-26.28
895.594	53.59
895.764	-63.15
895.935	0.34
896.106	41.3
896.276	-22.19
896.447	0.34
896.617	22.87
896.788	-54.95
896.958	0.34
897.129	22.87
897.299	-50.86
897.47	61.78
897.64	-34.47
897.81	-13.99
897.981	-48.81
898.151	-40.62
898.322	-16.04
898.492	-16.04
898.662	-57
898.832	-71.34
899.003	61.78
899.173	-5.8
899.343	14.68
899.513	-20.14
