Data from USB4F104151__59__12-24-08-852.txt Node

Date: Fri Mar 14 12:24:08 EDT 2025
User: louis
Spectrometer: USB4F10415
Trigger mode: 4
Integration Time (sec): 3.500000E-2
Scans to average: 1
Electric dark correction enabled: true
Nonlinearity correction enabled: false
Boxcar width: 0
XAxis mode: Wavelengths
Number of Pixels in Spectrum: 3648
>>>>>Begin Spectral Data<<<<<
178.204	-111.1
178.424	-111.1
178.644	-111.1
178.864	-193.02
179.084	-131.58
179.304	26.11
179.524	-76.29
179.744	83.45
179.964	11.78
180.184	5.63
180.404	-6.66
180.624	38.4
180.844	-18.94
181.064	-43.52
181.283	13.82
181.503	-47.62
181.723	13.82
181.943	-68.09
182.163	69.12
182.383	30.21
182.602	38.4
182.822	134.65
183.042	50.69
183.262	-2.56
183.482	-51.71
183.701	-2.56
183.921	46.59
184.141	-4.61
184.361	87.55
184.58	26.11
184.8	38.4
185.02	-25.09
185.239	118.27
185.459	50.69
185.679	97.79
185.898	-8.7
186.118	120.32
186.338	9.73
186.557	101.89
186.777	114.17
186.997	-16.9
187.216	15.87
187.436	97.79
187.655	124.41
187.875	13.82
188.095	-35.33
188.314	44.54
188.534	116.22
188.753	-23.04
188.973	69.12
189.192	81.41
189.412	54.78
189.631	30.21
189.851	40.45
190.07	56.83
190.29	54.78
190.509	26.11
190.729	32.26
190.948	48.64
191.168	171.52
191.387	11.78
191.607	1.54
191.826	62.98
192.045	7.68
192.265	44.54
192.484	13.82
192.704	9.73
192.923	-0.51
193.142	101.89
193.362	-18.94
193.581	22.02
193.8	19.97
194.02	85.5
194.239	-33.28
194.458	103.93
194.678	71.17
194.897	42.5
195.116	30.21
195.335	56.83
195.555	52.74
195.774	87.55
195.993	34.3
196.212	7.68
196.432	-10.75
196.651	42.5
196.87	-10.75
197.089	89.6
197.308	140.8
197.528	30.21
197.747	38.4
197.966	52.74
198.185	67.07
198.404	-25.09
198.623	67.07
198.842	81.41
199.062	114.17
199.281	138.75
199.5	52.74
199.719	56.83
199.938	93.69
200.157	38.4
200.376	122.37
200.595	116.22
200.814	58.88
201.033	-14.85
201.252	60.93
201.471	46.59
201.69	134.65
201.909	62.98
202.128	144.89
202.347	46.59
202.566	58.88
202.785	44.54
203.004	-16.9
203.223	69.12
203.442	95.74
203.661	42.5
203.879	44.54
204.098	58.88
204.317	-23.04
204.536	62.98
204.755	65.02
204.974	83.45
205.193	87.55
205.411	116.22
205.63	22.02
205.849	56.83
206.068	52.74
206.287	62.98
206.505	15.87
206.724	67.07
206.943	-8.7
207.162	58.88
207.381	-74.24
207.599	50.69
207.818	28.16
208.037	42.5
208.255	17.92
208.474	32.26
208.693	17.92
208.911	-33.28
209.13	-4.61
209.349	58.88
209.567	81.41
209.786	28.16
210.005	58.88
210.223	34.3
210.442	-2.56
210.661	44.54
210.879	103.93
211.098	11.78
211.316	11.78
211.535	54.78
211.753	73.21
211.972	-12.8
212.191	46.59
212.409	58.88
212.628	42.5
212.846	11.78
213.065	65.02
213.283	48.64
213.502	52.74
213.72	38.4
213.938	32.26
214.157	22.02
214.375	91.65
214.594	17.92
214.812	75.26
215.031	22.02
215.249	46.59
215.467	52.74
215.686	24.06
215.904	132.61
216.122	85.5
216.341	54.78
216.559	77.31
216.778	169.47
216.996	69.12
217.214	11.78
217.432	69.12
217.651	56.83
217.869	15.87
218.087	65.02
218.306	60.93
218.524	24.06
218.742	91.65
218.96	54.78
219.179	60.93
219.397	62.98
219.615	93.69
219.833	52.74
220.051	5.63
220.27	46.59
220.488	52.74
220.706	83.45
220.924	24.06
221.142	-16.9
221.36	54.78
221.578	67.07
221.796	40.45
222.015	-4.61
222.233	60.93
222.451	138.75
222.669	56.83
222.887	65.02
223.105	-10.75
223.323	65.02
223.541	-4.61
223.759	-8.7
223.977	5.63
224.195	93.69
224.413	22.02
224.631	146.94
224.849	13.82
225.067	144.89
225.285	3.58
225.503	7.68
225.721	5.63
225.939	-16.9
226.157	69.12
226.375	136.7
226.592	42.5
226.81	-6.66
227.028	114.17
227.246	89.6
227.464	73.21
227.682	58.88
227.9	11.78
228.117	46.59
228.335	60.93
228.553	30.21
228.771	79.36
228.989	30.21
229.206	48.64
229.424	60.93
229.642	50.69
229.86	54.78
230.077	134.65
230.295	11.78
230.513	75.26
230.731	24.06
230.948	69.12
231.166	30.21
231.384	11.78
231.601	24.06
231.819	91.65
232.037	-8.7
232.254	60.93
232.472	130.56
232.689	44.54
232.907	28.16
233.125	-0.51
233.342	52.74
233.56	-18.94
233.777	17.92
233.995	26.11
234.213	77.31
234.43	-2.56
234.648	38.4
234.865	32.26
235.083	50.69
235.3	-16.9
235.518	97.79
235.735	87.55
235.953	65.02
236.17	77.31
236.388	48.64
236.605	-33.28
236.822	69.12
237.04	52.74
237.257	15.87
237.475	15.87
237.692	75.26
237.909	110.08
238.127	-10.75
238.344	5.63
238.562	32.26
238.779	-4.61
238.996	15.87
239.214	1.54
239.431	65.02
239.648	5.63
239.865	69.12
240.083	48.64
240.3	-51.71
240.517	36.35
240.735	7.68
240.952	42.5
241.169	58.88
241.386	7.68
241.603	32.26
241.821	-59.9
242.038	81.41
242.255	58.88
242.472	-12.8
242.689	81.41
242.907	56.83
243.124	108.03
243.341	32.26
243.558	19.97
243.775	-20.99
243.992	-61.95
244.209	89.6
244.426	85.5
244.643	32.26
244.86	32.26
245.078	42.5
245.295	-6.66
245.512	108.03
245.729	89.6
245.946	46.59
246.163	24.06
246.38	60.93
246.597	3.58
246.814	46.59
247.031	46.59
247.248	-8.7
247.464	56.83
247.681	36.35
247.898	71.17
248.115	48.64
248.332	1.54
248.549	34.3
248.766	91.65
248.983	44.54
249.2	9.73
249.417	28.16
249.633	34.3
249.85	50.69
250.067	97.79
250.284	83.45
250.501	58.88
250.717	65.02
250.934	-27.14
251.151	-18.94
251.368	54.78
251.585	85.5
251.801	54.78
252.018	-2.56
252.235	73.21
252.451	81.41
252.668	118.27
252.885	73.21
253.102	89.6
253.318	17.92
253.535	17.92
253.752	60.93
253.968	44.54
254.185	-12.8
254.401	46.59
254.618	34.3
254.835	36.35
255.051	56.83
255.268	50.69
255.484	5.63
255.701	30.21
255.917	48.64
256.134	-90.62
256.351	9.73
256.567	-6.66
256.784	5.63
257	15.87
257.217	-16.9
257.433	50.69
257.65	83.45
257.866	101.89
258.082	22.02
258.299	73.21
258.515	65.02
258.732	42.5
258.948	40.45
259.165	40.45
259.381	36.35
259.597	30.21
259.814	-18.94
260.03	24.06
260.246	1.54
260.463	118.27
260.679	-6.66
260.895	30.21
261.112	13.82
261.328	-2.56
261.544	7.68
261.761	87.55
261.977	54.78
262.193	-2.56
262.409	77.31
262.626	50.69
262.842	124.41
263.058	7.68
263.274	73.21
263.49	36.35
263.707	65.02
263.923	30.21
264.139	52.74
264.355	89.6
264.571	56.83
264.787	22.02
265.004	103.93
265.22	11.78
265.436	22.02
265.652	34.3
265.868	144.89
266.084	-33.28
266.3	24.06
266.516	28.16
266.732	56.83
266.948	75.26
267.164	-4.61
267.38	-29.18
267.596	22.02
267.812	54.78
268.028	11.78
268.244	32.26
268.46	40.45
268.676	50.69
268.892	85.5
269.108	-41.47
269.324	17.92
269.54	-49.66
269.756	89.6
269.972	17.92
270.188	44.54
270.403	1.54
270.619	11.78
270.835	-2.56
271.051	79.36
271.267	69.12
271.483	19.97
271.698	-12.8
271.914	-8.7
272.13	36.35
272.346	28.16
272.562	-10.75
272.777	118.27
272.993	71.17
273.209	34.3
273.425	30.21
273.64	50.69
273.856	24.06
274.072	-51.71
274.287	24.06
274.503	122.37
274.719	40.45
274.934	60.93
275.15	-18.94
275.366	48.64
275.581	50.69
275.797	56.83
276.012	67.07
276.228	81.41
276.444	-14.85
276.659	75.26
276.875	-37.38
277.09	17.92
277.306	-39.42
277.521	105.98
277.737	34.3
277.952	101.89
278.168	-23.04
278.383	34.3
278.599	-2.56
278.814	48.64
279.03	114.17
279.245	101.89
279.461	17.92
279.676	62.98
279.892	-16.9
280.107	28.16
280.322	19.97
280.538	32.26
280.753	11.78
280.969	36.35
281.184	-23.04
281.399	103.93
281.615	42.5
281.83	-47.62
282.045	7.68
282.26	-20.99
282.476	75.26
282.691	52.74
282.906	46.59
283.122	54.78
283.337	7.68
283.552	24.06
283.767	30.21
283.983	118.27
284.198	65.02
284.413	75.26
284.628	-4.61
284.843	38.4
285.058	126.46
285.274	-0.51
285.489	32.26
285.704	17.92
285.919	60.93
286.134	44.54
286.349	-33.28
286.564	54.78
286.779	44.54
286.995	79.36
287.21	42.5
287.425	17.92
287.64	1.54
287.855	124.41
288.07	40.45
288.285	42.5
288.5	36.35
288.715	71.17
288.93	40.45
289.145	17.92
289.36	62.98
289.575	85.5
289.79	22.02
290.004	13.82
290.219	81.41
290.434	-18.94
290.649	32.26
290.864	54.78
291.079	22.02
291.294	-59.9
291.509	26.11
291.724	62.98
291.938	19.97
292.153	91.65
292.368	81.41
292.583	-8.7
292.798	89.6
293.012	85.5
293.227	-20.99
293.442	40.45
293.657	101.89
293.871	60.93
294.086	65.02
294.301	11.78
294.516	26.11
294.73	50.69
294.945	-0.51
295.16	-10.75
295.374	38.4
295.589	-27.14
295.804	17.92
296.018	46.59
296.233	120.32
296.447	79.36
296.662	-57.86
296.877	95.74
297.091	103.93
297.306	91.65
297.52	34.3
297.735	-16.9
297.949	56.83
298.164	56.83
298.378	17.92
298.593	-37.38
298.807	77.31
299.022	44.54
299.236	28.16
299.451	7.68
299.665	110.08
299.88	-23.04
300.094	22.02
300.309	54.78
300.523	142.85
300.737	22.02
300.952	-8.7
301.166	30.21
301.381	13.82
301.595	95.74
301.809	-31.23
302.024	-6.66
302.238	-4.61
302.452	30.21
302.667	101.89
302.881	42.5
303.095	67.07
303.309	28.16
303.524	-10.75
303.738	50.69
303.952	48.64
304.166	19.97
304.381	83.45
304.595	69.12
304.809	65.02
305.023	69.12
305.237	34.3
305.452	52.74
305.666	46.59
305.88	69.12
306.094	130.56
306.308	75.26
306.522	87.55
306.736	13.82
306.95	32.26
307.164	5.63
307.379	-23.04
307.593	157.18
307.807	22.02
308.021	44.54
308.235	118.27
308.449	-37.38
308.663	56.83
308.877	83.45
309.091	71.17
309.305	116.22
309.519	-31.23
309.733	30.21
309.947	19.97
310.161	77.31
310.374	19.97
310.588	52.74
310.802	62.98
311.016	1.54
311.23	28.16
311.444	44.54
311.658	67.07
311.872	42.5
312.085	52.74
312.299	85.5
312.513	54.78
312.727	101.89
312.941	-20.99
313.154	28.16
313.368	1.54
313.582	-0.51
313.796	67.07
314.009	34.3
314.223	32.26
314.437	3.58
314.651	83.45
314.864	-20.99
315.078	9.73
315.292	42.5
315.505	65.02
315.719	38.4
315.933	7.68
316.146	-0.51
316.36	-12.8
316.573	89.6
316.787	146.94
317.001	40.45
317.214	-25.09
317.428	67.07
317.641	-33.28
317.855	19.97
318.068	-2.56
318.282	75.26
318.495	116.22
318.709	103.93
318.922	-29.18
319.136	101.89
319.349	42.5
319.563	69.12
319.776	40.45
319.99	30.21
320.203	60.93
320.417	22.02
320.63	36.35
320.843	110.08
321.057	-2.56
321.27	69.12
321.483	157.18
321.697	79.36
321.91	58.88
322.124	-49.66
322.337	24.06
322.55	30.21
322.763	1.54
322.977	54.78
323.19	50.69
323.403	13.82
323.617	36.35
323.83	22.02
324.043	48.64
324.256	30.21
324.469	-0.51
324.683	26.11
324.896	46.59
325.109	93.69
325.322	48.64
325.535	108.03
325.748	65.02
325.962	89.6
326.175	54.78
326.388	77.31
326.601	56.83
326.814	-2.56
327.027	46.59
327.24	136.7
327.453	3.58
327.666	13.82
327.879	71.17
328.092	40.45
328.305	40.45
328.518	65.02
328.731	5.63
328.944	50.69
329.157	36.35
329.37	97.79
329.583	110.08
329.796	69.12
330.009	73.21
330.222	99.84
330.435	62.98
330.648	34.3
330.861	24.06
331.073	-10.75
331.286	30.21
331.499	62.98
331.712	28.16
331.925	75.26
332.138	48.64
332.35	73.21
332.563	7.68
332.776	157.18
332.989	7.68
333.202	97.79
333.414	69.12
333.627	13.82
333.84	38.4
334.053	99.84
334.265	-0.51
334.478	38.4
334.691	42.5
334.903	-16.9
335.116	-16.9
335.329	46.59
335.541	71.17
335.754	34.3
335.966	58.88
336.179	118.27
336.392	13.82
336.604	77.31
336.817	15.87
337.029	38.4
337.242	69.12
337.454	71.17
337.667	75.26
337.88	36.35
338.092	87.55
338.305	132.61
338.517	-8.7
338.729	58.88
338.942	34.3
339.154	60.93
339.367	-41.47
339.579	32.26
339.792	44.54
340.004	32.26
340.217	46.59
340.429	124.41
340.641	9.73
340.854	1.54
341.066	52.74
341.278	95.74
341.491	77.31
341.703	28.16
341.915	85.5
342.128	36.35
342.34	-23.04
342.552	7.68
342.764	36.35
342.977	-12.8
343.189	13.82
343.401	36.35
343.613	-0.51
343.826	40.45
344.038	73.21
344.25	126.46
344.462	5.63
344.674	13.82
344.886	67.07
345.099	67.07
345.311	126.46
345.523	-33.28
345.735	-74.24
345.947	24.06
346.159	56.83
346.371	-6.66
346.583	62.98
346.795	116.22
347.007	-29.18
347.219	126.46
347.431	46.59
347.643	93.69
347.855	52.74
348.067	85.5
348.279	-10.75
348.491	85.5
348.703	32.26
348.915	30.21
349.127	-23.04
349.339	101.89
349.551	56.83
349.763	44.54
349.975	58.88
350.187	110.08
350.399	-4.61
350.61	60.93
350.822	-2.56
351.034	11.78
351.246	36.35
351.458	50.69
351.669	17.92
351.881	52.74
352.093	50.69
352.305	83.45
352.517	85.5
352.728	32.26
352.94	81.41
353.152	67.07
353.363	-18.94
353.575	101.89
353.787	112.13
353.999	67.07
354.21	22.02
354.422	120.32
354.633	50.69
354.845	73.21
355.057	95.74
355.268	1.54
355.48	58.88
355.692	30.21
355.903	54.78
356.115	60.93
356.326	-31.23
356.538	56.83
356.749	73.21
356.961	36.35
357.172	-12.8
357.384	-18.94
357.595	95.74
357.807	46.59
358.018	-20.99
358.23	-16.9
358.441	97.79
358.653	19.97
358.864	22.02
359.075	13.82
359.287	81.41
359.498	120.32
359.709	1.54
359.921	22.02
360.132	120.32
360.344	3.58
360.555	28.16
360.766	-25.09
360.977	54.78
361.189	91.65
361.4	11.78
361.611	17.92
361.823	69.12
362.034	30.21
362.245	-29.18
362.456	42.5
362.667	67.07
362.879	-4.61
363.09	124.41
363.301	19.97
363.512	62.98
363.723	11.78
363.935	101.89
364.146	38.4
364.357	19.97
364.568	3.58
364.779	-41.47
364.99	50.69
365.201	22.02
365.412	81.41
365.623	-12.8
365.834	65.02
366.045	-37.38
366.256	99.84
366.467	48.64
366.678	1.54
366.889	28.16
367.1	36.35
367.311	28.16
367.522	-18.94
367.733	34.3
367.944	62.98
368.155	83.45
368.366	87.55
368.577	30.21
368.788	91.65
368.999	-12.8
369.209	-35.33
369.42	60.93
369.631	77.31
369.842	69.12
370.053	58.88
370.264	50.69
370.474	48.64
370.685	69.12
370.896	87.55
371.107	79.36
371.317	1.54
371.528	34.3
371.739	114.17
371.95	79.36
372.16	89.6
372.371	-29.18
372.582	-2.56
372.792	19.97
373.003	60.93
373.214	-18.94
373.424	79.36
373.635	24.06
373.846	48.64
374.056	93.69
374.267	71.17
374.477	7.68
374.688	112.13
374.898	-8.7
375.109	19.97
375.319	46.59
375.53	89.6
375.74	73.21
375.951	24.06
376.161	85.5
376.372	95.74
376.582	-20.99
376.793	73.21
377.003	9.73
377.214	32.26
377.424	52.74
377.635	-20.99
377.845	30.21
378.055	19.97
378.266	81.41
378.476	97.79
378.686	83.45
378.897	97.79
379.107	-6.66
379.317	11.78
379.528	-57.86
379.738	73.21
379.948	79.36
380.158	89.6
380.369	69.12
380.579	54.78
380.789	24.06
380.999	124.41
381.21	108.03
381.42	89.6
381.63	67.07
381.84	-4.61
382.05	-0.51
382.261	101.89
382.471	44.54
382.681	11.78
382.891	91.65
383.101	71.17
383.311	-25.09
383.521	26.11
383.731	19.97
383.941	112.13
384.151	93.69
384.361	81.41
384.571	67.07
384.781	62.98
384.991	71.17
385.201	142.85
385.411	24.06
385.621	17.92
385.831	40.45
386.041	114.17
386.251	30.21
386.461	19.97
386.671	69.12
386.881	-4.61
387.091	79.36
387.301	54.78
387.511	75.26
387.72	-29.18
387.93	73.21
388.14	-4.61
388.35	83.45
388.56	56.83
388.769	56.83
388.979	36.35
389.189	40.45
389.399	48.64
389.609	89.6
389.818	122.37
390.028	79.36
390.238	73.21
390.447	-41.47
390.657	103.93
390.867	40.45
391.076	67.07
391.286	112.13
391.496	5.63
391.705	36.35
391.915	60.93
392.125	46.59
392.334	56.83
392.544	105.98
392.753	5.63
392.963	7.68
393.172	62.98
393.382	46.59
393.591	60.93
393.801	9.73
394.01	114.17
394.22	54.78
394.429	105.98
394.639	58.88
394.848	83.45
395.058	89.6
395.267	69.12
395.477	169.47
395.686	103.93
395.895	83.45
396.105	138.75
396.314	54.78
396.524	56.83
396.733	38.4
396.942	30.21
397.152	148.99
397.361	87.55
397.57	97.79
397.78	40.45
397.989	38.4
398.198	126.46
398.407	118.27
398.617	97.79
398.826	130.56
399.035	87.55
399.244	81.41
399.453	3.58
399.663	62.98
399.872	118.27
400.081	99.84
400.29	110.08
400.499	71.17
400.708	101.89
400.917	-39.42
401.127	85.5
401.336	58.88
401.545	251.39
401.754	126.46
401.963	11.78
402.172	140.8
402.381	24.06
402.59	124.41
402.799	95.74
403.008	79.36
403.217	101.89
403.426	128.51
403.635	142.85
403.844	99.84
404.053	142.85
404.262	60.93
404.471	163.33
404.68	159.23
404.888	177.66
405.097	93.69
405.306	171.52
405.515	118.27
405.724	105.98
405.933	155.13
406.142	67.07
406.35	122.37
406.559	134.65
406.768	140.8
406.977	146.94
407.185	220.67
407.394	167.42
407.603	157.18
407.812	112.13
408.02	181.76
408.229	222.72
408.438	196.09
408.646	192
408.855	132.61
409.064	202.24
409.272	124.41
409.481	177.66
409.69	183.81
409.898	249.34
410.107	126.46
410.315	241.15
410.524	212.48
410.733	142.85
410.941	253.44
411.15	255.48
411.358	245.24
411.567	361.98
411.775	255.48
411.984	306.68
412.192	333.31
412.401	304.64
412.609	378.36
412.818	374.27
413.026	310.78
413.234	359.93
413.443	308.73
413.651	310.78
413.86	413.18
414.068	484.86
414.276	505.34
414.485	454.14
414.693	488.95
414.901	513.53
415.11	370.17
415.318	429.56
415.526	534.01
415.734	593.4
415.943	564.73
416.151	552.44
416.359	515.58
416.567	595.45
416.776	636.41
416.984	658.93
417.192	669.17
417.4	687.61
417.608	703.99
417.817	685.56
418.025	663.03
418.233	792.05
418.441	798.2
418.649	794.1
418.857	859.63
419.065	853.49
419.273	908.79
419.481	865.78
419.689	984.56
419.897	1005.04
420.105	1062.38
420.313	1021.42
420.521	1017.33
420.729	1138.16
420.937	1076.72
421.145	1101.3
421.353	1201.65
421.561	1285.61
421.769	1299.95
421.977	1312.24
422.185	1381.87
422.393	1390.06
422.601	1576.42
422.809	1568.23
423.017	1623.53
423.224	1650.15
423.432	1682.92
423.64	1539.56
423.848	1783.27
424.056	1711.59
424.263	1930.72
424.471	1920.48
424.679	1949.15
424.887	2031.07
425.094	2067.94
425.302	2129.38
425.51	2266.59
425.718	2219.49
425.925	2299.36
426.133	2309.6
426.341	2524.63
426.548	2598.36
426.756	2602.46
426.964	2735.57
427.171	2721.24
427.379	2907.6
427.586	2905.56
427.794	2840.02
428.001	3167.7
428.209	3206.61
428.417	3284.43
428.624	3429.84
428.832	3503.56
429.039	3464.65
429.247	3435.98
429.454	3640.78
429.662	4036.03
429.869	3765.7
430.076	4023.75
430.284	3950.02
430.491	4089.28
430.699	4357.57
430.906	4390.33
431.114	4474.3
431.321	4554.17
431.528	4574.65
431.736	4937.14
431.943	5209.52
432.15	4984.24
432.358	4990.39
432.565	5246.38
432.772	5287.34
432.979	5504.43
433.187	5737.9
433.394	5635.5
433.601	6065.57
433.808	6102.43
434.016	6213.03
434.223	6215.07
434.43	6841.75
434.637	6344.1
434.844	6905.24
435.052	7230.87
435.259	7101.84
435.466	7173.52
435.673	7224.72
435.88	7576.97
436.087	8115.59
436.294	7921.03
436.501	7816.58
436.708	7968.13
436.915	8304
437.122	8566.14
437.329	8686.97
437.537	8959.35
437.743	8869.24
437.95	8764.79
438.157	9317.75
438.364	9747.82
438.571	9596.27
438.778	9899.37
438.985	10673.5
439.192	10145.13
439.399	10687.84
439.606	10079.59
439.813	10827.1
440.02	11621.71
440.227	11304.28
440.433	11197.78
440.64	11451.73
440.847	11576.66
441.054	11803.98
441.261	12756.29
441.467	12528.96
441.674	12629.31
441.881	13057.34
442.088	12909.88
442.294	13204.79
442.501	13376.82
442.708	13569.33
442.914	14189.86
443.121	14787.87
443.328	14562.59
443.534	15357.21
443.741	15082.78
443.948	14662.94
444.154	15973.64
444.361	15785.23
444.568	15975.69
444.774	15822.09
444.981	15932.68
445.187	16413.96
445.394	17046.78
445.6	17032.44
445.807	18656.48
446.013	17884.4
446.22	18504.93
446.426	18709.73
446.633	19213.53
446.839	19516.63
447.046	18726.11
447.252	19924.18
447.459	19772.63
447.665	19715.28
447.871	20948.16
448.078	21834.93
448.284	20712.64
448.491	21220.54
448.697	22195.37
448.903	22412.46
449.11	22422.7
449.316	22002.86
449.522	22668.45
449.728	23348.38
449.935	23454.87
450.141	23559.32
450.347	24104.08
450.553	22998.18
450.76	23782.55
450.966	24446.09
451.172	24089.74
451.378	24396.94
451.584	23983.25
451.791	24700.04
451.997	24700.04
452.203	24931.46
452.409	24902.79
452.615	25113.73
452.821	23835.8
453.027	23526.55
453.233	25228.42
453.44	24042.64
453.646	24360.08
453.852	24261.77
454.058	24542.35
454.264	23938.19
454.47	24519.82
454.676	23866.52
454.882	24829.06
455.088	22688.93
455.294	22983.84
455.5	23317.66
455.705	23514.27
455.911	22420.65
456.117	21968.05
456.323	21828.79
456.529	20765.89
456.735	21740.72
456.941	20894.91
457.147	20354.25
457.352	20081.87
457.558	19768.53
457.764	19754.19
457.97	19565.78
458.176	19197.15
458.381	18861.28
458.587	18273.51
458.793	18048.24
458.999	17034.49
459.204	18210.03
459.41	17730.8
459.616	16596.23
459.821	16758.02
460.027	16622.85
460.233	16346.37
460.438	15533.33
460.644	15693.07
460.85	15064.35
461.055	14816.54
461.261	14683.42
461.466	13546.8
461.672	13253.94
461.878	13987.11
462.083	13208.89
462.289	12983.61
462.494	12772.67
462.7	12244.29
462.905	11849.04
463.111	12125.51
463.316	12332.36
463.522	12070.22
463.727	12072.26
463.932	12068.17
464.138	11935.05
464.343	12037.45
464.549	11691.34
464.754	12195.14
464.959	12006.73
465.165	11625.81
465.37	11310.42
465.575	10974.55
465.781	11609.42
465.986	11482.45
466.191	10925.4
466.397	10915.16
466.602	10399.07
466.807	10952.02
467.012	10743.13
467.218	10827.1
467.423	10632.54
467.628	10601.82
467.833	11146.58
468.038	10714.46
468.244	10360.16
468.449	10603.87
468.654	10179.94
468.859	10325.35
469.064	10100.07
469.269	9938.28
469.474	9969
469.679	9979.24
469.885	10034.53
470.09	9954.66
470.295	9966.95
470.5	9792.87
470.705	9799.02
470.91	9403.76
471.115	9422.19
471.32	9594.22
471.525	9784.68
471.73	9209.2
471.935	9252.21
472.139	8994.17
472.344	8916.34
472.549	9067.89
472.754	8770.94
472.959	8680.83
473.164	8471.93
473.369	8271.23
473.574	8648.06
473.778	8697.21
473.983	8715.64
474.188	8523.13
474.393	8246.66
474.598	8199.55
474.802	8140.16
475.007	8123.78
475.212	8013.19
475.417	7802.25
475.621	7673.23
475.826	7939.46
476.031	7869.83
476.235	7460.24
476.44	7609.74
476.645	7431.57
476.849	7404.94
477.054	7417.23
477.259	7224.72
477.463	7292.3
477.668	6948.25
477.872	7130.52
478.077	7019.92
478.282	6933.91
478.486	6798.74
478.691	6878.62
478.895	6763.93
479.1	6763.93
479.304	6718.87
479.509	6524.32
479.713	6759.83
479.918	6682.01
480.122	6346.14
480.326	6692.25
480.531	6548.89
480.735	6454.69
480.94	6432.16
481.144	6567.32
481.348	6362.53
481.553	6294.94
481.757	6202.79
481.961	6235.55
482.166	6344.1
482.37	6389.15
482.574	6200.74
482.778	6350.24
482.983	6290.85
483.187	6079.91
483.391	6346.14
483.595	6296.99
483.8	6163.87
484.004	6215.07
484.208	6409.63
484.412	6174.11
484.616	6270.37
484.821	6178.21
485.025	6137.25
485.229	6292.9
485.433	6253.98
485.637	6180.26
485.841	6383.01
486.045	6182.31
486.249	6288.8
486.453	6170.02
486.657	6139.3
486.861	6190.5
487.065	6084
487.269	6276.51
487.473	6129.06
487.677	6364.57
487.881	6368.67
488.085	5997.99
488.289	6452.64
488.493	6321.57
488.697	6383.01
488.901	6258.08
489.105	6313.38
489.309	6313.38
489.512	6317.47
489.716	6321.57
489.92	6344.1
490.124	6032.8
490.328	6411.68
490.531	6426.01
490.735	6430.11
490.939	6405.53
491.143	6423.97
491.346	6491.55
491.55	6532.51
491.754	6413.73
491.958	6464.93
492.161	6567.32
492.365	6624.67
492.569	6432.16
492.772	6630.81
492.976	6682.01
493.18	6682.01
493.383	6776.22
493.587	6788.5
493.79	6931.86
493.994	6745.5
494.197	6829.46
494.401	6946.2
494.605	6897.05
494.808	6825.37
495.012	7077.27
495.215	7105.94
495.419	7128.47
495.622	7003.54
495.825	7269.78
496.029	7269.78
496.232	7409.04
496.436	7490.96
496.639	7630.22
496.843	7675.27
497.046	7638.41
497.249	7669.13
497.453	8054.15
497.656	7863.69
497.859	7890.31
498.063	8005
498.266	8115.59
498.469	8000.9
498.673	8197.51
498.876	8260.99
499.079	8367.49
499.282	8279.43
499.485	8670.59
499.689	8754.55
499.892	8859
500.095	8691.07
500.298	9092.47
500.501	8748.41
500.705	9106.81
500.908	9182.58
501.111	9254.26
501.314	9467.25
501.517	9624.94
501.72	9768.3
501.923	9815.4
502.126	9928.04
502.329	9901.42
502.532	10085.73
502.735	10296.67
502.938	10562.91
503.141	10546.53
503.344	10560.86
503.547	10710.36
503.75	10939.74
503.953	10853.72
504.156	11019.61
504.359	11119.96
504.562	11091.29
504.765	11533.65
504.968	11730.25
505.17	11765.07
505.373	11849.04
505.576	12049.74
505.779	12102.98
505.982	12139.85
506.185	12629.31
506.387	12537.15
506.59	12739.9
506.793	12860.73
506.996	12873.02
507.198	13358.39
507.401	13137.21
507.604	13516.08
507.807	13634.86
508.009	13827.37
508.212	13665.58
508.415	13806.89
508.617	14277.93
508.82	14271.78
509.022	13937.96
509.225	14683.42
509.428	14736.67
509.63	14789.92
509.833	15064.35
510.035	15283.48
510.238	15383.83
510.44	15449.36
510.643	15934.73
510.845	15938.83
511.048	15822.09
511.25	16135.43
511.453	16207.11
511.655	16917.76
511.858	16995.58
512.06	16880.89
512.262	16934.14
512.465	17106.17
512.667	17450.23
512.87	17335.54
513.072	17825.01
513.274	18349.29
513.477	18212.07
513.679	18425.06
513.881	18801.89
514.084	18619.62
514.286	18959.58
514.488	19111.13
514.69	19506.39
514.893	19520.73
515.095	19705.04
515.297	20028.62
515.499	20045.01
515.701	20292.81
515.904	20880.58
516.106	20917.44
516.308	20980.93
516.51	21404.86
516.712	21488.82
516.914	21724.34
517.116	21910.71
517.318	22107.31
517.52	22283.44
517.722	22060.21
517.925	22641.83
518.127	23018.66
518.329	23088.29
518.531	22906.02
518.733	23706.77
518.935	23803.03
519.136	23743.64
519.338	24607.88
519.54	24939.65
519.742	24327.31
519.944	24822.92
520.146	25384.06
520.348	25310.33
520.55	25926.77
520.752	25621.63
520.954	26346.61
521.155	25980.02
521.357	26442.86
521.559	27194.47
521.761	27169.89
521.963	27440.22
522.164	27104.35
522.366	27550.81
522.568	28050.52
522.77	28103.76
522.971	28652.62
523.173	28052.56
523.375	28640.33
523.576	28699.72
523.778	28884.04
523.98	29299.78
524.181	29449.28
524.383	29293.63
524.584	29875.26
524.786	30223.41
524.988	30110.77
525.189	30338.1
525.391	30825.51
525.592	30442.54
525.794	30684.2
525.995	31054.89
526.197	31167.52
526.398	31380.51
526.6	31511.58
526.801	31771.68
527.003	32138.26
527.204	32056.34
527.406	32353.3
527.607	32363.54
527.808	32556.05
528.01	32072.73
528.211	32609.29
528.412	33088.52
528.614	33301.51
528.815	32781.32
529.016	33403.91
529.218	32625.68
529.419	33248.26
529.62	33172.49
529.822	33475.59
530.023	33661.95
530.224	33995.77
530.425	33608.7
530.626	33786.88
530.828	33666.05
531.029	34159.61
531.23	34108.41
531.431	33903.61
531.632	34040.82
531.833	34526.19
532.035	34108.41
532.236	34452.47
532.437	34470.9
532.638	34153.46
532.839	34407.41
533.04	34608.11
533.241	34227.19
533.442	34939.88
533.643	34722.8
533.844	34460.66
534.045	35009.51
534.246	34524.15
534.447	35208.17
534.648	35019.75
534.849	35116.01
535.05	34503.67
535.251	34986.99
535.451	35017.71
535.652	35367.91
535.853	35165.16
536.054	35281.89
536.255	34989.03
536.456	34853.87
536.657	35171.3
536.857	35077.1
537.058	34943.98
537.259	35460.07
537.46	35390.44
537.66	35136.49
537.861	35021.8
538.062	34962.41
538.263	35269.61
538.463	34903.02
538.664	35238.89
538.865	35251.17
539.065	35378.15
539.266	34765.81
539.466	35283.94
539.667	34845.68
539.868	35494.88
540.068	35290.09
540.269	34941.93
540.469	35382.24
540.67	34962.41
540.87	35275.75
541.071	34966.51
541.271	35230.69
541.472	35021.8
541.672	35046.38
541.873	35017.71
542.073	34735.09
542.274	35546.08
542.474	35011.56
542.675	34827.24
542.875	35386.34
543.075	34786.29
543.276	34743.28
543.476	35156.97
543.676	34636.78
543.877	35103.72
544.077	35372
544.277	34984.94
544.478	35068.9
544.678	35130.34
544.878	34814.96
545.078	34876.4
545.279	34796.53
545.479	34769.9
545.679	35050.47
545.879	35103.72
546.079	35075.05
546.28	34890.73
546.48	34804.72
546.68	34800.62
546.88	34825.2
547.08	34937.83
547.28	34493.43
547.48	34651.12
547.68	34954.22
547.88	34812.91
548.081	34923.5
548.281	34905.07
548.481	34839.53
548.681	35025.9
548.881	34599.92
549.081	34679.79
549.28	34595.82
549.48	35070.95
549.68	34935.79
549.88	35255.27
550.08	34749.42
550.28	34657.26
550.48	34640.88
550.68	35292.13
550.88	34309.11
551.08	34839.53
551.279	34616.3
551.479	34552.82
551.679	34620.4
551.879	34911.21
552.079	34870.25
552.278	34763.76
552.478	34778.09
552.678	34565.1
552.878	34972.65
553.077	34399.22
553.277	34518
553.477	35073
553.676	34290.68
553.876	34520.05
554.076	34436.08
554.275	34440.18
554.475	34452.47
554.674	34784.24
554.874	34241.53
555.074	34409.46
555.273	34241.53
555.473	34810.86
555.672	34006.01
555.872	34376.69
556.071	34206.71
556.271	34094.07
556.47	33879.04
556.67	33940.47
556.869	33948.67
557.068	33905.66
557.268	33829.88
557.467	34014.2
557.667	33793.02
557.866	33668.09
558.065	33526.78
558.265	33461.25
558.464	33145.86
558.663	33905.66
558.863	33104.9
559.062	34001.91
559.261	33408
559.461	33823.74
559.66	33215.49
559.859	33131.53
560.058	33123.33
560.258	32900.11
560.457	32746.51
560.656	33182.73
560.855	32971.78
561.054	32891.91
561.253	32584.72
561.453	32797.71
561.652	32674.83
561.851	32541.71
562.05	32529.42
562.249	32214.04
562.448	32347.15
562.647	32717.84
562.846	32091.16
563.045	32414.74
563.244	31693.85
563.443	32355.35
563.642	31611.93
563.841	31896.6
564.04	31587.36
564.239	31884.31
564.438	31861.79
564.637	31611.93
564.836	31448.1
565.035	31218.72
565.234	31425.57
565.432	31425.57
565.631	30948.39
565.83	31204.39
566.029	30845.99
566.228	30866.47
566.427	30731.31
566.625	30438.45
566.824	30479.41
567.023	30725.16
567.222	29951.03
567.42	30600.24
567.619	30065.72
567.818	30241.84
568.016	30262.32
568.215	30065.72
568.414	29944.89
568.612	30108.72
568.811	29877.3
569.01	29711.42
569.208	29121.6
569.407	29846.58
569.605	29047.88
569.804	29283.39
570.002	28865.61
570.201	29422.66
570.4	28865.61
570.598	28351.57
570.797	28550.22
570.995	28765.26
571.193	28507.21
571.392	28486.73
571.59	28296.27
571.789	28185.68
571.987	28179.54
572.186	28206.16
572.384	27937.88
572.582	28034.13
572.781	27872.34
572.979	27421.79
573.177	27843.67
573.376	27655.26
573.574	27249.76
573.772	27565.15
573.971	27087.97
574.169	27200.61
574.367	26913.89
574.565	27192.42
574.763	26645.61
574.962	26664.04
575.16	26483.82
575.358	26608.75
575.556	26549.35
575.754	26856.55
575.952	26360.94
576.151	26399.85
576.349	25969.78
576.547	25760.89
576.745	25951.35
576.943	26000.5
577.141	26020.98
577.339	26150
577.537	25631.86
577.735	25635.96
577.933	25214.08
578.131	25658.49
578.329	24966.28
578.527	25248.89
578.725	25359.49
578.923	25197.7
579.121	25339.01
579.319	24824.97
579.516	24917.12
579.714	24640.65
579.912	25009.28
580.11	24409.23
580.308	24755.33
580.506	24444.04
580.704	24181.9
580.901	24382.6
581.099	24513.67
581.297	24145.04
581.495	24179.86
581.692	24421.52
581.89	23794.84
582.088	23813.27
582.285	23786.65
582.483	23966.87
582.681	23805.08
582.878	23745.69
583.076	23348.38
583.274	23669.91
583.471	23147.68
583.669	23164.06
583.866	23278.75
584.064	23059.62
584.262	22752.42
584.459	23260.32
584.657	22922.4
584.854	23121.06
585.052	22781.09
585.249	22717.61
585.447	22824.1
585.644	22564.01
585.841	22525.1
586.039	22801.57
586.236	22383.79
586.434	22402.22
586.631	22465.71
586.828	21701.81
587.026	22211.76
587.223	22199.47
587.42	21970.1
587.618	22127.79
587.815	21744.82
588.012	21523.64
588.21	21642.42
588.407	21724.34
588.604	21755.06
588.801	21302.46
588.999	21392.57
589.196	21519.54
589.393	21263.55
589.59	21327.03
589.787	21005.5
589.984	21241.02
590.182	20798.66
590.379	21083.33
590.576	20661.44
590.773	20903.11
590.97	20653.25
591.167	20690.12
591.364	20548.81
591.561	20499.66
591.758	20182.22
591.955	20552.9
592.152	20565.19
592.349	20278.47
592.546	20303.05
592.743	20057.29
592.94	20255.95
593.137	20038.86
593.334	20202.7
593.531	19735.76
593.727	20135.12
593.924	19764.43
594.121	19522.77
594.318	19748.05
594.515	19367.13
594.712	19729.62
594.908	19453.14
595.105	19432.66
595.302	19326.17
595.499	19403.99
595.696	19436.76
595.892	18996.45
596.089	19336.41
596.286	19240.15
596.482	19113.18
596.679	18769.12
596.876	18853.09
597.072	18777.31
597.269	18756.83
597.466	18760.93
597.662	18699.49
597.859	18636
598.055	18674.92
598.252	18443.49
598.448	18371.82
598.645	18719.97
598.841	18115.82
599.038	18394.34
599.234	18250.99
599.431	17949.93
599.627	18095.34
599.824	18064.62
600.02	18109.68
600.217	18001.13
600.413	17890.54
600.609	17972.46
600.806	17831.15
601.002	17741.04
601.198	17599.73
601.395	17667.31
601.591	17493.24
601.787	17491.19
601.984	17089.79
602.18	17390.84
602.376	17532.15
602.572	17198.33
602.769	17345.78
602.965	16999.68
603.161	17171.71
603.357	16819.46
603.553	16993.53
603.75	16866.56
603.946	16944.38
604.142	16817.41
604.338	16790.78
604.534	16813.31
604.73	16647.43
604.926	16551.17
605.122	16899.33
605.318	16391.43
605.514	16452.87
605.71	16182.54
605.906	16416.01
606.102	16211.21
606.298	16313.61
606.494	16143.63
606.69	16254.22
606.886	16071.95
607.082	15901.97
607.278	16008.46
607.474	15660.31
607.67	15955.21
607.866	15891.73
608.062	15904.01
608.257	15738.13
608.453	15721.74
608.649	15742.22
608.845	15615.25
609.041	15351.06
609.236	15658.26
609.432	15574.29
609.628	15500.56
609.824	15598.87
610.019	15258.9
610.215	15334.68
610.411	15406.36
610.606	15281.43
610.802	15201.56
610.998	15166.74
611.193	15191.32
611.389	14949.66
611.584	15045.91
611.78	15007
611.976	14902.56
612.171	15105.31
612.367	15047.96
612.562	14853.41
612.758	14794.01
612.953	14787.87
613.149	14863.65
613.344	14705.95
613.539	14984.48
613.735	14994.72
613.93	14568.74
614.126	14400.8
614.321	14832.93
614.517	14535.97
614.712	14634.27
614.907	14587.17
615.103	14433.57
615.298	14445.86
615.493	14347.56
615.688	14089.51
615.884	14636.32
616.079	14368.04
616.274	14552.35
616.47	14419.24
616.665	14382.37
616.86	14040.36
617.055	13960.49
617.25	13927.72
617.445	14175.53
617.641	13923.63
617.836	14103.85
618.031	13774.13
618.226	13839.66
618.421	13630.77
618.616	13964.59
618.811	13598
619.006	13854
619.201	13331.76
619.396	13534.51
619.591	13368.63
619.786	13462.83
619.981	13380.92
620.176	13540.66
620.371	13221.17
620.566	13196.6
620.761	13094.2
620.956	13075.77
621.151	13012.28
621.346	13118.78
621.541	13028.67
621.735	12963.13
621.93	12424.51
622.125	12791.1
622.32	12535.1
622.515	12580.16
622.709	12619.07
622.904	12762.43
623.099	12232.01
623.294	12504.39
623.488	12281.16
623.683	12186.95
623.878	11992.39
624.072	12119.37
624.267	12117.32
624.462	12090.7
624.656	11900.23
624.851	11933
625.046	11763.02
625.24	11894.09
625.435	11695.44
625.629	11533.65
625.824	11576.66
626.018	11554.13
626.213	11326.8
626.407	11359.57
626.602	11224.4
626.796	11351.38
626.991	11320.66
627.185	11124.05
627.38	11144.53
627.574	11046.23
627.768	10812.76
627.963	10974.55
628.157	10866.01
628.352	10853.72
628.546	10575.2
628.74	10849.63
628.935	10501.47
629.129	10751.32
629.323	10607.97
629.517	10450.27
629.712	10509.66
629.906	10405.22
630.1	10114.41
630.294	9983.34
630.489	10204.52
630.683	10233.19
630.877	9790.83
631.071	9889.13
631.265	9977.19
631.459	9645.42
631.653	9815.4
631.848	9981.29
632.042	9833.83
632.236	9639.28
632.43	9610.61
632.624	9696.62
632.818	9454.96
633.012	9489.78
633.206	9514.35
633.4	9500.02
633.594	9194.87
633.788	9336.18
633.982	9164.15
634.176	9194.87
634.369	9084.28
634.563	9125.24
634.757	8983.93
634.951	9096.57
635.145	8992.12
635.339	8959.35
635.533	8918.39
635.726	8639.87
635.92	8797.56
636.114	8815.99
636.308	8635.77
636.501	8637.82
636.695	8598.91
636.889	8467.84
637.083	8398.21
637.276	8304
637.47	8224.13
637.664	8326.53
637.857	8109.44
638.051	8244.61
638.244	8119.68
638.438	8050.05
638.632	8052.1
638.825	7945.61
639.019	8058.25
639.212	7878.02
639.406	7949.7
639.599	7751.05
639.793	7849.35
639.986	7767.43
640.18	7851.4
640.373	7759.24
640.567	7757.19
640.76	7589.26
640.954	7601.55
641.147	7466.38
641.34	7394.7
641.534	7493.01
641.727	7617.93
641.92	7394.7
642.114	7413.13
642.307	7241.11
642.5	7323.02
642.694	7024.02
642.887	7163.28
643.08	7325.07
643.273	7044.5
643.467	7095.7
643.66	7155.09
643.853	7005.59
644.046	6884.76
644.239	6958.49
644.432	6548.89
644.626	6817.18
644.819	6698.39
645.012	6716.83
645.205	6710.68
645.398	6577.56
645.591	6673.82
645.784	6526.36
645.977	6450.59
646.17	6493.6
646.363	6438.3
646.556	6313.38
646.749	6407.58
646.942	6325.66
647.135	6235.55
647.328	6266.27
647.521	6008.23
647.714	6288.8
647.907	6278.56
648.099	6233.5
648.292	6069.67
648.485	6032.8
648.678	5932.45
648.871	5895.59
649.064	6047.14
649.256	5930.41
649.449	6096.29
649.642	5871.01
649.835	5766.57
650.027	5729.7
650.22	5602.73
650.413	5815.72
650.605	5639.59
650.798	5725.61
650.991	5463.47
651.183	5776.81
651.376	5711.27
651.568	5723.56
651.761	5496.24
651.954	5551.53
652.146	5375.41
652.339	5565.87
652.531	5363.12
652.724	5383.6
652.916	5348.78
653.109	5387.69
653.301	5385.65
653.494	5455.28
653.686	5303.73
653.879	5459.37
654.071	5232.05
654.263	5213.62
654.456	5244.34
654.648	5178.8
654.84	5135.79
655.033	5023.16
655.225	5107.12
655.417	5084.59
655.61	5109.17
655.802	4988.34
655.994	5062.07
656.186	4922.8
656.379	5012.92
656.571	4842.93
656.763	4922.8
656.955	4804.02
657.148	4978.1
657.34	4832.69
657.532	4681.14
657.724	4699.58
657.916	4658.62
658.108	4775.35
658.3	4703.67
658.492	4769.21
658.684	4597.18
658.876	4552.12
659.068	4519.36
659.26	4328.89
659.452	4607.42
659.644	4693.43
659.836	4488.64
660.028	4392.38
660.22	4492.73
660.412	4416.96
660.604	4347.33
660.796	4412.86
660.988	4388.29
661.18	4445.63
661.372	4443.58
661.563	4367.81
661.755	4226.5
661.947	4246.98
662.139	4179.39
662.331	4322.75
662.522	4273.6
662.714	4115.91
662.906	4328.89
663.097	4101.57
663.289	4206.02
663.481	4154.82
663.673	4058.56
663.864	3966.4
664.056	4132.29
664.247	3933.64
664.439	4148.67
664.631	4097.47
664.822	4060.61
665.014	3945.92
665.205	3970.5
665.397	3925.44
665.588	4070.85
665.78	3966.4
665.971	3960.26
666.163	3821
666.354	3958.21
666.546	3849.67
666.737	3818.95
666.929	3861.96
667.12	3757.51
667.311	3896.77
667.503	3741.13
667.694	3810.76
667.885	3786.18
668.077	3745.22
668.268	3741.13
668.459	3587.53
668.651	3821
668.842	3743.17
669.033	3689.93
669.224	3542.47
669.416	3741.13
669.607	3636.68
669.798	3687.88
669.989	3864.01
670.18	3659.21
670.371	3534.28
670.563	3474.89
670.754	3608.01
670.945	3567.05
671.136	3745.22
671.327	3671.5
671.518	3593.67
671.709	3546.57
671.9	3601.87
672.091	3579.34
672.282	3673.54
672.473	3474.89
672.664	3608.01
672.855	3540.43
673.046	3612.1
673.237	3653.06
673.428	3435.98
673.619	3519.95
673.809	3497.42
674	3653.06
674.191	3540.43
674.382	3454.41
674.573	3460.56
674.764	3552.71
674.954	3573.19
675.145	3481.03
675.336	3429.84
675.527	3493.32
675.717	3454.41
675.908	3466.7
676.099	3593.67
676.289	3429.84
676.48	3431.88
676.671	3499.47
676.861	3552.71
677.052	3370.44
677.243	3501.51
677.433	3415.5
677.624	3534.28
677.814	3497.42
678.005	3458.51
678.195	3501.51
678.386	3460.56
678.576	3411.4
678.767	3446.22
678.957	3558.86
679.148	3718.6
679.338	3446.22
679.529	3540.43
679.719	3374.54
679.909	3644.87
680.1	3419.6
680.29	3565
680.481	3671.5
680.671	3593.67
680.861	3585.48
681.052	3591.63
681.242	3618.25
681.432	3593.67
681.622	3513.8
681.813	3478.99
682.003	3595.72
682.193	3452.36
682.383	3556.81
682.573	3534.28
682.764	3610.06
682.954	3540.43
683.144	3583.43
683.334	3423.69
683.524	3470.8
683.714	3558.86
683.904	3466.7
684.094	3558.86
684.284	3628.49
684.474	3610.06
684.664	3491.27
684.854	3548.62
685.044	3421.64
685.234	3315.15
685.424	3464.65
685.614	3474.89
685.804	3454.41
685.994	3610.06
686.184	3630.54
686.374	3503.56
686.564	3368.4
686.753	3392.97
686.943	3329.49
687.133	3376.59
687.323	3390.92
687.513	3413.45
687.702	3403.21
687.892	3395.02
688.082	3306.96
688.272	3337.68
688.461	3405.26
688.651	3384.78
688.841	3268.05
689.03	3161.55
689.22	3274.19
689.41	3159.5
689.599	3253.71
689.789	3259.85
689.979	3214.8
690.168	3231.18
690.358	3358.16
690.547	3186.13
690.737	3069.39
690.926	3102.16
691.116	3079.63
691.305	3167.7
691.495	3087.82
691.684	3050.96
691.874	3096.02
692.063	3132.88
692.252	3216.85
692.442	3034.58
692.631	2989.52
692.82	3053.01
693.01	3083.73
693.199	2975.19
693.388	2973.14
693.578	2975.19
693.767	2975.19
693.956	3026.39
694.146	2893.27
694.335	2837.97
694.524	2921.94
694.713	2919.89
694.902	2837.97
695.092	2952.66
695.281	2760.15
695.47	2842.07
695.659	2758.1
695.848	2745.81
696.037	2797.01
696.226	2854.36
696.415	2807.25
696.604	2874.84
696.793	2852.31
696.982	2756.05
697.171	2928.08
697.36	2856.4
697.549	2766.29
697.738	2696.66
697.927	2885.08
698.116	2829.78
698.305	2797.01
698.494	2739.67
698.683	2717.14
698.872	2821.59
699.061	2815.45
699.25	2655.7
699.438	2758.1
699.627	2797.01
699.816	2731.48
700.005	2788.82
700.193	2921.94
700.382	2684.38
700.571	2696.66
700.76	2766.29
700.948	2776.53
701.137	2721.24
701.326	2751.96
701.514	2766.29
701.703	2854.36
701.892	2797.01
702.08	2809.3
702.269	2708.95
702.457	2735.57
702.646	2846.16
702.834	2747.86
703.023	2797.01
703.212	2786.77
703.4	2870.74
703.589	2891.22
703.777	2766.29
703.965	2690.52
704.154	2831.83
704.342	2799.06
704.531	2819.54
704.719	2823.64
704.907	2848.21
705.096	2698.71
705.284	2870.74
705.472	2788.82
705.661	2801.11
705.849	2954.71
706.037	2876.88
706.226	2690.52
706.414	2893.27
706.602	2786.77
706.79	2901.46
706.979	2776.53
707.167	2803.16
707.355	2897.36
707.543	2756.05
707.731	2688.47
707.919	2969.04
708.107	2889.17
708.296	2778.58
708.484	2803.16
708.672	2866.64
708.86	2930.13
709.048	2831.83
709.236	3036.63
709.424	2954.71
709.612	2987.47
709.8	2891.22
709.988	2766.29
710.176	2858.45
710.364	2840.02
710.551	2846.16
710.739	2856.4
710.927	2907.6
711.115	2880.98
711.303	3016.15
711.491	2932.18
711.679	2977.23
711.866	2938.32
712.054	2997.71
712.242	2907.6
712.43	2987.47
712.617	3050.96
712.805	2913.75
712.993	3036.63
713.181	2919.89
713.368	2981.33
713.556	2917.84
713.744	3063.25
713.931	3196.37
714.119	2938.32
714.306	3032.53
714.494	2938.32
714.682	2997.71
714.869	2932.18
715.057	3022.29
715.244	2940.37
715.432	3071.44
715.619	3034.58
715.807	2973.14
715.994	2973.14
716.182	3085.78
716.369	3155.41
716.556	3083.73
716.744	3079.63
716.931	3132.88
717.119	3087.82
717.306	3081.68
717.493	3081.68
717.681	3073.49
717.868	3083.73
718.055	3014.1
718.242	3077.59
718.43	3165.65
718.617	3057.11
718.804	3118.54
718.991	3278.29
719.179	3179.98
719.366	3231.18
719.553	3161.55
719.74	3028.43
719.927	3159.5
720.114	3145.17
720.301	3157.46
720.488	3200.46
720.676	3061.2
720.863	3300.81
721.05	3272.14
721.237	3139.02
721.424	3171.79
721.611	3292.62
721.798	3304.91
721.985	3337.68
722.172	3268.05
722.358	3206.61
722.545	3313.1
722.732	3243.47
722.919	3450.32
723.106	3216.85
723.293	3376.59
723.48	3370.44
723.667	3319.25
723.853	3255.76
724.04	3272.14
724.227	3315.15
724.414	3356.11
724.6	3374.54
724.787	3354.06
724.974	3261.9
725.161	3354.06
725.347	3216.85
725.534	3397.07
725.72	3395.02
725.907	3347.92
726.094	3288.53
726.28	3392.97
726.467	3378.64
726.653	3368.4
726.84	3515.85
727.027	3435.98
727.213	3268.05
727.4	3497.42
727.586	3397.07
727.773	3360.2
727.959	3386.83
728.145	3427.79
728.332	3427.79
728.518	3376.59
728.705	3470.8
728.891	3380.68
729.077	3538.38
729.264	3534.28
729.45	3419.6
729.636	3620.3
729.823	3489.23
730.009	3538.38
730.195	3517.9
730.382	3579.34
730.568	3616.2
730.754	3474.89
730.94	3569.1
731.126	3534.28
731.313	3515.85
731.499	3601.87
731.685	3521.99
731.871	3632.58
732.057	3567.05
732.243	3579.34
732.429	3538.38
732.615	3704.26
732.801	3464.65
732.987	3442.12
733.173	3554.76
733.359	3558.86
733.545	3530.19
733.731	3478.99
733.917	3620.3
734.103	3681.74
734.289	3638.73
734.475	3571.15
734.661	3798.47
734.847	3534.28
735.033	3581.39
735.219	3726.79
735.404	3671.5
735.59	3554.76
735.776	3624.39
735.962	3567.05
736.148	3683.78
736.333	3630.54
736.519	3571.15
736.705	3548.62
736.89	3671.5
737.076	3667.4
737.262	3628.49
737.447	3624.39
737.633	3614.15
737.819	3610.06
738.004	3589.58
738.19	3603.91
738.375	3536.33
738.561	3440.08
738.747	3509.71
738.932	3702.22
739.118	3734.98
739.303	3550.67
739.489	3558.86
739.674	3550.67
739.859	3665.35
740.045	3573.19
740.23	3507.66
740.416	3562.95
740.601	3593.67
740.786	3517.9
740.972	3601.87
741.157	3521.99
741.342	3487.18
741.528	3521.99
741.713	3448.27
741.898	3468.75
742.084	3354.06
742.269	3485.13
742.454	3528.14
742.639	3491.27
742.824	3476.94
743.01	3431.88
743.195	3528.14
743.38	3450.32
743.565	3456.46
743.75	3382.73
743.935	3370.44
744.12	3292.62
744.305	3356.11
744.49	3442.12
744.675	3415.5
744.86	3366.35
745.045	3384.78
745.23	3263.95
745.415	3268.05
745.6	3315.15
745.785	3274.19
745.97	3403.21
746.155	3171.79
746.34	3294.67
746.525	3282.38
746.71	3227.09
746.895	3141.07
747.079	3149.26
747.264	3134.93
747.449	3091.92
747.634	3038.67
747.819	3073.49
748.003	3231.18
748.188	2969.04
748.373	2954.71
748.557	3114.45
748.742	3005.91
748.927	2940.37
749.111	2983.38
749.296	2862.55
749.481	3005.91
749.665	2860.5
749.85	2883.03
750.034	2962.9
750.219	2885.08
750.404	2801.11
750.588	2876.88
750.773	3040.72
750.957	2856.4
751.141	2835.92
751.326	2893.27
751.51	2729.43
751.695	2624.98
751.879	2641.37
752.064	2776.53
752.248	2614.74
752.432	2741.72
752.617	2676.18
752.801	2596.31
752.985	2704.85
753.17	2694.61
753.354	2653.66
753.538	2565.59
753.722	2678.23
753.907	2588.12
754.091	2397.66
754.275	2442.71
754.459	2416.09
754.643	2405.85
754.828	2391.52
755.012	2448.86
755.196	2444.76
755.38	2401.76
755.564	2338.27
755.748	2422.24
755.932	2368.99
756.116	2383.32
756.3	2291.17
756.484	2291.17
756.668	2289.12
756.852	2250.21
757.036	2332.12
757.22	2168.29
757.404	2221.53
757.588	2221.53
757.772	2223.58
757.956	2137.57
758.14	2192.86
758.323	2166.24
758.507	2022.88
758.691	2131.42
758.875	2196.96
759.059	2221.53
759.242	2078.18
759.426	2190.81
759.61	1965.54
759.794	2045.41
759.977	2139.62
760.161	2022.88
760.345	1967.59
760.528	2123.23
760.712	2006.5
760.895	1971.68
761.079	2031.07
761.263	1926.63
761.446	1990.11
761.63	1967.59
761.813	1920.48
761.997	1885.67
762.18	1897.96
762.364	1879.52
762.547	1922.53
762.731	1838.56
762.914	1840.61
763.098	1791.46
763.281	1883.62
763.464	1762.79
763.648	1750.5
763.831	1766.89
764.015	1787.36
764.198	1828.32
764.381	1787.36
764.564	1738.21
764.748	1668.58
764.931	1750.5
765.114	1721.83
765.297	1869.28
765.481	1676.77
765.664	1723.88
765.847	1596.9
766.03	1689.06
766.213	1723.88
766.397	1668.58
766.58	1687.01
766.763	1734.12
766.946	1738.21
767.129	1652.2
767.312	1562.09
767.495	1617.38
767.678	1629.67
767.861	1609.19
768.044	1740.26
768.227	1576.42
768.41	1705.45
768.593	1582.57
768.776	1572.33
768.959	1502.7
769.142	1713.64
769.324	1617.38
769.507	1598.95
769.69	1512.94
769.873	1553.9
770.056	1564.14
770.239	1461.74
770.421	1519.08
770.604	1486.31
770.787	1394.15
770.97	1586.66
771.152	1375.72
771.335	1471.98
771.518	1519.08
771.7	1500.65
771.883	1420.78
772.066	1428.97
772.248	1381.87
772.431	1406.44
772.613	1381.87
772.796	1304.04
772.978	1349.1
773.161	1408.49
773.343	1390.06
773.526	1293.8
773.708	1332.72
773.891	1254.89
774.073	1351.15
774.256	1351.15
774.438	1398.25
774.621	1250.8
774.803	1353.2
774.985	1283.56
775.168	1412.59
775.35	1246.7
775.532	1275.37
775.715	1146.35
775.897	1281.52
776.079	1234.41
776.261	1250.8
776.444	1271.28
776.626	1226.22
776.808	1164.78
776.99	1154.54
777.173	1113.58
777.355	1205.74
777.537	1093.1
777.719	1125.87
777.901	1215.98
778.083	1146.35
778.265	1002.99
778.447	1127.92
778.629	1031.66
778.811	1068.53
778.993	1062.38
779.175	1023.47
779.357	1150.45
779.539	1021.42
779.721	951.79
779.903	1000.94
780.085	1029.62
780.267	1005.04
780.449	972.27
780.631	1023.47
780.812	1103.34
780.994	1000.94
781.176	882.16
781.358	1068.53
781.54	996.85
781.721	916.98
781.903	914.93
782.085	966.13
782.267	990.7
782.448	861.68
782.63	914.93
782.812	939.51
782.993	871.92
783.175	904.69
783.357	873.97
783.538	914.93
783.72	810.48
783.901	833.01
784.083	759.28
784.264	736.76
784.446	714.23
784.627	867.83
784.809	740.85
784.99	773.62
785.172	837.11
785.353	785.91
785.535	757.24
785.716	773.62
785.897	757.24
786.079	767.48
786.26	787.96
786.441	769.52
786.623	763.38
786.804	708.09
786.985	808.44
787.167	806.39
787.348	712.18
787.529	699.89
787.71	779.76
787.891	656.89
788.073	794.1
788.254	701.94
788.435	798.2
788.616	736.76
788.797	722.42
788.978	677.37
789.159	620.02
789.34	695.8
789.522	644.6
789.703	751.09
789.884	654.84
790.065	706.04
790.246	681.46
790.427	646.65
790.607	701.94
790.788	609.78
790.969	550.39
791.15	656.89
791.331	554.49
791.512	581.11
791.693	566.78
791.874	603.64
792.054	656.89
792.235	587.26
792.416	617.97
792.597	587.26
792.778	478.71
792.958	556.54
793.139	579.06
793.32	648.69
793.5	466.42
793.681	579.06
793.862	603.64
794.042	534.01
794.223	452.09
794.404	517.62
794.584	482.81
794.765	577.02
794.945	474.62
795.126	566.78
795.306	568.82
795.487	472.57
795.667	495.1
795.848	411.13
796.028	536.06
796.209	499.19
796.389	491
796.57	480.76
796.75	431.61
796.93	509.43
797.111	470.52
797.291	472.57
797.471	474.62
797.652	503.29
797.832	411.13
798.012	505.34
798.192	402.94
798.373	431.61
798.553	484.86
798.733	501.24
798.913	482.81
799.093	470.52
799.274	472.57
799.454	484.86
799.634	497.14
799.814	454.14
799.994	443.9
800.174	390.65
800.354	443.9
800.534	366.07
800.714	491
800.894	376.31
801.074	447.99
801.254	431.61
801.434	466.42
801.614	407.03
801.794	380.41
801.974	1177.07
802.154	310.78
802.334	456.19
802.514	325.12
802.693	425.47
802.873	335.35
803.053	417.27
803.233	423.42
803.413	349.69
803.592	390.65
803.772	423.42
803.952	306.68
804.131	347.64
804.311	382.46
804.491	435.71
804.67	439.8
804.85	333.31
805.03	331.26
805.209	318.97
805.389	433.66
805.568	380.41
805.748	425.47
805.928	347.64
806.107	413.18
806.287	323.07
806.466	298.49
806.646	366.07
806.825	404.99
807.004	355.83
807.184	304.64
807.363	310.78
807.543	359.93
807.722	345.59
807.901	339.45
808.081	288.25
808.26	271.87
808.439	253.44
808.619	337.4
808.798	282.11
808.977	273.92
809.156	284.16
809.336	335.35
809.515	280.06
809.694	312.83
809.873	237.05
810.052	296.44
810.231	345.59
810.411	298.49
810.59	368.12
810.769	282.11
810.948	404.99
811.127	216.57
811.306	294.4
811.485	304.64
811.664	402.94
811.843	341.5
812.022	302.59
812.201	243.2
812.38	245.24
812.559	239.1
812.737	304.64
812.916	263.68
813.095	267.77
813.274	300.54
813.453	275.96
813.632	278.01
813.811	261.63
813.989	271.87
814.168	271.87
814.347	208.38
814.526	300.54
814.704	353.79
814.883	275.96
815.062	235
815.24	267.77
815.419	226.81
815.598	183.81
815.776	146.94
815.955	255.48
816.133	187.9
816.312	210.43
816.49	173.57
816.669	163.33
816.847	265.72
817.026	167.42
817.204	247.29
817.383	235
817.561	177.66
817.74	208.38
817.918	253.44
818.097	220.67
818.275	212.48
818.453	220.67
818.632	210.43
818.81	171.52
818.988	171.52
819.167	235
819.345	263.68
819.523	220.67
819.701	206.33
819.879	237.05
820.058	198.14
820.236	155.13
820.414	177.66
820.592	226.81
820.77	161.28
820.948	261.63
821.127	218.62
821.305	196.09
821.483	179.71
821.661	196.09
821.839	200.19
822.017	179.71
822.195	249.34
822.373	261.63
822.551	169.47
822.729	216.57
822.907	239.1
823.085	216.57
823.262	142.85
823.44	132.61
823.618	136.7
823.796	226.81
823.974	224.76
824.152	142.85
824.329	155.13
824.507	194.05
824.685	226.81
824.863	175.61
825.04	185.85
825.218	189.95
825.396	161.28
825.574	222.72
825.751	210.43
825.929	148.99
826.107	124.41
826.284	183.81
826.462	134.65
826.639	144.89
826.817	101.89
826.994	202.24
827.172	103.93
827.349	146.94
827.527	142.85
827.704	138.75
827.882	212.48
828.059	245.24
828.237	173.57
828.414	210.43
828.591	91.65
828.769	130.56
828.946	69.12
829.124	144.89
829.301	187.9
829.478	167.42
829.655	114.17
829.833	136.7
830.01	171.52
830.187	151.04
830.364	220.67
830.542	114.17
830.719	148.99
830.896	159.23
831.073	175.61
831.25	206.33
831.427	146.94
831.604	118.27
831.782	110.08
831.959	91.65
832.136	151.04
832.313	124.41
832.49	67.07
832.667	91.65
832.844	103.93
833.021	148.99
833.198	110.08
833.374	153.09
833.551	204.28
833.728	140.8
833.905	175.61
834.082	65.02
834.259	112.13
834.436	101.89
834.612	153.09
834.789	151.04
834.966	132.61
835.143	165.37
835.319	75.26
835.496	138.75
835.673	116.22
835.85	136.7
836.026	56.83
836.203	126.46
836.38	69.12
836.556	79.36
836.733	56.83
836.909	187.9
837.086	91.65
837.262	108.03
837.439	120.32
837.616	118.27
837.792	83.45
837.968	77.31
838.145	-25.09
838.321	105.98
838.498	108.03
838.674	161.28
838.851	99.84
839.027	97.79
839.203	54.78
839.38	40.45
839.556	73.21
839.732	169.47
839.909	1.54
840.085	142.85
840.261	75.26
840.437	110.08
840.614	81.41
840.79	122.37
840.966	148.99
841.142	138.75
841.318	85.5
841.494	103.93
841.671	148.99
841.847	48.64
842.023	67.07
842.199	130.56
842.375	60.93
842.551	105.98
842.727	58.88
842.903	71.17
843.079	110.08
843.255	134.65
843.431	95.74
843.607	103.93
843.783	30.21
843.959	50.69
844.134	5.63
844.31	167.42
844.486	54.78
844.662	58.88
844.838	144.89
845.013	142.85
845.189	83.45
845.365	42.5
845.541	60.93
845.716	75.26
845.892	103.93
846.068	116.22
846.244	103.93
846.419	153.09
846.595	56.83
846.77	50.69
846.946	114.17
847.122	99.84
847.297	50.69
847.473	118.27
847.648	60.93
847.824	46.59
847.999	-6.66
848.175	56.83
848.35	17.92
848.526	95.74
848.701	110.08
848.876	89.6
849.052	159.23
849.227	83.45
849.403	54.78
849.578	95.74
849.753	38.4
849.929	167.42
850.104	32.26
850.279	-6.66
850.454	50.69
850.63	89.6
850.805	30.21
850.98	97.79
851.155	17.92
851.33	62.98
851.505	93.69
851.681	58.88
851.856	105.98
852.031	124.41
852.206	144.89
852.381	19.97
852.556	-29.18
852.731	120.32
852.906	128.51
853.081	112.13
853.256	24.06
853.431	101.89
853.606	7.68
853.781	120.32
853.956	19.97
854.131	56.83
854.305	13.82
854.48	54.78
854.655	9.73
854.83	32.26
855.005	15.87
855.18	83.45
855.354	85.5
855.529	40.45
855.704	99.84
855.879	40.45
856.053	75.26
856.228	83.45
856.403	85.5
856.577	75.26
856.752	1.54
856.926	15.87
857.101	22.02
857.276	-10.75
857.45	46.59
857.625	48.64
857.799	9.73
857.974	3.58
858.148	77.31
858.323	114.17
858.497	71.17
858.672	26.11
858.846	38.4
859.02	38.4
859.195	40.45
859.369	40.45
859.543	93.69
859.718	69.12
859.892	44.54
860.066	48.64
860.241	-2.56
860.415	40.45
860.589	58.88
860.763	11.78
860.938	54.78
861.112	97.79
861.286	75.26
861.46	26.11
861.634	-6.66
861.808	-8.7
861.982	30.21
862.157	65.02
862.331	-2.56
862.505	30.21
862.679	44.54
862.853	-23.04
863.027	69.12
863.201	73.21
863.375	28.16
863.549	-25.09
863.722	52.74
863.896	118.27
864.07	-20.99
864.244	28.16
864.418	54.78
864.592	-16.9
864.766	56.83
864.939	118.27
865.113	7.68
865.287	97.79
865.461	-6.66
865.634	19.97
865.808	54.78
865.982	58.88
866.156	24.06
866.329	17.92
866.503	87.55
866.676	40.45
866.85	60.93
867.024	40.45
867.197	65.02
867.371	22.02
867.544	62.98
867.718	-61.95
867.891	136.7
868.065	-0.51
868.238	-4.61
868.412	89.6
868.585	75.26
868.759	22.02
868.932	44.54
869.105	-27.14
869.279	58.88
869.452	75.26
869.625	15.87
869.799	-35.33
869.972	65.02
870.145	108.03
870.319	85.5
870.492	71.17
870.665	-47.62
870.838	58.88
871.011	67.07
871.185	-27.14
871.358	69.12
871.531	9.73
871.704	-8.7
871.877	-0.51
872.05	-29.18
872.223	-33.28
872.396	3.58
872.569	34.3
872.742	24.06
872.915	34.3
873.088	-6.66
873.261	1.54
873.434	95.74
873.607	13.82
873.78	34.3
873.953	52.74
874.126	30.21
874.299	38.4
874.471	24.06
874.644	9.73
874.817	48.64
874.99	3.58
875.163	5.63
875.335	-14.85
875.508	-2.56
875.681	83.45
875.853	-8.7
876.026	85.5
876.199	13.82
876.371	22.02
876.544	-20.99
876.717	5.63
876.889	24.06
877.062	81.41
877.234	22.02
877.407	46.59
877.579	28.16
877.752	60.93
877.924	30.21
878.097	42.5
878.269	40.45
878.442	30.21
878.614	28.16
878.786	48.64
878.959	71.17
879.131	-8.7
879.303	7.68
879.476	-2.56
879.648	11.78
879.82	22.02
879.993	44.54
880.165	30.21
880.337	-33.28
880.509	-16.9
880.681	-39.42
880.854	-33.28
881.026	79.36
881.198	136.7
881.37	32.26
881.542	-39.42
881.714	69.12
881.886	34.3
882.058	-23.04
882.23	69.12
882.402	-47.62
882.574	38.4
882.746	54.78
882.918	58.88
883.09	17.92
883.262	28.16
883.434	-31.23
883.606	-16.9
883.778	24.06
883.95	105.98
884.122	-16.9
884.293	9.73
884.465	11.78
884.637	71.17
884.809	5.63
884.98	38.4
885.152	-0.51
885.324	13.82
885.496	-25.09
885.667	40.45
885.839	-16.9
886.011	83.45
886.182	122.37
886.354	24.06
886.525	-16.9
886.697	5.63
886.869	7.68
887.04	-2.56
887.212	91.65
887.383	48.64
887.555	5.63
887.726	11.78
887.897	-27.14
888.069	-16.9
888.24	69.12
888.412	3.58
888.583	67.07
888.754	-8.7
888.926	-43.52
889.097	40.45
889.268	-76.29
889.44	24.06
889.611	-53.76
889.782	73.21
889.953	40.45
890.125	38.4
890.296	-31.23
890.467	50.69
890.638	1.54
890.809	30.21
890.98	-43.52
891.151	-2.56
891.323	40.45
891.494	19.97
891.665	52.74
891.836	44.54
892.007	-10.75
892.178	69.12
892.349	11.78
892.52	32.26
892.691	26.11
892.862	65.02
893.032	-45.57
893.203	40.45
893.374	19.97
893.545	65.02
893.716	24.06
893.887	60.93
894.057	-61.95
894.228	-16.9
894.399	38.4
894.57	46.59
894.74	-53.76
894.911	-16.9
895.082	32.26
895.253	15.87
895.423	17.92
895.594	56.83
895.764	3.58
895.935	28.16
896.106	17.92
896.276	-43.52
896.447	56.83
896.617	7.68
896.788	5.63
896.958	46.59
897.129	-27.14
897.299	-0.51
897.47	28.16
897.64	71.17
897.81	40.45
897.981	-31.23
898.151	-18.94
898.322	-33.28
898.492	79.36
898.662	-43.52
898.832	30.21
899.003	30.21
899.173	89.6
899.343	-4.61
899.513	-51.71
