Data from USB4F104151__91__12-24-52-318.txt Node

Date: Fri Mar 14 12:24:52 EDT 2025
User: louis
Spectrometer: USB4F10415
Trigger mode: 4
Integration Time (sec): 3.500000E-2
Scans to average: 1
Electric dark correction enabled: true
Nonlinearity correction enabled: false
Boxcar width: 0
XAxis mode: Wavelengths
Number of Pixels in Spectrum: 3648
>>>>>Begin Spectral Data<<<<<
178.204	-108.71
178.424	-108.71
178.644	-108.71
178.864	-139.43
179.084	-123.05
179.304	-47.27
179.524	-65.71
179.744	-43.18
179.964	85.84
180.184	42.84
180.404	42.84
180.624	8.02
180.844	61.27
181.064	-32.94
181.283	40.79
181.503	-71.85
181.723	-20.65
181.943	-75.95
182.163	18.26
182.383	26.45
182.602	-4.27
182.822	57.17
183.042	53.08
183.262	46.93
183.482	12.12
183.701	57.17
183.921	14.17
184.141	-26.79
184.361	110.42
184.58	-2.22
184.8	51.03
185.02	26.45
185.239	63.32
185.459	-20.65
185.679	28.5
185.898	-6.31
186.118	46.93
186.338	30.55
186.557	48.98
186.777	-14.51
186.997	-41.13
187.216	14.17
187.436	89.94
187.655	42.84
187.875	63.32
188.095	32.6
188.314	106.32
188.534	71.51
188.753	-80.04
188.973	14.17
189.192	-0.17
189.412	-49.32
189.631	65.36
189.851	-2.22
190.07	71.51
190.29	-55.47
190.509	12.12
190.729	24.4
190.948	104.28
191.168	190.29
191.387	48.98
191.607	61.27
191.826	1.88
192.045	63.32
192.265	-24.75
192.484	-30.89
192.704	38.74
192.923	26.45
193.142	114.52
193.362	5.97
193.581	73.56
193.8	16.21
194.02	18.26
194.239	57.17
194.458	55.12
194.678	91.99
194.897	5.97
195.116	44.88
195.335	87.89
195.555	3.93
195.774	12.12
195.993	96.08
196.212	3.93
196.432	-22.7
196.651	-12.46
196.87	22.36
197.089	159.57
197.308	-4.27
197.528	65.36
197.747	16.21
197.966	51.03
198.185	96.08
198.404	-22.7
198.623	48.98
198.842	143.19
199.062	22.36
199.281	116.56
199.5	40.79
199.719	14.17
199.938	-10.41
200.157	83.8
200.376	-16.55
200.595	87.89
200.814	22.36
201.033	53.08
201.252	51.03
201.471	-47.27
201.69	61.27
201.909	38.74
202.128	57.17
202.347	108.37
202.566	-16.55
202.785	61.27
203.004	26.45
203.223	102.23
203.442	67.41
203.661	65.36
203.879	59.22
204.098	87.89
204.317	26.45
204.536	137.04
204.755	44.88
204.974	3.93
205.193	110.42
205.411	112.47
205.63	48.98
205.849	-2.22
206.068	-8.36
206.287	57.17
206.505	67.41
206.724	-30.89
206.943	57.17
207.162	71.51
207.381	67.41
207.599	48.98
207.818	34.64
208.037	85.84
208.255	79.7
208.474	87.89
208.693	42.84
208.911	85.84
209.13	-20.65
209.349	48.98
209.567	-26.79
209.786	100.18
210.005	18.26
210.223	16.21
210.442	26.45
210.661	-43.18
210.879	5.97
211.098	-14.51
211.316	16.21
211.535	106.32
211.753	40.79
211.972	69.46
212.191	-2.22
212.409	42.84
212.628	42.84
212.846	48.98
213.065	44.88
213.283	100.18
213.502	40.79
213.72	38.74
213.938	22.36
214.157	36.69
214.375	106.32
214.594	77.65
214.812	-2.22
215.031	53.08
215.249	32.6
215.467	42.84
215.686	65.36
215.904	96.08
216.122	69.46
216.341	-0.17
216.559	48.98
216.778	63.32
216.996	59.22
217.214	-22.7
217.432	22.36
217.651	18.26
217.869	38.74
218.087	36.69
218.306	32.6
218.524	36.69
218.742	28.5
218.96	100.18
219.179	-4.27
219.397	18.26
219.615	59.22
219.833	1.88
220.051	51.03
220.27	18.26
220.488	-8.36
220.706	61.27
220.924	-55.47
221.142	5.97
221.36	16.21
221.578	42.84
221.796	-37.03
222.015	48.98
222.233	22.36
222.451	1.88
222.669	-20.65
222.887	63.32
223.105	-39.08
223.323	-37.03
223.541	73.56
223.759	22.36
223.977	3.93
224.195	73.56
224.413	12.12
224.631	135
224.849	24.4
225.067	3.93
225.285	-45.23
225.503	48.98
225.721	-8.36
225.939	36.69
226.157	28.5
226.375	130.9
226.592	-63.66
226.81	20.31
227.028	130.9
227.246	77.65
227.464	91.99
227.682	40.79
227.9	14.17
228.117	24.4
228.335	12.12
228.553	42.84
228.771	-4.27
228.989	46.93
229.206	59.22
229.424	30.55
229.642	14.17
229.86	22.36
230.077	108.37
230.295	63.32
230.513	40.79
230.731	22.36
230.948	79.7
231.166	-26.79
231.384	26.45
231.601	-0.17
231.819	83.8
232.037	14.17
232.254	44.88
232.472	-6.31
232.689	-2.22
232.907	67.41
233.125	51.03
233.342	55.12
233.56	38.74
233.777	-41.13
233.995	30.55
234.213	5.97
234.43	28.5
234.648	22.36
234.865	42.84
235.083	108.37
235.3	81.75
235.518	53.08
235.735	77.65
235.953	26.45
236.17	-30.89
236.388	51.03
236.605	-12.46
236.822	65.36
237.04	98.13
237.257	8.02
237.475	26.45
237.692	57.17
237.909	53.08
238.127	-34.99
238.344	34.64
238.562	32.6
238.779	-34.99
238.996	20.31
239.214	46.93
239.431	75.6
239.648	98.13
239.865	22.36
240.083	55.12
240.3	-26.79
240.517	-39.08
240.735	42.84
240.952	1.88
241.169	77.65
241.386	89.94
241.603	75.6
241.821	-18.6
242.038	59.22
242.255	38.74
242.472	-41.13
242.689	44.88
242.907	46.93
243.124	59.22
243.341	61.27
243.558	-4.27
243.775	-88.23
243.992	18.26
244.209	3.93
244.426	48.98
244.643	81.75
244.86	10.07
245.078	85.84
245.295	51.03
245.512	28.5
245.729	28.5
245.946	61.27
246.163	24.4
246.38	59.22
246.597	10.07
246.814	55.12
247.031	40.79
247.248	85.84
247.464	55.12
247.681	98.13
247.898	73.56
248.115	51.03
248.332	24.4
248.549	51.03
248.766	20.31
248.983	77.65
249.2	38.74
249.417	-80.04
249.633	1.88
249.85	85.84
250.067	28.5
250.284	28.5
250.501	38.74
250.717	16.21
250.934	-61.61
251.151	48.98
251.368	14.17
251.585	51.03
251.801	122.71
252.018	-2.22
252.235	130.9
252.451	3.93
252.668	34.64
252.885	48.98
253.102	55.12
253.318	28.5
253.535	8.02
253.752	-26.79
253.968	24.4
254.185	14.17
254.401	20.31
254.618	81.75
254.835	14.17
255.051	77.65
255.268	5.97
255.484	69.46
255.701	-8.36
255.917	124.76
256.134	46.93
256.351	40.79
256.567	-49.32
256.784	-6.31
257	-2.22
257.217	22.36
257.433	18.26
257.65	83.8
257.866	94.04
258.082	26.45
258.299	-0.17
258.515	100.18
258.732	38.74
258.948	-20.65
259.165	14.17
259.381	79.7
259.597	18.26
259.814	36.69
260.03	24.4
260.246	8.02
260.463	22.36
260.679	130.9
260.895	85.84
261.112	65.36
261.328	48.98
261.544	57.17
261.761	110.42
261.977	16.21
262.193	-34.99
262.409	77.65
262.626	42.84
262.842	10.07
263.058	-12.46
263.274	48.98
263.49	98.13
263.707	42.84
263.923	14.17
264.139	79.7
264.355	30.55
264.571	132.95
264.787	55.12
265.004	89.94
265.22	-0.17
265.436	51.03
265.652	-0.17
265.868	65.36
266.084	12.12
266.3	44.88
266.516	8.02
266.732	79.7
266.948	22.36
267.164	36.69
267.38	38.74
267.596	51.03
267.812	175.95
268.028	55.12
268.244	20.31
268.46	34.64
268.676	61.27
268.892	20.31
269.108	-8.36
269.324	-55.47
269.54	-55.47
269.756	102.23
269.972	-30.89
270.188	-16.55
270.403	22.36
270.619	55.12
270.835	-37.03
271.051	40.79
271.267	42.84
271.483	100.18
271.698	65.36
271.914	98.13
272.13	1.88
272.346	51.03
272.562	-41.13
272.777	38.74
272.993	87.89
273.209	-4.27
273.425	30.55
273.64	34.64
273.856	71.51
274.072	-34.99
274.287	-2.22
274.503	-0.17
274.719	-12.46
274.934	55.12
275.15	-0.17
275.366	-47.27
275.581	63.32
275.797	-30.89
276.012	57.17
276.228	42.84
276.444	28.5
276.659	145.24
276.875	-6.31
277.09	36.69
277.306	28.5
277.521	-20.65
277.737	22.36
277.952	98.13
278.168	34.64
278.383	36.69
278.599	75.6
278.814	18.26
279.03	71.51
279.245	53.08
279.461	-41.13
279.676	96.08
279.892	22.36
280.107	18.26
280.322	30.55
280.538	32.6
280.753	98.13
280.969	22.36
281.184	5.97
281.399	32.6
281.615	34.64
281.83	77.65
282.045	3.93
282.26	-41.13
282.476	51.03
282.691	67.41
282.906	36.69
283.122	40.79
283.337	14.17
283.552	24.4
283.767	32.6
283.983	81.75
284.198	32.6
284.413	120.66
284.628	-22.7
284.843	67.41
285.058	30.55
285.274	79.7
285.489	28.5
285.704	81.75
285.919	67.41
286.134	59.22
286.349	14.17
286.564	51.03
286.779	132.95
286.995	51.03
287.21	-20.65
287.425	32.6
287.64	83.8
287.855	8.02
288.07	36.69
288.285	132.95
288.5	104.28
288.715	73.56
288.93	73.56
289.145	3.93
289.36	128.85
289.575	61.27
289.79	69.46
290.004	-20.65
290.219	67.41
290.434	-8.36
290.649	91.99
290.864	28.5
291.079	24.4
291.294	1.88
291.509	28.5
291.724	28.5
291.938	53.08
292.153	10.07
292.368	16.21
292.583	85.84
292.798	128.85
293.012	-57.51
293.227	53.08
293.442	71.51
293.657	77.65
293.871	108.37
294.086	5.97
294.301	28.5
294.516	-6.31
294.73	48.98
294.945	38.74
295.16	145.24
295.374	87.89
295.589	-12.46
295.804	46.93
296.018	-8.36
296.233	108.37
296.447	44.88
296.662	16.21
296.877	94.04
297.091	55.12
297.306	46.93
297.52	59.22
297.735	10.07
297.949	-20.65
298.164	139.09
298.378	-22.7
298.593	59.22
298.807	40.79
299.022	85.84
299.236	132.95
299.451	8.02
299.665	-12.46
299.88	63.32
300.094	98.13
300.309	53.08
300.523	112.47
300.737	147.28
300.952	46.93
301.166	100.18
301.381	46.93
301.595	118.61
301.809	36.69
302.024	24.4
302.238	-24.75
302.452	51.03
302.667	20.31
302.881	24.4
303.095	98.13
303.309	65.36
303.524	63.32
303.738	-4.27
303.952	-30.89
304.166	32.6
304.381	34.64
304.595	51.03
304.809	26.45
305.023	-4.27
305.237	71.51
305.452	61.27
305.666	83.8
305.88	75.6
306.094	55.12
306.308	77.65
306.522	145.24
306.736	55.12
306.95	55.12
307.164	46.93
307.379	120.66
307.593	116.56
307.807	98.13
308.021	61.27
308.235	81.75
308.449	34.64
308.663	-10.41
308.877	102.23
309.091	59.22
309.305	40.79
309.519	55.12
309.733	67.41
309.947	8.02
310.161	87.89
310.374	28.5
310.588	61.27
310.802	-26.79
311.016	-2.22
311.23	32.6
311.444	-14.51
311.658	71.51
311.872	96.08
312.085	61.27
312.299	79.7
312.513	3.93
312.727	65.36
312.941	34.64
313.154	12.12
313.368	40.79
313.582	48.98
313.796	8.02
314.009	16.21
314.223	128.85
314.437	51.03
314.651	55.12
314.864	38.74
315.078	124.76
315.292	-20.65
315.505	18.26
315.719	116.56
315.933	75.6
316.146	44.88
316.36	20.31
316.573	71.51
316.787	63.32
317.001	16.21
317.214	-14.51
317.428	75.6
317.641	-51.37
317.855	44.88
318.068	36.69
318.282	59.22
318.495	155.47
318.709	57.17
318.922	67.41
319.136	114.52
319.349	83.8
319.563	-55.47
319.776	89.94
319.99	42.84
320.203	32.6
320.417	30.55
320.63	-6.31
320.843	77.65
321.057	26.45
321.27	-22.7
321.483	53.08
321.697	48.98
321.91	38.74
322.124	75.6
322.337	63.32
322.55	61.27
322.763	30.55
322.977	1.88
323.19	63.32
323.403	51.03
323.617	32.6
323.83	81.75
324.043	-0.17
324.256	89.94
324.469	28.5
324.683	57.17
324.896	22.36
325.109	59.22
325.322	-24.75
325.535	55.12
325.748	85.84
325.962	44.88
326.175	-12.46
326.388	51.03
326.601	79.7
326.814	3.93
327.027	48.98
327.24	157.52
327.453	-20.65
327.666	12.12
327.879	71.51
328.092	89.94
328.305	67.41
328.518	-45.23
328.731	-12.46
328.944	57.17
329.157	112.47
329.37	-2.22
329.583	100.18
329.796	163.67
330.009	-30.89
330.222	67.41
330.435	89.94
330.648	46.93
330.861	-24.75
331.073	83.8
331.286	22.36
331.499	130.9
331.712	12.12
331.925	83.8
332.138	36.69
332.35	79.7
332.563	-47.27
332.776	145.24
332.989	61.27
333.202	-12.46
333.414	79.7
333.627	55.12
333.84	26.45
334.053	12.12
334.265	3.93
334.478	3.93
334.691	30.55
334.903	143.19
335.116	63.32
335.329	61.27
335.541	77.65
335.754	120.66
335.966	22.36
336.179	85.84
336.392	51.03
336.604	104.28
336.817	26.45
337.029	16.21
337.242	36.69
337.454	110.42
337.667	63.32
337.88	112.47
338.092	100.18
338.305	71.51
338.517	-30.89
338.729	124.76
338.942	161.62
339.154	8.02
339.367	-34.99
339.579	100.18
339.792	91.99
340.004	126.8
340.217	26.45
340.429	130.9
340.641	-84.14
340.854	-18.6
341.066	12.12
341.278	77.65
341.491	98.13
341.703	63.32
341.915	1.88
342.128	44.88
342.34	48.98
342.552	22.36
342.764	20.31
342.977	5.97
343.189	96.08
343.401	65.36
343.613	40.79
343.826	1.88
344.038	-39.08
344.25	30.55
344.462	26.45
344.674	63.32
344.886	16.21
345.099	16.21
345.311	32.6
345.523	1.88
345.735	-49.32
345.947	87.89
346.159	38.74
346.371	12.12
346.583	-34.99
346.795	63.32
347.007	10.07
347.219	91.99
347.431	71.51
347.643	108.37
347.855	5.97
348.067	69.46
348.279	24.4
348.491	100.18
348.703	55.12
348.915	57.17
349.127	59.22
349.339	75.6
349.551	8.02
349.763	48.98
349.975	20.31
350.187	77.65
350.399	-22.7
350.61	67.41
350.822	-28.84
351.034	85.84
351.246	38.74
351.458	26.45
351.669	-22.7
351.881	65.36
352.093	149.33
352.305	44.88
352.517	85.84
352.728	51.03
352.94	38.74
353.152	110.42
353.363	-10.41
353.575	51.03
353.787	59.22
353.999	89.94
354.21	32.6
354.422	42.84
354.633	-22.7
354.845	79.7
355.057	53.08
355.268	8.02
355.48	83.8
355.692	10.07
355.903	51.03
356.115	-6.31
356.326	-6.31
356.538	14.17
356.749	40.79
356.961	94.04
357.172	77.65
357.384	-8.36
357.595	104.28
357.807	34.64
358.018	63.32
358.23	81.75
358.441	104.28
358.653	73.56
358.864	30.55
359.075	34.64
359.287	1.88
359.498	89.94
359.709	48.98
359.921	38.74
360.132	73.56
360.344	87.89
360.555	-22.7
360.766	94.04
360.977	3.93
361.189	42.84
361.4	26.45
361.611	120.66
361.823	87.89
362.034	87.89
362.245	-8.36
362.456	61.27
362.667	91.99
362.879	14.17
363.09	46.93
363.301	137.04
363.512	55.12
363.723	20.31
363.935	69.46
364.146	118.61
364.357	63.32
364.568	75.6
364.779	-10.41
364.99	75.6
365.201	26.45
365.412	71.51
365.623	-39.08
365.834	55.12
366.045	-10.41
366.256	40.79
366.467	55.12
366.678	40.79
366.889	-10.41
367.1	-37.03
367.311	59.22
367.522	46.93
367.733	69.46
367.944	53.08
368.155	69.46
368.366	69.46
368.577	81.75
368.788	5.97
368.999	-14.51
369.209	71.51
369.42	216.91
369.631	124.76
369.842	89.94
370.053	-12.46
370.264	32.6
370.474	48.98
370.685	-26.79
370.896	128.85
371.107	53.08
371.317	96.08
371.528	38.74
371.739	81.75
371.95	1.88
372.16	85.84
372.371	1.88
372.582	40.79
372.792	130.9
373.003	44.88
373.214	16.21
373.424	51.03
373.635	-4.27
373.846	71.51
374.056	16.21
374.267	163.67
374.477	100.18
374.688	-12.46
374.898	98.13
375.109	34.64
375.319	85.84
375.53	96.08
375.74	73.56
375.951	-22.7
376.161	-16.55
376.372	65.36
376.582	38.74
376.793	53.08
377.003	57.17
377.214	-4.27
377.424	34.64
377.635	53.08
377.845	106.32
378.055	178
378.266	-41.13
378.476	69.46
378.686	-10.41
378.897	26.45
379.107	96.08
379.317	20.31
379.528	61.27
379.738	32.6
379.948	57.17
380.158	55.12
380.369	112.47
380.579	130.9
380.789	32.6
380.999	106.32
381.21	28.5
381.42	81.75
381.63	77.65
381.84	79.7
382.05	59.22
382.261	116.56
382.471	124.76
382.681	-12.46
382.891	100.18
383.101	122.71
383.311	16.21
383.521	48.98
383.731	77.65
383.941	44.88
384.151	77.65
384.361	79.7
384.571	30.55
384.781	51.03
384.991	110.42
385.201	104.28
385.411	48.98
385.621	83.8
385.831	46.93
386.041	51.03
386.251	63.32
386.461	51.03
386.671	5.97
386.881	69.46
387.091	48.98
387.301	116.56
387.511	79.7
387.72	55.12
387.93	77.65
388.14	-45.23
388.35	87.89
388.56	57.17
388.769	87.89
388.979	61.27
389.189	75.6
389.399	8.02
389.609	26.45
389.818	69.46
390.028	34.64
390.238	104.28
390.447	63.32
390.657	85.84
390.867	26.45
391.076	-8.36
391.286	57.17
391.496	28.5
391.705	32.6
391.915	85.84
392.125	79.7
392.334	73.56
392.544	143.19
392.753	46.93
392.963	89.94
393.172	104.28
393.382	-22.7
393.591	42.84
393.801	42.84
394.01	112.47
394.22	110.42
394.429	67.41
394.639	106.32
394.848	61.27
395.058	110.42
395.267	48.98
395.477	87.89
395.686	77.65
395.895	120.66
396.105	118.61
396.314	100.18
396.524	106.32
396.733	159.57
396.942	208.72
397.152	100.18
397.361	63.32
397.57	38.74
397.78	-2.22
397.989	38.74
398.198	143.19
398.407	94.04
398.617	75.6
398.826	106.32
399.035	71.51
399.244	96.08
399.453	96.08
399.663	141.14
399.872	182.1
400.081	85.84
400.29	118.61
400.499	112.47
400.708	163.67
400.917	69.46
401.127	130.9
401.336	81.75
401.545	153.43
401.754	225.11
401.963	122.71
402.172	79.7
402.381	151.38
402.59	122.71
402.799	81.75
403.008	165.71
403.217	169.81
403.426	169.81
403.635	106.32
403.844	169.81
404.053	89.94
404.262	108.37
404.471	184.15
404.68	161.62
404.888	75.6
405.097	120.66
405.306	200.53
405.515	71.51
405.724	102.23
405.933	147.28
406.142	169.81
406.35	116.56
406.559	190.29
406.768	157.52
406.977	264.02
407.185	165.71
407.394	231.25
407.603	206.67
407.812	186.19
408.02	249.68
408.229	139.09
408.438	253.78
408.646	184.15
408.855	155.47
409.064	196.43
409.272	233.3
409.481	202.58
409.69	204.63
409.898	247.63
410.107	266.07
410.315	259.92
410.524	284.5
410.733	325.46
410.941	352.08
411.15	216.91
411.358	329.55
411.567	272.21
411.775	280.4
411.984	274.26
412.192	393.04
412.401	307.02
412.609	370.51
412.818	421.71
413.026	425.81
413.234	454.48
413.443	337.74
413.651	438.09
413.86	483.15
414.068	493.39
414.276	489.29
414.485	548.68
414.693	542.54
414.901	630.6
415.11	636.75
415.318	466.77
415.526	597.84
415.734	608.08
415.943	634.7
416.151	704.33
416.359	679.75
416.567	728.91
416.776	710.47
416.984	776.01
417.192	833.35
417.4	765.77
417.608	728.91
417.817	759.63
418.025	896.84
418.233	989
418.441	864.07
418.649	962.37
418.857	1021.77
419.065	954.18
419.273	991.05
419.481	1052.49
419.689	1148.74
419.897	1195.84
420.105	1214.27
420.313	1318.72
420.521	1333.06
420.729	1363.78
420.937	1226.56
421.145	1322.82
421.353	1466.17
421.561	1648.44
421.769	1492.8
421.977	1605.44
422.185	1621.82
422.393	1699.64
422.601	1781.56
422.809	1824.57
423.017	1867.58
423.224	1990.45
423.432	1894.2
423.64	1904.44
423.848	2121.52
424.056	2066.23
424.263	2135.86
424.471	2174.77
424.679	2326.32
424.887	2324.27
425.094	2430.77
425.302	2379.57
425.51	2567.98
425.718	2688.81
425.925	2674.48
426.133	2864.94
426.341	3059.49
426.548	3030.82
426.756	3102.5
426.964	3067.69
427.171	3266.34
427.379	3475.23
427.586	3530.53
427.794	3565.34
428.001	3718.94
428.209	3886.87
428.417	3899.16
428.624	4091.67
428.832	4003.61
429.039	3983.13
429.247	3901.21
429.454	4448.02
429.662	4769.55
429.869	4323.09
430.076	4704.01
430.284	4503.31
430.491	4882.19
430.699	5084.94
430.906	4968.2
431.114	5037.83
431.321	5439.23
431.528	5449.47
431.736	5684.99
431.943	5979.9
432.15	5971.71
432.358	6024.95
432.565	6313.72
432.772	6297.33
432.979	6612.72
433.187	6690.54
433.394	6870.76
433.601	7200.49
433.808	7253.73
434.016	7145.19
434.223	7452.39
434.43	7849.69
434.637	7909.08
434.844	8058.59
435.052	8580.82
435.259	8275.67
435.466	8355.54
435.673	8320.73
435.88	8687.31
436.087	9400.01
436.294	9598.66
436.501	9160.39
436.708	9445.06
436.915	9780.93
437.122	10051.26
437.329	10122.94
437.537	10163.9
437.743	10546.87
437.95	10335.93
438.157	10948.27
438.364	11247.27
438.571	11454.12
438.778	11441.83
438.985	12428.95
439.192	11919.01
439.399	12396.18
439.606	12011.17
439.813	13014.67
440.02	13766.28
440.227	13258.38
440.433	13285
440.64	13536.9
440.847	13680.26
441.054	14141.05
441.261	14685.81
441.467	14538.36
441.674	15089.26
441.881	15513.19
442.088	15486.57
442.294	15347.31
442.501	15705.7
442.708	16105.06
442.914	16819.8
443.121	17364.56
443.328	16895.57
443.534	18030.15
443.741	17462.86
443.948	17385.04
444.154	18705.98
444.361	18595.39
444.568	18935.35
444.774	18646.58
444.981	18722.36
445.187	19320.37
445.394	20280.86
445.6	20149.79
445.807	21745.16
446.013	21044.76
446.22	21245.46
446.426	22431.23
446.633	22435.33
446.839	23524.85
447.046	22160.9
447.252	23231.99
447.459	23522.8
447.665	23485.93
447.871	24358.37
448.078	25599.44
448.284	24288.74
448.491	25044.44
448.697	26451.39
448.903	26648
449.11	26719.68
449.316	25992.65
449.522	26863.04
449.728	27502
449.935	27526.58
450.141	27655.6
450.347	28325.29
450.553	27252.15
450.76	27504.05
450.966	28507.55
451.172	28147.11
451.378	29089.18
451.584	28267.94
451.791	29087.13
451.997	28904.86
452.203	29595.03
452.409	29685.14
452.615	29787.53
452.821	28181.93
453.027	27823.53
453.233	29449.62
453.44	28433.83
453.646	28720.54
453.852	28726.69
454.058	29296.02
454.264	28136.87
454.47	28874.14
454.676	28349.86
454.882	29275.54
455.088	26924.47
455.294	27252.15
455.5	27604.4
455.705	27626.93
455.911	26508.74
456.117	26045.9
456.323	25648.59
456.529	24374.75
456.735	25595.34
456.941	24876.51
457.147	24518.11
457.352	24092.13
457.558	23348.72
457.764	23719.4
457.97	23135.73
458.176	22767.1
458.381	22453.76
458.587	21478.93
458.793	21593.61
458.999	20411.93
459.204	21954.05
459.41	21173.78
459.616	19564.07
459.821	19926.57
460.027	19828.26
460.233	19406.38
460.438	18535.99
460.644	18718.26
460.85	17661.51
461.055	17331.79
461.261	17364.56
461.466	16264.8
461.672	15666.79
461.878	16795.22
462.083	15666.79
462.289	15195.76
462.494	15322.73
462.7	14681.72
462.905	14063.23
463.111	14521.98
463.316	14833.27
463.522	14321.27
463.727	14456.44
463.932	14284.41
464.138	14222.97
464.343	14429.82
464.549	13776.52
464.754	14405.24
464.959	14182.01
465.165	13952.64
465.37	13321.87
465.575	13115.02
465.781	13545.09
465.986	13549.19
466.191	13198.99
466.397	13022.86
466.602	12306.07
466.807	12852.88
467.012	12914.32
467.218	12754.58
467.423	12467.86
467.628	12742.29
467.833	13115.02
468.038	12652.18
468.244	12310.17
468.449	12766.87
468.654	12422.81
468.859	12263.07
469.064	12416.66
469.269	11624.1
469.474	11749.03
469.679	12250.78
469.885	11710.11
470.09	11781.79
470.295	11634.34
470.5	11517.61
470.705	11706.02
470.91	11445.93
471.115	11431.59
471.32	11376.3
471.525	11284.14
471.73	11173.55
471.935	11030.19
472.139	10878.64
472.344	10731.19
472.549	10593.97
472.754	10667.7
472.959	10426.04
473.164	10122.94
473.369	10174.14
473.574	10374.84
473.778	10319.54
473.983	9991.87
474.188	10213.05
474.393	9744.06
474.598	9701.06
474.802	9660.1
475.007	9604.8
475.212	9598.66
475.417	9166.54
475.621	9467.59
475.826	9002.7
476.031	9211.59
476.235	8799.95
476.44	9170.63
476.645	8994.51
476.849	8752.85
477.054	8802
477.259	8656.59
477.463	8613.59
477.668	8503
477.872	8525.52
478.077	8339.16
478.282	8048.35
478.486	8253.14
478.691	8333.01
478.895	7950.04
479.1	7956.19
479.304	7978.72
479.509	7737.06
479.713	8056.54
479.918	7530.21
480.122	7681.76
480.326	7708.38
480.531	7851.74
480.735	7620.32
480.94	7593.7
481.144	8038.11
481.348	7421.67
481.553	7519.97
481.757	7370.47
481.961	7618.27
482.166	7587.55
482.37	7427.81
482.574	7388.9
482.778	7372.52
482.983	7540.45
483.187	7509.73
483.391	7538.4
483.595	7415.52
483.8	7259.88
484.004	7493.35
484.208	7642.85
484.412	7280.36
484.616	7507.68
484.821	7544.55
485.025	7339.75
485.229	7360.23
485.433	7431.91
485.637	7499.49
485.841	7311.08
486.045	7390.95
486.249	7468.77
486.453	7235.3
486.657	7321.32
486.861	7378.66
487.065	7225.06
487.269	7515.87
487.473	7349.99
487.677	7444.2
487.881	7364.32
488.085	7388.9
488.289	7393
488.493	7409.38
488.697	7722.72
488.901	7388.9
489.105	7360.23
489.309	7393
489.512	7292.65
489.716	7640.8
489.92	7476.96
490.124	7593.7
490.328	7722.72
490.531	7648.99
490.735	7501.54
490.939	7653.09
491.143	7673.57
491.346	7667.42
491.55	7847.65
491.754	7728.86
491.958	7749.34
492.161	7818.97
492.365	7833.31
492.569	7757.53
492.772	7802.59
492.976	8023.77
493.18	7945.95
493.383	8136.41
493.587	8150.74
493.79	8042.2
493.994	8089.31
494.197	8120.03
494.401	8238.81
494.605	8386.26
494.808	8406.74
495.012	8441.56
495.215	8457.94
495.419	8658.64
495.622	8478.42
495.825	8703.7
496.029	8601.3
496.232	8736.46
496.436	8838.86
496.639	8959.69
496.843	9094.86
497.046	9160.39
497.249	9119.43
497.453	9346.76
497.656	9340.61
497.859	9453.25
498.063	9615.04
498.266	9873.09
498.469	9662.15
498.673	9920.19
498.876	9881.28
499.079	10026.68
499.282	10219.19
499.485	10376.89
499.689	10299.06
499.892	10550.96
500.095	10303.16
500.298	10747.57
500.501	10714.8
500.705	10978.99
500.908	11095.72
501.111	11110.06
501.314	11243.18
501.517	11669.16
501.72	11759.27
501.923	11380.39
502.126	11435.69
502.329	11957.92
502.532	11992.73
502.735	12170.91
502.938	12539.54
503.141	12627.6
503.344	12488.34
503.547	12711.57
503.75	12910.22
503.953	13084.3
504.156	13301.39
504.359	13371.02
504.562	13201.04
504.765	13778.56
504.968	13952.64
505.17	13932.16
505.373	13950.59
505.576	14200.44
505.779	14284.41
505.982	14540.41
506.185	14831.22
506.387	14759.54
506.59	14964.34
506.793	15255.15
506.996	15201.9
507.198	15650.41
507.401	15474.28
507.604	16037.47
507.807	16336.48
508.009	16328.28
508.212	16303.71
508.415	16420.44
508.617	16821.84
508.82	16895.57
509.022	16658.01
509.225	17491.53
509.428	17514.06
509.63	17731.14
509.833	17776.2
510.035	18304.57
510.238	17978.95
510.44	18198.08
510.643	18671.16
510.845	18873.91
511.048	18658.87
511.25	19123.76
511.453	19269.17
511.655	19746.34
511.858	19631.66
512.06	19947.04
512.262	20055.59
512.465	20182.56
512.667	20901.4
512.87	20561.44
513.072	20493.85
513.274	21349.9
513.477	21298.7
513.679	21624.33
513.881	22058.5
514.084	22392.32
514.286	22050.31
514.488	22187.52
514.69	22957.56
514.893	23203.32
515.095	23201.27
515.297	23780.84
515.499	23707.12
515.701	23727.6
515.904	24180.2
516.106	24382.95
516.308	24653.28
516.51	24851.93
516.712	24765.92
516.914	25363.92
517.116	25349.59
517.318	25857.48
517.52	25945.55
517.722	25963.98
517.925	26449.35
518.127	26469.83
518.329	27098.55
518.531	27055.54
518.733	27534.77
518.935	27968.94
519.136	27887.02
519.338	28499.36
519.54	28337.57
519.742	28790.17
519.944	28890.52
520.146	29543.83
520.348	29754.77
520.55	29867.41
520.752	29871.5
520.954	30651.78
521.155	30406.02
521.357	30889.34
521.559	30911.87
521.761	31430.01
521.963	31448.44
522.164	31739.25
522.366	31872.37
522.568	32200.04
522.77	32353.64
522.971	33049.95
523.173	32611.68
523.375	33121.63
523.576	33090.91
523.778	33176.92
523.98	33568.09
524.181	34110.8
524.383	33996.11
524.584	34577.73
524.786	34884.93
524.988	34524.49
525.189	34764.1
525.391	35097.92
525.592	34809.15
525.794	35544.37
525.995	35575.09
526.197	35687.73
526.398	36033.84
526.6	35943.73
526.801	36226.35
527.003	36717.86
527.204	36420.91
527.406	36609.32
527.607	37266.72
527.808	37158.17
528.01	36437.29
528.211	36973.86
528.412	37815.57
528.614	37877.01
528.815	37811.48
529.016	38139.15
529.218	37846.29
529.419	38200.59
529.62	38046.99
529.822	38485.26
530.023	38221.07
530.224	38173.97
530.425	38847.75
530.626	38401.29
530.828	38221.07
531.029	39222.53
531.23	38542.6
531.431	39030.02
531.632	38573.32
531.833	39281.92
532.035	38993.15
532.236	38931.72
532.437	39132.42
532.638	39324.93
532.839	39292.16
533.04	39558.39
533.241	38997.25
533.442	39836.92
533.643	39406.84
533.844	39462.14
534.045	39212.29
534.246	39421.18
534.447	39763.19
534.648	39447.8
534.849	40049.91
535.05	39310.59
535.251	39834.87
535.451	39808.25
535.652	39755
535.853	39726.33
536.054	39900.4
536.255	39963.89
536.456	39656.7
536.657	40740.07
536.857	39654.65
537.058	39570.68
537.259	40238.32
537.46	40002.8
537.66	39724.28
537.861	39787.77
538.062	39992.56
538.263	40078.58
538.463	39879.92
538.664	40041.71
538.865	40193.26
539.065	40160.5
539.266	39453.95
539.466	40252.66
539.667	39638.26
539.868	40099.06
540.068	40088.82
540.269	39918.84
540.469	40250.61
540.67	39632.12
540.87	39644.41
541.071	39695.61
541.271	40002.8
541.472	39941.36
541.672	39765.24
541.873	39781.62
542.073	39355.64
542.274	40033.52
542.474	39873.78
542.675	39687.42
542.875	40058.1
543.075	39427.32
543.276	39425.28
543.476	39898.36
543.676	39404.8
543.877	39812.34
544.077	39640.31
544.277	39480.57
544.478	39900.4
544.678	40135.92
544.878	39714.04
545.078	39793.91
545.279	39582.97
545.479	39408.89
545.679	39861.49
545.879	39376.12
546.079	39675.13
546.28	39513.34
546.48	39460.09
546.68	39333.12
546.88	39632.12
547.08	39539.96
547.28	39392.51
547.48	39513.34
547.68	39492.86
547.88	39398.65
548.081	39744.76
548.281	39281.92
548.481	39341.31
548.681	39744.76
548.881	39263.49
549.081	39478.52
549.28	39509.24
549.48	39558.39
549.68	39705.85
549.88	40010.99
550.08	38972.67
550.28	39574.78
550.48	39245.05
550.68	40158.45
550.88	39238.91
551.08	39083.26
551.279	39716.09
551.479	39288.06
551.679	39412.99
551.879	39341.31
552.079	39288.06
552.278	39294.21
552.478	39099.65
552.678	39261.44
552.878	39230.72
553.077	39179.52
553.277	39310.59
553.477	39163.14
553.676	39267.58
553.876	39195.9
554.076	39216.38
554.275	38999.3
554.475	38710.53
554.674	39189.76
554.874	39050.5
555.074	38880.52
555.273	39030.02
555.473	39365.88
555.672	38774.02
555.872	38808.84
556.071	39030.02
556.271	38898.95
556.47	38724.87
556.67	38018.32
556.869	38726.92
557.068	38522.12
557.268	38552.84
557.467	38442.25
557.667	38192.4
557.866	38341.9
558.065	38307.08
558.265	38116.62
558.464	38155.54
558.663	38513.93
558.863	38071.57
559.062	38614.28
559.261	38018.32
559.461	38231.31
559.66	37455.13
559.859	37969.17
560.058	37676.31
560.258	37659.93
560.457	37479.71
560.656	37815.57
560.855	37432.6
561.054	37592.34
561.253	37389.59
561.453	37393.69
561.652	37616.92
561.851	37268.76
562.05	37127.45
562.249	36857.12
562.448	37242.14
562.647	37182.75
562.846	36734.24
563.045	37002.53
563.244	36492.58
563.443	36951.33
563.642	36197.68
563.841	36177.2
564.04	36556.07
564.239	36521.26
564.438	36160.81
564.637	36166.96
564.836	36369.71
565.035	35929.39
565.234	35990.83
565.432	35814.71
565.631	35771.7
565.83	35403.07
566.029	35427.64
566.228	35384.63
566.427	35149.12
566.625	35188.03
566.824	34788.67
567.023	35298.62
567.222	34508.1
567.42	35118.4
567.619	34911.55
567.818	34704.71
568.016	34471.24
568.215	34932.03
568.414	34467.14
568.612	34458.95
568.811	34415.94
569.01	34295.11
569.208	33930.58
569.407	33946.96
569.605	33664.34
569.804	33883.47
570.002	33533.27
570.201	33842.51
570.4	33066.33
570.598	33344.86
570.797	32898.4
570.995	33033.57
571.193	32632.16
571.392	33326.42
571.59	32552.29
571.789	32935.26
571.987	32834.91
572.186	32820.58
572.384	32484.71
572.582	32570.72
572.781	32386.41
572.979	31786.35
573.177	32359.78
573.376	32359.78
573.574	31692.15
573.772	32114.03
573.971	31540.6
574.169	31483.25
574.367	31448.44
574.565	31688.05
574.763	31255.93
574.962	31231.35
575.16	30774.66
575.358	31157.63
575.556	30973.31
575.754	31278.46
575.952	30430.6
576.151	30942.59
576.349	30479.75
576.547	30436.74
576.745	30297.48
576.943	30586.24
577.141	30498.18
577.339	30414.21
577.537	29633.94
577.735	30043.53
577.933	29949.32
578.131	29902.22
578.329	29582.74
578.527	29674.9
578.725	29128.09
578.923	29586.83
579.121	29418.9
579.319	29336.98
579.516	29085.08
579.714	29517.2
579.912	29025.69
580.11	28751.26
580.308	28853.66
580.506	28546.47
580.704	28902.81
580.901	28872.09
581.099	29033.88
581.297	28126.63
581.495	28442.02
581.692	28413.35
581.89	28308.9
582.088	28247.46
582.285	28106.15
582.483	27962.79
582.681	28005.8
582.878	27563.44
583.076	27493.81
583.274	27909.55
583.471	27764.14
583.669	27768.24
583.866	27239.86
584.064	27751.85
584.262	27067.83
584.459	27360.69
584.657	27119.03
584.854	27119.03
585.052	26654.14
585.249	26707.39
585.447	27071.93
585.644	26654.14
585.841	26420.67
586.039	26697.15
586.236	26181.06
586.434	26459.59
586.631	25968.07
586.828	26529.22
587.026	26404.29
587.223	26011.08
587.42	26121.67
587.618	25990.6
587.815	25529.81
588.012	25601.49
588.21	25656.78
588.407	25978.31
588.604	25716.17
588.801	25505.23
588.999	25286.1
589.196	25517.52
589.393	25247.19
589.59	25081.3
589.787	25017.82
589.984	24935.9
590.182	25021.91
590.379	25073.11
590.576	25030.1
590.773	24839.64
590.97	24528.35
591.167	24901.08
591.364	24290.79
591.561	24497.63
591.758	24155.62
591.955	23936.49
592.152	24237.54
592.349	23934.44
592.546	24409.57
592.743	24274.4
592.94	23635.44
593.137	23731.69
593.334	24057.32
593.531	23391.73
593.727	23862.76
593.924	23748.07
594.121	23477.74
594.318	23565.81
594.515	23344.63
594.712	23432.69
594.908	23098.87
595.105	23459.31
595.302	23113.2
595.499	23117.3
595.696	23010.81
595.892	22576.64
596.089	22767.1
596.286	22474.24
596.482	22672.89
596.679	22484.48
596.876	22406.66
597.072	22490.62
597.269	22586.88
597.466	22208
597.662	22248.96
597.859	22244.87
598.055	22246.91
598.252	21960.2
598.448	22076.93
598.645	21855.75
598.841	21704.2
599.038	22048.26
599.234	21872.14
599.431	21624.33
599.627	21460.49
599.824	21943.81
600.02	21517.84
600.217	21528.08
600.413	21345.81
600.609	20946.45
600.806	21255.7
601.002	21331.47
601.198	21310.99
601.395	20975.13
601.591	21075.48
601.787	21161.49
601.984	20889.11
602.18	20837.91
602.376	20534.81
602.572	20913.69
602.769	20270.62
602.965	20430.37
603.161	20510.24
603.357	20563.48
603.553	20360.73
603.75	20432.41
603.946	20133.41
604.142	20377.12
604.338	19969.57
604.534	20141.6
604.73	19942.95
604.926	19811.88
605.122	19867.17
605.318	19908.13
605.514	19828.26
605.71	19557.93
605.906	19566.12
606.102	19615.27
606.298	19781.16
606.494	19668.52
606.69	19371.57
606.886	19338.8
607.082	19336.75
607.278	19777.06
607.474	18849.33
607.67	19000.88
607.866	18929.2
608.062	19228.21
608.257	19082.8
608.453	19068.47
608.649	19093.04
608.845	18583.1
609.041	18593.34
609.236	18716.22
609.432	18689.59
609.628	18624.06
609.824	18779.7
610.019	18411.07
610.215	18409.02
610.411	18605.63
610.606	18263.61
610.802	18394.68
610.998	18400.83
611.193	18388.54
611.389	18302.53
611.584	18308.67
611.78	18044.48
611.976	18347.58
612.171	18273.85
612.367	18040.39
612.562	18024
612.758	17747.53
612.953	17581.64
613.149	18128.45
613.344	17471.05
613.539	18079.3
613.735	17645.13
613.93	17843.78
614.126	17528.39
614.321	17712.71
614.517	17661.51
614.712	17784.39
614.907	17581.64
615.103	17460.81
615.298	17397.32
615.493	17485.39
615.688	17004.11
615.884	17688.14
616.079	17120.85
616.274	17622.6
616.47	17149.52
616.665	17094.22
616.86	17231.44
617.055	17321.55
617.25	16979.54
617.445	17229.39
617.641	16680.53
617.836	17108.56
618.031	16768.6
618.226	17067.6
618.421	16924.24
618.616	16807.51
618.811	16463.45
619.006	16641.62
619.201	16635.48
619.396	16569.94
619.591	16244.32
619.786	16643.67
619.981	16195.17
620.176	16397.92
620.371	16246.37
620.566	16328.28
620.761	15967.84
620.956	15988.32
621.151	15691.37
621.346	16209.5
621.541	15588.97
621.735	15849.06
621.93	15511.14
622.125	15449.71
622.32	15457.9
622.515	15439.47
622.709	15242.86
622.904	15089.26
623.099	15304.3
623.294	15386.22
623.488	15279.72
623.683	15146.61
623.878	14605.94
624.072	14730.87
624.267	14874.23
624.462	14341.75
624.656	14651
624.851	14233.21
625.046	14130.81
625.24	14241.4
625.435	14122.62
625.629	14065.28
625.824	14120.57
626.018	14190.2
626.213	13874.82
626.407	13870.72
626.602	13622.92
626.796	13854.34
626.991	13770.37
627.185	13573.77
627.38	13616.77
627.574	13620.87
627.768	13549.19
627.963	13334.15
628.157	13233.8
628.352	13239.95
628.546	12953.23
628.74	13194.89
628.935	12877.46
629.129	13088.4
629.323	12775.06
629.517	12996.24
629.712	12748.43
629.906	12676.76
630.1	12553.88
630.294	12646.04
630.489	12344.98
630.683	12400.28
630.877	12193.44
631.071	12250.78
631.265	12353.18
631.459	12021.41
631.653	12031.65
631.848	11974.3
632.042	11849.38
632.236	11759.27
632.43	11736.74
632.624	11814.56
632.818	11759.27
633.012	11622.05
633.206	11595.43
633.4	11531.94
633.594	11124.4
633.788	11439.78
633.982	11452.07
634.176	11314.86
634.369	11079.34
634.563	11034.28
634.757	11005.61
634.951	10870.45
635.145	10909.36
635.339	10940.08
635.533	10845.87
635.726	10856.11
635.92	10641.07
636.114	10774.19
636.308	10421.94
636.501	10501.81
636.695	10686.13
636.889	10372.79
637.083	10368.7
637.276	10235.58
637.47	10286.78
637.664	9838.27
637.857	10075.84
638.051	10241.72
638.244	9989.82
638.438	9883.33
638.632	9948.86
638.825	9780.93
639.019	9991.87
639.212	9766.59
639.406	9774.78
639.599	9567.94
639.793	9754.3
639.986	9717.44
640.18	9596.61
640.373	9416.39
640.567	9254.6
640.76	9287.37
640.954	9121.48
641.147	9176.78
641.34	9150.15
641.534	9164.49
641.727	9193.16
641.92	9113.29
642.114	8789.71
642.307	8957.64
642.5	8869.58
642.694	8650.45
642.887	8648.4
643.08	8842.96
643.273	8648.4
643.467	8689.36
643.66	8634.07
643.853	8406.74
644.046	8447.7
644.239	8445.65
644.432	8447.7
644.626	8238.81
644.819	8312.53
645.012	8343.25
645.205	8339.16
645.398	8228.57
645.591	8132.31
645.784	8206.04
645.977	7964.38
646.17	8126.17
646.363	8077.02
646.556	7859.93
646.749	7778.01
646.942	7798.49
647.135	7866.08
647.328	7601.89
647.521	7642.85
647.714	7687.9
647.907	7579.36
648.099	7552.74
648.292	7585.51
648.485	7526.11
648.678	7466.72
648.871	7509.73
649.064	7380.71
649.256	7366.37
649.449	7282.41
649.642	7323.37
649.835	7309.03
650.027	7075.56
650.22	7116.52
650.413	7159.53
650.605	7177.96
650.798	7229.16
650.991	7055.08
651.183	7124.71
651.376	6909.68
651.568	7098.09
651.761	6665.97
651.954	6745.84
652.146	6909.68
652.339	6842.09
652.531	6774.51
652.724	6788.85
652.916	6534.9
653.109	6538.99
653.301	6534.9
653.494	6725.36
653.686	6577.9
653.879	6651.63
654.071	6440.69
654.263	6506.23
654.456	6364.92
654.648	6338.29
654.84	6280.95
655.033	6164.22
655.225	6246.13
655.417	6170.36
655.61	6242.04
655.802	6078.2
655.994	5918.46
656.186	6323.96
656.379	6319.86
656.571	6084.34
656.763	5963.51
656.955	5873.4
657.148	5947.13
657.34	5959.42
657.532	5895.93
657.724	5963.51
657.916	5732.09
658.108	6047.48
658.3	5846.78
658.492	5705.47
658.684	5590.78
658.876	5695.23
659.068	5695.23
659.26	5533.44
659.452	5529.34
659.644	5580.54
659.836	5598.98
660.028	5482.24
660.22	5396.23
660.412	5299.97
660.604	5392.13
660.796	5545.73
660.988	5486.34
661.18	5168.9
661.372	5224.2
661.563	5267.2
661.755	5326.6
661.947	5134.09
662.139	5306.12
662.331	5224.2
662.522	5244.68
662.714	5084.94
662.906	5166.85
663.097	5199.62
663.289	5060.36
663.481	4826.89
663.673	5197.57
663.864	5007.11
664.056	5039.88
664.247	5170.95
664.439	5025.54
664.631	5046.02
664.822	4873.99
665.014	4878.09
665.205	5013.26
665.397	4734.73
665.588	4853.52
665.78	4757.26
665.971	4833.04
666.163	4777.74
666.354	4761.36
666.546	4720.4
666.737	4572.94
666.929	4687.63
667.12	4611.85
667.311	4718.35
667.503	4716.3
667.694	4634.38
667.885	4661.01
668.077	4613.9
668.268	4554.51
668.459	4536.08
668.651	4577.04
668.842	4462.35
669.033	4531.98
669.224	4413.2
669.416	4622.09
669.607	4368.15
669.798	4472.59
669.989	4456.21
670.18	4402.96
670.371	4456.21
670.563	4284.18
670.754	4396.82
670.945	4368.15
671.136	4251.41
671.327	4372.24
671.518	4452.11
671.709	4347.67
671.9	4298.52
672.091	4294.42
672.282	4189.97
672.473	4316.95
672.664	4247.32
672.855	4296.47
673.046	4349.71
673.237	4314.9
673.428	4271.89
673.619	4171.54
673.809	4153.11
674	4263.7
674.191	4106.01
674.382	4194.07
674.573	4050.71
674.764	4124.44
674.954	4106.01
675.145	4220.69
675.336	4075.29
675.527	4165.4
675.717	4083.48
675.908	4040.47
676.099	4071.19
676.289	4075.29
676.48	4171.54
676.671	4155.16
676.861	4106.01
677.052	3929.88
677.243	4071.19
677.433	4069.14
677.624	4271.89
677.814	4075.29
678.005	4151.06
678.195	4063
678.386	4036.38
678.576	4083.48
678.767	3944.22
678.957	4079.38
679.148	4075.29
679.338	3956.5
679.529	3860.25
679.719	4067.1
679.909	4085.53
680.1	4073.24
680.29	4017.94
680.481	3970.84
680.671	4091.67
680.861	3913.5
681.052	3915.55
681.242	3823.39
681.432	3933.98
681.622	3991.32
681.813	3884.83
682.003	3907.35
682.193	3870.49
682.383	3948.31
682.573	3882.78
682.764	3931.93
682.954	3981.08
683.144	3929.88
683.334	3815.2
683.524	3940.12
683.714	3989.27
683.904	3852.06
684.094	3948.31
684.284	3962.65
684.474	3938.07
684.664	3872.54
684.854	3893.02
685.044	3819.29
685.234	3817.24
685.424	3845.91
685.614	3716.89
685.804	3839.77
685.994	3856.15
686.184	3862.3
686.374	3790.62
686.564	3768.09
686.753	3714.84
686.943	3809.05
687.133	3718.94
687.323	3733.28
687.513	3761.95
687.702	3745.56
687.892	3731.23
688.082	3632.93
688.272	3833.63
688.461	3714.84
688.651	3538.72
688.841	3677.98
689.03	3596.06
689.22	3667.74
689.41	3544.86
689.599	3440.42
689.789	3471.14
689.979	3553.06
690.168	3518.24
690.358	3389.22
690.547	3565.34
690.737	3522.34
690.926	3473.18
691.116	3346.21
691.305	3421.99
691.495	3483.42
691.684	3475.23
691.874	3446.56
692.063	3350.31
692.252	3350.31
692.442	3315.49
692.631	3260.2
692.82	3211.04
693.01	3395.36
693.199	3245.86
693.388	3292.96
693.578	3288.87
693.767	3231.52
693.956	3237.67
694.146	3106.6
694.335	3243.81
694.524	3141.41
694.713	3237.67
694.902	3168.04
695.092	3010.34
695.281	3170.08
695.47	3215.14
695.659	3069.73
695.848	3151.65
696.037	3129.13
696.226	3190.56
696.415	3125.03
696.604	3092.26
696.793	3088.17
696.982	3053.35
697.171	3122.98
697.36	3063.59
697.549	3061.54
697.738	2971.43
697.927	3073.83
698.116	3145.51
698.305	3104.55
698.494	3147.56
698.683	3028.78
698.872	3000.1
699.061	2965.29
699.25	2985.77
699.438	3049.25
699.627	3030.82
699.816	3094.31
700.005	3106.6
700.193	2961.19
700.382	3102.5
700.571	2840.36
700.76	3004.2
700.948	2977.58
701.137	3090.21
701.326	3055.4
701.514	2965.29
701.703	3112.74
701.892	2967.34
702.08	3118.89
702.269	3098.41
702.457	3067.69
702.646	3012.39
702.834	3051.3
703.023	2940.71
703.212	3090.21
703.4	3012.39
703.589	2938.66
703.777	3022.63
703.965	2975.53
704.154	3102.5
704.342	2959.14
704.531	3039.01
704.719	3086.12
704.907	3194.66
705.096	3137.32
705.284	2838.31
705.472	3077.93
705.661	3110.69
705.849	3100.45
706.037	3041.06
706.226	3020.58
706.414	3024.68
706.602	3122.98
706.79	2963.24
706.979	2991.91
707.167	2979.62
707.355	3036.97
707.543	2926.38
707.731	2993.96
707.919	3114.79
708.107	3030.82
708.296	3147.56
708.484	2944.81
708.672	3114.79
708.86	3073.83
709.048	3016.49
709.236	3057.45
709.424	3198.76
709.612	3135.27
709.8	2912.04
709.988	3041.06
710.176	3055.4
710.364	3155.75
710.551	3077.93
710.739	3112.74
710.927	3063.59
711.115	2983.72
711.303	3159.85
711.491	3131.17
711.679	2983.72
711.866	3008.3
712.054	3098.41
712.242	3143.46
712.43	3065.64
712.617	3196.71
712.805	3155.75
712.993	3131.17
713.181	3190.56
713.368	3223.33
713.556	3168.04
713.744	2985.77
713.931	3190.56
714.119	3049.25
714.306	2971.43
714.494	3077.93
714.682	3032.87
714.869	3209
715.057	3079.97
715.244	3188.52
715.432	3151.65
715.619	3161.89
715.807	3202.85
715.994	3143.46
716.182	3163.94
716.369	3094.31
716.556	3112.74
716.744	3170.08
716.931	3053.35
717.119	3174.18
717.306	3198.76
717.493	3174.18
717.681	3149.61
717.868	3213.09
718.055	3100.45
718.242	3219.24
718.43	3270.44
718.617	3151.65
718.804	3163.94
718.991	3243.81
719.179	3231.52
719.366	3249.96
719.553	3395.36
719.74	3235.62
719.927	3358.5
720.114	3219.24
720.301	3268.39
720.488	3209
720.676	3254.05
720.863	3227.43
721.05	3270.44
721.237	3340.07
721.424	3323.68
721.611	3385.12
721.798	3323.68
721.985	3317.54
722.172	3172.13
722.358	3258.15
722.545	3272.48
722.732	3282.72
722.919	3333.92
723.106	3256.1
723.293	3311.39
723.48	3368.74
723.667	3249.96
723.853	3317.54
724.04	3401.51
724.227	3383.07
724.414	3307.3
724.6	3200.8
724.787	3342.11
724.974	3376.93
725.161	3432.22
725.347	3278.63
725.534	3448.61
725.72	3321.63
725.907	3381.03
726.094	3309.35
726.28	3417.89
726.467	3483.42
726.653	3209
726.84	3381.03
727.027	3436.32
727.213	3327.78
727.4	3485.47
727.586	3342.11
727.773	3315.49
727.959	3381.03
728.145	3485.47
728.332	3348.26
728.518	3516.19
728.705	3344.16
728.891	3440.42
729.077	3442.46
729.264	3368.74
729.45	3411.75
729.636	3493.66
729.823	3192.61
730.009	3469.09
730.195	3452.7
730.382	3389.22
730.568	3444.51
730.754	3338.02
730.94	3444.51
731.126	3485.47
731.313	3393.31
731.499	3569.44
731.685	3530.53
731.871	3518.24
732.057	3370.79
732.243	3456.8
732.429	3508
732.615	3479.33
732.801	3409.7
732.987	3475.23
733.173	3579.68
733.359	3397.41
733.545	3544.86
733.731	3561.25
733.917	3555.1
734.103	3575.58
734.289	3442.46
734.475	3540.77
734.661	3491.62
734.847	3489.57
735.033	3415.84
735.219	3620.64
735.404	3602.21
735.59	3489.57
735.776	3323.68
735.962	3544.86
736.148	3481.38
736.333	3477.28
736.519	3469.09
736.705	3579.68
736.89	3516.19
737.076	3528.48
737.262	3485.47
737.447	3559.2
737.633	3536.67
737.819	3446.56
738.004	3430.18
738.19	3493.66
738.375	3393.31
738.561	3651.36
738.747	3526.43
738.932	3462.94
739.118	3389.22
739.303	3393.31
739.489	3483.42
739.674	3473.18
739.859	3462.94
740.045	3505.95
740.23	3364.64
740.416	3274.53
740.601	3397.41
740.786	3471.14
740.972	3338.02
741.157	3516.19
741.342	3356.45
741.528	3460.9
741.713	3419.94
741.898	3417.89
742.084	3286.82
742.269	3307.3
742.454	3460.9
742.639	3233.57
742.824	3366.69
743.01	3340.07
743.195	3325.73
743.38	3245.86
743.565	3313.44
743.75	3286.82
743.935	3280.68
744.12	3303.2
744.305	3172.13
744.49	3211.04
744.675	3245.86
744.86	3192.61
745.045	3247.91
745.23	3168.04
745.415	3215.14
745.6	3104.55
745.785	3184.42
745.97	3088.17
746.155	3094.31
746.34	3163.94
746.525	3071.78
746.71	3055.4
746.895	2981.67
747.079	2996.01
747.264	3034.92
747.449	3065.64
747.634	2948.9
747.819	3034.92
748.003	2873.13
748.188	2936.62
748.373	2891.56
748.557	2899.75
748.742	2963.24
748.927	2903.85
749.111	2862.89
749.296	2889.51
749.481	2844.46
749.665	2844.46
749.85	2826.03
750.034	2762.54
750.219	2737.96
750.404	2692.91
750.588	2799.4
750.773	2721.58
750.957	2799.4
751.141	2676.52
751.326	2578.22
751.51	2627.37
751.695	2641.71
751.879	2711.34
752.064	2699.05
752.248	2582.32
752.432	2496.3
752.617	2598.7
752.801	2455.34
752.985	2510.64
753.17	2588.46
753.354	2504.5
753.538	2391.86
753.722	2445.1
753.907	2350.9
754.091	2465.58
754.275	2449.2
754.459	2314.03
754.643	2314.03
754.828	2344.75
755.012	2438.96
755.196	2377.52
755.38	2266.93
755.564	2207.54
755.748	2297.65
755.932	2350.9
756.116	2244.4
756.3	2250.55
756.484	2150.2
756.668	2225.97
756.852	2203.44
757.036	2225.97
757.22	2197.3
757.404	2096.95
757.588	2066.23
757.772	1988.41
757.956	2096.95
758.14	2076.47
758.323	2064.18
758.507	2010.93
758.691	2023.22
758.875	2015.03
759.059	2055.99
759.242	2025.27
759.426	1929.02
759.61	2125.62
759.794	1900.34
759.977	1937.21
760.161	2012.98
760.345	2021.17
760.528	1896.25
760.712	1810.23
760.895	1906.49
761.079	1752.89
761.263	1787.71
761.446	1814.33
761.63	1857.34
761.813	1957.69
761.997	1963.83
762.18	1838.91
762.364	1828.67
762.547	1836.86
762.731	1736.51
762.914	1720.12
763.098	1826.62
763.281	1775.42
763.464	1769.27
763.648	1722.17
763.831	1756.99
764.015	1734.46
764.198	1769.27
764.381	1732.41
764.564	1711.93
764.748	1589.05
764.931	1691.45
765.114	1640.25
765.297	1697.6
765.481	1617.72
765.664	1544
765.847	1761.08
766.03	1673.02
766.213	1599.29
766.397	1595.2
766.58	1607.48
766.763	1662.78
766.946	1634.11
767.129	1500.99
767.312	1498.94
767.495	1666.88
767.678	1541.95
767.861	1587.01
768.044	1611.58
768.227	1503.04
768.41	1457.98
768.593	1570.62
768.776	1562.43
768.959	1529.66
769.142	1558.33
769.324	1449.79
769.507	1468.22
769.69	1474.37
769.873	1419.07
770.056	1466.17
770.239	1449.79
770.421	1494.85
770.604	1476.41
770.787	1466.17
770.97	1410.88
771.152	1419.07
771.335	1384.26
771.518	1197.89
771.7	1437.5
771.883	1482.56
772.066	1404.74
772.248	1417.02
772.431	1322.82
772.613	1435.46
772.796	1374.02
772.978	1306.43
773.161	1380.16
773.343	1308.48
773.526	1191.75
773.708	1304.39
773.891	1294.15
774.073	1220.42
774.256	1349.44
774.438	1306.43
774.621	1367.87
774.803	1269.57
774.985	1138.5
775.168	1183.56
775.35	1195.84
775.532	1269.57
775.715	1212.23
775.897	1216.32
776.079	1236.8
776.261	1103.68
776.444	1189.7
776.626	1177.41
776.808	1009.48
776.99	1113.92
777.173	1124.16
777.355	1113.92
777.537	1171.27
777.719	1060.68
777.901	1136.45
778.083	1148.74
778.265	1093.44
778.447	1136.45
778.629	1017.67
778.811	1101.64
778.993	1048.39
779.175	1124.16
779.357	986.95
779.539	1132.36
779.721	1056.58
779.903	1077.06
780.085	952.13
780.267	923.46
780.449	950.09
780.631	945.99
780.812	915.27
780.994	929.61
781.176	909.13
781.358	984.9
781.54	925.51
781.721	909.13
781.903	833.35
782.085	989
782.267	814.92
782.448	880.46
782.63	845.64
782.812	821.06
782.993	931.66
783.175	907.08
783.357	837.45
783.538	827.21
783.72	907.08
783.901	790.35
784.083	825.16
784.264	757.58
784.446	689.99
784.627	726.86
784.809	776.01
784.99	792.39
785.172	847.69
785.353	710.47
785.535	651.08
785.716	704.33
785.897	702.28
786.079	694.09
786.26	745.29
786.441	743.24
786.623	696.14
786.804	659.28
786.985	712.52
787.167	735.05
787.348	769.87
787.529	728.91
787.71	677.71
787.891	735.05
788.073	651.08
788.254	696.14
788.435	683.85
788.616	669.52
788.797	630.6
788.978	595.79
789.159	632.65
789.34	710.47
789.522	634.7
789.703	585.55
789.884	649.04
790.065	608.08
790.246	679.75
790.427	567.12
790.607	591.69
790.788	601.93
790.969	610.12
791.15	601.93
791.331	593.74
791.512	577.36
791.693	575.31
791.874	538.45
792.054	634.7
792.235	622.41
792.416	456.53
792.597	552.78
792.778	634.7
792.958	591.69
793.139	546.64
793.32	577.36
793.5	444.24
793.681	614.22
793.862	546.64
794.042	591.69
794.223	505.68
794.404	503.63
794.584	378.7
794.765	538.45
794.945	497.49
795.126	487.25
795.306	491.34
795.487	532.3
795.667	522.06
795.848	544.59
796.028	517.97
796.209	438.09
796.389	423.76
796.57	509.77
796.75	517.97
796.93	497.49
797.111	423.76
797.291	421.71
797.471	411.47
797.652	419.66
797.832	438.09
798.012	438.09
798.192	481.1
798.373	401.23
798.553	390.99
798.733	495.44
798.913	378.7
799.093	347.98
799.274	307.02
799.454	395.09
799.634	485.2
799.814	417.61
799.994	446.29
800.174	466.77
800.354	358.22
800.534	333.65
800.714	427.85
800.894	374.61
801.074	360.27
801.254	364.37
801.434	399.18
801.614	452.43
801.794	368.46
801.974	1158.98
802.154	378.7
802.334	423.76
802.514	313.17
802.693	399.18
802.873	399.18
803.053	395.09
803.233	378.7
803.413	354.13
803.592	278.35
803.772	333.65
803.952	345.94
804.131	286.54
804.311	354.13
804.491	319.31
804.67	317.26
804.85	288.59
805.03	266.07
805.209	225.11
805.389	268.11
805.568	278.35
805.748	274.26
805.928	249.68
806.107	347.98
806.287	380.75
806.466	229.2
806.646	315.22
806.825	350.03
807.004	302.93
807.184	395.09
807.363	302.93
807.543	272.21
807.722	321.36
807.901	374.61
808.081	356.18
808.26	268.11
808.439	280.4
808.619	255.83
808.798	358.22
808.977	341.84
809.156	372.56
809.336	319.31
809.515	368.46
809.694	251.73
809.873	255.83
810.052	393.04
810.231	323.41
810.411	345.94
810.59	276.31
810.769	270.16
810.948	401.23
811.127	292.69
811.306	327.5
811.485	286.54
811.664	307.02
811.843	255.83
812.022	259.92
812.201	257.87
812.38	298.83
812.559	235.35
812.737	288.59
812.916	180.05
813.095	165.71
813.274	253.78
813.453	235.35
813.632	231.25
813.811	284.5
813.989	245.59
814.168	304.98
814.347	178
814.526	257.87
814.704	317.26
814.883	266.07
815.062	249.68
815.24	307.02
815.419	204.63
815.598	247.63
815.776	159.57
815.955	286.54
816.133	98.13
816.312	270.16
816.49	175.95
816.669	202.58
816.847	286.54
817.026	255.83
817.204	171.86
817.383	208.72
817.561	231.25
817.74	196.43
817.918	188.24
818.097	261.97
818.275	161.62
818.453	206.67
818.632	274.26
818.81	296.78
818.988	112.47
819.167	173.91
819.345	317.26
819.523	282.45
819.701	241.49
819.879	241.49
820.058	194.39
820.236	214.87
820.414	223.06
820.592	218.96
820.77	182.1
820.948	237.39
821.127	130.9
821.305	268.11
821.483	120.66
821.661	194.39
821.839	231.25
822.017	137.04
822.195	169.81
822.373	218.96
822.551	173.91
822.729	204.63
822.907	307.02
823.085	266.07
823.262	102.23
823.44	141.14
823.618	180.05
823.796	165.71
823.974	112.47
824.152	149.33
824.329	196.43
824.507	259.92
824.685	147.28
824.863	120.66
825.04	151.38
825.218	186.19
825.396	231.25
825.574	264.02
825.751	155.47
825.929	192.34
826.107	116.56
826.284	165.71
826.462	143.19
826.639	137.04
826.817	178
826.994	167.76
827.172	249.68
827.349	212.82
827.527	122.71
827.704	147.28
827.882	155.47
828.059	149.33
828.237	145.24
828.414	104.28
828.591	116.56
828.769	79.7
828.946	110.42
829.124	180.05
829.301	200.53
829.478	120.66
829.655	157.52
829.833	173.91
830.01	44.88
830.187	159.57
830.364	141.14
830.542	165.71
830.719	212.82
830.896	182.1
831.073	214.87
831.25	139.09
831.427	161.62
831.604	135
831.782	89.94
831.959	141.14
832.136	116.56
832.313	155.47
832.49	145.24
832.667	135
832.844	145.24
833.021	173.91
833.198	137.04
833.374	126.8
833.551	130.9
833.728	116.56
833.905	122.71
834.082	55.12
834.259	73.56
834.436	128.85
834.612	128.85
834.789	116.56
834.966	87.89
835.143	89.94
835.319	100.18
835.496	98.13
835.673	175.95
835.85	196.43
836.026	118.61
836.203	147.28
836.38	110.42
836.556	114.52
836.733	137.04
836.909	118.61
837.086	14.17
837.262	96.08
837.439	79.7
837.616	112.47
837.792	120.66
837.968	153.43
838.145	3.93
838.321	143.19
838.498	87.89
838.674	94.04
838.851	124.76
839.027	102.23
839.203	141.14
839.38	18.26
839.556	-2.22
839.732	94.04
839.909	98.13
840.085	-2.22
840.261	44.88
840.437	96.08
840.614	18.26
840.79	63.32
840.966	130.9
841.142	182.1
841.318	147.28
841.494	85.84
841.671	225.11
841.847	106.32
842.023	116.56
842.199	85.84
842.375	130.9
842.551	8.02
842.727	22.36
842.903	106.32
843.079	79.7
843.255	130.9
843.431	59.22
843.607	137.04
843.783	48.98
843.959	87.89
844.134	59.22
844.31	79.7
844.486	96.08
844.662	34.64
844.838	73.56
845.013	85.84
845.189	116.56
845.365	75.6
845.541	75.6
845.716	120.66
845.892	98.13
846.068	36.69
846.244	10.07
846.419	77.65
846.595	26.45
846.77	26.45
846.946	106.32
847.122	71.51
847.297	28.5
847.473	89.94
847.648	65.36
847.824	34.64
847.999	91.99
848.175	24.4
848.35	94.04
848.526	67.41
848.701	110.42
848.876	85.84
849.052	153.43
849.227	59.22
849.403	-4.27
849.578	34.64
849.753	61.27
849.929	3.93
850.104	69.46
850.279	67.41
850.454	79.7
850.63	132.95
850.805	65.36
850.98	128.85
851.155	1.88
851.33	12.12
851.505	75.6
851.681	110.42
851.856	-30.89
852.031	-8.36
852.206	75.6
852.381	51.03
852.556	61.27
852.731	110.42
852.906	55.12
853.081	75.6
853.256	128.85
853.431	3.93
853.606	128.85
853.781	20.31
853.956	-6.31
854.131	55.12
854.305	26.45
854.48	108.37
854.655	14.17
854.83	98.13
855.005	12.12
855.18	106.32
855.354	1.88
855.529	100.18
855.704	-8.36
855.879	106.32
856.053	61.27
856.228	98.13
856.403	59.22
856.577	53.08
856.752	18.26
856.926	114.52
857.101	53.08
857.276	12.12
857.45	26.45
857.625	114.52
857.799	42.84
857.974	5.97
858.148	36.69
858.323	104.28
858.497	24.4
858.672	14.17
858.846	46.93
859.02	102.23
859.195	20.31
859.369	48.98
859.543	59.22
859.718	38.74
859.892	69.46
860.066	81.75
860.241	8.02
860.415	51.03
860.589	46.93
860.763	8.02
860.938	8.02
861.112	71.51
861.286	38.74
861.46	-4.27
861.634	81.75
861.808	30.55
861.982	-14.51
862.157	26.45
862.331	63.32
862.505	8.02
862.679	-10.41
862.853	-28.84
863.027	100.18
863.201	112.47
863.375	-10.41
863.549	42.84
863.722	-10.41
863.896	63.32
864.07	28.5
864.244	-6.31
864.418	63.32
864.592	-26.79
864.766	112.47
864.939	85.84
865.113	16.21
865.287	48.98
865.461	51.03
865.634	-37.03
865.808	10.07
865.982	42.84
866.156	57.17
866.329	5.97
866.503	36.69
866.676	-18.6
866.85	46.93
867.024	26.45
867.197	34.64
867.371	102.23
867.544	18.26
867.718	-47.27
867.891	16.21
868.065	42.84
868.238	38.74
868.412	28.5
868.585	69.46
868.759	22.36
868.932	8.02
869.105	65.36
869.279	44.88
869.452	-20.65
869.625	12.12
869.799	71.51
869.972	-51.37
870.145	71.51
870.319	85.84
870.492	1.88
870.665	79.7
870.838	10.07
871.011	-22.7
871.185	5.97
871.358	-22.7
871.531	40.79
871.704	57.17
871.877	-12.46
872.05	-8.36
872.223	-22.7
872.396	48.98
872.569	36.69
872.742	-26.79
872.915	24.4
873.088	5.97
873.261	-18.6
873.434	16.21
873.607	63.32
873.78	65.36
873.953	57.17
874.126	36.69
874.299	108.37
874.471	-14.51
874.644	42.84
874.817	77.65
874.99	38.74
875.163	18.26
875.335	55.12
875.508	-80.04
875.681	57.17
875.853	3.93
876.026	38.74
876.199	20.31
876.371	132.95
876.544	61.27
876.717	5.97
876.889	5.97
877.062	81.75
877.234	-6.31
877.407	-77.99
877.579	48.98
877.752	-2.22
877.924	-55.47
878.097	51.03
878.269	36.69
878.442	53.08
878.614	40.79
878.786	67.41
878.959	28.5
879.131	36.69
879.303	-8.36
879.476	69.46
879.648	28.5
879.82	12.12
879.993	-47.27
880.165	40.79
880.337	42.84
880.509	3.93
880.681	-80.04
880.854	-41.13
881.026	81.75
881.198	69.46
881.37	32.6
881.542	14.17
881.714	-75.95
881.886	-12.46
882.058	28.5
882.23	-34.99
882.402	-32.94
882.574	18.26
882.746	83.8
882.918	106.32
883.09	55.12
883.262	48.98
883.434	3.93
883.606	5.97
883.778	24.4
883.95	81.75
884.122	22.36
884.293	71.51
884.465	-0.17
884.637	128.85
884.809	-28.84
884.98	-6.31
885.152	10.07
885.324	40.79
885.496	53.08
885.667	-2.22
885.839	-14.51
886.011	42.84
886.182	-61.61
886.354	69.46
886.525	30.55
886.697	-65.71
886.869	-16.55
887.04	61.27
887.212	73.56
887.383	114.52
887.555	67.41
887.726	-14.51
887.897	-18.6
888.069	-26.79
888.24	139.09
888.412	18.26
888.583	36.69
888.754	71.51
888.926	36.69
889.097	55.12
889.268	-28.84
889.44	-0.17
889.611	5.97
889.782	10.07
889.953	-65.71
890.125	48.98
890.296	-32.94
890.467	-8.36
890.638	-12.46
890.809	20.31
890.98	-6.31
891.151	63.32
891.323	94.04
891.494	5.97
891.665	42.84
891.836	96.08
892.007	69.46
892.178	-0.17
892.349	20.31
892.52	3.93
892.691	-18.6
892.862	18.26
893.032	18.26
893.203	26.45
893.374	16.21
893.545	36.69
893.716	5.97
893.887	77.65
894.057	-22.7
894.228	-28.84
894.399	-18.6
894.57	36.69
894.74	55.12
894.911	137.04
895.082	20.31
895.253	-49.32
895.423	61.27
895.594	67.41
895.764	-22.7
895.935	-2.22
896.106	69.46
896.276	71.51
896.447	-0.17
896.617	-12.46
896.788	20.31
896.958	59.22
897.129	5.97
897.299	-6.31
897.47	87.89
897.64	77.65
897.81	14.17
897.981	26.45
898.151	8.02
898.322	61.27
898.492	59.22
898.662	-26.79
898.832	22.36
899.003	40.79
899.173	-18.6
899.343	77.65
899.513	5.97
