Data from USB4F104151__97__12-24-58-372.txt Node

Date: Fri Mar 14 12:24:58 EDT 2025
User: louis
Spectrometer: USB4F10415
Trigger mode: 4
Integration Time (sec): 3.500000E-2
Scans to average: 1
Electric dark correction enabled: true
Nonlinearity correction enabled: false
Boxcar width: 0
XAxis mode: Wavelengths
Number of Pixels in Spectrum: 3648
>>>>>Begin Spectral Data<<<<<
178.204	-166.23
178.424	-166.23
178.644	-166.23
178.864	-184.66
179.084	-155.99
179.304	28.33
179.524	-29.01
179.744	61.1
179.964	48.81
180.184	30.38
180.404	-18.77
180.624	-65.88
180.844	-41.3
181.064	-72.02
181.283	61.1
181.503	-45.4
181.723	42.67
181.943	-20.82
182.163	91.82
182.383	-61.78
182.602	24.23
182.822	-6.49
183.042	-33.11
183.262	-51.54
183.482	57
183.701	-2.39
183.921	32.43
184.141	-10.58
184.361	18.09
184.58	1.71
184.8	-4.44
185.02	34.47
185.239	50.86
185.459	20.14
185.679	79.53
185.898	46.76
186.118	50.86
186.338	-51.54
186.557	102.06
186.777	-45.4
186.997	-37.2
187.216	-47.44
187.436	100.01
187.655	11.95
187.875	-8.53
188.095	24.23
188.314	89.77
188.534	91.82
188.753	-18.77
188.973	36.52
189.192	65.19
189.412	79.53
189.631	24.23
189.851	13.99
190.07	61.1
190.29	5.8
190.509	57
190.729	-59.73
190.948	50.86
191.168	112.3
191.387	44.71
191.607	-2.39
191.826	83.63
192.045	-20.82
192.265	34.47
192.484	71.34
192.704	13.99
192.923	7.85
193.142	52.91
193.362	54.95
193.581	20.14
193.8	52.91
194.02	22.19
194.239	26.28
194.458	54.95
194.678	18.09
194.897	-16.73
195.116	38.57
195.335	61.1
195.555	18.09
195.774	18.09
195.993	85.67
196.212	16.04
196.432	-20.82
196.651	61.1
196.87	-29.01
197.089	54.95
197.308	36.52
197.528	28.33
197.747	-20.82
197.966	22.19
198.185	75.43
198.404	-63.83
198.623	36.52
198.842	22.19
199.062	-6.49
199.281	7.85
199.5	63.15
199.719	40.62
199.938	38.57
200.157	50.86
200.376	-14.68
200.595	91.82
200.814	36.52
201.033	-33.11
201.252	108.2
201.471	18.09
201.69	44.71
201.909	54.95
202.128	75.43
202.347	89.77
202.566	-6.49
202.785	28.33
203.004	-18.77
203.223	91.82
203.442	13.99
203.661	50.86
203.879	85.67
204.098	120.49
204.317	-16.73
204.536	-16.73
204.755	7.85
204.974	30.38
205.193	-39.25
205.411	134.82
205.63	69.29
205.849	30.38
206.068	52.91
206.287	69.29
206.505	22.19
206.724	32.43
206.943	7.85
207.162	-69.97
207.381	110.25
207.599	22.19
207.818	13.99
208.037	-10.58
208.255	13.99
208.474	71.34
208.693	9.9
208.911	67.24
209.13	63.15
209.349	-0.34
209.567	24.23
209.786	18.09
210.005	46.76
210.223	-14.68
210.442	-100.69
210.661	11.95
210.879	24.23
211.098	57
211.316	-24.92
211.535	100.01
211.753	3.75
211.972	1.71
212.191	44.71
212.409	73.39
212.628	-26.96
212.846	5.8
213.065	9.9
213.283	7.85
213.502	-88.4
213.72	52.91
213.938	-16.73
214.157	69.29
214.375	38.57
214.594	20.14
214.812	95.91
215.031	-0.34
215.249	16.04
215.467	48.81
215.686	73.39
215.904	36.52
216.122	-53.59
216.341	126.63
216.559	34.47
216.778	67.24
216.996	91.82
217.214	22.19
217.432	13.99
217.651	28.33
217.869	75.43
218.087	20.14
218.306	89.77
218.524	122.54
218.742	-8.53
218.96	40.62
219.179	-2.39
219.397	-16.73
219.615	165.54
219.833	71.34
220.051	13.99
220.27	77.48
220.488	38.57
220.706	34.47
220.924	46.76
221.142	104.11
221.36	26.28
221.578	54.95
221.796	-29.01
222.015	100.01
222.233	-49.49
222.451	100.01
222.669	1.71
222.887	1.71
223.105	24.23
223.323	28.33
223.541	-18.77
223.759	20.14
223.977	81.58
224.195	67.24
224.413	52.91
224.631	93.87
224.849	63.15
225.067	104.11
225.285	28.33
225.503	32.43
225.721	24.23
225.939	40.62
226.157	26.28
226.375	77.48
226.592	-31.06
226.81	26.28
227.028	-4.44
227.246	28.33
227.464	112.3
227.682	46.76
227.9	67.24
228.117	126.63
228.335	-20.82
228.553	44.71
228.771	81.58
228.989	54.95
229.206	-26.96
229.424	3.75
229.642	-4.44
229.86	-0.34
230.077	106.15
230.295	89.77
230.513	61.1
230.731	18.09
230.948	67.24
231.166	128.68
231.384	11.95
231.601	30.38
231.819	38.57
232.037	22.19
232.254	-41.3
232.472	5.8
232.689	18.09
232.907	52.91
233.125	18.09
233.342	63.15
233.56	-2.39
233.777	-57.68
233.995	18.09
234.213	63.15
234.43	40.62
234.648	77.48
234.865	48.81
235.083	20.14
235.3	79.53
235.518	77.48
235.735	108.2
235.953	38.57
236.17	-8.53
236.388	16.04
236.605	42.67
236.822	11.95
237.04	16.04
237.257	63.15
237.475	26.28
237.692	48.81
237.909	22.19
238.127	71.34
238.344	18.09
238.562	59.05
238.779	-26.96
238.996	-6.49
239.214	-4.44
239.431	75.43
239.648	1.71
239.865	81.58
240.083	63.15
240.3	40.62
240.517	24.23
240.735	46.76
240.952	9.9
241.169	91.82
241.386	28.33
241.603	-18.77
241.821	-22.87
242.038	116.39
242.255	40.62
242.472	69.29
242.689	22.19
242.907	20.14
243.124	-18.77
243.341	-2.39
243.558	-37.2
243.775	26.28
243.992	-20.82
244.209	69.29
244.426	75.43
244.643	102.06
244.86	11.95
245.078	71.34
245.295	95.91
245.512	-24.92
245.729	-8.53
245.946	67.24
246.163	59.05
246.38	20.14
246.597	-26.96
246.814	26.28
247.031	48.81
247.248	-8.53
247.464	-47.44
247.681	59.05
247.898	81.58
248.115	32.43
248.332	-2.39
248.549	32.43
248.766	93.87
248.983	44.71
249.2	40.62
249.417	38.57
249.633	24.23
249.85	24.23
250.067	30.38
250.284	34.47
250.501	-10.58
250.717	48.81
250.934	3.75
251.151	93.87
251.368	48.81
251.585	81.58
251.801	-2.39
252.018	20.14
252.235	136.87
252.451	-90.45
252.668	-22.87
252.885	120.49
253.102	-6.49
253.318	28.33
253.535	48.81
253.752	38.57
253.968	-0.34
254.185	-12.63
254.401	3.75
254.618	7.85
254.835	-4.44
255.051	24.23
255.268	32.43
255.484	3.75
255.701	9.9
255.917	59.05
256.134	13.99
256.351	1.71
256.567	26.28
256.784	36.52
257	-18.77
257.217	20.14
257.433	59.05
257.65	81.58
257.866	46.76
258.082	13.99
258.299	13.99
258.515	73.39
258.732	36.52
258.948	46.76
259.165	42.67
259.381	16.04
259.597	-2.39
259.814	9.9
260.03	75.43
260.246	40.62
260.463	61.1
260.679	36.52
260.895	36.52
261.112	110.25
261.328	1.71
261.544	24.23
261.761	63.15
261.977	7.85
262.193	-33.11
262.409	106.15
262.626	9.9
262.842	24.23
263.058	-31.06
263.274	61.1
263.49	-14.68
263.707	118.44
263.923	77.48
264.139	-8.53
264.355	116.39
264.571	112.3
264.787	11.95
265.004	20.14
265.22	13.99
265.436	52.91
265.652	34.47
265.868	5.8
266.084	5.8
266.3	11.95
266.516	13.99
266.732	11.95
266.948	9.9
267.164	-8.53
267.38	18.09
267.596	11.95
267.812	65.19
268.028	48.81
268.244	-18.77
268.46	54.95
268.676	11.95
268.892	81.58
269.108	-35.16
269.324	9.9
269.54	-33.11
269.756	20.14
269.972	1.71
270.188	30.38
270.403	-67.92
270.619	5.8
270.835	38.57
271.051	-12.63
271.267	34.47
271.483	-0.34
271.698	7.85
271.914	65.19
272.13	24.23
272.346	13.99
272.562	-41.3
272.777	32.43
272.993	13.99
273.209	5.8
273.425	18.09
273.64	-4.44
273.856	81.58
274.072	48.81
274.287	46.76
274.503	46.76
274.719	63.15
274.934	63.15
275.15	-51.54
275.366	50.86
275.581	20.14
275.797	26.28
276.012	13.99
276.228	36.52
276.444	26.28
276.659	22.19
276.875	-49.49
277.09	108.2
277.306	13.99
277.521	38.57
277.737	28.33
277.952	32.43
278.168	44.71
278.383	52.91
278.599	-20.82
278.814	61.1
279.03	-24.92
279.245	61.1
279.461	24.23
279.676	79.53
279.892	26.28
280.107	-29.01
280.322	-8.53
280.538	22.19
280.753	3.75
280.969	38.57
281.184	18.09
281.399	122.54
281.615	9.9
281.83	9.9
282.045	-22.87
282.26	-22.87
282.476	75.43
282.691	124.58
282.906	118.44
283.122	1.71
283.337	44.71
283.552	50.86
283.767	-39.25
283.983	75.43
284.198	-12.63
284.413	3.75
284.628	-92.5
284.843	16.04
285.058	69.29
285.274	81.58
285.489	-18.77
285.704	93.87
285.919	-22.87
286.134	32.43
286.349	18.09
286.564	7.85
286.779	112.3
286.995	11.95
287.21	-6.49
287.425	-10.58
287.64	42.67
287.855	93.87
288.07	-29.01
288.285	44.71
288.5	65.19
288.715	153.26
288.93	108.2
289.145	1.71
289.36	67.24
289.575	22.19
289.79	91.82
290.004	-4.44
290.219	81.58
290.434	7.85
290.649	1.71
290.864	34.47
291.079	18.09
291.294	20.14
291.509	40.62
291.724	-29.01
291.938	38.57
292.153	44.71
292.368	5.8
292.583	42.67
292.798	97.96
293.012	81.58
293.227	28.33
293.442	75.43
293.657	48.81
293.871	24.23
294.086	18.09
294.301	48.81
294.516	13.99
294.73	44.71
294.945	46.76
295.16	67.24
295.374	32.43
295.589	52.91
295.804	16.04
296.018	65.19
296.233	50.86
296.447	71.34
296.662	34.47
296.877	57
297.091	-29.01
297.306	9.9
297.52	30.38
297.735	71.34
297.949	50.86
298.164	-18.77
298.378	50.86
298.593	-35.16
298.807	-14.68
299.022	30.38
299.236	30.38
299.451	22.19
299.665	-6.49
299.88	-67.92
300.094	24.23
300.309	3.75
300.523	13.99
300.737	7.85
300.952	52.91
301.166	71.34
301.381	32.43
301.595	85.67
301.809	59.05
302.024	7.85
302.238	71.34
302.452	87.72
302.667	20.14
302.881	81.58
303.095	34.47
303.309	16.04
303.524	24.23
303.738	13.99
303.952	3.75
304.166	102.06
304.381	-29.01
304.595	118.44
304.809	-4.44
305.023	34.47
305.237	-61.78
305.452	-12.63
305.666	-26.96
305.88	79.53
306.094	42.67
306.308	26.28
306.522	34.47
306.736	-4.44
306.95	42.67
307.164	1.71
307.379	20.14
307.593	40.62
307.807	93.87
308.021	118.44
308.235	48.81
308.449	-24.92
308.663	-43.35
308.877	147.11
309.091	77.48
309.305	69.29
309.519	3.75
309.733	46.76
309.947	-8.53
310.161	7.85
310.374	59.05
310.588	13.99
310.802	-20.82
311.016	5.8
311.23	63.15
311.444	97.96
311.658	40.62
311.872	20.14
312.085	145.06
312.299	24.23
312.513	100.01
312.727	85.67
312.941	36.52
313.154	-35.16
313.368	50.86
313.582	79.53
313.796	-8.53
314.009	-12.63
314.223	159.4
314.437	24.23
314.651	-22.87
314.864	-43.35
315.078	18.09
315.292	-10.58
315.505	71.34
315.719	73.39
315.933	122.54
316.146	11.95
316.36	22.19
316.573	63.15
316.787	71.34
317.001	5.8
317.214	28.33
317.428	36.52
317.641	44.71
317.855	11.95
318.068	61.1
318.282	34.47
318.495	165.54
318.709	128.68
318.922	-35.16
319.136	59.05
319.349	95.91
319.563	-20.82
319.776	108.2
319.99	-29.01
320.203	20.14
320.417	85.67
320.63	-10.58
320.843	28.33
321.057	36.52
321.27	81.58
321.483	81.58
321.697	-0.34
321.91	71.34
322.124	20.14
322.337	30.38
322.55	-47.44
322.763	120.49
322.977	67.24
323.19	9.9
323.403	34.47
323.617	28.33
323.83	22.19
324.043	38.57
324.256	65.19
324.469	-12.63
324.683	36.52
324.896	83.63
325.109	85.67
325.322	1.71
325.535	116.39
325.748	38.57
325.962	69.29
326.175	104.11
326.388	32.43
326.601	-31.06
326.814	95.91
327.027	34.47
327.24	50.86
327.453	-10.58
327.666	85.67
327.879	46.76
328.092	69.29
328.305	61.1
328.518	-12.63
328.731	18.09
328.944	32.43
329.157	79.53
329.37	26.28
329.583	54.95
329.796	73.39
330.009	3.75
330.222	46.76
330.435	69.29
330.648	38.57
330.861	18.09
331.073	26.28
331.286	89.77
331.499	13.99
331.712	54.95
331.925	20.14
332.138	7.85
332.35	40.62
332.563	7.85
332.776	75.43
332.989	-16.73
333.202	83.63
333.414	11.95
333.627	69.29
333.84	-31.06
334.053	67.24
334.265	67.24
334.478	57
334.691	42.67
334.903	48.81
335.116	13.99
335.329	63.15
335.541	-8.53
335.754	114.34
335.966	34.47
336.179	34.47
336.392	1.71
336.604	79.53
336.817	-20.82
337.029	22.19
337.242	-41.3
337.454	-37.2
337.667	50.86
337.88	59.05
338.092	89.77
338.305	69.29
338.517	11.95
338.729	36.52
338.942	38.57
339.154	65.19
339.367	-29.01
339.579	102.06
339.792	40.62
340.004	81.58
340.217	44.71
340.429	46.76
340.641	-8.53
340.854	-31.06
341.066	69.29
341.278	124.58
341.491	110.25
341.703	61.1
341.915	20.14
342.128	83.63
342.34	7.85
342.552	11.95
342.764	38.57
342.977	63.15
343.189	30.38
343.401	69.29
343.613	38.57
343.826	30.38
344.038	11.95
344.25	3.75
344.462	-20.82
344.674	59.05
344.886	100.01
345.099	71.34
345.311	-18.77
345.523	38.57
345.735	77.48
345.947	81.58
346.159	73.39
346.371	71.34
346.583	-18.77
346.795	167.59
347.007	-74.07
347.219	26.28
347.431	34.47
347.643	57
347.855	-29.01
348.067	30.38
348.279	-37.2
348.491	108.2
348.703	63.15
348.915	61.1
349.127	69.29
349.339	116.39
349.551	-12.63
349.763	44.71
349.975	-63.83
350.187	73.39
350.399	75.43
350.61	40.62
350.822	18.09
351.034	26.28
351.246	28.33
351.458	46.76
351.669	59.05
351.881	38.57
352.093	61.1
352.305	106.15
352.517	34.47
352.728	59.05
352.94	171.69
353.152	87.72
353.363	11.95
353.575	3.75
353.787	7.85
353.999	59.05
354.21	73.39
354.422	24.23
354.633	38.57
354.845	44.71
355.057	30.38
355.268	93.87
355.48	40.62
355.692	13.99
355.903	-29.01
356.115	44.71
356.326	-0.34
356.538	122.54
356.749	22.19
356.961	95.91
357.172	13.99
357.384	-16.73
357.595	75.43
357.807	122.54
358.018	18.09
358.23	20.14
358.441	59.05
358.653	3.75
358.864	48.81
359.075	-59.73
359.287	7.85
359.498	179.88
359.709	59.05
359.921	-10.58
360.132	52.91
360.344	79.53
360.555	61.1
360.766	44.71
360.977	9.9
361.189	28.33
361.4	46.76
361.611	104.11
361.823	77.48
362.034	7.85
362.245	67.24
362.456	48.81
362.667	16.04
362.879	9.9
363.09	122.54
363.301	40.62
363.512	9.9
363.723	34.47
363.935	83.63
364.146	102.06
364.357	44.71
364.568	59.05
364.779	63.15
364.99	38.57
365.201	28.33
365.412	102.06
365.623	34.47
365.834	36.52
366.045	61.1
366.256	83.63
366.467	102.06
366.678	-10.58
366.889	61.1
367.1	48.81
367.311	44.71
367.522	71.34
367.733	32.43
367.944	22.19
368.155	59.05
368.366	52.91
368.577	93.87
368.788	11.95
368.999	91.82
369.209	106.15
369.42	87.72
369.631	118.44
369.842	61.1
370.053	16.04
370.264	63.15
370.474	3.75
370.685	-53.59
370.896	50.86
371.107	63.15
371.317	100.01
371.528	-2.39
371.739	46.76
371.95	22.19
372.16	69.29
372.371	22.19
372.582	124.58
372.792	3.75
373.003	63.15
373.214	44.71
373.424	54.95
373.635	-8.53
373.846	102.06
374.056	48.81
374.267	61.1
374.477	36.52
374.688	67.24
374.898	9.9
375.109	44.71
375.319	52.91
375.53	28.33
375.74	83.63
375.951	69.29
376.161	75.43
376.372	93.87
376.582	18.09
376.793	114.34
377.003	81.58
377.214	5.8
377.424	30.38
377.635	-8.53
377.845	-4.44
378.055	61.1
378.266	-20.82
378.476	67.24
378.686	44.71
378.897	75.43
379.107	128.68
379.317	95.91
379.528	30.38
379.738	50.86
379.948	59.05
380.158	81.58
380.369	108.2
380.579	63.15
380.789	-51.54
380.999	67.24
381.21	126.63
381.42	95.91
381.63	28.33
381.84	116.39
382.05	18.09
382.261	112.3
382.471	85.67
382.681	63.15
382.891	54.95
383.101	26.28
383.311	77.48
383.521	13.99
383.731	24.23
383.941	-2.39
384.151	16.04
384.361	32.43
384.571	46.76
384.781	179.88
384.991	48.81
385.201	75.43
385.411	85.67
385.621	40.62
385.831	32.43
386.041	18.09
386.251	102.06
386.461	32.43
386.671	61.1
386.881	57
387.091	3.75
387.301	57
387.511	-24.92
387.72	85.67
387.93	65.19
388.14	5.8
388.35	85.67
388.56	-4.44
388.769	63.15
388.979	16.04
389.189	-12.63
389.399	116.39
389.609	24.23
389.818	46.76
390.028	48.81
390.238	75.43
390.447	54.95
390.657	93.87
390.867	67.24
391.076	-67.92
391.286	108.2
391.496	91.82
391.705	30.38
391.915	212.65
392.125	44.71
392.334	34.47
392.544	65.19
392.753	122.54
392.963	28.33
393.172	85.67
393.382	65.19
393.591	108.2
393.801	114.34
394.01	83.63
394.22	59.05
394.429	79.53
394.639	32.43
394.848	89.77
395.058	73.39
395.267	54.95
395.477	95.91
395.686	79.53
395.895	183.98
396.105	198.31
396.314	57
396.524	28.33
396.733	11.95
396.942	140.97
397.152	157.35
397.361	102.06
397.57	91.82
397.78	-10.58
397.989	3.75
398.198	175.78
398.407	116.39
398.617	149.16
398.826	102.06
399.035	97.96
399.244	126.63
399.453	73.39
399.663	89.77
399.872	136.87
400.081	81.58
400.29	124.58
400.499	97.96
400.708	118.44
400.917	59.05
401.127	114.34
401.336	67.24
401.545	122.54
401.754	46.76
401.963	112.3
402.172	65.19
402.381	48.81
402.59	75.43
402.799	91.82
403.008	114.34
403.217	171.69
403.426	91.82
403.635	48.81
403.844	124.58
404.053	143.02
404.262	87.72
404.471	155.3
404.68	140.97
404.888	77.48
405.097	130.73
405.306	67.24
405.515	179.88
405.724	124.58
405.933	145.06
406.142	175.78
406.35	216.74
406.559	155.3
406.768	112.3
406.977	206.5
407.185	143.02
407.394	157.35
407.603	208.55
407.812	145.06
408.02	239.27
408.229	181.93
408.438	163.5
408.646	128.68
408.855	263.85
409.064	241.32
409.272	265.89
409.481	220.84
409.69	233.13
409.898	183.98
410.107	288.42
410.315	321.19
410.524	269.99
410.733	259.75
410.941	282.28
411.15	351.91
411.358	372.39
411.567	421.54
411.775	347.81
411.984	282.28
412.192	419.49
412.401	347.81
412.609	360.1
412.818	456.36
413.026	386.72
413.234	478.88
413.443	458.4
413.651	491.17
413.86	458.4
414.068	556.71
414.276	532.13
414.485	489.12
414.693	585.38
414.901	618.15
415.11	552.61
415.318	665.25
415.526	595.62
415.734	655.01
415.943	591.52
416.151	738.98
416.359	665.25
416.567	734.88
416.776	796.32
416.984	827.04
417.192	786.08
417.4	831.13
417.608	888.48
417.817	911
418.025	917.15
418.233	1015.45
418.441	884.38
418.649	954.01
418.857	1076.89
419.065	1097.37
419.273	1072.79
419.481	1132.19
419.689	1183.38
419.897	1230.49
420.105	1234.58
420.313	1363.61
420.521	1476.24
420.729	1371.8
420.937	1439.38
421.145	1537.68
421.353	1513.11
421.561	1597.07
421.769	1660.56
421.977	1758.86
422.185	1734.29
422.393	1818.25
422.601	1904.27
422.809	1951.37
423.017	1904.27
423.224	2012.81
423.432	2121.35
423.64	2096.78
423.848	2303.62
424.056	2270.86
424.263	2387.59
424.471	2303.62
424.679	2524.8
424.887	2453.13
425.094	2623.11
425.302	2586.24
425.51	2668.16
425.718	2842.24
425.925	2973.31
426.133	3026.56
426.341	3217.02
426.548	3366.52
426.756	3251.83
426.964	3262.07
427.171	3604.08
427.379	3593.84
427.586	3651.19
427.794	3950.19
428.001	4032.11
428.209	4302.44
428.417	4044.4
428.624	4501.09
428.832	4234.86
429.039	4361.83
429.247	4550.25
429.454	4773.47
429.662	5135.96
429.869	4808.29
430.076	5027.42
430.284	5086.81
430.491	5193.31
430.699	5508.69
430.906	5502.55
431.114	5379.67
431.321	5686.87
431.528	5795.41
431.736	6284.87
431.943	6637.13
432.15	6381.13
432.358	6417.99
432.565	6919.75
432.772	6760
432.979	7069.25
433.187	7218.75
433.394	7210.56
433.601	7765.56
433.808	7679.54
434.016	7532.09
434.223	8046.13
434.43	8425
434.637	8572.46
434.844	8996.39
435.052	9184.8
435.259	9168.41
435.466	9145.89
435.673	8969.76
435.88	9702.93
436.087	10026.51
436.294	10139.15
436.501	9899.54
436.708	10219.02
436.915	10532.36
437.122	10819.08
437.329	10970.63
437.537	11298.3
437.743	11333.12
437.95	11318.78
438.157	11859.45
438.364	12367.34
438.571	12463.6
438.778	12410.35
438.985	13610.46
439.192	12975.59
439.399	13299.17
439.606	13055.46
439.813	13962.71
440.02	14648.78
440.227	14355.92
440.433	14222.8
440.64	14681.55
440.847	14704.07
441.054	15068.61
441.261	16010.68
441.467	15771.07
441.674	16289.2
441.881	16569.77
442.088	16356.79
442.294	16580.01
442.501	16709.04
442.708	17288.61
442.914	18009.5
443.121	18781.58
443.328	18165.14
443.534	19545.47
443.741	19123.59
443.948	18546.06
444.154	20274.55
444.361	19912.06
444.568	20442.48
444.774	20166.01
444.981	20434.29
445.187	21001.58
445.394	21906.78
445.6	21685.6
445.807	23780.67
446.013	22543.7
446.22	22969.68
446.426	24259.9
446.633	24569.14
446.839	25103.66
447.046	24182.07
447.252	25486.63
447.459	25330.98
447.665	25298.22
447.871	26305.82
448.078	27786.5
448.284	26383.64
448.491	26905.87
448.697	28105.98
448.903	28724.47
449.11	28581.11
449.316	28259.58
449.522	28781.81
449.728	29572.33
449.935	29529.32
450.141	29654.25
450.347	30356.7
450.553	29504.74
450.76	29818.08
450.966	31050.96
451.172	30864.6
451.378	31200.46
451.584	30819.54
451.791	31192.27
451.997	31218.89
452.203	31919.3
452.409	31810.76
452.615	31814.85
452.821	30254.3
453.027	29986.02
453.233	31798.47
453.44	30506.2
453.646	30739.67
453.852	30829.78
454.058	31591.62
454.264	30168.29
454.47	31089.87
454.676	30258.4
454.882	31349.96
455.088	28679.41
455.294	29228.27
455.5	29601
455.705	29943.01
455.911	28716.28
456.117	27974.91
456.323	28038.4
456.529	26291.48
456.735	27217.16
456.941	26613.01
457.147	26080.54
457.352	25378.09
457.558	25165.1
457.764	25115.95
457.97	24925.49
458.176	24302.9
458.381	24282.42
458.587	23010.64
458.793	22943.05
458.999	21454.18
459.204	23639.36
459.41	22850.89
459.616	21224.81
459.821	21206.38
460.027	20991.34
460.233	20567.41
460.438	19551.62
460.644	19799.42
460.85	18908.55
461.055	18718.09
461.261	18900.36
461.466	17317.28
461.672	16504.24
461.878	17782.17
462.083	16672.17
462.289	16291.25
462.494	16233.91
462.7	15670.72
462.905	15289.79
463.111	15762.87
463.316	15990.2
463.522	15240.64
463.727	15300.03
463.932	15259.07
464.138	15138.24
464.343	15447.49
464.549	14785.99
464.754	15431.1
464.959	15162.82
465.165	15076.8
465.37	14472.65
465.575	14022.1
465.781	14570.96
465.986	14853.58
466.191	14161.36
466.397	13979.09
466.602	13043.17
466.807	13725.15
467.012	13680.09
467.218	13499.87
467.423	13508.06
467.628	13544.92
467.833	14007.76
468.038	13602.27
468.244	13245.92
468.449	13776.34
468.654	13395.42
468.859	13202.91
469.064	12971.49
469.269	12615.15
469.474	12652.01
469.679	13077.99
469.885	12707.3
470.09	12920.29
470.295	12819.94
470.5	12414.45
470.705	12301.81
470.91	12172.78
471.115	12084.72
471.32	12078.58
471.525	12226.03
471.73	11744.76
471.935	12166.64
472.139	11443.71
472.344	11759.1
472.549	11709.94
472.754	11292.16
472.959	11175.42
473.164	10821.13
473.369	10776.07
473.574	11161.09
473.778	11206.14
473.983	10880.52
474.188	11005.44
474.393	10405.39
474.598	10540.55
474.802	10343.95
475.007	10348.04
475.212	10325.52
475.417	10042.9
475.621	9852.44
475.826	9885.2
476.031	9805.33
476.235	9530.91
476.44	9840.15
476.645	9575.96
476.849	9747.99
477.054	9375.26
477.259	9143.84
477.463	9381.4
477.668	9131.55
477.872	9131.55
478.077	8936.99
478.282	8707.62
478.486	8887.84
478.691	8799.78
478.895	8607.27
479.1	8461.87
479.304	8521.26
479.509	8390.19
479.713	8334.89
479.918	8271.4
480.122	8236.59
480.326	8283.69
480.531	8138.29
480.735	8252.97
480.94	7968.31
481.144	8476.2
481.348	7925.3
481.553	8060.46
481.757	7855.67
481.961	8013.36
482.166	8265.26
482.37	8060.46
482.574	7937.59
482.778	8117.81
482.983	8320.56
483.187	8025.65
483.391	7958.07
483.595	8003.12
483.8	8029.74
484.004	8119.85
484.208	8220.21
484.412	7935.54
484.616	7863.86
484.821	8123.95
485.025	7943.73
485.229	8070.7
485.433	7796.28
485.637	8121.9
485.841	7720.5
486.045	7806.52
486.249	8048.18
486.453	7829.04
486.657	7976.5
486.861	8068.66
487.065	7857.71
487.269	7976.5
487.473	7829.04
487.677	7978.54
487.881	8001.07
488.085	8033.84
488.289	7962.16
488.493	7896.63
488.697	8244.78
488.901	8107.57
489.105	8082.99
489.309	8023.6
489.512	7976.5
489.716	8146.48
489.92	8046.13
490.124	7941.68
490.328	8293.93
490.531	8115.76
490.735	8171.05
490.939	8371.75
491.143	8105.52
491.346	8220.21
491.55	8181.29
491.754	8298.03
491.958	8392.23
492.161	8228.4
492.365	8439.34
492.569	8357.42
492.772	8535.59
492.976	8519.21
493.18	8492.59
493.383	8592.94
493.587	8693.29
493.79	9043.49
493.994	8683.05
494.197	9006.63
494.401	8619.56
494.605	8797.73
494.808	9008.67
495.012	9066.02
495.215	9109.02
495.419	9149.98
495.622	9152.03
495.825	9356.83
496.029	9156.13
496.232	9508.38
496.436	9342.49
496.639	9553.43
496.843	9618.97
497.046	9745.94
497.249	9981.46
497.453	9930.26
497.656	10040.85
497.859	9901.59
498.063	10231.31
498.266	10495.5
498.469	10202.64
498.673	10395.15
498.876	10804.74
499.079	10733.06
499.282	10518.03
499.485	10933.76
499.689	11179.52
499.892	11302.4
500.095	11546.11
500.298	11517.43
500.501	11470.33
500.705	11677.18
500.908	11724.28
501.111	11896.31
501.314	12105.2
501.517	12183.02
501.72	12402.16
501.923	12353.01
502.126	12783.08
502.329	12809.7
502.532	13118.95
502.735	12836.33
502.938	13393.37
503.141	13395.42
503.344	13506.01
503.547	13768.15
503.75	13721.05
503.953	14020.05
504.156	13913.56
504.359	14142.93
504.562	14300.62
504.765	14683.59
504.968	14880.2
505.17	14884.3
505.373	14837.19
505.576	15214.02
505.779	15566.27
505.982	15521.21
506.185	15936.95
506.387	15807.93
506.59	15832.51
506.793	16272.82
506.996	16377.26
507.198	16772.52
507.401	16600.49
507.604	16874.92
507.807	17517.98
508.009	17448.35
508.212	17606.05
508.415	17599.9
508.617	18130.33
508.82	18009.5
509.022	18054.55
509.225	18562.45
509.428	18601.36
509.63	18648.46
509.833	18687.37
510.035	19496.32
510.238	19197.32
510.44	19447.17
510.643	19844.48
510.845	20041.08
511.048	19684.73
511.25	20204.92
511.453	20483.44
511.655	21175.66
511.858	20993.39
512.06	21179.75
512.262	21382.5
512.465	21486.95
512.667	21822.81
512.87	22324.57
513.072	22379.86
513.274	22754.64
513.477	22617.43
513.679	23178.57
513.881	23375.17
514.084	23829.82
514.286	23481.67
514.488	23960.89
514.69	24474.93
514.893	24710.45
515.095	24339.77
515.297	24997.17
515.499	24997.17
515.701	25498.92
515.904	25857.31
516.106	25716
516.308	26162.46
516.51	26467.61
516.712	26625.3
516.914	26834.19
517.116	27444.49
517.318	27088.14
517.52	27860.23
517.722	27673.86
517.925	28312.83
518.127	28337.4
518.329	28849.39
518.531	28521.72
518.733	29500.65
518.935	29736.16
519.136	29732.07
519.338	29752.55
519.54	30190.81
519.742	30395.61
519.944	30571.74
520.146	30985.43
520.348	31339.72
520.55	31816.9
520.752	31988.93
520.954	32482.49
521.155	32314.56
521.357	32603.32
521.559	32969.91
521.761	33785
521.963	33877.16
522.164	33698.98
522.366	33651.88
522.568	34129.06
522.77	34366.62
522.971	35191.95
523.173	34860.18
523.375	35148.95
523.576	34952.34
523.778	35157.14
523.98	36093.06
524.181	36093.06
524.383	36066.44
524.584	36904.06
524.786	36695.16
524.988	36609.15
525.189	36973.69
525.391	37338.22
525.592	37457.01
525.794	37796.97
525.995	37729.39
526.197	37790.83
526.398	37698.67
526.6	38448.22
526.801	38804.57
527.003	38861.91
527.204	38720.6
527.406	39056.47
527.607	39068.76
527.808	39648.33
528.01	38902.87
528.211	39185.49
528.412	39967.82
528.614	39914.57
528.815	39771.21
529.016	40279.11
529.218	40162.37
529.419	40621.12
529.62	40143.94
529.822	40227.91
530.023	40416.32
530.224	40418.37
530.425	40637.5
530.626	40561.73
530.828	40270.92
531.029	41462.83
531.23	40381.51
531.431	40979.51
531.632	40987.71
531.833	41167.93
532.035	41335.86
532.236	41325.62
532.437	41669.68
532.638	41405.49
532.839	41692.21
533.04	41884.72
533.241	41456.69
533.442	42359.84
533.643	41677.87
533.844	41382.96
534.045	41819.18
534.246	41944.11
534.447	41774.13
534.648	41700.4
534.849	41894.96
535.05	41755.69
535.251	42124.33
535.451	41849.9
535.652	42279.97
535.853	41997.35
536.054	42066.98
536.255	42148.9
536.456	41528.37
536.657	42353.7
536.857	42060.84
537.058	41747.5
537.259	42191.91
537.46	42261.54
537.66	42019.88
537.861	42091.56
538.062	42073.13
538.263	42075.18
538.463	42333.22
538.664	42105.9
538.865	42122.28
539.065	42398.76
539.266	42030.12
539.466	42048.55
539.667	41925.67
539.868	42290.21
540.068	42052.65
540.269	42056.74
540.469	42370.08
540.67	42060.84
540.87	41942.06
541.071	42107.94
541.271	41937.96
541.472	42017.83
541.672	42026.03
541.873	41569.33
542.073	41434.16
542.274	42171.43
542.474	41823.28
542.675	42015.79
542.875	41907.24
543.075	42175.53
543.276	41518.13
543.476	42376.23
543.676	41829.42
543.877	41843.76
544.077	42140.71
544.277	42050.6
544.478	41952.3
544.678	42556.45
544.878	42005.55
545.078	42085.42
545.279	41923.63
545.479	41907.24
545.679	42245.16
545.879	41894.96
546.079	41489.46
546.28	41753.65
546.48	41389.11
546.68	41899.05
546.88	41815.08
547.08	41905.2
547.28	41759.79
547.48	41638.96
547.68	42019.88
547.88	41600.05
548.081	41471.03
548.281	41700.4
548.481	41507.89
548.681	42019.88
548.881	41602.1
549.081	41571.38
549.28	41800.75
549.48	41978.92
549.68	41548.85
549.88	42071.08
550.08	41335.86
550.28	42175.53
550.48	41524.27
550.68	41954.35
550.88	41505.84
551.08	41583.66
551.279	41534.51
551.479	41329.72
551.679	41397.3
551.879	41346.1
552.079	41989.16
552.278	41339.96
552.478	41358.39
552.678	41624.62
552.878	41612.34
553.077	41856.04
553.277	40817.72
553.477	41749.55
553.676	41333.81
553.876	41243.7
554.076	41212.98
554.275	41366.58
554.475	40717.37
554.674	41221.17
554.874	41600.05
555.074	41206.84
555.273	41393.2
555.473	41251.89
555.672	40969.27
555.872	40913.98
556.071	41204.79
556.271	41483.31
556.47	40864.83
556.67	40420.42
556.869	40660.03
557.068	40862.78
557.268	40428.61
557.467	40653.89
557.667	40559.68
557.866	40635.45
558.065	40832.06
558.265	39939.15
558.464	39963.72
558.663	40813.63
558.863	40014.92
559.062	40463.43
559.261	39480.4
559.461	40242.24
559.66	39410.77
559.859	39636.05
560.058	39261.27
560.258	39877.71
560.457	39343.19
560.656	39883.85
560.855	39423.06
561.054	39334.99
561.253	38974.55
561.453	39529.55
561.652	39324.75
561.851	39580.75
562.05	38913.11
562.249	39152.73
562.448	39390.29
562.647	39136.34
562.846	38657.12
563.045	38939.74
563.244	38259.81
563.443	38616.16
563.642	38274.15
563.841	38204.52
564.04	38251.62
564.239	38491.23
564.438	38249.57
564.637	38415.46
564.836	38044.77
565.035	37817.45
565.234	37641.32
565.432	37911.66
565.631	37661.8
565.83	37663.85
566.029	37622.89
566.228	37278.83
566.427	37176.44
566.625	37059.7
566.824	36697.21
567.023	37002.36
567.222	36516.99
567.42	37084.28
567.619	36689.02
567.818	36723.83
568.016	36203.65
568.215	36856.95
568.414	36717.69
568.612	36664.44
568.811	36025.48
569.01	36383.87
569.208	35724.43
569.407	36441.21
569.605	35722.38
569.804	35619.98
570.002	35523.72
570.201	35337.36
570.4	35099.8
570.598	35087.51
570.797	34829.46
570.995	34774.17
571.193	34561.18
571.392	34985.11
571.59	34761.88
571.789	34700.44
571.987	34466.97
572.186	34247.84
572.384	34231.46
572.582	34055.33
572.781	34473.12
572.979	33645.74
573.177	33924.26
573.376	33840.29
573.574	33543.34
573.772	33584.3
573.971	33610.92
574.169	33076.4
574.367	33262.77
574.565	33475.76
574.763	33131.7
574.962	32955.57
575.16	32670.9
575.358	32994.48
575.556	32718.01
575.754	33002.68
575.952	32332.99
576.151	32681.14
576.349	31941.83
576.547	32337.09
576.745	32230.59
576.943	32347.33
577.141	31950.02
577.339	32222.4
577.537	31411.4
577.735	31759.56
577.933	31550.67
578.131	31794.37
578.329	31337.68
578.527	31212.75
578.725	31341.77
578.923	31280.33
579.121	30850.26
579.319	31083.73
579.516	31233.23
579.714	31358.16
579.912	30760.15
580.11	30688.47
580.308	30711
580.506	30432.47
580.704	29990.11
580.901	30366.94
581.099	30438.62
581.297	30010.59
581.495	30235.87
581.692	29981.92
581.89	30053.6
582.088	29850.85
582.285	29564.14
582.483	29885.67
582.681	29611.24
582.878	29428.97
583.076	29289.71
583.274	29693.16
583.471	29095.15
583.669	28994.8
583.866	28847.35
584.064	29154.54
584.262	28820.72
584.459	28871.92
584.657	28726.52
584.854	29062.38
585.052	28159.23
585.249	28335.35
585.447	28597.49
585.644	28204.28
585.841	28527.86
586.039	28548.34
586.236	27895.04
586.434	27950.34
586.631	27698.44
586.828	28058.88
587.026	27682.05
587.223	27673.86
587.42	27557.13
587.618	27598.09
587.815	27358.47
588.012	27292.94
588.21	27237.64
588.407	27614.47
588.604	27000.08
588.801	26821.91
588.999	27137.29
589.196	26778.9
589.393	26764.56
589.59	26627.35
589.787	26615.06
589.984	26672.4
590.182	26139.93
590.379	26262.81
590.576	26146.08
590.773	26273.05
590.97	26301.72
591.167	26094.88
591.364	25750.82
591.561	26045.73
591.758	25908.51
591.955	25462.05
592.152	25691.43
592.349	25498.92
592.546	25703.71
592.743	25857.31
592.94	25140.52
593.137	25322.79
593.334	25414.95
593.531	25185.58
593.727	25191.72
593.924	25066.8
594.121	24837.42
594.318	24862
594.515	24771.89
594.712	24718.64
594.908	24841.52
595.105	24874.29
595.302	24618.29
595.499	24810.8
595.696	24126.78
595.892	24022.33
596.089	24419.64
596.286	24483.13
596.482	24065.34
596.679	24167.74
596.876	24020.28
597.072	23688.51
597.269	24096.06
597.466	23360.84
597.662	23536.96
597.859	23735.62
598.055	23463.24
598.252	23387.46
598.448	23383.37
598.645	23162.19
598.841	23260.49
599.038	23346.5
599.234	23225.67
599.431	22992.2
599.627	22814.03
599.824	22811.98
600.02	22711.63
600.217	22740.3
600.413	22584.66
600.609	22287.7
600.806	22162.78
601.002	22738.26
601.198	22386.01
601.395	22228.31
601.591	22029.66
601.787	22019.42
601.984	22109.53
602.18	22365.53
602.376	21773.66
602.572	21804.38
602.769	21943.64
602.965	21689.7
603.161	21693.79
603.357	21366.12
603.553	21691.74
603.75	21476.71
603.946	21159.27
604.142	21290.34
604.338	21300.58
604.534	21398.88
604.73	21230.95
604.926	21103.98
605.122	21187.94
605.318	20966.76
605.514	20684.14
605.71	20794.73
605.906	20909.42
606.102	20637.04
606.298	20772.21
606.494	20610.42
606.69	20671.86
606.886	20653.42
607.082	20442.48
607.278	20430.19
607.474	19858.81
607.67	20477.3
607.866	19946.87
608.062	20290.93
608.257	19869.05
608.453	20039.03
608.649	19948.92
608.845	19864.96
609.041	19852.67
609.236	19926.39
609.432	19850.62
609.628	19840.38
609.824	19778.94
610.019	19565.95
610.215	19426.69
610.411	19854.72
610.606	19293.57
610.802	19682.69
610.998	19541.38
611.193	19803.52
611.389	19441.03
611.584	19107.21
611.78	18953.61
611.976	19340.68
612.171	19379.59
612.367	19021.19
612.562	19213.7
612.758	19131.78
612.953	18840.97
613.149	19084.68
613.344	18904.46
613.539	19275.14
613.735	18963.85
613.93	18834.83
614.126	18767.24
614.321	19017.1
614.517	18926.99
614.712	18804.11
614.907	18660.75
615.103	18804.11
615.298	18480.53
615.493	18619.79
615.688	18308.5
615.884	18662.8
616.079	18349.46
616.274	18716.05
616.47	18242.96
616.665	18269.59
616.86	18066.84
617.055	18068.89
617.25	18005.4
617.445	18263.44
617.641	17923.48
617.836	17952.15
618.031	17694.11
618.226	17819.03
618.421	18077.08
618.616	18062.74
618.811	17565.09
619.006	17771.93
619.201	17507.74
619.396	17702.3
619.591	17237.41
619.786	17599.9
619.981	17085.86
620.176	17474.98
620.371	16969.13
620.566	17157.54
620.761	17132.97
620.956	17137.06
621.151	16713.13
621.346	16829.87
621.541	16651.69
621.735	16891.3
621.93	16504.24
622.125	16491.95
622.32	16358.83
622.515	16369.07
622.709	16227.76
622.904	16121.27
623.099	16111.03
623.294	16104.88
623.488	15832.51
623.683	15865.27
623.878	15838.65
624.072	15887.8
624.267	15461.82
624.462	15652.28
624.656	15326.66
624.851	15457.73
625.046	15402.43
625.24	15402.43
625.435	15275.46
625.629	15052.23
625.824	15003.08
626.018	14941.64
626.213	14689.74
626.407	14798.28
626.602	14433.74
626.796	14407.12
626.991	14489.04
627.185	14396.88
627.38	14368.21
627.574	14224.85
627.768	14015.96
627.963	14042.58
628.157	13862.36
628.352	14267.86
628.546	13802.97
628.74	13878.74
628.935	13704.67
629.129	13762.01
629.323	13438.43
629.517	13522.4
629.712	13180.39
629.906	13368.8
630.1	13120.99
630.294	13133.28
630.489	13131.23
630.683	13080.04
630.877	12977.64
631.071	13082.08
631.265	12838.37
631.459	12778.98
631.653	12883.43
631.848	12559.85
632.042	12545.52
632.236	12758.5
632.43	12465.64
632.624	12482.03
632.818	12439.02
633.012	12094.96
633.206	12299.76
633.4	12066.29
633.594	12021.24
633.788	12033.52
633.982	12215.79
634.176	11972.08
634.369	11945.46
634.563	11718.14
634.757	11578.87
634.951	11765.24
635.145	11734.52
635.339	11513.34
635.533	11451.9
635.726	11306.49
635.92	11224.58
636.114	11302.4
636.308	11410.94
636.501	11206.14
636.695	11062.79
636.889	10919.43
637.083	11040.26
637.276	10755.59
637.47	10802.69
637.664	10798.6
637.857	10712.58
638.051	10673.67
638.244	10589.71
638.438	10556.94
638.632	10563.08
638.825	10243.6
639.019	10382.86
639.212	10214.93
639.406	10464.78
639.599	10360.33
639.793	10249.74
639.986	10214.93
640.18	10173.97
640.373	10001.94
640.567	9920.02
640.76	9860.63
640.954	9741.85
641.147	9895.44
641.34	9827.86
641.534	9762.33
641.727	9629.21
641.92	9670.17
642.114	9645.59
642.307	9551.38
642.5	9291.29
642.694	9473.56
642.887	9240.09
643.08	9401.88
643.273	8961.57
643.467	9244.19
643.66	9082.4
643.853	8934.95
644.046	8967.71
644.239	9090.59
644.432	8939.04
644.626	8621.61
644.819	8807.97
645.012	8668.71
645.205	8867.36
645.398	8603.18
645.591	8568.36
645.784	8717.86
645.977	8629.8
646.17	8472.11
646.363	8359.47
646.556	8265.26
646.749	8230.45
646.942	8406.57
647.135	8470.06
647.328	8216.11
647.521	8080.94
647.714	8175.15
647.907	8142.38
648.099	8039.98
648.292	8062.51
648.485	8062.51
648.678	7951.92
648.871	8033.84
649.064	7863.86
649.256	7779.89
649.449	7650.87
649.642	7618.1
649.835	7579.19
650.027	7599.67
650.22	7648.82
650.413	7575.1
650.605	7663.16
650.798	7491.13
650.991	7396.92
651.183	7417.4
651.376	7401.02
651.568	7464.5
651.761	7196.22
651.954	7071.29
652.146	7110.21
652.339	7261.76
652.531	7009.86
652.724	7038.53
652.916	7024.19
653.109	7028.29
653.301	7034.43
653.494	7112.25
653.686	6856.26
653.879	6884.93
654.071	6921.79
654.263	6936.13
654.456	6841.92
654.648	6876.74
654.84	6598.21
655.033	6698.56
655.225	6624.84
655.417	6569.54
655.61	6581.83
655.802	6684.23
655.994	6510.15
656.186	6487.62
656.379	6352.46
656.571	6467.14
656.763	6383.18
656.955	6389.32
657.148	6499.91
657.34	6164.04
657.532	6205
657.724	6092.37
657.916	6116.94
658.108	6153.8
658.3	6096.46
658.492	5977.68
658.684	6063.69
658.876	6053.45
659.068	5901.9
659.26	6045.26
659.452	6063.69
659.644	5957.2
659.836	5926.48
660.028	5992.02
660.22	5885.52
660.412	5873.23
660.604	5684.82
660.796	5668.44
660.988	5699.16
661.18	5676.63
661.372	5764.69
661.563	5615.19
661.755	5504.6
661.947	5623.38
662.139	5658.2
662.331	5490.26
662.522	5424.73
662.714	5389.91
662.906	5549.65
663.097	5316.19
663.289	5344.86
663.481	5305.95
663.673	5418.58
663.864	5459.54
664.056	5156.44
664.247	5232.22
664.439	5211.74
664.631	5242.46
664.822	5238.36
665.014	5119.58
665.205	5082.72
665.397	5006.94
665.588	5066.33
665.78	5017.18
665.971	5070.43
666.163	5062.24
666.354	5113.44
666.546	4890.21
666.737	4914.78
666.929	4945.5
667.12	4933.22
667.311	5000.8
667.503	4904.54
667.694	4892.26
667.885	4959.84
668.077	4804.19
668.268	4908.64
668.459	4824.67
668.651	4820.58
668.842	4738.66
669.033	4591.2
669.224	4759.14
669.416	4722.27
669.607	4714.08
669.798	4703.84
669.989	4767.33
670.18	4578.92
670.371	4566.63
670.563	4574.82
670.754	4619.88
670.945	4423.27
671.136	4640.36
671.327	4566.63
671.518	4456.04
671.709	4550.25
671.9	4632.16
672.091	4497
672.282	4523.62
672.473	4456.04
672.664	4476.52
672.855	4402.79
673.046	4531.81
673.237	4488.81
673.428	4363.88
673.619	4417.13
673.809	4392.55
674	4212.33
674.191	4429.42
674.382	4351.59
674.573	4331.11
674.764	4329.06
674.954	4288.11
675.145	4355.69
675.336	4261.48
675.527	4261.48
675.717	4415.08
675.908	4306.54
676.099	4355.69
676.289	4271.72
676.48	4214.38
676.671	4339.3
676.861	4329.06
677.052	4376.17
677.243	4208.23
677.433	4126.32
677.624	4310.63
677.814	4236.91
678.005	4261.48
678.195	4087.4
678.386	4210.28
678.576	4152.94
678.767	4134.51
678.957	4171.37
679.148	4320.87
679.338	4286.06
679.529	4116.08
679.719	4232.81
679.909	4089.45
680.1	4169.32
680.29	4259.43
680.481	4128.36
680.671	4316.78
680.861	4048.49
681.052	4333.16
681.242	4038.25
681.432	4085.36
681.622	4021.87
681.813	4044.4
682.003	4091.5
682.193	4046.44
682.383	4167.28
682.573	4146.8
682.764	3919.47
682.954	4081.26
683.144	4003.44
683.334	4202.09
683.524	4126.32
683.714	4036.21
683.904	3952.24
684.094	4064.88
684.284	4064.88
684.474	4003.44
684.664	4062.83
684.854	3946.09
685.044	4071.02
685.234	4040.3
685.424	3952.24
685.614	3870.32
685.804	3888.75
685.994	3942
686.184	3952.24
686.374	4068.97
686.564	3888.75
686.753	3935.85
686.943	3952.24
687.133	3937.9
687.323	3909.23
687.513	3782.26
687.702	3751.54
687.892	3847.79
688.082	3849.84
688.272	3731.06
688.461	3896.94
688.651	3864.18
688.841	3696.24
689.03	3843.7
689.22	3673.71
689.41	3745.39
689.599	3659.38
689.789	3659.38
689.979	3698.29
690.168	3651.19
690.358	3632.76
690.547	3671.67
690.737	3577.46
690.926	3692.15
691.116	3518.07
691.305	3698.29
691.495	3616.37
691.684	3569.27
691.874	3505.78
692.063	3491.45
692.252	3513.97
692.442	3448.44
692.631	3503.73
692.82	3325.56
693.01	3442.29
693.199	3448.44
693.388	3339.9
693.578	3401.33
693.767	3325.56
693.956	3284.6
694.146	3290.74
694.335	3268.22
694.524	3284.6
694.713	3440.25
694.902	3266.17
695.092	3227.26
695.281	3157.63
695.47	3079.8
695.659	3180.15
695.848	3268.22
696.037	3233.4
696.226	3231.35
696.415	3149.43
696.604	3225.21
696.793	3200.63
696.982	3081.85
697.171	3260.02
697.36	3235.45
697.549	3034.75
697.738	3139.19
697.927	3102.33
698.116	3075.71
698.305	3112.57
698.494	3190.39
698.683	3088
698.872	3137.15
699.061	3069.56
699.25	3149.43
699.438	3026.56
699.627	3176.06
699.816	3075.71
700.005	3061.37
700.193	3071.61
700.382	3110.52
700.571	3124.86
700.76	3176.06
700.948	3104.38
701.137	3040.89
701.326	3225.21
701.514	3171.96
701.703	3108.48
701.892	3028.6
702.08	3137.15
702.269	3241.59
702.457	3133.05
702.646	3040.89
702.834	3167.87
703.023	3141.24
703.212	3047.04
703.4	3055.23
703.589	3204.73
703.777	3192.44
703.965	3092.09
704.154	3038.84
704.342	3137.15
704.531	3042.94
704.719	3069.56
704.907	3124.86
705.096	3044.99
705.284	3104.38
705.472	3081.85
705.661	3090.04
705.849	3147.39
706.037	3112.57
706.226	3163.77
706.414	3085.95
706.602	3108.48
706.79	3131
706.979	3112.57
707.167	3190.39
707.355	3081.85
707.543	3141.24
707.731	3092.09
707.919	3155.58
708.107	2985.6
708.296	3061.37
708.484	3210.87
708.672	3079.8
708.86	3163.77
709.048	3210.87
709.236	3085.95
709.424	3163.77
709.612	3206.78
709.8	3065.47
709.988	3239.55
710.176	3161.72
710.364	3157.63
710.551	3237.5
710.739	3274.36
710.927	3278.46
711.115	3106.43
711.303	3212.92
711.491	3137.15
711.679	3268.22
711.866	3227.26
712.054	3059.32
712.242	3298.94
712.43	3290.74
712.617	3200.63
712.805	3221.11
712.993	3171.96
713.181	3245.69
713.368	3223.16
713.556	3354.23
713.744	3231.35
713.931	3204.73
714.119	3208.83
714.306	3257.98
714.494	3143.29
714.682	3237.5
714.869	3196.54
715.057	3260.02
715.244	3233.4
715.432	3266.17
715.619	3317.37
715.807	3235.45
715.994	3233.4
716.182	3323.51
716.369	3292.79
716.556	3352.18
716.744	3257.98
716.931	3231.35
717.119	3284.6
717.306	3247.74
717.493	3227.26
717.681	3300.98
717.868	3430.01
718.055	3313.27
718.242	3319.42
718.43	3325.56
718.617	3370.62
718.804	3368.57
718.991	3315.32
719.179	3327.61
719.366	3307.13
719.553	3331.7
719.74	3325.56
719.927	3313.27
720.114	3257.98
720.301	3210.87
720.488	3356.28
720.676	3413.62
720.863	3294.84
721.05	3329.66
721.237	3380.86
721.424	3356.28
721.611	3530.36
721.798	3315.32
721.985	3487.35
722.172	3307.13
722.358	3477.11
722.545	3454.58
722.732	3387
722.919	3454.58
723.106	3378.81
723.293	3501.69
723.48	3442.29
723.667	3311.22
723.853	3339.9
724.04	3493.49
724.227	3446.39
724.414	3671.67
724.6	3522.16
724.787	3446.39
724.974	3554.93
725.161	3335.8
725.347	3446.39
725.534	3556.98
725.72	3425.91
725.907	3448.44
726.094	3626.61
726.28	3561.08
726.467	3630.71
726.653	3552.88
726.84	3518.07
727.027	3571.32
727.213	3546.74
727.4	3589.75
727.586	3518.07
727.773	3518.07
727.959	3550.84
728.145	3501.69
728.332	3528.31
728.518	3591.8
728.705	3552.88
728.891	3548.79
729.077	3499.64
729.264	3618.42
729.45	3511.93
729.636	3542.64
729.823	3556.98
730.009	3505.78
730.195	3534.45
730.382	3649.14
730.568	3569.27
730.754	3589.75
730.94	3683.95
731.126	3632.76
731.313	3556.98
731.499	3542.64
731.685	3710.58
731.871	3636.85
732.057	3591.8
732.243	3583.6
732.429	3602.04
732.615	3677.81
732.801	3585.65
732.987	3538.55
733.173	3677.81
733.359	3602.04
733.545	3614.32
733.731	3593.84
733.917	3743.35
734.103	3575.41
734.289	3640.95
734.475	3554.93
734.661	3563.12
734.847	3567.22
735.033	3745.39
735.219	3724.91
735.404	3591.8
735.59	3559.03
735.776	3513.97
735.962	3618.42
736.148	3694.19
736.333	3776.11
736.519	3616.37
736.705	3726.96
736.89	3565.17
737.076	3612.28
737.262	3548.79
737.447	3638.9
737.633	3667.57
737.819	3669.62
738.004	3645.04
738.19	3675.76
738.375	3638.9
738.561	3733.11
738.747	3649.14
738.932	3651.19
739.118	3610.23
739.303	3479.16
739.489	3659.38
739.674	3653.23
739.859	3530.36
740.045	3575.41
740.23	3565.17
740.416	3387
740.601	3495.54
740.786	3503.73
740.972	3444.34
741.157	3458.68
741.342	3518.07
741.528	3509.88
741.713	3442.29
741.898	3444.34
742.084	3456.63
742.269	3552.88
742.454	3534.45
742.639	3421.81
742.824	3374.71
743.01	3522.16
743.195	3370.62
743.38	3561.08
743.565	3421.81
743.75	3470.97
743.935	3366.52
744.12	3440.25
744.305	3325.56
744.49	3337.85
744.675	3288.7
744.86	3360.38
745.045	3217.02
745.23	3382.9
745.415	3131
745.6	3323.51
745.785	3190.39
745.97	3280.5
746.155	3096.19
746.34	3239.55
746.525	3090.04
746.71	3221.11
746.895	3145.34
747.079	3026.56
747.264	3047.04
747.449	3135.1
747.634	3186.3
747.819	3147.39
748.003	2977.41
748.188	3145.34
748.373	3157.63
748.557	3020.41
748.742	3010.17
748.927	3044.99
749.111	3014.27
749.296	2995.84
749.481	2897.53
749.665	3047.04
749.85	2864.77
750.034	2977.41
750.219	2844.29
750.404	2836.1
750.588	2856.58
750.773	2748.03
750.957	2776.7
751.141	2823.81
751.326	2860.67
751.51	2727.55
751.695	2719.36
751.879	2778.75
752.064	2700.93
752.248	2727.55
752.432	2584.2
752.617	2639.49
752.801	2653.83
752.985	2655.87
753.17	2662.02
753.354	2545.28
753.538	2592.39
753.722	2522.76
753.907	2547.33
754.091	2352.77
754.275	2520.71
754.459	2432.65
754.643	2422.41
754.828	2471.56
755.012	2373.25
755.196	2428.55
755.38	2420.36
755.564	2311.82
755.748	2420.36
755.932	2334.34
756.116	2428.55
756.3	2229.9
756.484	2248.33
756.668	2322.06
756.852	2158.22
757.036	2225.8
757.22	2084.49
757.404	2301.58
757.588	2143.88
757.772	2274.95
757.956	2094.73
758.14	2117.26
758.323	2035.34
758.507	2164.36
758.691	2135.69
758.875	2053.77
759.059	2133.64
759.242	2035.34
759.426	2000.52
759.61	1988.24
759.794	2082.44
759.977	2066.06
760.161	2158.22
760.345	1973.9
760.528	1998.48
760.712	2047.63
760.895	1904.27
761.079	1918.61
761.263	1877.65
761.446	1875.6
761.63	1941.13
761.813	1941.13
761.997	1986.19
762.18	1812.11
762.364	1803.92
762.547	1857.17
762.731	1832.59
762.914	1887.89
763.098	1863.31
763.281	1820.3
763.464	1785.49
763.648	1808.02
763.831	1756.82
764.015	1842.83
764.198	1826.45
764.381	1711.76
764.564	1851.02
764.748	1734.29
764.931	1846.93
765.114	1687.18
765.297	1746.58
765.481	1664.66
765.664	1629.84
765.847	1691.28
766.03	1713.81
766.213	1625.75
766.397	1701.52
766.58	1685.14
766.763	1724.05
766.946	1711.76
767.129	1582.74
767.312	1685.14
767.495	1699.47
767.678	1588.88
767.861	1709.71
768.044	1549.97
768.227	1664.66
768.41	1482.39
768.593	1527.44
768.776	1576.59
768.959	1472.15
769.142	1662.61
769.324	1568.4
769.507	1519.25
769.69	1476.24
769.873	1582.74
770.056	1586.83
770.239	1560.21
770.421	1592.98
770.604	1490.58
770.787	1515.16
770.97	1386.13
771.152	1457.81
771.335	1488.53
771.518	1527.44
771.7	1506.96
771.883	1521.3
772.066	1492.63
772.248	1425.04
772.431	1433.24
772.613	1418.9
772.796	1347.22
772.978	1396.37
773.161	1343.13
773.343	1437.33
773.526	1287.83
773.708	1306.26
773.891	1285.78
774.073	1388.18
774.256	1183.38
774.438	1369.75
774.621	1345.17
774.803	1296.02
774.985	1271.45
775.168	1244.82
775.35	1201.82
775.532	1281.69
775.715	1285.78
775.897	1271.45
776.079	1126.04
776.261	1277.59
776.444	1158.81
776.626	1210.01
776.808	1171.1
776.99	1134.23
777.173	1113.75
777.355	1255.06
777.537	1126.04
777.719	1203.86
777.901	1185.43
778.083	1029.79
778.265	1136.28
778.447	1113.75
778.629	1128.09
778.811	1105.56
778.993	1037.98
779.175	1187.48
779.357	1130.14
779.539	1126.04
779.721	1062.55
779.903	1029.79
780.085	1037.98
780.267	1062.55
780.449	1013.4
780.631	1042.07
780.812	1015.45
780.994	956.06
781.176	986.78
781.358	880.29
781.54	919.2
781.721	937.63
781.903	1001.12
782.085	929.44
782.267	972.44
782.448	841.37
782.63	857.76
782.812	861.85
782.993	960.16
783.175	911
783.357	841.37
783.538	980.64
783.72	843.42
783.901	855.71
784.083	870.05
784.264	841.37
784.446	741.02
784.627	833.18
784.809	843.42
784.99	747.17
785.172	784.03
785.353	816.8
785.535	808.61
785.716	700.06
785.897	781.98
786.079	757.41
786.26	781.98
786.441	728.74
786.623	648.86
786.804	720.54
786.985	673.44
787.167	749.22
787.348	673.44
787.529	818.85
787.71	728.74
787.891	790.17
788.073	616.1
788.254	683.68
788.435	771.74
788.616	720.54
788.797	622.24
788.978	702.11
789.159	683.68
789.34	695.97
789.522	685.73
789.703	593.57
789.884	655.01
790.065	677.54
790.246	650.91
790.427	722.59
790.607	632.48
790.788	634.53
790.969	659.1
791.15	628.39
791.331	575.14
791.512	618.15
791.693	552.61
791.874	546.47
792.054	642.72
792.235	585.38
792.416	632.48
792.597	552.61
792.778	554.66
792.958	577.19
793.139	599.71
793.32	487.08
793.5	466.6
793.681	525.99
793.862	566.95
794.042	546.47
794.223	523.94
794.404	554.66
794.584	542.37
794.765	505.51
794.945	523.94
795.126	603.81
795.306	548.51
795.487	482.98
795.667	423.59
795.848	482.98
796.028	450.21
796.209	540.32
796.389	446.12
796.57	599.71
796.75	513.7
796.93	437.92
797.111	587.43
797.291	421.54
797.471	474.79
797.652	515.75
797.832	519.84
798.012	448.16
798.192	374.44
798.373	503.46
798.553	509.6
798.733	482.98
798.913	499.36
799.093	452.26
799.274	386.72
799.454	421.54
799.634	431.78
799.814	509.6
799.994	448.16
800.174	454.31
800.354	380.58
800.534	378.53
800.714	452.26
800.894	384.68
801.074	392.87
801.254	353.96
801.434	458.4
801.614	347.81
801.794	329.38
801.974	1103.51
802.154	345.77
802.334	464.55
802.514	378.53
802.693	382.63
802.873	308.9
803.053	439.97
803.233	345.77
803.413	333.48
803.592	339.62
803.772	321.19
803.952	419.49
804.131	349.86
804.311	364.2
804.491	370.34
804.67	251.56
804.85	294.57
805.03	403.11
805.209	376.48
805.389	245.41
805.568	358.05
805.748	366.25
805.928	337.57
806.107	364.2
806.287	333.48
806.466	298.66
806.646	331.43
806.825	308.9
807.004	306.85
807.184	224.94
807.363	343.72
807.543	302.76
807.722	374.44
807.901	347.81
808.081	308.9
808.26	261.8
808.439	347.81
808.619	298.66
808.798	351.91
808.977	296.61
809.156	341.67
809.336	257.7
809.515	388.77
809.694	282.28
809.873	317.09
810.052	296.61
810.231	319.14
810.411	280.23
810.59	286.37
810.769	272.04
810.948	341.67
811.127	239.27
811.306	241.32
811.485	229.03
811.664	399.01
811.843	261.8
812.022	300.71
812.201	286.37
812.38	327.33
812.559	181.93
812.737	222.89
812.916	237.22
813.095	233.13
813.274	249.51
813.453	267.94
813.632	360.1
813.811	235.18
813.989	192.17
814.168	261.8
814.347	226.98
814.526	237.22
814.704	335.53
814.883	343.72
815.062	196.26
815.24	194.22
815.419	249.51
815.598	319.14
815.776	149.16
815.955	280.23
816.133	204.46
816.312	274.09
816.49	212.65
816.669	249.51
816.847	214.7
817.026	267.94
817.204	218.79
817.383	177.83
817.561	167.59
817.74	181.93
817.918	243.37
818.097	204.46
818.275	231.08
818.453	167.59
818.632	110.25
818.81	218.79
818.988	181.93
819.167	192.17
819.345	241.32
819.523	239.27
819.701	239.27
819.879	226.98
820.058	226.98
820.236	235.18
820.414	202.41
820.592	128.68
820.77	255.65
820.948	229.03
821.127	188.07
821.305	231.08
821.483	87.72
821.661	257.7
821.839	200.36
822.017	147.11
822.195	114.34
822.373	188.07
822.551	229.03
822.729	255.65
822.907	186.02
823.085	149.16
823.262	169.64
823.44	188.07
823.618	136.87
823.796	237.22
823.974	136.87
824.152	181.93
824.329	190.12
824.507	136.87
824.685	214.7
824.863	181.93
825.04	106.15
825.218	192.17
825.396	169.64
825.574	177.83
825.751	179.88
825.929	157.35
826.107	140.97
826.284	190.12
826.462	173.74
826.639	126.63
826.817	95.91
826.994	110.25
827.172	95.91
827.349	186.02
827.527	149.16
827.704	145.06
827.882	175.78
828.059	188.07
828.237	87.72
828.414	93.87
828.591	79.53
828.769	106.15
828.946	145.06
829.124	134.82
829.301	210.6
829.478	222.89
829.655	102.06
829.833	81.58
830.01	120.49
830.187	173.74
830.364	151.21
830.542	95.91
830.719	165.54
830.896	114.34
831.073	177.83
831.25	200.36
831.427	124.58
831.604	134.82
831.782	108.2
831.959	208.55
832.136	106.15
832.313	120.49
832.49	124.58
832.667	108.2
832.844	140.97
833.021	206.5
833.198	46.76
833.374	161.45
833.551	143.02
833.728	138.92
833.905	100.01
834.082	134.82
834.259	169.64
834.436	100.01
834.612	120.49
834.789	200.36
834.966	165.54
835.143	173.74
835.319	69.29
835.496	93.87
835.673	116.39
835.85	57
836.026	165.54
836.203	100.01
836.38	89.77
836.556	130.73
836.733	106.15
836.909	173.74
837.086	65.19
837.262	54.95
837.439	48.81
837.616	75.43
837.792	75.43
837.968	132.78
838.145	38.57
838.321	102.06
838.498	122.54
838.674	126.63
838.851	75.43
839.027	83.63
839.203	145.06
839.38	77.48
839.556	50.86
839.732	130.73
839.909	85.67
840.085	118.44
840.261	112.3
840.437	122.54
840.614	93.87
840.79	147.11
840.966	130.73
841.142	120.49
841.318	61.1
841.494	75.43
841.671	118.44
841.847	122.54
842.023	85.67
842.199	155.3
842.375	40.62
842.551	85.67
842.727	20.14
842.903	130.73
843.079	120.49
843.255	93.87
843.431	143.02
843.607	120.49
843.783	-4.44
843.959	120.49
844.134	110.25
844.31	163.5
844.486	42.67
844.662	81.58
844.838	50.86
845.013	38.57
845.189	112.3
845.365	69.29
845.541	138.92
845.716	102.06
845.892	128.68
846.068	97.96
846.244	89.77
846.419	177.83
846.595	81.58
846.77	89.77
846.946	54.95
847.122	87.72
847.297	128.68
847.473	16.04
847.648	-8.53
847.824	42.67
847.999	85.67
848.175	69.29
848.35	69.29
848.526	59.05
848.701	61.1
848.876	106.15
849.052	175.78
849.227	69.29
849.403	130.73
849.578	61.1
849.753	87.72
849.929	87.72
850.104	61.1
850.279	71.34
850.454	67.24
850.63	50.86
850.805	118.44
850.98	75.43
851.155	67.24
851.33	59.05
851.505	46.76
851.681	87.72
851.856	48.81
852.031	26.28
852.206	87.72
852.381	20.14
852.556	13.99
852.731	44.71
852.906	57
853.081	59.05
853.256	97.96
853.431	28.33
853.606	48.81
853.781	52.91
853.956	7.85
854.131	81.58
854.305	28.33
854.48	-45.4
854.655	46.76
854.83	36.52
855.005	22.19
855.18	-45.4
855.354	67.24
855.529	93.87
855.704	48.81
855.879	13.99
856.053	24.23
856.228	32.43
856.403	-12.63
856.577	104.11
856.752	59.05
856.926	71.34
857.101	102.06
857.276	-16.73
857.45	-2.39
857.625	-10.58
857.799	22.19
857.974	81.58
858.148	-10.58
858.323	71.34
858.497	30.38
858.672	13.99
858.846	-16.73
859.02	50.86
859.195	40.62
859.369	36.52
859.543	130.73
859.718	87.72
859.892	73.39
860.066	71.34
860.241	50.86
860.415	50.86
860.589	50.86
860.763	50.86
860.938	-20.82
861.112	102.06
861.286	5.8
861.46	89.77
861.634	122.54
861.808	110.25
861.982	-8.53
862.157	-20.82
862.331	11.95
862.505	46.76
862.679	-41.3
862.853	77.48
863.027	9.9
863.201	151.21
863.375	-26.96
863.549	91.82
863.722	63.15
863.896	48.81
864.07	-0.34
864.244	22.19
864.418	71.34
864.592	32.43
864.766	22.19
864.939	63.15
865.113	9.9
865.287	44.71
865.461	-51.54
865.634	-4.44
865.808	24.23
865.982	87.72
866.156	34.47
866.329	-90.45
866.503	20.14
866.676	69.29
866.85	130.73
867.024	46.76
867.197	-24.92
867.371	57
867.544	114.34
867.718	46.76
867.891	61.1
868.065	81.58
868.238	104.11
868.412	44.71
868.585	18.09
868.759	89.77
868.932	-12.63
869.105	34.47
869.279	-12.63
869.452	83.63
869.625	13.99
869.799	-20.82
869.972	16.04
870.145	30.38
870.319	-22.87
870.492	16.04
870.665	-12.63
870.838	9.9
871.011	-0.34
871.185	-37.2
871.358	-47.44
871.531	73.39
871.704	69.29
871.877	-2.39
872.05	79.53
872.223	59.05
872.396	57
872.569	16.04
872.742	-18.77
872.915	73.39
873.088	-53.59
873.261	38.57
873.434	-16.73
873.607	28.33
873.78	69.29
873.953	11.95
874.126	71.34
874.299	79.53
874.471	34.47
874.644	65.19
874.817	-29.01
874.99	44.71
875.163	-10.58
875.335	-12.63
875.508	-29.01
875.681	93.87
875.853	16.04
876.026	-37.2
876.199	63.15
876.371	30.38
876.544	59.05
876.717	38.57
876.889	22.19
877.062	20.14
877.234	-18.77
877.407	30.38
877.579	63.15
877.752	-47.44
877.924	102.06
878.097	81.58
878.269	-16.73
878.442	24.23
878.614	9.9
878.786	24.23
878.959	42.67
879.131	44.71
879.303	-35.16
879.476	-4.44
879.648	112.3
879.82	38.57
879.993	-4.44
880.165	22.19
880.337	-74.07
880.509	102.06
880.681	26.28
880.854	-6.49
881.026	-37.2
881.198	79.53
881.37	-61.78
881.542	-33.11
881.714	-45.4
881.886	9.9
882.058	-29.01
882.23	18.09
882.402	-41.3
882.574	69.29
882.746	36.52
882.918	24.23
883.09	44.71
883.262	50.86
883.434	-33.11
883.606	-39.25
883.778	-8.53
883.95	11.95
884.122	-6.49
884.293	30.38
884.465	-10.58
884.637	83.63
884.809	-10.58
884.98	-14.68
885.152	34.47
885.324	97.96
885.496	-37.2
885.667	50.86
885.839	-43.35
886.011	77.48
886.182	18.09
886.354	-4.44
886.525	9.9
886.697	71.34
886.869	5.8
887.04	-51.54
887.212	1.71
887.383	63.15
887.555	-4.44
887.726	-24.92
887.897	-6.49
888.069	34.47
888.24	-24.92
888.412	32.43
888.583	48.81
888.754	11.95
888.926	-63.83
889.097	28.33
889.268	28.33
889.44	11.95
889.611	-4.44
889.782	-41.3
889.953	-18.77
890.125	48.81
890.296	-18.77
890.467	18.09
890.638	-22.87
890.809	-37.2
890.98	-18.77
891.151	-6.49
891.323	65.19
891.494	52.91
891.665	-14.68
891.836	30.38
892.007	11.95
892.178	71.34
892.349	-18.77
892.52	-18.77
892.691	61.1
892.862	-6.49
893.032	16.04
893.203	38.57
893.374	83.63
893.545	11.95
893.716	-2.39
893.887	18.09
894.057	32.43
894.228	65.19
894.399	5.8
894.57	24.23
894.74	-10.58
894.911	24.23
895.082	20.14
895.253	-63.83
895.423	20.14
895.594	61.1
895.764	9.9
895.935	-26.96
896.106	-39.25
896.276	50.86
896.447	-14.68
896.617	-16.73
896.788	18.09
896.958	-16.73
897.129	50.86
897.299	-2.39
897.47	-14.68
897.64	79.53
897.81	-26.96
897.981	18.09
898.151	-8.53
898.322	7.85
898.492	1.71
898.662	-37.2
898.832	-55.64
899.003	-16.73
899.173	9.9
899.343	52.91
899.513	-72.02
