Data from USB4F104151__55__12-24-05-528.txt Node

Date: Fri Mar 14 12:24:05 EDT 2025
User: louis
Spectrometer: USB4F10415
Trigger mode: 4
Integration Time (sec): 3.500000E-2
Scans to average: 1
Electric dark correction enabled: true
Nonlinearity correction enabled: false
Boxcar width: 0
XAxis mode: Wavelengths
Number of Pixels in Spectrum: 3648
>>>>>Begin Spectral Data<<<<<
178.204	-149.67
178.424	-149.67
178.644	-149.67
178.864	-184.49
179.084	-174.25
179.304	-6.31
179.524	-32.94
179.744	8.02
179.964	20.31
180.184	8.02
180.404	-18.6
180.624	18.26
180.844	-28.84
181.064	-71.85
181.283	-0.17
181.503	108.37
181.723	-4.27
181.943	-10.41
182.163	114.52
182.383	-2.22
182.602	24.4
182.822	91.99
183.042	77.65
183.262	-0.17
183.482	55.12
183.701	34.64
183.921	57.17
184.141	14.17
184.361	53.08
184.58	16.21
184.8	83.8
185.02	14.17
185.239	57.17
185.459	112.47
185.679	-30.89
185.898	24.4
186.118	5.97
186.338	46.93
186.557	44.88
186.777	38.74
186.997	30.55
187.216	36.69
187.436	46.93
187.655	-12.46
187.875	12.12
188.095	73.56
188.314	102.23
188.534	112.47
188.753	55.12
188.973	28.5
189.192	38.74
189.412	63.32
189.631	42.84
189.851	48.98
190.07	44.88
190.29	-24.75
190.509	12.12
190.729	44.88
190.948	61.27
191.168	169.81
191.387	63.32
191.607	-28.84
191.826	120.66
192.045	30.55
192.265	73.56
192.484	20.31
192.704	28.5
192.923	-24.75
193.142	108.37
193.362	28.5
193.581	14.17
193.8	-59.56
194.02	83.8
194.239	1.88
194.458	32.6
194.678	102.23
194.897	12.12
195.116	8.02
195.335	48.98
195.555	-32.94
195.774	59.22
195.993	38.74
196.212	24.4
196.432	16.21
196.651	-6.31
196.87	16.21
197.089	116.56
197.308	128.85
197.528	57.17
197.747	-61.61
197.966	12.12
198.185	141.14
198.404	-0.17
198.623	59.22
198.842	67.41
199.062	1.88
199.281	63.32
199.5	53.08
199.719	71.51
199.938	20.31
200.157	46.93
200.376	51.03
200.595	96.08
200.814	48.98
201.033	30.55
201.252	46.93
201.471	89.94
201.69	-32.94
201.909	36.69
202.128	87.89
202.347	61.27
202.566	5.97
202.785	-49.32
203.004	30.55
203.223	122.71
203.442	87.89
203.661	12.12
203.879	124.76
204.098	100.18
204.317	20.31
204.536	110.42
204.755	59.22
204.974	63.32
205.193	53.08
205.411	36.69
205.63	34.64
205.849	67.41
206.068	-22.7
206.287	10.07
206.505	106.32
206.724	-2.22
206.943	-51.37
207.162	75.6
207.381	71.51
207.599	61.27
207.818	8.02
208.037	83.8
208.255	61.27
208.474	24.4
208.693	36.69
208.911	16.21
209.13	32.6
209.349	48.98
209.567	16.21
209.786	83.8
210.005	79.7
210.223	63.32
210.442	-8.36
210.661	104.28
210.879	124.76
211.098	48.98
211.316	3.93
211.535	116.56
211.753	57.17
211.972	-10.41
212.191	34.64
212.409	59.22
212.628	98.13
212.846	40.79
213.065	59.22
213.283	77.65
213.502	-6.31
213.72	40.79
213.938	-14.51
214.157	-16.55
214.375	79.7
214.594	61.27
214.812	34.64
215.031	32.6
215.249	20.31
215.467	55.12
215.686	46.93
215.904	69.46
216.122	30.55
216.341	100.18
216.559	14.17
216.778	-6.31
216.996	57.17
217.214	69.46
217.432	69.46
217.651	-2.22
217.869	53.08
218.087	22.36
218.306	75.6
218.524	79.7
218.742	-16.55
218.96	10.07
219.179	57.17
219.397	44.88
219.615	38.74
219.833	65.36
220.051	51.03
220.27	75.6
220.488	38.74
220.706	42.84
220.924	-45.23
221.142	73.56
221.36	42.84
221.578	34.64
221.796	81.75
222.015	-26.79
222.233	38.74
222.451	91.99
222.669	65.36
222.887	48.98
223.105	-26.79
223.323	91.99
223.541	-39.08
223.759	81.75
223.977	67.41
224.195	65.36
224.413	85.84
224.631	30.55
224.849	-0.17
225.067	145.24
225.285	3.93
225.503	51.03
225.721	-18.6
225.939	18.26
226.157	38.74
226.375	184.15
226.592	-39.08
226.81	32.6
227.028	126.8
227.246	91.99
227.464	77.65
227.682	42.84
227.9	53.08
228.117	65.36
228.335	135
228.553	71.51
228.771	30.55
228.989	63.32
229.206	61.27
229.424	20.31
229.642	3.93
229.86	10.07
230.077	20.31
230.295	22.36
230.513	61.27
230.731	89.94
230.948	122.71
231.166	186.19
231.384	3.93
231.601	-41.13
231.819	71.51
232.037	67.41
232.254	24.4
232.472	61.27
232.689	8.02
232.907	30.55
233.125	102.23
233.342	22.36
233.56	87.89
233.777	61.27
233.995	75.6
234.213	46.93
234.43	-10.41
234.648	-10.41
234.865	69.46
235.083	44.88
235.3	46.93
235.518	89.94
235.735	89.94
235.953	87.89
236.17	106.32
236.388	5.97
236.605	1.88
236.822	89.94
237.04	36.69
237.257	28.5
237.475	-43.18
237.692	5.97
237.909	10.07
238.127	71.51
238.344	28.5
238.562	38.74
238.779	73.56
238.996	-39.08
239.214	73.56
239.431	69.46
239.648	46.93
239.865	-8.36
240.083	10.07
240.3	-30.89
240.517	22.36
240.735	-2.22
240.952	165.71
241.169	112.47
241.386	55.12
241.603	32.6
241.821	20.31
242.038	102.23
242.255	87.89
242.472	-0.17
242.689	8.02
242.907	44.88
243.124	24.4
243.341	55.12
243.558	32.6
243.775	12.12
243.992	67.41
244.209	89.94
244.426	81.75
244.643	5.97
244.86	-30.89
245.078	-4.27
245.295	120.66
245.512	32.6
245.729	38.74
245.946	16.21
246.163	57.17
246.38	16.21
246.597	73.56
246.814	36.69
247.031	8.02
247.248	57.17
247.464	-12.46
247.681	40.79
247.898	1.88
248.115	-0.17
248.332	18.26
248.549	126.8
248.766	108.37
248.983	69.46
249.2	48.98
249.417	40.79
249.633	-10.41
249.85	1.88
250.067	83.8
250.284	-22.7
250.501	24.4
250.717	171.86
250.934	85.84
251.151	57.17
251.368	51.03
251.585	22.36
251.801	61.27
252.018	42.84
252.235	124.76
252.451	-22.7
252.668	36.69
252.885	28.5
253.102	108.37
253.318	42.84
253.535	67.41
253.752	-12.46
253.968	30.55
254.185	-53.42
254.401	-24.75
254.618	48.98
254.835	-71.85
255.051	81.75
255.268	-8.36
255.484	51.03
255.701	-24.75
255.917	51.03
256.134	16.21
256.351	102.23
256.567	46.93
256.784	51.03
257	14.17
257.217	94.04
257.433	48.98
257.65	96.08
257.866	79.7
258.082	18.26
258.299	-0.17
258.515	71.51
258.732	10.07
258.948	24.4
259.165	48.98
259.381	32.6
259.597	38.74
259.814	-14.51
260.03	-6.31
260.246	46.93
260.463	30.55
260.679	38.74
260.895	10.07
261.112	40.79
261.328	67.41
261.544	22.36
261.761	120.66
261.977	34.64
262.193	42.84
262.409	34.64
262.626	-16.55
262.842	28.5
263.058	100.18
263.274	59.22
263.49	-6.31
263.707	89.94
263.923	71.51
264.139	-14.51
264.355	59.22
264.571	32.6
264.787	22.36
265.004	145.24
265.22	14.17
265.436	18.26
265.652	-20.65
265.868	81.75
266.084	-37.03
266.3	110.42
266.516	57.17
266.732	20.31
266.948	65.36
267.164	-28.84
267.38	112.47
267.596	38.74
267.812	85.84
268.028	40.79
268.244	51.03
268.46	-4.27
268.676	34.64
268.892	71.51
269.108	-18.6
269.324	-57.51
269.54	77.65
269.756	32.6
269.972	-18.6
270.188	102.23
270.403	-2.22
270.619	34.64
270.835	38.74
271.051	57.17
271.267	20.31
271.483	14.17
271.698	38.74
271.914	22.36
272.13	104.28
272.346	57.17
272.562	5.97
272.777	36.69
272.993	65.36
273.209	-6.31
273.425	124.76
273.64	75.6
273.856	69.46
274.072	36.69
274.287	81.75
274.503	77.65
274.719	40.79
274.934	5.97
275.15	-55.47
275.366	-6.31
275.581	51.03
275.797	-2.22
276.012	110.42
276.228	94.04
276.444	20.31
276.659	75.6
276.875	-24.75
277.09	73.56
277.306	79.7
277.521	122.71
277.737	28.5
277.952	55.12
278.168	32.6
278.383	-2.22
278.599	57.17
278.814	51.03
279.03	-20.65
279.245	20.31
279.461	53.08
279.676	75.6
279.892	-10.41
280.107	-32.94
280.322	-32.94
280.538	42.84
280.753	51.03
280.969	81.75
281.184	20.31
281.399	42.84
281.615	-2.22
281.83	61.27
282.045	-71.85
282.26	110.42
282.476	-41.13
282.691	106.32
282.906	-32.94
283.122	118.61
283.337	-37.03
283.552	18.26
283.767	1.88
283.983	102.23
284.198	5.97
284.413	32.6
284.628	28.5
284.843	59.22
285.058	71.51
285.274	59.22
285.489	65.36
285.704	81.75
285.919	44.88
286.134	36.69
286.349	8.02
286.564	34.64
286.779	38.74
286.995	77.65
287.21	-24.75
287.425	1.88
287.64	-32.94
287.855	75.6
288.07	-63.66
288.285	137.04
288.5	42.84
288.715	85.84
288.93	-24.75
289.145	34.64
289.36	75.6
289.575	61.27
289.79	167.76
290.004	36.69
290.219	48.98
290.434	8.02
290.649	-20.65
290.864	75.6
291.079	96.08
291.294	48.98
291.509	-4.27
291.724	-4.27
291.938	-18.6
292.153	44.88
292.368	63.32
292.583	122.71
292.798	38.74
293.012	83.8
293.227	38.74
293.442	22.36
293.657	96.08
293.871	96.08
294.086	1.88
294.301	32.6
294.516	85.84
294.73	10.07
294.945	-47.27
295.16	53.08
295.374	83.8
295.589	61.27
295.804	22.36
296.018	48.98
296.233	159.57
296.447	34.64
296.662	-18.6
296.877	81.75
297.091	42.84
297.306	1.88
297.52	-12.46
297.735	-26.79
297.949	79.7
298.164	5.97
298.378	42.84
298.593	69.46
298.807	-26.79
299.022	34.64
299.236	38.74
299.451	12.12
299.665	34.64
299.88	98.13
300.094	22.36
300.309	42.84
300.523	53.08
300.737	61.27
300.952	81.75
301.166	46.93
301.381	38.74
301.595	-18.6
301.809	10.07
302.024	48.98
302.238	16.21
302.452	46.93
302.667	8.02
302.881	63.32
303.095	-2.22
303.309	20.31
303.524	26.45
303.738	12.12
303.952	32.6
304.166	114.52
304.381	-18.6
304.595	10.07
304.809	-22.7
305.023	-69.8
305.237	65.36
305.452	94.04
305.666	-39.08
305.88	55.12
306.094	-26.79
306.308	100.18
306.522	98.13
306.736	10.07
306.95	139.09
307.164	85.84
307.379	14.17
307.593	73.56
307.807	57.17
308.021	81.75
308.235	12.12
308.449	42.84
308.663	100.18
308.877	143.19
309.091	63.32
309.305	46.93
309.519	-20.65
309.733	89.94
309.947	1.88
310.161	65.36
310.374	63.32
310.588	91.99
310.802	28.5
311.016	69.46
311.23	32.6
311.444	36.69
311.658	59.22
311.872	81.75
312.085	-20.65
312.299	139.09
312.513	75.6
312.727	141.14
312.941	81.75
313.154	67.41
313.368	69.46
313.582	-6.31
313.796	94.04
314.009	18.26
314.223	-0.17
314.437	55.12
314.651	67.41
314.864	40.79
315.078	48.98
315.292	57.17
315.505	46.93
315.719	73.56
315.933	65.36
316.146	20.31
316.36	79.7
316.573	40.79
316.787	40.79
317.001	-20.65
317.214	1.88
317.428	34.64
317.641	-41.13
317.855	32.6
318.068	61.27
318.282	65.36
318.495	79.7
318.709	26.45
318.922	-28.84
319.136	83.8
319.349	20.31
319.563	8.02
319.776	63.32
319.99	-10.41
320.203	77.65
320.417	69.46
320.63	44.88
320.843	67.41
321.057	40.79
321.27	36.69
321.483	-4.27
321.697	85.84
321.91	8.02
322.124	28.5
322.337	48.98
322.55	73.56
322.763	-22.7
322.977	102.23
323.19	36.69
323.403	77.65
323.617	71.51
323.83	61.27
324.043	69.46
324.256	110.42
324.469	8.02
324.683	51.03
324.896	73.56
325.109	28.5
325.322	-16.55
325.535	87.89
325.748	79.7
325.962	85.84
326.175	30.55
326.388	79.7
326.601	53.08
326.814	96.08
327.027	40.79
327.24	91.99
327.453	22.36
327.666	59.22
327.879	30.55
328.092	48.98
328.305	77.65
328.518	36.69
328.731	-16.55
328.944	79.7
329.157	108.37
329.37	40.79
329.583	120.66
329.796	8.02
330.009	5.97
330.222	118.61
330.435	42.84
330.648	59.22
330.861	-8.36
331.073	-28.84
331.286	120.66
331.499	36.69
331.712	87.89
331.925	48.98
332.138	-20.65
332.35	104.28
332.563	-69.8
332.776	42.84
332.989	77.65
333.202	-0.17
333.414	5.97
333.627	91.99
333.84	59.22
334.053	132.95
334.265	-6.31
334.478	28.5
334.691	14.17
334.903	-2.22
335.116	3.93
335.329	36.69
335.541	18.26
335.754	96.08
335.966	14.17
336.179	12.12
336.392	20.31
336.604	3.93
336.817	55.12
337.029	34.64
337.242	100.18
337.454	75.6
337.667	55.12
337.88	57.17
338.092	-8.36
338.305	28.5
338.517	-6.31
338.729	-39.08
338.942	48.98
339.154	53.08
339.367	12.12
339.579	44.88
339.792	34.64
340.004	34.64
340.217	67.41
340.429	38.74
340.641	-0.17
340.854	-22.7
341.066	10.07
341.278	32.6
341.491	59.22
341.703	34.64
341.915	20.31
342.128	61.27
342.34	53.08
342.552	-16.55
342.764	-16.55
342.977	-34.99
343.189	55.12
343.401	24.4
343.613	-18.6
343.826	-4.27
344.038	77.65
344.25	83.8
344.462	28.5
344.674	36.69
344.886	30.55
345.099	28.5
345.311	30.55
345.523	67.41
345.735	-34.99
345.947	48.98
346.159	5.97
346.371	3.93
346.583	12.12
346.795	34.64
347.007	1.88
347.219	89.94
347.431	-8.36
347.643	57.17
347.855	24.4
348.067	132.95
348.279	26.45
348.491	69.46
348.703	128.85
348.915	20.31
349.127	32.6
349.339	73.56
349.551	1.88
349.763	14.17
349.975	53.08
350.187	130.9
350.399	75.6
350.61	-8.36
350.822	44.88
351.034	-6.31
351.246	22.36
351.458	48.98
351.669	18.26
351.881	104.28
352.093	18.26
352.305	34.64
352.517	51.03
352.728	51.03
352.94	36.69
353.152	65.36
353.363	-43.18
353.575	96.08
353.787	42.84
353.999	61.27
354.21	53.08
354.422	-16.55
354.633	5.97
354.845	5.97
355.057	34.64
355.268	32.6
355.48	87.89
355.692	12.12
355.903	18.26
356.115	34.64
356.326	-53.42
356.538	8.02
356.749	75.6
356.961	104.28
357.172	57.17
357.384	61.27
357.595	102.23
357.807	12.12
358.018	36.69
358.23	-18.6
358.441	106.32
358.653	48.98
358.864	36.69
359.075	65.36
359.287	55.12
359.498	75.6
359.709	8.02
359.921	-24.75
360.132	44.88
360.344	104.28
360.555	91.99
360.766	124.76
360.977	28.5
361.189	-2.22
361.4	40.79
361.611	61.27
361.823	98.13
362.034	71.51
362.245	-45.23
362.456	81.75
362.667	139.09
362.879	108.37
363.09	-2.22
363.301	14.17
363.512	91.99
363.723	59.22
363.935	-55.47
364.146	71.51
364.357	59.22
364.568	14.17
364.779	-8.36
364.99	75.6
365.201	18.26
365.412	100.18
365.623	67.41
365.834	22.36
366.045	65.36
366.256	16.21
366.467	36.69
366.678	-8.36
366.889	-39.08
367.1	-57.51
367.311	8.02
367.522	-16.55
367.733	46.93
367.944	28.5
368.155	57.17
368.366	63.32
368.577	69.46
368.788	96.08
368.999	-8.36
369.209	28.5
369.42	137.04
369.631	108.37
369.842	36.69
370.053	-16.55
370.264	36.69
370.474	42.84
370.685	67.41
370.896	73.56
371.107	73.56
371.317	91.99
371.528	20.31
371.739	122.71
371.95	83.8
372.16	106.32
372.371	18.26
372.582	1.88
372.792	102.23
373.003	61.27
373.214	94.04
373.424	69.46
373.635	98.13
373.846	116.56
374.056	22.36
374.267	-24.75
374.477	83.8
374.688	24.4
374.898	61.27
375.109	53.08
375.319	53.08
375.53	130.9
375.74	75.6
375.951	-12.46
376.161	22.36
376.372	96.08
376.582	22.36
376.793	98.13
377.003	34.64
377.214	42.84
377.424	81.75
377.635	71.51
377.845	94.04
378.055	122.71
378.266	-37.03
378.476	38.74
378.686	36.69
378.897	55.12
379.107	65.36
379.317	24.4
379.528	30.55
379.738	48.98
379.948	-73.9
380.158	55.12
380.369	141.14
380.579	46.93
380.789	-26.79
380.999	89.94
381.21	61.27
381.42	118.61
381.63	-4.27
381.84	75.6
382.05	3.93
382.261	65.36
382.471	67.41
382.681	51.03
382.891	91.99
383.101	-2.22
383.311	-4.27
383.521	28.5
383.731	77.65
383.941	75.6
384.151	38.74
384.361	-24.75
384.571	69.46
384.781	79.7
384.991	3.93
385.201	77.65
385.411	102.23
385.621	38.74
385.831	67.41
386.041	69.46
386.251	69.46
386.461	75.6
386.671	87.89
386.881	55.12
387.091	77.65
387.301	53.08
387.511	63.32
387.72	65.36
387.93	32.6
388.14	-8.36
388.35	81.75
388.56	143.19
388.769	143.19
388.979	48.98
389.189	36.69
389.399	69.46
389.609	73.56
389.818	48.98
390.028	24.4
390.238	73.56
390.447	20.31
390.657	91.99
390.867	81.75
391.076	8.02
391.286	3.93
391.496	48.98
391.705	89.94
391.915	67.41
392.125	89.94
392.334	24.4
392.544	87.89
392.753	63.32
392.963	65.36
393.172	83.8
393.382	36.69
393.591	57.17
393.801	63.32
394.01	118.61
394.22	30.55
394.429	-16.55
394.639	42.84
394.848	126.8
395.058	26.45
395.267	75.6
395.477	67.41
395.686	40.79
395.895	34.64
396.105	137.04
396.314	48.98
396.524	69.46
396.733	67.41
396.942	161.62
397.152	114.52
397.361	151.38
397.57	114.52
397.78	96.08
397.989	36.69
398.198	112.47
398.407	87.89
398.617	96.08
398.826	63.32
399.035	53.08
399.244	46.93
399.453	81.75
399.663	87.89
399.872	46.93
400.081	124.76
400.29	48.98
400.499	102.23
400.708	89.94
400.917	139.09
401.127	48.98
401.336	22.36
401.545	112.47
401.754	124.76
401.963	173.91
402.172	42.84
402.381	46.93
402.59	67.41
402.799	-14.51
403.008	122.71
403.217	118.61
403.426	157.52
403.635	55.12
403.844	114.52
404.053	120.66
404.262	114.52
404.471	173.91
404.68	77.65
404.888	145.24
405.097	161.62
405.306	108.37
405.515	75.6
405.724	159.57
405.933	83.8
406.142	94.04
406.35	145.24
406.559	110.42
406.768	67.41
406.977	128.85
407.185	151.38
407.394	202.58
407.603	67.41
407.812	212.82
408.02	85.84
408.229	120.66
408.438	108.37
408.646	75.6
408.855	116.56
409.064	212.82
409.272	151.38
409.481	178
409.69	159.57
409.898	225.11
410.107	165.71
410.315	208.72
410.524	91.99
410.733	245.59
410.941	114.52
411.15	204.63
411.358	139.09
411.567	302.93
411.775	204.63
411.984	200.53
412.192	227.15
412.401	237.39
412.609	368.46
412.818	325.46
413.026	255.83
413.234	233.3
413.443	288.59
413.651	264.02
413.86	313.17
414.068	333.65
414.276	460.62
414.485	292.69
414.693	397.14
414.901	452.43
415.11	431.95
415.318	436.05
415.526	403.28
415.734	403.28
415.943	448.33
416.151	489.29
416.359	431.95
416.567	495.44
416.776	567.12
416.984	522.06
417.192	632.65
417.4	526.16
417.608	565.07
417.817	550.73
418.025	624.46
418.233	720.71
418.441	573.26
418.649	685.9
418.857	808.78
419.065	806.73
419.273	622.41
419.481	786.25
419.689	722.76
419.897	839.5
420.105	769.87
420.313	927.56
420.521	902.98
420.729	874.31
420.937	915.27
421.145	1034.05
421.353	993.09
421.561	1060.68
421.769	1152.84
421.977	1283.91
422.185	1150.79
422.393	1326.91
422.601	1228.61
422.809	1394.5
423.017	1302.34
423.224	1347.39
423.432	1544
423.64	1388.35
423.848	1548.09
424.056	1517.37
424.263	1711.93
424.471	1597.24
424.679	1558.33
424.887	1648.44
425.094	1830.71
425.302	1771.32
425.51	1863.48
425.718	1980.22
425.925	1949.5
426.133	2023.22
426.341	2135.86
426.548	2193.2
426.756	2109.24
426.964	2375.47
427.171	2344.75
427.379	2457.39
427.586	2522.93
427.794	2537.26
428.001	2617.13
428.209	2662.19
428.417	2678.57
428.624	2897.71
428.832	2957.1
429.039	2809.64
429.247	3000.1
429.454	3182.37
429.662	3374.88
429.869	3165.99
430.076	3387.17
430.284	3249.96
430.491	3454.75
430.699	3559.2
430.906	3641.12
431.114	3725.08
431.321	3757.85
431.528	3890.97
431.736	4089.62
431.943	4343.57
432.15	4300.56
432.358	4171.54
432.565	4480.78
432.772	4425.49
432.979	4593.42
433.187	4744.97
433.394	4912.91
433.601	5195.53
433.808	5078.79
434.016	5111.56
434.223	5365.51
434.43	5703.42
434.637	5519.11
434.844	5818.11
435.052	6053.62
435.259	5889.79
435.466	6035.19
435.673	5877.5
435.88	6201.08
436.087	6770.41
436.294	6547.19
436.501	6489.84
436.708	6518.51
436.915	6938.35
437.122	7227.11
437.329	7137
437.537	7319.27
437.743	7542.5
437.95	7403.24
438.157	7687.9
438.364	8097.5
438.571	8017.63
438.778	8117.98
438.985	8998.6
439.192	8410.84
439.399	8881.87
439.606	8672.98
439.813	9096.91
440.02	9557.7
440.227	9500.36
440.433	9408.2
440.64	9776.83
440.847	9647.81
441.054	9893.57
441.261	10565.3
441.467	10364.6
441.674	10778.29
441.881	10983.09
442.088	10940.08
442.294	10774.19
442.501	11101.87
442.708	11493.03
442.914	11964.06
443.121	12330.65
443.328	12048.03
443.534	12867.22
443.741	12494.49
443.948	12435.1
444.154	13411.98
444.361	13395.59
444.568	13282.95
444.774	13264.52
444.981	13172.36
445.187	13893.25
445.394	14431.87
445.6	14274.17
445.807	15779.43
446.013	15013.49
446.22	15224.43
446.426	16021.09
446.633	16137.82
446.839	16426.59
447.046	16080.48
447.252	16711.25
447.459	16768.6
447.665	16750.17
447.871	17350.22
448.078	18165.31
448.284	17477.19
448.491	17788.49
448.697	18435.64
448.903	18851.38
449.11	18988.6
449.316	18611.77
449.522	19123.76
449.728	19428.91
449.935	19486.25
450.141	19723.82
450.347	20039.2
450.553	19291.69
450.76	19793.45
450.966	20358.69
451.172	20223.52
451.378	20708.89
451.584	20264.48
451.791	20649.5
451.997	20909.59
452.203	20893.21
452.409	21052.95
452.615	21059.09
452.821	20104.74
453.027	19961.38
453.233	21075.48
453.44	20315.68
453.646	20225.57
453.852	20383.26
454.058	20651.55
454.264	20047.4
454.47	20561.44
454.676	20229.66
454.882	20858.39
455.088	18775.61
455.294	19465.77
455.5	19629.61
455.705	19658.28
455.911	19236.4
456.117	18724.41
456.323	18288.19
456.529	17241.68
456.735	18069.06
456.941	17634.89
457.147	17362.51
457.352	16682.58
457.558	16799.32
457.764	16649.82
457.97	16307.8
458.176	16082.53
458.381	15990.37
458.587	15339.12
458.793	15378.03
458.999	14317.18
459.204	15416.94
459.41	14839.41
459.616	14204.54
459.821	14128.77
460.027	14093.95
460.233	13756.04
460.438	12910.22
460.644	13301.39
460.85	12482.2
461.055	12435.1
461.261	12498.58
461.466	11364.01
461.672	11364.01
461.878	11796.13
462.083	11034.28
462.289	10890.93
462.494	10622.64
462.7	10356.41
462.905	10073.79
463.111	10387.13
463.316	10374.84
463.522	10254.01
463.727	10165.95
463.932	10008.25
464.138	10055.36
464.343	9955.01
464.549	9641.67
464.754	10086.08
464.959	9955.01
465.165	9801.41
465.37	9531.08
465.575	9205.45
465.781	9504.45
465.986	9801.41
466.191	9330.37
466.397	9088.71
466.602	8709.84
466.807	9041.61
467.012	9002.7
467.218	9301.7
467.423	9074.38
467.628	8996.56
467.833	9328.33
468.038	9000.65
468.244	8769.23
468.449	9168.59
468.654	8752.85
468.859	8640.21
469.064	8634.07
469.269	8492.76
469.474	8378.07
469.679	8656.59
469.885	8281.81
470.09	8378.07
470.295	8206.04
470.5	8064.73
470.705	8269.53
470.91	7958.24
471.115	7904.99
471.32	8132.31
471.525	7993.05
471.73	7935.71
471.935	7970.52
472.139	7567.07
472.344	7438.05
472.549	7409.38
472.754	7579.36
472.959	7454.44
473.164	7122.66
473.369	7022.31
473.574	7333.61
473.778	7208.68
473.983	7169.77
474.188	7145.19
474.393	6969.07
474.598	6903.53
474.802	6903.53
475.007	6811.37
475.212	6909.68
475.417	6661.87
475.621	6543.09
475.826	6686.45
476.031	6543.09
476.235	6461.17
476.44	6309.62
476.645	6268.66
476.849	6424.31
477.054	6225.65
477.259	6018.81
477.463	6162.17
477.668	5920.51
477.872	6192.89
478.077	6170.36
478.282	5672.7
478.486	5703.42
478.691	5740.29
478.895	5646.08
479.1	5617.41
479.304	5816.06
479.509	5484.29
479.713	5508.87
479.918	5515.01
480.122	5367.56
480.326	5338.88
480.531	5463.81
480.735	5400.32
480.94	5568.26
481.144	5543.68
481.348	5123.85
481.553	5390.08
481.757	5193.48
481.961	5256.97
482.166	5297.92
482.37	5314.31
482.574	5181.19
482.778	5443.33
482.983	5416.71
483.187	5236.49
483.391	5371.65
483.595	5218.05
483.8	5166.85
484.004	5308.16
484.208	5306.12
484.412	5158.66
484.616	5426.95
484.821	5302.02
485.025	5261.06
485.229	5242.63
485.433	5097.22
485.637	5265.16
485.841	5127.94
486.045	5191.43
486.249	5056.26
486.453	5209.86
486.657	5306.12
486.861	5277.44
487.065	5027.59
487.269	5134.09
487.473	5082.89
487.677	5287.68
487.881	5328.64
488.085	5232.39
488.289	5338.88
488.493	5197.57
488.697	5394.18
488.901	5424.9
489.105	5332.74
489.309	5158.66
489.512	5340.93
489.716	5283.59
489.92	5390.08
490.124	5177.09
490.328	5324.55
490.531	5359.36
490.735	5525.25
490.939	5412.61
491.143	5383.94
491.346	5476.1
491.55	5621.5
491.754	5648.13
491.958	5598.98
492.161	5459.71
492.365	5517.06
492.569	5506.82
492.772	5617.41
492.976	5742.33
493.18	5521.15
493.383	5703.42
493.587	5584.64
493.79	5701.37
493.994	5764.86
494.197	5940.99
494.401	5979.9
494.605	5818.11
494.808	5938.94
495.012	5963.51
495.215	6061.82
495.419	6035.19
495.622	5998.33
495.825	6104.82
496.029	6278.9
496.232	6356.72
496.436	6199.03
496.639	6393.59
496.843	6450.93
497.046	6430.45
497.249	6547.19
497.453	6567.67
497.656	6768.37
497.859	6729.45
498.063	6708.97
498.266	6862.57
498.469	6862.57
498.673	6706.93
498.876	7053.03
499.079	7165.67
499.282	7003.88
499.485	7280.36
499.689	7349.99
499.892	7483.11
500.095	7423.72
500.298	7675.62
500.501	7587.55
500.705	7747.3
500.908	7966.43
501.111	7837.41
501.314	8126.17
501.517	8103.64
501.72	8292.05
501.923	8144.6
502.126	8537.81
502.329	8681.17
502.532	8611.54
502.735	8586.96
502.938	8826.57
503.141	8931.02
503.344	8965.84
503.547	9201.35
503.75	9107.15
503.953	9457.35
504.156	9346.76
504.359	9504.45
504.562	9649.86
504.765	9686.72
504.968	9936.57
505.17	10045.12
505.373	10073.79
505.576	10229.43
505.779	10356.41
505.982	10378.93
506.185	10583.73
506.387	10643.12
506.59	10696.37
506.793	11017.9
506.996	10940.08
507.198	11022
507.401	11196.07
507.604	11335.34
507.807	11515.56
508.009	11665.06
508.212	11839.14
508.415	12084.89
508.617	11855.52
508.82	12050.08
509.022	12041.89
509.225	12404.38
509.428	12476.05
509.63	12678.8
509.833	12537.49
510.035	13076.11
510.238	13022.86
510.44	13029.01
510.643	13336.2
510.845	13530.76
511.048	13385.35
511.25	13926.02
511.453	13526.66
511.655	14300.8
511.858	14384.76
512.06	14556.79
512.262	14462.58
512.465	14587.51
512.667	14958.19
512.87	15079.02
513.072	14952.05
513.274	15197.81
513.477	15515.24
513.679	15693.41
513.881	15717.99
514.084	16049.76
514.286	15961.7
514.488	16109.15
514.69	16488.03
514.893	16535.13
515.095	16883.28
515.297	17094.22
515.499	17122.9
515.701	17153.62
515.904	17768.01
516.106	17610.31
516.308	17901.12
516.51	18230.85
516.712	18075.2
516.914	18130.5
517.116	18703.93
517.318	18646.58
517.52	19029.55
517.722	19170.86
517.925	19371.57
518.127	19637.8
518.329	19801.64
518.531	19533.36
518.733	20026.92
518.935	20268.58
519.136	20307.49
519.338	20739.61
519.54	20774.42
519.742	20977.17
519.944	21298.7
520.146	21841.42
520.348	21814.79
520.55	22042.12
520.752	22029.83
520.954	22291.97
521.155	22257.15
521.357	22582.78
521.559	23180.79
521.761	23283.19
521.963	23293.43
522.164	23455.22
522.366	23457.26
522.568	23864.81
522.77	23821.8
522.971	24436.19
523.173	24313.31
523.375	24784.35
523.576	24460.77
523.778	24520.16
523.98	25228.76
524.181	25169.37
524.383	25101.78
524.584	25730.51
524.786	25550.29
524.988	25603.53
525.189	25888.2
525.391	25859.53
525.592	26414.53
525.794	26469.83
525.995	26707.39
526.197	26492.35
526.398	26705.34
526.6	27094.46
526.801	27284.92
527.003	27233.72
527.204	27239.86
527.406	27342.26
527.607	27631.02
527.808	28042.67
528.01	27243.96
528.211	27647.41
528.412	28331.43
528.614	28286.37
528.815	28284.33
529.016	28720.54
529.218	28335.52
529.419	28456.36
529.62	28646.82
529.822	28519.84
530.023	28937.63
530.224	29033.88
530.425	28870.04
530.626	28728.73
530.828	28824.99
531.029	29257.11
531.23	29031.83
531.431	29296.02
531.632	29595.03
531.833	29666.7
532.035	29607.31
532.236	29060.51
532.437	29869.45
532.638	29293.97
532.839	29560.21
533.04	29722
533.241	29578.64
533.442	29773.2
533.643	30031.24
533.844	30176.65
534.045	29953.42
534.246	29638.03
534.447	29992.33
534.648	29957.52
534.849	30018.96
535.05	30045.58
535.251	30133.64
535.451	30117.26
535.652	29918.6
535.853	30195.08
536.054	30391.69
536.255	30592.39
536.456	29914.51
536.657	30393.73
536.857	30291.34
537.058	30211.46
537.259	30307.72
537.46	30426.5
537.66	30479.75
537.861	30029.2
538.062	30281.1
538.263	30311.81
538.463	30115.21
538.664	30068.11
538.865	30551.43
539.065	30219.66
539.266	29750.67
539.466	30207.37
539.667	30027.15
539.868	30412.17
540.068	30311.81
540.269	30182.79
540.469	30266.76
540.67	30010.76
540.87	30334.34
541.071	30121.35
541.271	30086.54
541.472	30174.6
541.672	30096.78
541.873	30031.24
542.073	29863.31
542.274	30313.86
542.474	30496.13
542.675	29769.1
542.875	30492.04
543.075	30109.07
543.276	29930.89
543.476	30303.62
543.676	29992.33
543.877	30094.73
544.077	30221.7
544.277	30330.25
544.478	30299.53
544.678	30563.71
544.878	30471.56
545.078	30125.45
545.279	29941.13
545.479	29855.12
545.679	30334.34
545.879	30283.14
546.079	29973.9
546.28	29793.68
546.48	30021
546.68	30324.1
546.88	30309.77
547.08	30123.4
547.28	30033.29
547.48	29783.44
547.68	30150.03
547.88	29885.84
548.081	30000.52
548.281	30152.07
548.481	29853.07
548.681	30373.25
548.881	30035.34
549.081	30139.79
549.28	29914.51
549.48	30229.9
549.68	29785.49
549.88	30653.83
550.08	30008.72
550.28	30016.91
550.48	30115.21
550.68	30246.28
550.88	29748.62
551.08	29963.66
551.279	30047.63
551.479	29658.51
551.679	30031.24
551.879	30197.13
552.079	29861.26
552.278	29904.27
552.478	29943.18
552.678	29959.56
552.878	29875.6
553.077	29980.04
553.277	29666.7
553.477	30307.72
553.676	29699.47
553.876	29814.16
554.076	29703.57
554.275	29939.08
554.475	29496.72
554.674	29883.79
554.874	29832.59
555.074	29498.77
555.273	29752.72
555.473	29433.24
555.672	29414.8
555.872	29588.88
556.071	29365.65
556.271	29584.79
556.47	29429.14
556.67	28900.76
556.869	29103.51
557.068	29412.76
557.268	29119.9
557.467	29093.27
557.667	29177.24
557.866	29115.8
558.065	28857.76
558.265	29097.37
558.464	28687.78
558.663	29162.9
558.863	28863.9
559.062	29142.42
559.261	28689.82
559.461	28722.59
559.66	28417.44
559.859	28665.25
560.058	28294.57
560.258	28687.78
560.457	28179.88
560.656	28636.58
560.855	28321.19
561.054	27821.48
561.253	28020.14
561.453	28251.56
561.652	28356
561.851	28124.58
562.05	28036.52
562.249	27821.48
562.448	28210.6
562.647	27725.23
562.846	27872.68
563.045	27844.01
563.244	27422.13
563.443	27872.68
563.642	27198.9
563.841	27338.16
564.04	27127.22
564.239	27252.15
564.438	27198.9
564.637	27188.66
564.836	27045.3
565.035	26963.39
565.234	26758.59
565.432	26854.84
565.631	26871.23
565.83	26795.45
566.029	26744.25
566.228	26650.05
566.427	26580.42
566.625	26281.41
566.824	26246.6
567.023	26398.15
567.222	25521.62
567.42	26174.92
567.619	26219.97
567.818	26027.46
568.016	25925.07
568.215	25970.12
568.414	25699.79
568.612	25912.78
568.811	25415.12
569.01	25370.07
569.208	24935.9
569.407	25325.01
569.605	25134.55
569.804	25040.34
570.002	24878.55
570.201	24983
570.4	24896.99
570.598	24735.2
570.797	24305.12
570.995	24622.56
571.193	24329.7
571.392	24722.91
571.59	24323.55
571.789	24092.13
571.987	24454.62
572.186	24131.05
572.384	23961.06
572.582	24069.61
572.781	24081.89
572.979	23670.25
573.177	23938.54
573.376	23842.28
573.574	23252.47
573.772	23512.56
573.971	23397.87
574.169	23188.98
574.367	22765.05
574.565	23358.96
574.763	22978.04
574.962	22808.06
575.16	22760.95
575.358	22892.02
575.556	22525.44
575.754	22840.82
575.952	22461.95
576.151	22685.18
576.349	22451.71
576.547	22394.37
576.745	22478.33
576.943	22242.82
577.141	22183.43
577.339	22050.31
577.537	22050.31
577.735	22101.51
577.933	21775.88
578.131	21675.53
578.329	21702.15
578.527	21534.22
578.725	21638.67
578.923	21730.83
579.121	21485.07
579.319	21171.73
579.516	21186.07
579.714	21333.52
579.912	21112.34
580.11	21036.56
580.308	21042.71
580.506	21102.1
580.704	20753.94
580.901	20784.66
581.099	20674.07
581.297	20641.31
581.495	20788.76
581.692	20762.14
581.89	20287.01
582.088	20655.64
582.285	20102.69
582.483	20495.9
582.681	20418.08
582.878	20131.36
583.076	20035.11
583.274	20018.72
583.471	20151.84
583.669	19670.57
583.866	19529.26
584.064	19865.13
584.262	19629.61
584.459	19676.71
584.657	19435.05
584.854	19901.99
585.052	19316.27
585.249	19486.25
585.447	19529.26
585.644	19195.44
585.841	19367.47
586.039	19338.8
586.236	19201.58
586.434	18935.35
586.631	19068.47
586.828	19021.36
587.026	19025.46
587.223	18857.53
587.42	18759.22
587.618	18804.28
587.815	18785.85
588.012	18679.35
588.21	18691.64
588.407	18640.44
588.604	18552.38
588.801	18581.05
588.999	18163.26
589.196	18226.75
589.393	18005.57
589.59	18202.18
589.787	17995.33
589.984	18034.24
590.182	17911.36
590.379	17980.99
590.576	17710.66
590.773	18064.96
590.97	17530.44
591.167	17649.22
591.364	17532.49
591.561	17495.63
591.758	17407.56
591.955	17311.31
592.152	17290.83
592.349	17141.33
592.546	17567.31
592.743	17192.53
592.94	16793.17
593.137	17075.79
593.334	17145.42
593.531	16821.84
593.727	17071.7
593.924	17122.9
594.121	16666.2
594.318	16838.23
594.515	16660.06
594.712	17030.74
594.908	16459.35
595.105	16762.45
595.302	16363.1
595.499	16799.32
595.696	16397.92
595.892	16356.96
596.089	16807.51
596.286	16432.73
596.482	16094.82
596.679	16469.59
596.876	16211.55
597.072	16123.49
597.269	16160.35
597.466	16047.71
597.662	16082.53
597.859	15867.49
598.055	16000.61
598.252	15814.24
598.448	15662.69
598.645	15566.44
598.841	15562.34
599.038	15560.3
599.234	15322.73
599.431	15332.97
599.627	15287.92
599.824	15554.15
600.02	15443.56
600.217	15554.15
600.413	15076.98
600.609	15033.97
600.806	15066.74
601.002	15318.64
601.198	14677.62
601.395	14804.6
601.591	14872.18
601.787	15189.61
601.984	14839.41
602.18	15058.54
602.376	14870.13
602.572	14739.06
602.769	14659.19
602.965	14573.17
603.161	14700.15
603.357	14511.74
603.553	14597.75
603.75	14382.71
603.946	14448.25
604.142	14298.75
604.338	14278.27
604.534	14304.89
604.73	14358.14
604.926	14096
605.122	13964.93
605.318	14114.43
605.514	13903.49
605.71	13966.98
605.906	13919.87
606.102	13862.53
606.298	14030.46
606.494	13954.69
606.69	13856.39
606.886	13592.2
607.082	13426.31
607.278	13790.85
607.474	13653.64
607.67	13702.79
607.866	13424.26
608.062	13735.56
608.257	13416.07
608.453	13442.7
608.649	13629.06
608.845	13393.54
609.041	13305.48
609.236	13274.76
609.432	13348.49
609.628	13391.5
609.824	13356.68
610.019	13059.73
610.215	13303.43
610.411	13231.76
610.606	12996.24
610.802	13041.29
610.998	12873.36
611.193	12764.82
611.389	12934.8
611.584	12676.76
611.78	12760.72
611.976	12764.82
612.171	12809.87
612.367	12816.02
612.562	12535.45
612.758	12441.24
612.953	12508.82
613.149	12787.35
613.344	12396.18
613.539	12682.9
613.735	12654.23
613.93	12517.01
614.126	12498.58
614.321	12568.21
614.517	12478.1
614.712	12211.87
614.907	12385.94
615.103	12375.7
615.298	12222.11
615.493	12560.02
615.688	12134.04
615.884	12666.52
616.079	12123.8
616.274	12177.05
616.47	12082.84
616.665	12043.93
616.86	12371.61
617.055	11941.54
617.25	12064.41
617.445	12138.14
617.641	11630.24
617.836	12166.81
618.031	11955.87
618.226	11820.7
618.421	11830.94
618.616	11882.14
618.811	11785.89
619.006	11710.11
619.201	11482.79
619.396	11609.76
619.591	11302.57
619.786	11644.58
619.981	11292.33
620.176	11415.21
620.371	11296.42
620.566	11191.98
620.761	11292.33
620.956	11148.97
621.151	11191.98
621.346	11159.21
621.541	10956.46
621.735	11067.05
621.93	10788.53
622.125	11079.34
622.32	10684.08
622.515	10786.48
622.709	10649.27
622.904	10743.47
623.099	10591.92
623.294	10614.45
623.488	10403.51
623.683	10655.41
623.878	10309.3
624.072	10282.68
624.267	10495.67
624.462	10276.54
624.656	10172.09
624.851	10127.03
625.046	10217.15
625.24	10106.56
625.435	9995.96
625.629	10041.02
625.824	9871.04
626.018	9985.72
626.213	9629.38
626.407	9973.44
626.602	9524.93
626.796	9772.74
626.991	9633.47
627.185	9512.64
627.38	9516.74
627.574	9383.62
627.768	9473.73
627.963	9141.96
628.157	9150.15
628.352	9324.23
628.546	9010.89
628.74	9279.18
628.935	9125.58
629.129	9037.52
629.323	8902.35
629.517	8922.83
629.712	9043.66
629.906	8787.66
630.1	8658.64
630.294	8685.26
630.489	8677.07
630.683	8865.49
630.877	8509.14
631.071	8576.72
631.265	8511.19
631.459	8308.44
631.653	8488.66
631.848	8339.16
632.042	8277.72
632.236	8265.43
632.43	8318.68
632.624	8197.85
632.818	8187.61
633.012	8199.9
633.206	7978.72
633.4	8056.54
633.594	7991
633.788	8017.63
633.982	7941.85
634.176	7790.3
634.369	8013.53
634.563	7823.07
634.757	7775.97
634.951	7743.2
635.145	7790.3
635.339	7560.93
635.533	7657.18
635.726	7497.44
635.92	7444.2
636.114	7362.28
636.308	7364.32
636.501	7192.3
636.695	7321.32
636.889	7218.92
637.083	7270.12
637.276	7319.27
637.47	7124.71
637.664	7157.48
637.857	7018.22
638.051	7122.66
638.244	6942.44
638.438	6973.16
638.632	6991.59
638.825	6870.76
639.019	6866.67
639.212	6645.49
639.406	6854.38
639.599	6831.85
639.793	6743.79
639.986	6618.86
640.18	6629.1
640.373	6528.75
640.567	6620.91
640.76	6422.26
640.954	6457.07
641.147	6504.18
641.34	6283
641.534	6571.76
641.727	6170.36
641.92	6379.25
642.114	6170.36
642.307	6360.82
642.5	6225.65
642.694	5969.66
642.887	6076.15
643.08	6362.87
643.273	6192.89
643.467	5914.36
643.66	5822.2
643.853	5869.31
644.046	5865.21
644.239	5887.74
644.432	5867.26
644.626	5836.54
644.819	5742.33
645.012	5766.91
645.205	5869.31
645.398	5670.65
645.591	5799.68
645.784	5689.09
645.977	5484.29
646.17	5580.54
646.363	5469.95
646.556	5453.57
646.749	5437.19
646.942	5545.73
647.135	5539.58
647.328	5302.02
647.521	5390.08
647.714	5424.9
647.907	5338.88
648.099	5269.25
648.292	5332.74
648.485	5183.24
648.678	5168.9
648.871	5265.16
649.064	5041.93
649.256	5072.65
649.449	5123.85
649.642	5007.11
649.835	4972.3
650.027	4892.43
650.22	4914.95
650.413	4980.49
650.605	4941.58
650.798	4861.71
650.991	4857.61
651.183	4908.81
651.376	4794.12
651.568	4757.26
651.761	4787.98
651.954	4708.11
652.146	4716.3
652.339	4687.63
652.531	4910.86
652.724	4734.73
652.916	4423.44
653.109	4370.19
653.301	4587.28
653.494	4683.53
653.686	4513.55
653.879	4597.52
654.071	4620.05
654.263	4448.02
654.456	4456.21
654.648	4384.53
654.84	4484.88
655.033	4495.12
655.225	4386.58
655.417	4368.15
655.61	4310.8
655.802	4429.59
655.994	4329.24
656.186	4378.39
656.379	4261.65
656.571	4349.71
656.763	4038.42
656.955	4110.1
657.148	4110.1
657.34	4161.3
657.532	3976.98
657.724	4163.35
657.916	3903.26
658.108	4114.2
658.3	3993.37
658.492	4028.18
658.684	3903.26
658.876	3929.88
659.068	3909.4
659.26	3807
659.452	3995.42
659.644	3946.27
659.836	3950.36
660.028	3784.48
660.22	3622.69
660.412	3825.43
660.604	3843.87
660.796	3835.67
660.988	3753.76
661.18	3663.65
661.372	3653.41
661.563	3809.05
661.755	3634.97
661.947	3653.41
662.139	3755.8
662.331	3673.89
662.522	3692.32
662.714	3702.56
662.906	3424.03
663.097	3548.96
663.289	3458.85
663.481	3608.35
663.673	3508
663.864	3594.01
664.056	3430.18
664.247	3403.55
664.439	3413.79
664.631	3333.92
664.822	3460.9
665.014	3536.67
665.205	3262.24
665.397	3417.89
665.588	3286.82
665.78	3417.89
665.971	3532.58
666.163	3456.8
666.354	3313.44
666.546	3249.96
666.737	3313.44
666.929	3315.49
667.12	3200.8
667.311	3313.44
667.503	3209
667.694	3284.77
667.885	3358.5
668.077	3209
668.268	3182.37
668.459	3270.44
668.651	3143.46
668.842	3243.81
669.033	3161.89
669.224	3184.42
669.416	3288.87
669.607	3168.04
669.798	3127.08
669.989	3360.55
670.18	3182.37
670.371	3143.46
670.563	3086.12
670.754	3147.56
670.945	3206.95
671.136	3059.49
671.327	3204.9
671.518	3219.24
671.709	3151.65
671.9	3163.94
672.091	3165.99
672.282	3172.13
672.473	3043.11
672.664	3196.71
672.855	3133.22
673.046	3047.21
673.237	3157.8
673.428	3028.78
673.619	2957.1
673.809	3122.98
674	2912.04
674.191	3032.87
674.382	3075.88
674.573	3163.94
674.764	3057.45
674.954	3108.65
675.145	3047.21
675.336	3075.88
675.527	3153.7
675.717	3055.4
675.908	3008.3
676.099	2957.1
676.289	3192.61
676.48	3020.58
676.671	3026.73
676.861	3039.01
677.052	3010.34
677.243	3065.64
677.433	3043.11
677.624	3018.54
677.814	3055.4
678.005	3098.41
678.195	3129.13
678.386	3079.97
678.576	3020.58
678.767	3055.4
678.957	3180.32
679.148	3110.69
679.338	3174.18
679.529	3143.46
679.719	3041.06
679.909	3069.73
680.1	3090.21
680.29	3137.32
680.481	3096.36
680.671	3153.7
680.861	3125.03
681.052	3178.28
681.242	3112.74
681.432	3143.46
681.622	3127.08
681.813	3096.36
682.003	3180.32
682.193	3090.21
682.383	3202.85
682.573	3053.35
682.764	3204.9
682.954	3157.8
683.144	3241.76
683.334	3122.98
683.524	3266.34
683.714	3163.94
683.904	3188.52
684.094	3133.22
684.284	3141.41
684.474	3180.32
684.664	3141.41
684.854	3163.94
685.044	3047.21
685.234	3051.3
685.424	3104.55
685.614	3122.98
685.804	3182.37
685.994	3049.25
686.184	3090.21
686.374	3141.41
686.564	3137.32
686.753	3014.44
686.943	3012.39
687.133	2967.34
687.323	2936.62
687.513	3020.58
687.702	3071.78
687.892	3006.25
688.082	2928.42
688.272	3079.97
688.461	3098.41
688.651	3075.88
688.841	2985.77
689.03	2905.9
689.22	2860.84
689.41	2879.27
689.599	2760.49
689.789	2893.61
689.979	2852.65
690.168	2942.76
690.358	2744.11
690.547	2819.88
690.737	2866.99
690.926	2811.69
691.116	2670.38
691.305	2772.78
691.495	2785.07
691.684	2707.24
691.874	2770.73
692.063	2729.77
692.252	2694.96
692.442	2709.29
692.631	2598.7
692.82	2615.09
693.01	2602.8
693.199	2535.21
693.388	2654
693.578	2594.61
693.767	2697
693.956	2674.48
694.146	2602.8
694.335	2590.51
694.524	2651.95
694.713	2625.33
694.902	2531.12
695.092	2428.72
695.281	2627.37
695.47	2563.89
695.659	2402.1
695.848	2512.69
696.037	2463.54
696.226	2385.71
696.415	2471.73
696.604	2481.97
696.793	2537.26
696.982	2418.48
697.171	2592.56
697.36	2492.21
697.549	2455.34
697.738	2451.25
697.927	2400.05
698.116	2475.82
698.305	2510.64
698.494	2467.63
698.683	2457.39
698.872	2479.92
699.061	2449.2
699.25	2441.01
699.438	2547.5
699.627	2418.48
699.816	2426.67
700.005	2418.48
700.193	2438.96
700.382	2551.6
700.571	2459.44
700.76	2426.67
700.948	2533.17
701.137	2381.62
701.326	2449.2
701.514	2381.62
701.703	2551.6
701.892	2445.1
702.08	2610.99
702.269	2418.48
702.457	2510.64
702.646	2506.54
702.834	2475.82
703.023	2381.62
703.212	2535.21
703.4	2438.96
703.589	2481.97
703.777	2504.5
703.965	2348.85
704.154	2463.54
704.342	2549.55
704.531	2471.73
704.719	2492.21
704.907	2617.13
705.096	2398
705.284	2432.82
705.472	2414.38
705.661	2453.3
705.849	2457.39
706.037	2584.37
706.226	2572.08
706.414	2494.26
706.602	2547.5
706.79	2467.63
706.979	2531.12
707.167	2389.81
707.355	2492.21
707.543	2510.64
707.731	2580.27
707.919	2469.68
708.107	2479.92
708.296	2455.34
708.484	2502.45
708.672	2436.91
708.86	2596.65
709.048	2531.12
709.236	2604.85
709.424	2545.45
709.612	2537.26
709.8	2535.21
709.988	2635.57
710.176	2567.98
710.364	2563.89
710.551	2694.96
710.739	2602.8
710.927	2592.56
711.115	2613.04
711.303	2656.04
711.491	2666.28
711.679	2713.39
711.866	2686.76
712.054	2619.18
712.242	2529.07
712.43	2510.64
712.617	2701.1
712.805	2723.63
712.993	2752.3
713.181	2641.71
713.368	2766.64
713.556	2701.1
713.744	2674.48
713.931	2836.27
714.119	2686.76
714.306	2746.16
714.494	2674.48
714.682	2668.33
714.869	2733.87
715.057	2721.58
715.244	2674.48
715.432	2639.66
715.619	2703.15
715.807	2731.82
715.994	2846.51
716.182	2697
716.369	2848.55
716.556	2783.02
716.744	2563.89
716.931	2764.59
717.119	2817.83
717.306	2723.63
717.493	2916.14
717.681	2742.06
717.868	2811.69
718.055	2866.99
718.242	2819.88
718.43	2953
718.617	2875.18
718.804	2891.56
718.991	2826.03
719.179	2860.84
719.366	2967.34
719.553	2801.45
719.74	2795.31
719.927	2914.09
720.114	2899.75
720.301	2946.86
720.488	2860.84
720.676	2832.17
720.863	2996.01
721.05	2948.9
721.237	2979.62
721.424	2881.32
721.611	3008.3
721.798	2936.62
721.985	2987.82
722.172	2973.48
722.358	3018.54
722.545	2934.57
722.732	2840.36
722.919	2918.18
723.106	2981.67
723.293	2938.66
723.48	3053.35
723.667	2944.81
723.853	3098.41
724.04	3041.06
724.227	3086.12
724.414	3012.39
724.6	3104.55
724.787	2961.19
724.974	3159.85
725.161	3206.95
725.347	3020.58
725.534	3114.79
725.72	3026.73
725.907	3118.89
726.094	3135.27
726.28	3051.3
726.467	3073.83
726.653	3122.98
726.84	3131.17
727.027	3043.11
727.213	3092.26
727.4	3209
727.586	3241.76
727.773	3143.46
727.959	3165.99
728.145	3213.09
728.332	3186.47
728.518	3129.13
728.705	3260.2
728.891	3264.29
729.077	3196.71
729.264	3145.51
729.45	3147.56
729.636	3303.2
729.823	3153.7
730.009	3186.47
730.195	3290.92
730.382	3274.53
730.568	3200.8
730.754	3297.06
730.94	3163.94
731.126	3260.2
731.313	3376.93
731.499	3239.72
731.685	3292.96
731.871	3319.59
732.057	3313.44
732.243	3176.23
732.429	3305.25
732.615	3413.79
732.801	3280.68
732.987	3260.2
733.173	3309.35
733.359	3270.44
733.545	3297.06
733.731	3264.29
733.917	3350.31
734.103	3272.48
734.289	3499.81
734.475	3276.58
734.661	3372.83
734.847	3354.4
735.033	3348.26
735.219	3249.96
735.404	3307.3
735.59	3272.48
735.776	3178.28
735.962	3325.73
736.148	3290.92
736.333	3280.68
736.519	3399.46
736.705	3372.83
736.89	3295.01
737.076	3270.44
737.262	3374.88
737.447	3288.87
737.633	3350.31
737.819	3421.99
738.004	3378.98
738.19	3352.35
738.375	3346.21
738.561	3372.83
738.747	3352.35
738.932	3374.88
739.118	3329.83
739.303	3432.22
739.489	3266.34
739.674	3331.87
739.859	3356.45
740.045	3235.62
740.23	3276.58
740.416	3196.71
740.601	3219.24
740.786	3280.68
740.972	3286.82
741.157	3278.63
741.342	3219.24
741.528	3196.71
741.713	3321.63
741.898	3333.92
742.084	3286.82
742.269	3204.9
742.454	3258.15
742.639	3194.66
742.824	3137.32
743.01	3211.04
743.195	3241.76
743.38	3182.37
743.565	3280.68
743.75	3235.62
743.935	3145.51
744.12	3217.19
744.305	3110.69
744.49	3045.16
744.675	3186.47
744.86	3065.64
745.045	3120.93
745.23	3137.32
745.415	3116.84
745.6	3241.76
745.785	3008.3
745.97	3168.04
746.155	3020.58
746.34	2996.01
746.525	3000.1
746.71	3073.83
746.895	3000.1
747.079	2877.23
747.264	3008.3
747.449	2959.14
747.634	2936.62
747.819	2967.34
748.003	2848.55
748.188	2766.64
748.373	2895.66
748.557	2852.65
748.742	2742.06
748.927	2836.27
749.111	2826.03
749.296	2744.11
749.481	2805.55
749.665	2703.15
749.85	2744.11
750.034	2803.5
750.219	2690.86
750.404	2754.35
750.588	2740.01
750.773	2701.1
750.957	2594.61
751.141	2676.52
751.326	2559.79
751.51	2621.23
751.695	2551.6
751.879	2535.21
752.064	2639.66
752.248	2629.42
752.432	2563.89
752.617	2502.45
752.801	2465.58
752.985	2436.91
753.17	2529.07
753.354	2463.54
753.538	2379.57
753.722	2410.29
753.907	2404.14
754.091	2324.27
754.275	2283.31
754.459	2459.44
754.643	2330.42
754.828	2281.27
755.012	2291.51
755.196	2260.79
755.38	2291.51
755.564	2103.09
755.748	2152.24
755.932	2242.36
756.116	2105.14
756.3	2137.91
756.484	2055.99
756.668	2225.97
756.852	2168.63
757.036	2037.56
757.22	2115.38
757.404	2027.32
757.588	2008.89
757.772	2096.95
757.956	2062.13
758.14	2109.24
758.323	2082.61
758.507	1986.36
758.691	2074.42
758.875	2002.74
759.059	2045.75
759.242	2045.75
759.426	1969.98
759.61	2000.69
759.794	1972.02
759.977	1963.83
760.161	2029.37
760.345	1863.48
760.528	1941.3
760.712	1935.16
760.895	1843
761.079	1826.62
761.263	1683.26
761.446	1810.23
761.63	1769.27
761.813	1750.84
761.997	1812.28
762.18	1759.03
762.364	1787.71
762.547	1685.31
762.731	1664.83
762.914	1683.26
763.098	1693.5
763.281	1718.08
763.464	1654.59
763.648	1578.81
763.831	1693.5
764.015	1664.83
764.198	1630.01
764.381	1699.64
764.564	1617.72
764.748	1587.01
764.931	1634.11
765.114	1632.06
765.297	1675.07
765.481	1601.34
765.664	1632.06
765.847	1593.15
766.03	1681.21
766.213	1568.57
766.397	1597.24
766.58	1519.42
766.763	1529.66
766.946	1568.57
767.129	1517.37
767.312	1582.91
767.495	1587.01
767.678	1531.71
767.861	1597.24
768.044	1472.32
768.227	1517.37
768.41	1539.9
768.593	1474.37
768.776	1513.28
768.959	1408.83
769.142	1503.04
769.324	1394.5
769.507	1480.51
769.69	1380.16
769.873	1507.13
770.056	1574.72
770.239	1462.08
770.421	1476.41
770.604	1414.98
770.787	1400.64
770.97	1425.22
771.152	1269.57
771.335	1363.78
771.518	1296.19
771.7	1464.13
771.883	1480.51
772.066	1400.64
772.248	1273.67
772.431	1298.24
772.613	1316.67
772.796	1271.62
772.978	1400.64
773.161	1357.63
773.343	1263.43
773.526	1234.75
773.708	1257.28
773.891	1236.8
774.073	1298.24
774.256	1142.6
774.438	1255.23
774.621	1193.8
774.803	1302.34
774.985	1240.9
775.168	1189.7
775.35	1144.64
775.532	1201.99
775.715	1146.69
775.897	1171.27
776.079	1230.66
776.261	1138.5
776.444	1152.84
776.626	1199.94
776.808	1136.45
776.99	1070.92
777.173	1046.34
777.355	1077.06
777.537	1060.68
777.719	1122.12
777.901	1003.33
778.083	993.09
778.265	962.37
778.447	1064.77
778.629	989
778.811	1046.34
778.993	1081.16
779.175	1058.63
779.357	882.5
779.539	993.09
779.721	1025.86
779.903	966.47
780.085	972.61
780.267	972.61
780.449	974.66
780.631	980.81
780.812	917.32
780.994	927.56
781.176	978.76
781.358	976.71
781.54	888.65
781.721	878.41
781.903	927.56
782.085	859.98
782.267	978.76
782.448	794.44
782.63	870.22
782.812	882.5
782.993	790.35
783.175	769.87
783.357	841.54
783.538	835.4
783.72	790.35
783.901	833.35
784.083	829.26
784.264	812.87
784.446	765.77
784.627	679.75
784.809	722.76
784.99	741.19
785.172	761.67
785.353	761.67
785.535	759.63
785.716	720.71
785.897	712.52
786.079	698.19
786.26	706.38
786.441	749.39
786.623	720.71
786.804	595.79
786.985	712.52
787.167	687.95
787.348	665.42
787.529	640.84
787.71	669.52
787.891	755.53
788.073	571.21
788.254	624.46
788.435	751.43
788.616	646.99
788.797	622.41
788.978	651.08
789.159	624.46
789.34	595.79
789.522	597.84
789.703	548.68
789.884	536.4
790.065	599.88
790.246	685.9
790.427	524.11
790.607	747.34
790.788	628.56
790.969	522.06
791.15	597.84
791.331	571.21
791.512	558.92
791.693	585.55
791.874	411.47
792.054	620.36
792.235	608.08
792.416	485.2
792.597	587.6
792.778	587.6
792.958	571.21
793.139	503.63
793.32	544.59
793.5	495.44
793.681	575.31
793.862	544.59
794.042	526.16
794.223	431.95
794.404	438.09
794.584	452.43
794.765	434
794.945	515.92
795.126	448.33
795.306	567.12
795.487	425.81
795.667	450.38
795.848	452.43
796.028	448.33
796.209	474.96
796.389	495.44
796.57	376.66
796.75	513.87
796.93	444.24
797.111	464.72
797.291	481.1
797.471	431.95
797.652	397.14
797.832	354.13
798.012	427.85
798.192	450.38
798.373	343.89
798.553	429.9
798.733	427.85
798.913	366.42
799.093	409.42
799.274	497.49
799.454	446.29
799.634	401.23
799.814	481.1
799.994	366.42
800.174	425.81
800.354	456.53
800.534	388.94
800.714	438.09
800.894	360.27
801.074	364.37
801.254	384.85
801.434	384.85
801.614	413.52
801.794	311.12
801.974	1154.88
802.154	370.51
802.334	442.19
802.514	390.99
802.693	364.37
802.873	255.83
803.053	360.27
803.233	325.46
803.413	438.09
803.592	378.7
803.772	274.26
803.952	333.65
804.131	257.87
804.311	352.08
804.491	341.84
804.67	188.24
804.85	286.54
805.03	370.51
805.209	366.42
805.389	362.32
805.568	352.08
805.748	333.65
805.928	276.31
806.107	304.98
806.287	315.22
806.466	315.22
806.646	288.59
806.825	243.54
807.004	331.6
807.184	173.91
807.363	286.54
807.543	321.36
807.722	266.07
807.901	360.27
808.081	390.99
808.26	261.97
808.439	272.21
808.619	298.83
808.798	245.59
808.977	347.98
809.156	347.98
809.336	331.6
809.515	300.88
809.694	360.27
809.873	286.54
810.052	307.02
810.231	319.31
810.411	304.98
810.59	327.5
810.769	313.17
810.948	352.08
811.127	243.54
811.306	272.21
811.485	245.59
811.664	274.26
811.843	233.3
812.022	290.64
812.201	221.01
812.38	276.31
812.559	225.11
812.737	315.22
812.916	196.43
813.095	237.39
813.274	350.03
813.453	325.46
813.632	380.75
813.811	337.74
813.989	227.15
814.168	331.6
814.347	157.52
814.526	333.65
814.704	261.97
814.883	223.06
815.062	251.73
815.24	243.54
815.419	208.72
815.598	225.11
815.776	264.02
815.955	290.64
816.133	231.25
816.312	212.82
816.49	235.35
816.669	212.82
816.847	214.87
817.026	231.25
817.204	196.43
817.383	223.06
817.561	251.73
817.74	178
817.918	231.25
818.097	237.39
818.275	218.96
818.453	175.95
818.632	196.43
818.81	245.59
818.988	204.63
819.167	155.47
819.345	132.95
819.523	206.67
819.701	206.67
819.879	218.96
820.058	173.91
820.236	167.76
820.414	132.95
820.592	149.33
820.77	212.82
820.948	169.81
821.127	147.28
821.305	139.09
821.483	157.52
821.661	255.83
821.839	286.54
822.017	216.91
822.195	132.95
822.373	188.24
822.551	268.11
822.729	255.83
822.907	155.47
823.085	245.59
823.262	126.8
823.44	147.28
823.618	206.67
823.796	210.77
823.974	198.48
824.152	139.09
824.329	186.19
824.507	124.76
824.685	251.73
824.863	194.39
825.04	143.19
825.218	190.29
825.396	196.43
825.574	137.04
825.751	153.43
825.929	235.35
826.107	89.94
826.284	73.56
826.462	169.81
826.639	165.71
826.817	132.95
826.994	151.38
827.172	73.56
827.349	171.86
827.527	163.67
827.704	149.33
827.882	157.52
828.059	137.04
828.237	132.95
828.414	196.43
828.591	73.56
828.769	188.24
828.946	112.47
829.124	159.57
829.301	180.05
829.478	165.71
829.655	137.04
829.833	116.56
830.01	149.33
830.187	122.71
830.364	137.04
830.542	161.62
830.719	153.43
830.896	206.67
831.073	112.47
831.25	175.95
831.427	182.1
831.604	130.9
831.782	79.7
831.959	171.86
832.136	173.91
832.313	126.8
832.49	59.22
832.667	110.42
832.844	112.47
833.021	180.05
833.198	65.36
833.374	153.43
833.551	159.57
833.728	132.95
833.905	210.77
834.082	61.27
834.259	124.76
834.436	139.09
834.612	108.37
834.789	188.24
834.966	122.71
835.143	157.52
835.319	71.51
835.496	130.9
835.673	87.89
835.85	112.47
836.026	161.62
836.203	171.86
836.38	73.56
836.556	83.8
836.733	87.89
836.909	167.76
837.086	139.09
837.262	38.74
837.439	69.46
837.616	81.75
837.792	190.29
837.968	124.76
838.145	69.46
838.321	79.7
838.498	173.91
838.674	94.04
838.851	122.71
839.027	116.56
839.203	81.75
839.38	157.52
839.556	34.64
839.732	102.23
839.909	98.13
840.085	106.32
840.261	38.74
840.437	91.99
840.614	69.46
840.79	114.52
840.966	85.84
841.142	32.6
841.318	94.04
841.494	104.28
841.671	128.85
841.847	61.27
842.023	75.6
842.199	106.32
842.375	94.04
842.551	89.94
842.727	30.55
842.903	165.71
843.079	34.64
843.255	153.43
843.431	167.76
843.607	135
843.783	-20.65
843.959	108.37
844.134	167.76
844.31	153.43
844.486	30.55
844.662	38.74
844.838	48.98
845.013	167.76
845.189	147.28
845.365	96.08
845.541	96.08
845.716	57.17
845.892	34.64
846.068	77.65
846.244	61.27
846.419	73.56
846.595	18.26
846.77	104.28
846.946	120.66
847.122	51.03
847.297	108.37
847.473	75.6
847.648	-41.13
847.824	151.38
847.999	102.23
848.175	36.69
848.35	108.37
848.526	130.9
848.701	102.23
848.876	124.76
849.052	110.42
849.227	77.65
849.403	36.69
849.578	24.4
849.753	53.08
849.929	77.65
850.104	40.79
850.279	116.56
850.454	65.36
850.63	8.02
850.805	81.75
850.98	87.89
851.155	-0.17
851.33	122.71
851.505	34.64
851.681	118.61
851.856	8.02
852.031	77.65
852.206	63.32
852.381	91.99
852.556	30.55
852.731	94.04
852.906	10.07
853.081	79.7
853.256	114.52
853.431	32.6
853.606	24.4
853.781	61.27
853.956	-22.7
854.131	69.46
854.305	69.46
854.48	34.64
854.655	55.12
854.83	130.9
855.005	14.17
855.18	132.95
855.354	48.98
855.529	22.36
855.704	130.9
855.879	42.84
856.053	51.03
856.228	63.32
856.403	3.93
856.577	48.98
856.752	44.88
856.926	5.97
857.101	141.14
857.276	65.36
857.45	91.99
857.625	55.12
857.799	1.88
857.974	22.36
858.148	32.6
858.323	59.22
858.497	57.17
858.672	61.27
858.846	87.89
859.02	65.36
859.195	3.93
859.369	77.65
859.543	73.56
859.718	87.89
859.892	130.9
860.066	12.12
860.241	55.12
860.415	28.5
860.589	141.14
860.763	67.41
860.938	12.12
861.112	30.55
861.286	-16.55
861.46	106.32
861.634	61.27
861.808	51.03
861.982	8.02
862.157	14.17
862.331	48.98
862.505	28.5
862.679	51.03
862.853	14.17
863.027	24.4
863.201	108.37
863.375	55.12
863.549	-2.22
863.722	20.31
863.896	135
864.07	36.69
864.244	77.65
864.418	94.04
864.592	38.74
864.766	24.4
864.939	-2.22
865.113	-39.08
865.287	46.93
865.461	8.02
865.634	63.32
865.808	30.55
865.982	120.66
866.156	38.74
866.329	-0.17
866.503	44.88
866.676	106.32
866.85	55.12
867.024	55.12
867.197	57.17
867.371	83.8
867.544	87.89
867.718	51.03
867.891	79.7
868.065	-8.36
868.238	14.17
868.412	30.55
868.585	8.02
868.759	36.69
868.932	102.23
869.105	14.17
869.279	48.98
869.452	30.55
869.625	24.4
869.799	89.94
869.972	-14.51
870.145	-10.41
870.319	16.21
870.492	-16.55
870.665	14.17
870.838	30.55
871.011	22.36
871.185	-30.89
871.358	16.21
871.531	83.8
871.704	-20.65
871.877	-4.27
872.05	59.22
872.223	10.07
872.396	-0.17
872.569	61.27
872.742	3.93
872.915	-28.84
873.088	24.4
873.261	10.07
873.434	124.76
873.607	59.22
873.78	98.13
873.953	85.84
874.126	75.6
874.299	96.08
874.471	48.98
874.644	32.6
874.817	69.46
874.99	53.08
875.163	20.31
875.335	51.03
875.508	106.32
875.681	51.03
875.853	-14.51
876.026	-22.7
876.199	55.12
876.371	89.94
876.544	-53.42
876.717	-14.51
876.889	-2.22
877.062	5.97
877.234	28.5
877.407	-49.32
877.579	18.26
877.752	-37.03
877.924	-6.31
878.097	55.12
878.269	-51.37
878.442	5.97
878.614	24.4
878.786	57.17
878.959	36.69
879.131	141.14
879.303	-51.37
879.476	48.98
879.648	-8.36
879.82	61.27
879.993	18.26
880.165	10.07
880.337	26.45
880.509	-18.6
880.681	32.6
880.854	8.02
881.026	48.98
881.198	91.99
881.37	48.98
881.542	26.45
881.714	59.22
881.886	-12.46
882.058	30.55
882.23	42.84
882.402	16.21
882.574	-8.36
882.746	94.04
882.918	-8.36
883.09	42.84
883.262	53.08
883.434	46.93
883.606	-18.6
883.778	-34.99
883.95	65.36
884.122	46.93
884.293	67.41
884.465	40.79
884.637	28.5
884.809	-10.41
884.98	42.84
885.152	36.69
885.324	40.79
885.496	24.4
885.667	-37.03
885.839	32.6
886.011	69.46
886.182	65.36
886.354	83.8
886.525	51.03
886.697	24.4
886.869	-34.99
887.04	44.88
887.212	73.56
887.383	63.32
887.555	106.32
887.726	63.32
887.897	20.31
888.069	-22.7
888.24	69.46
888.412	44.88
888.583	22.36
888.754	-4.27
888.926	14.17
889.097	-8.36
889.268	3.93
889.44	-22.7
889.611	-51.37
889.782	-32.94
889.953	-45.23
890.125	-16.55
890.296	-37.03
890.467	-0.17
890.638	12.12
890.809	1.88
890.98	-53.42
891.151	38.74
891.323	24.4
891.494	26.45
891.665	20.31
891.836	28.5
892.007	-16.55
892.178	-8.36
892.349	38.74
892.52	-4.27
892.691	24.4
892.862	28.5
893.032	-34.99
893.203	8.02
893.374	79.7
893.545	-12.46
893.716	-6.31
893.887	100.18
894.057	65.36
894.228	-65.71
894.399	-28.84
894.57	20.31
894.74	87.89
894.911	48.98
895.082	-61.61
895.253	-26.79
895.423	20.31
895.594	20.31
895.764	34.64
895.935	-22.7
896.106	-6.31
896.276	-69.8
896.447	-77.99
896.617	-14.51
896.788	-51.37
896.958	87.89
897.129	69.46
897.299	-8.36
897.47	42.84
897.64	8.02
897.81	38.74
897.981	40.79
898.151	1.88
898.322	59.22
898.492	57.17
898.662	5.97
898.832	-39.08
899.003	34.64
899.173	67.41
899.343	-12.46
899.513	-55.47
