Data from USB4F104151__96__12-24-56-167.txt Node

Date: Fri Mar 14 12:24:56 EDT 2025
User: louis
Spectrometer: USB4F10415
Trigger mode: 4
Integration Time (sec): 3.500000E-2
Scans to average: 1
Electric dark correction enabled: true
Nonlinearity correction enabled: false
Boxcar width: 0
XAxis mode: Wavelengths
Number of Pixels in Spectrum: 3648
>>>>>Begin Spectral Data<<<<<
178.204	-157.01
178.424	-157.01
178.644	-157.01
178.864	-159.06
179.084	-175.44
179.304	43.69
179.524	0.68
179.744	-30.04
179.964	-11.61
180.184	8.87
180.404	-13.65
180.624	-9.56
180.844	31.4
181.064	-42.32
181.283	-19.8
181.503	-7.51
181.723	49.83
181.943	-50.52
182.163	74.41
182.383	-34.13
182.602	80.55
182.822	78.51
183.042	43.69
183.262	-75.09
183.482	-5.46
183.701	31.4
183.921	21.16
184.141	-32.08
184.361	27.31
184.58	31.4
184.8	25.26
185.02	35.5
185.239	-5.46
185.459	43.69
185.679	12.97
185.898	-77.14
186.118	27.31
186.338	35.5
186.557	-19.8
186.777	-30.04
186.997	12.97
187.216	-5.46
187.436	23.21
187.655	-1.37
187.875	29.35
188.095	4.78
188.314	74.41
188.534	60.07
188.753	43.69
188.973	-19.8
189.192	29.35
189.412	94.89
189.631	39.59
189.851	35.5
190.07	117.42
190.29	-11.61
190.509	35.5
190.729	8.87
190.948	47.79
191.168	205.48
191.387	113.32
191.607	-34.13
191.826	-3.41
192.045	-17.75
192.265	-27.99
192.484	-7.51
192.704	43.69
192.923	-38.23
193.142	121.51
193.362	2.73
193.581	19.11
193.8	76.46
194.02	51.88
194.239	4.78
194.458	35.5
194.678	123.56
194.897	-21.84
195.116	37.55
195.335	101.03
195.555	27.31
195.774	70.31
195.993	51.88
196.212	2.73
196.432	10.92
196.651	10.92
196.87	-27.99
197.089	101.03
197.308	25.26
197.528	27.31
197.747	10.92
197.966	60.07
198.185	25.26
198.404	-3.41
198.623	41.64
198.842	10.92
199.062	25.26
199.281	-32.08
199.5	-13.65
199.719	68.27
199.938	33.45
200.157	76.46
200.376	-58.71
200.595	39.59
200.814	62.12
201.033	-30.04
201.252	12.97
201.471	-17.75
201.69	109.23
201.909	-7.51
202.128	45.74
202.347	68.27
202.566	-56.66
202.785	-19.8
203.004	33.45
203.223	45.74
203.442	51.88
203.661	-21.84
203.879	-19.8
204.098	19.11
204.317	12.97
204.536	88.75
204.755	35.5
204.974	117.42
205.193	0.68
205.411	107.18
205.63	37.55
205.849	21.16
206.068	90.79
206.287	4.78
206.505	35.5
206.724	27.31
206.943	68.27
207.162	0.68
207.381	86.7
207.599	60.07
207.818	17.07
208.037	-9.56
208.255	35.5
208.474	-1.37
208.693	17.07
208.911	-50.52
209.13	78.51
209.349	4.78
209.567	15.02
209.786	68.27
210.005	82.6
210.223	15.02
210.442	-17.75
210.661	19.11
210.879	-64.85
211.098	-52.56
211.316	25.26
211.535	66.22
211.753	29.35
211.972	27.31
212.191	51.88
212.409	33.45
212.628	-23.89
212.846	33.45
213.065	45.74
213.283	103.08
213.502	-34.13
213.72	-19.8
213.938	17.07
214.157	6.83
214.375	6.83
214.594	19.11
214.812	96.94
215.031	19.11
215.249	4.78
215.467	37.55
215.686	2.73
215.904	39.59
216.122	43.69
216.341	-21.84
216.559	-17.75
216.778	0.68
216.996	35.5
217.214	-48.47
217.432	-54.61
217.651	51.88
217.869	-30.04
218.087	31.4
218.306	0.68
218.524	35.5
218.742	19.11
218.96	80.55
219.179	51.88
219.397	53.93
219.615	55.98
219.833	47.79
220.051	-21.84
220.27	60.07
220.488	19.11
220.706	-25.94
220.924	-23.89
221.142	62.12
221.36	45.74
221.578	23.21
221.796	12.97
222.015	-64.85
222.233	33.45
222.451	2.73
222.669	-30.04
222.887	101.03
223.105	2.73
223.323	10.92
223.541	-36.18
223.759	19.11
223.977	-21.84
224.195	-7.51
224.413	-77.14
224.631	27.31
224.849	37.55
225.067	152.23
225.285	23.21
225.503	-56.66
225.721	4.78
225.939	84.65
226.157	-17.75
226.375	86.7
226.592	2.73
226.81	-44.37
227.028	47.79
227.246	27.31
227.464	-40.28
227.682	-13.65
227.9	-30.04
228.117	68.27
228.335	-9.56
228.553	41.64
228.771	-40.28
228.989	33.45
229.206	-1.37
229.424	-42.32
229.642	-9.56
229.86	-11.61
230.077	33.45
230.295	45.74
230.513	62.12
230.731	-1.37
230.948	41.64
231.166	21.16
231.384	0.68
231.601	10.92
231.819	76.46
232.037	-62.8
232.254	-54.61
232.472	43.69
232.689	37.55
232.907	64.17
233.125	-27.99
233.342	-17.75
233.56	-27.99
233.777	35.5
233.995	31.4
234.213	2.73
234.43	8.87
234.648	15.02
234.865	-13.65
235.083	-44.37
235.3	35.5
235.518	105.13
235.735	92.84
235.953	53.93
236.17	12.97
236.388	43.69
236.605	68.27
236.822	21.16
237.04	-19.8
237.257	25.26
237.475	17.07
237.692	51.88
237.909	8.87
238.127	109.23
238.344	-17.75
238.562	-13.65
238.779	-23.89
238.996	-17.75
239.214	45.74
239.431	62.12
239.648	0.68
239.865	72.36
240.083	-15.7
240.3	-32.08
240.517	-7.51
240.735	47.79
240.952	27.31
241.169	152.23
241.386	19.11
241.603	-5.46
241.821	2.73
242.038	-19.8
242.255	76.46
242.472	-21.84
242.689	43.69
242.907	125.61
243.124	15.02
243.341	53.93
243.558	-11.61
243.775	31.4
243.992	31.4
244.209	64.17
244.426	53.93
244.643	-5.46
244.86	-3.41
245.078	-34.13
245.295	21.16
245.512	29.35
245.729	-17.75
245.946	-36.18
246.163	35.5
246.38	-17.75
246.597	-19.8
246.814	58.03
247.031	-1.37
247.248	53.93
247.464	-30.04
247.681	29.35
247.898	88.75
248.115	8.87
248.332	-7.51
248.549	-15.7
248.766	45.74
248.983	19.11
249.2	15.02
249.417	51.88
249.633	12.97
249.85	72.36
250.067	37.55
250.284	37.55
250.501	41.64
250.717	43.69
250.934	-23.89
251.151	27.31
251.368	-1.37
251.585	51.88
251.801	-17.75
252.018	-38.23
252.235	64.17
252.451	43.69
252.668	43.69
252.885	51.88
253.102	55.98
253.318	-1.37
253.535	33.45
253.752	-7.51
253.968	27.31
254.185	-21.84
254.401	137.9
254.618	8.87
254.835	-46.42
255.051	15.02
255.268	76.46
255.484	37.55
255.701	43.69
255.917	115.37
256.134	17.07
256.351	12.97
256.567	23.21
256.784	39.59
257	15.02
257.217	23.21
257.433	66.22
257.65	23.21
257.866	43.69
258.082	21.16
258.299	39.59
258.515	98.99
258.732	-46.42
258.948	39.59
259.165	17.07
259.381	-13.65
259.597	43.69
259.814	31.4
260.03	-40.28
260.246	19.11
260.463	33.45
260.679	21.16
260.895	-50.52
261.112	70.31
261.328	78.51
261.544	-13.65
261.761	144.04
261.977	55.98
262.193	-87.38
262.409	47.79
262.626	41.64
262.842	-5.46
263.058	-38.23
263.274	53.93
263.49	-9.56
263.707	64.17
263.923	39.59
264.139	-46.42
264.355	-19.8
264.571	43.69
264.787	17.07
265.004	49.83
265.22	49.83
265.436	-32.08
265.652	53.93
265.868	64.17
266.084	-42.32
266.3	19.11
266.516	-38.23
266.732	60.07
266.948	17.07
267.164	17.07
267.38	29.35
267.596	23.21
267.812	33.45
268.028	-13.65
268.244	41.64
268.46	23.21
268.676	55.98
268.892	72.36
269.108	31.4
269.324	35.5
269.54	17.07
269.756	74.41
269.972	-27.99
270.188	-15.7
270.403	31.4
270.619	55.98
270.835	4.78
271.051	70.31
271.267	-64.85
271.483	-64.85
271.698	-1.37
271.914	-1.37
272.13	-48.47
272.346	-44.37
272.562	68.27
272.777	31.4
272.993	-11.61
273.209	-23.89
273.425	37.55
273.64	-13.65
273.856	2.73
274.072	21.16
274.287	-52.56
274.503	37.55
274.719	68.27
274.934	19.11
275.15	-17.75
275.366	55.98
275.581	10.92
275.797	-56.66
276.012	70.31
276.228	-32.08
276.444	0.68
276.659	-3.41
276.875	-17.75
277.09	-1.37
277.306	6.83
277.521	80.55
277.737	8.87
277.952	-5.46
278.168	47.79
278.383	72.36
278.599	43.69
278.814	58.03
279.03	12.97
279.245	23.21
279.461	12.97
279.676	-27.99
279.892	21.16
280.107	-23.89
280.322	-75.09
280.538	-1.37
280.753	43.69
280.969	-42.32
281.184	55.98
281.399	82.6
281.615	82.6
281.83	80.55
282.045	-30.04
282.26	-30.04
282.476	72.36
282.691	-3.41
282.906	35.5
283.122	31.4
283.337	47.79
283.552	80.55
283.767	-34.13
283.983	45.74
284.198	-15.7
284.413	31.4
284.628	2.73
284.843	-25.94
285.058	21.16
285.274	-5.46
285.489	-34.13
285.704	19.11
285.919	-30.04
286.134	15.02
286.349	21.16
286.564	-19.8
286.779	17.07
286.995	15.02
287.21	-103.76
287.425	90.79
287.64	4.78
287.855	23.21
288.07	8.87
288.285	121.51
288.5	17.07
288.715	15.02
288.93	-13.65
289.145	-32.08
289.36	43.69
289.575	47.79
289.79	62.12
290.004	-23.89
290.219	66.22
290.434	-9.56
290.649	-17.75
290.864	19.11
291.079	4.78
291.294	53.93
291.509	8.87
291.724	-9.56
291.938	17.07
292.153	35.5
292.368	78.51
292.583	45.74
292.798	35.5
293.012	-5.46
293.227	35.5
293.442	-7.51
293.657	27.31
293.871	78.51
294.086	27.31
294.301	80.55
294.516	84.65
294.73	-13.65
294.945	-27.99
295.16	23.21
295.374	70.31
295.589	60.07
295.804	-3.41
296.018	15.02
296.233	55.98
296.447	8.87
296.662	-1.37
296.877	88.75
297.091	2.73
297.306	8.87
297.52	-5.46
297.735	-11.61
297.949	2.73
298.164	27.31
298.378	41.64
298.593	-30.04
298.807	62.12
299.022	-13.65
299.236	19.11
299.451	-68.95
299.665	4.78
299.88	82.6
300.094	12.97
300.309	62.12
300.523	10.92
300.737	15.02
300.952	78.51
301.166	12.97
301.381	-40.28
301.595	-1.37
301.809	47.79
302.024	74.41
302.238	-62.8
302.452	37.55
302.667	37.55
302.881	115.37
303.095	12.97
303.309	-36.18
303.524	8.87
303.738	12.97
303.952	-9.56
304.166	70.31
304.381	-52.56
304.595	31.4
304.809	19.11
305.023	17.07
305.237	29.35
305.452	64.17
305.666	-11.61
305.88	84.65
306.094	39.59
306.308	43.69
306.522	10.92
306.736	-42.32
306.95	27.31
307.164	17.07
307.379	0.68
307.593	127.66
307.807	47.79
308.021	33.45
308.235	17.07
308.449	-7.51
308.663	37.55
308.877	86.7
309.091	-38.23
309.305	37.55
309.519	-48.47
309.733	-21.84
309.947	-46.42
310.161	12.97
310.374	0.68
310.588	45.74
310.802	68.27
311.016	53.93
311.23	-13.65
311.444	6.83
311.658	27.31
311.872	43.69
312.085	115.37
312.299	17.07
312.513	78.51
312.727	125.61
312.941	43.69
313.154	15.02
313.368	25.26
313.582	6.83
313.796	150.18
314.009	66.22
314.223	78.51
314.437	45.74
314.651	-3.41
314.864	12.97
315.078	25.26
315.292	8.87
315.505	-19.8
315.719	55.98
315.933	2.73
316.146	31.4
316.36	-19.8
316.573	43.69
316.787	62.12
317.001	53.93
317.214	27.31
317.428	53.93
317.641	17.07
317.855	-1.37
318.068	25.26
318.282	-5.46
318.495	101.03
318.709	27.31
318.922	41.64
319.136	10.92
319.349	131.75
319.563	12.97
319.776	72.36
319.99	-42.32
320.203	96.94
320.417	60.07
320.63	39.59
320.843	49.83
321.057	-15.7
321.27	-5.46
321.483	0.68
321.697	84.65
321.91	41.64
322.124	8.87
322.337	15.02
322.55	-19.8
322.763	12.97
322.977	27.31
323.19	82.6
323.403	33.45
323.617	6.83
323.83	64.17
324.043	23.21
324.256	-13.65
324.469	-21.84
324.683	84.65
324.896	41.64
325.109	72.36
325.322	6.83
325.535	80.55
325.748	41.64
325.962	-27.99
326.175	94.89
326.388	29.35
326.601	45.74
326.814	101.03
327.027	68.27
327.24	84.65
327.453	-44.37
327.666	115.37
327.879	103.08
328.092	41.64
328.305	0.68
328.518	31.4
328.731	-46.42
328.944	-19.8
329.157	115.37
329.37	53.93
329.583	27.31
329.796	78.51
330.009	-42.32
330.222	19.11
330.435	66.22
330.648	10.92
330.861	60.07
331.073	10.92
331.286	109.23
331.499	51.88
331.712	-7.51
331.925	-7.51
332.138	19.11
332.35	113.32
332.563	76.46
332.776	109.23
332.989	25.26
333.202	-5.46
333.414	-34.13
333.627	12.97
333.84	8.87
334.053	39.59
334.265	-60.76
334.478	113.32
334.691	31.4
334.903	-1.37
335.116	2.73
335.329	23.21
335.541	64.17
335.754	21.16
335.966	-1.37
336.179	45.74
336.392	-9.56
336.604	12.97
336.817	-13.65
337.029	39.59
337.242	4.78
337.454	111.27
337.667	53.93
337.88	43.69
338.092	33.45
338.305	19.11
338.517	2.73
338.729	39.59
338.942	92.84
339.154	51.88
339.367	-38.23
339.579	33.45
339.792	-9.56
340.004	41.64
340.217	-11.61
340.429	-32.08
340.641	12.97
340.854	-60.76
341.066	-62.8
341.278	41.64
341.491	-7.51
341.703	78.51
341.915	-52.56
342.128	27.31
342.34	-13.65
342.552	-9.56
342.764	27.31
342.977	23.21
343.189	15.02
343.401	-11.61
343.613	-44.37
343.826	92.84
344.038	-7.51
344.25	119.46
344.462	-17.75
344.674	-38.23
344.886	-3.41
345.099	49.83
345.311	19.11
345.523	68.27
345.735	2.73
345.947	-5.46
346.159	64.17
346.371	2.73
346.583	4.78
346.795	98.99
347.007	-17.75
347.219	113.32
347.431	76.46
347.643	49.83
347.855	51.88
348.067	103.08
348.279	78.51
348.491	15.02
348.703	76.46
348.915	-7.51
349.127	10.92
349.339	70.31
349.551	-32.08
349.763	51.88
349.975	60.07
350.187	60.07
350.399	55.98
350.61	78.51
350.822	4.78
351.034	27.31
351.246	15.02
351.458	68.27
351.669	82.6
351.881	49.83
352.093	4.78
352.305	68.27
352.517	58.03
352.728	29.35
352.94	47.79
353.152	-1.37
353.363	-5.46
353.575	139.94
353.787	15.02
353.999	58.03
354.21	55.98
354.422	-5.46
354.633	68.27
354.845	0.68
355.057	-23.89
355.268	86.7
355.48	-34.13
355.692	-3.41
355.903	74.41
356.115	-50.52
356.326	-5.46
356.538	19.11
356.749	51.88
356.961	29.35
357.172	31.4
357.384	21.16
357.595	78.51
357.807	-48.47
358.018	94.89
358.23	-17.75
358.441	68.27
358.653	133.8
358.864	-40.28
359.075	-25.94
359.287	31.4
359.498	47.79
359.709	27.31
359.921	-5.46
360.132	55.98
360.344	-13.65
360.555	10.92
360.766	53.93
360.977	70.31
361.189	84.65
361.4	-32.08
361.611	53.93
361.823	29.35
362.034	-23.89
362.245	43.69
362.456	-3.41
362.667	115.37
362.879	35.5
363.09	35.5
363.301	-17.75
363.512	92.84
363.723	33.45
363.935	-15.7
364.146	51.88
364.357	21.16
364.568	70.31
364.779	33.45
364.99	82.6
365.201	4.78
365.412	4.78
365.623	-15.7
365.834	96.94
366.045	-1.37
366.256	-9.56
366.467	123.56
366.678	90.79
366.889	60.07
367.1	84.65
367.311	25.26
367.522	39.59
367.733	25.26
367.944	29.35
368.155	29.35
368.366	33.45
368.577	25.26
368.788	31.4
368.999	49.83
369.209	60.07
369.42	98.99
369.631	66.22
369.842	45.74
370.053	33.45
370.264	17.07
370.474	4.78
370.685	-1.37
370.896	49.83
371.107	45.74
371.317	23.21
371.528	35.5
371.739	51.88
371.95	17.07
372.16	-32.08
372.371	-5.46
372.582	88.75
372.792	60.07
373.003	33.45
373.214	-3.41
373.424	98.99
373.635	-50.52
373.846	4.78
374.056	72.36
374.267	74.41
374.477	43.69
374.688	35.5
374.898	10.92
375.109	25.26
375.319	-13.65
375.53	92.84
375.74	80.55
375.951	-73.04
376.161	74.41
376.372	88.75
376.582	-7.51
376.793	4.78
377.003	43.69
377.214	12.97
377.424	84.65
377.635	-52.56
377.845	-9.56
378.055	29.35
378.266	19.11
378.476	25.26
378.686	70.31
378.897	17.07
379.107	15.02
379.317	64.17
379.528	72.36
379.738	51.88
379.948	-1.37
380.158	60.07
380.369	8.87
380.579	70.31
380.789	-17.75
380.999	25.26
381.21	41.64
381.42	82.6
381.63	55.98
381.84	6.83
382.05	51.88
382.261	127.66
382.471	64.17
382.681	25.26
382.891	41.64
383.101	37.55
383.311	-23.89
383.521	60.07
383.731	17.07
383.941	78.51
384.151	-40.28
384.361	49.83
384.571	88.75
384.781	84.65
384.991	129.7
385.201	37.55
385.411	109.23
385.621	8.87
385.831	31.4
386.041	10.92
386.251	86.7
386.461	39.59
386.671	60.07
386.881	74.41
387.091	49.83
387.301	39.59
387.511	37.55
387.72	43.69
387.93	39.59
388.14	70.31
388.35	8.87
388.56	125.61
388.769	60.07
388.979	-5.46
389.189	2.73
389.399	23.21
389.609	-3.41
389.818	78.51
390.028	43.69
390.238	-1.37
390.447	92.84
390.657	53.93
390.867	43.69
391.076	-5.46
391.286	80.55
391.496	43.69
391.705	25.26
391.915	53.93
392.125	62.12
392.334	86.7
392.544	53.93
392.753	51.88
392.963	-56.66
393.172	25.26
393.382	53.93
393.591	64.17
393.801	23.21
394.01	33.45
394.22	92.84
394.429	45.74
394.639	47.79
394.848	68.27
395.058	62.12
395.267	35.5
395.477	58.03
395.686	113.32
395.895	98.99
396.105	117.42
396.314	6.83
396.524	62.12
396.733	-5.46
396.942	31.4
397.152	105.13
397.361	150.18
397.57	51.88
397.78	68.27
397.989	119.46
398.198	123.56
398.407	35.5
398.617	15.02
398.826	4.78
399.035	76.46
399.244	178.86
399.453	25.26
399.663	82.6
399.872	35.5
400.081	94.89
400.29	70.31
400.499	19.11
400.708	37.55
400.917	96.94
401.127	119.46
401.336	53.93
401.545	62.12
401.754	62.12
401.963	41.64
402.172	55.98
402.381	29.35
402.59	55.98
402.799	150.18
403.008	47.79
403.217	76.46
403.426	109.23
403.635	70.31
403.844	64.17
404.053	51.88
404.262	74.41
404.471	189.1
404.68	58.03
404.888	217.77
405.097	88.75
405.306	141.99
405.515	178.86
405.724	33.45
405.933	96.94
406.142	219.82
406.35	127.66
406.559	144.04
406.768	125.61
406.977	182.95
407.185	182.95
407.394	174.76
407.603	144.04
407.812	250.53
408.02	180.9
408.229	158.38
408.438	160.42
408.646	131.75
408.855	168.62
409.064	191.14
409.272	182.95
409.481	205.48
409.69	152.23
409.898	131.75
410.107	213.67
410.315	174.76
410.524	223.91
410.733	256.68
410.941	189.1
411.15	289.45
411.358	316.07
411.567	371.37
411.775	311.97
411.984	305.83
412.192	305.83
412.401	281.25
412.609	334.5
412.818	348.84
413.026	295.59
413.234	363.17
413.443	352.93
413.651	348.84
413.86	457.38
414.068	496.29
414.276	561.83
414.485	490.15
414.693	553.63
414.901	570.02
415.11	508.58
415.318	533.15
415.526	520.87
415.734	533.15
415.943	574.11
416.151	639.65
416.359	543.39
416.567	641.7
416.776	578.21
416.984	670.37
417.192	711.33
417.4	780.96
417.608	696.99
417.817	832.16
418.025	940.7
418.233	871.07
418.441	815.77
418.649	977.56
418.857	963.23
419.065	987.8
419.273	871.07
419.481	1026.72
419.689	1065.63
419.897	1075.87
420.105	1145.5
420.313	1221.27
420.521	1122.97
420.729	1239.7
420.937	1137.31
421.145	1368.73
421.353	1315.48
421.561	1487.51
421.769	1487.51
421.977	1481.36
422.185	1512.08
422.393	1479.32
422.601	1630.87
422.809	1708.69
423.017	1651.35
423.224	1759.89
423.432	1913.49
423.64	1927.82
423.848	2058.89
424.056	1868.43
424.263	2069.13
424.471	2042.51
424.679	2120.33
424.887	2124.43
425.094	2327.18
425.302	2247.3
425.51	2357.89
425.718	2552.45
425.925	2617.99
426.133	2589.32
426.341	2695.81
426.548	2861.69
426.756	2861.69
426.964	2966.14
427.171	2941.57
427.379	3095.16
427.586	3246.71
427.794	3277.43
428.001	3549.81
428.209	3601.01
428.417	3441.27
428.624	3754.61
428.832	3891.82
429.039	3824.24
429.247	3689.07
429.454	4182.63
429.662	4369
429.869	4098.67
430.076	4360.81
430.284	4248.17
430.491	4559.46
430.699	4737.63
430.906	4801.12
431.114	4819.55
431.321	5169.76
431.528	5069.41
431.736	5472.86
431.943	5665.36
432.15	5470.81
432.358	5546.58
432.565	5984.85
432.772	5821.01
432.979	6158.92
433.187	6402.63
433.394	6298.19
433.601	6734.4
433.808	6808.13
434.016	6732.36
434.223	7064.13
434.43	7336.51
434.637	7154.24
434.844	7834.16
435.052	7666.23
435.259	7969.33
435.466	7887.41
435.673	7787.06
435.88	8471.08
436.087	8720.93
436.294	8823.33
436.501	8487.47
436.708	8856.1
436.915	9089.57
437.122	9542.17
437.329	9441.82
437.537	9708.05
437.743	9792.02
437.95	9873.94
438.157	10353.16
438.364	10770.95
438.571	10480.14
438.778	10783.24
438.985	11766.26
439.192	11139.58
439.399	11510.27
439.606	11475.45
439.813	12108.27
440.02	12564.97
440.227	12392.94
440.433	12524.01
440.64	12839.4
440.847	12575.21
441.054	13177.31
441.261	14109.14
441.467	13892.05
441.674	14098.9
441.881	14690.76
442.088	14391.76
442.294	14537.16
442.501	14711.24
442.708	15163.84
442.914	15653.31
443.121	16171.44
443.328	15858.1
443.534	17162.66
443.741	16292.27
443.948	16212.4
444.154	17465.76
444.361	17306.02
444.568	17457.57
444.774	17543.58
444.981	17879.45
445.187	18299.28
445.394	19161.48
445.6	18612.62
445.807	20369.78
446.013	19847.55
446.22	20162.93
446.426	20963.69
446.633	21236.07
446.839	22034.78
447.046	20859.24
447.252	22165.85
447.459	21885.28
447.665	22085.98
447.871	23152.97
448.078	23970.11
448.284	22907.21
448.491	23597.38
448.697	24604.98
448.903	25221.42
449.11	25051.44
449.316	24533.3
449.522	25059.63
449.728	25995.55
449.935	25930.01
450.141	25997.6
450.347	26458.39
450.553	25612.58
450.76	26040.61
450.966	26872.08
451.172	26689.81
451.378	27412.74
451.584	26622.23
451.791	27515.14
451.997	27185.42
452.203	27746.56
452.409	27363.59
452.615	27513.09
452.821	26468.63
453.027	26294.55
453.233	27889.92
453.44	26644.76
453.646	27062.54
453.852	26917.14
454.058	27568.39
454.264	26673.43
454.47	27269.39
454.676	26511.64
454.882	27869.44
455.088	24996.14
455.294	25551.14
455.5	26038.56
455.705	25981.21
455.911	25426.21
456.117	24561.97
456.323	24254.78
456.529	22993.23
456.735	24164.67
456.941	23667.01
457.147	23023.95
457.352	22337.88
457.558	21903.71
457.764	22018.39
457.97	21989.72
458.176	21229.93
458.381	21406.05
458.587	19814.78
458.793	20093.3
458.999	19138.95
459.204	20560.24
459.41	19880.32
459.616	18483.6
459.821	18475.41
460.027	18514.32
460.233	18170.26
460.438	17346.98
460.644	17299.87
460.85	16609.71
461.055	16587.18
461.261	16535.98
461.466	15303.11
461.672	14832.07
461.878	15573.44
462.083	14744.01
462.289	14395.85
462.494	14254.55
462.7	13812.18
462.905	13281.76
463.111	13562.33
463.316	13920.73
463.522	13568.48
463.727	13459.93
463.932	13537.76
464.138	13193.7
464.343	13511.13
464.549	12753.38
464.754	13539.8
464.959	13140.45
465.165	13226.46
465.37	12560.88
465.575	12278.26
465.781	12691.94
465.986	12976.61
466.191	12317.17
466.397	12036.59
466.602	11565.56
466.807	11975.16
467.012	12114.42
467.218	11844.09
467.423	11989.49
467.628	11874.81
467.833	12472.81
468.038	12034.55
468.244	11667.96
468.449	11934.2
468.654	11749.88
468.859	11536.89
469.064	11280.89
469.269	11135.49
469.474	11346.43
469.679	11526.65
469.885	10955.27
470.09	11176.45
470.295	11182.59
470.5	10828.29
470.705	10877.44
470.91	10625.54
471.115	10490.38
471.32	10709.51
471.525	10625.54
471.73	10643.98
471.935	10324.49
472.139	9904.66
472.344	10121.74
472.549	10097.17
472.754	9906.71
472.959	9714.2
473.164	9626.14
473.369	9468.44
473.574	9800.21
473.778	9568.79
473.983	9472.54
474.188	9507.35
474.393	9228.83
474.598	9067.04
474.802	9116.19
475.007	9097.76
475.212	9030.18
475.417	8649.25
475.621	8708.65
475.826	8751.65
476.031	8692.26
476.235	8047.15
476.44	8581.67
476.645	8249.9
476.849	8426.03
477.054	8436.27
477.259	8092.21
477.463	8122.93
477.668	7901.75
477.872	8034.86
478.077	8004.14
478.282	7574.07
478.486	7635.51
478.691	7754.29
478.895	7483.96
479.1	7512.63
479.304	7703.09
479.509	7336.51
479.713	7477.82
479.918	7408.19
480.122	7141.95
480.326	7322.17
480.531	7320.12
480.735	7107.13
480.94	7027.26
481.144	7346.75
481.348	7039.55
481.553	7193.15
481.757	6906.43
481.961	7236.16
482.166	7170.62
482.37	6931.01
482.574	7002.69
482.778	6965.82
482.983	7057.98
483.187	7039.55
483.391	7148.09
483.595	6801.99
483.8	6834.75
484.004	7064.13
484.208	6957.63
484.412	6935.1
484.616	7195.2
484.821	6947.39
485.025	6998.59
485.229	7098.94
485.433	6971.97
485.637	7029.31
485.841	7023.17
486.045	7072.32
486.249	7086.65
486.453	7006.78
486.657	6943.3
486.861	6908.48
487.065	6857.28
487.269	7117.37
487.473	6953.54
487.677	6916.67
487.881	7086.65
488.085	6963.78
488.289	7129.66
488.493	7006.78
488.697	6959.68
488.901	6974.02
489.105	7051.84
489.309	7184.96
489.512	6994.5
489.716	6994.5
489.92	6971.97
490.124	6961.73
490.328	7346.75
490.531	7144
490.735	7215.68
490.939	7160.38
491.143	7180.86
491.346	7211.58
491.55	7275.07
491.754	7412.28
491.958	7354.94
492.161	7234.11
492.365	7336.51
492.569	7207.48
492.772	7475.77
492.976	7520.82
493.18	7463.48
493.383	7580.22
493.587	7750.2
493.79	7680.57
493.994	7549.5
494.197	7621.17
494.401	7731.76
494.605	7942.71
494.808	7789.11
495.012	7987.76
495.215	8059.44
495.419	8108.59
495.622	8118.83
495.825	8249.9
496.029	8077.87
496.232	8516.14
496.436	8292.91
496.639	8632.87
496.843	8428.07
497.046	8567.34
497.249	8679.97
497.453	8923.68
497.656	8976.93
497.859	8798.76
498.063	8927.78
498.266	9216.54
498.469	9019.94
498.673	9048.61
498.876	9392.67
499.079	9472.54
499.282	9484.83
499.485	9785.88
499.689	9878.04
499.892	9841.17
500.095	9808.4
500.298	10013.2
500.501	10056.21
500.705	10519.05
500.908	10517
501.111	10590.73
501.314	10799.62
501.517	10553.87
501.72	10834.44
501.923	11010.56
502.126	11237.89
502.329	11317.76
502.532	11661.82
502.735	11649.53
502.938	11774.45
503.141	11846.13
503.344	11981.3
503.547	12071.41
503.75	12065.27
503.953	12478.96
504.156	12394.99
504.359	12634.6
504.562	12595.69
504.765	12730.86
504.968	13072.87
505.17	13318.62
505.373	13373.92
505.576	13480.41
505.779	13369.82
505.982	13574.62
506.185	13969.88
506.387	14098.9
506.59	14348.75
506.793	14539.21
506.996	14397.9
507.198	14852.55
507.401	14784.97
507.604	14903.75
507.807	15368.64
508.009	15348.16
508.212	15440.32
508.415	15518.14
508.617	16007.61
508.82	16140.72
509.022	16144.82
509.225	16265.65
509.428	16568.75
509.63	16439.73
509.833	16441.78
510.035	17189.28
510.238	16976.3
510.44	17402.27
510.643	17772.96
510.845	17914.27
511.048	17457.57
511.25	18141.59
511.453	18375.06
511.655	18872.71
511.858	18454.93
512.06	18784.65
512.262	19292.55
512.465	18987.4
512.667	19323.27
512.87	19540.35
513.072	19818.88
513.274	19972.47
513.477	20283.77
513.679	20498.8
513.881	20844.91
514.084	21041.51
514.286	21150.06
514.488	21279.08
514.69	21999.96
514.893	21739.87
515.095	21934.43
515.297	22235.48
515.499	22368.6
515.701	22602.07
515.904	22743.38
516.106	23066.95
516.308	23548.23
516.51	23599.43
516.712	23857.47
516.914	23920.96
517.116	24488.24
517.318	24680.75
517.52	24744.24
517.722	24674.61
517.925	25381.16
518.127	25344.3
518.329	26091.8
518.531	25942.3
518.733	26204.44
518.935	26732.82
519.136	26425.62
519.338	26892.56
519.54	27011.34
519.742	27173.13
519.944	27793.67
520.146	28274.94
520.348	27932.93
520.55	28436.73
520.752	28428.54
520.954	28711.16
521.155	28965.1
521.357	29374.7
521.559	29763.81
521.761	29794.53
521.963	30038.24
522.164	30253.28
522.366	30197.98
522.568	30902.48
522.77	30992.59
522.971	31488.2
523.173	31135.95
523.375	31238.35
523.576	31709.38
523.778	32032.96
523.98	32448.7
524.181	32280.77
524.383	32704.7
524.584	32960.69
524.786	32856.25
524.988	32714.94
525.189	33339.57
525.391	33726.63
525.592	33929.38
525.794	33808.55
525.995	34291.87
526.197	34146.47
526.398	34185.38
526.6	34754.71
526.801	34996.37
527.003	34785.43
527.204	35174.55
527.406	35303.57
527.607	35651.72
527.808	35391.63
528.01	35260.56
528.211	35659.91
528.412	36264.07
528.614	36178.05
528.815	36116.61
529.016	36454.53
529.218	36391.04
529.419	36663.42
529.62	36325.5
529.822	36567.16
530.023	36657.28
530.224	36587.64
530.425	36853.88
530.626	36782.2
530.828	36563.07
531.029	37677.16
531.23	36894.84
531.431	36952.18
531.632	37568.62
531.833	37507.18
532.035	37193.84
532.236	37539.95
532.437	37841
532.638	37535.85
532.839	37765.23
533.04	37847.15
533.241	37476.46
533.442	38277.22
533.643	37861.48
533.844	37734.51
534.045	38158.44
534.246	37970.02
534.447	38381.67
534.648	37963.88
534.849	38152.29
535.05	37916.78
535.251	37810.28
535.451	37972.07
535.652	38086.76
535.853	38320.23
536.054	37800.04
536.255	38164.58
536.456	38183.01
536.657	38660.19
536.857	38240.36
537.058	38223.97
537.259	38424.67
537.46	38314.08
537.66	38314.08
537.861	38398.05
538.062	38094.95
538.263	38086.76
538.463	38099.05
538.664	38119.53
538.865	38080.61
539.065	38246.5
539.266	38273.12
539.466	38430.82
539.667	37761.13
539.868	38766.68
540.068	37967.98
540.269	38193.25
540.469	38367.33
540.67	37939.3
540.87	37957.74
541.071	38107.24
541.271	38172.77
541.472	38064.23
541.672	37935.21
541.873	38062.18
542.073	37939.3
542.274	38652
542.474	38076.52
542.675	37804.14
542.875	38520.93
543.075	38037.61
543.276	37439.6
543.476	38660.19
543.676	37722.22
543.877	38443.1
544.077	38111.33
544.277	38262.88
544.478	37875.82
544.678	38295.65
544.878	38565.98
545.078	38389.86
545.279	37912.68
545.479	38062.18
545.679	38303.84
545.879	38252.64
546.079	37906.54
546.28	38348.9
546.48	37941.35
546.68	38068.33
546.88	37904.49
547.08	38439.01
547.28	37867.62
547.48	37376.11
547.68	37404.78
547.88	37822.57
548.081	38099.05
548.281	38160.48
548.481	37933.16
548.681	38084.71
548.881	37783.66
549.081	37826.67
549.28	37664.88
549.48	38191.2
549.68	37797.99
549.88	38242.4
550.08	37691.5
550.28	38398.05
550.48	37675.12
550.68	38078.57
550.88	37808.23
551.08	37959.78
551.279	37820.52
551.479	37386.35
551.679	38158.44
551.879	37746.79
552.079	37974.12
552.278	37644.4
552.478	37967.98
552.678	37697.64
552.878	38027.37
553.077	37552.24
553.277	37611.63
553.477	37963.88
553.676	37445.74
553.876	37496.94
554.076	37226.61
554.275	37828.71
554.475	37304.43
554.674	37701.74
554.874	37533.81
555.074	37320.82
555.273	37593.2
555.473	37242.99
555.672	37161.08
555.872	37308.53
556.071	37034.1
556.271	37222.51
556.47	37034.1
556.67	36796.54
556.869	37206.13
557.068	36841.59
557.268	36628.6
557.467	37032.05
557.667	36984.95
557.866	37136.5
558.065	36567.16
558.265	36673.66
558.464	36231.3
558.663	37224.56
558.863	36247.68
559.062	36769.91
559.261	35903.62
559.461	36792.44
559.66	35623.05
559.859	36251.78
560.058	35793.03
560.258	35960.97
560.457	36018.31
560.656	36024.45
560.855	35727.5
561.054	36053.12
561.253	35698.83
561.453	35920.01
561.652	35612.81
561.851	36046.98
562.05	35530.89
562.249	35434.64
562.448	35369.1
562.647	34924.69
562.846	35500.17
563.045	35434.64
563.244	34588.83
563.443	34799.77
563.642	34711.71
563.841	35205.27
564.04	34967.7
564.239	35289.23
564.438	34451.61
564.637	34181.28
564.836	34678.94
565.035	34326.69
565.234	34359.45
565.432	33892.52
565.631	33935.52
565.83	34326.69
566.029	33960.1
566.228	33896.61
566.427	34017.44
566.625	33609.9
566.824	33382.57
567.023	33900.71
567.222	33159.34
567.42	33673.38
567.619	33167.54
567.818	33011.89
568.016	33110.19
568.215	33386.67
568.414	33087.67
568.612	32782.52
568.811	32428.22
569.01	32716.98
569.208	32168.13
569.407	32542.91
569.605	32002.24
569.804	32598.2
570.002	32493.75
570.201	32153.79
570.4	31455.43
570.598	31801.54
570.797	31803.59
570.995	31824.07
571.193	31398.09
571.392	31983.81
571.59	31203.53
571.789	31660.23
571.987	31654.09
572.186	31189.2
572.384	30533.85
572.582	30929.11
572.781	31324.36
572.979	30359.77
573.177	30732.5
573.376	30560.47
573.574	30396.63
573.772	30621.91
573.971	30216.41
574.169	30169.31
574.367	29753.57
574.565	29987.04
574.763	29931.75
574.962	29935.84
575.16	28956.91
575.358	29581.54
575.556	29171.95
575.754	29833.44
575.952	29303.02
576.151	29714.66
576.349	29026.54
576.547	28985.58
576.745	29133.04
576.943	28780.79
577.141	28817.65
577.339	29075.69
577.537	28371.19
577.735	28662.01
577.933	28276.99
578.131	28754.16
578.329	28463.35
578.527	27945.22
578.725	28190.97
578.923	28066.05
579.121	27715.84
579.319	28055.81
579.516	28078.33
579.714	27738.37
579.912	27674.88
580.11	27513.09
580.308	27701.51
580.506	27363.59
580.704	27150.6
580.901	27433.22
581.099	27316.49
581.297	27158.8
581.495	27298.06
581.692	27046.16
581.89	26867.98
582.088	27031.82
582.285	26626.32
582.483	26708.24
582.681	26798.35
582.878	26341.66
583.076	26341.66
583.274	26519.83
583.471	25919.78
583.669	26339.61
583.866	25612.58
584.064	26401.05
584.262	25979.17
584.459	26026.27
584.657	25620.77
584.854	25970.97
585.052	25344.3
585.249	25755.94
585.447	25803.04
585.644	25209.13
585.841	25137.45
586.039	25643.3
586.236	25235.75
586.434	24914.22
586.631	24600.88
586.828	25211.18
587.026	24799.54
587.223	24750.39
587.42	24486.2
587.618	24576.31
587.815	24373.56
588.012	24361.27
588.21	24416.57
588.407	24551.73
588.604	24158.52
588.801	24308.02
588.999	24191.29
589.196	24074.56
589.393	24107.32
589.59	23865.66
589.787	24076.6
589.984	23699.78
590.182	23662.91
590.379	23742.78
590.576	23476.55
590.773	23667.01
590.97	23312.71
591.167	23454.02
591.364	22997.32
591.561	23556.42
591.758	23052.62
591.955	23150.92
592.152	23007.56
592.349	22806.86
592.546	22632.79
592.743	22833.49
592.94	22516.05
593.137	22997.32
593.334	22227.29
593.531	22432.08
593.727	22432.08
593.924	22458.71
594.121	22024.54
594.318	22333.78
594.515	22026.59
594.712	22471
594.908	21983.58
595.105	21922.14
595.302	22024.54
595.499	22010.2
595.696	21727.58
595.892	21614.94
596.089	21311.85
596.286	21629.28
596.482	21465.44
596.679	21590.37
596.876	21479.78
597.072	21162.34
597.269	21410.15
597.466	21186.92
597.662	21090.66
597.859	21150.06
598.055	21074.28
598.252	20826.48
598.448	20894.06
598.645	20756.85
598.841	20392.31
599.038	20742.51
599.234	20717.93
599.431	20308.34
599.627	20629.87
599.824	20470.13
600.02	20183.41
600.217	20212.09
600.413	20367.73
600.609	19870.08
600.806	20027.77
601.002	20371.83
601.198	19855.74
601.395	19796.35
601.591	19736.96
601.787	19954.04
601.984	19900.79
602.18	20015.48
602.376	19358.08
602.572	19689.85
602.769	19491.2
602.965	19378.56
603.161	19329.41
603.357	19218.82
603.553	19302.79
603.75	19085.7
603.946	19190.15
604.142	18995.59
604.338	19177.86
604.534	18801.04
604.73	18979.21
604.926	18846.09
605.122	18907.53
605.318	18651.53
605.514	18325.91
605.71	18336.15
605.906	18491.79
606.102	18485.65
606.298	18753.93
606.494	18336.15
606.69	18553.23
606.886	18495.89
607.082	18299.28
607.278	18178.45
607.474	18012.57
607.67	18078.1
607.866	17738.14
608.062	18338.19
608.257	17856.92
608.453	17777.05
608.649	17920.41
608.845	17834.39
609.041	17838.49
609.236	17793.44
609.432	17779.1
609.628	17822.11
609.824	17590.69
610.019	17471.9
610.215	17398.18
610.411	17551.77
610.606	17437.09
610.802	17480.1
610.998	17209.76
611.193	17568.16
611.389	17160.61
611.584	17285.54
611.78	17093.03
611.976	17242.53
612.171	17002.92
612.367	17177
612.562	17197.48
612.758	16986.54
612.953	16906.66
613.149	17193.38
613.344	16800.17
613.539	17027.49
613.735	16849.32
613.93	16789.93
614.126	16839.08
614.321	16875.95
614.517	16828.84
614.712	16660.91
614.907	16370.1
615.103	16574.89
615.298	16431.54
615.493	16810.41
615.688	16417.2
615.884	16695.72
616.079	16331.19
616.274	16447.92
616.47	16366
616.665	16486.83
616.86	16386.48
617.055	16054.71
617.25	16001.46
617.445	16232.88
617.641	15892.92
617.836	15999.41
618.031	15823.29
618.226	16019.89
618.421	15970.74
618.616	15974.84
618.811	15663.55
619.006	15763.9
619.201	15673.79
619.396	15659.45
619.591	15462.85
619.786	15743.42
619.981	15182.27
620.176	15587.77
620.371	15301.06
620.566	15063.49
620.761	15219.14
620.956	15391.17
621.151	14729.67
621.346	15032.77
621.541	14762.44
621.735	14979.53
621.93	14516.69
622.125	14842.31
622.32	14545.36
622.515	14744.01
622.709	14657.99
622.904	14588.36
623.099	14389.71
623.294	14313.94
623.488	14137.81
623.683	14182.87
623.878	13859.29
624.072	13881.81
624.267	13801.94
624.462	13853.14
624.656	13738.46
624.851	13531.61
625.046	13713.88
625.24	13560.28
625.435	13289.95
625.629	13201.89
625.824	13328.86
626.018	13396.45
626.213	13101.54
626.407	13101.54
626.602	13056.48
626.796	12939.75
626.991	12823.01
627.185	12798.44
627.38	12581.35
627.574	12577.26
627.768	12550.64
627.963	12505.58
628.157	12384.75
628.352	12575.21
628.546	12247.54
628.74	12394.99
628.935	11991.54
629.129	12182
629.323	12018.16
629.517	11981.3
629.712	11854.33
629.906	11856.37
630.1	11520.51
630.294	11618.81
630.489	11383.29
630.683	11751.93
630.877	11672.06
631.071	11667.96
631.265	11606.52
631.459	11264.51
631.653	11371.01
631.848	11108.87
632.042	11295.23
632.236	11133.44
632.43	11041.28
632.624	11006.47
632.818	10938.88
633.012	10988.03
633.206	10961.41
633.4	10785.29
633.594	10691.08
633.788	10629.64
633.982	10627.59
634.176	10689.03
634.369	10551.82
634.563	10566.15
634.757	10261.01
634.951	10394.12
635.145	10203.66
635.339	10361.36
635.533	10193.42
635.726	10267.15
635.92	9925.14
636.114	9886.23
636.308	9998.87
636.501	9998.87
636.695	9789.97
636.889	9826.84
637.083	9818.64
637.276	9898.52
637.47	9591.32
637.664	9626.14
637.857	9757.21
638.051	9732.63
638.244	9452.06
638.438	9361.95
638.632	9300.51
638.825	9359.9
639.019	9349.66
639.212	9169.44
639.406	9118.24
639.599	9146.91
639.793	9273.89
639.986	8976.93
640.18	9046.56
640.373	8925.73
640.567	8884.77
640.76	8931.87
640.954	8794.66
641.147	8757.8
641.34	8809
641.534	8530.47
641.727	8442.41
641.92	8499.75
642.114	8407.59
642.307	8491.56
642.5	8477.23
642.694	8186.41
642.887	8190.51
643.08	8319.53
643.273	8186.41
643.467	8120.88
643.66	7926.32
643.853	8163.89
644.046	7950.9
644.239	7871.03
644.432	7840.31
644.626	7778.87
644.819	7645.75
645.012	7864.88
645.205	7842.35
645.398	7737.91
645.591	7602.74
645.784	7563.83
645.977	7492.15
646.17	7580.22
646.363	7494.2
646.556	7348.79
646.749	7414.33
646.942	7426.62
647.135	7496.25
647.328	7248.44
647.521	7178.81
647.714	7223.87
647.907	7146.05
648.099	6986.3
648.292	7244.35
648.485	7152.19
648.678	6924.86
648.871	6955.58
649.064	7068.22
649.256	7072.32
649.449	6910.53
649.642	6875.71
649.835	6896.19
650.027	6939.2
650.22	6707.78
650.413	6750.79
650.605	6648.39
650.798	6507.08
650.991	6640.2
651.183	6648.39
651.376	6642.25
651.568	6462.02
651.761	6500.94
651.954	6337.1
652.146	6402.63
652.339	6455.88
652.531	6275.66
652.724	6470.22
652.916	6238.8
653.109	6146.64
653.301	6134.35
653.494	6267.47
653.686	6124.11
653.879	6148.68
654.071	6154.83
654.263	6021.71
654.456	6056.53
654.648	6019.66
654.84	5874.26
655.033	5939.79
655.225	5745.23
655.417	5847.63
655.61	5741.14
655.802	5782.1
655.994	5730.9
656.186	5851.73
656.379	5747.28
656.571	5659.22
656.763	5681.75
656.955	5487.19
657.148	5626.45
657.34	5689.94
657.532	5517.91
657.724	5440.09
657.916	5452.38
658.108	5628.5
658.3	5372.5
658.492	5329.5
658.684	5384.79
658.876	5548.63
659.068	5278.3
659.26	5227.1
659.452	5223
659.644	5220.95
659.836	5231.19
660.028	5143.13
660.22	5190.24
660.412	5163.61
660.604	5036.64
660.796	5044.83
660.988	5065.31
661.18	5048.93
661.372	4797.03
661.563	5007.97
661.755	4899.42
661.947	4837.98
662.139	4860.51
662.331	4870.75
662.522	4858.46
662.714	4846.18
662.906	4696.68
663.097	4799.07
663.289	4870.75
663.481	4620.9
663.673	4713.06
663.864	4655.72
664.056	4680.29
664.247	4772.45
664.439	4682.34
664.631	4694.63
664.822	4584.04
665.014	4563.56
665.205	4495.97
665.397	4612.71
665.588	4502.12
665.78	4543.08
665.971	4588.13
666.163	4559.46
666.354	4475.49
666.546	4428.39
666.737	4532.84
666.929	4348.52
667.12	4483.69
667.311	4338.28
667.503	4352.62
667.694	4405.86
667.885	4264.55
668.077	4381.29
668.268	4108.91
668.459	4248.17
668.651	4162.16
668.842	4305.51
669.033	4201.07
669.224	4102.76
669.416	4233.83
669.607	4135.53
669.798	4166.25
669.989	4209.26
670.18	4248.17
670.371	4260.46
670.563	4119.15
670.754	4164.2
670.945	3947.12
671.136	4160.11
671.327	4033.13
671.518	4031.09
671.709	4156.01
671.9	4061.8
672.091	4065.9
672.282	3983.98
672.473	3918.45
672.664	3764.85
672.855	3949.17
673.046	3979.89
673.237	4086.38
673.428	3947.12
673.619	4051.56
673.809	3963.5
674	3910.26
674.191	3924.59
674.382	4000.37
674.573	4014.7
674.764	3904.11
674.954	3770.99
675.145	3906.16
675.336	4004.46
675.527	3826.29
675.717	3836.53
675.908	3961.45
676.099	3840.62
676.289	3863.15
676.48	3809.9
676.671	3818.1
676.861	3824.24
677.052	3773.04
677.243	3820.14
677.433	3709.55
677.624	3951.21
677.814	3828.34
678.005	3953.26
678.195	3826.29
678.386	3857.01
678.576	3805.81
678.767	3730.03
678.957	3961.45
679.148	3861.1
679.338	3897.97
679.529	3830.38
679.719	3863.15
679.909	3805.81
680.1	3742.32
680.29	3752.56
680.481	3850.86
680.671	3746.42
680.861	3836.53
681.052	3768.95
681.242	3846.77
681.432	3869.3
681.622	3766.9
681.813	3773.04
682.003	3887.73
682.193	3705.46
682.383	3701.36
682.573	3797.62
682.764	3844.72
682.954	3762.8
683.144	3703.41
683.334	3703.41
683.524	3668.59
683.714	3871.34
683.904	3910.26
684.094	3824.24
684.284	3803.76
684.474	3865.2
684.664	3709.55
684.854	3709.55
685.044	3736.18
685.234	3639.92
685.424	3748.47
685.614	3652.21
685.804	3697.27
685.994	3617.4
686.184	3746.42
686.374	3641.97
686.564	3641.97
686.753	3613.3
686.943	3555.96
687.133	3504.76
687.323	3637.88
687.513	3605.11
687.702	3654.26
687.892	3611.25
688.082	3537.52
688.272	3635.83
688.461	3629.68
688.651	3578.48
688.841	3431.03
689.03	3578.48
689.22	3334.78
689.41	3396.21
689.599	3471.99
689.789	3394.17
689.979	3510.9
690.168	3404.41
690.358	3377.78
690.547	3414.65
690.737	3347.06
690.926	3259
691.116	3211.9
691.305	3342.97
691.495	3289.72
691.684	3156.6
691.874	3250.81
692.063	3232.38
692.252	3226.23
692.442	3218.04
692.631	3158.65
692.82	3240.57
693.01	3246.71
693.199	3172.99
693.388	3082.88
693.578	3097.21
693.767	3103.36
693.956	3172.99
694.146	3041.92
694.335	3107.45
694.524	2992.77
694.713	2968.19
694.902	3125.88
695.092	3183.23
695.281	2841.22
695.47	3033.72
695.659	2910.85
695.848	2992.77
696.037	2998.91
696.226	2949.76
696.415	2888.32
696.604	2966.14
696.793	3021.44
696.982	2966.14
697.171	2968.19
697.36	2939.52
697.549	2974.33
697.738	2837.12
697.927	2968.19
698.116	3084.92
698.305	2939.52
698.494	2914.94
698.683	2980.48
698.872	2910.85
699.061	3062.4
699.25	2818.69
699.438	2779.78
699.627	2863.74
699.816	2878.08
700.005	2871.93
700.193	2855.55
700.382	2921.09
700.571	2884.22
700.76	2798.21
700.948	2880.13
701.137	2818.69
701.326	2906.75
701.514	2865.79
701.703	2910.85
701.892	2716.29
702.08	2921.09
702.269	2968.19
702.457	2871.93
702.646	2865.79
702.834	2822.78
703.023	2865.79
703.212	2986.62
703.4	2841.22
703.589	3013.24
703.777	2859.65
703.965	2761.34
704.154	3072.64
704.342	2876.03
704.531	2886.27
704.719	2796.16
704.907	2896.51
705.096	2769.54
705.284	3003
705.472	2884.22
705.661	2880.13
705.849	3035.77
706.037	2857.6
706.226	2820.74
706.414	2898.56
706.602	2949.76
706.79	2908.8
706.979	2796.16
707.167	2839.17
707.355	2980.48
707.543	2914.94
707.731	2921.09
707.919	2949.76
708.107	2900.61
708.296	2857.6
708.484	2935.42
708.672	2865.79
708.86	2976.38
709.048	2814.59
709.236	3019.39
709.424	2986.62
709.612	3062.4
709.8	2939.52
709.988	2896.51
710.176	2957.95
710.364	3046.01
710.551	3011.2
710.739	3056.25
710.927	2896.51
711.115	2949.76
711.303	3015.29
711.491	2996.86
711.679	2923.13
711.866	2845.31
712.054	3043.96
712.242	2925.18
712.43	2988.67
712.617	3005.05
712.805	2964.09
712.993	2878.08
713.181	3043.96
713.368	3043.96
713.556	2990.72
713.744	2960
713.931	3011.2
714.119	2996.86
714.306	3039.87
714.494	3007.1
714.682	2982.53
714.869	2982.53
715.057	2976.38
715.244	3050.11
715.432	3175.03
715.619	3046.01
715.807	3164.79
715.994	3160.7
716.182	3093.12
716.369	2980.48
716.556	3181.18
716.744	2945.66
716.931	3168.89
717.119	3201.66
717.306	3134.07
717.493	3076.73
717.681	3146.36
717.868	3166.84
718.055	2996.86
718.242	3121.79
718.43	3140.22
718.617	3191.42
718.804	3160.7
718.991	3125.88
719.179	3158.65
719.366	3295.86
719.553	3134.07
719.74	3154.55
719.927	3175.03
720.114	3197.56
720.301	3191.42
720.488	3201.66
720.676	3113.6
720.863	3299.96
721.05	3240.57
721.237	3236.47
721.424	3279.48
721.611	3205.75
721.798	3238.52
721.985	3119.74
722.172	3172.99
722.358	3181.18
722.545	3295.86
722.732	3160.7
722.919	3316.34
723.106	3109.5
723.293	3172.99
723.48	3222.14
723.667	3205.75
723.853	3238.52
724.04	3428.98
724.227	3205.75
724.414	3297.91
724.6	3117.69
724.787	3306.1
724.974	3347.06
725.161	3261.05
725.347	3285.62
725.534	3342.97
725.72	3347.06
725.907	3316.34
726.094	3287.67
726.28	3242.62
726.467	3256.95
726.653	3197.56
726.84	3287.67
727.027	3306.1
727.213	3345.02
727.4	3334.78
727.586	3297.91
727.773	3467.89
727.959	3263.1
728.145	3467.89
728.332	3453.56
728.518	3353.21
728.705	3426.93
728.891	3416.69
729.077	3488.37
729.264	3349.11
729.45	3359.35
729.636	3289.72
729.823	3410.55
730.009	3455.61
730.195	3424.89
730.382	3449.46
730.568	3412.6
730.754	3441.27
730.94	3504.76
731.126	3422.84
731.313	3361.4
731.499	3478.13
731.685	3347.06
731.871	3347.06
732.057	3467.89
732.243	3443.32
732.429	3443.32
732.615	3510.9
732.801	3424.89
732.987	3359.35
733.173	3437.17
733.359	3410.55
733.545	3668.59
733.731	3326.58
733.917	3474.04
734.103	3467.89
734.289	3490.42
734.475	3478.13
734.661	3553.91
734.847	3465.85
735.033	3541.62
735.219	3488.37
735.404	3443.32
735.59	3420.79
735.776	3447.41
735.962	3474.04
736.148	3500.66
736.333	3656.31
736.519	3508.85
736.705	3424.89
736.89	3517.05
737.076	3478.13
737.262	3355.26
737.447	3605.11
737.633	3523.19
737.819	3314.3
738.004	3529.33
738.19	3590.77
738.375	3527.28
738.561	3437.17
738.747	3410.55
738.932	3498.61
739.118	3512.95
739.303	3564.15
739.489	3441.27
739.674	3431.03
739.859	3605.11
740.045	3428.98
740.23	3482.23
740.416	3488.37
740.601	3381.88
740.786	3383.93
740.972	3357.3
741.157	3394.17
741.342	3263.1
741.528	3365.5
741.713	3437.17
741.898	3265.14
742.084	3277.43
742.269	3441.27
742.454	3281.53
742.639	3345.02
742.824	3385.98
743.01	3195.51
743.195	3320.44
743.38	3363.45
743.565	3285.62
743.75	3308.15
743.935	3334.78
744.12	3324.54
744.305	3189.37
744.49	3156.6
744.675	3285.62
744.86	3156.6
745.045	3093.12
745.23	3191.42
745.415	3172.99
745.6	3086.97
745.785	3086.97
745.97	3115.64
746.155	3072.64
746.34	3211.9
746.525	3082.88
746.71	3039.87
746.895	3041.92
747.079	2974.33
747.264	2978.43
747.449	3048.06
747.634	2976.38
747.819	2978.43
748.003	2910.85
748.188	2955.9
748.373	2835.07
748.557	2861.69
748.742	2982.53
748.927	2962.05
749.111	2820.74
749.296	2843.26
749.481	2779.78
749.665	2712.19
749.85	2751.1
750.034	2925.18
750.219	2810.5
750.404	2683.52
750.588	2681.47
750.773	2691.71
750.957	2644.61
751.141	2671.23
751.326	2615.94
751.51	2634.37
751.695	2642.56
751.879	2558.6
752.064	2736.77
752.248	2669.19
752.432	2482.82
752.617	2572.93
752.801	2464.39
752.985	2587.27
753.17	2574.98
753.354	2427.53
753.538	2374.28
753.722	2372.23
753.907	2445.96
754.091	2349.7
754.275	2351.75
754.459	2349.7
754.643	2253.45
754.828	2368.13
755.012	2316.94
755.196	2302.6
755.38	2349.7
755.564	2288.26
755.748	2263.69
755.932	2298.5
756.116	2198.15
756.3	2284.17
756.484	2192.01
756.668	2181.77
756.852	2130.57
757.036	2206.34
757.22	2126.47
757.404	2097.8
757.588	2071.18
757.772	2134.67
757.956	2165.39
758.14	2081.42
758.323	1972.88
758.507	2192.01
758.691	2112.14
758.875	2009.74
759.059	2081.42
759.242	1966.73
759.426	2071.18
759.61	1890.96
759.794	1964.68
759.977	2028.17
760.161	1976.97
760.345	1886.86
760.528	1933.97
760.712	1858.19
760.895	1872.53
761.079	1933.97
761.263	1813.14
761.446	1819.28
761.63	1929.87
761.813	1882.77
761.997	1835.66
762.18	1780.37
762.364	1747.6
762.547	1718.93
762.731	1792.66
762.914	1813.14
763.098	1675.92
763.281	1686.16
763.464	1696.4
763.648	1907.34
763.831	1800.85
764.015	1772.18
764.198	1774.22
764.381	1624.72
764.564	1657.49
764.748	1565.33
764.931	1647.25
765.114	1641.11
765.297	1649.3
765.481	1618.58
765.664	1661.59
765.847	1540.76
766.03	1637.01
766.213	1561.23
766.397	1675.92
766.58	1438.36
766.763	1628.82
766.946	1587.86
767.129	1632.91
767.312	1505.94
767.495	1524.37
767.678	1616.53
767.861	1487.51
768.044	1505.94
768.227	1495.7
768.41	1520.28
768.593	1475.22
768.776	1596.05
768.959	1436.31
769.142	1485.46
769.324	1378.97
769.507	1477.27
769.69	1464.98
769.873	1446.55
770.056	1481.36
770.239	1438.36
770.421	1438.36
770.604	1391.25
770.787	1395.35
770.97	1456.79
771.152	1426.07
771.335	1471.12
771.518	1305.24
771.7	1407.64
771.883	1411.73
772.066	1383.06
772.248	1331.86
772.431	1364.63
772.613	1335.96
772.796	1219.22
772.978	1333.91
773.161	1403.54
773.343	1329.81
773.526	1284.76
773.708	1354.39
773.891	1245.85
774.073	1303.19
774.256	1317.53
774.438	1225.37
774.621	1219.22
774.803	1290.9
774.985	1249.94
775.168	1274.52
775.35	1186.46
775.532	1233.56
775.715	1172.12
775.897	1143.45
776.079	1133.21
776.261	1178.26
776.444	1118.87
776.626	1135.26
776.808	1204.89
776.99	1125.02
777.173	1045.15
777.355	1084.06
777.537	1157.78
777.719	1110.68
777.901	1057.43
778.083	1157.78
778.265	1067.67
778.447	1045.15
778.629	1039
778.811	987.8
778.993	1026.72
779.175	1084.06
779.357	1049.24
779.539	1006.24
779.721	1073.82
779.903	987.8
780.085	928.41
780.267	885.41
780.449	922.27
780.631	926.36
780.812	1016.48
780.994	924.32
781.176	881.31
781.358	838.3
781.54	946.84
781.721	891.55
781.903	854.69
782.085	905.88
782.267	772.77
782.448	891.55
782.63	912.03
782.812	823.97
782.993	934.56
783.175	750.24
783.357	821.92
783.538	774.81
783.72	768.67
783.901	830.11
784.083	826.01
784.264	846.49
784.446	733.86
784.627	727.71
784.809	762.53
784.99	758.43
785.172	713.38
785.353	815.77
785.535	744.1
785.716	701.09
785.897	725.66
786.079	770.72
786.26	692.9
786.441	723.62
786.623	570.02
786.804	676.51
786.985	623.27
787.167	674.46
787.348	635.55
787.529	696.99
787.71	701.09
787.891	688.8
788.073	641.7
788.254	598.69
788.435	635.55
788.616	623.27
788.797	576.16
788.978	567.97
789.159	584.35
789.34	662.18
789.522	598.69
789.703	602.79
789.884	645.79
790.065	561.83
790.246	664.22
790.427	645.79
790.607	619.17
790.788	666.27
790.969	512.67
791.15	514.72
791.331	584.35
791.512	529.06
791.693	465.57
791.874	561.83
792.054	551.59
792.235	617.12
792.416	514.72
792.597	520.87
792.778	543.39
792.958	512.67
793.139	500.39
793.32	596.64
793.5	545.44
793.681	561.83
793.862	477.86
794.042	492.2
794.223	412.32
794.404	543.39
794.584	414.37
794.765	447.14
794.945	488.1
795.126	522.91
795.306	502.43
795.487	479.91
795.667	451.24
795.848	490.15
796.028	436.9
796.209	475.81
796.389	367.27
796.57	506.53
796.75	402.08
796.93	359.08
797.111	422.56
797.291	453.28
797.471	402.08
797.652	365.22
797.832	389.8
798.012	488.1
798.192	365.22
798.373	371.37
798.553	449.19
798.733	484
798.913	385.7
799.093	350.89
799.274	381.6
799.454	357.03
799.634	416.42
799.814	434.85
799.994	404.13
800.174	332.45
800.354	434.85
800.534	332.45
800.714	453.28
800.894	338.6
801.074	400.04
801.254	408.23
801.434	346.79
801.614	361.13
801.794	354.98
801.974	1155.74
802.154	328.36
802.334	424.61
802.514	418.47
802.693	373.41
802.873	326.31
803.053	367.27
803.233	363.17
803.413	291.49
803.592	285.35
803.772	361.13
803.952	400.04
804.131	342.69
804.311	361.13
804.491	373.41
804.67	406.18
804.85	322.21
805.03	357.03
805.209	361.13
805.389	297.64
805.568	283.3
805.748	254.63
805.928	350.89
806.107	412.32
806.287	314.02
806.466	361.13
806.646	316.07
806.825	340.65
807.004	297.64
807.184	328.36
807.363	330.41
807.543	330.41
807.722	336.55
807.901	277.16
808.081	375.46
808.26	152.23
808.439	316.07
808.619	287.4
808.798	305.83
808.977	332.45
809.156	291.49
809.336	275.11
809.515	307.88
809.694	248.49
809.873	262.82
810.052	232.1
810.231	221.86
810.411	256.68
810.59	314.02
810.769	307.88
810.948	307.88
811.127	162.47
811.306	225.96
811.485	205.48
811.664	221.86
811.843	275.11
812.022	363.17
812.201	209.58
812.38	266.92
812.559	248.49
812.737	301.73
812.916	199.34
813.095	221.86
813.274	260.77
813.453	244.39
813.632	256.68
813.811	254.63
813.989	266.92
814.168	281.25
814.347	180.9
814.526	215.72
814.704	262.82
814.883	258.73
815.062	160.42
815.24	209.58
815.419	201.38
815.598	219.82
815.776	146.09
815.955	225.96
816.133	178.86
816.312	209.58
816.49	217.77
816.669	150.18
816.847	211.62
817.026	215.72
817.204	137.9
817.383	236.2
817.561	158.38
817.74	154.28
817.918	244.39
818.097	205.48
818.275	217.77
818.453	217.77
818.632	205.48
818.81	180.9
818.988	146.09
819.167	195.24
819.345	211.62
819.523	62.12
819.701	182.95
819.879	189.1
820.058	182.95
820.236	262.82
820.414	199.34
820.592	135.85
820.77	174.76
820.948	176.81
821.127	180.9
821.305	107.18
821.483	105.13
821.661	189.1
821.839	144.04
822.017	162.47
822.195	123.56
822.373	185
822.551	203.43
822.729	225.96
822.907	197.29
823.085	174.76
823.262	154.28
823.44	150.18
823.618	178.86
823.796	113.32
823.974	103.08
824.152	144.04
824.329	150.18
824.507	187.05
824.685	209.58
824.863	178.86
825.04	158.38
825.218	164.52
825.396	162.47
825.574	137.9
825.751	193.19
825.929	135.85
826.107	121.51
826.284	172.71
826.462	150.18
826.639	148.14
826.817	131.75
826.994	117.42
827.172	53.93
827.349	168.62
827.527	135.85
827.704	174.76
827.882	154.28
828.059	125.61
828.237	105.13
828.414	160.42
828.591	107.18
828.769	127.66
828.946	154.28
829.124	127.66
829.301	178.86
829.478	207.53
829.655	109.23
829.833	68.27
830.01	111.27
830.187	84.65
830.364	152.23
830.542	176.81
830.719	144.04
830.896	117.42
831.073	191.14
831.25	193.19
831.427	150.18
831.604	111.27
831.782	58.03
831.959	76.46
832.136	76.46
832.313	103.08
832.49	131.75
832.667	174.76
832.844	86.7
833.021	148.14
833.198	109.23
833.374	78.51
833.551	156.33
833.728	101.03
833.905	129.7
834.082	64.17
834.259	84.65
834.436	55.98
834.612	66.22
834.789	107.18
834.966	131.75
835.143	170.66
835.319	139.94
835.496	49.83
835.673	170.66
835.85	78.51
836.026	119.46
836.203	101.03
836.38	74.41
836.556	182.95
836.733	88.75
836.909	131.75
837.086	37.55
837.262	53.93
837.439	78.51
837.616	19.11
837.792	121.51
837.968	197.29
838.145	88.75
838.321	60.07
838.498	101.03
838.674	197.29
838.851	123.56
839.027	121.51
839.203	103.08
839.38	78.51
839.556	68.27
839.732	84.65
839.909	109.23
840.085	146.09
840.261	43.69
840.437	76.46
840.614	82.6
840.79	117.42
840.966	115.37
841.142	82.6
841.318	68.27
841.494	72.36
841.671	111.27
841.847	19.11
842.023	74.41
842.199	101.03
842.375	131.75
842.551	62.12
842.727	41.64
842.903	129.7
843.079	43.69
843.255	117.42
843.431	80.55
843.607	107.18
843.783	76.46
843.959	33.45
844.134	60.07
844.31	76.46
844.486	10.92
844.662	41.64
844.838	105.13
845.013	84.65
845.189	117.42
845.365	53.93
845.541	21.16
845.716	98.99
845.892	31.4
846.068	92.84
846.244	86.7
846.419	41.64
846.595	33.45
846.77	62.12
846.946	53.93
847.122	35.5
847.297	-15.7
847.473	10.92
847.648	62.12
847.824	76.46
847.999	0.68
848.175	21.16
848.35	113.32
848.526	43.69
848.701	-15.7
848.876	15.02
849.052	101.03
849.227	29.35
849.403	92.84
849.578	17.07
849.753	17.07
849.929	49.83
850.104	47.79
850.279	62.12
850.454	19.11
850.63	31.4
850.805	33.45
850.98	21.16
851.155	21.16
851.33	74.41
851.505	-17.75
851.681	82.6
851.856	25.26
852.031	58.03
852.206	27.31
852.381	62.12
852.556	53.93
852.731	39.59
852.906	70.31
853.081	72.36
853.256	137.9
853.431	23.21
853.606	60.07
853.781	101.03
853.956	-19.8
854.131	21.16
854.305	62.12
854.48	-40.28
854.655	-9.56
854.83	-17.75
855.005	-19.8
855.18	62.12
855.354	4.78
855.529	27.31
855.704	101.03
855.879	41.64
856.053	-21.84
856.228	96.94
856.403	66.22
856.577	47.79
856.752	27.31
856.926	68.27
857.101	21.16
857.276	-17.75
857.45	15.02
857.625	88.75
857.799	37.55
857.974	64.17
858.148	49.83
858.323	103.08
858.497	-42.32
858.672	-34.13
858.846	72.36
859.02	12.97
859.195	-9.56
859.369	-13.65
859.543	39.59
859.718	-30.04
859.892	37.55
860.066	29.35
860.241	17.07
860.415	72.36
860.589	74.41
860.763	6.83
860.938	15.02
861.112	92.84
861.286	66.22
861.46	60.07
861.634	53.93
861.808	4.78
861.982	-1.37
862.157	-13.65
862.331	-21.84
862.505	-17.75
862.679	2.73
862.853	-1.37
863.027	-38.23
863.201	23.21
863.375	66.22
863.549	-7.51
863.722	-19.8
863.896	27.31
864.07	-3.41
864.244	31.4
864.418	96.94
864.592	37.55
864.766	82.6
864.939	29.35
865.113	0.68
865.287	72.36
865.461	-81.24
865.634	70.31
865.808	-38.23
865.982	17.07
866.156	19.11
866.329	-91.48
866.503	29.35
866.676	55.98
866.85	25.26
867.024	-75.09
867.197	21.16
867.371	64.17
867.544	62.12
867.718	-13.65
867.891	-1.37
868.065	-27.99
868.238	-25.94
868.412	-17.75
868.585	29.35
868.759	103.08
868.932	-60.76
869.105	17.07
869.279	27.31
869.452	-44.37
869.625	-9.56
869.799	35.5
869.972	-56.66
870.145	55.98
870.319	94.89
870.492	-40.28
870.665	15.02
870.838	4.78
871.011	-21.84
871.185	-46.42
871.358	-17.75
871.531	35.5
871.704	-9.56
871.877	4.78
872.05	-27.99
872.223	-7.51
872.396	-36.18
872.569	47.79
872.742	2.73
872.915	-5.46
873.088	-17.75
873.261	-15.7
873.434	-17.75
873.607	-3.41
873.78	33.45
873.953	0.68
874.126	41.64
874.299	51.88
874.471	21.16
874.644	19.11
874.817	-46.42
874.99	101.03
875.163	-15.7
875.335	90.79
875.508	-11.61
875.681	86.7
875.853	10.92
876.026	-5.46
876.199	21.16
876.371	47.79
876.544	4.78
876.717	-5.46
876.889	-42.32
877.062	37.55
877.234	-38.23
877.407	45.74
877.579	-21.84
877.752	-11.61
877.924	12.97
878.097	-23.89
878.269	-7.51
878.442	-1.37
878.614	43.69
878.786	2.73
878.959	25.26
879.131	47.79
879.303	-68.95
879.476	-27.99
879.648	-19.8
879.82	107.18
879.993	19.11
880.165	-36.18
880.337	-83.28
880.509	33.45
880.681	-5.46
880.854	25.26
881.026	76.46
881.198	31.4
881.37	-11.61
881.542	29.35
881.714	-25.94
881.886	17.07
882.058	6.83
882.23	-44.37
882.402	-27.99
882.574	119.46
882.746	43.69
882.918	23.21
883.09	27.31
883.262	-42.32
883.434	-17.75
883.606	-48.47
883.778	6.83
883.95	88.75
884.122	-54.61
884.293	68.27
884.465	-17.75
884.637	49.83
884.809	21.16
884.98	29.35
885.152	15.02
885.324	23.21
885.496	8.87
885.667	39.59
885.839	-15.7
886.011	39.59
886.182	4.78
886.354	60.07
886.525	43.69
886.697	-54.61
886.869	-1.37
887.04	-66.9
887.212	-13.65
887.383	78.51
887.555	41.64
887.726	-19.8
887.897	-17.75
888.069	4.78
888.24	-13.65
888.412	-36.18
888.583	-54.61
888.754	19.11
888.926	47.79
889.097	6.83
889.268	19.11
889.44	29.35
889.611	-52.56
889.782	-56.66
889.953	-27.99
890.125	29.35
890.296	-46.42
890.467	-15.7
890.638	-25.94
890.809	-11.61
890.98	31.4
891.151	10.92
891.323	2.73
891.494	17.07
891.665	-17.75
891.836	31.4
892.007	-21.84
892.178	-60.76
892.349	-36.18
892.52	23.21
892.691	12.97
892.862	-38.23
893.032	-11.61
893.203	12.97
893.374	-13.65
893.545	15.02
893.716	-44.37
893.887	96.94
894.057	10.92
894.228	-19.8
894.399	-32.08
894.57	8.87
894.74	2.73
894.911	-7.51
895.082	-54.61
895.253	-46.42
895.423	0.68
895.594	27.31
895.764	-23.89
895.935	-5.46
896.106	31.4
896.276	-5.46
896.447	0.68
896.617	-75.09
896.788	-48.47
896.958	-3.41
897.129	-128.34
897.299	-60.76
897.47	47.79
897.64	-13.65
897.81	-3.41
897.981	37.55
898.151	-89.43
898.322	15.02
898.492	0.68
898.662	-46.42
898.832	-42.32
899.003	-9.56
899.173	88.75
899.343	-68.95
899.513	-27.99
