Data from USB4F104151__71__12-24-17-776.txt Node

Date: Fri Mar 14 12:24:17 EDT 2025
User: louis
Spectrometer: USB4F10415
Trigger mode: 4
Integration Time (sec): 3.500000E-2
Scans to average: 1
Electric dark correction enabled: true
Nonlinearity correction enabled: false
Boxcar width: 0
XAxis mode: Wavelengths
Number of Pixels in Spectrum: 3648
>>>>>Begin Spectral Data<<<<<
178.204	-169.64
178.424	-169.64
178.644	-169.64
178.864	-112.3
179.084	-134.82
179.304	-79.53
179.524	41.3
179.744	20.82
179.964	20.82
180.184	47.44
180.404	67.92
180.624	-9.9
180.844	-26.28
181.064	-118.44
181.283	10.58
181.503	-5.8
181.723	31.06
181.943	-28.33
182.163	65.88
182.383	-3.75
182.602	59.73
182.822	-3.75
183.042	45.4
183.262	26.96
183.482	-11.95
183.701	18.77
183.921	57.68
184.141	-26.28
184.361	4.44
184.58	43.35
184.8	59.73
185.02	-32.43
185.239	90.45
185.459	12.63
185.679	-16.04
185.898	-50.86
186.118	55.64
186.338	72.02
186.557	16.73
186.777	-20.14
186.997	35.16
187.216	-57
187.436	98.64
187.655	6.49
187.875	24.92
188.095	47.44
188.314	59.73
188.534	67.92
188.753	-81.58
188.973	145.75
189.192	31.06
189.412	67.92
189.631	-13.99
189.851	-9.9
190.07	78.16
190.29	-30.38
190.509	29.01
190.729	49.49
190.948	88.4
191.168	123.22
191.387	53.59
191.607	-87.72
191.826	-5.8
192.045	35.16
192.265	14.68
192.484	31.06
192.704	-30.38
192.923	-46.76
193.142	112.98
193.362	78.16
193.581	49.49
193.8	-7.85
194.02	2.39
194.239	6.49
194.458	8.53
194.678	26.96
194.897	8.53
195.116	-26.28
195.335	-9.9
195.555	18.77
195.774	31.06
195.993	51.54
196.212	-75.43
196.432	-36.52
196.651	0.34
196.87	-48.81
197.089	47.44
197.308	29.01
197.528	16.73
197.747	16.73
197.966	-3.75
198.185	72.02
198.404	12.63
198.623	35.16
198.842	18.77
199.062	14.68
199.281	24.92
199.5	-63.15
199.719	24.92
199.938	86.36
200.157	37.2
200.376	39.25
200.595	78.16
200.814	14.68
201.033	-36.52
201.252	88.4
201.471	6.49
201.69	10.58
201.909	12.63
202.128	72.02
202.347	65.88
202.566	31.06
202.785	47.44
203.004	-28.33
203.223	155.99
203.442	16.73
203.661	-91.82
203.879	-52.91
204.098	14.68
204.317	2.39
204.536	90.45
204.755	16.73
204.974	55.64
205.193	12.63
205.411	80.21
205.63	-16.04
205.849	-26.28
206.068	2.39
206.287	63.83
206.505	47.44
206.724	2.39
206.943	-69.29
207.162	51.54
207.381	-28.33
207.599	63.83
207.818	49.49
208.037	31.06
208.255	-30.38
208.474	24.92
208.693	33.11
208.911	-11.95
209.13	-36.52
209.349	-1.71
209.567	51.54
209.786	133.46
210.005	-30.38
210.223	65.88
210.442	63.83
210.661	6.49
210.879	-54.95
211.098	-40.62
211.316	-26.28
211.535	57.68
211.753	57.68
211.972	61.78
212.191	45.4
212.409	-13.99
212.628	47.44
212.846	33.11
213.065	67.92
213.283	106.84
213.502	12.63
213.72	-57
213.938	12.63
214.157	12.63
214.375	94.55
214.594	0.34
214.812	59.73
215.031	35.16
215.249	-22.19
215.467	-24.23
215.686	-48.81
215.904	-13.99
216.122	0.34
216.341	59.73
216.559	-7.85
216.778	51.54
216.996	-42.67
217.214	-5.8
217.432	67.92
217.651	47.44
217.869	39.25
218.087	-18.09
218.306	-44.71
218.524	-36.52
218.742	51.54
218.96	8.53
219.179	26.96
219.397	-28.33
219.615	49.49
219.833	26.96
220.051	10.58
220.27	67.92
220.488	33.11
220.706	33.11
220.924	24.92
221.142	-69.29
221.36	92.5
221.578	47.44
221.796	14.68
222.015	31.06
222.233	-16.04
222.451	24.92
222.669	-1.71
222.887	20.82
223.105	-26.28
223.323	63.83
223.541	47.44
223.759	-36.52
223.977	14.68
224.195	-40.62
224.413	37.2
224.631	82.26
224.849	-20.14
225.067	96.6
225.285	-32.43
225.503	26.96
225.721	-50.86
225.939	-57
226.157	117.08
226.375	74.07
226.592	22.87
226.81	-32.43
227.028	43.35
227.246	82.26
227.464	-67.24
227.682	45.4
227.9	31.06
228.117	51.54
228.335	-32.43
228.553	53.59
228.771	33.11
228.989	26.96
229.206	72.02
229.424	-61.1
229.642	16.73
229.86	20.82
230.077	4.44
230.295	53.59
230.513	39.25
230.731	119.12
230.948	84.31
231.166	100.69
231.384	6.49
231.601	33.11
231.819	51.54
232.037	-26.28
232.254	-26.28
232.472	49.49
232.689	-20.14
232.907	-48.81
233.125	-18.09
233.342	26.96
233.56	-71.34
233.777	-18.09
233.995	43.35
234.213	39.25
234.43	29.01
234.648	4.44
234.865	96.6
235.083	41.3
235.3	12.63
235.518	47.44
235.735	-22.19
235.953	-1.71
236.17	16.73
236.388	61.78
236.605	-7.85
236.822	90.45
237.04	4.44
237.257	18.77
237.475	-30.38
237.692	47.44
237.909	37.2
238.127	35.16
238.344	18.77
238.562	35.16
238.779	-79.53
238.996	31.06
239.214	47.44
239.431	69.97
239.648	-16.04
239.865	0.34
240.083	12.63
240.3	22.87
240.517	-61.1
240.735	0.34
240.952	24.92
241.169	29.01
241.386	24.92
241.603	22.87
241.821	-34.47
242.038	100.69
242.255	22.87
242.472	-9.9
242.689	59.73
242.907	-9.9
243.124	14.68
243.341	20.82
243.558	39.25
243.775	57.68
243.992	-71.34
244.209	49.49
244.426	84.31
244.643	14.68
244.86	-28.33
245.078	-13.99
245.295	57.68
245.512	-9.9
245.729	6.49
245.946	-30.38
246.163	82.26
246.38	84.31
246.597	29.01
246.814	29.01
247.031	14.68
247.248	20.82
247.464	55.64
247.681	8.53
247.898	-5.8
248.115	98.64
248.332	-34.47
248.549	143.7
248.766	131.41
248.983	45.4
249.2	-28.33
249.417	-13.99
249.633	37.2
249.85	92.5
250.067	-28.33
250.284	72.02
250.501	55.64
250.717	-9.9
250.934	-1.71
251.151	-26.28
251.368	22.87
251.585	6.49
251.801	10.58
252.018	-46.76
252.235	22.87
252.451	-24.23
252.668	-28.33
252.885	49.49
253.102	41.3
253.318	-32.43
253.535	-9.9
253.752	-20.14
253.968	2.39
254.185	39.25
254.401	10.58
254.618	-102.06
254.835	-1.71
255.051	26.96
255.268	24.92
255.484	10.58
255.701	-9.9
255.917	88.4
256.134	18.77
256.351	35.16
256.567	-40.62
256.784	47.44
257	-106.15
257.217	59.73
257.433	24.92
257.65	33.11
257.866	55.64
258.082	61.78
258.299	-42.67
258.515	82.26
258.732	-30.38
258.948	-9.9
259.165	16.73
259.381	51.54
259.597	47.44
259.814	-36.52
260.03	12.63
260.246	-32.43
260.463	84.31
260.679	10.58
260.895	-69.29
261.112	-9.9
261.328	-18.09
261.544	29.01
261.761	92.5
261.977	51.54
262.193	-54.95
262.409	43.35
262.626	-32.43
262.842	45.4
263.058	-22.19
263.274	108.88
263.49	76.12
263.707	82.26
263.923	6.49
264.139	37.2
264.355	18.77
264.571	24.92
264.787	-7.85
265.004	78.16
265.22	22.87
265.436	-13.99
265.652	22.87
265.868	49.49
266.084	-136.87
266.3	24.92
266.516	4.44
266.732	-42.67
266.948	-77.48
267.164	14.68
267.38	74.07
267.596	26.96
267.812	41.3
268.028	22.87
268.244	53.59
268.46	-52.91
268.676	-67.24
268.892	16.73
269.108	4.44
269.324	-9.9
269.54	-26.28
269.756	-3.75
269.972	-40.62
270.188	-22.19
270.403	67.92
270.619	24.92
270.835	61.78
271.051	-20.14
271.267	-28.33
271.483	41.3
271.698	47.44
271.914	55.64
272.13	59.73
272.346	-36.52
272.562	76.12
272.777	53.59
272.993	-38.57
273.209	-16.04
273.425	92.5
273.64	31.06
273.856	94.55
274.072	29.01
274.287	-34.47
274.503	47.44
274.719	6.49
274.934	-42.67
275.15	59.73
275.366	6.49
275.581	-91.82
275.797	33.11
276.012	37.2
276.228	0.34
276.444	31.06
276.659	-7.85
276.875	22.87
277.09	29.01
277.306	-36.52
277.521	72.02
277.737	24.92
277.952	-18.09
278.168	-89.77
278.383	51.54
278.599	-20.14
278.814	39.25
279.03	-11.95
279.245	78.16
279.461	20.82
279.676	22.87
279.892	-48.81
280.107	-1.71
280.322	-1.71
280.538	29.01
280.753	2.39
280.969	4.44
281.184	31.06
281.399	39.25
281.615	100.69
281.83	49.49
282.045	-18.09
282.26	-42.67
282.476	2.39
282.691	-11.95
282.906	-42.67
283.122	22.87
283.337	26.96
283.552	8.53
283.767	-36.52
283.983	33.11
284.198	-22.19
284.413	37.2
284.628	8.53
284.843	-30.38
285.058	24.92
285.274	-26.28
285.489	-61.1
285.704	55.64
285.919	14.68
286.134	-9.9
286.349	4.44
286.564	29.01
286.779	84.31
286.995	55.64
287.21	-57
287.425	69.97
287.64	8.53
287.855	80.21
288.07	-40.62
288.285	4.44
288.5	78.16
288.715	41.3
288.93	2.39
289.145	-20.14
289.36	63.83
289.575	22.87
289.79	29.01
290.004	-30.38
290.219	39.25
290.434	-7.85
290.649	-11.95
290.864	-26.28
291.079	108.88
291.294	-20.14
291.509	29.01
291.724	-34.47
291.938	29.01
292.153	29.01
292.368	-3.75
292.583	14.68
292.798	94.55
293.012	63.83
293.227	51.54
293.442	33.11
293.657	53.59
293.871	108.88
294.086	55.64
294.301	37.2
294.516	59.73
294.73	74.07
294.945	-9.9
295.16	61.78
295.374	-18.09
295.589	55.64
295.804	37.2
296.018	65.88
296.233	98.64
296.447	4.44
296.662	-65.19
296.877	26.96
297.091	51.54
297.306	2.39
297.52	-9.9
297.735	63.83
297.949	12.63
298.164	67.92
298.378	-40.62
298.593	-9.9
298.807	22.87
299.022	-5.8
299.236	33.11
299.451	26.96
299.665	-7.85
299.88	8.53
300.094	22.87
300.309	18.77
300.523	6.49
300.737	4.44
300.952	-42.67
301.166	-3.75
301.381	31.06
301.595	41.3
301.809	37.2
302.024	-63.15
302.238	20.82
302.452	-7.85
302.667	-18.09
302.881	-1.71
303.095	61.78
303.309	12.63
303.524	22.87
303.738	41.3
303.952	-42.67
304.166	0.34
304.381	4.44
304.595	43.35
304.809	-87.72
305.023	2.39
305.237	-26.28
305.452	39.25
305.666	12.63
305.88	55.64
306.094	63.83
306.308	55.64
306.522	8.53
306.736	29.01
306.95	53.59
307.164	55.64
307.379	6.49
307.593	6.49
307.807	41.3
308.021	63.83
308.235	-22.19
308.449	24.92
308.663	41.3
308.877	61.78
309.091	-5.8
309.305	84.31
309.519	10.58
309.733	63.83
309.947	14.68
310.161	-46.76
310.374	69.97
310.588	35.16
310.802	-50.86
311.016	29.01
311.23	18.77
311.444	12.63
311.658	-26.28
311.872	102.74
312.085	49.49
312.299	33.11
312.513	-11.95
312.727	-18.09
312.941	-36.52
313.154	37.2
313.368	-7.85
313.582	33.11
313.796	31.06
314.009	37.2
314.223	37.2
314.437	26.96
314.651	2.39
314.864	4.44
315.078	31.06
315.292	-13.99
315.505	-54.95
315.719	14.68
315.933	6.49
316.146	-22.19
316.36	-5.8
316.573	45.4
316.787	22.87
317.001	82.26
317.214	-18.09
317.428	74.07
317.641	35.16
317.855	43.35
318.068	-20.14
318.282	12.63
318.495	-1.71
318.709	69.97
318.922	10.58
319.136	80.21
319.349	4.44
319.563	65.88
319.776	51.54
319.99	-36.52
320.203	76.12
320.417	24.92
320.63	16.73
320.843	74.07
321.057	12.63
321.27	-1.71
321.483	35.16
321.697	31.06
321.91	-16.04
322.124	20.82
322.337	90.45
322.55	-42.67
322.763	67.92
322.977	-20.14
323.19	51.54
323.403	22.87
323.617	45.4
323.83	4.44
324.043	74.07
324.256	-30.38
324.469	39.25
324.683	29.01
324.896	8.53
325.109	-16.04
325.322	-1.71
325.535	14.68
325.748	-52.91
325.962	51.54
326.175	69.97
326.388	57.68
326.601	39.25
326.814	6.49
327.027	-52.91
327.24	74.07
327.453	-77.48
327.666	-7.85
327.879	41.3
328.092	94.55
328.305	35.16
328.518	0.34
328.731	10.58
328.944	-5.8
329.157	78.16
329.37	-50.86
329.583	106.84
329.796	100.69
330.009	-3.75
330.222	12.63
330.435	35.16
330.648	43.35
330.861	14.68
331.073	-5.8
331.286	78.16
331.499	20.82
331.712	12.63
331.925	14.68
332.138	22.87
332.35	57.68
332.563	-40.62
332.776	61.78
332.989	-26.28
333.202	63.83
333.414	-32.43
333.627	22.87
333.84	12.63
334.053	6.49
334.265	-77.48
334.478	0.34
334.691	41.3
334.903	-20.14
335.116	51.54
335.329	49.49
335.541	6.49
335.754	53.59
335.966	59.73
336.179	39.25
336.392	35.16
336.604	-9.9
336.817	12.63
337.029	-34.47
337.242	-57
337.454	16.73
337.667	18.77
337.88	51.54
338.092	31.06
338.305	-1.71
338.517	-9.9
338.729	24.92
338.942	88.4
339.154	31.06
339.367	10.58
339.579	39.25
339.792	-46.76
340.004	82.26
340.217	10.58
340.429	37.2
340.641	8.53
340.854	-7.85
341.066	-18.09
341.278	24.92
341.491	31.06
341.703	67.92
341.915	-112.3
342.128	98.64
342.34	155.99
342.552	-52.91
342.764	22.87
342.977	49.49
343.189	51.54
343.401	65.88
343.613	-30.38
343.826	39.25
344.038	-44.71
344.25	96.6
344.462	8.53
344.674	8.53
344.886	-11.95
345.099	88.4
345.311	69.97
345.523	-1.71
345.735	41.3
345.947	0.34
346.159	22.87
346.371	43.35
346.583	10.58
346.795	53.59
347.007	-32.43
347.219	-7.85
347.431	-40.62
347.643	84.31
347.855	-9.9
348.067	8.53
348.279	-36.52
348.491	82.26
348.703	57.68
348.915	63.83
349.127	24.92
349.339	59.73
349.551	35.16
349.763	43.35
349.975	24.92
350.187	31.06
350.399	2.39
350.61	65.88
350.822	-50.86
351.034	-5.8
351.246	2.39
351.458	88.4
351.669	22.87
351.881	59.73
352.093	55.64
352.305	14.68
352.517	53.59
352.728	57.68
352.94	33.11
353.152	72.02
353.363	-26.28
353.575	26.96
353.787	72.02
353.999	2.39
354.21	49.49
354.422	-7.85
354.633	-38.57
354.845	45.4
355.057	45.4
355.268	-11.95
355.48	-16.04
355.692	55.64
355.903	26.96
356.115	24.92
356.326	-48.81
356.538	14.68
356.749	18.77
356.961	-16.04
357.172	53.59
357.384	-11.95
357.595	121.17
357.807	-38.57
358.018	67.92
358.23	33.11
358.441	117.08
358.653	84.31
358.864	12.63
359.075	-18.09
359.287	20.82
359.498	72.02
359.709	20.82
359.921	39.25
360.132	-57
360.344	20.82
360.555	-1.71
360.766	69.97
360.977	55.64
361.189	112.98
361.4	53.59
361.611	49.49
361.823	6.49
362.034	31.06
362.245	-7.85
362.456	80.21
362.667	53.59
362.879	26.96
363.09	57.68
363.301	69.97
363.512	110.93
363.723	65.88
363.935	2.39
364.146	33.11
364.357	35.16
364.568	43.35
364.779	-44.71
364.99	51.54
365.201	-3.75
365.412	41.3
365.623	26.96
365.834	-20.14
366.045	84.31
366.256	-3.75
366.467	16.73
366.678	47.44
366.889	63.83
367.1	43.35
367.311	76.12
367.522	14.68
367.733	53.59
367.944	-48.81
368.155	-20.14
368.366	35.16
368.577	67.92
368.788	57.68
368.999	10.58
369.209	-38.57
369.42	53.59
369.631	102.74
369.842	-3.75
370.053	10.58
370.264	53.59
370.474	98.64
370.685	49.49
370.896	31.06
371.107	78.16
371.317	-13.99
371.528	-1.71
371.739	24.92
371.95	84.31
372.16	-13.99
372.371	16.73
372.582	115.03
372.792	51.54
373.003	20.82
373.214	55.64
373.424	112.98
373.635	-28.33
373.846	69.97
374.056	74.07
374.267	18.77
374.477	-28.33
374.688	8.53
374.898	22.87
375.109	43.35
375.319	65.88
375.53	84.31
375.74	35.16
375.951	49.49
376.161	37.2
376.372	47.44
376.582	-30.38
376.793	53.59
377.003	84.31
377.214	-22.19
377.424	69.97
377.635	16.73
377.845	35.16
378.055	115.03
378.266	82.26
378.476	57.68
378.686	29.01
378.897	22.87
379.107	10.58
379.317	-20.14
379.528	43.35
379.738	51.54
379.948	63.83
380.158	63.83
380.369	69.97
380.579	51.54
380.789	61.78
380.999	6.49
381.21	29.01
381.42	76.12
381.63	61.78
381.84	-1.71
382.05	-7.85
382.261	80.21
382.471	78.16
382.681	-1.71
382.891	106.84
383.101	31.06
383.311	-24.23
383.521	76.12
383.731	4.44
383.941	-13.99
384.151	57.68
384.361	-30.38
384.571	76.12
384.781	29.01
384.991	24.92
385.201	133.46
385.411	12.63
385.621	6.49
385.831	59.73
386.041	-22.19
386.251	47.44
386.461	-5.8
386.671	31.06
386.881	20.82
387.091	6.49
387.301	69.97
387.511	-7.85
387.72	72.02
387.93	67.92
388.14	14.68
388.35	8.53
388.56	-22.19
388.769	-18.09
388.979	18.77
389.189	24.92
389.399	37.2
389.609	2.39
389.818	59.73
390.028	57.68
390.238	65.88
390.447	57.68
390.657	-22.19
390.867	-24.23
391.076	-13.99
391.286	29.01
391.496	-30.38
391.705	43.35
391.915	84.31
392.125	37.2
392.334	-16.04
392.544	82.26
392.753	67.92
392.963	18.77
393.172	-7.85
393.382	-46.76
393.591	65.88
393.801	-59.05
394.01	43.35
394.22	110.93
394.429	10.58
394.639	43.35
394.848	61.78
395.058	18.77
395.267	43.35
395.477	-73.39
395.686	4.44
395.895	119.12
396.105	110.93
396.314	51.54
396.524	63.83
396.733	47.44
396.942	22.87
397.152	115.03
397.361	96.6
397.57	86.36
397.78	31.06
397.989	108.88
398.198	61.78
398.407	45.4
398.617	88.4
398.826	39.25
399.035	78.16
399.244	4.44
399.453	78.16
399.663	59.73
399.872	88.4
400.081	29.01
400.29	141.65
400.499	-13.99
400.708	78.16
400.917	86.36
401.127	14.68
401.336	-7.85
401.545	102.74
401.754	110.93
401.963	151.89
402.172	16.73
402.381	6.49
402.59	31.06
402.799	82.26
403.008	-3.75
403.217	37.2
403.426	41.3
403.635	45.4
403.844	133.46
404.053	41.3
404.262	74.07
404.471	184.66
404.68	22.87
404.888	57.68
405.097	61.78
405.306	112.98
405.515	137.56
405.724	37.2
405.933	84.31
406.142	76.12
406.35	55.64
406.559	94.55
406.768	76.12
406.977	182.61
407.185	127.32
407.394	192.85
407.603	125.27
407.812	174.42
408.02	164.18
408.229	209.23
408.438	141.65
408.646	110.93
408.855	123.22
409.064	211.28
409.272	176.47
409.481	158.03
409.69	158.03
409.898	143.7
410.107	198.99
410.315	209.23
410.524	166.23
410.733	184.66
410.941	106.84
411.15	205.14
411.358	252.24
411.567	278.87
411.775	213.33
411.984	258.39
412.192	280.91
412.401	174.42
412.609	323.92
412.818	285.01
413.026	287.06
413.234	256.34
413.443	196.95
413.651	282.96
413.86	360.78
414.068	383.31
414.276	397.65
414.485	313.68
414.693	383.31
414.901	420.17
415.11	442.7
415.318	354.64
415.526	450.89
415.734	526.67
415.943	481.61
416.151	491.85
416.359	473.42
416.567	526.67
416.776	567.63
416.984	483.66
417.192	524.62
417.4	600.4
417.608	522.57
417.817	686.41
418.025	680.27
418.233	708.94
418.441	661.84
418.649	715.08
418.857	700.75
419.065	774.47
419.273	622.92
419.481	799.05
419.689	850.25
419.897	897.35
420.105	868.68
420.313	923.98
420.521	936.26
420.729	987.46
420.937	1001.8
421.145	1007.94
421.353	1038.66
421.561	1118.53
421.769	1120.58
421.977	1126.72
422.185	1124.68
422.393	1329.47
422.601	1372.48
422.809	1327.43
423.017	1315.14
423.224	1452.35
423.432	1448.26
423.64	1388.86
423.848	1655.1
424.056	1470.78
424.263	1669.44
424.471	1554.75
424.679	1593.66
424.887	1767.74
425.094	1886.52
425.302	1790.27
425.51	1962.3
425.718	1960.25
425.925	2025.78
426.133	2031.93
426.341	2287.92
426.548	2275.63
426.756	2320.69
426.964	2253.11
427.171	2470.19
427.379	2470.19
427.586	2449.71
427.794	2697.52
428.001	2679.08
428.209	2869.55
428.417	2732.33
428.624	3135.78
428.832	3035.43
429.039	3041.57
429.247	2939.18
429.454	3270.95
429.662	3471.65
429.869	3166.5
430.076	3541.28
430.284	3326.24
430.491	3531.04
430.699	3717.4
430.906	3862.81
431.114	3864.86
431.321	4024.6
431.528	3862.81
431.736	4421.91
431.943	4352.27
432.15	4282.64
432.358	4426
432.565	4710.67
432.772	4725.01
432.979	4800.78
433.187	5036.3
433.394	4835.6
433.601	5331.2
433.808	5503.23
434.016	5314.82
434.223	5544.19
434.43	5970.17
434.637	5804.28
434.844	6109.43
435.052	6201.59
435.259	6154.49
435.466	6183.16
435.673	6033.66
435.88	6488.31
436.087	6908.14
436.294	6899.95
436.501	6744.3
436.708	6945
436.915	7282.92
437.122	7418.08
437.329	7420.13
437.537	7815.39
437.743	7737.57
437.95	7796.96
438.157	8143.07
438.364	8446.16
438.571	8331.48
438.778	8575.19
438.985	9312.46
439.192	8882.38
439.399	9113.8
439.606	8902.86
439.813	9605.31
440.02	10092.73
440.227	9920.7
440.433	9715.91
440.64	10225.85
440.847	10172.6
441.054	10297.53
441.261	10954.93
441.467	10776.75
441.674	11004.08
441.881	11581.6
442.088	11344.04
442.294	11323.56
442.501	11708.58
442.708	11839.65
442.914	12122.27
443.121	13002.89
443.328	12333.21
443.534	13435.02
443.741	13244.56
443.948	12693.65
444.154	13850.75
444.361	14049.41
444.568	13973.63
444.774	13897.86
444.981	13971.58
445.187	14717.04
445.394	15044.72
445.6	14682.23
445.807	16400.48
446.013	15657.06
446.22	15841.38
446.426	16377.95
446.633	16646.23
446.839	17330.25
447.046	16425.05
447.252	17731.65
447.459	17332.3
447.665	17346.64
447.871	18331.71
448.078	18995.25
448.284	18010.18
448.491	18501.69
448.697	19353.65
448.903	19699.75
449.11	19355.69
449.316	19380.27
449.522	19728.42
449.728	20353.05
449.935	20596.76
450.141	20705.31
450.347	21094.42
450.553	20367.39
450.76	20498.46
450.966	21219.35
451.172	20768.79
451.378	21766.15
451.584	21008.4
451.791	21630.99
451.997	21618.7
452.203	21776.39
452.409	22333.44
452.615	22167.56
452.821	21260.3
453.027	20846.62
453.233	21760.01
453.44	20830.23
453.646	21366.8
453.852	21602.32
454.058	21929.99
454.264	21024.79
454.47	21438.48
454.676	20869.14
454.882	21553.16
455.088	19775.53
455.294	19826.73
455.5	20221.98
455.705	20578.33
455.911	19787.82
456.117	19349.55
456.323	18952.24
456.529	18210.88
456.735	18870.33
456.941	18341.95
457.147	17875.01
457.352	17477.71
457.558	17193.04
457.764	17500.23
457.97	16920.66
458.176	16744.53
458.381	16687.19
458.587	15702.12
458.793	15868
458.999	15208.56
459.204	16076.9
459.41	15585.38
459.616	14739.57
459.821	14575.73
460.027	14667.89
460.233	14098.56
460.438	13631.62
460.644	13541.51
460.85	13070.48
461.055	12808.34
461.261	12884.11
461.466	11962.53
461.672	11413.67
461.878	12282.01
462.083	11518.12
462.289	11260.07
462.494	11133.1
462.7	10625.2
462.905	10438.84
463.111	10948.78
463.316	10703.03
463.522	10674.35
463.727	10612.92
463.932	10383.54
464.138	10410.17
464.343	10487.99
464.549	10313.91
464.754	10608.82
464.959	10418.36
465.165	10334.39
465.37	9918.65
465.575	9726.14
465.781	10080.44
465.986	10080.44
466.191	9633.99
466.397	9648.32
466.602	9089.23
466.807	9638.08
467.012	9527.49
467.218	9294.02
467.423	9191.63
467.628	9459.91
467.833	9601.22
468.038	9416.9
468.244	8982.73
468.449	9711.81
468.654	9212.1
468.859	8943.82
469.064	8980.68
469.269	8794.32
469.474	8943.82
469.679	8974.54
469.885	8708.3
470.09	8761.55
470.295	8698.06
470.5	8304.85
470.705	8765.65
470.91	8288.47
471.115	8366.29
471.32	8474.84
471.525	8440.02
471.73	8171.74
471.935	8216.79
472.139	8016.09
472.344	7946.46
472.549	7842.01
472.754	7829.73
472.959	7663.84
473.164	7555.3
473.369	7588.07
473.574	7805.15
473.778	7594.21
473.983	7487.72
474.188	7452.9
474.393	7114.98
474.598	7086.31
474.802	7094.51
475.007	7127.27
475.212	6955.24
475.417	6902
475.621	6836.46
475.826	6858.99
476.031	6777.07
476.235	6686.96
476.44	6701.3
476.645	6322.42
476.849	6539.51
477.054	6428.92
477.259	6426.87
477.463	6469.87
477.668	6256.89
477.872	6523.12
478.077	6437.11
478.282	6156.54
478.486	6039.8
478.691	5916.92
478.895	5990.65
479.1	5914.88
479.304	5769.47
479.509	5726.46
479.713	5951.74
479.918	5792
480.122	5478.66
480.326	5777.66
480.531	5818.62
480.735	5701.89
480.94	5593.34
481.144	5763.33
481.348	5560.58
481.553	5593.34
481.757	5488.9
481.961	5718.27
482.166	5566.72
482.37	5638.4
482.574	5454.08
482.778	5568.77
482.983	5527.81
483.187	5622.02
483.391	5605.63
483.595	5595.39
483.8	5234.95
484.004	5505.28
484.208	5476.61
484.412	5609.73
484.616	5599.49
484.821	5525.76
485.025	5536
485.229	5456.13
485.433	5474.56
485.637	5490.95
485.841	5382.4
486.045	5552.38
486.249	5329.16
486.453	5439.75
486.657	5388.55
486.861	5423.36
487.065	5619.97
487.269	5472.51
487.473	5423.36
487.677	5501.19
487.881	5652.74
488.085	5517.57
488.289	5570.82
488.493	5415.17
488.697	5468.42
488.901	5536
489.105	5609.73
489.309	5525.76
489.512	5673.21
489.716	5589.25
489.92	5558.53
490.124	5599.49
490.328	5654.78
490.531	5607.68
490.735	5785.85
490.939	5677.31
491.143	5630.21
491.346	5566.72
491.55	5869.82
491.754	5531.9
491.958	5859.58
492.161	5843.2
492.365	5722.37
492.569	5736.7
492.772	5886.2
492.976	6004.99
493.18	5812.48
493.383	5955.83
493.587	5927.16
493.79	6181.11
493.994	6091
494.197	6242.55
494.401	5984.51
494.605	6002.94
494.808	6107.38
495.012	6252.79
495.215	6287.61
495.419	6402.29
495.622	6252.79
495.825	6635.76
496.029	6379.76
496.232	6504.69
496.436	6467.83
496.639	6705.39
496.843	6668.53
497.046	6758.64
497.249	6934.76
497.453	6715.63
497.656	6973.67
497.859	7045.35
498.063	6910.19
498.266	7184.62
498.469	7198.95
498.673	7338.21
498.876	7338.21
499.079	7520.48
499.282	7690.46
499.485	7747.81
499.689	7624.93
499.892	7905.5
500.095	7905.5
500.298	7925.98
500.501	7856.35
500.705	8276.18
500.908	8476.88
501.111	8306.9
501.314	8485.08
501.517	8376.53
501.72	8659.15
501.923	8556.75
502.126	8876.24
502.329	8947.92
502.532	9023.69
502.735	9089.23
502.938	9257.16
503.141	9228.49
503.344	9466.05
503.547	9744.58
503.75	9740.48
503.953	9748.67
504.156	9892.03
504.359	9814.21
504.562	9867.45
504.765	10287.29
504.968	10487.99
505.17	10297.53
505.373	10481.85
505.576	10682.55
505.779	10813.62
505.982	10756.27
506.185	11286.7
506.387	11182.25
506.59	11364.52
506.793	11452.58
506.996	11530.41
507.198	11747.49
507.401	11686.05
507.604	11702.43
507.807	11958.43
508.009	12183.71
508.212	12402.84
508.415	12454.04
508.617	12353.69
508.82	12830.87
509.022	12466.33
509.225	12832.91
509.428	13379.72
509.63	13265.03
509.833	13295.75
510.035	13525.13
510.238	13684.87
510.44	13738.12
510.643	13951.1
510.845	14170.24
511.048	14256.25
511.25	14450.81
511.453	14250.11
511.655	14936.18
511.858	14725.24
512.06	15067.25
512.262	14921.84
512.465	15075.44
512.667	15482.99
512.87	15698.02
513.072	15730.79
513.274	16078.94
513.477	16214.11
513.679	16367.71
513.881	16580.7
514.084	16818.26
514.286	16844.88
514.488	16650.33
514.69	17295.44
514.893	17573.96
515.095	17764.42
515.297	17961.03
515.499	17903.68
515.701	18270.27
515.904	18483.26
516.106	18552.89
516.308	18802.74
516.51	19048.5
516.712	18913.33
516.914	19255.34
517.116	19759.14
517.318	19806.25
517.52	19875.88
517.722	20011.04
517.925	20256.8
518.127	20463.65
518.329	20482.08
518.531	20641.82
518.733	21139.47
518.935	21540.88
519.136	21514.25
519.338	21764.11
519.54	21667.85
519.742	22251.52
519.944	22095.88
520.146	22425.6
520.348	22720.51
520.55	23021.56
520.752	23128.05
520.954	23502.83
521.155	23398.38
521.357	23689.2
521.559	23699.44
521.761	24281.06
521.963	24248.29
522.164	24733.66
522.366	24510.43
522.568	25047
522.77	25235.41
522.971	25659.34
523.173	25266.13
523.375	25620.43
523.576	25796.56
523.778	25706.45
523.98	26038.22
524.181	26374.08
524.383	26427.33
524.584	26652.61
524.786	27070.39
524.988	26609.6
525.189	27017.15
525.391	27504.56
525.592	27494.32
525.794	27707.31
525.995	27750.32
526.197	27359.16
526.398	27889.58
526.6	28536.74
526.801	28317.61
527.003	28512.16
527.204	28639.14
527.406	28929.95
527.607	28702.62
527.808	29079.45
528.01	28864.41
528.211	28925.85
528.412	29841.29
528.614	29575.06
528.815	29530
529.016	29792.14
529.218	29245.34
529.419	29677.46
529.62	29953.93
529.822	30168.97
530.023	30101.39
530.224	30242.7
530.425	30183.3
530.626	29874.06
530.828	29996.94
531.029	30564.23
531.23	30244.74
531.431	30590.85
531.632	30789.5
531.833	30936.96
532.035	30691.2
532.236	30914.43
532.437	31108.99
532.638	30662.53
532.839	30717.82
533.04	31106.94
533.241	30900.09
533.442	31334.26
533.643	31240.06
533.844	30967.68
534.045	30879.61
534.246	30943.1
534.447	31500.15
534.648	31385.46
534.849	31225.72
535.05	30939.01
535.251	31512.44
535.451	31371.13
535.652	31547.25
535.853	31440.76
536.054	31553.4
536.255	31430.52
536.456	31055.74
536.657	31555.44
536.857	31541.11
537.058	31805.3
537.259	31455.09
537.46	31461.24
537.66	31637.36
537.861	31526.77
538.062	31287.16
538.263	31403.89
538.463	31459.19
538.664	31618.93
538.865	31721.33
539.065	31793.01
539.266	31663.99
539.466	31711.09
539.667	31426.42
539.868	32016.24
540.068	31289.21
540.269	31340.41
540.469	31795.06
540.67	31285.11
540.87	31383.41
541.071	31457.14
541.271	31467.38
541.472	31326.07
541.672	31332.22
541.873	31344.5
542.073	31047.55
542.274	31721.33
542.474	31569.78
542.675	31256.44
542.875	31541.11
543.075	31405.94
543.276	31119.23
543.476	31694.71
543.676	31346.55
543.877	31416.18
544.077	31260.54
544.277	31391.61
544.478	31125.37
544.678	31192.95
544.878	31631.22
545.078	31418.23
545.279	31139.71
545.479	31240.06
545.679	31534.96
545.879	31166.33
546.079	31182.71
546.28	31328.12
546.48	31266.68
546.68	31616.88
546.88	31254.39
547.08	31510.39
547.28	31432.57
547.48	31336.31
547.68	31780.72
547.88	30943.1
548.081	31543.16
548.281	31145.85
548.481	31182.71
548.681	31465.33
548.881	31502.2
549.081	31141.75
549.28	31049.6
549.48	31563.64
549.68	31311.74
549.88	31553.4
550.08	31438.71
550.28	31328.12
550.48	31393.65
550.68	31465.33
550.88	31035.26
551.08	31305.59
551.279	31389.56
551.479	31100.79
551.679	31252.34
551.879	31029.12
552.079	31092.6
552.278	31082.36
552.478	31414.13
552.678	31192.95
552.878	31238.01
553.077	30959.48
553.277	30795.65
553.477	31405.94
553.676	31100.79
553.876	30842.75
554.076	30832.51
554.275	30812.03
554.475	30619.52
554.674	30918.53
554.874	30941.05
555.074	30822.27
555.273	30742.4
555.473	31010.68
555.672	30617.47
555.872	30627.71
556.071	30861.18
556.271	31141.75
556.47	30369.67
556.67	30216.07
556.869	30310.28
557.068	30410.63
557.268	30515.08
557.467	30359.43
557.667	30158.73
557.866	30381.96
558.065	30218.12
558.265	29890.45
558.464	29982.6
558.663	30394.25
558.863	30050.19
559.062	30486.4
559.261	29912.97
559.461	30021.52
559.66	29790.09
559.859	29755.28
560.058	29724.56
560.258	30056.33
560.457	29433.75
560.656	29988.75
560.855	29613.97
561.054	29626.26
561.253	29187.99
561.453	29538.19
561.652	29491.09
561.851	29407.12
562.05	29173.66
562.249	29030.3
562.448	28899.23
562.647	28981.15
562.846	28956.57
563.045	28927.9
563.244	28848.03
563.443	28915.61
563.642	28635.04
563.841	28733.34
564.04	28209.06
564.239	28764.06
564.438	28628.9
564.637	28229.54
564.836	28589.99
565.035	28049.32
565.234	28438.44
565.432	27606.96
565.631	27760.56
565.83	27897.77
566.029	27795.37
566.228	27631.54
566.427	27609.01
566.625	27506.61
566.824	27115.45
567.023	27666.35
567.222	26621.89
567.42	27320.24
567.619	27060.15
567.818	26951.61
568.016	26791.87
568.215	26894.27
568.414	26746.81
568.612	26918.84
568.811	26705.85
569.01	26789.82
569.208	26243.01
569.407	26757.05
569.605	25978.82
569.804	26347.46
570.002	25974.73
570.201	26085.32
570.4	25999.3
570.598	25731.02
570.797	25550.8
570.995	25905.1
571.193	25407.44
571.392	25454.54
571.59	25161.69
571.789	25200.6
571.987	25118.68
572.186	24960.98
572.384	25059.29
572.582	25456.59
572.781	24997.85
572.979	24621.02
573.177	24711.13
573.376	24899.55
573.574	24393.7
573.772	24786.91
573.971	24344.55
574.169	24428.51
574.367	24119.27
574.565	24651.74
574.763	24090.6
574.962	24031.21
575.16	23724.01
575.358	23982.06
575.556	23482.35
575.754	23973.86
575.952	23490.54
576.151	23771.11
576.349	23549.93
576.547	23449.58
576.745	23375.86
576.943	23236.59
577.141	23394.29
577.339	23148.53
577.537	23058.42
577.735	22882.3
577.933	22863.86
578.131	23076.85
578.329	23007.22
578.527	22499.33
578.725	22827
578.923	22364.16
579.121	22337.54
579.319	22228.99
579.516	22462.46
579.714	22298.63
579.912	22222.85
580.11	22259.71
580.308	21979.14
580.506	21843.98
580.704	21868.55
580.901	21909.51
581.099	21876.74
581.297	21522.44
581.495	21544.97
581.692	21809.16
581.89	21456.91
582.088	21706.76
582.285	21219.35
582.483	21514.25
582.681	21272.59
582.878	21479.44
583.076	20940.82
583.274	20946.97
583.471	20879.38
583.669	21012.5
583.866	20744.22
584.064	20690.97
584.262	20803.61
584.459	20985.88
584.657	20465.69
584.854	20928.53
585.052	19927.08
585.249	20586.52
585.447	20344.86
585.644	20097.06
585.841	20185.12
586.039	20518.94
586.236	20002.85
586.434	19791.91
586.631	20074.53
586.828	19978.28
587.026	20000.8
587.223	19867.69
587.42	19664.94
587.618	19734.57
587.815	19654.7
588.012	19441.71
588.21	19298.35
588.407	19599.4
588.604	18929.72
588.801	18993.2
588.999	19275.82
589.196	19167.28
589.393	19083.31
589.59	18968.63
589.787	19138.61
589.984	18868.28
590.182	18698.3
590.379	18849.85
590.576	18616.38
590.773	18667.58
590.97	18370.62
591.167	18526.27
591.364	18581.56
591.561	18534.46
591.758	18473.02
591.955	18442.3
592.152	18380.86
592.349	18159.68
592.546	18298.94
592.743	18065.47
592.94	18016.32
593.137	18337.85
593.334	18387
593.531	17344.59
593.727	17946.69
593.924	17991.75
594.121	17770.57
594.318	17750.09
594.515	17465.42
594.712	17748.04
594.908	17272.91
595.105	17489.99
595.302	17477.71
595.499	17500.23
595.696	17268.81
595.892	17201.23
596.089	17363.02
596.286	17281.1
596.482	16920.66
596.679	17293.39
596.876	16926.8
597.072	16828.5
597.269	16986.19
597.466	16707.67
597.662	16572.5
597.859	16623.7
598.055	16900.18
598.252	16703.57
598.448	16509.02
598.645	16420.95
598.841	16169.05
599.038	16291.93
599.234	16339.04
599.431	16408.67
599.627	16207.97
599.824	16187.49
600.02	16169.05
600.217	16242.78
600.413	16121.95
600.609	15861.86
600.806	15956.07
601.002	15890.53
601.198	15870.05
601.395	15761.51
601.591	15706.21
601.787	15632.49
601.984	15673.45
602.18	15706.21
602.376	15577.19
602.572	15480.94
602.769	15276.14
602.965	15020.14
603.161	15681.64
603.357	15163.5
603.553	15521.9
603.75	15665.25
603.946	14936.18
604.142	15179.89
604.338	15038.58
604.534	14741.62
604.73	14905.46
604.926	14776.44
605.122	14858.35
605.318	14743.67
605.514	14667.89
605.71	14669.94
605.906	14706.8
606.102	14833.78
606.298	14610.55
606.494	14209.15
606.69	14368.89
606.886	14516.34
607.082	13996.16
607.278	14532.73
607.474	14293.12
607.67	14358.65
607.866	14112.89
608.062	14348.41
608.257	14051.45
608.453	14043.26
608.649	14176.38
608.845	14041.22
609.041	13772.93
609.236	14149.76
609.432	13850.75
609.628	13908.1
609.824	13971.58
610.019	13768.84
610.215	13772.93
610.411	13863.04
610.606	13711.49
610.802	13703.3
610.998	13748.36
611.193	13654.15
611.389	13578.37
611.584	13605
611.78	13439.11
611.976	13529.22
612.171	13590.66
612.367	13441.16
612.562	13498.5
612.758	13158.54
612.953	13443.21
613.149	13332.62
613.344	13187.21
613.539	13508.74
613.735	13377.67
613.93	13355.15
614.126	13236.36
614.321	13271.18
614.517	13187.21
614.712	13242.51
614.907	13066.38
615.103	12931.22
615.298	12927.12
615.493	12916.88
615.688	12710.04
615.884	12890.26
616.079	12720.28
616.274	12847.25
616.47	12865.68
616.665	12732.56
616.86	12628.12
617.055	12474.52
617.25	12540.05
617.445	12834.96
617.641	12357.78
617.836	12509.33
618.031	12361.88
618.226	12683.41
618.421	12515.48
618.616	12542.1
618.811	12232.86
619.006	12484.76
619.201	12265.63
619.396	12120.22
619.591	12228.76
619.786	12236.95
619.981	11847.84
620.176	12191.9
620.371	11821.22
620.566	11933.86
620.761	11720.87
620.956	12009.63
621.151	11567.27
621.346	11718.82
621.541	11757.73
621.735	11716.77
621.93	11409.58
622.125	11389.1
622.32	11153.58
622.515	11434.15
622.709	11339.94
622.904	11282.6
623.099	11165.87
623.294	11133.1
623.488	11045.04
623.683	10873.01
623.878	10817.71
624.072	11059.37
624.267	10916.01
624.462	10696.88
624.656	10461.37
624.851	10637.49
625.046	10557.62
625.24	10586.29
625.435	10248.38
625.629	10502.33
625.824	10418.36
626.018	10131.64
626.213	10143.93
626.407	10205.37
626.602	10037.44
626.796	10014.91
626.991	9937.09
627.185	9930.94
627.38	9820.35
627.574	9998.52
627.768	9611.46
627.963	9703.62
628.157	9720
628.352	9613.51
628.546	9582.79
628.74	9625.79
628.935	9513.16
629.129	9611.46
629.323	9455.81
629.517	9259.21
629.712	9304.26
629.906	9214.15
630.1	9167.05
630.294	9275.59
630.489	9021.64
630.683	9083.08
630.877	8794.32
631.071	9015.5
631.265	8767.7
631.459	8710.35
631.653	8775.89
631.848	8863.95
632.042	8728.78
632.236	8747.22
632.43	8648.91
632.624	8667.35
632.818	8546.51
633.012	8364.25
633.206	8474.84
633.4	8675.54
633.594	8540.37
633.788	8407.25
633.982	8362.2
634.176	8124.63
634.369	8255.7
634.563	8075.48
634.757	8083.67
634.951	8145.11
635.145	8126.68
635.339	7999.71
635.533	7952.6
635.726	8057.05
635.92	7844.06
636.114	7889.12
636.308	7719.14
636.501	7778.53
636.695	7731.42
636.889	7581.92
637.083	7590.11
637.276	7416.04
637.47	7465.19
637.664	7622.88
637.857	7475.43
638.051	7385.32
638.244	7291.11
638.438	7536.87
638.632	7250.15
638.825	7123.18
639.019	7221.48
639.212	7155.94
639.406	7074.03
639.599	7102.7
639.793	7012.59
639.986	6838.51
640.18	7071.98
640.373	6947.05
640.567	6863.08
640.76	6695.15
640.954	6721.77
641.147	6650.1
641.34	6729.97
641.534	6697.2
641.727	6678.77
641.92	6594.8
642.114	6650.1
642.307	6635.76
642.5	6535.41
642.694	6369.52
642.887	6379.76
643.08	6531.31
643.273	6334.71
643.467	6131.96
643.66	6263.03
643.853	6168.82
644.046	6265.08
644.239	6041.85
644.432	6015.23
644.626	5974.27
644.819	6084.86
645.012	6019.32
645.205	6074.62
645.398	5996.79
645.591	5992.7
645.784	5859.58
645.977	5826.81
646.17	5830.91
646.363	5699.84
646.556	5691.65
646.749	5789.95
646.942	5869.82
647.135	5536
647.328	5503.23
647.521	5650.69
647.714	5566.72
647.907	5603.58
648.099	5458.18
648.292	5566.72
648.485	5273.86
648.678	5370.12
648.871	5333.25
649.064	5310.72
649.256	5460.23
649.449	5396.74
649.642	5171.46
649.835	5331.2
650.027	5191.94
650.22	5073.16
650.413	5157.13
650.605	5263.62
650.798	5081.35
650.991	5107.98
651.183	5071.11
651.376	4985.1
651.568	4987.15
651.761	5032.2
651.954	4952.33
652.146	4999.43
652.339	4874.51
652.531	4776.2
652.724	4968.71
652.916	4653.33
653.109	4765.96
653.301	4786.44
653.494	4899.08
653.686	4718.86
653.879	4899.08
654.071	4761.87
654.263	4774.16
654.456	4426
654.648	4718.86
654.84	4632.85
655.033	4600.08
655.225	4530.45
655.417	4606.22
655.61	4563.22
655.802	4446.48
655.994	4401.43
656.186	4317.46
656.379	4428.05
656.571	4249.88
656.763	4260.12
656.955	4270.36
657.148	4335.89
657.34	4243.73
657.532	4253.97
657.724	4202.77
657.916	4368.66
658.108	4223.25
658.3	4290.84
658.492	4157.72
658.684	4217.11
658.876	4208.92
659.068	4059.42
659.26	4094.23
659.452	3924.25
659.644	4000.02
659.836	4106.52
660.028	4071.7
660.22	3930.39
660.412	4067.61
660.604	4012.31
660.796	3930.39
660.988	3959.06
661.18	3952.92
661.372	3782.94
661.563	3850.52
661.755	3889.43
661.947	3877.15
662.139	3905.82
662.331	3746.08
662.522	3871
662.714	3860.76
662.906	3719.45
663.097	3823.9
663.289	3598.62
663.481	3645.73
663.673	3615.01
663.864	3631.39
664.056	3701.02
664.247	3639.58
664.439	3543.33
664.631	3670.3
664.822	3488.03
665.014	3504.42
665.205	3643.68
665.397	3604.77
665.588	3469.6
665.78	3649.82
665.971	3395.87
666.163	3447.07
666.354	3543.33
666.546	3348.77
666.737	3481.89
666.929	3461.41
667.12	3483.94
667.311	3340.58
667.503	3453.22
667.694	3363.11
667.885	3418.4
668.077	3330.34
668.268	3293.48
668.459	3336.48
668.651	3356.96
668.842	3334.43
669.033	3141.93
669.224	3324.19
669.416	3449.12
669.607	3340.58
669.798	3393.83
669.989	3496.22
670.18	3356.96
670.371	3354.91
670.563	3254.56
670.754	3240.23
670.945	3275.04
671.136	3359.01
671.327	3256.61
671.518	3201.32
671.709	3252.52
671.9	3248.42
672.091	3287.33
672.282	3285.28
672.473	3195.17
672.664	3213.6
672.855	3172.64
673.046	3213.6
673.237	3266.85
673.428	3088.68
673.619	3195.17
673.809	3172.64
674	3080.49
674.191	3287.33
674.382	3168.55
674.573	3189.03
674.764	3156.26
674.954	3199.27
675.145	3049.77
675.336	3066.15
675.527	3082.53
675.717	3090.73
675.908	3068.2
676.099	3119.4
676.289	3203.36
676.48	3182.88
676.671	3152.17
676.861	3113.25
677.052	3129.64
677.243	3168.55
677.433	3164.45
677.624	3166.5
677.814	3137.83
678.005	3100.97
678.195	3170.6
678.386	3186.98
678.576	3182.88
678.767	3160.36
678.957	3184.93
679.148	3086.63
679.338	3277.09
679.529	3266.85
679.719	3115.3
679.909	3096.87
680.1	3131.69
680.29	3133.73
680.481	3137.83
680.671	3316
680.861	3125.54
681.052	3100.97
681.242	3184.93
681.432	3215.65
681.622	3164.45
681.813	3164.45
682.003	3207.46
682.193	3135.78
682.383	3199.27
682.573	3313.95
682.764	3178.79
682.954	3156.26
683.144	3182.88
683.334	3135.78
683.524	3248.42
683.714	3191.08
683.904	3219.75
684.094	3139.88
684.284	3158.31
684.474	3217.7
684.664	3129.64
684.854	3111.21
685.044	3168.55
685.234	3211.56
685.424	3244.32
685.614	3066.15
685.804	3199.27
685.994	3262.76
686.184	3076.39
686.374	3078.44
686.564	3035.43
686.753	3109.16
686.943	3043.62
687.133	3019.05
687.323	3080.49
687.513	2998.57
687.702	2980.14
687.892	3096.87
688.082	3017
688.272	3055.91
688.461	3029.29
688.651	3017
688.841	2947.37
689.03	3029.29
689.22	3019.05
689.41	2816.3
689.599	2937.13
689.789	2847.02
689.979	2820.39
690.168	2926.89
690.358	2939.18
690.547	2869.55
690.737	2734.38
690.926	2918.7
691.116	2761
691.305	2771.24
691.495	2699.56
691.684	2740.52
691.874	2769.2
692.063	2715.95
692.252	2713.9
692.442	2718
692.631	2619.69
692.82	2644.27
693.01	2679.08
693.199	2756.91
693.388	2683.18
693.578	2744.62
693.767	2697.52
693.956	2537.77
694.146	2545.97
694.335	2668.84
694.524	2574.64
694.713	2603.31
694.902	2617.65
695.092	2558.25
695.281	2683.18
695.47	2523.44
695.659	2535.73
695.848	2535.73
696.037	2648.36
696.226	2533.68
696.415	2578.73
696.604	2523.44
696.793	2562.35
696.982	2652.46
697.171	2601.26
697.36	2507.06
697.549	2529.58
697.738	2480.43
697.927	2533.68
698.116	2511.15
698.305	2462
698.494	2533.68
698.683	2476.34
698.872	2492.72
699.061	2560.3
699.25	2550.06
699.438	2505.01
699.627	2435.38
699.816	2570.54
700.005	2414.9
700.193	2447.66
700.382	2568.49
700.571	2636.08
700.76	2468.14
700.948	2517.29
701.137	2535.73
701.326	2564.4
701.514	2435.38
701.703	2496.82
701.892	2507.06
702.08	2531.63
702.269	2394.42
702.457	2588.97
702.646	2570.54
702.834	2441.52
703.023	2453.81
703.212	2476.34
703.4	2421.04
703.589	2486.58
703.777	2552.11
703.965	2373.94
704.154	2535.73
704.342	2550.06
704.531	2572.59
704.719	2488.62
704.907	2466.1
705.096	2507.06
705.284	2548.01
705.472	2500.91
705.661	2552.11
705.849	2535.73
706.037	2601.26
706.226	2519.34
706.414	2615.6
706.602	2595.12
706.79	2541.87
706.979	2443.57
707.167	2554.16
707.355	2464.05
707.543	2562.35
707.731	2644.27
707.919	2599.21
708.107	2607.41
708.296	2582.83
708.484	2406.7
708.672	2672.94
708.86	2552.11
709.048	2625.84
709.236	2681.13
709.424	2541.87
709.612	2578.73
709.8	2521.39
709.988	2666.8
710.176	2572.59
710.364	2720.04
710.551	2623.79
710.739	2636.08
710.927	2701.61
711.115	2605.36
711.303	2674.99
711.491	2695.47
711.679	2744.62
711.866	2697.52
712.054	2656.56
712.242	2646.32
712.43	2640.17
712.617	2674.99
712.805	2683.18
712.993	2672.94
713.181	2595.12
713.368	2724.14
713.556	2808.11
713.744	2689.32
713.931	2730.28
714.119	2748.72
714.306	2644.27
714.494	2664.75
714.682	2765.1
714.869	2699.56
715.057	2664.75
715.244	2685.23
715.432	2844.97
715.619	2660.65
715.807	2765.1
715.994	2724.14
716.182	2801.96
716.369	2816.3
716.556	2711.85
716.744	2791.72
716.931	2738.48
717.119	2937.13
717.306	2820.39
717.493	2789.67
717.681	2799.91
717.868	2734.38
718.055	2812.2
718.242	2789.67
718.43	2804.01
718.617	2892.07
718.804	2826.54
718.991	2875.69
719.179	2877.74
719.366	2873.64
719.553	2894.12
719.74	2847.02
719.927	2963.75
720.114	2910.5
720.301	2840.87
720.488	2945.32
720.676	2832.68
720.863	2953.51
721.05	3088.68
721.237	2973.99
721.424	2914.6
721.611	2955.56
721.798	2955.56
721.985	2818.35
722.172	2887.98
722.358	2961.7
722.545	3008.81
722.732	2928.94
722.919	3137.83
723.106	3045.67
723.293	2916.65
723.48	2969.9
723.667	3051.81
723.853	2859.31
724.04	3043.62
724.227	2969.9
724.414	2953.51
724.6	3055.91
724.787	3096.87
724.974	3113.25
725.161	2963.75
725.347	3076.39
725.534	3146.02
725.72	3045.67
725.907	3090.73
726.094	3064.1
726.28	3086.63
726.467	2998.57
726.653	2992.42
726.84	3078.44
727.027	3209.51
727.213	3156.26
727.4	3195.17
727.586	3084.58
727.773	3199.27
727.959	3168.55
728.145	3129.64
728.332	3160.36
728.518	3223.84
728.705	3201.32
728.891	3238.18
729.077	3195.17
729.264	3117.35
729.45	3266.85
729.636	3150.12
729.823	3225.89
730.009	3148.07
730.195	3131.69
730.382	3184.93
730.568	3178.79
730.754	3252.52
730.94	3234.08
731.126	3260.71
731.313	3332.39
731.499	3154.21
731.685	3135.78
731.871	3305.76
732.057	3264.8
732.243	3313.95
732.429	3170.6
732.615	3410.21
732.801	3252.52
732.987	3299.62
733.173	3289.38
733.359	3397.92
733.545	3246.37
733.731	3291.43
733.917	3195.17
734.103	3430.69
734.289	3434.78
734.475	3445.02
734.661	3430.69
734.847	3385.63
735.033	3383.59
735.219	3428.64
735.404	3320.1
735.59	3348.77
735.776	3301.67
735.962	3387.68
736.148	3344.67
736.333	3391.78
736.519	3240.23
736.705	3311.91
736.89	3350.82
737.076	3428.64
737.262	3225.89
737.447	3338.53
737.633	3488.03
737.819	3273
738.004	3180.84
738.19	3313.95
738.375	3211.56
738.561	3359.01
738.747	3434.78
738.932	3322.15
739.118	3242.28
739.303	3426.59
739.489	3367.2
739.674	3244.32
739.859	3180.84
740.045	3213.6
740.23	3223.84
740.416	3105.06
740.601	3363.11
740.786	3279.14
740.972	3217.7
741.157	3252.52
741.342	3143.97
741.528	3250.47
741.713	3322.15
741.898	3234.08
742.084	3232.04
742.269	3289.38
742.454	3158.31
742.639	3195.17
742.824	3119.4
743.01	3211.56
743.195	3168.55
743.38	3082.53
743.565	3176.74
743.75	3146.02
743.935	3033.38
744.12	3193.12
744.305	3146.02
744.49	3082.53
744.675	3047.72
744.86	3123.49
745.045	3010.86
745.23	2992.42
745.415	2980.14
745.6	3012.9
745.785	2945.32
745.97	3199.27
746.155	2914.6
746.34	2998.57
746.525	3012.9
746.71	2998.57
746.895	2871.59
747.079	2875.69
747.264	2867.5
747.449	2933.03
747.634	2879.79
747.819	2875.69
748.003	2838.83
748.188	2840.87
748.373	2890.03
748.557	2783.53
748.742	2648.36
748.927	2668.84
749.111	2834.73
749.296	2763.05
749.481	2736.43
749.665	2693.42
749.85	2670.89
750.034	2711.85
750.219	2601.26
750.404	2687.28
750.588	2634.03
750.773	2566.45
750.957	2619.69
751.141	2535.73
751.326	2525.49
751.51	2505.01
751.695	2617.65
751.879	2521.39
752.064	2548.01
752.248	2517.29
752.432	2406.7
752.617	2429.23
752.801	2451.76
752.985	2410.8
753.17	2443.57
753.354	2494.77
753.538	2375.99
753.722	2361.65
753.907	2238.77
754.091	2386.22
754.275	2304.31
754.459	2275.63
754.643	2220.34
754.828	2298.16
755.012	2308.4
755.196	2212.15
755.38	2240.82
755.564	2158.9
755.748	2173.24
755.932	2193.72
756.116	2128.18
756.3	2136.37
756.484	2140.47
756.668	2124.08
756.852	2040.12
757.036	2089.27
757.22	2199.86
757.404	2103.61
757.588	2130.23
757.772	2095.41
757.956	2076.98
758.14	2001.21
758.323	2074.93
758.507	2027.83
758.691	2021.69
758.875	2099.51
759.059	2007.35
759.242	1902.9
759.426	1845.56
759.61	1876.28
759.794	1765.69
759.977	1933.62
760.161	1968.44
760.345	1872.18
760.528	1841.47
760.712	1820.99
760.895	1780.03
761.079	1831.23
761.263	1808.7
761.446	1808.7
761.63	1696.06
761.813	1831.23
761.997	1720.64
762.18	1788.22
762.364	1769.79
762.547	1704.25
762.731	1704.25
762.914	1747.26
763.098	1612.09
763.281	1646.91
763.464	1700.16
763.648	1698.11
763.831	1734.97
764.015	1698.11
764.198	1694.01
764.381	1659.2
764.564	1589.57
764.748	1624.38
764.931	1638.72
765.114	1569.09
765.297	1513.79
765.481	1726.78
765.664	1546.56
765.847	1538.37
766.03	1569.09
766.213	1560.89
766.397	1544.51
766.58	1544.51
766.763	1521.98
766.946	1503.55
767.129	1587.52
767.312	1421.63
767.495	1585.47
767.678	1513.79
767.861	1438.02
768.044	1485.12
768.227	1526.08
768.41	1478.97
768.593	1462.59
768.776	1513.79
768.959	1384.77
769.142	1485.12
769.324	1364.29
769.507	1358.14
769.69	1421.63
769.873	1386.82
770.056	1335.62
770.239	1376.58
770.421	1409.34
770.604	1358.14
770.787	1419.58
770.97	1382.72
771.152	1362.24
771.335	1374.53
771.518	1300.8
771.7	1395.01
771.883	1360.19
772.066	1227.07
772.248	1298.75
772.431	1331.52
772.613	1298.75
772.796	1337.66
772.978	1298.75
773.161	1300.8
773.343	1278.27
773.526	1227.07
773.708	1202.5
773.891	1218.88
774.073	1298.75
774.256	1145.16
774.438	1282.37
774.621	1198.4
774.803	1184.07
774.985	1167.68
775.168	1198.4
775.35	1159.49
775.532	1175.88
775.715	1089.86
775.897	1184.07
776.079	1173.83
776.261	1196.36
776.444	1196.36
776.626	1118.53
776.808	1034.57
776.99	1022.28
777.173	1059.14
777.355	1077.57
777.537	1057.09
777.719	1040.71
777.901	1083.72
778.083	1014.09
778.265	1030.47
778.447	1124.68
778.629	1038.66
778.811	1042.76
778.993	956.74
779.175	956.74
779.357	911.69
779.539	917.83
779.721	936.26
779.903	964.93
780.085	983.37
780.267	932.17
780.449	903.5
780.631	995.65
780.812	880.97
780.994	868.68
781.176	889.16
781.358	821.58
781.54	823.62
781.721	827.72
781.903	883.02
782.085	870.73
782.267	827.72
782.448	840.01
782.63	850.25
782.812	823.62
782.993	831.82
783.175	835.91
783.357	770.38
783.538	825.67
783.72	780.62
783.901	774.47
784.083	774.47
784.264	809.29
784.446	725.32
784.627	801.1
784.809	729.42
784.99	715.08
785.172	690.51
785.353	731.47
785.535	672.08
785.716	704.84
785.897	680.27
786.079	710.99
786.26	739.66
786.441	680.27
786.623	543.05
786.804	676.17
786.985	606.54
787.167	678.22
787.348	622.92
787.529	567.63
787.71	651.6
787.891	629.07
788.073	622.92
788.254	651.6
788.435	649.55
788.616	674.12
788.797	547.15
788.978	710.99
789.159	672.08
789.34	657.74
789.522	602.44
789.703	526.67
789.884	581.96
790.065	561.48
790.246	573.77
790.427	590.16
790.607	567.63
790.788	633.16
790.969	528.72
791.15	532.81
791.331	549.2
791.512	534.86
791.693	575.82
791.874	553.29
792.054	502.09
792.235	600.4
792.416	461.13
792.597	571.72
792.778	438.61
792.958	481.61
793.139	493.9
793.32	518.48
793.5	411.98
793.681	518.48
793.862	532.81
794.042	446.8
794.223	477.52
794.404	498
794.584	422.22
794.765	526.67
794.945	438.61
795.126	504.14
795.306	510.29
795.487	430.41
795.667	379.22
795.848	385.36
796.028	461.13
796.209	463.18
796.389	549.2
796.57	487.76
796.75	352.59
796.93	463.18
797.111	373.07
797.291	354.64
797.471	446.8
797.652	385.36
797.832	397.65
798.012	440.65
798.192	346.45
798.373	414.03
798.553	360.78
798.733	325.97
798.913	395.6
799.093	395.6
799.274	358.74
799.454	356.69
799.634	352.59
799.814	438.61
799.994	409.94
800.174	393.55
800.354	428.37
800.534	285.01
800.714	313.68
800.894	405.84
801.074	272.72
801.254	291.15
801.434	434.51
801.614	340.3
801.794	340.3
801.974	1091.91
802.154	432.46
802.334	440.65
802.514	321.87
802.693	313.68
802.873	358.74
803.053	352.59
803.233	348.5
803.413	319.82
803.592	254.29
803.772	377.17
803.952	352.59
804.131	287.06
804.311	418.13
804.491	383.31
804.67	328.02
804.85	278.87
805.03	258.39
805.209	297.3
805.389	309.58
805.568	285.01
805.748	242
805.928	223.57
806.107	233.81
806.287	307.54
806.466	309.58
806.646	235.86
806.825	297.3
807.004	305.49
807.184	309.58
807.363	268.63
807.543	301.39
807.722	285.01
807.901	231.76
808.081	229.71
808.26	266.58
808.439	285.01
808.619	280.91
808.798	250.19
808.977	280.91
809.156	233.81
809.336	307.54
809.515	227.67
809.694	184.66
809.873	205.14
810.052	250.19
810.231	270.67
810.411	262.48
810.59	260.43
810.769	233.81
810.948	293.2
811.127	235.86
811.306	280.91
811.485	203.09
811.664	280.91
811.843	194.9
812.022	227.67
812.201	272.72
812.38	207.19
812.559	131.41
812.737	256.34
812.916	237.91
813.095	252.24
813.274	233.81
813.453	258.39
813.632	221.52
813.811	274.77
813.989	209.23
814.168	313.68
814.347	127.32
814.526	203.09
814.704	291.15
814.883	305.49
815.062	143.7
815.24	276.82
815.419	139.6
815.598	270.67
815.776	192.85
815.955	176.47
816.133	102.74
816.312	207.19
816.49	131.41
816.669	198.99
816.847	217.43
817.026	211.28
817.204	176.47
817.383	207.19
817.561	151.89
817.74	233.81
817.918	264.53
818.097	213.33
818.275	147.8
818.453	325.97
818.632	272.72
818.81	178.51
818.988	131.41
819.167	192.85
819.345	196.95
819.523	141.65
819.701	178.51
819.879	153.94
820.058	182.61
820.236	194.9
820.414	188.75
820.592	143.7
820.77	160.08
820.948	166.23
821.127	250.19
821.305	192.85
821.483	168.27
821.661	192.85
821.839	104.79
822.017	192.85
822.195	160.08
822.373	194.9
822.551	108.88
822.729	231.76
822.907	123.22
823.085	174.42
823.262	121.17
823.44	92.5
823.618	155.99
823.796	153.94
823.974	186.71
824.152	74.07
824.329	184.66
824.507	94.55
824.685	186.71
824.863	170.32
825.04	178.51
825.218	190.8
825.396	143.7
825.574	106.84
825.751	76.12
825.929	119.12
826.107	102.74
826.284	190.8
826.462	239.95
826.639	106.84
826.817	121.17
826.994	135.51
827.172	78.16
827.349	174.42
827.527	190.8
827.704	129.36
827.882	186.71
828.059	149.84
828.237	84.31
828.414	149.84
828.591	63.83
828.769	84.31
828.946	115.03
829.124	88.4
829.301	125.27
829.478	129.36
829.655	153.94
829.833	115.03
830.01	98.64
830.187	135.51
830.364	147.8
830.542	102.74
830.719	201.04
830.896	117.08
831.073	100.69
831.25	92.5
831.427	92.5
831.604	127.32
831.782	74.07
831.959	133.46
832.136	78.16
832.313	67.92
832.49	26.96
832.667	112.98
832.844	69.97
833.021	225.62
833.198	121.17
833.374	102.74
833.551	149.84
833.728	141.65
833.905	158.03
834.082	63.83
834.259	98.64
834.436	135.51
834.612	47.44
834.789	88.4
834.966	55.64
835.143	80.21
835.319	82.26
835.496	121.17
835.673	108.88
835.85	125.27
836.026	80.21
836.203	88.4
836.38	100.69
836.556	110.93
836.733	96.6
836.909	108.88
837.086	74.07
837.262	63.83
837.439	102.74
837.616	78.16
837.792	74.07
837.968	59.73
838.145	102.74
838.321	59.73
838.498	72.02
838.674	80.21
838.851	104.79
839.027	108.88
839.203	53.59
839.38	84.31
839.556	20.82
839.732	117.08
839.909	57.68
840.085	67.92
840.261	57.68
840.437	55.64
840.614	112.98
840.79	88.4
840.966	127.32
841.142	43.35
841.318	69.97
841.494	39.25
841.671	61.78
841.847	151.89
842.023	57.68
842.199	86.36
842.375	-9.9
842.551	47.44
842.727	10.58
842.903	49.49
843.079	90.45
843.255	88.4
843.431	24.92
843.607	98.64
843.783	-26.28
843.959	67.92
844.134	127.32
844.31	76.12
844.486	72.02
844.662	45.4
844.838	119.12
845.013	137.56
845.189	145.75
845.365	135.51
845.541	12.63
845.716	94.55
845.892	20.82
846.068	-11.95
846.244	0.34
846.419	86.36
846.595	8.53
846.77	29.01
846.946	63.83
847.122	94.55
847.297	51.54
847.473	37.2
847.648	-13.99
847.824	131.41
847.999	-22.19
848.175	65.88
848.35	63.83
848.526	117.08
848.701	160.08
848.876	55.64
849.052	88.4
849.227	84.31
849.403	-16.04
849.578	63.83
849.753	8.53
849.929	20.82
850.104	-26.28
850.279	24.92
850.454	18.77
850.63	86.36
850.805	59.73
850.98	26.96
851.155	53.59
851.33	-7.85
851.505	10.58
851.681	127.32
851.856	26.96
852.031	96.6
852.206	49.49
852.381	-5.8
852.556	16.73
852.731	65.88
852.906	74.07
853.081	102.74
853.256	74.07
853.431	100.69
853.606	22.87
853.781	26.96
853.956	16.73
854.131	78.16
854.305	-63.15
854.48	-7.85
854.655	53.59
854.83	59.73
855.005	49.49
855.18	47.44
855.354	33.11
855.529	88.4
855.704	31.06
855.879	26.96
856.053	45.4
856.228	8.53
856.403	51.54
856.577	43.35
856.752	-61.1
856.926	98.64
857.101	-28.33
857.276	-22.19
857.45	100.69
857.625	67.92
857.799	-32.43
857.974	57.68
858.148	24.92
858.323	0.34
858.497	41.3
858.672	57.68
858.846	-16.04
859.02	43.35
859.195	26.96
859.369	6.49
859.543	2.39
859.718	35.16
859.892	43.35
860.066	6.49
860.241	-30.38
860.415	18.77
860.589	39.25
860.763	16.73
860.938	-34.47
861.112	106.84
861.286	0.34
861.46	-5.8
861.634	-48.81
861.808	100.69
861.982	-5.8
862.157	88.4
862.331	65.88
862.505	41.3
862.679	22.87
862.853	33.11
863.027	26.96
863.201	112.98
863.375	26.96
863.549	35.16
863.722	2.39
863.896	96.6
864.07	-5.8
864.244	6.49
864.418	41.3
864.592	-36.52
864.766	-22.19
864.939	-18.09
865.113	63.83
865.287	4.44
865.461	-26.28
865.634	74.07
865.808	20.82
865.982	-52.91
866.156	55.64
866.329	86.36
866.503	43.35
866.676	-28.33
866.85	-5.8
867.024	-28.33
867.197	-3.75
867.371	80.21
867.544	12.63
867.718	2.39
867.891	31.06
868.065	20.82
868.238	-61.1
868.412	57.68
868.585	4.44
868.759	8.53
868.932	-34.47
869.105	-93.87
869.279	35.16
869.452	47.44
869.625	24.92
869.799	35.16
869.972	-16.04
870.145	24.92
870.319	10.58
870.492	18.77
870.665	-16.04
870.838	4.44
871.011	-40.62
871.185	-36.52
871.358	-22.19
871.531	63.83
871.704	49.49
871.877	20.82
872.05	-24.23
872.223	12.63
872.396	20.82
872.569	-5.8
872.742	-48.81
872.915	-3.75
873.088	-7.85
873.261	14.68
873.434	55.64
873.607	41.3
873.78	61.78
873.953	-52.91
874.126	-11.95
874.299	4.44
874.471	-34.47
874.644	24.92
874.817	10.58
874.99	98.64
875.163	43.35
875.335	24.92
875.508	0.34
875.681	41.3
875.853	-1.71
876.026	61.78
876.199	-40.62
876.371	-13.99
876.544	6.49
876.717	-18.09
876.889	-52.91
877.062	-1.71
877.234	14.68
877.407	-32.43
877.579	-18.09
877.752	22.87
877.924	-13.99
878.097	14.68
878.269	35.16
878.442	10.58
878.614	31.06
878.786	26.96
878.959	-69.29
879.131	-28.33
879.303	-71.34
879.476	-20.14
879.648	39.25
879.82	-11.95
879.993	-75.43
880.165	6.49
880.337	-26.28
880.509	-13.99
880.681	6.49
880.854	20.82
881.026	2.39
881.198	35.16
881.37	20.82
881.542	49.49
881.714	-11.95
881.886	-9.9
882.058	-22.19
882.23	65.88
882.402	10.58
882.574	35.16
882.746	4.44
882.918	14.68
883.09	78.16
883.262	-65.19
883.434	2.39
883.606	0.34
883.778	-18.09
883.95	47.44
884.122	43.35
884.293	39.25
884.465	49.49
884.637	82.26
884.809	8.53
884.98	-5.8
885.152	-50.86
885.324	14.68
885.496	53.59
885.667	-1.71
885.839	2.39
886.011	61.78
886.182	16.73
886.354	-7.85
886.525	8.53
886.697	67.92
886.869	-40.62
887.04	4.44
887.212	-13.99
887.383	147.8
887.555	-91.82
887.726	45.4
887.897	-32.43
888.069	0.34
888.24	-13.99
888.412	0.34
888.583	-1.71
888.754	-26.28
888.926	-69.29
889.097	-38.57
889.268	-1.71
889.44	49.49
889.611	16.73
889.782	-30.38
889.953	-20.14
890.125	26.96
890.296	-40.62
890.467	18.77
890.638	10.58
890.809	-3.75
890.98	-34.47
891.151	-5.8
891.323	-48.81
891.494	12.63
891.665	10.58
891.836	2.39
892.007	-26.28
892.178	12.63
892.349	39.25
892.52	41.3
892.691	-42.67
892.862	35.16
893.032	-38.57
893.203	-16.04
893.374	51.54
893.545	80.21
893.716	0.34
893.887	57.68
894.057	-44.71
894.228	47.44
894.399	-1.71
894.57	-7.85
894.74	2.39
894.911	-42.67
895.082	55.64
895.253	-36.52
895.423	2.39
895.594	-7.85
895.764	-24.23
895.935	-38.57
896.106	-22.19
896.276	-71.34
896.447	63.83
896.617	-48.81
896.788	-18.09
896.958	8.53
897.129	-42.67
897.299	12.63
897.47	45.4
897.64	24.92
897.81	43.35
897.981	18.77
898.151	-65.19
898.322	22.87
898.492	-11.95
898.662	-3.75
898.832	-110.25
899.003	-16.04
899.173	-5.8
899.343	-32.43
899.513	35.16
