Data from USB4F104151__10__12-23-22-833.txt Node

Date: Fri Mar 14 12:23:22 EDT 2025
User: louis
Spectrometer: USB4F10415
Trigger mode: 4
Integration Time (sec): 3.500000E-2
Scans to average: 1
Electric dark correction enabled: true
Nonlinearity correction enabled: false
Boxcar width: 0
XAxis mode: Wavelengths
Number of Pixels in Spectrum: 3648
>>>>>Begin Spectral Data<<<<<
178.204	-99.67
178.424	-99.67
178.644	-99.67
178.864	-124.24
179.084	-159.06
179.304	-3.41
179.524	2.73
179.744	-7.51
179.964	8.87
180.184	-15.7
180.404	55.98
180.624	-44.37
180.844	37.55
181.064	-83.28
181.283	72.36
181.503	-34.13
181.723	10.92
181.943	10.92
182.163	141.99
182.383	15.02
182.602	129.7
182.822	70.31
183.042	51.88
183.262	23.21
183.482	45.74
183.701	6.83
183.921	10.92
184.141	-77.14
184.361	72.36
184.58	2.73
184.8	98.99
185.02	72.36
185.239	101.03
185.459	41.64
185.679	107.18
185.898	21.16
186.118	105.13
186.338	78.51
186.557	66.22
186.777	45.74
186.997	68.27
187.216	113.32
187.436	96.94
187.655	66.22
187.875	58.03
188.095	72.36
188.314	6.83
188.534	64.17
188.753	55.98
188.973	-9.56
189.192	19.11
189.412	139.94
189.631	23.21
189.851	55.98
190.07	121.51
190.29	17.07
190.509	43.69
190.729	62.12
190.948	58.03
191.168	213.67
191.387	74.41
191.607	-44.37
191.826	41.64
192.045	47.79
192.265	47.79
192.484	-32.08
192.704	51.88
192.923	-5.46
193.142	117.42
193.362	29.35
193.581	49.83
193.8	39.59
194.02	51.88
194.239	4.78
194.458	39.59
194.678	12.97
194.897	88.75
195.116	62.12
195.335	70.31
195.555	115.37
195.774	68.27
195.993	4.78
196.212	76.46
196.432	-46.42
196.651	111.27
196.87	86.7
197.089	141.99
197.308	68.27
197.528	101.03
197.747	-21.85
197.966	88.75
198.185	127.66
198.404	33.45
198.623	66.22
198.842	62.12
199.062	41.64
199.281	88.75
199.5	82.6
199.719	23.21
199.938	58.03
200.157	127.66
200.376	66.22
200.595	92.84
200.814	121.51
201.033	-11.61
201.252	60.07
201.471	-19.8
201.69	49.83
201.909	90.79
202.128	55.98
202.347	27.31
202.566	-11.61
202.785	-32.08
203.004	12.97
203.223	123.56
203.442	33.45
203.661	66.22
203.879	70.31
204.098	53.93
204.317	86.7
204.536	80.55
204.755	78.51
204.974	-21.85
205.193	60.07
205.411	117.42
205.63	96.94
205.849	-25.94
206.068	27.31
206.287	84.65
206.505	74.41
206.724	17.07
206.943	35.5
207.162	53.93
207.381	35.5
207.599	43.69
207.818	51.88
208.037	-5.46
208.255	39.59
208.474	74.41
208.693	41.64
208.911	88.75
209.13	51.88
209.349	98.99
209.567	113.32
209.786	55.98
210.005	45.74
210.223	88.75
210.442	-62.8
210.661	51.88
210.879	-13.65
211.098	88.75
211.316	-23.89
211.535	29.35
211.753	109.23
211.972	66.22
212.191	23.21
212.409	29.35
212.628	82.6
212.846	15.02
213.065	146.09
213.283	82.6
213.502	39.59
213.72	37.55
213.938	15.02
214.157	0.68
214.375	-11.61
214.594	19.11
214.812	49.83
215.031	29.35
215.249	-32.08
215.467	43.69
215.686	58.03
215.904	103.08
216.122	76.46
216.341	88.75
216.559	47.79
216.778	117.42
216.996	19.11
217.214	-60.76
217.432	39.59
217.651	-19.8
217.869	64.17
218.087	92.84
218.306	35.5
218.524	27.31
218.742	64.17
218.96	90.79
219.179	43.69
219.397	-19.8
219.615	86.7
219.833	80.55
220.051	12.97
220.27	39.59
220.488	74.41
220.706	115.37
220.924	10.92
221.142	121.51
221.36	92.84
221.578	76.46
221.796	76.46
222.015	103.08
222.233	90.79
222.451	62.12
222.669	21.16
222.887	10.92
223.105	49.83
223.323	51.88
223.541	2.73
223.759	60.07
223.977	-19.8
224.195	80.55
224.413	41.64
224.631	62.12
224.849	121.51
225.067	123.56
225.285	90.79
225.503	-34.13
225.721	27.31
225.939	17.07
226.157	41.64
226.375	72.36
226.592	60.07
226.81	-32.08
227.028	45.74
227.246	86.7
227.464	23.21
227.682	58.03
227.9	41.64
228.117	101.03
228.335	84.65
228.553	60.07
228.771	43.69
228.989	80.55
229.206	-34.13
229.424	19.11
229.642	45.74
229.86	25.26
230.077	76.46
230.295	60.07
230.513	19.11
230.731	47.79
230.948	127.66
231.166	96.94
231.384	31.4
231.601	51.88
231.819	105.13
232.037	-25.94
232.254	125.61
232.472	23.21
232.689	15.02
232.907	35.5
233.125	27.31
233.342	-15.7
233.56	45.74
233.777	53.93
233.995	84.65
234.213	17.07
234.43	107.18
234.648	35.5
234.865	-1.37
235.083	41.64
235.3	17.07
235.518	76.46
235.735	111.27
235.953	45.74
236.17	53.93
236.388	-23.89
236.605	47.79
236.822	105.13
237.04	51.88
237.257	19.11
237.475	-23.89
237.692	117.42
237.909	111.27
238.127	-34.13
238.344	84.65
238.562	39.59
238.779	15.02
238.996	29.35
239.214	94.89
239.431	121.51
239.648	12.97
239.865	17.07
240.083	-3.41
240.3	31.4
240.517	23.21
240.735	39.59
240.952	43.69
241.169	12.97
241.386	39.59
241.603	64.17
241.821	8.87
242.038	-25.94
242.255	27.31
242.472	-11.61
242.689	41.64
242.907	101.03
243.124	109.23
243.341	27.31
243.558	19.11
243.775	31.4
243.992	-15.7
244.209	8.87
244.426	82.6
244.643	74.41
244.86	-19.8
245.078	19.11
245.295	70.31
245.512	90.79
245.729	6.83
245.946	12.97
246.163	103.08
246.38	80.55
246.597	109.23
246.814	68.27
247.031	10.92
247.248	51.88
247.464	72.36
247.681	41.64
247.898	70.31
248.115	60.07
248.332	21.16
248.549	84.65
248.766	154.28
248.983	-3.41
249.2	90.79
249.417	58.03
249.633	37.55
249.85	31.4
250.067	0.68
250.284	88.75
250.501	111.27
250.717	80.55
250.934	-36.18
251.151	53.93
251.368	17.07
251.585	121.51
251.801	80.55
252.018	39.59
252.235	41.64
252.451	17.07
252.668	21.16
252.885	25.26
253.102	60.07
253.318	31.4
253.535	43.69
253.752	78.51
253.968	60.07
254.185	92.84
254.401	-9.56
254.618	29.35
254.835	68.27
255.051	101.03
255.268	49.83
255.484	94.89
255.701	76.46
255.917	47.79
256.134	53.93
256.351	25.26
256.567	60.07
256.784	8.87
257	60.07
257.217	45.74
257.433	94.89
257.65	-32.08
257.866	111.27
258.082	4.78
258.299	12.97
258.515	-36.18
258.732	37.55
258.948	49.83
259.165	96.94
259.381	10.92
259.597	-34.13
259.814	25.26
260.03	10.92
260.246	45.74
260.463	29.35
260.679	109.23
260.895	29.35
261.112	94.89
261.328	25.26
261.544	25.26
261.761	92.84
261.977	0.68
262.193	21.16
262.409	35.5
262.626	111.27
262.842	31.4
263.058	64.17
263.274	90.79
263.49	35.5
263.707	74.41
263.923	-15.7
264.139	-11.61
264.355	39.59
264.571	8.87
264.787	88.75
265.004	92.84
265.22	111.27
265.436	51.88
265.652	90.79
265.868	2.73
266.084	-19.8
266.3	4.78
266.516	29.35
266.732	76.46
266.948	12.97
267.164	137.9
267.38	33.45
267.596	8.87
267.812	10.92
268.028	84.65
268.244	35.5
268.46	27.31
268.676	49.83
268.892	82.6
269.108	37.55
269.324	-15.7
269.54	-27.99
269.756	135.85
269.972	33.45
270.188	68.27
270.403	4.78
270.619	47.79
270.835	60.07
271.051	29.35
271.267	51.88
271.483	31.4
271.698	43.69
271.914	43.69
272.13	55.98
272.346	60.07
272.562	-11.61
272.777	35.5
272.993	101.03
273.209	27.31
273.425	55.98
273.64	37.55
273.856	39.59
274.072	88.75
274.287	8.87
274.503	131.75
274.719	123.56
274.934	19.11
275.15	-42.32
275.366	53.93
275.581	-15.7
275.797	35.5
276.012	72.36
276.228	21.16
276.444	92.84
276.659	115.37
276.875	55.98
277.09	37.55
277.306	84.65
277.521	66.22
277.737	82.6
277.952	33.45
278.168	41.64
278.383	21.16
278.599	80.55
278.814	92.84
279.03	84.65
279.245	154.28
279.461	66.22
279.676	66.22
279.892	58.03
280.107	51.88
280.322	45.74
280.538	90.79
280.753	12.97
280.969	109.23
281.184	58.03
281.399	84.65
281.615	60.07
281.83	80.55
282.045	27.31
282.26	-9.56
282.476	70.31
282.691	58.03
282.906	76.46
283.122	101.03
283.337	49.83
283.552	51.88
283.767	17.07
283.983	41.64
284.198	58.03
284.413	72.36
284.628	64.17
284.843	6.83
285.058	80.55
285.274	64.17
285.489	10.92
285.704	129.7
285.919	80.55
286.134	0.68
286.349	146.09
286.564	66.22
286.779	74.41
286.995	58.03
287.21	45.74
287.425	76.46
287.64	39.59
287.855	62.12
288.07	27.31
288.285	64.17
288.5	27.31
288.715	168.62
288.93	101.03
289.145	-1.37
289.36	101.03
289.575	74.41
289.79	62.12
290.004	21.16
290.219	107.18
290.434	39.59
290.649	-5.46
290.864	45.74
291.079	68.27
291.294	33.45
291.509	66.22
291.724	37.55
291.938	2.73
292.153	135.85
292.368	47.79
292.583	80.55
292.798	103.08
293.012	127.66
293.227	90.79
293.442	8.87
293.657	2.73
293.871	62.12
294.086	84.65
294.301	72.36
294.516	62.12
294.73	15.02
294.945	23.21
295.16	141.99
295.374	82.6
295.589	88.75
295.804	23.21
296.018	68.27
296.233	101.03
296.447	131.75
296.662	53.93
296.877	4.78
297.091	117.42
297.306	78.51
297.52	51.88
297.735	45.74
297.949	53.93
298.164	58.03
298.378	74.41
298.593	-56.66
298.807	66.22
299.022	21.16
299.236	29.35
299.451	12.97
299.665	17.07
299.88	74.41
300.094	-52.56
300.309	103.08
300.523	101.03
300.737	31.4
300.952	49.83
301.166	25.26
301.381	6.83
301.595	51.88
301.809	53.93
302.024	78.51
302.238	-36.18
302.452	49.83
302.667	62.12
302.881	170.66
303.095	90.79
303.309	135.85
303.524	27.31
303.738	60.07
303.952	45.74
304.166	107.18
304.381	60.07
304.595	133.8
304.809	-7.51
305.023	105.13
305.237	58.03
305.452	66.22
305.666	60.07
305.88	129.7
306.094	55.98
306.308	64.17
306.522	131.75
306.736	109.23
306.95	98.99
307.164	47.79
307.379	2.73
307.593	115.37
307.807	17.07
308.021	25.26
308.235	51.88
308.449	15.02
308.663	17.07
308.877	111.27
309.091	45.74
309.305	90.79
309.519	-30.04
309.733	111.27
309.947	-1.37
310.161	94.89
310.374	66.22
310.588	90.79
310.802	80.55
311.016	27.31
311.23	76.46
311.444	25.26
311.658	101.03
311.872	64.17
312.085	88.75
312.299	90.79
312.513	74.41
312.727	21.16
312.941	51.88
313.154	82.6
313.368	58.03
313.582	80.55
313.796	-3.41
314.009	62.12
314.223	123.56
314.437	58.03
314.651	78.51
314.864	76.46
315.078	15.02
315.292	17.07
315.505	29.35
315.719	154.28
315.933	76.46
316.146	84.65
316.36	45.74
316.573	86.7
316.787	90.79
317.001	68.27
317.214	-3.41
317.428	92.84
317.641	-13.65
317.855	4.78
318.068	80.55
318.282	31.4
318.495	66.22
318.709	19.11
318.922	39.59
319.136	123.56
319.349	70.31
319.563	43.69
319.776	66.22
319.99	66.22
320.203	49.83
320.417	29.35
320.63	58.03
320.843	172.71
321.057	103.08
321.27	115.37
321.483	12.97
321.697	152.23
321.91	76.46
322.124	74.41
322.337	72.36
322.55	-19.8
322.763	119.46
322.977	49.83
323.19	-3.41
323.403	58.03
323.617	58.03
323.83	127.66
324.043	60.07
324.256	82.6
324.469	41.64
324.683	74.41
324.896	2.73
325.109	88.75
325.322	10.92
325.535	88.75
325.748	68.27
325.962	64.17
326.175	160.42
326.388	70.31
326.601	55.98
326.814	82.6
327.027	70.31
327.24	88.75
327.453	64.17
327.666	53.93
327.879	133.8
328.092	94.89
328.305	64.17
328.518	37.55
328.731	33.45
328.944	141.99
329.157	111.27
329.37	31.4
329.583	62.12
329.796	107.18
330.009	-36.18
330.222	101.03
330.435	37.55
330.648	35.5
330.861	23.21
331.073	111.27
331.286	41.64
331.499	25.26
331.712	10.92
331.925	141.99
332.138	72.36
332.35	82.6
332.563	35.5
332.776	125.61
332.989	51.88
333.202	66.22
333.414	29.35
333.627	10.92
333.84	10.92
334.053	70.31
334.265	66.22
334.478	12.97
334.691	111.27
334.903	66.22
335.116	25.26
335.329	19.11
335.541	86.7
335.754	45.74
335.966	51.88
336.179	64.17
336.392	-3.41
336.604	45.74
336.817	2.73
337.029	53.93
337.242	105.13
337.454	68.27
337.667	72.36
337.88	103.08
338.092	12.97
338.305	113.32
338.517	19.11
338.729	55.98
338.942	80.55
339.154	49.83
339.367	76.46
339.579	33.45
339.792	96.94
340.004	90.79
340.217	51.88
340.429	96.94
340.641	27.31
340.854	66.22
341.066	31.4
341.278	29.35
341.491	103.08
341.703	72.36
341.915	23.21
342.128	47.79
342.34	-7.51
342.552	49.83
342.764	62.12
342.977	43.69
343.189	60.07
343.401	96.94
343.613	19.11
343.826	86.7
344.038	43.69
344.25	131.75
344.462	-34.13
344.674	74.41
344.886	-1.37
345.099	49.83
345.311	103.08
345.523	27.31
345.735	47.79
345.947	78.51
346.159	62.12
346.371	47.79
346.583	39.59
346.795	195.24
347.007	86.7
347.219	4.78
347.431	8.87
347.643	189.1
347.855	-50.52
348.067	27.31
348.279	0.68
348.491	84.65
348.703	55.98
348.915	58.03
349.127	10.92
349.339	103.08
349.551	78.51
349.763	82.6
349.975	-5.46
350.187	105.13
350.399	144.04
350.61	53.93
350.822	43.69
351.034	41.64
351.246	6.83
351.458	94.89
351.669	47.79
351.881	125.61
352.093	68.27
352.305	82.6
352.517	70.31
352.728	74.41
352.94	6.83
353.152	43.69
353.363	35.5
353.575	64.17
353.787	96.94
353.999	66.22
354.21	98.99
354.422	84.65
354.633	53.93
354.845	35.5
355.057	6.83
355.268	33.45
355.48	60.07
355.692	0.68
355.903	-11.61
356.115	47.79
356.326	10.92
356.538	74.41
356.749	58.03
356.961	103.08
357.172	15.02
357.384	17.07
357.595	135.85
357.807	64.17
358.018	17.07
358.23	58.03
358.441	86.7
358.653	45.74
358.864	98.99
359.075	21.16
359.287	66.22
359.498	35.5
359.709	49.83
359.921	17.07
360.132	94.89
360.344	82.6
360.555	-36.18
360.766	55.98
360.977	19.11
361.189	123.56
361.4	64.17
361.611	41.64
361.823	88.75
362.034	117.42
362.245	45.74
362.456	103.08
362.667	49.83
362.879	2.73
363.09	84.65
363.301	80.55
363.512	17.07
363.723	98.99
363.935	23.21
364.146	94.89
364.357	12.97
364.568	82.6
364.779	-36.18
364.99	47.79
365.201	35.5
365.412	117.42
365.623	80.55
365.834	31.4
366.045	33.45
366.256	98.99
366.467	35.5
366.678	-13.65
366.889	41.64
367.1	60.07
367.311	21.16
367.522	41.64
367.733	74.41
367.944	41.64
368.155	94.89
368.366	62.12
368.577	23.21
368.788	111.27
368.999	88.75
369.209	78.51
369.42	158.38
369.631	156.33
369.842	43.69
370.053	37.55
370.264	109.23
370.474	60.07
370.685	21.16
370.896	31.4
371.107	62.12
371.317	86.7
371.528	88.75
371.739	43.69
371.95	144.04
372.16	45.74
372.371	88.75
372.582	49.83
372.792	66.22
373.003	51.88
373.214	82.6
373.424	133.8
373.635	70.31
373.846	25.26
374.056	51.88
374.267	35.5
374.477	43.69
374.688	55.98
374.898	27.31
375.109	107.18
375.319	64.17
375.53	84.65
375.74	113.32
375.951	33.45
376.161	45.74
376.372	80.55
376.582	31.4
376.793	58.03
377.003	41.64
377.214	74.41
377.424	23.21
377.635	133.8
377.845	4.78
378.055	86.7
378.266	0.68
378.476	117.42
378.686	15.02
378.897	58.03
379.107	133.8
379.317	78.51
379.528	55.98
379.738	133.8
379.948	4.78
380.158	25.26
380.369	117.42
380.579	98.99
380.789	86.7
380.999	31.4
381.21	76.46
381.42	98.99
381.63	84.65
381.84	137.9
382.05	78.51
382.261	105.13
382.471	96.94
382.681	72.36
382.891	195.24
383.101	33.45
383.311	53.93
383.521	2.73
383.731	111.27
383.941	23.21
384.151	41.64
384.361	33.45
384.571	23.21
384.781	101.03
384.991	154.28
385.201	131.75
385.411	133.8
385.621	127.66
385.831	33.45
386.041	70.31
386.251	39.59
386.461	148.14
386.671	111.27
386.881	88.75
387.091	66.22
387.301	152.23
387.511	74.41
387.72	53.93
387.93	129.7
388.14	-3.41
388.35	64.17
388.56	94.89
388.769	129.7
388.979	148.14
389.189	43.69
389.399	139.94
389.609	33.45
389.818	107.18
390.028	41.64
390.238	111.27
390.447	43.69
390.657	-5.46
390.867	94.89
391.076	27.31
391.286	88.75
391.496	55.98
391.705	86.7
391.915	156.33
392.125	53.93
392.334	70.31
392.544	160.42
392.753	86.7
392.963	31.4
393.172	25.26
393.382	31.4
393.591	176.81
393.801	49.83
394.01	127.66
394.22	94.89
394.429	49.83
394.639	55.98
394.848	94.89
395.058	53.93
395.267	94.89
395.477	55.98
395.686	82.6
395.895	166.57
396.105	127.66
396.314	86.7
396.524	131.75
396.733	68.27
396.942	101.03
397.152	84.65
397.361	137.9
397.57	98.99
397.78	127.66
397.989	162.47
398.198	185
398.407	98.99
398.617	47.79
398.826	103.08
399.035	86.7
399.244	150.18
399.453	86.7
399.663	90.79
399.872	109.23
400.081	51.88
400.29	207.53
400.499	70.31
400.708	156.33
400.917	96.94
401.127	72.36
401.336	-3.41
401.545	180.9
401.754	158.38
401.963	82.6
402.172	137.9
402.381	17.07
402.59	68.27
402.799	131.75
403.008	80.55
403.217	152.23
403.426	109.23
403.635	49.83
403.844	131.75
404.053	158.38
404.262	150.18
404.471	170.66
404.68	137.9
404.888	148.14
405.097	150.18
405.306	187.05
405.515	101.03
405.724	76.46
405.933	219.82
406.142	133.8
406.35	213.67
406.559	150.18
406.768	164.52
406.977	273.06
407.185	254.63
407.394	189.1
407.603	109.23
407.812	215.72
408.02	213.67
408.229	309.93
408.438	195.24
408.646	162.47
408.855	230.06
409.064	168.62
409.272	195.24
409.481	230.06
409.69	213.67
409.898	240.3
410.107	328.36
410.315	328.36
410.524	289.45
410.733	279.21
410.941	318.12
411.15	291.49
411.358	314.02
411.567	318.12
411.775	371.37
411.984	291.49
412.192	371.37
412.401	295.59
412.609	426.66
412.818	381.6
413.026	422.56
413.234	463.52
413.443	357.03
413.651	412.32
413.86	449.19
414.068	494.24
414.276	553.63
414.485	457.38
414.693	496.29
414.901	576.16
415.11	582.31
415.318	465.57
415.526	545.44
415.734	617.12
415.943	686.75
416.151	768.67
416.359	715.42
416.567	694.94
416.776	719.52
416.984	715.42
417.192	832.16
417.4	696.99
417.608	821.92
417.817	912.03
418.025	879.26
418.233	1008.28
418.441	926.36
418.649	934.56
418.857	1118.87
419.065	1059.48
419.273	1030.81
419.481	1036.95
419.689	1276.57
419.897	1270.42
420.105	1217.18
420.313	1295
420.521	1325.72
420.729	1348.25
420.937	1319.57
421.145	1311.38
421.353	1397.4
421.561	1503.89
421.769	1542.8
421.977	1579.67
422.185	1639.06
422.393	1796.75
422.601	1813.13
422.809	1774.22
423.017	1886.86
423.224	1964.68
423.432	1987.21
423.64	2122.38
423.848	2130.57
424.056	2097.8
424.263	2275.98
424.471	2226.82
424.679	2376.33
424.887	2480.77
425.094	2644.61
425.302	2480.77
425.51	2771.58
425.718	2708.1
425.925	2814.59
426.133	2898.56
426.341	3027.58
426.548	3193.47
426.756	3144.31
426.964	3140.22
427.171	3287.67
427.379	3465.85
427.586	3590.77
427.794	3742.32
428.001	3660.4
428.209	3953.26
428.417	3947.12
428.624	4215.4
428.832	4065.9
429.039	4110.96
429.247	4104.81
429.454	4514.41
429.662	4887.14
429.869	4586.08
430.076	4680.29
430.284	4659.81
430.491	4874.85
430.699	5235.29
430.906	5263.96
431.114	5288.54
431.321	5536.34
431.528	5696.08
431.736	5978.7
431.943	6105.68
432.15	5982.8
432.358	6013.52
432.565	6433.35
432.772	6371.91
432.979	6851.14
433.187	6969.92
433.394	6871.62
433.601	7246.4
433.808	7387.71
434.016	7244.35
434.223	7682.61
434.43	7969.33
434.637	7922.23
434.844	8409.64
435.052	8485.42
435.259	8528.42
435.466	8618.54
435.673	8538.66
435.88	9032.22
436.087	9531.93
436.294	9523.74
436.501	9466.39
436.708	9673.24
436.915	10009.11
437.122	10398.22
437.329	10254.86
437.537	10746.37
437.743	10906.12
437.95	10770.95
438.157	11399.68
438.364	11825.65
438.571	11743.74
438.778	11596.28
438.985	12847.59
439.192	12294.64
439.399	12841.45
439.606	12376.56
439.813	13169.12
440.02	13738.46
440.227	13715.93
440.433	13464.03
440.64	14117.33
440.847	13928.92
441.054	14107.09
441.261	15315.39
441.467	14983.62
441.674	15247.81
441.881	15858.1
442.088	15958.46
442.294	15790.52
442.501	16067
442.708	16607.66
442.914	17240.48
443.121	17756.57
443.328	17164.71
443.534	18352.53
443.741	18155.93
443.948	18069.91
444.154	19437.95
444.361	19024.26
444.568	19128.71
444.774	19405.19
444.981	19396.99
445.187	20169.08
445.394	20707.69
445.6	20619.63
445.807	22483.28
446.013	21608.8
446.22	22124.89
446.426	22663.5
446.633	23021.9
446.839	23703.87
447.046	22886.73
447.252	24162.62
447.459	24138.04
447.665	24295.74
447.871	25303.34
448.078	26239.26
448.284	24811.82
448.491	25975.07
448.697	26718.48
448.903	27195.66
449.11	27494.66
449.316	26736.91
449.522	27388.17
449.728	27928.83
449.935	28104.96
450.141	28444.92
450.347	28721.4
450.553	28080.38
450.76	28352.76
450.966	29286.64
451.172	29034.74
451.378	29571.3
451.584	29030.64
451.791	29673.7
451.997	29915.36
452.203	30154.97
452.409	30384.35
452.615	30157.02
452.821	28932.34
453.027	28567.8
453.233	30152.93
453.44	29167.85
453.646	29397.23
453.852	29438.19
454.058	30189.79
454.264	28856.56
454.47	29393.13
454.676	28866.8
454.882	29821.16
455.088	27060.49
455.294	27281.67
455.5	27877.63
455.705	28231.93
455.911	27126.03
456.117	26409.24
456.323	26069.28
456.529	25037.1
456.735	25821.47
456.941	25538.85
457.147	24832.3
457.352	24166.71
457.558	23591.23
457.764	23599.43
457.97	23417.16
458.176	22870.35
458.381	23056.71
458.587	21774.69
458.793	21592.42
458.999	20558.19
459.204	22040.92
459.41	21645.66
459.616	20095.35
459.821	19863.93
460.027	19759.49
460.233	19272.07
460.438	18727.31
460.644	18547.09
460.85	18133.4
461.055	17674.65
461.261	17721.76
461.466	16306.61
461.672	15608.25
461.878	16785.83
462.083	15952.31
462.289	15372.74
462.494	15317.44
462.7	14512.59
462.905	14455.25
463.111	14647.76
463.316	14641.61
463.522	14320.08
463.727	14692.81
463.932	14442.96
464.138	14201.3
464.343	14203.35
464.549	13988.31
464.754	14602.7
464.959	14158.29
465.165	14178.77
465.37	13431.26
465.575	12933.61
465.781	13607.39
465.986	13953.49
466.191	13187.55
466.397	13326.82
466.602	12481
466.807	12974.56
467.012	13167.07
467.218	12700.14
467.423	12632.55
467.628	12952.04
467.833	13427.17
468.038	12610.03
468.244	12493.29
468.449	12964.32
468.654	12573.16
468.859	12284.4
469.064	12218.86
469.269	11885.05
469.474	12018.16
469.679	12517.87
469.885	11715.06
470.09	11919.86
470.295	11846.13
470.5	11823.61
470.705	11803.13
470.91	11362.81
471.115	11479.55
471.32	11450.88
471.525	11532.79
471.73	11121.15
471.935	11180.54
472.139	10783.24
472.344	10799.62
472.549	10850.82
472.754	10813.96
472.959	10375.69
473.164	10281.49
473.369	10093.07
473.574	10502.67
473.778	10400.27
473.983	10091.02
474.188	10344.97
474.393	9749.01
474.598	9812.5
474.802	9929.24
475.007	9720.34
475.212	9884.18
475.417	9374.24
475.621	9241.12
475.826	9259.55
476.031	9122.34
476.235	8995.36
476.44	9189.92
476.645	8790.56
476.849	8927.78
477.054	8868.39
477.259	8649.25
477.463	8811.04
477.668	8555.05
477.872	8555.05
478.077	8583.72
478.282	8215.09
478.486	8331.82
478.691	8143.41
478.895	8180.27
479.1	8077.87
479.304	8172.08
479.509	7868.98
479.713	8127.02
479.918	7715.38
480.122	7713.33
480.326	7789.11
480.531	7715.38
480.735	7707.19
480.94	7606.84
481.144	7860.79
481.348	7488.06
481.553	7729.72
481.757	7488.06
481.961	7674.42
482.166	7750.2
482.37	7516.73
482.574	7467.58
482.778	7504.44
482.983	7531.06
483.187	7303.74
483.391	7756.34
483.595	7545.4
483.8	7449.14
484.004	7436.86
484.208	7785.01
484.412	7471.67
484.616	7475.77
484.821	7553.59
485.025	7416.38
485.229	7672.37
485.433	7496.25
485.637	7559.74
485.841	7404.09
486.045	7430.71
486.249	7535.16
486.453	7449.14
486.657	7391.8
486.861	7623.22
487.065	7430.71
487.269	7535.16
487.473	7340.6
487.677	7584.31
487.881	7563.83
488.085	7361.08
488.289	7531.06
488.493	7524.92
488.697	7627.32
488.901	7623.22
489.105	7660.09
489.309	7553.59
489.512	7770.68
489.716	7537.21
489.92	7586.36
490.124	7637.56
490.328	7557.69
490.531	7520.82
490.735	7623.22
490.939	7772.72
491.143	7727.67
491.346	7707.19
491.55	7801.4
491.754	8030.77
491.958	7860.79
492.161	7905.84
492.365	7905.84
492.569	7889.46
492.772	7905.84
492.976	8112.69
493.18	8071.73
493.383	8174.13
493.587	8239.66
493.79	8346.16
493.994	8055.34
494.197	8264.24
494.401	8413.74
494.605	8317.48
494.808	8651.3
495.012	8460.84
495.215	8600.1
495.419	8872.48
495.622	8798.76
495.825	8833.57
496.029	8798.76
496.232	9038.37
496.436	8905.25
496.639	9282.08
496.843	8960.55
497.046	9314.84
497.249	9407
497.453	9515.55
497.656	9441.82
497.859	9579.03
498.063	9781.78
498.266	9978.39
498.469	9869.84
498.673	10037.78
498.876	9949.71
499.079	10115.6
499.282	10154.51
499.485	10480.14
499.689	10267.15
499.892	10648.07
500.095	10598.92
500.298	11043.33
500.501	10766.85
500.705	11233.79
500.908	11098.63
501.111	11338.24
501.314	11405.82
501.517	11717.11
501.72	11735.54
501.923	11766.26
502.126	11940.34
502.329	12171.76
502.532	12317.17
502.735	12278.26
502.938	12870.12
503.141	12655.08
503.344	12896.74
503.547	12882.41
503.75	13046.24
503.953	13459.93
504.156	13378.01
504.359	13543.9
504.562	13629.91
504.765	13963.73
504.968	13908.44
505.17	13900.25
505.373	14395.85
505.576	14619.08
505.779	14694.86
505.982	14721.48
506.185	14993.86
506.387	15098.31
506.59	15456.7
506.793	15645.12
506.996	15681.98
507.198	15940.02
507.401	15899.06
507.604	16267.7
507.807	16611.76
508.009	16480.69
508.212	16900.52
508.415	16982.44
508.617	17066.41
508.82	17361.31
509.022	17308.07
509.225	17639.84
509.428	17858.97
509.63	17756.57
509.833	18334.1
510.035	18723.21
510.238	18555.28
510.44	18784.65
510.643	19032.46
510.845	19415.43
511.048	18971.02
511.25	19677.57
511.453	19536.26
511.655	20312.44
511.858	19997.05
512.06	20330.87
512.262	20707.69
512.465	20500.85
512.667	21023.08
512.87	21399.91
513.072	21297.51
513.274	21528.93
513.477	21625.18
513.679	22282.58
513.881	22409.56
514.084	22616.4
514.286	22692.18
514.488	22722.9
514.69	23533.89
514.893	23613.76
515.095	23884.09
515.297	24062.27
515.499	24138.04
515.701	24310.07
515.904	24922.41
516.106	24903.98
516.308	25403.69
516.51	25270.57
516.712	25723.17
516.914	25880.86
517.116	26456.34
517.318	26460.44
517.52	26409.24
517.722	26980.62
517.925	27146.51
518.127	27240.72
518.329	27609.35
518.531	27922.69
518.733	28211.45
518.935	28385.53
519.136	28506.36
519.338	29225.2
519.54	29300.97
519.742	29210.86
519.944	29733.09
520.146	30230.75
520.348	29952.23
520.55	30466.27
520.752	30849.24
520.954	30877.91
521.155	31234.25
521.357	31566.03
521.559	31693
521.761	32514.23
521.963	32217.28
522.164	32166.08
522.366	32565.43
522.568	33237.17
522.77	33261.74
522.971	33894.57
523.173	33151.15
523.375	33747.11
523.576	34252.96
523.778	34310.3
523.98	35049.62
524.181	35115.15
524.383	35231.89
524.584	35498.12
524.786	35575.95
524.988	35395.73
525.189	36223.11
525.391	36343.94
525.592	36159.62
525.794	36878.46
525.995	36575.36
526.197	36413.57
526.398	36663.42
526.6	37007.48
526.801	37568.62
527.003	37384.3
527.204	37869.67
527.406	37734.51
527.607	37847.15
527.808	38013.03
528.01	38226.02
528.211	38381.67
528.412	39323.73
528.614	38754.4
528.815	38981.72
529.016	39448.66
529.218	38846.55
529.419	39374.93
529.62	39245.91
529.822	39442.51
530.023	39313.49
530.224	39565.39
530.425	39440.46
530.626	39209.04
530.828	39555.15
531.029	40489.02
531.23	39647.31
531.431	40079.43
531.632	40360
531.833	40251.46
532.035	40255.56
532.236	40370.24
532.437	40640.57
532.638	40491.07
532.839	40994.87
533.04	40638.53
533.241	40493.12
533.442	41263.16
533.643	40654.91
533.844	40886.33
534.045	40638.53
534.246	40433.73
534.447	41048.12
534.648	40599.62
534.849	41156.66
535.05	40923.19
535.251	41132.09
535.451	41175.09
535.652	41470
535.853	40966.2
536.054	41408.56
536.255	41455.67
536.456	41230.39
536.657	41451.57
536.857	41125.94
537.058	40898.62
537.259	41533.49
537.46	41238.58
537.66	41111.61
537.861	41203.77
538.062	41113.66
538.263	41515.06
538.463	40974.39
538.664	41287.73
538.865	41193.53
539.065	41809.96
539.266	41201.72
539.466	41758.77
539.667	40790.08
539.868	41670.7
540.068	41408.56
540.269	41160.76
540.469	41396.28
540.67	41127.99
540.87	40835.13
541.071	41318.45
541.271	41121.85
541.472	40964.15
541.672	41113.66
541.873	41185.33
542.073	40286.28
542.274	41394.23
542.474	41185.33
542.675	40919.1
542.875	41478.19
543.075	41295.92
543.276	40800.32
543.476	41781.29
543.676	40783.93
543.877	41064.5
544.077	41125.94
544.277	41232.44
544.478	40980.54
544.678	41291.83
544.878	41308.21
545.078	40802.36
545.279	40568.9
545.479	41338.93
545.679	41334.84
545.879	40966.2
546.079	40949.82
546.28	40765.5
546.48	40767.55
546.68	41619.5
546.88	41166.9
547.08	41238.58
547.28	40978.49
547.48	40611.9
547.68	40855.61
547.88	40931.39
548.081	40892.47
548.281	40595.52
548.481	40779.84
548.681	41558.06
548.881	40863.8
549.081	40921.15
549.28	40740.93
549.48	41316.4
549.68	40917.05
549.88	41510.96
550.08	40640.57
550.28	40677.44
550.48	40845.37
550.68	40882.23
550.88	40575.04
551.08	40859.71
551.279	40740.93
551.479	40476.74
551.679	40802.36
551.879	40742.97
552.079	41029.69
552.278	40534.08
552.478	41216.05
552.678	40833.08
552.878	40935.48
553.077	40280.13
553.277	40253.51
553.477	40833.08
553.676	40306.76
553.876	40339.52
554.076	40439.87
554.275	40151.11
554.475	39895.11
554.674	40474.69
554.874	40351.81
555.074	40171.59
555.273	40628.29
555.473	40396.87
555.672	40341.57
555.872	39837.77
556.071	40333.38
556.271	40032.33
556.47	39802.96
556.67	39680.08
556.869	39956.55
557.068	39884.87
557.268	39546.96
557.467	39725.13
557.667	39762
557.866	40069.19
558.065	39278.68
558.265	39198.8
558.464	39557.2
558.663	39546.96
558.863	38975.58
559.062	39921.74
559.261	38981.72
559.461	39376.98
559.66	38787.16
559.859	38914.14
560.058	38828.12
560.258	39008.34
560.457	38342.75
560.656	39186.52
560.855	38553.69
561.054	38815.83
561.253	38834.27
561.453	38439.01
561.652	38451.3
561.851	38494.3
562.05	37951.59
562.249	38146.15
562.448	38305.89
562.647	38010.98
562.846	37802.09
563.045	37750.89
563.244	37976.17
563.443	38154.34
563.642	37255.28
563.841	37845.1
564.04	37265.52
564.239	37865.58
564.438	36943.99
564.637	37128.31
564.836	37527.66
565.035	36972.66
565.234	36903.03
565.432	36847.74
565.631	36845.69
565.83	36987
566.029	36128.9
566.228	36669.56
566.427	36358.27
566.625	36190.34
566.824	35756.17
567.023	36610.17
567.222	35432.59
567.42	35747.98
567.619	35944.58
567.818	36067.46
568.016	35436.69
568.215	35889.29
568.414	35076.24
568.612	35543.18
568.811	34994.32
569.01	35281.04
569.208	34506.91
569.407	35059.86
569.605	34412.7
569.804	35133.59
570.002	34361.5
570.201	34760.86
570.4	34130.08
570.598	33927.33
570.797	34023.59
570.995	34119.84
571.193	33773.74
571.392	33915.05
571.59	33714.34
571.789	33337.52
571.987	33403.05
572.186	33243.31
572.384	33370.29
572.582	33366.19
572.781	33290.41
572.979	32823.48
573.177	32831.67
573.376	32858.29
573.574	32741.56
573.772	32782.52
573.971	32477.37
574.169	32391.36
574.367	32112.83
574.565	32557.24
574.763	32282.81
574.962	32051.39
575.16	31776.97
575.358	31815.88
575.556	31754.44
575.754	31918.28
575.952	31275.21
576.151	31594.7
576.349	31195.34
576.547	31285.45
576.745	31086.8
576.943	31070.42
577.141	30750.93
577.339	30783.7
577.537	30587.1
577.735	30726.36
577.933	30437.59
578.131	30650.58
578.329	30380.25
578.527	30357.72
578.725	30314.72
578.923	30423.26
579.121	29767.91
579.319	29980.9
579.516	30085.34
579.714	29806.82
579.912	29522.15
580.11	29380.84
580.308	29708.52
580.506	29333.74
580.704	29098.22
580.901	29481.19
581.099	29343.98
581.297	28668.15
581.495	28911.86
581.692	28928.24
581.89	28690.68
582.088	29372.65
582.285	28895.47
582.483	28815.6
582.681	28209.4
582.878	28494.07
583.076	28051.71
583.274	28117.25
583.471	27699.46
583.669	28260.6
583.866	27744.52
584.064	27949.31
584.262	27498.76
584.459	27715.84
584.657	27461.9
584.854	27740.42
585.052	27085.07
585.249	27580.68
585.447	27408.65
585.644	27107.6
585.841	26958.1
586.039	27449.61
586.236	26798.35
586.434	26675.48
586.631	26423.58
586.828	26450.2
587.026	26857.74
587.223	26667.28
587.42	26257.69
587.618	26396.95
587.815	26550.55
588.012	26509.59
588.21	25991.45
588.407	26229.02
588.604	26005.79
588.801	25647.4
588.999	25878.82
589.196	25950.49
589.393	25704.74
589.59	25643.3
589.787	25278.76
589.984	25446.69
590.182	25297.19
590.379	25481.51
590.576	25166.12
590.773	25147.69
590.97	24856.88
591.167	25139.5
591.364	24762.67
591.561	25076.01
591.758	24650.03
591.955	24693.04
592.152	24699.19
592.349	24400.18
592.546	24635.7
592.743	24234.3
592.94	23839.04
593.137	24230.2
593.334	24144.19
593.531	24129.85
593.727	23734.59
593.924	24164.67
594.121	23736.64
594.318	23832.9
594.515	23505.22
594.712	24004.92
594.908	23370.05
595.105	23783.74
595.302	23320.9
595.499	23189.83
595.696	23218.5
595.892	23001.42
596.089	23066.95
596.286	23171.4
596.482	23032.14
596.679	22792.53
596.876	22985.04
597.072	22876.49
597.269	22708.56
597.466	22620.5
597.662	22460.76
597.859	22485.33
598.055	22657.36
598.252	22210.9
598.448	22397.27
598.645	22171.99
598.841	22169.94
599.038	22374.74
599.234	22171.99
599.431	21934.43
599.627	22071.64
599.824	22137.18
600.02	21815.65
600.217	21772.64
600.413	21547.36
600.609	21660
600.806	21404
601.002	21469.54
601.198	21231.97
601.395	21240.17
601.591	21117.29
601.787	21223.78
601.984	20959.59
602.18	21080.42
602.376	20980.07
602.572	20754.8
602.769	20902.25
602.965	20650.35
603.161	20779.37
603.357	20539.76
603.553	20400.5
603.75	20636.02
603.946	20304.24
604.142	20351.35
604.338	20072.82
604.534	20261.24
604.73	20246.9
604.926	20195.7
605.122	20267.38
605.318	20050.3
605.514	19736.96
605.71	19771.77
605.906	19790.2
606.102	19757.44
606.298	19739.01
606.494	19597.7
606.69	19820.92
606.886	19413.38
607.082	19190.15
607.278	19464.58
607.474	19257.73
607.67	19435.91
607.866	18868.62
608.062	19394.95
608.257	19276.16
608.453	19089.8
608.649	19483.01
608.845	18919.82
609.041	19016.07
609.236	19087.75
609.432	18956.68
609.628	18864.52
609.824	18753.93
610.019	18624.91
610.215	18712.97
610.411	18774.41
610.606	18452.88
610.802	18614.67
610.998	18581.9
611.193	18475.41
611.389	18393.49
611.584	18422.16
611.78	18287
611.976	18266.52
612.171	18344.34
612.367	18383.25
612.562	18018.71
612.758	17709.47
612.953	18174.36
613.149	18157.97
613.344	17942.94
613.539	18145.69
613.735	18000.28
613.93	17789.34
614.126	17756.57
614.321	17809.82
614.517	17828.25
614.712	17656.22
614.907	17609.12
615.103	17830.3
615.298	17660.32
615.493	17453.47
615.688	17263.01
615.884	17592.73
616.079	17551.77
616.274	17330.59
616.47	17385.89
616.665	17367.46
616.86	17078.69
617.055	17615.26
617.25	17080.74
617.445	17174.95
617.641	17033.64
617.836	17015.21
618.031	16771.5
618.226	17293.73
618.421	16886.19
618.616	17029.54
618.811	16839.08
619.006	16775.59
619.201	16439.73
619.396	16859.56
619.591	16392.62
619.786	16695.72
619.981	16189.88
620.176	16390.58
620.371	16271.79
620.566	16243.12
620.761	16189.88
620.956	16263.6
621.151	15987.13
621.346	16060.85
621.541	15493.57
621.735	15767.99
621.93	15534.53
622.125	15505.85
622.32	15487.42
622.515	15532.48
622.709	15344.06
622.904	15368.64
623.099	15169.99
623.294	15131.08
623.488	14850.5
623.683	15047.11
623.878	14748.11
624.072	14979.53
624.267	14662.09
624.462	14639.56
624.656	14555.6
624.851	14571.98
625.046	14135.76
625.24	14287.31
625.435	14262.74
625.629	14301.65
625.824	13881.81
626.018	13892.05
626.213	13701.59
626.407	13978.07
626.602	13588.96
626.796	13691.35
626.991	13644.25
627.185	13474.27
627.38	13599.2
627.574	13476.32
627.768	13216.22
627.963	13359.58
628.157	13304.29
628.352	13201.89
628.546	12902.89
628.74	13197.79
628.935	12827.11
629.129	12927.46
629.323	12794.34
629.517	12716.52
629.712	12691.94
629.906	12546.54
630.1	12624.36
630.294	12399.09
630.489	12274.16
630.683	12567.02
630.877	12200.43
631.071	12055.03
631.265	12112.37
631.459	11907.57
631.653	11944.44
631.848	11708.92
632.042	11866.61
632.236	11760.12
632.43	11751.93
632.624	11706.87
632.818	11676.15
633.012	11405.82
633.206	11266.56
633.4	11323.9
633.594	11385.34
633.788	11282.94
633.982	11252.22
634.176	11205.12
634.369	11057.67
634.563	11307.52
634.757	11094.53
634.951	10932.74
635.145	11076.1
635.339	10869.25
635.533	10813.96
635.726	10566.15
635.92	10451.47
636.114	10623.5
636.308	10570.25
636.501	10541.58
636.695	10535.43
636.889	10453.52
637.083	10205.71
637.276	10244.62
637.47	10068.5
637.664	9996.82
637.857	10150.42
638.051	10025.49
638.244	9945.62
638.438	9980.43
638.632	9921.04
638.825	9699.86
639.019	9796.12
639.212	9644.57
639.406	9695.77
639.599	9556.5
639.793	9636.38
639.986	9470.49
640.18	9568.79
640.373	9323.04
640.567	9284.12
640.76	9241.12
640.954	9165.34
641.147	9052.7
641.34	8956.45
641.534	9108
641.727	9273.89
641.92	9017.89
642.114	9091.62
642.307	9028.13
642.5	8897.06
642.694	8806.95
642.887	8780.32
643.08	8796.71
643.273	8737.32
643.467	8649.25
643.66	8469.03
643.853	8344.11
644.046	8423.98
644.239	8301.1
644.432	8501.8
644.626	8096.3
644.819	8196.65
645.012	8348.2
645.205	8430.12
645.398	8098.35
645.591	8241.71
645.784	8028.72
645.977	7924.27
646.17	7983.66
646.363	7858.74
646.556	7631.41
646.749	7957.04
646.942	7893.55
647.135	7801.4
647.328	7719.48
647.521	7739.96
647.714	7496.25
647.907	7660.09
648.099	7543.35
648.292	7559.74
648.485	7291.45
648.678	7486.01
648.871	7459.38
649.064	7410.23
649.256	7199.29
649.449	7248.44
649.642	7187
649.835	7219.77
650.027	7060.03
650.22	7174.72
650.413	6996.54
650.605	7123.52
650.798	7027.26
650.991	6855.23
651.183	7012.93
651.376	6863.43
651.568	6943.3
651.761	6806.08
651.954	6709.83
652.146	6701.64
652.339	6707.78
652.531	6765.12
652.724	6683.2
652.916	6439.5
653.109	6574.66
653.301	6603.33
653.494	6490.7
653.686	6337.1
653.879	6576.71
654.071	6392.39
654.263	6273.61
654.456	6132.3
654.648	6341.19
654.84	6187.6
655.033	6259.28
655.225	6347.34
655.417	6300.23
655.61	6025.81
655.802	6099.53
655.994	6183.5
656.186	5947.98
656.379	6101.58
656.571	5952.08
656.763	5988.94
656.955	5943.89
657.148	5890.64
657.34	5976.66
657.532	5816.91
657.724	5708.37
657.916	5984.85
658.108	5851.73
658.3	5804.63
658.492	5853.78
658.684	5526.1
658.876	5605.97
659.068	5567.06
659.26	5505.62
659.452	5540.44
659.644	5534.29
659.836	5524.05
660.028	5532.25
660.22	5212.76
660.412	5468.76
660.604	5311.07
660.796	5399.13
660.988	5472.86
661.18	5216.86
661.372	5411.42
661.563	5309.02
661.755	5100.12
661.947	5225.05
662.139	5241.43
662.331	5182.04
662.522	5139.04
662.714	5087.84
662.906	5020.25
663.097	5196.38
663.289	5167.71
663.481	4860.51
663.673	4977.25
663.864	4944.48
664.056	4817.51
664.247	4995.68
664.439	4905.57
664.631	4958.81
664.822	4842.08
665.014	4690.53
665.205	4958.81
665.397	4872.8
665.588	4942.43
665.78	4727.39
665.971	4831.84
666.163	4639.33
666.354	4792.93
666.546	4643.43
666.737	4719.2
666.929	4616.8
667.12	4704.87
667.311	4606.56
667.503	4567.65
667.694	4594.28
667.885	4479.59
668.077	4487.78
668.268	4604.52
668.459	4444.77
668.651	4522.6
668.842	4584.04
669.033	4340.33
669.224	4526.69
669.416	4469.35
669.607	4432.49
669.798	4412.01
669.989	4393.58
670.18	4407.91
670.371	4358.76
670.563	4332.14
670.754	4545.13
670.945	4403.82
671.136	4289.13
671.327	4219.5
671.518	4282.99
671.709	4438.63
671.9	4321.9
672.091	4416.1
672.282	4397.67
672.473	4242.03
672.664	4229.74
672.855	4264.55
673.046	4098.67
673.237	4354.66
673.428	4309.61
673.619	4250.22
673.809	4098.67
674	4194.92
674.191	4260.46
674.382	4246.12
674.573	4151.92
674.764	4172.39
674.954	4201.07
675.145	4080.24
675.336	4047.47
675.527	4141.68
675.717	4190.83
675.908	4113
676.099	4156.01
676.289	4199.02
676.48	4207.21
676.671	4162.16
676.861	4106.86
677.052	4176.49
677.243	4020.85
677.433	4219.5
677.624	4113
677.814	4110.96
678.005	4162.16
678.195	4129.39
678.386	3951.21
678.576	3910.25
678.767	4096.62
678.957	4227.69
679.148	4225.64
679.338	3994.22
679.529	4076.14
679.719	4174.44
679.909	4229.74
680.1	4123.24
680.29	4127.34
680.481	4147.82
680.671	4174.44
680.861	4106.86
681.052	4078.19
681.242	4051.56
681.432	4266.6
681.622	4141.68
681.813	4104.81
682.003	4170.35
682.193	4119.15
682.383	4029.04
682.573	4137.58
682.764	4035.18
682.954	4106.86
683.144	4098.67
683.334	4055.66
683.524	4014.7
683.714	4115.05
683.904	4133.48
684.094	4063.85
684.284	3951.21
684.474	4070
684.664	4100.72
684.854	4086.38
685.044	4002.41
685.234	4084.33
685.424	4213.35
685.614	4039.28
685.804	4123.24
685.994	3973.74
686.184	4037.23
686.374	3949.17
686.564	3930.73
686.753	3920.49
686.943	3850.86
687.133	3969.65
687.323	3908.21
687.513	3803.76
687.702	3723.89
687.892	3889.78
688.082	3795.57
688.272	3900.02
688.461	3797.62
688.651	3926.64
688.841	3744.37
689.03	3818.1
689.22	3742.32
689.41	3789.42
689.599	3764.85
689.789	3705.46
689.979	3801.71
690.168	3611.25
690.358	3691.12
690.547	3558
690.737	3601.01
690.926	3615.35
691.116	3500.66
691.305	3656.31
691.495	3656.31
691.684	3588.72
691.874	3551.86
692.063	3451.51
692.252	3580.53
692.442	3641.97
692.631	3375.74
692.82	3447.41
693.01	3504.76
693.199	3357.3
693.388	3304.06
693.578	3480.18
693.767	3439.22
693.956	3439.22
694.146	3418.74
694.335	3316.34
694.524	3324.54
694.713	3398.26
694.902	3381.88
695.092	3322.49
695.281	3463.8
695.47	3320.44
695.659	3232.38
695.848	3240.57
696.037	3287.67
696.226	3439.22
696.415	3285.62
696.604	3213.95
696.793	3299.96
696.982	3385.97
697.171	3418.74
697.36	3199.61
697.549	3218.04
697.738	3246.71
697.927	3232.38
698.116	3123.84
698.305	3244.67
698.494	3189.37
698.683	3187.32
698.872	3295.86
699.061	3195.51
699.25	3168.89
699.438	3140.22
699.627	3299.96
699.816	3189.37
700.005	3091.07
700.193	3240.57
700.382	3347.06
700.571	3244.67
700.76	3238.52
700.948	3234.43
701.137	3193.47
701.326	3267.19
701.514	3201.66
701.703	3197.56
701.892	3207.8
702.08	3338.87
702.269	3142.27
702.457	3195.51
702.646	3211.9
702.834	3154.55
703.023	3244.67
703.212	3287.67
703.4	3439.22
703.589	3330.68
703.777	3246.71
703.965	3150.46
704.154	3211.9
704.342	3123.84
704.531	3320.44
704.719	3240.57
704.907	3312.25
705.096	3095.16
705.284	3156.6
705.472	3261.05
705.661	3394.17
705.849	3455.61
706.037	3234.43
706.226	3349.11
706.414	3226.23
706.602	3373.69
706.79	3328.63
706.979	3170.94
707.167	3191.42
707.355	3183.23
707.543	3299.96
707.731	3226.23
707.919	3269.24
708.107	3340.92
708.296	3244.67
708.484	3394.17
708.672	3246.71
708.86	3250.81
709.048	3328.63
709.236	3252.86
709.424	3345.02
709.612	3330.68
709.8	3365.5
709.988	3248.76
710.176	3250.81
710.364	3463.8
710.551	3379.83
710.739	3312.25
710.927	3189.37
711.115	3252.86
711.303	3381.88
711.491	3420.79
711.679	3277.43
711.866	3353.21
712.054	3426.93
712.242	3332.73
712.43	3342.97
712.617	3281.53
712.805	3308.15
712.993	3439.22
713.181	3342.97
713.368	3463.8
713.556	3377.78
713.744	3240.57
713.931	3492.47
714.119	3345.02
714.306	3328.63
714.494	3484.28
714.682	3406.45
714.869	3449.46
715.057	3531.38
715.244	3369.59
715.432	3541.62
715.619	3504.76
715.807	3525.24
715.994	3431.03
716.182	3578.48
716.369	3451.51
716.556	3410.55
716.744	3418.74
716.931	3385.97
717.119	3428.98
717.306	3476.09
717.493	3549.81
717.681	3373.69
717.868	3533.43
718.055	3596.92
718.242	3482.23
718.43	3558
718.617	3586.68
718.804	3510.9
718.991	3521.14
719.179	3641.97
719.366	3537.52
719.553	3566.2
719.74	3594.87
719.927	3578.48
720.114	3553.91
720.301	3519.09
720.488	3574.39
720.676	3598.96
720.863	3672.69
721.05	3725.94
721.237	3586.68
721.424	3596.92
721.611	3598.96
721.798	3586.68
721.985	3576.44
722.172	3601.01
722.358	3664.5
722.545	3611.25
722.732	3594.87
722.919	3723.89
723.106	3654.26
723.293	3662.45
723.48	3672.69
723.667	3652.21
723.853	3768.95
724.04	3752.56
724.227	3615.35
724.414	3756.66
724.6	3664.5
724.787	3656.31
724.974	3820.14
725.161	3764.85
725.347	3644.02
725.534	3797.62
725.72	3820.14
725.907	3766.9
726.094	3785.33
726.28	3670.64
726.467	3687.03
726.653	3617.4
726.84	3795.57
727.027	3822.19
727.213	3734.13
727.4	3754.61
727.586	3873.39
727.773	3676.79
727.959	3723.89
728.145	3736.18
728.332	3709.55
728.518	3705.46
728.705	3814
728.891	3848.82
729.077	3742.32
729.264	3775.09
729.45	3736.18
729.636	3826.29
729.823	3828.34
730.009	3871.34
730.195	3791.47
730.382	3857.01
730.568	3844.72
730.754	3852.91
730.94	3861.1
731.126	3924.59
731.313	3895.92
731.499	3949.17
731.685	3983.98
731.871	3971.69
732.057	3904.11
732.243	3820.14
732.429	4059.76
732.615	4039.28
732.801	3848.82
732.987	3842.67
733.173	3918.45
733.359	3814
733.545	3871.34
733.731	3945.07
733.917	3930.73
734.103	3924.59
734.289	3992.17
734.475	3912.3
734.661	4176.49
734.847	3912.3
735.033	3981.93
735.219	3928.69
735.404	4000.37
735.59	3940.97
735.776	3990.13
735.962	4065.9
736.148	4016.75
736.333	4043.37
736.519	3908.21
736.705	3869.3
736.89	3986.03
737.076	4014.7
737.262	3830.38
737.447	3879.54
737.633	3971.69
737.819	3986.03
738.004	3932.78
738.19	3914.35
738.375	4029.04
738.561	3971.69
738.747	3857.01
738.932	3869.3
739.118	4100.72
739.303	3955.31
739.489	3986.03
739.674	3975.79
739.859	3859.06
740.045	3947.12
740.23	3959.41
740.416	3742.32
740.601	3818.1
740.786	3922.54
740.972	3723.89
741.157	3920.49
741.342	3879.54
741.528	3910.25
741.713	3752.56
741.898	3658.35
742.084	3918.45
742.269	3967.6
742.454	3809.9
742.639	3656.31
742.824	3725.94
743.01	3863.15
743.195	3895.92
743.38	3752.56
743.565	3801.71
743.75	3799.66
743.935	3717.75
744.12	3736.18
744.305	3758.71
744.49	3711.6
744.675	3676.79
744.86	3691.12
745.045	3633.78
745.23	3654.26
745.415	3582.58
745.6	3494.52
745.785	3512.95
745.97	3535.48
746.155	3596.92
746.34	3627.64
746.525	3523.19
746.71	3572.34
746.895	3381.88
747.079	3377.78
747.264	3392.12
747.449	3486.33
747.634	3283.58
747.819	3406.45
748.003	3304.06
748.188	3385.97
748.373	3295.86
748.557	3359.35
748.742	3244.67
748.927	3259
749.111	3283.58
749.296	3242.62
749.481	3263.1
749.665	3199.61
749.85	3220.09
750.034	3338.87
750.219	3164.79
750.404	3150.46
750.588	3170.94
750.773	3134.07
750.957	3146.36
751.141	3062.4
751.326	3031.68
751.51	2990.72
751.695	3064.44
751.879	2964.09
752.064	3019.39
752.248	2931.33
752.432	2931.33
752.617	2894.46
752.801	2886.27
752.985	2830.98
753.17	2837.12
753.354	2806.4
753.538	2792.06
753.722	2771.58
753.907	2691.71
754.091	2751.1
754.275	2736.77
754.459	2775.68
754.643	2632.32
754.828	2652.8
755.012	2613.89
755.196	2517.64
755.38	2554.5
755.564	2497.16
755.748	2642.56
755.932	2566.79
756.116	2572.93
756.3	2534.02
756.484	2540.16
756.668	2462.34
756.852	2529.92
757.036	2452.1
757.22	2325.13
757.404	2255.5
757.588	2472.58
757.772	2339.46
757.956	2482.82
758.14	2343.56
758.323	2278.02
758.507	2359.94
758.691	2298.5
758.875	2458.25
759.059	2306.7
759.242	2359.94
759.426	2267.78
759.61	2355.85
759.794	2239.11
759.977	2405
760.161	2372.23
760.345	2394.76
760.528	2247.3
760.712	2155.15
760.895	2138.76
761.079	2181.77
761.263	1884.81
761.446	2247.3
761.63	2095.75
761.813	2198.15
761.997	2136.71
762.18	2042.51
762.364	2101.9
762.547	2071.18
762.731	1997.45
762.914	1993.36
763.098	1962.64
763.281	2007.69
763.464	2052.75
763.648	2062.99
763.831	1960.59
764.015	2005.64
764.198	1989.26
764.381	1985.16
764.564	1942.16
764.748	1993.36
764.931	1899.15
765.114	1966.73
765.297	1821.33
765.481	1858.19
765.664	1827.47
765.847	1997.45
766.03	1753.74
766.213	1856.14
766.397	1811.09
766.58	1796.75
766.763	1890.96
766.946	1835.66
767.129	1800.85
767.312	1819.28
767.495	1714.83
767.678	1770.13
767.861	1831.57
768.044	1647.25
768.227	1809.04
768.41	1749.65
768.593	1751.7
768.776	1745.55
768.959	1682.06
769.142	1667.73
769.324	1745.55
769.507	1831.57
769.69	1739.41
769.873	1643.15
770.056	1729.17
770.239	1649.3
770.421	1862.29
770.604	1544.85
770.787	1634.96
770.97	1583.76
771.152	1475.22
771.335	1628.82
771.518	1645.2
771.7	1708.69
771.883	1538.71
772.066	1555.09
772.248	1604.24
772.431	1624.72
772.613	1630.87
772.796	1426.07
772.978	1591.95
773.161	1581.71
773.343	1501.84
773.526	1575.57
773.708	1419.92
773.891	1397.4
774.073	1383.06
774.256	1462.93
774.438	1596.05
774.621	1401.49
774.803	1432.21
774.985	1448.6
775.168	1356.44
775.35	1413.78
775.532	1358.49
775.715	1413.78
775.897	1338.01
776.079	1376.92
776.261	1331.86
776.444	1303.19
776.626	1251.99
776.808	1295
776.99	1288.85
777.173	1200.79
777.355	1266.33
777.537	1241.75
777.719	1372.82
777.901	1190.55
778.083	1186.46
778.265	1161.88
778.447	1227.42
778.629	1153.69
778.811	1129.11
778.993	1149.59
779.175	1118.87
779.357	1149.59
779.539	1090.2
779.721	1145.5
779.903	1188.5
780.085	1155.74
780.267	1135.26
780.449	1092.25
780.631	1077.91
780.812	1129.11
780.994	1077.91
781.176	1090.2
781.358	1096.35
781.54	967.32
781.721	1098.39
781.903	1086.11
782.085	922.27
782.267	1061.53
782.448	903.84
782.63	1014.43
782.812	1028.76
782.993	1059.48
783.175	993.95
783.357	887.45
783.538	940.7
783.72	946.84
783.901	909.98
784.083	922.27
784.264	912.03
784.446	803.49
784.627	848.54
784.809	934.56
784.99	936.6
785.172	905.88
785.353	879.26
785.535	875.17
785.716	864.93
785.897	862.88
786.079	864.93
786.26	916.12
786.441	838.3
786.623	811.68
786.804	817.82
786.985	789.15
787.167	838.3
787.348	688.8
787.529	735.9
787.71	848.54
787.891	752.29
788.073	750.24
788.254	672.42
788.435	742.05
788.616	744.1
788.797	705.18
788.978	750.24
789.159	776.86
789.34	682.66
789.522	783.01
789.703	727.71
789.884	805.53
790.065	631.46
790.246	754.34
790.427	692.9
790.607	737.95
790.788	707.23
790.969	666.27
791.15	744.1
791.331	709.28
791.512	615.07
791.693	627.36
791.874	705.18
792.054	643.74
792.235	608.93
792.416	586.4
792.597	606.88
792.778	594.59
792.958	653.98
793.139	582.31
793.32	647.84
793.5	594.59
793.681	578.21
793.862	567.97
794.042	592.55
794.223	557.73
794.404	531.11
794.584	512.67
794.765	557.73
794.945	537.25
795.126	531.11
795.306	549.54
795.487	522.91
795.667	557.73
795.848	580.26
796.028	543.39
796.209	553.63
796.389	502.43
796.57	600.74
796.75	553.63
796.93	516.77
797.111	518.82
797.291	533.15
797.471	553.63
797.652	494.24
797.832	504.48
798.012	557.73
798.192	496.29
798.373	461.48
798.553	516.77
798.733	582.31
798.913	484
799.093	434.85
799.274	461.48
799.454	522.91
799.634	510.63
799.814	512.67
799.994	551.59
800.174	428.71
800.354	422.56
800.534	416.42
800.714	445.09
800.894	406.18
801.074	400.04
801.254	496.29
801.434	430.76
801.614	414.37
801.794	426.66
801.974	1131.16
802.154	393.89
802.334	361.13
802.514	506.53
802.693	416.42
802.873	352.93
803.053	416.42
803.233	455.33
803.413	428.71
803.592	389.8
803.772	418.47
803.952	377.51
804.131	400.04
804.311	420.52
804.491	422.56
804.67	402.08
804.85	422.56
805.03	404.13
805.209	391.84
805.389	402.08
805.568	420.52
805.748	373.41
805.928	424.61
806.107	416.42
806.287	363.17
806.466	365.22
806.646	303.78
806.825	248.49
807.004	344.74
807.184	371.37
807.363	410.28
807.543	373.41
807.722	379.56
807.901	391.84
808.081	377.51
808.26	275.11
808.439	377.51
808.619	404.13
808.798	311.97
808.977	311.97
809.156	481.96
809.336	344.74
809.515	344.74
809.694	316.07
809.873	357.03
810.052	369.32
810.231	363.17
810.411	393.89
810.59	447.14
810.769	363.17
810.948	297.64
811.127	309.93
811.306	352.93
811.485	299.69
811.664	391.84
811.843	301.73
812.022	316.07
812.201	295.59
812.38	262.82
812.559	232.1
812.737	375.46
812.916	266.92
813.095	289.45
813.274	293.54
813.453	301.73
813.632	217.77
813.811	359.08
813.989	299.69
814.168	346.79
814.347	225.96
814.526	275.11
814.704	297.64
814.883	309.93
815.062	330.41
815.24	295.59
815.419	268.97
815.598	246.44
815.776	311.97
815.955	295.59
816.133	234.15
816.312	273.06
816.49	221.86
816.669	219.82
816.847	303.78
817.026	328.36
817.204	215.72
817.383	299.69
817.561	268.97
817.74	203.43
817.918	232.1
818.097	260.77
818.275	230.06
818.453	301.73
818.632	219.82
818.81	213.67
818.988	189.1
819.167	238.25
819.345	258.73
819.523	293.54
819.701	199.34
819.879	328.36
820.058	242.34
820.236	223.91
820.414	185
820.592	191.14
820.77	252.58
820.948	228.01
821.127	246.44
821.305	248.49
821.483	170.66
821.661	213.67
821.839	232.1
822.017	189.1
822.195	209.58
822.373	215.72
822.551	191.14
822.729	256.68
822.907	258.73
823.085	219.82
823.262	201.38
823.44	148.14
823.618	256.68
823.796	152.23
823.974	234.15
824.152	250.53
824.329	232.1
824.507	195.24
824.685	273.06
824.863	271.01
825.04	240.3
825.218	273.06
825.396	137.9
825.574	213.67
825.751	219.82
825.929	176.81
826.107	168.62
826.284	228.01
826.462	230.06
826.639	203.43
826.817	189.1
826.994	174.76
827.172	160.42
827.349	217.77
827.527	316.07
827.704	170.66
827.882	139.94
828.059	154.28
828.237	191.14
828.414	205.48
828.591	74.41
828.769	148.14
828.946	211.62
829.124	205.48
829.301	201.38
829.478	146.09
829.655	137.9
829.833	185
830.01	158.38
830.187	225.96
830.364	162.47
830.542	223.91
830.719	189.1
830.896	166.57
831.073	195.24
831.25	238.25
831.427	105.13
831.604	166.57
831.782	160.42
831.959	221.86
832.136	203.43
832.313	191.14
832.49	144.04
832.667	90.79
832.844	39.59
833.021	236.2
833.198	156.33
833.374	187.05
833.551	78.51
833.728	193.19
833.905	141.99
834.082	121.51
834.259	88.75
834.436	205.48
834.612	223.91
834.789	141.99
834.966	94.89
835.143	127.66
835.319	154.28
835.496	225.96
835.673	213.67
835.85	141.99
836.026	109.23
836.203	189.1
836.38	117.42
836.556	150.18
836.733	144.04
836.909	168.62
837.086	80.55
837.262	115.37
837.439	135.85
837.616	137.9
837.792	135.85
837.968	119.46
838.145	62.12
838.321	94.89
838.498	72.36
838.674	162.47
838.851	115.37
839.027	160.42
839.203	139.94
839.38	152.23
839.556	103.08
839.732	170.66
839.909	107.18
840.085	92.84
840.261	152.23
840.437	82.6
840.614	60.07
840.79	80.55
840.966	94.89
841.142	135.85
841.318	41.64
841.494	150.18
841.671	135.85
841.847	86.7
842.023	121.51
842.199	131.75
842.375	127.66
842.551	31.4
842.727	23.21
842.903	150.18
843.079	23.21
843.255	182.95
843.431	176.81
843.607	115.37
843.783	12.97
843.959	133.8
844.134	84.65
844.31	96.94
844.486	94.89
844.662	115.37
844.838	109.23
845.013	105.13
845.189	113.32
845.365	113.32
845.541	131.75
845.716	8.87
845.892	125.61
846.068	17.07
846.244	109.23
846.419	113.32
846.595	31.4
846.77	76.46
846.946	78.51
847.122	47.79
847.297	62.12
847.473	131.75
847.648	66.22
847.824	86.7
847.999	17.07
848.175	90.79
848.35	125.61
848.526	141.99
848.701	107.18
848.876	64.17
849.052	74.41
849.227	98.99
849.403	43.69
849.578	150.18
849.753	74.41
849.929	113.32
850.104	15.02
850.279	76.46
850.454	88.75
850.63	78.51
850.805	55.98
850.98	66.22
851.155	39.59
851.33	94.89
851.505	68.27
851.681	72.36
851.856	60.07
852.031	115.37
852.206	141.99
852.381	113.32
852.556	107.18
852.731	76.46
852.906	111.27
853.081	66.22
853.256	58.03
853.431	55.98
853.606	98.99
853.781	47.79
853.956	25.26
854.131	23.21
854.305	66.22
854.48	72.36
854.655	119.46
854.83	90.79
855.005	164.52
855.18	70.31
855.354	51.88
855.529	90.79
855.704	64.17
855.879	47.79
856.053	60.07
856.228	39.59
856.403	39.59
856.577	125.61
856.752	0.68
856.926	88.75
857.101	-9.56
857.276	68.27
857.45	53.93
857.625	94.89
857.799	68.27
857.974	113.32
858.148	33.45
858.323	72.36
858.497	12.97
858.672	43.69
858.846	21.16
859.02	105.13
859.195	86.7
859.369	39.59
859.543	21.16
859.718	125.61
859.892	64.17
860.066	49.83
860.241	109.23
860.415	4.78
860.589	6.83
860.763	68.27
860.938	68.27
861.112	72.36
861.286	139.94
861.46	49.83
861.634	-3.41
861.808	82.6
861.982	33.45
862.157	29.35
862.331	51.88
862.505	92.84
862.679	2.73
862.853	31.4
863.027	6.83
863.201	109.23
863.375	-3.41
863.549	55.98
863.722	64.17
863.896	78.51
864.07	70.31
864.244	86.7
864.418	19.11
864.592	51.88
864.766	47.79
864.939	27.31
865.113	113.32
865.287	39.59
865.461	-34.13
865.634	80.55
865.808	82.6
865.982	21.16
866.156	-5.46
866.329	-32.08
866.503	88.75
866.676	88.75
866.85	17.07
867.024	98.99
867.197	86.7
867.371	55.98
867.544	27.31
867.718	-27.99
867.891	115.37
868.065	25.26
868.238	27.31
868.412	49.83
868.585	51.88
868.759	62.12
868.932	12.97
869.105	-21.85
869.279	47.79
869.452	-32.08
869.625	4.78
869.799	62.12
869.972	10.92
870.145	39.59
870.319	45.74
870.492	21.16
870.665	4.78
870.838	74.41
871.011	-44.37
871.185	43.69
871.358	25.26
871.531	82.6
871.704	55.98
871.877	94.89
872.05	76.46
872.223	-19.8
872.396	62.12
872.569	-9.56
872.742	0.68
872.915	109.23
873.088	60.07
873.261	-19.8
873.434	58.03
873.607	113.32
873.78	96.94
873.953	10.92
874.126	-7.51
874.299	12.97
874.471	-9.56
874.644	51.88
874.817	127.66
874.99	92.84
875.163	37.55
875.335	105.13
875.508	78.51
875.681	15.02
875.853	-23.89
876.026	37.55
876.199	-40.28
876.371	66.22
876.544	84.65
876.717	-25.94
876.889	37.55
877.062	53.93
877.234	-42.32
877.407	-48.47
877.579	-1.37
877.752	107.18
877.924	2.73
878.097	4.78
878.269	-25.94
878.442	17.07
878.614	66.22
878.786	33.45
878.959	80.55
879.131	37.55
879.303	21.16
879.476	70.31
879.648	10.92
879.82	105.13
879.993	-27.99
880.165	0.68
880.337	6.83
880.509	49.83
880.681	37.55
880.854	6.83
881.026	35.5
881.198	98.99
881.37	-27.99
881.542	88.75
881.714	-17.75
881.886	-71
882.058	4.78
882.23	31.4
882.402	31.4
882.574	27.31
882.746	49.83
882.918	10.92
883.09	66.22
883.262	66.22
883.434	23.21
883.606	-44.37
883.778	49.83
883.95	82.6
884.122	47.79
884.293	41.64
884.465	35.5
884.637	17.07
884.809	-21.85
884.98	80.55
885.152	53.93
885.324	33.45
885.496	15.02
885.667	29.35
885.839	49.83
886.011	103.08
886.182	8.87
886.354	80.55
886.525	6.83
886.697	-25.94
886.869	-34.13
887.04	27.31
887.212	94.89
887.383	86.7
887.555	88.75
887.726	23.21
887.897	-60.76
888.069	15.02
888.24	68.27
888.412	10.92
888.583	-32.08
888.754	58.03
888.926	19.11
889.097	23.21
889.268	33.45
889.44	-34.13
889.611	41.64
889.782	51.88
889.953	12.97
890.125	64.17
890.296	-17.75
890.467	-34.13
890.638	-19.8
890.809	-9.56
890.98	29.35
891.151	39.59
891.323	33.45
891.494	94.89
891.665	-3.41
891.836	-42.32
892.007	72.36
892.178	62.12
892.349	86.7
892.52	15.02
892.691	35.5
892.862	12.97
893.032	-46.42
893.203	0.68
893.374	49.83
893.545	2.73
893.716	10.92
893.887	62.12
894.057	-34.13
894.228	-30.04
894.399	23.21
894.57	137.9
894.74	51.88
894.911	23.21
895.082	35.5
895.253	45.74
895.423	-17.75
895.594	51.88
895.764	58.03
895.935	49.83
896.106	25.26
896.276	62.12
896.447	0.68
896.617	82.6
896.788	68.27
896.958	-44.37
897.129	-30.04
897.299	6.83
897.47	23.21
897.64	17.07
897.81	51.88
897.981	-7.51
898.151	-7.51
898.322	23.21
898.492	-21.85
898.662	4.78
898.832	-9.56
899.003	39.59
899.173	47.79
899.343	23.21
899.513	-5.46
