Data from USB4F104151__72__12-24-18-161.txt Node

Date: Fri Mar 14 12:24:18 EDT 2025
User: louis
Spectrometer: USB4F10415
Trigger mode: 4
Integration Time (sec): 3.500000E-2
Scans to average: 1
Electric dark correction enabled: true
Nonlinearity correction enabled: false
Boxcar width: 0
XAxis mode: Wavelengths
Number of Pixels in Spectrum: 3648
>>>>>Begin Spectral Data<<<<<
178.204	-149.67
178.424	-149.67
178.644	-149.67
178.864	-149.67
179.084	-153.77
179.304	61.27
179.524	42.84
179.744	-28.84
179.964	-4.27
180.184	83.8
180.404	-16.55
180.624	10.07
180.844	-45.23
181.064	-6.31
181.283	-22.7
181.503	-45.23
181.723	-28.84
181.943	-24.75
182.163	79.7
182.383	24.4
182.602	79.7
182.822	87.89
183.042	18.26
183.262	85.84
183.482	24.4
183.701	-41.13
183.921	-4.27
184.141	-43.18
184.361	51.03
184.58	1.88
184.8	-39.08
185.02	-0.17
185.239	-4.27
185.459	-34.99
185.679	126.8
185.898	28.5
186.118	26.45
186.338	-18.6
186.557	102.23
186.777	16.21
186.997	-8.36
187.216	34.64
187.436	106.32
187.655	79.7
187.875	53.08
188.095	30.55
188.314	63.32
188.534	40.79
188.753	-84.14
188.973	26.45
189.192	57.17
189.412	24.4
189.631	34.64
189.851	46.93
190.07	114.52
190.29	-43.18
190.509	-55.47
190.729	-14.51
190.948	22.36
191.168	122.71
191.387	79.7
191.607	59.22
191.826	69.46
192.045	53.08
192.265	48.98
192.484	79.7
192.704	8.02
192.923	14.17
193.142	63.32
193.362	-6.31
193.581	46.93
193.8	77.65
194.02	-10.41
194.239	16.21
194.458	61.27
194.678	96.08
194.897	16.21
195.116	104.28
195.335	57.17
195.555	73.56
195.774	8.02
195.993	69.46
196.212	24.4
196.432	46.93
196.651	1.88
196.87	-59.56
197.089	132.95
197.308	83.8
197.528	59.22
197.747	8.02
197.966	51.03
198.185	20.31
198.404	53.08
198.623	106.32
198.842	10.07
199.062	59.22
199.281	-20.65
199.5	83.8
199.719	53.08
199.938	18.26
200.157	59.22
200.376	-47.27
200.595	42.84
200.814	71.51
201.033	38.74
201.252	53.08
201.471	59.22
201.69	8.02
201.909	14.17
202.128	-20.65
202.347	5.97
202.566	18.26
202.785	10.07
203.004	-20.65
203.223	122.71
203.442	18.26
203.661	-8.36
203.879	40.79
204.098	77.65
204.317	18.26
204.536	75.6
204.755	57.17
204.974	77.65
205.193	53.08
205.411	3.93
205.63	53.08
205.849	-26.79
206.068	5.97
206.287	-4.27
206.505	-18.6
206.724	87.89
206.943	28.5
207.162	63.32
207.381	32.6
207.599	40.79
207.818	18.26
208.037	-34.99
208.255	57.17
208.474	38.74
208.693	10.07
208.911	-37.03
209.13	16.21
209.349	51.03
209.567	-6.31
209.786	30.55
210.005	12.12
210.223	61.27
210.442	-30.89
210.661	12.12
210.879	28.5
211.098	116.56
211.316	-32.94
211.535	40.79
211.753	51.03
211.972	18.26
212.191	36.69
212.409	44.88
212.628	36.69
212.846	12.12
213.065	89.94
213.283	-2.22
213.502	12.12
213.72	10.07
213.938	75.6
214.157	-0.17
214.375	59.22
214.594	-24.75
214.812	34.64
215.031	44.88
215.249	-41.13
215.467	1.88
215.686	1.88
215.904	53.08
216.122	20.31
216.341	85.84
216.559	106.32
216.778	59.22
216.996	22.36
217.214	57.17
217.432	-18.6
217.651	24.4
217.869	34.64
218.087	-75.95
218.306	69.46
218.524	34.64
218.742	57.17
218.96	-18.6
219.179	3.93
219.397	34.64
219.615	188.24
219.833	42.84
220.051	38.74
220.27	-0.17
220.488	26.45
220.706	59.22
220.924	10.07
221.142	63.32
221.36	42.84
221.578	32.6
221.796	-43.18
222.015	85.84
222.233	40.79
222.451	-39.08
222.669	-4.27
222.887	-32.94
223.105	-8.36
223.323	-53.42
223.541	-30.89
223.759	75.6
223.977	-4.27
224.195	32.6
224.413	20.31
224.631	16.21
224.849	18.26
225.067	108.37
225.285	-59.56
225.503	69.46
225.721	-71.85
225.939	-2.22
226.157	18.26
226.375	87.89
226.592	-4.27
226.81	20.31
227.028	-12.46
227.246	85.84
227.464	5.97
227.682	34.64
227.9	-6.31
228.117	44.88
228.335	42.84
228.553	36.69
228.771	-16.55
228.989	96.08
229.206	38.74
229.424	24.4
229.642	10.07
229.86	12.12
230.077	106.32
230.295	28.5
230.513	81.75
230.731	10.07
230.948	48.98
231.166	48.98
231.384	100.18
231.601	-43.18
231.819	42.84
232.037	61.27
232.254	16.21
232.472	10.07
232.689	32.6
232.907	94.04
233.125	-2.22
233.342	8.02
233.56	-39.08
233.777	32.6
233.995	69.46
234.213	44.88
234.43	20.31
234.648	-32.94
234.865	30.55
235.083	32.6
235.3	20.31
235.518	12.12
235.735	40.79
235.953	71.51
236.17	26.45
236.388	22.36
236.605	-4.27
236.822	-0.17
237.04	-28.84
237.257	18.26
237.475	-14.51
237.692	22.36
237.909	55.12
238.127	-41.13
238.344	104.28
238.562	67.41
238.779	-90.28
238.996	-14.51
239.214	65.36
239.431	-0.17
239.648	73.56
239.865	77.65
240.083	-77.99
240.3	-14.51
240.517	22.36
240.735	16.21
240.952	91.99
241.169	91.99
241.386	-4.27
241.603	3.93
241.821	-4.27
242.038	65.36
242.255	100.18
242.472	12.12
242.689	85.84
242.907	46.93
243.124	38.74
243.341	1.88
243.558	-24.75
243.775	12.12
243.992	-49.32
244.209	139.09
244.426	137.04
244.643	34.64
244.86	14.17
245.078	-0.17
245.295	38.74
245.512	-14.51
245.729	-2.22
245.946	-0.17
246.163	26.45
246.38	-59.56
246.597	8.02
246.814	-8.36
247.031	-8.36
247.248	61.27
247.464	48.98
247.681	71.51
247.898	-14.51
248.115	98.13
248.332	16.21
248.549	14.17
248.766	79.7
248.983	-26.79
249.2	42.84
249.417	100.18
249.633	-2.22
249.85	-4.27
250.067	51.03
250.284	79.7
250.501	-6.31
250.717	-65.71
250.934	-16.55
251.151	10.07
251.368	-0.17
251.585	32.6
251.801	18.26
252.018	28.5
252.235	36.69
252.451	-6.31
252.668	26.45
252.885	40.79
253.102	100.18
253.318	3.93
253.535	-6.31
253.752	-12.46
253.968	48.98
254.185	-82.09
254.401	12.12
254.618	59.22
254.835	20.31
255.051	-18.6
255.268	12.12
255.484	-26.79
255.701	30.55
255.917	55.12
256.134	75.6
256.351	16.21
256.567	1.88
256.784	12.12
257	38.74
257.217	24.4
257.433	-14.51
257.65	16.21
257.866	73.56
258.082	16.21
258.299	98.13
258.515	46.93
258.732	-6.31
258.948	24.4
259.165	30.55
259.381	-6.31
259.597	108.37
259.814	-2.22
260.03	40.79
260.246	18.26
260.463	79.7
260.679	87.89
260.895	61.27
261.112	10.07
261.328	-73.9
261.544	8.02
261.761	3.93
261.977	-6.31
262.193	-67.75
262.409	-2.22
262.626	-4.27
262.842	-20.65
263.058	42.84
263.274	24.4
263.49	-8.36
263.707	63.32
263.923	55.12
264.139	73.56
264.355	20.31
264.571	61.27
264.787	22.36
265.004	89.94
265.22	10.07
265.436	8.02
265.652	-10.41
265.868	55.12
266.084	8.02
266.3	28.5
266.516	1.88
266.732	38.74
266.948	20.31
267.164	22.36
267.38	5.97
267.596	79.7
267.812	42.84
268.028	128.85
268.244	36.69
268.46	24.4
268.676	-28.84
268.892	24.4
269.108	18.26
269.324	-65.71
269.54	20.31
269.756	57.17
269.972	38.74
270.188	-32.94
270.403	-32.94
270.619	14.17
270.835	1.88
271.051	-59.56
271.267	53.08
271.483	32.6
271.698	106.32
271.914	-22.7
272.13	73.56
272.346	3.93
272.562	48.98
272.777	77.65
272.993	-16.55
273.209	-2.22
273.425	55.12
273.64	44.88
273.856	32.6
274.072	42.84
274.287	-49.32
274.503	69.46
274.719	65.36
274.934	55.12
275.15	-22.7
275.366	77.65
275.581	28.5
275.797	79.7
276.012	63.32
276.228	85.84
276.444	-32.94
276.659	10.07
276.875	-2.22
277.09	98.13
277.306	-30.89
277.521	42.84
277.737	26.45
277.952	126.8
278.168	24.4
278.383	51.03
278.599	34.64
278.814	75.6
279.03	24.4
279.245	67.41
279.461	-4.27
279.676	40.79
279.892	-22.7
280.107	14.17
280.322	-67.75
280.538	73.56
280.753	24.4
280.969	122.71
281.184	26.45
281.399	24.4
281.615	5.97
281.83	32.6
282.045	38.74
282.26	-30.89
282.476	-45.23
282.691	114.52
282.906	65.36
283.122	57.17
283.337	-28.84
283.552	24.4
283.767	-18.6
283.983	63.32
284.198	-6.31
284.413	24.4
284.628	10.07
284.843	-14.51
285.058	69.46
285.274	46.93
285.489	79.7
285.704	26.45
285.919	-18.6
286.134	79.7
286.349	55.12
286.564	-34.99
286.779	112.47
286.995	26.45
287.21	-47.27
287.425	128.85
287.64	22.36
287.855	30.55
288.07	12.12
288.285	91.99
288.5	61.27
288.715	161.62
288.93	-20.65
289.145	24.4
289.36	87.89
289.575	10.07
289.79	81.75
290.004	12.12
290.219	32.6
290.434	55.12
290.649	-12.46
290.864	75.6
291.079	-2.22
291.294	-8.36
291.509	28.5
291.724	28.5
291.938	10.07
292.153	36.69
292.368	-4.27
292.583	32.6
292.798	42.84
293.012	-43.18
293.227	126.8
293.442	16.21
293.657	87.89
293.871	63.32
294.086	24.4
294.301	89.94
294.516	122.71
294.73	24.4
294.945	-39.08
295.16	36.69
295.374	34.64
295.589	34.64
295.804	36.69
296.018	77.65
296.233	-26.79
296.447	1.88
296.662	30.55
296.877	165.71
297.091	16.21
297.306	67.41
297.52	-22.7
297.735	-39.08
297.949	34.64
298.164	36.69
298.378	67.41
298.593	44.88
298.807	-88.23
299.022	5.97
299.236	3.93
299.451	30.55
299.665	22.36
299.88	-4.27
300.094	81.75
300.309	24.4
300.523	85.84
300.737	-26.79
300.952	57.17
301.166	-2.22
301.381	-4.27
301.595	22.36
301.809	20.31
302.024	44.88
302.238	-45.23
302.452	38.74
302.667	77.65
302.881	-10.41
303.095	8.02
303.309	18.26
303.524	-37.03
303.738	-2.22
303.952	-30.89
304.166	79.7
304.381	-18.6
304.595	63.32
304.809	61.27
305.023	53.08
305.237	36.69
305.452	34.64
305.666	79.7
305.88	71.51
306.094	38.74
306.308	24.4
306.522	14.17
306.736	102.23
306.95	71.51
307.164	22.36
307.379	69.46
307.593	69.46
307.807	28.5
308.021	94.04
308.235	-14.51
308.449	30.55
308.663	-24.75
308.877	147.28
309.091	48.98
309.305	1.88
309.519	-26.79
309.733	10.07
309.947	30.55
310.161	110.42
310.374	153.43
310.588	16.21
310.802	46.93
311.016	42.84
311.23	63.32
311.444	16.21
311.658	22.36
311.872	87.89
312.085	16.21
312.299	120.66
312.513	83.8
312.727	40.79
312.941	30.55
313.154	-49.32
313.368	98.13
313.582	38.74
313.796	-6.31
314.009	38.74
314.223	98.13
314.437	53.08
314.651	12.12
314.864	30.55
315.078	-16.55
315.292	3.93
315.505	8.02
315.719	22.36
315.933	100.18
316.146	53.08
316.36	-10.41
316.573	59.22
316.787	14.17
317.001	67.41
317.214	-108.71
317.428	16.21
317.641	12.12
317.855	18.26
318.068	24.4
318.282	34.64
318.495	55.12
318.709	73.56
318.922	-2.22
319.136	71.51
319.349	32.6
319.563	40.79
319.776	81.75
319.99	-20.65
320.203	-12.46
320.417	-4.27
320.63	57.17
320.843	46.93
321.057	55.12
321.27	5.97
321.483	24.4
321.697	122.71
321.91	77.65
322.124	110.42
322.337	46.93
322.55	-2.22
322.763	16.21
322.977	32.6
323.19	-43.18
323.403	26.45
323.617	100.18
323.83	5.97
324.043	51.03
324.256	28.5
324.469	46.93
324.683	48.98
324.896	-10.41
325.109	110.42
325.322	16.21
325.535	83.8
325.748	51.03
325.962	22.36
326.175	102.23
326.388	87.89
326.601	-4.27
326.814	38.74
327.027	96.08
327.24	59.22
327.453	-28.84
327.666	51.03
327.879	26.45
328.092	10.07
328.305	40.79
328.518	-30.89
328.731	-80.04
328.944	128.85
329.157	28.5
329.37	67.41
329.583	77.65
329.796	63.32
330.009	-37.03
330.222	57.17
330.435	44.88
330.648	77.65
330.861	-16.55
331.073	55.12
331.286	83.8
331.499	81.75
331.712	18.26
331.925	-65.71
332.138	73.56
332.35	48.98
332.563	3.93
332.776	8.02
332.989	96.08
333.202	-24.75
333.414	51.03
333.627	-8.36
333.84	91.99
334.053	5.97
334.265	22.36
334.478	36.69
334.691	100.18
334.903	53.08
335.116	71.51
335.329	57.17
335.541	44.88
335.754	40.79
335.966	79.7
336.179	-30.89
336.392	46.93
336.604	26.45
336.817	3.93
337.029	26.45
337.242	51.03
337.454	16.21
337.667	-39.08
337.88	65.36
338.092	-26.79
338.305	22.36
338.517	55.12
338.729	16.21
338.942	100.18
339.154	-8.36
339.367	-57.51
339.579	44.88
339.792	20.31
340.004	-32.94
340.217	-0.17
340.429	81.75
340.641	-12.46
340.854	-8.36
341.066	-14.51
341.278	16.21
341.491	44.88
341.703	26.45
341.915	22.36
342.128	24.4
342.34	85.84
342.552	8.02
342.764	46.93
342.977	42.84
343.189	155.47
343.401	91.99
343.613	34.64
343.826	10.07
344.038	-6.31
344.25	85.84
344.462	59.22
344.674	14.17
344.886	40.79
345.099	85.84
345.311	40.79
345.523	-12.46
345.735	-14.51
345.947	73.56
346.159	75.6
346.371	-22.7
346.583	85.84
346.795	71.51
347.007	-32.94
347.219	94.04
347.431	-8.36
347.643	30.55
347.855	24.4
348.067	81.75
348.279	-65.71
348.491	81.75
348.703	-4.27
348.915	79.7
349.127	32.6
349.339	55.12
349.551	44.88
349.763	14.17
349.975	-2.22
350.187	94.04
350.399	44.88
350.61	46.93
350.822	85.84
351.034	55.12
351.246	46.93
351.458	14.17
351.669	77.65
351.881	28.5
352.093	57.17
352.305	46.93
352.517	-2.22
352.728	8.02
352.94	51.03
353.152	18.26
353.363	28.5
353.575	-4.27
353.787	91.99
353.999	16.21
354.21	40.79
354.422	18.26
354.633	83.8
354.845	-24.75
355.057	-4.27
355.268	51.03
355.48	44.88
355.692	-26.79
355.903	-16.55
356.115	42.84
356.326	5.97
356.538	67.41
356.749	55.12
356.961	67.41
357.172	87.89
357.384	-57.51
357.595	59.22
357.807	30.55
358.018	59.22
358.23	-22.7
358.441	89.94
358.653	51.03
358.864	-2.22
359.075	-16.55
359.287	51.03
359.498	20.31
359.709	79.7
359.921	32.6
360.132	18.26
360.344	-4.27
360.555	-12.46
360.766	30.55
360.977	110.42
361.189	-24.75
361.4	102.23
361.611	38.74
361.823	96.08
362.034	59.22
362.245	-4.27
362.456	36.69
362.667	67.41
362.879	14.17
363.09	96.08
363.301	98.13
363.512	-10.41
363.723	57.17
363.935	59.22
364.146	-18.6
364.357	8.02
364.568	32.6
364.779	53.08
364.99	12.12
365.201	48.98
365.412	77.65
365.623	-32.94
365.834	83.8
366.045	3.93
366.256	57.17
366.467	69.46
366.678	16.21
366.889	34.64
367.1	-28.84
367.311	108.37
367.522	40.79
367.733	30.55
367.944	96.08
368.155	44.88
368.366	83.8
368.577	71.51
368.788	10.07
368.999	28.5
369.209	-16.55
369.42	79.7
369.631	128.85
369.842	77.65
370.053	71.51
370.264	104.28
370.474	36.69
370.685	102.23
370.896	10.07
371.107	100.18
371.317	55.12
371.528	-14.51
371.739	69.46
371.95	63.32
372.16	40.79
372.371	-63.66
372.582	22.36
372.792	44.88
373.003	-16.55
373.214	55.12
373.424	44.88
373.635	48.98
373.846	81.75
374.056	106.32
374.267	10.07
374.477	34.64
374.688	28.5
374.898	16.21
375.109	28.5
375.319	-43.18
375.53	85.84
375.74	59.22
375.951	61.27
376.161	3.93
376.372	104.28
376.582	67.41
376.793	20.31
377.003	24.4
377.214	79.7
377.424	30.55
377.635	40.79
377.845	-24.75
378.055	71.51
378.266	44.88
378.476	3.93
378.686	85.84
378.897	124.76
379.107	61.27
379.317	153.43
379.528	67.41
379.738	12.12
379.948	-37.03
380.158	155.47
380.369	38.74
380.579	30.55
380.789	28.5
380.999	81.75
381.21	-4.27
381.42	91.99
381.63	-20.65
381.84	83.8
382.05	91.99
382.261	26.45
382.471	120.66
382.681	24.4
382.891	38.74
383.101	67.41
383.311	48.98
383.521	12.12
383.731	94.04
383.941	24.4
384.151	67.41
384.361	42.84
384.571	38.74
384.781	20.31
384.991	61.27
385.201	59.22
385.411	77.65
385.621	22.36
385.831	40.79
386.041	65.36
386.251	-18.6
386.461	69.46
386.671	-6.31
386.881	83.8
387.091	36.69
387.301	71.51
387.511	1.88
387.72	24.4
387.93	16.21
388.14	-14.51
388.35	69.46
388.56	126.8
388.769	-4.27
388.979	59.22
389.189	38.74
389.399	61.27
389.609	5.97
389.818	91.99
390.028	55.12
390.238	108.37
390.447	63.32
390.657	16.21
390.867	12.12
391.076	-0.17
391.286	71.51
391.496	87.89
391.705	42.84
391.915	87.89
392.125	22.36
392.334	53.08
392.544	73.56
392.753	3.93
392.963	-49.32
393.172	51.03
393.382	-6.31
393.591	110.42
393.801	44.88
394.01	22.36
394.22	94.04
394.429	-10.41
394.639	55.12
394.848	16.21
395.058	5.97
395.267	36.69
395.477	122.71
395.686	89.94
395.895	157.52
396.105	155.47
396.314	42.84
396.524	-18.6
396.733	57.17
396.942	96.08
397.152	77.65
397.361	24.4
397.57	8.02
397.78	96.08
397.989	124.76
398.198	108.37
398.407	94.04
398.617	38.74
398.826	55.12
399.035	77.65
399.244	71.51
399.453	69.46
399.663	24.4
399.872	65.36
400.081	53.08
400.29	75.6
400.499	8.02
400.708	94.04
400.917	18.26
401.127	77.65
401.336	65.36
401.545	48.98
401.754	106.32
401.963	18.26
402.172	96.08
402.381	110.42
402.59	59.22
402.799	75.6
403.008	71.51
403.217	16.21
403.426	126.8
403.635	24.4
403.844	87.89
404.053	94.04
404.262	100.18
404.471	161.62
404.68	104.28
404.888	32.6
405.097	98.13
405.306	96.08
405.515	94.04
405.724	38.74
405.933	126.8
406.142	122.71
406.35	118.61
406.559	128.85
406.768	85.84
406.977	130.9
407.185	157.52
407.394	53.08
407.603	96.08
407.812	153.43
408.02	118.61
408.229	96.08
408.438	108.37
408.646	96.08
408.855	114.52
409.064	151.38
409.272	91.99
409.481	231.25
409.69	51.03
409.898	91.99
410.107	178
410.315	196.43
410.524	118.61
410.733	198.48
410.941	249.68
411.15	264.02
411.358	188.24
411.567	345.94
411.775	171.86
411.984	171.86
412.192	315.22
412.401	257.87
412.609	335.7
412.818	270.16
413.026	259.92
413.234	341.84
413.443	317.26
413.651	284.5
413.86	302.93
414.068	401.23
414.276	399.18
414.485	313.17
414.693	364.37
414.901	386.9
415.11	395.09
415.318	403.28
415.526	444.24
415.734	429.9
415.943	458.57
416.151	550.73
416.359	509.77
416.567	470.86
416.776	560.97
416.984	532.3
417.192	583.5
417.4	616.27
417.608	554.83
417.817	499.53
418.025	636.75
418.233	792.39
418.441	679.75
418.649	669.52
418.857	761.67
419.065	851.78
419.273	773.96
419.481	776.01
419.689	806.73
419.897	884.55
420.105	917.32
420.313	970.57
420.521	1007.43
420.729	927.56
420.937	894.79
421.145	1027.91
421.353	972.61
421.561	1191.75
421.769	1128.26
421.977	1191.75
422.185	1288
422.393	1236.8
422.601	1216.32
422.809	1378.11
423.017	1273.67
423.224	1408.83
423.432	1566.53
423.64	1398.59
423.848	1601.34
424.056	1472.32
424.263	1666.88
424.471	1695.55
424.679	1642.3
424.887	1756.99
425.094	1804.09
425.302	1902.39
425.51	1890.1
425.718	1924.92
425.925	2070.33
426.133	2025.27
426.341	2228.02
426.548	2096.95
426.756	2139.96
426.964	2197.3
427.171	2373.43
427.379	2512.69
427.586	2563.89
427.794	2635.57
428.001	2664.24
428.209	2856.75
428.417	2832.17
428.624	3041.06
428.832	2979.62
429.039	3053.35
429.247	3002.15
429.454	3272.48
429.662	3473.18
429.869	3217.19
430.076	3567.39
430.284	3544.86
430.491	3677.98
430.699	3741.47
430.906	3669.79
431.114	3858.2
431.321	3929.88
431.528	4003.61
431.736	4140.82
431.943	4542.22
432.15	4310.8
432.358	4425.49
432.565	4650.77
432.772	4570.9
432.979	4835.08
433.187	4853.52
433.394	4984.59
433.601	5273.35
433.808	5281.54
434.016	5336.84
434.223	5529.34
434.43	5801.72
434.637	5658.37
434.844	6143.74
435.052	6242.04
435.259	6307.57
435.466	6188.79
435.673	6141.69
435.88	6430.45
436.087	6930.16
436.294	6868.72
436.501	6809.33
436.708	6940.4
436.915	7200.49
437.122	7489.25
437.329	7438.05
437.537	7579.36
437.743	7849.69
437.95	7882.46
438.157	8206.04
438.364	8453.84
438.571	8318.68
438.778	8363.73
438.985	9176.78
439.192	9072.33
439.399	9006.8
439.606	8926.93
439.813	9549.51
440.02	9977.53
440.227	9918.14
440.433	9756.35
440.64	10079.93
440.847	10135.23
441.054	10301.11
441.261	10938.03
441.467	10766
441.674	11017.9
441.881	11581.09
442.088	11429.54
442.294	11429.54
442.501	11654.82
442.708	11849.38
442.914	12324.51
443.121	12953.23
443.328	12512.92
443.534	13371.02
443.741	13125.26
443.948	12922.51
444.154	13807.23
444.361	13637.25
444.568	13848.19
444.774	13788.8
444.981	14216.83
445.187	14165.63
445.394	15261.29
445.6	14898.8
445.807	16316
446.013	15492.71
446.22	16049.76
446.426	16533.08
446.633	16537.18
446.839	16973.39
447.046	16528.99
447.252	17491.53
447.459	17299.02
447.665	17495.63
447.871	18245.18
448.078	19004.98
448.284	18048.58
448.491	18460.22
448.697	19340.85
448.903	19519.02
449.11	19645.99
449.316	19072.56
449.522	19508.78
449.728	20448.8
449.935	20430.37
450.141	20473.37
450.347	21059.09
450.553	20090.4
450.76	20364.83
450.966	20995.6
451.172	20852.25
451.378	21405.2
451.584	21310.99
451.791	21702.15
451.997	21601.8
452.203	21919.24
452.409	21872.14
452.615	21958.15
452.821	20866.58
453.027	21055
453.233	21653
453.44	21200.4
453.646	21087.76
453.852	21136.91
454.058	21829.13
454.264	20981.27
454.47	21519.88
454.676	21059.09
454.882	21759.5
455.088	19740.2
455.294	20141.6
455.5	20139.55
455.705	20475.42
455.911	19813.93
456.117	19416.62
456.323	19131.95
456.529	18046.53
456.735	18976.31
456.941	18132.54
457.147	18130.5
457.352	17421.9
457.558	17348.17
457.764	17460.81
457.97	17045.07
458.176	16717.4
458.381	16596.57
458.587	15881.83
458.793	15597.16
458.999	14937.71
459.204	16248.41
459.41	15502.95
459.616	14481.02
459.821	14618.23
460.027	14190.2
460.233	14333.56
460.438	13471.37
460.644	13538.95
460.85	13080.21
461.055	12840.59
461.261	12719.76
461.466	12093.08
461.672	11454.12
461.878	12488.34
462.083	11370.15
462.289	11382.44
462.494	11239.08
462.7	10727.09
462.905	10426.04
463.111	10737.33
463.316	10907.31
463.522	10512.05
463.727	10477.24
463.932	10585.78
464.138	10383.03
464.343	10397.37
464.549	10243.77
464.754	10354.36
464.959	10489.53
465.165	10430.13
465.37	10022.59
465.575	9817.79
465.781	9959.1
465.986	10071.74
466.191	9768.64
466.397	9621.19
466.602	9221.83
466.807	9543.36
467.012	9572.04
467.218	9328.33
467.423	9279.18
467.628	9180.87
467.833	9660.1
468.038	9610.95
468.244	8879.82
468.449	9318.09
468.654	9035.47
468.859	9141.96
469.064	9023.18
469.269	8718.03
469.474	8865.49
469.679	8943.31
469.885	8683.22
470.09	8664.79
470.295	8879.82
470.5	8503
470.705	8558.29
470.91	8478.42
471.115	8169.18
471.32	8269.53
471.525	8314.58
471.73	8300.25
471.935	8113.88
472.139	7980.76
472.344	8097.5
472.549	7980.76
472.754	7894.75
472.959	7683.81
473.164	7476.96
473.369	7419.62
473.574	7726.82
473.778	7710.43
473.983	7335.65
474.188	7319.27
474.393	7223.02
474.598	7206.63
474.802	7192.3
475.007	6934.25
475.212	7177.96
475.417	6731.5
475.621	6846.19
475.826	6991.59
476.031	6612.72
476.235	6518.51
476.44	6829.81
476.645	6532.85
476.849	6553.33
477.054	6430.45
477.259	6219.51
477.463	6323.96
477.668	6330.1
477.872	6338.29
478.077	6035.19
478.282	6113.02
478.486	5879.55
478.691	5979.9
478.895	5875.45
479.1	5895.93
479.304	5969.66
479.509	5644.03
479.713	5787.39
479.918	5811.96
480.122	5635.84
480.326	5707.52
480.531	5826.3
480.735	5605.12
480.94	5625.6
481.144	5684.99
481.348	5545.73
481.553	5627.65
481.757	5517.06
481.961	5469.95
482.166	5531.39
482.37	5676.8
482.574	5422.85
482.778	5396.23
482.983	5625.6
483.187	5631.74
483.391	5627.65
483.595	5478.15
483.8	5535.49
484.004	5598.98
484.208	5525.25
484.412	5418.75
484.616	5426.95
484.821	5525.25
485.025	5512.96
485.229	5492.48
485.433	5525.25
485.637	5455.62
485.841	5390.08
486.045	5500.67
486.249	5496.58
486.453	5455.62
486.657	5467.91
486.861	5451.52
487.065	5326.6
487.269	5525.25
487.473	5435.14
487.677	5543.68
487.881	5682.94
488.085	5455.62
488.289	5594.88
488.493	5488.39
488.697	5490.43
488.901	5672.7
489.105	5435.14
489.309	5461.76
489.512	5547.78
489.716	5418.75
489.92	5512.96
490.124	5523.2
490.328	5531.39
490.531	5596.93
490.735	5682.94
490.939	5715.71
491.143	5598.98
491.346	5721.85
491.55	5738.24
491.754	5738.24
491.958	5883.64
492.161	5752.57
492.365	5748.48
492.569	5695.23
492.772	5986.04
492.976	5973.75
493.18	5938.94
493.383	6018.81
493.587	5943.03
493.79	6143.74
493.994	6024.95
494.197	6092.54
494.401	6115.06
494.605	6147.83
494.808	6227.7
495.012	6276.85
495.215	6369.01
495.419	6289.14
495.622	6207.22
495.825	6397.68
496.029	6393.59
496.232	6651.63
496.436	6434.55
496.639	6850.28
496.843	6668.02
497.046	6711.02
497.249	6878.96
497.453	6917.87
497.656	6962.92
497.859	7206.63
498.063	7155.43
498.266	7206.63
498.469	6999.79
498.673	7237.35
498.876	7349.99
499.079	7227.11
499.282	7372.52
499.485	7919.32
499.689	7730.91
499.892	7818.97
500.095	7845.6
500.298	7921.37
500.501	7849.69
500.705	8142.55
500.908	8316.63
501.111	8433.36
501.314	8425.17
501.517	8521.43
501.72	8576.72
501.923	8646.35
502.126	8806.09
502.329	8824.53
502.532	8912.59
502.735	9076.43
502.938	9295.56
503.141	9289.42
503.344	9471.68
503.547	9563.84
503.75	9608.9
503.953	9731.78
504.156	10077.88
504.359	9946.81
504.562	10081.98
504.765	10100.41
504.968	10163.9
505.17	10423.99
505.373	10200.76
505.576	10688.18
505.779	10555.06
505.982	10993.33
506.185	10985.13
506.387	11022
506.59	11259.56
506.793	11478.69
506.996	11159.21
507.198	11718.31
507.401	11724.45
507.604	11644.58
507.807	12101.28
508.009	12394.14
508.212	12459.67
508.415	12351.13
508.617	12775.06
508.82	12584.6
509.022	12652.18
509.225	13004.43
509.428	13008.53
509.63	13121.17
509.833	13127.31
510.035	13553.29
510.238	13725.32
510.44	13633.16
510.643	13733.51
510.845	13975.17
511.048	14308.99
511.25	14345.85
511.453	14444.15
511.655	15017.58
511.858	15005.3
512.06	15124.08
512.262	15181.42
512.465	15183.47
512.667	15425.13
512.87	15570.54
513.072	15627.88
513.274	16023.14
513.477	16137.82
513.679	16459.35
513.881	16727.64
514.084	16600.66
514.286	16733.78
514.488	16821.84
514.69	17229.39
514.893	17421.9
515.095	17493.58
515.297	17950.28
515.499	17817.16
515.701	18019.91
515.904	18214.46
516.106	18419.26
516.308	18763.32
516.51	19150.39
516.712	19136.05
516.914	19351.09
517.116	19549.74
517.318	19482.16
517.52	19672.62
517.722	20194.85
517.925	20205.09
518.127	20741.66
518.329	20678.17
518.531	20469.28
518.733	20977.17
518.935	21202.45
519.136	21489.17
519.338	21446.16
519.54	21829.13
519.742	22089.22
519.944	22255.11
520.146	22414.85
520.348	22742.52
520.55	22603.26
520.752	22967.8
520.954	23467.5
521.155	23406.06
521.357	23703.02
521.559	23963.11
521.761	24448.48
521.963	24282.59
522.164	24384.99
522.366	24835.55
522.568	24692.19
522.77	25273.81
522.971	25640.4
523.173	25312.72
523.375	25925.07
523.576	25595.34
523.778	25859.53
523.98	26275.27
524.181	26332.61
524.383	26189.25
524.584	26742.21
524.786	26772.92
524.988	26969.53
525.189	27172.28
525.391	27065.78
525.592	27319.73
525.794	27522.48
525.995	27940.27
526.197	27755.95
526.398	28069.29
526.6	28265.89
526.801	28304.81
527.003	28550.56
527.204	28695.97
527.406	28954.01
527.607	28644.77
527.808	28896.67
528.01	28628.38
528.211	29066.65
528.412	29722
528.614	29635.99
528.815	29820.3
529.016	29842.83
529.218	29693.33
529.419	29826.45
529.62	29951.37
529.822	30016.91
530.023	29824.4
530.224	30227.85
530.425	30094.73
530.626	30166.41
530.828	30047.63
531.029	30834.05
531.23	30248.33
531.431	30363.01
531.632	30514.56
531.833	30600.58
532.035	30801.28
532.236	30614.91
532.437	30883.2
532.638	30596.48
532.839	30922.11
533.04	30946.69
533.241	30768.51
533.442	31274.36
533.643	31180.15
533.844	31120.76
534.045	31313.27
534.246	30940.54
534.447	31610.23
534.648	30981.5
534.849	31333.75
535.05	30922.11
535.251	31432.05
535.451	31659.38
535.652	31475.06
535.853	30907.77
536.054	31702.39
536.255	31446.39
536.456	30961.02
536.657	31726.96
536.857	31300.98
537.058	31358.33
537.259	31399.29
537.46	31585.65
537.66	31198.59
537.861	31458.68
538.062	31516.02
538.263	31417.72
538.463	31268.22
538.664	31726.96
538.865	31626.61
539.065	31909.23
539.266	31300.98
539.466	31442.29
539.667	31083.9
539.868	31698.29
540.068	31679.86
540.269	31587.7
540.469	31698.29
540.67	31673.71
540.87	31417.72
541.071	31237.5
541.271	31802.74
541.472	31724.91
541.672	31419.77
541.873	31214.97
542.073	31239.54
542.274	31604.08
542.474	31669.62
542.675	30979.45
542.875	31485.3
543.075	31485.3
543.276	31094.14
543.476	31788.4
543.676	31372.66
543.877	31303.03
544.077	31456.63
544.277	31362.42
544.478	30999.93
544.678	31186.3
544.878	31409.53
545.078	31190.39
545.279	31303.03
545.479	31364.47
545.679	31663.47
545.879	31241.59
546.079	31196.54
546.28	31065.47
546.48	30940.54
546.68	31440.25
546.88	31272.31
547.08	31348.09
547.28	31726.96
547.48	30938.49
547.68	31544.69
547.88	31292.79
548.081	31389.05
548.281	31251.83
548.481	31327.61
548.681	31485.3
548.881	31253.88
549.081	31884.65
549.28	31126.91
549.48	31546.74
549.68	31184.25
549.88	31714.67
550.08	30963.07
550.28	31552.88
550.48	30883.2
550.68	31262.07
550.88	30827.9
551.08	30950.78
551.279	31348.09
551.479	30922.11
551.679	31198.59
551.879	30956.92
552.079	31225.21
552.278	30926.21
552.478	31307.13
552.678	31360.37
552.878	31450.49
553.077	31346.04
553.277	30651.78
553.477	31532.4
553.676	30840.19
553.876	30997.88
554.076	30596.48
554.275	30997.88
554.475	30956.92
554.674	31106.43
554.874	30678.4
555.074	30735.74
555.273	30778.75
555.473	30944.64
555.672	30745.98
555.872	30799.23
556.071	30508.42
556.271	30444.93
556.47	30752.13
556.67	30209.42
556.869	30403.97
557.068	30485.89
557.268	30307.72
557.467	30330.25
557.667	30160.27
557.866	30004.62
558.065	30277
558.265	29898.13
558.464	30238.09
558.663	30342.53
558.863	29797.77
559.062	29934.99
559.261	29869.45
559.461	30076.3
559.66	29605.27
559.859	29734.29
560.058	29779.34
560.258	29777.29
560.457	29406.61
560.656	29775.25
560.855	29336.98
561.054	29361.56
561.253	29005.21
561.453	29470.1
561.652	29607.31
561.851	29425.04
562.05	28718.5
562.249	28810.65
562.448	29623.7
562.647	29195.67
562.846	28753.31
563.045	29078.94
563.244	28593.57
563.443	28890.52
563.642	28249.51
563.841	28636.58
564.04	28296.61
564.239	28712.35
564.438	28075.43
564.637	28280.23
564.836	28587.43
565.035	27846.06
565.234	27917.74
565.432	27948.46
565.631	27620.78
565.83	27944.36
566.029	27620.78
566.228	27696.56
566.427	27712.94
566.625	27465.14
566.824	27102.65
567.023	27497.91
567.222	27030.97
567.42	27039.16
567.619	26957.24
567.818	27049.4
568.016	26715.58
568.215	27061.69
568.414	26777.02
568.612	26805.69
568.811	26473.92
569.01	26250.69
569.208	26201.54
569.407	26533.31
569.605	26095.05
569.804	26482.11
570.002	25900.49
570.201	26420.67
570.4	26074.57
570.598	26101.19
570.797	25617.87
570.995	25636.3
571.193	25415.12
571.392	25990.6
571.59	25206.23
571.789	25042.39
571.987	25173.46
572.186	25069.01
572.384	25243.09
572.582	24997.34
572.781	25159.13
572.979	24565.21
573.177	24843.74
573.376	24700.38
573.574	24622.56
573.772	24518.11
573.971	24468.96
574.169	24131.05
574.367	24415.71
574.565	24507.87
574.763	23815.66
574.962	23981.54
575.16	23832.04
575.358	23963.11
575.556	23672.3
575.754	23723.5
575.952	23338.48
576.151	23854.57
576.349	23571.95
576.547	23420.4
576.745	23453.17
576.943	23387.63
577.141	23215.6
577.339	23326.19
577.537	22914.55
577.735	22820.35
577.933	22867.45
578.131	22902.26
578.329	22875.64
578.527	22476.29
578.725	22124.04
578.923	22742.52
579.121	22322.69
579.319	22357.5
579.516	22613.5
579.714	22187.52
579.912	21939.72
580.11	22038.02
580.308	22021.64
580.506	21972.49
580.704	21751.31
580.901	21673.48
581.099	22001.16
581.297	21909
581.495	21397.01
581.692	21419.53
581.89	21093.91
582.088	21429.77
582.285	21589.52
582.483	21296.66
582.681	21548.56
582.878	21284.37
583.076	20708.89
583.274	21050.9
583.471	20968.98
583.669	20801.05
583.866	20962.84
584.064	20721.18
584.262	20315.68
584.459	20893.21
584.657	20313.63
584.854	20510.24
585.052	20524.57
585.249	20383.26
585.447	20647.45
585.644	20078.11
585.841	19988
586.039	20102.69
586.236	20100.64
586.434	20178.47
586.631	19541.55
586.828	19738.15
587.026	19922.47
587.223	19715.62
587.42	19701.29
587.618	19840.55
587.815	19496.49
588.012	19437.1
588.21	19207.73
588.407	19543.6
588.604	19461.68
588.801	19054.13
588.999	18980.4
589.196	18908.72
589.393	18953.78
589.59	19105.33
589.787	19136.05
589.984	18800.18
590.182	18495.04
590.379	18890.29
590.576	18857.53
590.773	18642.49
590.97	18611.77
591.167	18497.08
591.364	18466.36
591.561	18470.46
591.758	18169.41
591.955	18366.01
592.152	18296.38
592.349	18181.7
592.546	18218.56
592.743	18124.35
592.94	17999.43
593.137	18185.79
593.334	18148.93
593.531	17784.39
593.727	17755.72
593.924	18062.91
594.121	17557.07
594.318	17864.26
594.515	17178.19
594.712	17751.62
594.908	17557.07
595.105	17434.19
595.302	17327.69
595.499	17380.94
595.696	17282.64
595.892	17309.26
596.089	17092.18
596.286	17198.67
596.482	16918.1
596.679	17182.29
596.876	16957.01
597.072	16696.92
597.269	16760.41
597.466	16819.8
597.662	16674.39
597.859	16678.49
598.055	16653.91
598.252	16565.85
598.448	16641.62
598.645	16655.96
598.841	16502.36
599.038	16477.79
599.234	16528.99
599.431	16236.13
599.627	16197.21
599.824	16133.73
600.02	16275.04
600.217	16250.46
600.413	16318.04
600.609	16029.28
600.806	16045.66
601.002	15722.09
601.198	15844.96
601.395	15785.57
601.591	15552.1
601.787	15838.82
601.984	15525.48
602.18	15777.38
602.376	15670.89
602.572	15249
602.769	15418.99
602.965	15042.16
603.161	15431.27
603.357	15267.44
603.553	15210.09
603.75	15335.02
603.946	14968.43
604.142	15335.02
604.338	15013.49
604.534	15072.88
604.73	14859.89
604.926	15007.34
605.122	15185.52
605.318	14798.45
605.514	14691.96
605.71	14499.45
605.906	14812.79
606.102	14726.77
606.298	14519.93
606.494	14409.34
606.69	14741.11
606.886	14614.13
607.082	14257.79
607.278	14425.72
607.474	14153.34
607.67	14212.73
607.866	13993.6
608.062	14229.12
608.257	14204.54
608.453	13815.43
608.649	14177.92
608.845	13938.3
609.041	13913.73
609.236	14175.87
609.432	13801.09
609.628	13823.62
609.824	13479.56
610.019	13682.31
610.215	13817.47
610.411	13751.94
610.606	13729.41
610.802	13518.47
610.998	13573.77
611.193	13641.35
611.389	13713.03
611.584	13518.47
611.78	13368.97
611.976	13301.39
612.171	13422.22
612.367	13317.77
612.562	13596.29
612.758	13162.12
612.953	13155.98
613.149	13489.8
613.344	13270.67
613.539	13285
613.735	13405.83
613.93	13160.08
614.126	13133.45
614.321	13106.83
614.517	13090.45
614.712	13260.43
614.907	13047.44
615.103	13000.33
615.298	12877.46
615.493	13090.45
615.688	12500.63
615.884	12807.83
616.079	12879.5
616.274	12768.91
616.47	12936.85
616.665	12680.85
616.86	12539.54
617.055	12486.29
617.25	12656.28
617.445	12617.36
617.641	12457.62
617.836	12357.27
618.031	12207.77
618.226	12541.59
618.421	12545.69
618.616	12562.07
618.811	12232.35
619.006	12355.22
619.201	12109.47
619.396	12166.81
619.591	11851.42
619.786	12211.87
619.981	11777.7
620.176	12082.84
620.371	11869.86
620.566	11923.1
620.761	11804.32
620.956	11822.75
621.151	11640.48
621.346	11663.01
621.541	11376.3
621.735	11835.04
621.93	11327.14
622.125	11384.49
622.32	11261.61
622.515	11323.05
622.709	11185.83
622.904	11202.22
623.099	11165.35
623.294	11105.96
623.488	10944.17
623.683	10854.06
623.878	10833.58
624.072	10882.74
624.267	10804.91
624.462	10737.33
624.656	10516.15
624.851	10747.57
625.046	10553.01
625.24	10602.16
625.435	10356.41
625.629	10452.66
625.824	10413.75
626.018	10376.89
626.213	10311.35
626.407	10055.36
626.602	10133.18
626.796	9989.82
626.991	10176.19
627.185	9942.72
627.38	9836.22
627.574	9807.55
627.768	9723.58
627.963	9688.77
628.157	9500.36
628.352	9578.18
628.546	9369.29
628.74	9653.95
628.935	9295.56
629.129	9377.48
629.323	9473.73
629.517	9051.85
629.712	9273.03
629.906	9115.34
630.1	9125.58
630.294	9354.95
630.489	9074.38
630.683	9197.26
630.877	8992.46
631.071	8869.58
631.265	8920.78
631.459	8939.21
631.653	8787.66
631.848	8806.09
632.042	8765.14
632.236	8730.32
632.43	8527.57
632.624	8681.17
632.818	8421.08
633.012	8353.49
633.206	8396.5
633.4	8593.11
633.594	8251.1
633.788	8371.93
633.982	8226.52
634.176	8308.44
634.369	8074.97
634.563	8474.32
634.757	7984.86
634.951	7954.14
635.145	8113.88
635.339	8048.35
635.533	8056.54
635.726	7966.43
635.92	7870.17
636.114	7663.33
636.308	7628.51
636.501	7773.92
636.695	7720.67
636.889	7755.49
637.083	7720.67
637.276	7474.92
637.47	7503.59
637.664	7456.48
637.857	7464.68
638.051	7421.67
638.244	7306.98
638.438	7139.05
638.632	7313.13
638.825	6878.96
639.019	7055.08
639.212	6979.31
639.406	7210.73
639.599	6862.57
639.793	7167.72
639.986	6989.55
640.18	7036.65
640.373	6856.43
640.567	6905.58
640.76	6653.68
640.954	6891.24
641.147	6729.45
641.34	6534.9
641.534	6651.63
641.727	6711.02
641.92	6469.36
642.114	6401.78
642.307	6520.56
642.5	6428.4
642.694	6305.53
642.887	6592.24
643.08	6424.31
643.273	6299.38
643.467	6321.91
643.66	6239.99
643.853	6172.41
644.046	6266.61
644.239	6119.16
644.432	6129.4
644.626	6119.16
644.819	6008.57
645.012	6049.53
645.205	5887.74
645.398	6022.91
645.591	5838.59
645.784	5889.79
645.977	5865.21
646.17	5775.1
646.363	5756.67
646.556	5721.85
646.749	5639.94
646.942	5717.76
647.135	5777.15
647.328	5644.03
647.521	5529.34
647.714	5437.19
647.907	5529.34
648.099	5582.59
648.292	5590.78
648.485	5625.6
648.678	5363.46
648.871	5385.99
649.064	5529.34
649.256	5338.88
649.449	5381.89
649.642	5396.23
649.835	5320.45
650.027	5373.7
650.22	5244.68
650.413	5054.22
650.605	5242.63
650.798	5166.85
650.991	5078.79
651.183	5041.93
651.376	4929.29
651.568	5072.65
651.761	5048.07
651.954	4871.95
652.146	4917
652.339	4804.36
652.531	4876.04
652.724	4828.94
652.916	4771.6
653.109	4798.22
653.301	4759.31
653.494	4818.7
653.686	4632.33
653.879	4871.95
654.071	4798.22
654.263	4574.99
654.456	4726.54
654.648	4787.98
654.84	4493.07
655.033	4628.24
655.225	4583.18
655.417	4534.03
655.61	4527.89
655.802	4419.35
655.994	4448.02
656.186	4398.87
656.379	4456.21
656.571	4296.47
656.763	4353.81
656.955	4278.04
657.148	4495.12
657.34	4378.39
657.532	4300.56
657.724	4214.55
657.916	4198.17
658.108	4245.27
658.3	4239.12
658.492	4173.59
658.684	4071.19
658.876	4044.57
659.068	4089.62
659.26	4009.75
659.452	4159.25
659.644	4050.71
659.836	4054.81
660.028	3966.74
660.22	3976.98
660.412	3950.36
660.604	3968.79
660.796	3985.18
660.988	3962.65
661.18	3741.47
661.372	3974.94
661.563	3938.07
661.755	3821.34
661.947	3870.49
662.139	3807
662.331	3888.92
662.522	3573.53
662.714	3686.17
662.906	3659.55
663.097	3850.01
663.289	3667.74
663.481	3643.17
663.673	3710.75
663.864	3680.03
664.056	3725.08
664.247	3594.01
664.439	3680.03
664.631	3596.06
664.822	3669.79
665.014	3499.81
665.205	3528.48
665.397	3489.57
665.588	3624.73
665.78	3626.78
665.971	3456.8
666.163	3426.08
666.354	3460.9
666.546	3464.99
666.737	3440.42
666.929	3458.85
667.12	3516.19
667.311	3391.27
667.503	3333.92
667.694	3501.86
667.885	3350.31
668.077	3323.68
668.268	3141.41
668.459	3233.57
668.651	3448.61
668.842	3292.96
669.033	3292.96
669.224	3350.31
669.416	3424.03
669.607	3381.03
669.798	3333.92
669.989	3280.68
670.18	3350.31
670.371	3231.52
670.563	3282.72
670.754	3237.67
670.945	3204.9
671.136	3223.33
671.327	3088.17
671.518	3184.42
671.709	3303.2
671.9	3213.09
672.091	3227.43
672.282	3141.41
672.473	3172.13
672.664	3278.63
672.855	3159.85
673.046	3217.19
673.237	3270.44
673.428	3116.84
673.619	3286.82
673.809	3047.21
674	3280.68
674.191	3249.96
674.382	3186.47
674.573	3061.54
674.764	3079.97
674.954	3206.95
675.145	3225.38
675.336	3108.65
675.527	3032.87
675.717	3137.32
675.908	3213.09
676.099	3145.51
676.289	3141.41
676.48	3188.52
676.671	3241.76
676.861	3170.08
677.052	3036.97
677.243	3188.52
677.433	3231.52
677.624	3254.05
677.814	3071.78
678.005	3288.87
678.195	3209
678.386	3149.61
678.576	3084.07
678.767	3311.39
678.957	3196.71
679.148	3147.56
679.338	3223.33
679.529	3147.56
679.719	2987.82
679.909	3100.45
680.1	2998.06
680.29	3157.8
680.481	3213.09
680.671	3313.44
680.861	3131.17
681.052	3159.85
681.242	3245.86
681.432	3227.43
681.622	3223.33
681.813	3159.85
682.003	3163.94
682.193	3219.24
682.383	3082.02
682.573	3219.24
682.764	3155.75
682.954	3178.28
683.144	3260.2
683.334	3176.23
683.524	3159.85
683.714	3270.44
683.904	3247.91
684.094	3168.04
684.284	3194.66
684.474	3229.48
684.664	3100.45
684.854	3223.33
685.044	3190.56
685.234	3120.93
685.424	3249.96
685.614	3116.84
685.804	3170.08
685.994	3145.51
686.184	3098.41
686.374	3198.76
686.564	3149.61
686.753	3131.17
686.943	3108.65
687.133	3104.55
687.323	3063.59
687.513	3008.3
687.702	3100.45
687.892	3004.2
688.082	2963.24
688.272	2996.01
688.461	3059.49
688.651	2899.75
688.841	2953
689.03	2940.71
689.22	3057.45
689.41	2848.55
689.599	3065.64
689.789	2955.05
689.979	2899.75
690.168	2989.86
690.358	2838.31
690.547	2909.99
690.737	2807.59
690.926	2795.31
691.116	2821.93
691.305	2785.07
691.495	2760.49
691.684	2770.73
691.874	2836.27
692.063	2660.14
692.252	2729.77
692.442	2768.68
692.631	2826.03
692.82	2883.37
693.01	2684.72
693.199	2815.79
693.388	2623.28
693.578	2656.04
693.767	2727.72
693.956	2617.13
694.146	2666.28
694.335	2588.46
694.524	2746.16
694.713	2756.4
694.902	2625.33
695.092	2619.18
695.281	2623.28
695.47	2654
695.659	2539.31
695.848	2647.85
696.037	2561.84
696.226	2635.57
696.415	2469.68
696.604	2660.14
696.793	2533.17
696.982	2551.6
697.171	2508.59
697.36	2570.03
697.549	2561.84
697.738	2426.67
697.927	2557.74
698.116	2522.93
698.305	2651.95
698.494	2486.06
698.683	2416.43
698.872	2666.28
699.061	2387.76
699.25	2582.32
699.438	2471.73
699.627	2471.73
699.816	2639.66
700.005	2455.34
700.193	2510.64
700.382	2561.84
700.571	2496.3
700.76	2516.78
700.948	2508.59
701.137	2643.76
701.326	2557.74
701.514	2524.97
701.703	2484.02
701.892	2508.59
702.08	2510.64
702.269	2615.09
702.457	2559.79
702.646	2490.16
702.834	2506.54
703.023	2629.42
703.212	2449.2
703.4	2578.22
703.589	2504.5
703.777	2572.08
703.965	2553.65
704.154	2608.94
704.342	2520.88
704.531	2543.41
704.719	2582.32
704.907	2551.6
705.096	2531.12
705.284	2516.78
705.472	2451.25
705.661	2561.84
705.849	2600.75
706.037	2578.22
706.226	2629.42
706.414	2594.61
706.602	2481.97
706.79	2512.69
706.979	2553.65
707.167	2461.49
707.355	2529.07
707.543	2606.89
707.731	2570.03
707.919	2737.96
708.107	2627.37
708.296	2471.73
708.484	2449.2
708.672	2619.18
708.86	2537.26
709.048	2617.13
709.236	2619.18
709.424	2619.18
709.612	2627.37
709.8	2666.28
709.988	2459.44
710.176	2676.52
710.364	2672.43
710.551	2697
710.739	2807.59
710.927	2647.85
711.115	2645.8
711.303	2692.91
711.491	2725.68
711.679	2692.91
711.866	2692.91
712.054	2680.62
712.242	2668.33
712.43	2629.42
712.617	2615.09
712.805	2758.44
712.993	2682.67
713.181	2713.39
713.368	2785.07
713.556	2742.06
713.744	2635.57
713.931	2694.96
714.119	2836.27
714.306	2807.59
714.494	2707.24
714.682	2647.85
714.869	2674.48
715.057	2701.1
715.244	2770.73
715.432	2830.12
715.619	2645.8
715.807	2754.35
715.994	2783.02
716.182	2862.89
716.369	2821.93
716.556	2744.11
716.744	2815.79
716.931	2803.5
717.119	2860.84
717.306	2850.6
717.493	2864.94
717.681	2799.4
717.868	2819.88
718.055	2838.31
718.242	2860.84
718.43	2955.05
718.617	2854.7
718.804	2858.79
718.991	2854.7
719.179	2826.03
719.366	2864.94
719.553	2817.83
719.74	2860.84
719.927	2963.24
720.114	2955.05
720.301	2967.34
720.488	2930.47
720.676	2912.04
720.863	2828.07
721.05	2916.14
721.237	2948.9
721.424	2950.95
721.611	2979.62
721.798	2942.76
721.985	2918.18
722.172	3012.39
722.358	2864.94
722.545	3137.32
722.732	2893.61
722.919	2922.28
723.106	2981.67
723.293	3018.54
723.48	2957.1
723.667	3086.12
723.853	3110.69
724.04	3139.37
724.227	3129.13
724.414	3118.89
724.6	3071.78
724.787	3108.65
724.974	3114.79
725.161	3016.49
725.347	2897.71
725.534	3118.89
725.72	3006.25
725.907	3067.69
726.094	3198.76
726.28	3120.93
726.467	3016.49
726.653	3079.97
726.84	3155.75
727.027	3186.47
727.213	3143.46
727.4	3153.7
727.586	3192.61
727.773	3120.93
727.959	3186.47
728.145	3223.33
728.332	3221.28
728.518	3196.71
728.705	3252
728.891	3272.48
729.077	3071.78
729.264	3163.94
729.45	3245.86
729.636	3344.16
729.823	3239.72
730.009	3184.42
730.195	3321.63
730.382	3239.72
730.568	3235.62
730.754	3288.87
730.94	3254.05
731.126	3184.42
731.313	3321.63
731.499	3174.18
731.685	3348.26
731.871	3262.24
732.057	3401.51
732.243	3252
732.429	3313.44
732.615	3350.31
732.801	3245.86
732.987	3319.59
733.173	3311.39
733.359	3258.15
733.545	3286.82
733.731	3223.33
733.917	3434.27
734.103	3409.7
734.289	3274.53
734.475	3376.93
734.661	3376.93
734.847	3475.23
735.033	3497.76
735.219	3274.53
735.404	3440.42
735.59	3340.07
735.776	3268.39
735.962	3313.44
736.148	3272.48
736.333	3419.94
736.519	3299.11
736.705	3323.68
736.89	3428.13
737.076	3387.17
737.262	3260.2
737.447	3430.18
737.633	3381.03
737.819	3260.2
738.004	3393.31
738.19	3391.27
738.375	3327.78
738.561	3399.46
738.747	3354.4
738.932	3325.73
739.118	3428.13
739.303	3282.72
739.489	3325.73
739.674	3329.83
739.859	3356.45
740.045	3213.09
740.23	3356.45
740.416	3256.1
740.601	3383.07
740.786	3254.05
740.972	3286.82
741.157	3204.9
741.342	3096.36
741.528	3198.76
741.713	3170.08
741.898	3395.36
742.084	3186.47
742.269	3243.81
742.454	3258.15
742.639	3198.76
742.824	3161.89
743.01	3260.2
743.195	3153.7
743.38	3178.28
743.565	3200.8
743.75	3182.37
743.935	3168.04
744.12	3280.68
744.305	3157.8
744.49	3073.83
744.675	3172.13
744.86	3018.54
745.045	3110.69
745.23	3141.41
745.415	3030.82
745.6	3079.97
745.785	2989.86
745.97	3067.69
746.155	3041.06
746.34	3151.65
746.525	2926.38
746.71	3032.87
746.895	2987.82
747.079	2967.34
747.264	2889.51
747.449	3018.54
747.634	2907.94
747.819	2922.28
748.003	2914.09
748.188	2963.24
748.373	2807.59
748.557	2703.15
748.742	2776.87
748.927	2785.07
749.111	2866.99
749.296	2840.36
749.481	2926.38
749.665	2690.86
749.85	2729.77
750.034	2791.21
750.219	2645.8
750.404	2576.17
750.588	2727.72
750.773	2664.24
750.957	2699.05
751.141	2590.51
751.326	2414.38
751.51	2606.89
751.695	2621.23
751.879	2572.08
752.064	2549.55
752.248	2584.37
752.432	2500.4
752.617	2533.17
752.801	2488.11
752.985	2549.55
753.17	2422.58
753.354	2430.77
753.538	2357.04
753.722	2393.9
753.907	2381.62
754.091	2250.55
754.275	2250.55
754.459	2311.99
754.643	2346.8
754.828	2383.66
755.012	2225.97
755.196	2295.6
755.38	2238.26
755.564	2240.31
755.748	2242.36
755.932	2250.55
756.116	2185.01
756.3	2178.87
756.484	2203.44
756.668	2176.82
756.852	2043.7
757.036	2213.68
757.22	2101.05
757.404	2088.76
757.588	2008.89
757.772	2078.52
757.956	2107.19
758.14	2158.39
758.323	1859.38
758.507	2070.33
758.691	2058.04
758.875	1961.78
759.059	2010.93
759.242	1851.19
759.426	1886.01
759.61	1965.88
759.794	1824.57
759.977	1933.11
760.161	1799.99
760.345	1972.02
760.528	1916.73
760.712	1986.36
760.895	1877.82
761.079	1879.86
761.263	1728.31
761.446	1861.43
761.63	1783.61
761.813	1914.68
761.997	1759.03
762.18	1754.94
762.364	1636.16
762.547	1711.93
762.731	1670.97
762.914	1566.53
763.098	1738.55
763.281	1687.36
763.464	1761.08
763.648	1756.99
763.831	1648.44
764.015	1646.4
764.198	1822.52
764.381	1634.11
764.564	1664.83
764.748	1584.96
764.931	1636.16
765.114	1603.39
765.297	1658.68
765.481	1691.45
765.664	1709.88
765.847	1668.92
766.03	1619.77
766.213	1521.47
766.397	1634.11
766.58	1498.94
766.763	1517.37
766.946	1607.48
767.129	1595.2
767.312	1558.33
767.495	1552.19
767.678	1496.89
767.861	1478.46
768.044	1537.85
768.227	1537.85
768.41	1476.41
768.593	1582.91
768.776	1529.66
768.959	1371.97
769.142	1511.23
769.324	1496.89
769.507	1433.41
769.69	1431.36
769.873	1408.83
770.056	1384.26
770.239	1376.06
770.421	1472.32
770.604	1435.46
770.787	1398.59
770.97	1359.68
771.152	1374.02
771.335	1345.34
771.518	1290.05
771.7	1437.5
771.883	1353.54
772.066	1386.3
772.248	1326.91
772.431	1378.11
772.613	1357.63
772.796	1240.9
772.978	1292.1
773.161	1341.25
773.343	1253.19
773.526	1193.8
773.708	1226.56
773.891	1238.85
774.073	1335.1
774.256	1271.62
774.438	1310.53
774.621	1118.02
774.803	1193.8
774.985	1130.31
775.168	1210.18
775.35	1201.99
775.532	1183.56
775.715	1181.51
775.897	1204.03
776.079	1136.45
776.261	1050.44
776.444	1054.53
776.626	1136.45
776.808	1089.35
776.99	1072.96
777.173	1109.83
777.355	1089.35
777.537	1115.97
777.719	1052.49
777.901	1081.16
778.083	1105.73
778.265	943.94
778.447	1085.25
778.629	972.61
778.811	1064.77
778.993	1046.34
779.175	1083.2
779.357	999.24
779.539	950.09
779.721	909.13
779.903	933.7
780.085	892.74
780.267	911.18
780.449	935.75
780.631	880.46
780.812	935.75
780.994	905.03
781.176	964.42
781.358	909.13
781.54	862.02
781.721	950.09
781.903	950.09
782.085	905.03
782.267	894.79
782.448	765.77
782.63	882.5
782.812	745.29
782.993	759.63
783.175	902.98
783.357	765.77
783.538	935.75
783.72	802.63
783.901	880.46
784.083	804.68
784.264	790.35
784.446	745.29
784.627	677.71
784.809	749.39
784.99	737.1
785.172	786.25
785.353	663.37
785.535	702.28
785.716	747.34
785.897	685.9
786.079	747.34
786.26	677.71
786.441	755.53
786.623	689.99
786.804	679.75
786.985	653.13
787.167	685.9
787.348	702.28
787.529	636.75
787.71	728.91
787.891	743.24
788.073	610.12
788.254	603.98
788.435	679.75
788.616	630.6
788.797	575.31
788.978	614.22
789.159	585.55
789.34	708.43
789.522	597.84
789.703	542.54
789.884	620.36
790.065	659.28
790.246	603.98
790.427	542.54
790.607	556.88
790.788	651.08
790.969	575.31
791.15	558.92
791.331	528.21
791.512	620.36
791.693	513.87
791.874	536.4
792.054	520.01
792.235	505.68
792.416	460.62
792.597	423.76
792.778	517.97
792.958	446.29
793.139	569.16
793.32	499.53
793.5	520.01
793.681	614.22
793.862	528.21
794.042	438.09
794.223	436.05
794.404	481.1
794.584	434
794.765	479.05
794.945	479.05
795.126	534.35
795.306	517.97
795.487	489.29
795.667	409.42
795.848	444.24
796.028	425.81
796.209	450.38
796.389	474.96
796.57	458.57
796.75	417.61
796.93	380.75
797.111	376.66
797.291	407.38
797.471	452.43
797.652	401.23
797.832	401.23
798.012	415.57
798.192	442.19
798.373	345.94
798.553	438.09
798.733	479.05
798.913	337.74
799.093	450.38
799.274	325.46
799.454	366.42
799.634	382.8
799.814	419.66
799.994	444.24
800.174	388.94
800.354	364.37
800.534	372.56
800.714	442.19
800.894	311.12
801.074	345.94
801.254	423.76
801.434	460.62
801.614	366.42
801.794	300.88
801.974	1138.5
802.154	347.98
802.334	382.8
802.514	321.36
802.693	343.89
802.873	323.41
803.053	425.81
803.233	329.55
803.413	407.38
803.592	329.55
803.772	350.03
803.952	329.55
804.131	288.59
804.311	390.99
804.491	370.51
804.67	327.5
804.85	272.21
805.03	284.5
805.209	292.69
805.389	245.59
805.568	304.98
805.748	266.07
805.928	331.6
806.107	229.2
806.287	313.17
806.466	302.93
806.646	296.78
806.825	345.94
807.004	278.35
807.184	311.12
807.363	331.6
807.543	339.79
807.722	311.12
807.901	329.55
808.081	233.3
808.26	272.21
808.439	245.59
808.619	282.45
808.798	227.15
808.977	235.35
809.156	229.2
809.336	292.69
809.515	317.26
809.694	274.26
809.873	276.31
810.052	165.71
810.231	253.78
810.411	261.97
810.59	325.46
810.769	317.26
810.948	225.11
811.127	210.77
811.306	235.35
811.485	178
811.664	266.07
811.843	274.26
812.022	268.11
812.201	186.19
812.38	264.02
812.559	278.35
812.737	206.67
812.916	204.63
813.095	198.48
813.274	155.47
813.453	335.7
813.632	221.01
813.811	280.4
813.989	227.15
814.168	278.35
814.347	163.67
814.526	235.35
814.704	198.48
814.883	266.07
815.062	245.59
815.24	261.97
815.419	208.72
815.598	255.83
815.776	225.11
815.955	182.1
816.133	180.05
816.312	214.87
816.49	202.58
816.669	231.25
816.847	169.81
817.026	218.96
817.204	216.91
817.383	253.78
817.561	159.57
817.74	225.11
817.918	206.67
818.097	149.33
818.275	169.81
818.453	200.53
818.632	214.87
818.81	245.59
818.988	182.1
819.167	225.11
819.345	98.13
819.523	147.28
819.701	223.06
819.879	157.52
820.058	264.02
820.236	202.58
820.414	190.29
820.592	239.44
820.77	235.35
820.948	108.37
821.127	231.25
821.305	155.47
821.483	85.84
821.661	151.38
821.839	161.62
822.017	182.1
822.195	137.04
822.373	147.28
822.551	124.76
822.729	202.58
822.907	120.66
823.085	141.14
823.262	161.62
823.44	190.29
823.618	106.32
823.796	171.86
823.974	98.13
824.152	124.76
824.329	182.1
824.507	171.86
824.685	200.53
824.863	184.15
825.04	184.15
825.218	184.15
825.396	108.37
825.574	192.34
825.751	132.95
825.929	114.52
826.107	94.04
826.284	108.37
826.462	159.57
826.639	157.52
826.817	167.76
826.994	139.09
827.172	116.56
827.349	257.87
827.527	14.17
827.704	229.2
827.882	106.32
828.059	137.04
828.237	102.23
828.414	126.8
828.591	137.04
828.769	173.91
828.946	128.85
829.124	229.2
829.301	206.67
829.478	151.38
829.655	124.76
829.833	143.19
830.01	91.99
830.187	79.7
830.364	102.23
830.542	147.28
830.719	91.99
830.896	212.82
831.073	180.05
831.25	100.18
831.427	182.1
831.604	153.43
831.782	87.89
831.959	59.22
832.136	61.27
832.313	91.99
832.49	65.36
832.667	96.08
832.844	81.75
833.021	67.41
833.198	110.42
833.374	104.28
833.551	94.04
833.728	96.08
833.905	120.66
834.082	32.6
834.259	149.33
834.436	175.95
834.612	20.31
834.789	118.61
834.966	141.14
835.143	91.99
835.319	85.84
835.496	214.87
835.673	118.61
835.85	116.56
836.026	114.52
836.203	112.47
836.38	46.93
836.556	51.03
836.733	137.04
836.909	175.95
837.086	71.51
837.262	114.52
837.439	149.33
837.616	100.18
837.792	173.91
837.968	69.46
838.145	3.93
838.321	83.8
838.498	135
838.674	175.95
838.851	73.56
839.027	48.98
839.203	130.9
839.38	98.13
839.556	108.37
839.732	87.89
839.909	116.56
840.085	155.47
840.261	61.27
840.437	36.69
840.614	153.43
840.79	128.85
840.966	161.62
841.142	77.65
841.318	96.08
841.494	61.27
841.671	40.79
841.847	10.07
842.023	32.6
842.199	48.98
842.375	104.28
842.551	108.37
842.727	59.22
842.903	81.75
843.079	32.6
843.255	77.65
843.431	3.93
843.607	147.28
843.783	-0.17
843.959	100.18
844.134	22.36
844.31	87.89
844.486	46.93
844.662	108.37
844.838	5.97
845.013	167.76
845.189	24.4
845.365	38.74
845.541	40.79
845.716	81.75
845.892	61.27
846.068	-8.36
846.244	48.98
846.419	75.6
846.595	-14.51
846.77	10.07
846.946	143.19
847.122	79.7
847.297	-18.6
847.473	178
847.648	110.42
847.824	51.03
847.999	30.55
848.175	28.5
848.35	36.69
848.526	10.07
848.701	91.99
848.876	44.88
849.052	108.37
849.227	34.64
849.403	48.98
849.578	36.69
849.753	34.64
849.929	77.65
850.104	79.7
850.279	55.12
850.454	55.12
850.63	108.37
850.805	63.32
850.98	110.42
851.155	32.6
851.33	87.89
851.505	-22.7
851.681	139.09
851.856	-53.42
852.031	124.76
852.206	77.65
852.381	18.26
852.556	18.26
852.731	81.75
852.906	48.98
853.081	59.22
853.256	55.12
853.431	83.8
853.606	-2.22
853.781	79.7
853.956	-8.36
854.131	106.32
854.305	10.07
854.48	69.46
854.655	26.45
854.83	75.6
855.005	71.51
855.18	18.26
855.354	32.6
855.529	75.6
855.704	-45.23
855.879	48.98
856.053	94.04
856.228	36.69
856.403	-10.41
856.577	40.79
856.752	38.74
856.926	55.12
857.101	75.6
857.276	-0.17
857.45	3.93
857.625	73.56
857.799	26.45
857.974	12.12
858.148	42.84
858.323	53.08
858.497	44.88
858.672	30.55
858.846	1.88
859.02	8.02
859.195	-43.18
859.369	57.17
859.543	12.12
859.718	-8.36
859.892	42.84
860.066	34.64
860.241	118.61
860.415	36.69
860.589	34.64
860.763	-10.41
860.938	46.93
861.112	42.84
861.286	34.64
861.46	38.74
861.634	69.46
861.808	71.51
861.982	-0.17
862.157	-0.17
862.331	10.07
862.505	63.32
862.679	28.5
862.853	24.4
863.027	36.69
863.201	87.89
863.375	32.6
863.549	24.4
863.722	24.4
863.896	53.08
864.07	3.93
864.244	-65.71
864.418	24.4
864.592	-57.51
864.766	-8.36
864.939	16.21
865.113	1.88
865.287	10.07
865.461	-0.17
865.634	38.74
865.808	-16.55
865.982	12.12
866.156	26.45
866.329	20.31
866.503	42.84
866.676	12.12
866.85	48.98
867.024	-12.46
867.197	1.88
867.371	118.61
867.544	-0.17
867.718	-30.89
867.891	81.75
868.065	-8.36
868.238	26.45
868.412	57.17
868.585	38.74
868.759	38.74
868.932	-24.75
869.105	-20.65
869.279	32.6
869.452	-59.56
869.625	16.21
869.799	18.26
869.972	69.46
870.145	-6.31
870.319	53.08
870.492	10.07
870.665	-26.79
870.838	71.51
871.011	-53.42
871.185	44.88
871.358	20.31
871.531	89.94
871.704	-30.89
871.877	34.64
872.05	46.93
872.223	-20.65
872.396	48.98
872.569	53.08
872.742	28.5
872.915	20.31
873.088	-22.7
873.261	44.88
873.434	75.6
873.607	-39.08
873.78	87.89
873.953	-69.8
874.126	-12.46
874.299	69.46
874.471	87.89
874.644	57.17
874.817	32.6
874.99	94.04
875.163	22.36
875.335	10.07
875.508	57.17
875.681	116.56
875.853	-49.32
876.026	-18.6
876.199	-10.41
876.371	16.21
876.544	-8.36
876.717	-20.65
876.889	34.64
877.062	-28.84
877.234	-0.17
877.407	-30.89
877.579	44.88
877.752	73.56
877.924	-10.41
878.097	8.02
878.269	26.45
878.442	-10.41
878.614	34.64
878.786	12.12
878.959	3.93
879.131	-22.7
879.303	-0.17
879.476	-6.31
879.648	63.32
879.82	30.55
879.993	-0.17
880.165	-4.27
880.337	12.12
880.509	10.07
880.681	-61.61
880.854	-6.31
881.026	-34.99
881.198	77.65
881.37	-20.65
881.542	42.84
881.714	14.17
881.886	22.36
882.058	14.17
882.23	10.07
882.402	-39.08
882.574	-24.75
882.746	51.03
882.918	32.6
883.09	30.55
883.262	-24.75
883.434	-26.79
883.606	-65.71
883.778	-12.46
883.95	83.8
884.122	-26.79
884.293	89.94
884.465	1.88
884.637	12.12
884.809	-24.75
884.98	46.93
885.152	26.45
885.324	79.7
885.496	-20.65
885.667	-45.23
885.839	-20.65
886.011	-8.36
886.182	32.6
886.354	32.6
886.525	3.93
886.697	8.02
886.869	-49.32
887.04	69.46
887.212	-41.13
887.383	53.08
887.555	12.12
887.726	-10.41
887.897	-39.08
888.069	-16.55
888.24	28.5
888.412	-47.27
888.583	79.7
888.754	36.69
888.926	-24.75
889.097	5.97
889.268	34.64
889.44	65.36
889.611	-51.37
889.782	-92.33
889.953	10.07
890.125	26.45
890.296	-8.36
890.467	-2.22
890.638	3.93
890.809	32.6
890.98	-75.95
891.151	14.17
891.323	51.03
891.494	30.55
891.665	-0.17
891.836	-30.89
892.007	-18.6
892.178	16.21
892.349	51.03
892.52	-41.13
892.691	30.55
892.862	-32.94
893.032	-67.75
893.203	-47.27
893.374	38.74
893.545	28.5
893.716	-2.22
893.887	28.5
894.057	69.46
894.228	30.55
894.399	-53.42
894.57	-8.36
894.74	12.12
894.911	-10.41
895.082	34.64
895.253	-0.17
895.423	67.41
895.594	38.74
895.764	-39.08
895.935	-37.03
896.106	-10.41
896.276	16.21
896.447	14.17
896.617	83.8
896.788	-108.71
896.958	-94.38
897.129	-14.51
897.299	-22.7
897.47	28.5
897.64	63.32
897.81	3.93
897.981	22.36
898.151	5.97
898.322	71.51
898.492	8.02
898.662	16.21
898.832	10.07
899.003	24.4
899.173	-12.46
899.343	-47.27
899.513	1.88
