Data from USB4F104151__2__12-23-16-358.txt Node

Date: Fri Mar 14 12:23:16 EDT 2025
User: louis
Spectrometer: USB4F10415
Trigger mode: 4
Integration Time (sec): 3.500000E-2
Scans to average: 1
Electric dark correction enabled: true
Nonlinearity correction enabled: false
Boxcar width: 0
XAxis mode: Wavelengths
Number of Pixels in Spectrum: 3648
>>>>>Begin Spectral Data<<<<<
178.204	-129.88
178.424	-129.88
178.644	-129.88
178.864	-86.87
179.084	-119.64
179.304	-74.58
179.524	-35.67
179.744	9.39
179.964	76.97
180.184	-17.24
180.404	21.67
180.624	29.87
180.844	11.43
181.064	-45.91
181.283	58.54
181.503	-58.2
181.723	23.72
181.943	21.67
182.163	124.07
182.383	83.11
182.602	62.63
182.822	62.63
183.042	56.49
183.262	40.11
183.482	-23.38
183.701	-70.48
183.921	13.48
184.141	7.34
184.361	101.55
184.58	31.91
184.8	50.35
185.02	115.88
185.239	1.19
185.459	-25.43
185.679	58.54
185.898	-13.14
186.118	7.34
186.338	31.91
186.557	40.11
186.777	48.3
186.997	29.87
187.216	-25.43
187.436	25.77
187.655	25.77
187.875	54.44
188.095	23.72
188.314	87.21
188.534	48.3
188.753	-13.14
188.973	95.4
189.192	162.98
189.412	52.39
189.631	93.35
189.851	-93.01
190.07	68.78
190.29	-27.48
190.509	13.48
190.729	1.19
190.948	87.21
191.168	99.5
191.387	101.55
191.607	9.39
191.826	64.68
192.045	87.21
192.265	13.48
192.484	48.3
192.704	66.73
192.923	-17.24
193.142	109.74
193.362	29.87
193.581	74.92
193.8	-33.62
194.02	42.15
194.239	-2.9
194.458	50.35
194.678	48.3
194.897	3.24
195.116	76.97
195.335	3.24
195.555	19.63
195.774	5.29
195.993	7.34
196.212	7.34
196.432	17.58
196.651	-29.52
196.87	5.29
197.089	148.65
197.308	31.91
197.528	46.25
197.747	-2.9
197.966	-9.05
198.185	144.55
198.404	25.77
198.623	58.54
198.842	130.22
199.062	7.34
199.281	44.2
199.5	113.83
199.719	93.35
199.938	74.92
200.157	72.87
200.376	126.12
200.595	113.83
200.814	38.06
201.033	1.19
201.252	68.78
201.471	33.96
201.69	5.29
201.909	66.73
202.128	124.07
202.347	36.01
202.566	-13.14
202.785	15.53
203.004	-27.48
203.223	109.74
203.442	79.02
203.661	-11.09
203.879	40.11
204.098	85.16
204.317	5.29
204.536	62.63
204.755	15.53
204.974	-13.14
205.193	72.87
205.411	66.73
205.63	33.96
205.849	50.35
206.068	38.06
206.287	-29.52
206.505	68.78
206.724	27.82
206.943	19.63
207.162	-11.09
207.381	50.35
207.599	52.39
207.818	97.45
208.037	-21.33
208.255	23.72
208.474	68.78
208.693	83.11
208.911	33.96
209.13	15.53
209.349	66.73
209.567	-13.14
209.786	91.31
210.005	68.78
210.223	58.54
210.442	7.34
210.661	11.43
210.879	72.87
211.098	89.26
211.316	50.35
211.535	64.68
211.753	56.49
211.972	58.54
212.191	9.39
212.409	58.54
212.628	33.96
212.846	5.29
213.065	85.16
213.283	23.72
213.502	-25.43
213.72	68.78
213.938	68.78
214.157	7.34
214.375	81.07
214.594	40.11
214.812	95.4
215.031	-9.05
215.249	31.91
215.467	27.82
215.686	132.26
215.904	87.21
216.122	11.43
216.341	48.3
216.559	-0.85
216.778	23.72
216.996	85.16
217.214	-13.14
217.432	46.25
217.651	1.19
217.869	68.78
218.087	40.11
218.306	93.35
218.524	13.48
218.742	11.43
218.96	105.64
219.179	5.29
219.397	-2.9
219.615	111.78
219.833	7.34
220.051	-11.09
220.27	40.11
220.488	83.11
220.706	15.53
220.924	46.25
221.142	5.29
221.36	7.34
221.578	52.39
221.796	54.44
222.015	70.83
222.233	74.92
222.451	-2.9
222.669	83.11
222.887	119.98
223.105	91.31
223.323	11.43
223.541	81.07
223.759	99.5
223.977	126.12
224.195	122.02
224.413	9.39
224.631	87.21
224.849	79.02
225.067	160.94
225.285	-37.72
225.503	-2.9
225.721	-2.9
225.939	85.16
226.157	58.54
226.375	91.31
226.592	85.16
226.81	40.11
227.028	81.07
227.246	38.06
227.464	29.87
227.682	60.59
227.9	-9.05
228.117	81.07
228.335	58.54
228.553	36.01
228.771	62.63
228.989	95.4
229.206	105.64
229.424	56.49
229.642	9.39
229.86	50.35
230.077	46.25
230.295	-2.9
230.513	91.31
230.731	33.96
230.948	107.69
231.166	44.2
231.384	-2.9
231.601	7.34
231.819	48.3
232.037	-2.9
232.254	19.63
232.472	17.58
232.689	23.72
232.907	66.73
233.125	9.39
233.342	44.2
233.56	-68.44
233.777	54.44
233.995	21.67
234.213	99.5
234.43	19.63
234.648	48.3
234.865	72.87
235.083	21.67
235.3	21.67
235.518	33.96
235.735	25.77
235.953	117.93
236.17	150.7
236.388	44.2
236.605	25.77
236.822	111.78
237.04	50.35
237.257	1.19
237.475	23.72
237.692	29.87
237.909	111.78
238.127	64.68
238.344	62.63
238.562	46.25
238.779	-21.33
238.996	36.01
239.214	50.35
239.431	74.92
239.648	19.63
239.865	79.02
240.083	11.43
240.3	91.31
240.517	25.77
240.735	42.15
240.952	50.35
241.169	33.96
241.386	91.31
241.603	44.2
241.821	66.73
242.038	3.24
242.255	56.49
242.472	5.29
242.689	165.03
242.907	83.11
243.124	91.31
243.341	1.19
243.558	-19.29
243.775	44.2
243.992	42.15
244.209	68.78
244.426	117.93
244.643	27.82
244.86	17.58
245.078	36.01
245.295	66.73
245.512	5.29
245.729	25.77
245.946	74.92
246.163	44.2
246.38	-7
246.597	23.72
246.814	33.96
247.031	-19.29
247.248	60.59
247.464	31.91
247.681	68.78
247.898	66.73
248.115	11.43
248.332	31.91
248.549	68.78
248.766	50.35
248.983	42.15
249.2	-11.09
249.417	25.77
249.633	36.01
249.85	66.73
250.067	7.34
250.284	95.4
250.501	56.49
250.717	142.5
250.934	-31.57
251.151	54.44
251.368	27.82
251.585	74.92
251.801	85.16
252.018	-64.34
252.235	68.78
252.451	38.06
252.668	13.48
252.885	44.2
253.102	-23.38
253.318	38.06
253.535	48.3
253.752	17.58
253.968	27.82
254.185	-29.52
254.401	33.96
254.618	46.25
254.835	33.96
255.051	66.73
255.268	99.5
255.484	97.45
255.701	19.63
255.917	42.15
256.134	83.11
256.351	62.63
256.567	27.82
256.784	23.72
257	-29.52
257.217	66.73
257.433	36.01
257.65	56.49
257.866	38.06
258.082	-4.95
258.299	60.59
258.515	103.59
258.732	50.35
258.948	25.77
259.165	9.39
259.381	1.19
259.597	-0.85
259.814	44.2
260.03	23.72
260.246	-17.24
260.463	46.25
260.679	11.43
260.895	15.53
261.112	101.55
261.328	50.35
261.544	-33.62
261.761	101.55
261.977	3.24
262.193	46.25
262.409	111.78
262.626	62.63
262.842	76.97
263.058	105.64
263.274	79.02
263.49	15.53
263.707	40.11
263.923	58.54
264.139	-25.43
264.355	-25.43
264.571	89.26
264.787	27.82
265.004	70.83
265.22	-45.91
265.436	-33.62
265.652	27.82
265.868	31.91
266.084	-17.24
266.3	-39.76
266.516	-4.95
266.732	66.73
266.948	40.11
267.164	74.92
267.38	13.48
267.596	68.78
267.812	95.4
268.028	17.58
268.244	36.01
268.46	25.77
268.676	-47.96
268.892	72.87
269.108	68.78
269.324	13.48
269.54	50.35
269.756	117.93
269.972	-23.38
270.188	-9.05
270.403	7.34
270.619	54.44
270.835	103.59
271.051	7.34
271.267	23.72
271.483	38.06
271.698	91.31
271.914	79.02
272.13	38.06
272.346	23.72
272.562	19.63
272.777	76.97
272.993	40.11
273.209	-15.19
273.425	29.87
273.64	15.53
273.856	68.78
274.072	-33.62
274.287	-41.81
274.503	62.63
274.719	93.35
274.934	56.49
275.15	38.06
275.366	-0.85
275.581	-54.1
275.797	-0.85
276.012	136.36
276.228	48.3
276.444	72.87
276.659	72.87
276.875	7.34
277.09	87.21
277.306	50.35
277.521	44.2
277.737	70.83
277.952	136.36
278.168	52.39
278.383	13.48
278.599	-74.58
278.814	91.31
279.03	5.29
279.245	76.97
279.461	19.63
279.676	3.24
279.892	29.87
280.107	-13.14
280.322	105.64
280.538	105.64
280.753	17.58
280.969	-0.85
281.184	-13.14
281.399	132.26
281.615	74.92
281.83	-21.33
282.045	-21.33
282.26	40.11
282.476	40.11
282.691	138.41
282.906	31.91
283.122	44.2
283.337	23.72
283.552	76.97
283.767	-37.72
283.983	38.06
284.198	48.3
284.413	99.5
284.628	9.39
284.843	136.36
285.058	89.26
285.274	17.58
285.489	54.44
285.704	76.97
285.919	36.01
286.134	33.96
286.349	-7
286.564	33.96
286.779	91.31
286.995	56.49
287.21	5.29
287.425	122.02
287.64	31.91
287.855	-27.48
288.07	62.63
288.285	72.87
288.5	87.21
288.715	68.78
288.93	3.24
289.145	-13.14
289.36	70.83
289.575	9.39
289.79	64.68
290.004	-11.09
290.219	111.78
290.434	42.15
290.649	-11.09
290.864	-4.95
291.079	27.82
291.294	36.01
291.509	48.3
291.724	15.53
291.938	38.06
292.153	-17.24
292.368	9.39
292.583	79.02
292.798	177.32
293.012	89.26
293.227	70.83
293.442	1.19
293.657	109.74
293.871	60.59
294.086	33.96
294.301	97.45
294.516	42.15
294.73	42.15
294.945	17.58
295.16	60.59
295.374	46.25
295.589	107.69
295.804	21.67
296.018	101.55
296.233	91.31
296.447	9.39
296.662	25.77
296.877	109.74
297.091	25.77
297.306	42.15
297.52	38.06
297.735	31.91
297.949	103.59
298.164	66.73
298.378	-2.9
298.593	62.63
298.807	91.31
299.022	70.83
299.236	70.83
299.451	46.25
299.665	-50
299.88	89.26
300.094	33.96
300.309	7.34
300.523	56.49
300.737	36.01
300.952	66.73
301.166	91.31
301.381	17.58
301.595	42.15
301.809	56.49
302.024	-7
302.238	23.72
302.452	40.11
302.667	50.35
302.881	138.41
303.095	42.15
303.309	3.24
303.524	31.91
303.738	-2.9
303.952	42.15
304.166	25.77
304.381	9.39
304.595	128.17
304.809	40.11
305.023	-2.9
305.237	31.91
305.452	9.39
305.666	91.31
305.88	117.93
306.094	38.06
306.308	107.69
306.522	33.96
306.736	83.11
306.95	13.48
307.164	89.26
307.379	-4.95
307.593	29.87
307.807	33.96
308.021	-7
308.235	99.5
308.449	21.67
308.663	107.69
308.877	62.63
309.091	42.15
309.305	27.82
309.519	5.29
309.733	60.59
309.947	-45.91
310.161	46.25
310.374	101.55
310.588	79.02
310.802	1.19
311.016	38.06
311.23	60.59
311.444	-4.95
311.658	87.21
311.872	126.12
312.085	31.91
312.299	99.5
312.513	89.26
312.727	52.39
312.941	7.34
313.154	54.44
313.368	105.64
313.582	-17.24
313.796	-11.09
314.009	44.2
314.223	62.63
314.437	48.3
314.651	50.35
314.864	17.58
315.078	-4.95
315.292	11.43
315.505	-17.24
315.719	56.49
315.933	64.68
316.146	1.19
316.36	38.06
316.573	31.91
316.787	19.63
317.001	66.73
317.214	19.63
317.428	25.77
317.641	79.02
317.855	50.35
318.068	9.39
318.282	103.59
318.495	115.88
318.709	52.39
318.922	56.49
319.136	109.74
319.349	64.68
319.563	27.82
319.776	81.07
319.99	42.15
320.203	70.83
320.417	56.49
320.63	62.63
320.843	76.97
321.057	101.55
321.27	46.25
321.483	1.19
321.697	42.15
321.91	54.44
322.124	3.24
322.337	-2.9
322.55	19.63
322.763	17.58
322.977	52.39
323.19	40.11
323.403	115.88
323.617	50.35
323.83	54.44
324.043	5.29
324.256	95.4
324.469	-41.81
324.683	124.07
324.896	50.35
325.109	-31.57
325.322	-19.29
325.535	66.73
325.748	64.68
325.962	72.87
326.175	66.73
326.388	64.68
326.601	46.25
326.814	76.97
327.027	89.26
327.24	66.73
327.453	-11.09
327.666	42.15
327.879	62.63
328.092	76.97
328.305	52.39
328.518	11.43
328.731	-9.05
328.944	9.39
329.157	11.43
329.37	17.58
329.583	40.11
329.796	119.98
330.009	13.48
330.222	29.87
330.435	68.78
330.648	74.92
330.861	19.63
331.073	74.92
331.286	62.63
331.499	52.39
331.712	52.39
331.925	56.49
332.138	-47.96
332.35	42.15
332.563	74.92
332.776	62.63
332.989	-19.29
333.202	-80.72
333.414	72.87
333.627	68.78
333.84	52.39
334.053	-2.9
334.265	36.01
334.478	-4.95
334.691	50.35
334.903	9.39
335.116	21.67
335.329	25.77
335.541	36.01
335.754	72.87
335.966	-19.29
336.179	-13.14
336.392	-13.14
336.604	117.93
336.817	74.92
337.029	91.31
337.242	91.31
337.454	60.59
337.667	29.87
337.88	21.67
338.092	-11.09
338.305	48.3
338.517	7.34
338.729	68.78
338.942	50.35
339.154	50.35
339.367	-25.43
339.579	-7
339.792	-21.33
340.004	140.46
340.217	64.68
340.429	21.67
340.641	-21.33
340.854	83.11
341.066	-43.86
341.278	66.73
341.491	87.21
341.703	27.82
341.915	25.77
342.128	81.07
342.34	58.54
342.552	7.34
342.764	-23.38
342.977	27.82
343.189	99.5
343.401	81.07
343.613	-9.05
343.826	95.4
344.038	58.54
344.25	27.82
344.462	15.53
344.674	50.35
344.886	64.68
345.099	101.55
345.311	42.15
345.523	-7
345.735	9.39
345.947	81.07
346.159	54.44
346.371	-21.33
346.583	93.35
346.795	117.93
347.007	36.01
347.219	50.35
347.431	9.39
347.643	1.19
347.855	93.35
348.067	142.5
348.279	40.11
348.491	42.15
348.703	111.78
348.915	33.96
349.127	52.39
349.339	36.01
349.551	38.06
349.763	158.89
349.975	93.35
350.187	95.4
350.399	122.02
350.61	48.3
350.822	3.24
351.034	68.78
351.246	-31.57
351.458	79.02
351.669	-17.24
351.881	142.5
352.093	117.93
352.305	93.35
352.517	36.01
352.728	81.07
352.94	60.59
353.152	31.91
353.363	60.59
353.575	74.92
353.787	40.11
353.999	122.02
354.21	136.36
354.422	17.58
354.633	40.11
354.845	95.4
355.057	64.68
355.268	25.77
355.48	-0.85
355.692	29.87
355.903	42.15
356.115	1.19
356.326	52.39
356.538	101.55
356.749	7.34
356.961	11.43
357.172	87.21
357.384	3.24
357.595	91.31
357.807	33.96
358.018	46.25
358.23	-13.14
358.441	95.4
358.653	126.12
358.864	15.53
359.075	50.35
359.287	85.16
359.498	58.54
359.709	25.77
359.921	31.91
360.132	-0.85
360.344	44.2
360.555	56.49
360.766	25.77
360.977	62.63
361.189	48.3
361.4	27.82
361.611	64.68
361.823	103.59
362.034	33.96
362.245	-60.24
362.456	50.35
362.667	42.15
362.879	25.77
363.09	70.83
363.301	68.78
363.512	40.11
363.723	36.01
363.935	-4.95
364.146	138.41
364.357	-13.14
364.568	66.73
364.779	9.39
364.99	81.07
365.201	27.82
365.412	144.55
365.623	-0.85
365.834	-7
366.045	5.29
366.256	58.54
366.467	19.63
366.678	33.96
366.889	17.58
367.1	25.77
367.311	107.69
367.522	11.43
367.733	83.11
367.944	95.4
368.155	40.11
368.366	85.16
368.577	60.59
368.788	60.59
368.999	-54.1
369.209	29.87
369.42	93.35
369.631	165.03
369.842	48.3
370.053	3.24
370.264	48.3
370.474	42.15
370.685	74.92
370.896	13.48
371.107	97.45
371.317	36.01
371.528	60.59
371.739	33.96
371.95	103.59
372.16	126.12
372.371	29.87
372.582	19.63
372.792	38.06
373.003	62.63
373.214	60.59
373.424	42.15
373.635	36.01
373.846	17.58
374.056	52.39
374.267	7.34
374.477	1.19
374.688	11.43
374.898	60.59
375.109	101.55
375.319	95.4
375.53	122.02
375.74	101.55
375.951	66.73
376.161	-21.33
376.372	119.98
376.582	-0.85
376.793	99.5
377.003	-17.24
377.214	52.39
377.424	101.55
377.635	70.83
377.845	7.34
378.055	74.92
378.266	23.72
378.476	81.07
378.686	52.39
378.897	68.78
379.107	46.25
379.317	60.59
379.528	5.29
379.738	36.01
379.948	50.35
380.158	19.63
380.369	72.87
380.579	134.31
380.789	134.31
380.999	62.63
381.21	91.31
381.42	107.69
381.63	29.87
381.84	25.77
382.05	-9.05
382.261	56.49
382.471	76.97
382.681	23.72
382.891	132.26
383.101	89.26
383.311	48.3
383.521	-7
383.731	42.15
383.941	76.97
384.151	56.49
384.361	23.72
384.571	68.78
384.781	44.2
384.991	97.45
385.201	150.7
385.411	66.73
385.621	68.78
385.831	19.63
386.041	97.45
386.251	-0.85
386.461	76.97
386.671	-0.85
386.881	72.87
387.091	70.83
387.301	95.4
387.511	48.3
387.72	79.02
387.93	132.26
388.14	9.39
388.35	74.92
388.56	93.35
388.769	60.59
388.979	46.25
389.189	-4.95
389.399	81.07
389.609	81.07
389.818	58.54
390.028	29.87
390.238	99.5
390.447	60.59
390.657	91.31
390.867	91.31
391.076	5.29
391.286	113.83
391.496	-31.57
391.705	44.2
391.915	124.07
392.125	29.87
392.334	54.44
392.544	-0.85
392.753	140.46
392.963	-13.14
393.172	54.44
393.382	68.78
393.591	76.97
393.801	9.39
394.01	93.35
394.22	56.49
394.429	89.26
394.639	136.36
394.848	95.4
395.058	132.26
395.267	33.96
395.477	87.21
395.686	130.22
395.895	117.93
396.105	124.07
396.314	132.26
396.524	111.78
396.733	97.45
396.942	181.42
397.152	85.16
397.361	21.67
397.57	76.97
397.78	66.73
397.989	97.45
398.198	95.4
398.407	-17.24
398.617	124.07
398.826	122.02
399.035	66.73
399.244	117.93
399.453	27.82
399.663	83.11
399.872	95.4
400.081	76.97
400.29	138.41
400.499	95.4
400.708	150.7
400.917	72.87
401.127	128.17
401.336	38.06
401.545	109.74
401.754	158.89
401.963	68.78
402.172	119.98
402.381	60.59
402.59	105.64
402.799	83.11
403.008	83.11
403.217	111.78
403.426	107.69
403.635	72.87
403.844	173.22
404.053	113.83
404.262	62.63
404.471	177.32
404.68	193.7
404.888	58.54
405.097	79.02
405.306	148.65
405.515	103.59
405.724	175.27
405.933	115.88
406.142	158.89
406.35	117.93
406.559	87.21
406.768	154.79
406.977	220.33
407.185	103.59
407.394	97.45
407.603	126.12
407.812	144.55
408.02	255.14
408.229	144.55
408.438	154.79
408.646	179.37
408.855	183.46
409.064	183.46
409.272	99.5
409.481	173.22
409.69	152.74
409.898	216.23
410.107	216.23
410.315	236.71
410.524	203.94
410.733	199.85
410.941	222.38
411.15	230.57
411.358	249
411.567	330.92
411.775	283.81
411.984	292.01
412.192	242.85
412.401	275.62
412.609	326.82
412.818	386.21
413.026	341.16
413.234	316.58
413.443	300.2
413.651	335.01
413.86	404.64
414.068	451.75
414.276	429.22
414.485	425.12
414.693	359.59
414.901	429.22
415.11	396.45
415.318	552.1
415.526	461.99
415.734	488.61
415.943	521.38
416.151	556.19
416.359	572.58
416.567	545.95
416.776	625.83
416.984	595.11
417.192	638.11
417.4	601.25
417.608	672.93
417.817	664.74
418.025	674.98
418.233	756.9
418.441	728.22
418.649	732.32
418.857	857.25
419.065	865.44
419.273	781.47
419.481	885.92
419.689	935.07
419.897	838.81
420.105	1021.08
420.313	1057.95
420.521	996.51
420.729	1016.99
420.937	1029.27
421.145	1049.75
421.353	1090.71
421.561	1252.5
421.769	1359
421.977	1201.3
422.185	1236.12
422.393	1377.43
422.601	1440.92
422.809	1465.49
423.017	1471.64
423.224	1531.03
423.432	1672.34
423.64	1488.02
423.848	1731.73
424.056	1778.83
424.263	1766.54
424.471	1608.85
424.679	1928.33
424.887	1948.81
425.094	1936.53
425.302	2022.54
425.51	2047.12
425.718	2155.66
425.925	2186.38
426.133	2256.01
426.341	2428.04
426.548	2378.89
426.756	2401.41
426.964	2430.09
427.171	2614.4
427.379	2624.64
427.586	2694.27
427.794	2849.92
428.001	2946.17
428.209	3050.62
428.417	3067
428.624	3187.83
428.832	3282.04
429.039	3146.87
429.247	3112.06
429.454	3468.41
429.662	3691.63
429.869	3556.47
430.076	3755.12
430.284	3720.31
430.491	3716.21
430.699	4025.45
430.906	4056.17
431.114	4074.6
431.321	4246.63
431.528	4377.7
431.736	4553.83
431.943	4944.99
432.15	4670.56
432.358	4732
432.565	4996.19
432.772	4897.89
432.979	5162.08
433.187	5360.73
433.394	5252.19
433.601	5745.75
433.808	5698.64
434.016	5698.64
434.223	5858.39
434.43	6227.02
434.637	6132.81
434.844	6585.41
435.052	6632.52
435.259	6665.28
435.466	6683.72
435.673	6573.13
435.88	7038.02
436.087	7447.61
436.294	7324.73
436.501	7115.84
436.708	7398.46
436.915	7623.73
437.122	8025.14
437.329	7996.46
437.537	8203.31
437.743	8483.88
437.95	8277.04
438.157	8887.33
438.364	9137.18
438.571	8989.73
438.778	9149.47
438.985	9765.91
439.192	9665.56
439.399	9716.76
439.606	9524.25
439.813	10212.37
440.02	10847.24
440.227	10474.51
440.433	10460.17
440.64	10662.92
440.847	10705.93
441.054	10968.07
441.261	11729.91
441.467	11600.89
441.674	11975.67
441.881	12411.89
442.088	12162.03
442.294	12127.22
442.501	12549.1
442.708	12653.55
442.914	12999.65
443.121	13859.8
443.328	13263.84
443.534	14537.68
443.741	13884.37
443.948	13810.65
444.154	14742.47
444.361	14711.75
444.568	14685.13
444.774	14822.34
444.981	15027.14
445.187	15459.26
445.394	16063.41
445.6	16081.85
445.807	17392.55
446.013	16946.09
446.22	16980.9
446.426	17793.95
446.633	17988.5
446.839	18576.27
447.046	17517.47
447.252	18617.23
447.459	18668.43
447.665	18819.98
447.871	19270.53
448.078	20179.83
448.284	19358.6
448.491	19770.24
448.697	20636.53
448.903	20958.06
449.11	21056.36
449.316	20740.97
449.522	21363.56
449.728	21791.58
449.935	21965.66
450.141	21787.49
450.347	22569.81
450.553	21887.84
450.76	21963.61
450.966	22846.29
451.172	22381.4
451.378	23481.16
451.584	22385.49
451.791	23141.19
451.997	22868.81
452.203	23550.79
452.409	23274.31
452.615	23311.17
452.821	22727.5
453.027	22242.14
453.233	23556.93
453.44	22534.99
453.646	22504.28
453.852	22750.03
454.058	23341.89
454.264	22371.16
454.47	23157.58
454.676	22260.57
454.882	23044.94
455.088	20994.92
455.294	21594.98
455.5	21844.83
455.705	21881.69
455.911	21125.99
456.117	20818.8
456.323	20317.04
456.529	19348.36
456.735	20001.66
456.941	19397.51
457.147	19217.29
457.352	18572.18
457.558	18424.72
457.764	18459.54
457.97	18285.46
458.176	17929.11
458.381	17724.32
458.587	16982.95
458.793	16890.79
458.999	16049.08
459.204	17179.56
459.41	16563.12
459.616	15504.32
459.821	15602.62
460.027	15496.13
460.233	15119.3
460.438	14396.37
460.644	14744.52
460.85	13904.85
461.055	13849.56
461.261	13636.57
461.466	12647.4
461.672	12215.28
461.878	13042.66
462.083	12289.01
462.289	11971.57
462.494	11830.26
462.7	11398.14
462.905	10951.68
463.111	11504.64
463.316	11414.52
463.522	11277.31
463.727	11238.4
463.932	11340.8
464.138	11176.96
464.343	11113.47
464.549	10796.04
464.754	11119.62
464.959	11068.42
465.165	11006.98
465.37	10456.08
465.575	10476.55
465.781	10716.17
465.986	10693.64
466.191	10251.28
466.397	10284.05
466.602	9640.98
466.807	9960.47
467.012	10085.39
467.218	9974.8
467.423	9614.36
467.628	10026
467.833	10417.16
468.038	10126.35
468.244	9688.09
468.449	10050.58
468.654	9896.98
468.859	9610.26
469.064	9616.41
469.269	9313.31
469.474	9421.85
469.679	9438.23
469.885	9229.34
470.09	9288.73
470.295	9260.06
470.5	9081.89
470.705	9276.45
470.91	8977.44
471.115	9055.26
471.32	9077.79
471.525	8776.74
471.73	8789.03
471.935	8535.08
472.139	8293.42
472.344	8397.87
472.549	8330.28
472.754	8459.31
472.959	7971.89
473.164	8018.99
473.369	7947.31
473.574	8234.03
473.778	8072.24
473.983	7967.79
474.188	7767.09
474.393	7625.78
474.598	7562.3
474.802	7623.73
475.007	7740.47
475.212	7332.92
475.417	7205.95
475.621	7312.44
475.826	7017.54
476.031	7019.58
476.235	6964.29
476.44	7185.47
476.645	6968.38
476.849	6952
477.054	7040.06
477.259	6865.99
477.463	6861.89
477.668	6618.18
477.872	6659.14
478.077	6526.02
478.282	6409.29
478.486	6358.09
478.691	6304.84
478.895	6337.61
479.1	6294.6
479.304	6323.27
479.509	6108.24
479.713	6294.6
479.918	6120.53
480.122	6063.18
480.326	6200.4
480.531	6065.23
480.735	5948.5
480.94	5946.45
481.144	6118.48
481.348	5854.29
481.553	6028.37
481.757	5848.15
481.961	5952.59
482.166	6014.03
482.37	5862.48
482.574	5827.67
482.778	5905.49
482.983	5952.59
483.187	5868.63
483.391	6040.65
483.595	5770.32
483.8	5858.39
484.004	5899.34
484.208	6024.27
484.412	5866.58
484.616	5915.73
484.821	5811.28
485.025	5825.62
485.229	5792.85
485.433	5766.23
485.637	5858.39
485.841	5796.95
486.045	5762.13
486.249	5758.03
486.453	5864.53
486.657	5776.47
486.861	5721.17
487.065	5798.99
487.269	5825.62
487.473	5882.96
487.677	5770.32
487.881	5975.12
488.085	5776.47
488.289	5872.72
488.493	5719.12
488.697	5979.22
488.901	5755.99
489.105	5780.56
489.309	5831.76
489.512	5999.7
489.716	5866.58
489.92	5932.11
490.124	5921.87
490.328	6048.85
490.531	5991.5
490.735	5930.06
490.939	5936.21
491.143	6026.32
491.346	5952.59
491.55	6050.89
491.754	6069.33
491.958	6190.16
492.161	6016.08
492.365	6153.29
492.569	6095.95
492.772	6212.68
492.976	6210.64
493.18	6329.42
493.383	6521.93
493.587	6315.08
493.79	6483.02
493.994	6446.15
494.197	6397
494.401	6480.97
494.605	6544.45
494.808	6665.28
495.012	6685.76
495.215	6685.76
495.419	6732.87
495.622	6599.75
495.825	6769.73
496.029	6904.9
496.232	7083.07
496.436	6986.82
496.639	7050.3
496.843	7087.17
497.046	7218.24
497.249	7242.81
497.453	7375.93
497.656	7445.56
497.859	7347.26
498.063	7533.62
498.266	7726.13
498.469	7668.79
498.673	7662.65
498.876	7963.7
499.079	8031.28
499.282	8160.3
499.485	8180.78
499.689	8236.08
499.892	8258.6
500.095	8401.96
500.298	8592.42
500.501	8604.71
500.705	8604.71
500.908	8690.73
501.111	9077.79
501.314	8784.93
501.517	9071.65
501.72	9063.46
501.923	9178.14
502.126	9266.21
502.329	9458.71
502.532	9393.18
502.735	9473.05
502.938	9673.75
503.141	9745.43
503.344	10134.54
503.547	10224.65
503.75	10398.73
503.953	10173.46
504.156	10587.15
504.359	10695.69
504.562	10437.64
504.765	10857.48
504.968	10996.74
505.17	10998.79
505.373	11279.36
505.576	11348.99
505.779	11559.93
505.982	11703.29
506.185	11770.87
506.387	12053.49
506.59	11856.89
506.793	12100.59
506.996	12182.51
507.198	12708.84
507.401	12616.68
507.604	12452.84
507.807	12975.08
508.009	12942.31
508.212	13114.34
508.415	13372.38
508.617	13356
508.82	13546.46
509.022	13413.34
509.225	13837.27
509.428	14087.12
509.63	13935.57
509.833	14285.78
510.035	14545.87
510.238	14527.44
510.44	14754.76
510.643	14955.46
510.845	15328.19
511.048	15084.48
511.25	15543.23
511.453	15549.37
511.655	16001.97
511.858	16006.07
512.06	16016.31
512.262	16477.1
512.465	16124.85
512.667	16581.55
512.87	16874.41
513.072	17042.34
513.274	17157.03
513.477	17632.16
513.679	17431.46
513.881	18021.27
514.084	18049.94
514.286	17585.05
514.488	18234.26
514.69	18793.36
514.893	18662.29
515.095	18955.15
515.297	19209.09
515.499	19184.52
515.701	19407.75
515.904	19884.92
516.106	20087.67
516.308	20140.92
516.51	20452.21
516.712	20554.61
516.914	20609.9
517.116	20884.33
517.318	21115.75
517.52	21472.1
517.722	21742.43
517.925	21724
518.127	22059.87
518.329	22274.9
518.531	22113.11
518.733	22405.97
518.935	22977.36
519.136	22725.46
519.338	23630.66
519.54	23595.84
519.742	23900.99
519.944	24023.87
520.146	24568.63
520.348	24554.29
520.55	24679.22
520.752	24589.11
520.954	24863.54
521.155	25193.26
521.357	25678.63
521.559	26045.21
521.761	26280.73
521.963	26329.88
522.164	26440.47
522.366	26708.76
522.568	26839.83
522.77	27173.64
522.971	27439.88
523.173	27382.54
523.375	27673.35
523.576	27935.49
523.778	27792.13
523.98	28240.64
524.181	28420.86
524.383	28635.89
524.584	29035.25
524.786	28777.2
524.988	29053.68
525.189	29375.21
525.391	29369.07
525.592	29958.88
525.794	30032.61
525.995	29985.51
526.197	30083.81
526.398	30104.29
526.6	30692.05
526.801	30696.15
527.003	30862.04
527.204	30808.79
527.406	31398.6
527.607	31232.72
527.808	31572.68
528.01	31374.03
528.211	31498.95
528.412	32371.39
528.614	32168.64
528.815	31877.83
529.016	32629.43
529.218	32285.37
529.419	32373.44
529.62	32639.67
529.822	32494.27
530.023	32629.43
530.224	32619.19
530.425	32881.33
530.626	32350.91
530.828	32408.25
531.029	33323.69
531.23	32764.6
531.431	32735.93
531.632	33075.89
531.833	33161.9
532.035	33342.13
532.236	33643.18
532.437	33532.59
532.638	33305.26
532.839	33360.56
533.04	33927.84
533.241	33632.94
533.442	33794.73
533.643	33792.68
533.844	33573.55
534.045	33962.66
534.246	33493.68
534.447	34245.28
534.648	33884.84
534.849	33845.93
535.05	33794.73
535.251	34183.84
535.451	33993.38
535.652	34079.39
535.853	33972.9
536.054	34112.16
536.255	33901.22
536.456	33780.39
536.657	34570.91
536.857	34329.25
537.058	34024.1
537.259	34458.27
537.46	34095.78
537.66	34067.11
537.861	33966.76
538.062	33989.28
538.263	34235.04
538.463	33870.5
538.664	34222.75
538.865	34239.14
539.065	34198.18
539.266	34282.14
539.466	34624.15
539.667	33641.13
539.868	34333.34
540.068	34108.07
540.269	34060.96
540.469	34380.45
540.67	34177.7
540.87	33985.19
541.071	34005.67
541.271	34218.66
541.472	34054.82
541.672	33862.31
541.873	33919.65
542.073	33893.03
542.274	34677.4
542.474	33981.09
542.675	34110.11
542.875	34450.08
543.075	34294.43
543.276	33778.34
543.476	34304.67
543.676	34216.61
543.877	34132.64
544.077	33878.69
544.277	34128.55
544.478	34020
544.678	33933.99
544.878	34173.6
545.078	33880.74
545.279	34056.87
545.479	34075.3
545.679	34083.49
545.879	33831.59
546.079	34175.65
546.28	34288.29
546.48	33839.78
546.68	34366.11
546.88	34327.2
547.08	33915.56
547.28	34376.35
547.48	33770.15
547.68	34034.34
547.88	33510.06
548.081	33858.21
548.281	33956.52
548.481	33698.47
548.681	34140.83
548.881	34263.71
549.081	33700.52
549.28	33888.93
549.48	34134.69
549.68	33610.41
549.88	34517.66
550.08	33964.71
550.28	33868.45
550.48	33755.82
550.68	34036.39
550.88	33677.99
551.08	34146.98
551.279	33813.16
551.479	33677.99
551.679	34181.79
551.879	33751.72
552.079	34126.5
552.278	33682.09
552.478	33643.18
552.678	33639.08
552.878	33880.74
553.077	33811.11
553.277	33499.82
553.477	33954.47
553.676	33684.14
553.876	33845.93
554.076	33325.74
554.275	34110.11
554.475	33079.99
554.674	33677.99
554.874	33665.7
555.074	33536.68
555.273	33290.93
555.473	33686.18
555.672	33538.73
555.872	33325.74
556.071	33606.31
556.271	33247.92
556.47	33133.23
556.67	32914.1
556.869	33477.29
557.068	32838.33
557.268	32811.7
557.467	32940.72
557.667	33338.03
557.866	33178.29
558.065	33026.74
558.265	32484.03
558.464	32572.09
558.663	33180.34
558.863	32559.8
559.062	32643.77
559.261	32064.19
559.461	32645.82
559.66	32352.96
559.859	32344.77
560.058	31775.43
560.258	32621.24
560.457	31926.98
560.656	32121.54
560.855	31908.55
561.054	31969.99
561.253	31904.45
561.453	32015.04
561.652	32070.34
561.851	31699.65
562.05	31701.7
562.249	31476.43
562.448	31728.33
562.647	31531.72
562.846	31525.58
563.045	31347.4
563.244	31140.56
563.443	31347.4
563.642	30669.53
563.841	31140.56
564.04	30880.47
564.239	31054.54
564.438	30939.86
564.637	30786.26
564.836	30714.58
565.035	30558.94
565.234	30767.83
565.432	30278.36
565.631	30280.41
565.83	30108.38
566.029	30352.09
566.228	29983.46
566.427	30010.08
566.625	29463.27
566.824	29684.45
567.023	29811.43
567.222	29272.81
567.42	29729.51
567.619	29549.29
567.818	29174.51
568.016	29577.96
568.215	29233.9
568.414	29201.13
568.612	29397.74
568.811	28883.7
569.01	28902.13
569.208	28754.68
569.407	28750.58
569.605	28171
569.804	28625.65
570.002	28603.13
570.201	28418.81
570.4	28080.89
570.598	27763.46
570.797	27595.53
570.995	28084.99
571.193	27210.51
571.392	27630.34
571.59	27538.18
571.789	27386.63
571.987	27448.07
572.186	27523.85
572.384	27411.21
572.582	27284.23
572.781	27419.4
572.979	26620.69
573.177	26553.11
573.376	26686.23
573.574	26149.66
573.772	26985.23
573.971	26376.98
574.169	26415.9
574.367	25901.86
574.565	26467.09
574.763	26049.31
574.962	26182.43
575.16	25563.94
575.358	25815.84
575.556	25520.93
575.754	26032.93
575.952	25596.71
576.151	25785.12
576.349	25512.74
576.547	25424.68
576.745	25414.44
576.943	25471.78
577.141	25103.15
577.339	25381.67
577.537	25013.04
577.735	25025.32
577.933	24578.87
578.131	24984.37
578.329	25047.85
578.527	24476.47
578.725	24611.64
578.923	24658.74
579.121	24345.4
579.319	24232.76
579.516	24222.52
579.714	24027.96
579.912	23892.8
580.11	24038.2
580.308	24177.47
580.506	24212.28
580.704	23343.94
580.901	23524.16
581.099	23794.5
581.297	23317.32
581.495	23341.89
581.692	23288.65
581.89	23491.4
582.088	23489.35
582.285	23051.08
582.483	23016.27
582.681	23331.65
582.878	22954.83
583.076	22780.75
583.274	22750.03
583.471	22723.41
583.669	22635.35
583.866	22383.45
584.064	22690.64
584.262	22090.59
584.459	22465.36
584.657	22252.38
584.854	22633.3
585.052	21881.69
585.249	22045.53
585.447	22045.53
585.644	21635.94
585.841	21920.6
586.039	22039.39
586.236	21777.25
586.434	21687.14
586.631	21365.6
586.828	21502.82
587.026	21580.64
587.223	21189.48
587.42	21306.21
587.618	20962.15
587.815	20939.63
588.012	21009.26
588.21	20810.61
588.407	21367.65
588.604	20763.5
588.801	20878.19
588.999	20964.2
589.196	20915.05
589.393	20523.89
589.59	20558.7
589.787	20403.06
589.984	20456.31
590.182	20247.41
590.379	20593.52
590.576	20138.87
590.773	20624.24
590.97	19987.32
591.167	20249.46
591.364	20099.96
591.561	20228.98
591.758	19768.19
591.955	19907.45
592.152	19753.85
592.349	19596.16
592.546	19850.11
592.743	19790.72
592.94	19493.76
593.137	19641.21
593.334	19436.42
593.531	19391.36
593.727	19360.64
593.924	19168.13
594.121	18977.67
594.318	19393.41
594.515	18979.72
594.712	19104.65
594.908	18908.04
595.105	19030.92
595.302	18525.07
595.499	18789.26
595.696	18604.94
595.892	18791.31
596.089	18770.83
596.286	18848.65
596.482	18441.11
596.679	18627.47
596.876	18619.28
597.072	18252.69
597.269	18307.99
597.466	18178.97
597.662	17937.3
597.859	18035.61
598.055	18025.37
598.252	17920.92
598.448	17703.84
598.645	18060.18
598.841	17662.88
599.038	17972.12
599.234	17728.41
599.431	17656.73
599.627	17320.87
599.824	17515.42
600.02	17595.29
600.217	17404.83
600.413	17281.95
600.609	17408.93
600.806	17320.87
601.002	17202.08
601.198	17324.96
601.395	16997.29
601.591	16997.29
601.787	16876.46
601.984	16946.09
602.18	16976.81
602.376	16767.91
602.572	16538.54
602.769	17032.1
602.965	16649.13
603.161	16677.8
603.357	16704.43
603.553	16585.65
603.75	16622.51
603.946	16505.77
604.142	16427.95
604.338	16241.59
604.534	16362.42
604.73	15961.02
604.926	15967.16
605.122	16143.28
605.318	16165.81
605.514	15985.59
605.71	15893.43
605.906	16016.31
606.102	15831.99
606.298	15707.07
606.494	15856.57
606.69	15756.22
606.886	15739.83
607.082	15420.35
607.278	15764.41
607.474	15504.32
607.67	15561.66
607.866	15455.17
608.062	15397.82
608.257	15354.82
608.453	15518.65
608.649	15158.21
608.845	14896.07
609.041	14930.89
609.236	15160.26
609.432	15213.51
609.628	15266.75
609.824	14898.12
610.019	14793.67
610.215	15004.61
610.411	14963.65
610.606	14894.02
610.802	14715.85
610.998	14851.02
611.193	14836.68
611.389	14556.11
611.584	14672.84
611.78	14570.44
611.976	14543.82
612.171	14775.24
612.367	14549.96
612.562	14500.81
612.758	14404.56
612.953	14312.4
613.149	14824.39
613.344	14279.63
613.539	14537.68
613.735	14203.86
613.93	14373.84
614.126	14259.15
614.321	14449.61
614.517	14029.78
614.712	14136.27
614.907	14183.38
615.103	14023.64
615.298	14005.2
615.493	13988.82
615.688	13521.88
615.884	14040.02
616.079	13487.07
616.274	13992.92
616.47	13874.13
616.665	13816.79
616.86	13708.25
617.055	13636.57
617.25	13820.89
617.445	13777.88
617.641	13593.56
617.836	13767.64
618.031	13403.1
618.226	13642.71
618.421	13368.29
618.616	13448.16
618.811	13130.72
619.006	13302.75
619.201	13353.95
619.396	13315.04
619.591	13192.16
619.786	13210.59
619.981	12884.97
620.176	13116.39
620.371	12801
620.566	12987.36
620.761	12714.98
620.956	12606.44
621.151	12606.44
621.346	12669.93
621.541	12467.18
621.735	12600.3
621.93	12434.41
622.125	12409.84
622.32	12151.79
622.515	12260.34
622.709	12315.63
622.904	12260.34
623.099	12119.03
623.294	12112.88
623.488	11873.27
623.683	11994.1
623.878	11688.95
624.072	11983.86
624.267	11875.32
624.462	11809.78
624.656	11609.08
624.851	11580.41
625.046	11508.73
625.24	11441.15
625.435	11267.07
625.629	11305.98
625.824	11377.66
626.018	11142.14
626.213	10939.4
626.407	11090.95
626.602	10849.29
626.796	11088.9
626.991	10791.94
627.185	10832.9
627.38	10750.98
627.574	10648.58
627.768	10490.89
627.963	10644.49
628.157	10372.11
628.352	10609.67
628.546	10189.84
628.74	10488.84
628.935	10308.62
629.129	10515.47
629.323	10124.3
629.517	10238.99
629.712	10193.94
629.906	9886.74
630.1	9860.12
630.294	9825.3
630.489	9878.55
630.683	9894.93
630.877	9632.79
631.071	9731.09
631.265	9724.95
631.459	9575.45
631.653	9640.98
631.848	9563.16
632.042	9468.95
632.236	9417.75
632.43	9282.59
632.624	9344.03
632.818	9268.25
633.012	9194.53
633.206	9108.51
633.4	9114.66
633.594	9178.14
633.788	8950.82
633.982	9079.84
634.176	9090.08
634.369	8805.41
634.563	8703.01
634.757	8807.46
634.951	8942.63
635.145	8766.5
635.339	8909.86
635.533	8676.39
635.726	8713.25
635.92	8518.7
636.114	8373.29
636.308	8285.23
636.501	8389.67
636.695	8428.59
636.889	8262.7
637.083	8358.96
637.276	8178.73
637.47	8145.97
637.664	8277.04
637.857	8070.19
638.051	7963.7
638.244	7912.5
638.438	8029.23
638.632	8102.96
638.825	7750.71
639.019	7711.8
639.212	7648.31
639.406	7617.59
639.599	7674.93
639.793	7586.87
639.986	7576.63
640.18	7562.3
640.373	7474.23
640.567	7365.69
640.76	7566.39
640.954	7562.3
641.147	7283.77
641.34	7275.58
641.534	7152.7
641.727	7187.52
641.92	7212.09
642.114	7263.29
642.307	7087.17
642.5	7218.24
642.694	6865.99
642.887	6777.92
643.08	6900.8
643.273	6988.86
643.467	6851.65
643.66	6794.31
643.853	6872.13
644.046	6775.88
644.239	6612.04
644.432	6564.93
644.626	6671.43
644.819	6544.45
645.012	6632.52
645.205	6546.5
645.398	6526.02
645.591	6399.05
645.784	6407.24
645.977	6353.99
646.17	6341.71
646.363	6210.64
646.556	6265.93
646.749	6249.55
646.942	6319.18
647.135	6200.4
647.328	6005.84
647.521	6065.23
647.714	5979.22
647.907	6077.52
648.099	6014.03
648.292	5973.07
648.485	5946.45
648.678	5798.99
648.871	6050.89
649.064	5792.85
649.256	5844.05
649.449	5770.32
649.642	5784.66
649.835	5809.23
650.027	5622.87
650.22	5653.59
650.413	5543
650.605	5678.16
650.798	5465.18
650.991	5381.21
651.183	5549.14
651.376	5540.95
651.568	5538.9
651.761	5319.77
651.954	5516.37
652.146	5334.11
652.339	5452.89
652.531	5309.53
652.724	5149.79
652.916	5297.24
653.109	5215.32
653.301	5252.19
653.494	5141.6
653.686	5155.93
653.879	5168.22
654.071	5160.03
654.263	4992.09
654.456	4985.95
654.648	5076.06
654.84	5114.97
655.033	5018.72
655.225	4992.09
655.417	4803.68
655.61	4848.74
655.802	4869.22
655.994	4988
656.186	4633.7
656.379	4768.87
656.571	4623.46
656.763	4533.35
656.955	4732
657.148	4697.19
657.34	4797.54
657.532	4676.71
657.724	4684.9
657.916	4678.76
658.108	4555.88
658.3	4500.58
658.492	4584.55
658.684	4445.29
658.876	4387.94
659.068	4496.49
659.26	4379.75
659.452	4402.28
659.644	4461.67
659.836	4385.9
660.028	4361.32
660.22	4308.07
660.412	4316.26
660.604	4195.43
660.796	4334.7
660.988	4260.97
661.18	4215.91
661.372	4144.24
661.563	4203.63
661.755	4236.39
661.947	4201.58
662.139	4156.52
662.331	4029.55
662.522	4033.65
662.714	4039.79
662.906	4043.88
663.097	3994.73
663.289	3933.29
663.481	3912.81
663.673	4011.12
663.864	3994.73
664.056	3824.75
664.247	3857.52
664.439	3978.35
664.631	3892.34
664.822	3959.92
665.014	3763.31
665.205	3888.24
665.397	3959.92
665.588	3826.8
665.78	3861.62
665.971	3873.9
666.163	3802.22
666.354	3800.18
666.546	3816.56
666.737	3714.16
666.929	3730.55
667.12	3716.21
667.311	3732.59
667.503	3705.97
667.694	3705.97
667.885	3593.33
668.077	3679.35
668.268	3646.58
668.459	3497.08
668.651	3687.54
668.842	3603.57
669.033	3443.83
669.224	3431.54
669.416	3660.91
669.607	3648.63
669.798	3550.32
669.989	3554.42
670.18	3505.27
670.371	3531.89
670.563	3417.21
670.754	3513.46
670.945	3531.89
671.136	3535.99
671.327	3267.7
671.518	3525.75
671.709	3523.7
671.9	3388.53
672.091	3468.41
672.282	3351.67
672.473	3404.92
672.664	3488.89
672.855	3298.42
673.046	3406.97
673.237	3411.06
673.428	3386.49
673.619	3486.84
673.809	3335.29
674	3419.25
674.191	3402.87
674.382	3226.75
674.573	3347.58
674.764	3439.73
674.954	3492.98
675.145	3277.94
675.336	3419.25
675.527	3372.15
675.717	3331.19
675.908	3249.27
676.099	3333.24
676.289	3490.93
676.48	3341.43
676.671	3226.75
676.861	3351.67
677.052	3232.89
677.243	3282.04
677.433	3355.77
677.624	3363.96
677.814	3406.97
678.005	3286.14
678.195	3368.06
678.386	3253.37
678.576	3267.7
678.767	3191.93
678.957	3441.78
679.148	3400.82
679.338	3345.53
679.529	3251.32
679.719	3386.49
679.909	3200.12
680.1	3347.58
680.29	3411.06
680.481	3271.8
680.671	3331.19
680.861	3228.79
681.052	3298.42
681.242	3257.46
681.432	3224.7
681.622	3251.32
681.813	3261.56
682.003	3214.46
682.193	3189.88
682.383	3230.84
682.573	3363.96
682.764	3310.71
682.954	3265.66
683.144	3345.53
683.334	3290.23
683.524	3323
683.714	3216.51
683.904	3243.13
684.094	3439.73
684.284	3282.04
684.474	3398.77
684.664	3275.9
684.854	3241.08
685.044	3279.99
685.234	3284.09
685.424	3230.84
685.614	3220.6
685.804	3232.89
685.994	3245.18
686.184	3216.51
686.374	3265.66
686.564	3282.04
686.753	3136.63
686.943	3351.67
687.133	3150.97
687.323	3236.99
687.513	3165.31
687.702	3210.36
687.892	3165.31
688.082	3269.75
688.272	3177.59
688.461	3114.11
688.651	3265.66
688.841	3071.1
689.03	3079.29
689.22	3009.66
689.41	3101.82
689.599	3046.52
689.789	3087.48
689.979	3042.43
690.168	3060.86
690.358	3030.14
690.547	3044.48
690.737	2995.32
690.926	2960.51
691.116	2862.21
691.305	2819.2
691.495	3040.38
691.684	2878.59
691.874	2962.56
692.063	3038.33
692.252	3021.95
692.442	2909.31
692.631	2718.85
692.82	2901.12
693.01	2796.67
693.199	2774.14
693.388	2735.23
693.578	2759.81
693.767	2927.74
693.956	2894.97
694.146	2813.06
694.335	2749.57
694.524	2792.58
694.713	2686.08
694.902	2690.18
695.092	2690.18
695.281	2581.64
695.47	2823.3
695.659	2692.23
695.848	2741.38
696.037	2684.03
696.226	2839.68
696.415	2679.94
696.604	2776.19
696.793	2690.18
696.982	2745.47
697.171	2794.62
697.36	2681.99
697.549	2692.23
697.738	2665.6
697.927	2636.93
698.116	2706.56
698.305	2659.46
698.494	2700.42
698.683	2765.95
698.872	2665.6
699.061	2583.68
699.25	2684.03
699.438	2659.46
699.627	2696.32
699.816	2774.14
700.005	2755.71
700.193	2729.09
700.382	2727.04
700.571	2712.71
700.76	2673.79
700.948	2706.56
701.137	2720.9
701.326	2753.66
701.514	2647.17
701.703	2634.88
701.892	2837.63
702.08	2813.06
702.269	2624.64
702.457	2776.19
702.646	2745.47
702.834	2905.21
703.023	2673.79
703.212	2796.67
703.4	2677.89
703.589	2843.78
703.777	2829.44
703.965	2690.18
704.154	2729.09
704.342	2753.66
704.531	2897.02
704.719	2681.99
704.907	2737.28
705.096	2739.33
705.284	2806.91
705.472	2806.91
705.661	2792.58
705.849	2688.13
706.037	2673.79
706.226	2829.44
706.414	2821.25
706.602	2825.34
706.79	2737.28
706.979	2794.62
707.167	2796.67
707.355	2757.76
707.543	2757.76
707.731	2827.39
707.919	2759.81
708.107	2745.47
708.296	2710.66
708.484	2675.84
708.672	2888.83
708.86	2909.31
709.048	2894.97
709.236	2878.59
709.424	2872.45
709.612	2815.1
709.8	2880.64
709.988	2780.29
710.176	2847.87
710.364	2946.17
710.551	2964.61
710.739	2847.87
710.927	2731.14
711.115	2876.54
711.303	2819.2
711.491	2796.67
711.679	2956.41
711.866	2931.84
712.054	2905.21
712.242	2927.74
712.43	2956.41
712.617	3056.76
712.805	2964.61
712.993	2968.7
713.181	2880.64
713.368	2978.94
713.556	2954.37
713.744	2837.63
713.931	3148.92
714.119	3064.96
714.306	3085.44
714.494	3052.67
714.682	2927.74
714.869	2915.45
715.057	3148.92
715.244	2901.12
715.432	3187.83
715.619	2946.17
715.807	2993.28
715.994	3005.56
716.182	2974.85
716.369	3009.66
716.556	3064.96
716.744	3026.04
716.931	3071.1
717.119	3153.02
717.306	3093.63
717.493	3077.24
717.681	2966.65
717.868	3087.48
718.055	3200.12
718.242	3077.24
718.43	3189.88
718.617	3017.85
718.804	3132.54
718.991	3157.11
719.179	3077.24
719.366	3144.83
719.553	3153.02
719.74	3206.27
719.927	3136.63
720.114	3169.4
720.301	3198.07
720.488	3159.16
720.676	3177.59
720.863	3101.82
721.05	3216.51
721.237	3200.12
721.424	3220.6
721.611	3171.45
721.798	3222.65
721.985	3271.8
722.172	3193.98
722.358	3271.8
722.545	3232.89
722.732	3185.79
722.919	3126.39
723.106	3095.68
723.293	3265.66
723.48	3122.3
723.667	3200.12
723.853	3179.64
724.04	3140.73
724.227	3181.69
724.414	3230.84
724.6	3251.32
724.787	3370.1
724.974	3409.01
725.161	3249.27
725.347	3302.52
725.534	3333.24
725.72	3220.6
725.907	3279.99
726.094	3239.03
726.28	3277.94
726.467	3259.51
726.653	3218.55
726.84	3355.77
727.027	3370.1
727.213	3200.12
727.4	3343.48
727.586	3501.17
727.773	3335.29
727.959	3308.66
728.145	3339.38
728.332	3208.31
728.518	3345.53
728.705	3349.62
728.891	3406.97
729.077	3327.1
729.264	3337.34
729.45	3337.34
729.636	3429.49
729.823	3302.52
730.009	3247.23
730.195	3423.35
730.382	3433.59
730.568	3435.64
730.754	3337.34
730.94	3366.01
731.126	3394.68
731.313	3511.41
731.499	3507.32
731.685	3484.79
731.871	3599.48
732.057	3417.21
732.243	3460.21
732.429	3406.97
732.615	3595.38
732.801	3406.97
732.987	3439.73
733.173	3462.26
733.359	3572.85
733.545	3386.49
733.731	3456.12
733.917	3325.05
734.103	3458.17
734.289	3384.44
734.475	3476.6
734.661	3609.72
734.847	3505.27
735.033	3439.73
735.219	3474.55
735.404	3474.55
735.59	3425.4
735.776	3499.13
735.962	3478.65
736.148	3589.24
736.333	3589.24
736.519	3501.17
736.705	3527.8
736.89	3531.89
737.076	3521.65
737.262	3439.73
737.447	3411.06
737.633	3404.92
737.819	3513.46
738.004	3390.58
738.19	3452.02
738.375	3368.06
738.561	3402.87
738.747	3464.31
738.932	3411.06
739.118	3488.89
739.303	3447.93
739.489	3452.02
739.674	3421.3
739.859	3329.14
740.045	3370.1
740.23	3458.17
740.416	3253.37
740.601	3413.11
740.786	3413.11
740.972	3411.06
741.157	3368.06
741.342	3384.44
741.528	3476.6
741.713	3363.96
741.898	3490.93
742.084	3327.1
742.269	3306.62
742.454	3296.38
742.639	3253.37
742.824	3279.99
743.01	3267.7
743.195	3337.34
743.38	3222.65
743.565	3257.46
743.75	3220.6
743.935	3189.88
744.12	3198.07
744.305	3210.36
744.49	3202.17
744.675	3155.07
744.86	3085.44
745.045	3130.49
745.23	3120.25
745.415	3126.39
745.6	3210.36
745.785	3140.73
745.97	3130.49
746.155	3091.58
746.34	3087.48
746.525	3017.85
746.71	3114.11
746.895	2964.61
747.079	2991.23
747.264	3019.9
747.449	2854.02
747.634	3046.52
747.819	2997.37
748.003	2976.89
748.188	2770.05
748.373	2921.6
748.557	2843.78
748.742	2874.49
748.927	2907.26
749.111	2835.58
749.296	2819.2
749.481	2796.67
749.665	2776.19
749.85	2729.09
750.034	2835.58
750.219	2763.9
750.404	2749.57
750.588	2716.8
750.773	2681.99
750.957	2835.58
751.141	2690.18
751.326	2661.51
751.51	2714.75
751.695	2593.92
751.879	2626.69
752.064	2641.03
752.248	2514.05
752.432	2557.06
752.617	2561.16
752.801	2577.54
752.985	2415.75
753.17	2579.59
753.354	2452.61
753.538	2462.85
753.722	2401.41
753.907	2385.03
754.091	2385.03
754.275	2405.51
754.459	2448.52
754.643	2409.61
754.828	2423.94
755.012	2354.31
755.196	2321.54
755.38	2305.16
755.564	2305.16
755.748	2282.63
755.932	2268.3
756.116	2186.38
756.3	2301.06
756.484	2161.8
756.668	2282.63
756.852	2194.57
757.036	2122.89
757.22	2116.75
757.404	2129.03
757.588	2133.13
757.772	2176.14
757.956	2145.42
758.14	2034.83
758.323	1989.77
758.507	2102.41
758.691	2104.46
758.875	2055.31
759.059	1948.81
759.242	1897.61
759.426	2032.78
759.61	1981.58
759.794	2053.26
759.977	2002.06
760.161	2030.73
760.345	2055.31
760.528	1991.82
760.712	1916.05
760.895	1827.98
761.079	1866.89
761.263	2000.01
761.446	1821.84
761.63	1836.17
761.813	1895.57
761.997	1895.57
762.18	1834.13
762.364	1701.01
762.547	1750.16
762.731	1889.42
762.914	1735.82
763.098	1780.88
763.281	1746.06
763.464	1813.65
763.648	1797.26
763.831	1643.67
764.015	1686.67
764.198	1725.58
764.381	1694.86
764.564	1744.02
764.748	1760.4
764.931	1680.53
765.114	1709.2
765.297	1789.07
765.481	1711.25
765.664	1719.44
765.847	1666.19
766.03	1696.91
766.213	1580.18
766.397	1639.57
766.58	1602.71
766.763	1594.51
766.946	1647.76
767.129	1459.35
767.312	1537.17
767.495	1535.12
767.678	1574.03
767.861	1526.93
768.044	1436.82
768.227	1578.13
768.41	1608.85
768.593	1557.65
768.776	1500.31
768.959	1569.94
769.142	1518.74
769.324	1494.16
769.507	1479.83
769.69	1420.44
769.873	1518.74
770.056	1584.27
770.239	1461.4
770.421	1506.45
770.604	1537.17
770.787	1367.19
770.97	1367.19
771.152	1414.29
771.335	1432.72
771.518	1338.52
771.7	1502.36
771.883	1322.13
772.066	1389.72
772.248	1377.43
772.431	1422.48
772.613	1412.25
772.796	1332.37
772.978	1340.57
773.161	1367.19
773.343	1287.32
773.526	1313.94
773.708	1295.51
773.891	1272.98
774.073	1227.93
774.256	1246.36
774.438	1322.13
774.621	1219.74
774.803	1295.51
774.985	1201.3
775.168	1234.07
775.35	1180.82
775.532	1199.26
775.715	1105.05
775.897	1205.4
776.079	1242.26
776.261	1158.3
776.444	1127.58
776.626	1123.48
776.808	1131.67
776.99	1182.87
777.173	1090.71
777.355	1174.68
777.537	1080.47
777.719	1121.43
777.901	1156.25
778.083	1133.72
778.265	1000.6
778.447	982.17
778.629	1064.09
778.811	1088.67
778.993	1072.28
779.175	1158.3
779.357	1080.47
779.539	1053.85
779.721	994.46
779.903	1117.34
780.085	1045.66
780.267	1070.23
780.449	992.41
780.631	992.41
780.812	943.26
780.994	982.17
781.176	857.25
781.358	769.18
781.54	894.11
781.721	928.92
781.903	978.08
782.085	775.33
782.267	871.58
782.448	820.38
782.63	945.31
782.812	894.11
782.993	912.54
783.175	883.87
783.357	918.68
783.538	978.08
783.72	824.48
783.901	857.25
784.083	834.72
784.264	822.43
784.446	726.18
784.627	728.22
784.809	705.7
784.99	791.71
785.172	746.66
785.353	808.09
785.535	812.19
785.716	775.33
785.897	699.55
786.079	724.13
786.26	711.84
786.441	771.23
786.623	660.64
786.804	736.42
786.985	687.26
787.167	789.66
787.348	681.12
787.529	666.78
787.71	787.61
787.891	722.08
788.073	664.74
788.254	707.74
788.435	763.04
788.616	666.78
788.797	670.88
788.978	699.55
789.159	654.5
789.34	650.4
789.522	607.39
789.703	586.91
789.884	644.26
790.065	609.44
790.246	580.77
790.427	578.72
790.607	734.37
790.788	560.29
790.969	584.87
791.15	556.19
791.331	574.63
791.512	502.95
791.693	543.91
791.874	677.02
792.054	691.36
792.235	543.91
792.416	482.47
792.597	523.43
792.778	564.39
792.958	478.37
793.139	545.95
793.32	568.48
793.5	488.61
793.681	541.86
793.862	568.48
794.042	326.82
794.223	449.7
794.404	513.19
794.584	466.08
794.765	539.81
794.945	507.04
795.126	513.19
795.306	466.08
795.487	548
795.667	484.52
795.848	537.76
796.028	398.5
796.209	507.04
796.389	560.29
796.57	484.52
796.75	404.64
796.93	423.08
797.111	472.23
797.291	427.17
797.471	429.22
797.652	494.76
797.832	466.08
798.012	533.67
798.192	384.16
798.373	418.98
798.553	418.98
798.733	369.83
798.913	347.3
799.093	369.83
799.274	461.99
799.454	433.32
799.634	492.71
799.814	472.23
799.994	388.26
800.174	380.07
800.354	441.51
800.534	273.57
800.714	410.79
800.894	378.02
801.074	390.31
801.254	378.02
801.434	349.35
801.614	406.69
801.794	412.84
801.974	1115.29
802.154	289.96
802.334	341.16
802.514	386.21
802.693	373.92
802.873	349.35
803.053	439.46
803.233	363.69
803.413	396.45
803.592	439.46
803.772	359.59
803.952	375.97
804.131	292.01
804.311	382.12
804.491	365.73
804.67	308.39
804.85	249
805.03	341.16
805.209	378.02
805.389	371.88
805.568	298.15
805.748	302.25
805.928	382.12
806.107	378.02
806.287	398.5
806.466	314.53
806.646	277.67
806.825	316.58
807.004	222.38
807.184	365.73
807.363	298.15
807.543	324.77
807.722	306.34
807.901	330.92
808.081	367.78
808.26	259.24
808.439	337.06
808.619	308.39
808.798	304.29
808.977	308.39
809.156	410.79
809.336	335.01
809.515	300.2
809.694	197.8
809.873	205.99
810.052	361.64
810.231	302.25
810.411	238.76
810.59	408.74
810.769	279.72
810.948	310.44
811.127	273.57
811.306	341.16
811.485	326.82
811.664	318.63
811.843	277.67
812.022	224.42
812.201	201.9
812.38	226.47
812.559	253.09
812.737	232.62
812.916	226.47
813.095	244.9
813.274	275.62
813.453	181.42
813.632	240.81
813.811	339.11
813.989	265.38
814.168	259.24
814.347	185.51
814.526	302.25
814.704	261.29
814.883	287.91
815.062	279.72
815.24	238.76
815.419	255.14
815.598	193.7
815.776	205.99
815.955	265.38
816.133	257.19
816.312	191.66
816.49	230.57
816.669	261.29
816.847	212.14
817.026	300.2
817.204	117.93
817.383	210.09
817.561	167.08
817.74	232.62
817.918	246.95
818.097	273.57
818.275	175.27
818.453	175.27
818.632	271.53
818.81	208.04
818.988	273.57
819.167	154.79
819.345	201.9
819.523	175.27
819.701	238.76
819.879	253.09
820.058	244.9
820.236	312.49
820.414	195.75
820.592	201.9
820.77	240.81
820.948	171.18
821.127	226.47
821.305	242.85
821.483	226.47
821.661	183.46
821.839	236.71
822.017	171.18
822.195	148.65
822.373	298.15
822.551	177.32
822.729	208.04
822.907	175.27
823.085	146.6
823.262	228.52
823.44	173.22
823.618	185.51
823.796	169.13
823.974	167.08
824.152	148.65
824.329	234.66
824.507	232.62
824.685	249
824.863	91.31
825.04	144.55
825.218	244.9
825.396	179.37
825.574	126.12
825.751	72.87
825.929	191.66
826.107	185.51
826.284	220.33
826.462	189.61
826.639	216.23
826.817	124.07
826.994	156.84
827.172	146.6
827.349	181.42
827.527	58.54
827.704	158.89
827.882	173.22
828.059	195.75
828.237	132.26
828.414	154.79
828.591	64.68
828.769	175.27
828.946	140.46
829.124	158.89
829.301	187.56
829.478	138.41
829.655	95.4
829.833	142.5
830.01	107.69
830.187	130.22
830.364	142.5
830.542	132.26
830.719	255.14
830.896	167.08
831.073	91.31
831.25	93.35
831.427	179.37
831.604	191.66
831.782	93.35
831.959	212.14
832.136	126.12
832.313	195.75
832.49	103.59
832.667	154.79
832.844	97.45
833.021	144.55
833.198	142.5
833.374	189.61
833.551	119.98
833.728	150.7
833.905	111.78
834.082	31.91
834.259	87.21
834.436	208.04
834.612	124.07
834.789	142.5
834.966	87.21
835.143	138.41
835.319	122.02
835.496	122.02
835.673	107.69
835.85	79.02
836.026	154.79
836.203	136.36
836.38	109.74
836.556	105.64
836.733	122.02
836.909	140.46
837.086	54.44
837.262	72.87
837.439	99.5
837.616	66.73
837.792	74.92
837.968	162.98
838.145	48.3
838.321	74.92
838.498	134.31
838.674	89.26
838.851	64.68
839.027	109.74
839.203	109.74
839.38	132.26
839.556	87.21
839.732	183.46
839.909	177.32
840.085	115.88
840.261	40.11
840.437	97.45
840.614	83.11
840.79	81.07
840.966	111.78
841.142	68.78
841.318	142.5
841.494	91.31
841.671	171.18
841.847	44.2
842.023	70.83
842.199	142.5
842.375	140.46
842.551	140.46
842.727	81.07
842.903	128.17
843.079	7.34
843.255	128.17
843.431	97.45
843.607	56.49
843.783	117.93
843.959	140.46
844.134	21.67
844.31	89.26
844.486	74.92
844.662	144.55
844.838	97.45
845.013	128.17
845.189	85.16
845.365	70.83
845.541	99.5
845.716	101.55
845.892	122.02
846.068	79.02
846.244	70.83
846.419	103.59
846.595	29.87
846.77	48.3
846.946	105.64
847.122	70.83
847.297	74.92
847.473	111.78
847.648	11.43
847.824	122.02
847.999	5.29
848.175	19.63
848.35	89.26
848.526	72.87
848.701	103.59
848.876	144.55
849.052	66.73
849.227	-29.52
849.403	93.35
849.578	56.49
849.753	72.87
849.929	126.12
850.104	-2.9
850.279	85.16
850.454	93.35
850.63	91.31
850.805	-13.14
850.98	122.02
851.155	40.11
851.33	140.46
851.505	46.25
851.681	171.18
851.856	42.15
852.031	70.83
852.206	91.31
852.381	40.11
852.556	66.73
852.731	46.25
852.906	33.96
853.081	58.54
853.256	109.74
853.431	62.63
853.606	87.21
853.781	-56.15
853.956	21.67
854.131	29.87
854.305	44.2
854.48	56.49
854.655	83.11
854.83	33.96
855.005	85.16
855.18	52.39
855.354	1.19
855.529	44.2
855.704	15.53
855.879	113.83
856.053	-45.91
856.228	58.54
856.403	54.44
856.577	42.15
856.752	-54.1
856.926	154.79
857.101	89.26
857.276	50.35
857.45	101.55
857.625	165.03
857.799	50.35
857.974	68.78
858.148	42.15
858.323	91.31
858.497	54.44
858.672	17.58
858.846	33.96
859.02	103.59
859.195	-11.09
859.369	117.93
859.543	44.2
859.718	-11.09
859.892	68.78
860.066	52.39
860.241	-52.05
860.415	-21.33
860.589	15.53
860.763	99.5
860.938	31.91
861.112	93.35
861.286	66.73
861.46	29.87
861.634	42.15
861.808	105.64
861.982	38.06
862.157	33.96
862.331	42.15
862.505	111.78
862.679	95.4
862.853	-15.19
863.027	70.83
863.201	175.27
863.375	-19.29
863.549	79.02
863.722	58.54
863.896	97.45
864.07	17.58
864.244	93.35
864.418	81.07
864.592	117.93
864.766	56.49
864.939	-43.86
865.113	95.4
865.287	5.29
865.461	56.49
865.634	56.49
865.808	79.02
865.982	74.92
866.156	46.25
866.329	-41.81
866.503	68.78
866.676	48.3
866.85	74.92
867.024	33.96
867.197	126.12
867.371	134.31
867.544	40.11
867.718	68.78
867.891	130.22
868.065	-23.38
868.238	19.63
868.412	11.43
868.585	62.63
868.759	38.06
868.932	79.02
869.105	9.39
869.279	83.11
869.452	48.3
869.625	17.58
869.799	1.19
869.972	-19.29
870.145	-13.14
870.319	74.92
870.492	15.53
870.665	54.44
870.838	7.34
871.011	56.49
871.185	23.72
871.358	7.34
871.531	74.92
871.704	11.43
871.877	40.11
872.05	17.58
872.223	-13.14
872.396	3.24
872.569	132.26
872.742	21.67
872.915	76.97
873.088	-19.29
873.261	60.59
873.434	85.16
873.607	1.19
873.78	25.77
873.953	17.58
874.126	44.2
874.299	42.15
874.471	42.15
874.644	46.25
874.817	87.21
874.99	91.31
875.163	-21.33
875.335	117.93
875.508	58.54
875.681	83.11
875.853	13.48
876.026	9.39
876.199	-9.05
876.371	72.87
876.544	-58.2
876.717	-11.09
876.889	36.01
877.062	11.43
877.234	25.77
877.407	-2.9
877.579	-4.95
877.752	36.01
877.924	83.11
878.097	54.44
878.269	-15.19
878.442	76.97
878.614	36.01
878.786	66.73
878.959	46.25
879.131	-25.43
879.303	-17.24
879.476	31.91
879.648	76.97
879.82	-0.85
879.993	-54.1
880.165	25.77
880.337	-66.39
880.509	-31.57
880.681	-66.39
880.854	15.53
881.026	-0.85
881.198	111.78
881.37	58.54
881.542	42.15
881.714	-27.48
881.886	27.82
882.058	81.07
882.23	68.78
882.402	64.68
882.574	33.96
882.746	29.87
882.918	31.91
883.09	48.3
883.262	-11.09
883.434	9.39
883.606	-7
883.778	72.87
883.95	107.69
884.122	11.43
884.293	-2.9
884.465	25.77
884.637	79.02
884.809	-19.29
884.98	15.53
885.152	-11.09
885.324	-7
885.496	-9.05
885.667	27.82
885.839	-50
886.011	76.97
886.182	85.16
886.354	76.97
886.525	79.02
886.697	17.58
886.869	-70.48
887.04	31.91
887.212	11.43
887.383	126.12
887.555	83.11
887.726	52.39
887.897	9.39
888.069	17.58
888.24	23.72
888.412	-39.76
888.583	27.82
888.754	81.07
888.926	-27.48
889.097	-35.67
889.268	-62.29
889.44	-4.95
889.611	-15.19
889.782	-2.9
889.953	46.25
890.125	64.68
890.296	42.15
890.467	15.53
890.638	81.07
890.809	1.19
890.98	42.15
891.151	58.54
891.323	7.34
891.494	-27.48
891.665	1.19
891.836	85.16
892.007	-25.43
892.178	52.39
892.349	19.63
892.52	44.2
892.691	33.96
892.862	-15.19
893.032	-95.06
893.203	62.63
893.374	62.63
893.545	13.48
893.716	-41.81
893.887	11.43
894.057	54.44
894.228	-23.38
894.399	54.44
894.57	7.34
894.74	25.77
894.911	11.43
895.082	15.53
895.253	-23.38
895.423	-25.43
895.594	-2.9
895.764	36.01
895.935	17.58
896.106	109.74
896.276	-21.33
896.447	56.49
896.617	7.34
896.788	33.96
896.958	1.19
897.129	-27.48
897.299	42.15
897.47	-19.29
897.64	19.63
897.81	7.34
897.981	-2.9
898.151	15.53
898.322	52.39
898.492	111.78
898.662	27.82
898.832	-21.33
899.003	27.82
899.173	23.72
899.343	7.34
899.513	-11.09
