Data from USB4F104151__88__12-24-31-704.txt Node

Date: Fri Mar 14 12:24:31 EDT 2025
User: louis
Spectrometer: USB4F10415
Trigger mode: 4
Integration Time (sec): 3.500000E-2
Scans to average: 1
Electric dark correction enabled: true
Nonlinearity correction enabled: false
Boxcar width: 0
XAxis mode: Wavelengths
Number of Pixels in Spectrum: 3648
>>>>>Begin Spectral Data<<<<<
178.204	-143.19
178.424	-143.19
178.644	-143.19
178.864	-173.91
179.084	-137.04
179.304	30.89
179.524	-57.17
179.744	-63.32
179.964	26.79
180.184	59.56
180.404	-65.36
180.624	10.41
180.844	57.51
181.064	0.17
181.283	26.79
181.503	18.6
181.723	-44.88
181.943	-38.74
182.163	47.27
182.383	-12.12
182.602	80.04
182.822	-10.07
183.042	-36.69
183.262	55.47
183.482	28.84
183.701	20.65
183.921	51.37
184.141	32.94
184.361	8.36
184.58	-75.6
184.8	20.65
185.02	-3.93
185.239	-28.5
185.459	61.61
185.679	55.47
185.898	39.08
186.118	65.71
186.338	45.23
186.557	53.42
186.777	-61.27
186.997	-24.4
187.216	-48.98
187.436	57.51
187.655	-14.17
187.875	63.66
188.095	37.03
188.314	55.47
188.534	39.08
188.753	34.99
188.973	86.19
189.192	88.23
189.412	47.27
189.631	24.75
189.851	12.46
190.07	90.28
190.29	22.7
190.509	28.84
190.729	4.27
190.948	41.13
191.168	204.97
191.387	14.51
191.607	75.95
191.826	82.09
192.045	47.27
192.265	22.7
192.484	-14.17
192.704	12.46
192.923	-51.03
193.142	106.67
193.362	92.33
193.581	22.7
193.8	73.9
194.02	16.55
194.239	-34.64
194.458	30.89
194.678	55.47
194.897	18.6
195.116	-24.4
195.335	-3.93
195.555	71.85
195.774	-14.17
195.993	51.37
196.212	22.7
196.432	-10.07
196.651	-28.5
196.87	24.75
197.089	32.94
197.308	22.7
197.528	26.79
197.747	22.7
197.966	57.51
198.185	137.38
198.404	-16.21
198.623	24.75
198.842	45.23
199.062	41.13
199.281	30.89
199.5	-48.98
199.719	18.6
199.938	20.65
200.157	47.27
200.376	30.89
200.595	53.42
200.814	53.42
201.033	-22.36
201.252	86.19
201.471	12.46
201.69	41.13
201.909	-1.88
202.128	-20.31
202.347	63.66
202.566	22.7
202.785	32.94
203.004	0.17
203.223	135.34
203.442	18.6
203.661	-30.55
203.879	-16.21
204.098	-16.21
204.317	0.17
204.536	14.51
204.755	-24.4
204.974	75.95
205.193	41.13
205.411	41.13
205.63	20.65
205.849	55.47
206.068	-5.97
206.287	-5.97
206.505	67.75
206.724	28.84
206.943	41.13
207.162	-1.88
207.381	-48.98
207.599	26.79
207.818	16.55
208.037	24.75
208.255	69.8
208.474	-14.17
208.693	53.42
208.911	106.67
209.13	14.51
209.349	45.23
209.567	49.32
209.786	57.51
210.005	-1.88
210.223	43.18
210.442	12.46
210.661	-34.64
210.879	14.51
211.098	8.36
211.316	47.27
211.535	-40.79
211.753	-61.27
211.972	22.7
212.191	-8.02
212.409	-5.97
212.628	80.04
212.846	28.84
213.065	14.51
213.283	73.9
213.502	10.41
213.72	22.7
213.938	-22.36
214.157	41.13
214.375	55.47
214.594	-26.45
214.812	-51.03
215.031	75.95
215.249	80.04
215.467	-30.55
215.686	71.85
215.904	41.13
216.122	-55.12
216.341	133.29
216.559	100.52
216.778	98.47
216.996	100.52
217.214	-1.88
217.432	-48.98
217.651	10.41
217.869	57.51
218.087	55.47
218.306	-22.36
218.524	2.22
218.742	-24.4
218.96	30.89
219.179	77.99
219.397	47.27
219.615	112.81
219.833	75.95
220.051	12.46
220.27	73.9
220.488	102.57
220.706	-24.4
220.924	32.94
221.142	77.99
221.36	92.33
221.578	37.03
221.796	53.42
222.015	-20.31
222.233	47.27
222.451	96.43
222.669	-51.03
222.887	108.71
223.105	-34.64
223.323	-40.79
223.541	28.84
223.759	18.6
223.977	-40.79
224.195	88.23
224.413	61.61
224.631	80.04
224.849	26.79
225.067	96.43
225.285	22.7
225.503	71.85
225.721	-71.51
225.939	41.13
226.157	24.75
226.375	71.85
226.592	14.51
226.81	-40.79
227.028	47.27
227.246	49.32
227.464	34.99
227.682	129.19
227.9	53.42
228.117	16.55
228.335	55.47
228.553	71.85
228.771	49.32
228.989	55.47
229.206	90.28
229.424	4.27
229.642	8.36
229.86	14.51
230.077	90.28
230.295	0.17
230.513	114.86
230.731	45.23
230.948	53.42
231.166	63.66
231.384	-12.12
231.601	49.32
231.819	20.65
232.037	4.27
232.254	-38.74
232.472	45.23
232.689	45.23
232.907	-12.12
233.125	30.89
233.342	-26.45
233.56	-16.21
233.777	47.27
233.995	-12.12
234.213	71.85
234.43	16.55
234.648	53.42
234.865	12.46
235.083	92.33
235.3	-24.4
235.518	49.32
235.735	94.38
235.953	90.28
236.17	-1.88
236.388	14.51
236.605	-30.55
236.822	47.27
237.04	32.94
237.257	63.66
237.475	-8.02
237.692	51.37
237.909	69.8
238.127	-1.88
238.344	0.17
238.562	20.65
238.779	-42.84
238.996	-53.08
239.214	71.85
239.431	110.76
239.648	28.84
239.865	55.47
240.083	4.27
240.3	22.7
240.517	14.51
240.735	16.55
240.952	90.28
241.169	57.51
241.386	-1.88
241.603	-46.93
241.821	-48.98
242.038	47.27
242.255	59.56
242.472	-79.7
242.689	116.9
242.907	16.55
243.124	12.46
243.341	88.23
243.558	-40.79
243.775	-67.41
243.992	8.36
244.209	39.08
244.426	106.67
244.643	45.23
244.86	43.18
245.078	20.65
245.295	-14.17
245.512	82.09
245.729	-30.55
245.946	26.79
246.163	63.66
246.38	8.36
246.597	34.99
246.814	28.84
247.031	86.19
247.248	-12.12
247.464	63.66
247.681	-20.31
247.898	24.75
248.115	73.9
248.332	2.22
248.549	96.43
248.766	59.56
248.983	12.46
249.2	4.27
249.417	39.08
249.633	-8.02
249.85	49.32
250.067	-1.88
250.284	88.23
250.501	37.03
250.717	-24.4
250.934	-28.5
251.151	10.41
251.368	-32.6
251.585	16.55
251.801	18.6
252.018	-14.17
252.235	-1.88
252.451	-1.88
252.668	106.67
252.885	14.51
253.102	47.27
253.318	49.32
253.535	18.6
253.752	2.22
253.968	-1.88
254.185	-10.07
254.401	14.51
254.618	57.51
254.835	20.65
255.051	14.51
255.268	65.71
255.484	-32.6
255.701	-26.45
255.917	-18.26
256.134	-20.31
256.351	65.71
256.567	14.51
256.784	37.03
257	-46.93
257.217	30.89
257.433	-30.55
257.65	-1.88
257.866	98.47
258.082	45.23
258.299	37.03
258.515	8.36
258.732	-91.99
258.948	26.79
259.165	47.27
259.381	10.41
259.597	-20.31
259.814	94.38
260.03	20.65
260.246	-18.26
260.463	86.19
260.679	96.43
260.895	45.23
261.112	41.13
261.328	49.32
261.544	-38.74
261.761	88.23
261.977	43.18
262.193	-85.84
262.409	47.27
262.626	-26.45
262.842	43.18
263.058	30.89
263.274	47.27
263.49	12.46
263.707	39.08
263.923	24.75
264.139	-26.45
264.355	30.89
264.571	51.37
264.787	-34.64
265.004	24.75
265.22	-24.4
265.436	26.79
265.652	-53.08
265.868	53.42
266.084	24.75
266.3	53.42
266.516	-22.36
266.732	-22.36
266.948	63.66
267.164	-5.97
267.38	73.9
267.596	41.13
267.812	118.95
268.028	8.36
268.244	47.27
268.46	24.75
268.676	-8.02
268.892	43.18
269.108	-10.07
269.324	-77.65
269.54	-14.17
269.756	41.13
269.972	-48.98
270.188	-10.07
270.403	37.03
270.619	-24.4
270.835	20.65
271.051	34.99
271.267	-89.94
271.483	47.27
271.698	30.89
271.914	12.46
272.13	0.17
272.346	-51.03
272.562	-5.97
272.777	-53.08
272.993	-12.12
273.209	-5.97
273.425	22.7
273.64	-28.5
273.856	63.66
274.072	51.37
274.287	-10.07
274.503	47.27
274.719	20.65
274.934	32.94
275.15	4.27
275.366	34.99
275.581	14.51
275.797	12.46
276.012	80.04
276.228	22.7
276.444	32.94
276.659	45.23
276.875	-14.17
277.09	18.6
277.306	-55.12
277.521	59.56
277.737	41.13
277.952	51.37
278.168	73.9
278.383	47.27
278.599	-12.12
278.814	12.46
279.03	67.75
279.245	43.18
279.461	51.37
279.676	22.7
279.892	-18.26
280.107	100.52
280.322	22.7
280.538	67.75
280.753	-18.26
280.969	69.8
281.184	-38.74
281.399	65.71
281.615	53.42
281.83	-5.97
282.045	-10.07
282.26	-8.02
282.476	-12.12
282.691	69.8
282.906	24.75
283.122	2.22
283.337	-28.5
283.552	37.03
283.767	-26.45
283.983	53.42
284.198	-10.07
284.413	63.66
284.628	-8.02
284.843	37.03
285.058	55.47
285.274	98.47
285.489	-26.45
285.704	98.47
285.919	2.22
286.134	112.81
286.349	0.17
286.564	-8.02
286.779	100.52
286.995	4.27
287.21	-42.84
287.425	18.6
287.64	-32.6
287.855	24.75
288.07	47.27
288.285	12.46
288.5	41.13
288.715	39.08
288.93	28.84
289.145	-16.21
289.36	22.7
289.575	57.51
289.79	4.27
290.004	-24.4
290.219	69.8
290.434	-1.88
290.649	-46.93
290.864	63.66
291.079	80.04
291.294	53.42
291.509	65.71
291.724	-67.41
291.938	-1.88
292.153	51.37
292.368	-20.31
292.583	43.18
292.798	-28.5
293.012	43.18
293.227	-36.69
293.442	26.79
293.657	28.84
293.871	59.56
294.086	-65.36
294.301	77.99
294.516	45.23
294.73	55.47
294.945	37.03
295.16	8.36
295.374	57.51
295.589	63.66
295.804	63.66
296.018	55.47
296.233	45.23
296.447	-1.88
296.662	57.51
296.877	96.43
297.091	67.75
297.306	14.51
297.52	39.08
297.735	84.14
297.949	14.51
298.164	49.32
298.378	37.03
298.593	-20.31
298.807	41.13
299.022	26.79
299.236	16.55
299.451	88.23
299.665	39.08
299.88	96.43
300.094	26.79
300.309	49.32
300.523	55.47
300.737	41.13
300.952	55.47
301.166	4.27
301.381	14.51
301.595	45.23
301.809	8.36
302.024	8.36
302.238	0.17
302.452	-3.93
302.667	16.55
302.881	84.14
303.095	12.46
303.309	73.9
303.524	-14.17
303.738	-67.41
303.952	12.46
304.166	57.51
304.381	-20.31
304.595	166.06
304.809	22.7
305.023	63.66
305.237	16.55
305.452	0.17
305.666	45.23
305.88	20.65
306.094	82.09
306.308	16.55
306.522	0.17
306.736	12.46
306.95	57.51
307.164	-40.79
307.379	51.37
307.593	41.13
307.807	71.85
308.021	-14.17
308.235	104.62
308.449	-18.26
308.663	-24.4
308.877	88.23
309.091	-32.6
309.305	63.66
309.519	24.75
309.733	90.28
309.947	45.23
310.161	26.79
310.374	16.55
310.588	53.42
310.802	10.41
311.016	20.65
311.23	49.32
311.444	-26.45
311.658	63.66
311.872	55.47
312.085	80.04
312.299	121
312.513	39.08
312.727	57.51
312.941	-71.51
313.154	43.18
313.368	18.6
313.582	0.17
313.796	47.27
314.009	14.51
314.223	94.38
314.437	6.31
314.651	47.27
314.864	14.51
315.078	10.41
315.292	16.55
315.505	-38.74
315.719	0.17
315.933	8.36
316.146	37.03
316.36	82.09
316.573	82.09
316.787	65.71
317.001	41.13
317.214	16.55
317.428	14.51
317.641	-28.5
317.855	-16.21
318.068	28.84
318.282	-16.21
318.495	80.04
318.709	18.6
318.922	14.51
319.136	118.95
319.349	24.75
319.563	-24.4
319.776	0.17
319.99	61.61
320.203	-5.97
320.417	69.8
320.63	53.42
320.843	157.86
321.057	8.36
321.27	-16.21
321.483	47.27
321.697	112.81
321.91	12.46
322.124	20.65
322.337	49.32
322.55	34.99
322.763	0.17
322.977	65.71
323.19	10.41
323.403	98.47
323.617	26.79
323.83	57.51
324.043	20.65
324.256	-10.07
324.469	-24.4
324.683	77.99
324.896	49.32
325.109	10.41
325.322	-22.36
325.535	32.94
325.748	47.27
325.962	59.56
326.175	24.75
326.388	-20.31
326.601	127.14
326.814	10.41
327.027	47.27
327.24	55.47
327.453	-69.46
327.666	-34.64
327.879	65.71
328.092	20.65
328.305	57.51
328.518	2.22
328.731	49.32
328.944	-3.93
329.157	84.14
329.37	0.17
329.583	22.7
329.796	123.05
330.009	-61.27
330.222	0.17
330.435	41.13
330.648	-10.07
330.861	73.9
331.073	-14.17
331.286	161.96
331.499	24.75
331.712	39.08
331.925	63.66
332.138	6.31
332.35	43.18
332.563	41.13
332.776	67.75
332.989	-14.17
333.202	96.43
333.414	18.6
333.627	61.61
333.84	131.24
334.053	4.27
334.265	32.94
334.478	32.94
334.691	73.9
334.903	22.7
335.116	37.03
335.329	16.55
335.541	41.13
335.754	69.8
335.966	8.36
336.179	53.42
336.392	-1.88
336.604	-20.31
336.817	-1.88
337.029	73.9
337.242	20.65
337.454	-3.93
337.667	32.94
337.88	98.47
338.092	10.41
338.305	86.19
338.517	-26.45
338.729	104.62
338.942	108.71
339.154	-38.74
339.367	88.23
339.579	-18.26
339.792	-40.79
340.004	98.47
340.217	-3.93
340.429	26.79
340.641	8.36
340.854	2.22
341.066	49.32
341.278	53.42
341.491	57.51
341.703	39.08
341.915	-14.17
342.128	-3.93
342.34	94.38
342.552	82.09
342.764	-36.69
342.977	30.89
343.189	12.46
343.401	45.23
343.613	39.08
343.826	32.94
344.038	-5.97
344.25	28.84
344.462	55.47
344.674	86.19
344.886	-16.21
345.099	-12.12
345.311	63.66
345.523	37.03
345.735	-30.55
345.947	8.36
346.159	43.18
346.371	-1.88
346.583	84.14
346.795	121
347.007	34.99
347.219	-8.02
347.431	18.6
347.643	123.05
347.855	-42.84
348.067	82.09
348.279	-36.69
348.491	47.27
348.703	-3.93
348.915	47.27
349.127	-51.03
349.339	22.7
349.551	28.84
349.763	41.13
349.975	-5.97
350.187	49.32
350.399	108.71
350.61	26.79
350.822	51.37
351.034	106.67
351.246	-14.17
351.458	57.51
351.669	63.66
351.881	39.08
352.093	118.95
352.305	84.14
352.517	-38.74
352.728	92.33
352.94	30.89
353.152	84.14
353.363	30.89
353.575	2.22
353.787	106.67
353.999	63.66
354.21	2.22
354.422	-14.17
354.633	88.23
354.845	20.65
355.057	98.47
355.268	4.27
355.48	16.55
355.692	8.36
355.903	61.61
356.115	18.6
356.326	26.79
356.538	32.94
356.749	53.42
356.961	63.66
357.172	28.84
357.384	-69.46
357.595	116.9
357.807	55.47
358.018	59.56
358.23	39.08
358.441	121
358.653	41.13
358.864	2.22
359.075	18.6
359.287	39.08
359.498	57.51
359.709	18.6
359.921	80.04
360.132	10.41
360.344	69.8
360.555	16.55
360.766	-28.5
360.977	-81.75
361.189	75.95
361.4	32.94
361.611	86.19
361.823	110.76
362.034	-10.07
362.245	-24.4
362.456	45.23
362.667	-24.4
362.879	73.9
363.09	61.61
363.301	34.99
363.512	80.04
363.723	45.23
363.935	41.13
364.146	57.51
364.357	123.05
364.568	88.23
364.779	26.79
364.99	127.14
365.201	14.51
365.412	80.04
365.623	34.99
365.834	28.84
366.045	57.51
366.256	145.58
366.467	129.19
366.678	51.37
366.889	80.04
367.1	69.8
367.311	77.99
367.522	67.75
367.733	34.99
367.944	71.85
368.155	63.66
368.366	108.71
368.577	18.6
368.788	102.57
368.999	-10.07
369.209	47.27
369.42	77.99
369.631	53.42
369.842	39.08
370.053	18.6
370.264	75.95
370.474	73.9
370.685	67.75
370.896	37.03
371.107	57.51
371.317	69.8
371.528	73.9
371.739	53.42
371.95	20.65
372.16	67.75
372.371	16.55
372.582	10.41
372.792	90.28
373.003	67.75
373.214	84.14
373.424	63.66
373.635	-10.07
373.846	-16.21
374.056	41.13
374.267	43.18
374.477	-5.97
374.688	45.23
374.898	8.36
375.109	-3.93
375.319	14.51
375.53	135.34
375.74	43.18
375.951	86.19
376.161	47.27
376.372	139.43
376.582	34.99
376.793	55.47
377.003	2.22
377.214	-44.88
377.424	20.65
377.635	8.36
377.845	30.89
378.055	135.34
378.266	-22.36
378.476	92.33
378.686	94.38
378.897	67.75
379.107	67.75
379.317	100.52
379.528	28.84
379.738	75.95
379.948	96.43
380.158	137.38
380.369	24.75
380.579	18.6
380.789	53.42
380.999	30.89
381.21	49.32
381.42	73.9
381.63	14.51
381.84	-20.31
382.05	86.19
382.261	-1.88
382.471	57.51
382.681	30.89
382.891	141.48
383.101	82.09
383.311	-12.12
383.521	90.28
383.731	84.14
383.941	67.75
384.151	45.23
384.361	41.13
384.571	65.71
384.781	-30.55
384.991	53.42
385.201	75.95
385.411	30.89
385.621	-1.88
385.831	63.66
386.041	104.62
386.251	53.42
386.461	61.61
386.671	43.18
386.881	82.09
387.091	51.37
387.301	164.01
387.511	67.75
387.72	69.8
387.93	125.1
388.14	4.27
388.35	28.84
388.56	80.04
388.769	139.43
388.979	59.56
389.189	16.55
389.399	-14.17
389.609	55.47
389.818	164.01
390.028	8.36
390.238	96.43
390.447	30.89
390.657	71.85
390.867	57.51
391.076	75.95
391.286	92.33
391.496	104.62
391.705	4.27
391.915	96.43
392.125	80.04
392.334	80.04
392.544	92.33
392.753	49.32
392.963	43.18
393.172	94.38
393.382	34.99
393.591	155.82
393.801	28.84
394.01	123.05
394.22	92.33
394.429	104.62
394.639	82.09
394.848	0.17
395.058	49.32
395.267	61.61
395.477	129.19
395.686	168.1
395.895	47.27
396.105	145.58
396.314	30.89
396.524	8.36
396.733	37.03
396.942	104.62
397.152	129.19
397.361	114.86
397.57	8.36
397.78	80.04
397.989	-16.21
398.198	118.95
398.407	67.75
398.617	98.47
398.826	106.67
399.035	2.22
399.244	168.1
399.453	75.95
399.663	94.38
399.872	127.14
400.081	182.44
400.29	116.9
400.499	37.03
400.708	135.34
400.917	121
401.127	71.85
401.336	30.89
401.545	131.24
401.754	149.67
401.963	112.81
402.172	47.27
402.381	18.6
402.59	121
402.799	116.9
403.008	86.19
403.217	157.86
403.426	153.77
403.635	127.14
403.844	125.1
404.053	82.09
404.262	110.76
404.471	211.11
404.68	94.38
404.888	131.24
405.097	121
405.306	77.99
405.515	213.16
405.724	114.86
405.933	215.21
406.142	149.67
406.35	192.68
406.559	131.24
406.768	121
406.977	192.68
407.185	266.41
407.394	170.15
407.603	227.5
407.812	174.25
408.02	241.83
408.229	192.68
408.438	227.5
408.646	104.62
408.855	200.87
409.064	256.17
409.272	207.02
409.481	315.56
409.69	254.12
409.898	245.93
410.107	262.31
410.315	385.19
410.524	364.71
410.733	336.04
410.941	358.57
411.15	395.43
411.358	342.18
411.567	372.9
411.775	368.81
411.984	340.13
412.192	510.11
412.401	417.96
412.609	483.49
412.818	456.87
413.026	426.15
413.234	604.32
413.443	495.78
413.651	473.25
413.86	602.27
414.068	518.31
414.276	614.56
414.485	647.33
414.693	581.79
414.901	635.04
415.11	702.62
415.318	714.91
415.526	753.82
415.734	749.73
415.943	864.41
416.151	868.51
416.359	823.45
416.567	905.37
416.776	946.33
416.984	891.04
417.192	891.04
417.4	983.2
417.608	917.66
417.817	897.18
418.025	1038.49
418.233	1155.23
418.441	1065.11
418.649	1198.23
418.857	1163.42
419.065	1294.49
419.273	1206.42
419.481	1280.15
419.689	1411.22
419.897	1396.89
420.105	1405.08
420.313	1517.72
420.521	1515.67
420.729	1554.58
420.937	1568.91
421.145	1722.51
421.353	1648.79
421.561	1802.38
421.769	1984.65
421.977	2013.32
422.185	2064.52
422.393	2160.78
422.601	2312.33
422.809	2197.64
423.017	2177.16
423.224	2365.57
423.432	2381.96
423.64	2283.66
423.848	2568.32
424.056	2529.41
424.263	2734.21
424.471	2812.03
424.679	2881.66
424.887	2941.05
425.094	3082.36
425.302	3104.89
425.51	3135.61
425.718	3424.37
425.925	3238.01
426.133	3348.6
426.341	3633.27
426.548	3772.53
426.756	3901.55
426.964	3866.74
427.171	4102.25
427.379	4264.04
427.586	4360.3
427.794	4343.91
428.001	4573.28
428.209	4749.41
428.417	4710.5
428.624	5093.47
428.832	5265.5
429.039	5085.28
429.247	4974.69
429.454	5382.23
429.662	5847.12
429.869	5564.5
430.076	5910.61
430.284	5834.83
430.491	6017.1
430.699	6322.25
430.906	6297.67
431.114	6373.45
431.321	6500.42
431.528	6774.85
431.736	7303.23
431.943	7536.7
432.15	7227.45
432.358	7528.5
432.565	7745.59
432.772	7968.82
432.979	8204.33
433.187	8312.88
433.394	8265.77
433.601	8980.51
433.808	9062.43
434.016	8777.76
434.223	9254.94
434.43	9603.1
434.637	9613.34
434.844	10190.86
435.052	10426.38
435.259	10346.51
435.466	10518.54
435.673	10483.72
435.88	11073.54
436.087	11894.77
436.294	11685.88
436.501	11530.23
436.708	11718.65
436.915	11988.98
437.122	12597.23
437.329	12468.2
437.537	12924.9
437.743	13246.43
437.95	13092.83
438.157	13639.64
438.364	14276.56
438.571	14165.97
438.778	14208.98
438.985	15574.97
439.192	15171.52
439.399	15304.64
439.606	15085.51
439.813	15998.9
440.02	16973.74
440.227	16615.34
440.433	16621.49
440.64	17217.44
440.847	16965.54
441.054	17301.41
441.261	18642.83
441.467	18143.13
441.674	18362.26
441.881	19326.85
442.088	19521.41
442.294	19011.46
442.501	19431.3
442.708	20266.87
442.914	20735.85
443.121	21968.73
443.328	21428.07
443.534	22404.95
443.741	22083.42
443.948	21733.22
444.154	23396.17
444.361	22957.9
444.568	23383.88
444.774	23582.53
444.981	23646.02
445.187	24336.18
445.394	25446.18
445.6	25114.41
445.807	27379.46
446.013	26195.74
446.22	26511.13
446.426	27854.59
446.633	27920.13
446.839	28987.12
447.046	27905.79
447.252	29335.28
447.459	29488.87
447.665	29525.74
447.871	30738.13
448.078	31772.36
448.284	30555.86
448.491	31018.71
448.697	32341.69
448.903	33095.35
449.11	33021.62
449.316	32739
449.522	33255.09
449.728	34109.09
449.935	34299.55
450.141	34547.36
450.347	35069.59
450.553	34119.33
450.76	34485.92
450.966	35468.94
451.172	35155.6
451.378	35894.92
451.584	35583.63
451.791	36138.63
451.997	36451.97
452.203	36718.2
452.409	36552.32
452.615	36294.27
452.821	34961.05
453.027	34862.74
453.233	36449.92
453.44	35264.14
453.646	35628.68
453.852	35698.31
454.058	36136.58
454.264	35628.68
454.47	35810.95
454.676	35112.59
454.882	35675.79
455.088	33169.07
455.294	33781.42
455.5	34096.8
455.705	34584.22
455.911	33261.23
456.117	32450.24
456.323	31979.2
456.529	30426.84
456.735	31547.08
456.941	30815.96
457.147	30060.26
457.352	29626.09
457.558	29044.46
457.764	29132.53
457.97	28382.97
458.176	28061.44
458.381	27690.76
458.587	26384.15
458.793	26715.92
458.999	24960.81
459.204	26937.1
459.41	26468.12
459.616	24158.01
459.821	24500.02
460.027	24239.93
460.233	24096.57
460.438	22452.05
460.644	22878.03
460.85	22167.38
461.055	21552.99
461.261	21499.75
461.466	19791.74
461.672	19107.72
461.878	20764.53
462.083	19214.21
462.289	18972.55
462.494	18698.13
462.7	17735.58
462.905	17553.31
463.111	17930.14
463.316	17954.71
463.522	17647.52
463.727	17612.7
463.932	17711
464.138	17541.02
464.343	17721.24
464.549	16938.92
464.754	17594.27
464.959	17471.39
465.165	17317.79
465.37	16627.63
465.575	16168.88
465.781	16840.62
465.986	16689.07
466.191	16521.13
466.397	16043.96
466.602	15454.14
466.807	15761.34
467.012	15894.46
467.218	15845.3
467.423	15474.62
467.628	15538.11
467.833	16213.94
468.038	15724.47
468.244	15187.91
468.449	15712.19
468.654	15208.39
468.859	15398.85
469.064	15235.01
469.269	14786.51
469.474	14485.45
469.679	15110.08
469.885	14524.37
470.09	14512.08
470.295	14516.17
470.5	14028.76
470.705	14411.73
470.91	14239.7
471.115	13940.69
471.32	14071.76
471.525	14010.32
471.73	13830.1
471.935	13692.89
472.139	13184.99
472.344	13350.88
472.549	13410.27
472.754	13172.71
472.959	12875.75
473.164	12443.63
473.369	12529.64
473.574	12636.14
473.778	12408.81
473.983	12517.36
474.188	12494.83
474.393	12087.28
474.598	12130.29
474.802	11968.5
475.007	11773.94
475.212	11814.9
475.417	11341.82
475.621	11390.97
475.826	11382.78
476.031	11313.15
476.235	11028.48
476.44	11075.59
476.645	11075.59
476.849	10909.7
477.054	10807.3
477.259	10508.3
477.463	10672.14
477.668	10272.78
477.872	10569.74
478.077	10199.06
478.282	10262.54
478.486	10166.29
478.691	10065.94
478.895	10094.61
479.1	9910.29
479.304	9986.07
479.509	9601.05
479.713	9877.52
479.918	9717.78
480.122	9527.32
480.326	9549.85
480.531	9424.92
480.735	9271.33
480.94	9488.41
481.144	9695.25
481.348	9328.67
481.553	9201.69
481.757	8921.12
481.961	9283.61
482.166	9646.1
482.37	9275.42
482.574	9213.98
482.778	9089.06
482.983	9304.09
483.187	9281.57
483.391	9119.78
483.595	9117.73
483.8	9035.81
484.004	9185.31
484.208	9250.85
484.412	9386.01
484.616	9000.99
484.821	9154.59
485.025	9039.9
485.229	9429.02
485.433	9121.82
485.637	9152.54
485.841	9064.48
486.045	8996.9
486.249	9183.26
486.453	9218.08
486.657	9076.77
486.861	9183.26
487.065	9052.19
487.269	9347.1
487.473	9031.71
487.677	9306.14
487.881	9173.02
488.085	9140.26
488.289	9277.47
488.493	9041.95
488.697	9246.75
488.901	9160.73
489.105	9170.97
489.309	9232.41
489.512	9267.23
489.716	9357.34
489.92	9297.95
490.124	9103.39
490.328	9584.66
490.531	9271.33
490.735	9541.66
490.939	9492.51
491.143	9285.66
491.346	9457.69
491.55	9506.84
491.754	9644.06
491.958	9603.1
492.161	9537.56
492.365	9730.07
492.569	9660.44
492.772	9785.37
492.976	9830.42
493.18	9803.8
493.383	9719.83
493.587	10145.81
493.79	10104.85
493.994	9971.73
494.197	9922.58
494.401	10110.99
494.605	10143.76
494.808	10301.45
495.012	10328.08
495.215	10455.05
495.419	10422.28
495.622	10340.36
495.825	10569.74
496.029	10485.77
496.232	10907.65
496.436	10711.05
496.639	11208.7
496.843	10911.75
497.046	11200.51
497.249	11493.37
497.453	11341.82
497.656	11554.81
497.859	11536.38
498.063	11771.9
498.266	12111.86
498.469	11950.07
498.673	12181.49
498.876	12466.16
499.079	12371.95
499.282	12310.51
499.485	12857.32
499.689	12722.15
499.892	13006.82
500.095	13043.68
500.298	13133.79
500.501	13203.43
500.705	13430.75
500.908	13455.33
501.111	13815.77
501.314	13905.88
501.517	14120.92
501.72	14149.59
501.923	14251.99
502.126	14583.76
502.329	14782.41
502.532	14901.19
502.735	14993.35
502.938	15419.33
503.141	15411.14
503.344	15634.36
503.547	15478.72
503.75	15660.99
503.953	16082.87
504.156	16105.4
504.359	16314.29
504.562	16383.92
504.765	16863.15
504.968	16914.34
505.17	17334.18
505.373	17059.75
505.576	17465.25
505.779	17739.68
505.982	17708.96
506.185	18186.13
506.387	18241.43
506.59	18468.75
506.793	18743.18
506.996	18515.86
507.198	19459.97
507.401	18950.03
507.604	19345.28
507.807	19601.28
508.009	19756.93
508.212	20119.42
508.415	20498.29
508.617	20584.3
508.82	20690.8
509.022	20678.51
509.225	21337.96
509.428	21284.71
509.63	21274.47
509.833	21770.08
510.035	22155.1
510.238	22546.26
510.44	22490.96
510.643	22572.88
510.845	23222.09
511.048	22957.9
511.25	23269.19
511.453	23433.03
511.655	23777.09
511.858	23840.57
512.06	24215.35
512.262	24667.95
512.465	24612.66
512.667	24893.23
512.87	25386.79
513.072	25124.65
513.274	25913.12
513.477	26359.58
513.679	26490.65
513.881	26836.75
514.084	26990.35
514.286	27014.93
514.488	27205.39
514.69	27733.76
514.893	28104.45
515.095	28137.21
515.297	28485.37
515.499	28634.87
515.701	29202.16
515.904	29335.28
516.106	29613.8
516.308	30047.97
516.51	29896.42
516.712	30684.89
516.914	30674.65
517.116	31297.23
517.318	31266.51
517.52	31596.23
517.722	31258.32
517.925	32032.45
518.127	32739
518.329	32872.12
518.531	32575.16
518.733	33332.91
518.935	33484.46
519.136	33908.39
519.338	34197.15
519.54	34203.3
519.742	34879.13
519.944	34940.57
520.146	35403.41
520.348	35618.44
520.55	35751.56
520.752	35780.23
520.954	36472.45
521.155	36535.93
521.357	37127.8
521.559	37441.14
521.761	38041.19
521.963	37877.35
522.164	38006.37
522.366	38430.3
522.568	38993.5
522.77	38717.02
522.971	39394.9
523.173	39183.96
523.375	39951.95
523.576	39657.04
523.778	40042.06
523.98	40584.77
524.181	40533.57
524.383	40646.21
524.584	41360.95
524.786	41463.35
524.988	41172.53
525.189	42176.04
525.391	41879.08
525.592	42346.02
525.794	42358.31
525.995	42362.4
526.197	42612.26
526.398	42640.93
526.6	43410.96
526.801	43339.29
527.003	43656.72
527.204	43742.74
527.406	43806.22
527.607	43884.05
527.808	44426.76
528.01	43746.83
528.211	44449.28
528.412	45110.78
528.614	44766.72
528.815	45196.79
529.016	45319.67
529.218	45356.53
529.419	45495.8
529.62	45403.64
529.822	45540.85
530.023	45479.41
530.224	45780.46
530.425	45643.25
530.626	45569.52
530.828	45442.55
531.029	46142.95
531.23	45710.83
531.431	46099.95
531.632	46308.84
531.833	46507.49
532.035	46552.55
532.236	46736.87
532.437	46405.09
532.638	46247.4
532.839	46968.29
533.04	47044.06
533.241	46364.14
533.442	47093.21
533.643	46532.07
533.844	46806.5
534.045	46980.57
534.246	46448.1
534.447	47590.87
534.648	46577.12
534.849	47283.67
535.05	47027.68
535.251	47146.46
535.451	46847.46
535.652	47273.43
535.853	47099.36
536.054	46937.57
536.255	47769.04
536.456	47166.94
536.657	47838.67
536.857	47291.87
537.058	47222.23
537.259	47009.25
537.46	47318.49
537.66	47125.98
537.861	47175.13
538.062	46716.39
538.263	47265.24
538.463	47248.86
538.664	47142.36
538.865	47269.34
539.065	47400.41
539.266	46904.8
539.466	47707.6
539.667	46728.67
539.868	47314.39
540.068	47046.11
540.269	46915.04
540.469	47130.08
540.67	46872.03
540.87	46974.43
541.071	46982.62
541.271	47386.07
541.472	47119.84
541.672	46951.9
541.873	47050.2
542.073	46132.71
542.274	47453.65
542.474	46976.48
542.675	46706.15
542.875	46902.75
543.075	47171.03
543.276	46251.5
543.476	47138.27
543.676	47293.91
543.877	47089.12
544.077	47185.37
544.277	46800.35
544.478	46738.91
544.678	47179.23
544.878	46804.45
545.078	47001.05
545.279	46280.17
545.479	47013.34
545.679	46761.44
545.879	46962.14
546.079	46912.99
546.28	46659.04
546.48	46345.7
546.68	47130.08
546.88	46818.78
547.08	46511.59
547.28	46700
547.48	46339.56
547.68	46853.6
547.88	46601.7
548.081	46890.46
548.281	46544.36
548.481	46573.03
548.681	47062.49
548.881	46347.75
549.081	46294.5
549.28	46757.35
549.48	47037.92
549.68	46634.47
549.88	47267.29
550.08	46624.23
550.28	46812.64
550.48	46552.55
550.68	46929.37
550.88	46347.75
551.08	46691.81
551.279	46345.7
551.479	46351.85
551.679	46005.74
551.879	45970.93
552.079	47058.4
552.278	46396.9
552.478	46261.74
552.678	46659.04
552.878	46562.79
553.077	46040.56
553.277	45719.03
553.477	46710.24
553.676	46046.7
553.876	46327.27
554.076	45860.33
554.275	45780.46
554.475	45753.84
554.674	46325.22
554.874	46288.36
555.074	45833.71
555.273	45954.54
555.473	46263.78
555.672	45960.69
555.872	45311.48
556.071	45647.35
556.271	46196.2
556.47	45669.87
556.67	45510.13
556.869	45358.58
557.068	45381.11
557.268	45190.65
557.467	45161.98
557.667	45299.19
557.866	45159.93
558.065	45536.76
558.265	45147.64
558.464	44654.08
558.663	45082.11
558.863	44656.13
559.062	45317.62
559.261	44439.04
559.461	45395.45
559.66	44606.98
559.859	44705.28
560.058	44023.31
560.258	44328.45
560.457	44264.97
560.656	44736
560.855	43882
561.054	44529.16
561.253	43886.09
561.453	44250.63
561.652	44084.75
561.851	44183.05
562.05	43791.89
562.249	44013.07
562.448	43845.13
562.647	43628.05
562.846	43535.89
563.045	43478.55
563.244	42903.07
563.443	43918.86
563.642	42624.54
563.841	43154.97
564.04	42794.53
564.239	43374.1
564.438	42714.65
564.637	42972.7
564.836	42931.74
565.035	42173.99
565.234	42862.11
565.432	42571.3
565.631	41985.58
565.83	42270.25
566.029	42018.35
566.228	42137.13
566.427	41860.65
566.625	41420.34
566.824	41518.64
567.023	41936.43
567.222	41111.1
567.42	41510.45
567.619	41143.86
567.818	41094.71
568.016	41188.92
568.215	41145.91
568.414	41078.33
568.612	41129.53
568.811	40595.01
569.01	40490.56
569.208	40083.02
569.407	40244.8
569.605	40119.88
569.804	40547.9
570.002	39794.25
570.201	40224.32
570.4	39839.31
570.598	39386.71
570.797	39679.57
570.995	39593.55
571.193	38989.4
571.392	39515.73
571.59	38880.86
571.789	38925.91
571.987	38985.3
572.186	38706.78
572.384	38514.27
572.582	38856.28
572.781	38848.09
572.979	37836.39
573.177	37998.18
573.376	38432.35
573.574	38207.08
573.772	38151.78
573.971	37809.77
574.169	37201.52
574.367	37602.92
574.565	37545.58
574.763	37238.39
574.962	37396.08
575.16	37150.32
575.358	37324.4
575.556	36830.84
575.754	37207.67
575.952	36406.91
576.151	36898.42
576.349	36611.71
576.547	36185.73
576.745	36566.65
576.943	36415.1
577.141	36034.18
577.339	36054.66
577.537	36017.8
577.735	35772.04
577.933	35554.96
578.131	36212.35
578.329	35356.3
578.527	35307.15
578.725	35284.62
578.923	35313.3
579.121	35239.57
579.319	35073.68
579.516	35182.23
579.714	34928.28
579.912	34801.3
580.11	34399.9
580.308	35094.16
580.506	34743.96
580.704	34125.47
580.901	33896.1
581.099	34764.44
581.297	34211.49
581.495	33951.4
581.692	34244.26
581.89	33560.23
582.088	33605.29
582.285	33709.74
582.483	33971.88
582.681	33523.37
582.878	33531.56
583.076	32913.08
583.274	33470.12
583.471	33222.32
583.669	33056.43
583.866	32626.36
584.064	32718.52
584.262	32440
584.459	32392.89
584.657	32313.02
584.854	32839.35
585.052	32171.71
585.249	32532.15
585.447	32265.92
585.644	31917.76
585.841	32202.43
586.039	31983.3
586.236	31913.67
586.434	31766.21
586.631	31463.11
586.828	31678.15
587.026	31493.83
587.223	31545.03
587.42	31211.21
587.618	31432.4
587.815	30983.89
588.012	31139.54
588.21	30766.81
588.407	31174.35
588.604	30666.45
588.801	30582.49
588.999	30543.58
589.196	30645.98
589.393	30222.05
589.59	30187.23
589.787	30138.08
589.984	30275.29
590.182	29785.83
590.379	29906.66
590.576	29603.56
590.773	29832.93
590.97	29570.79
591.167	29791.97
591.364	29271.79
591.561	29478.63
591.758	29183.73
591.955	28958.45
592.152	29578.98
592.349	29101.81
592.546	29353.71
592.743	28831.47
592.94	28368.63
593.137	28796.66
593.334	28571.38
593.531	28253.95
593.727	28319.48
593.924	28454.65
594.121	27836.16
594.318	28274.43
594.515	27830.02
594.712	28051.2
594.908	27850.5
595.105	27744
595.302	27809.54
595.499	27684.61
595.696	27465.48
595.892	27406.09
596.089	27543.3
596.286	27344.65
596.482	27393.8
596.679	27178.76
596.876	27350.79
597.072	26982.16
597.269	26900.24
597.466	26619.67
597.662	26621.72
597.859	26908.43
598.055	26879.76
598.252	26550.04
598.448	26459.93
598.645	26623.76
598.841	25722.66
599.038	26384.15
599.234	26140.44
599.431	25882.4
599.627	26056.48
599.824	26113.82
600.02	25909.02
600.217	25796.39
600.413	25954.08
600.609	25435.94
600.806	25644.84
601.002	25313.06
601.198	25530.15
601.395	25442.09
601.591	25093.93
601.787	24958.77
601.984	25104.17
602.18	25081.64
602.376	24616.76
602.572	24620.85
602.769	24729.39
602.965	24622.9
603.161	24670
603.357	24401.72
603.553	24626.99
603.75	24229.69
603.946	24289.08
604.142	24235.83
604.338	24115
604.534	23951.17
604.73	24061.76
604.926	24041.28
605.122	24033.08
605.318	23727.94
605.514	23508.8
605.71	23324.49
605.906	23756.61
606.102	23383.88
606.298	23709.5
606.494	23252.81
606.69	23492.42
606.886	23066.44
607.082	22968.14
607.278	23385.93
607.474	22759.25
607.67	22931.28
607.866	22890.32
608.062	23187.27
608.257	22794.06
608.453	22904.65
608.649	22951.76
608.845	22316.89
609.041	22568.79
609.236	22394.71
609.432	22349.65
609.628	22714.19
609.824	22206.3
610.019	22429.52
610.215	22255.45
610.411	22273.88
610.606	21856.09
610.802	22404.95
610.998	21765.98
611.193	22136.66
611.389	22134.62
611.584	21903.2
611.78	21538.66
611.976	21755.74
612.171	21694.3
612.367	21897.05
612.562	21509.99
612.758	21464.93
612.953	21387.11
613.149	21579.62
613.344	21464.93
613.539	21485.41
613.735	21583.71
613.93	21475.17
614.126	21172.07
614.321	21686.11
614.517	21290.85
614.712	20903.79
614.907	21094.25
615.103	21024.62
615.298	20785.01
615.493	21305.19
615.688	20623.22
615.884	21266.28
616.079	20469.62
616.274	20748.14
616.47	20359.03
616.665	20868.97
616.86	20631.41
617.055	20473.71
617.25	20553.59
617.445	20641.65
617.641	20164.47
617.836	20236.15
618.031	20017.02
618.226	20418.42
618.421	20178.81
618.616	20365.17
618.811	20094.84
619.006	20150.14
619.201	19713.92
619.396	19959.67
619.591	19502.98
619.786	19818.36
619.981	19244.93
620.176	19625.86
620.371	19197.83
620.566	19289.99
620.761	19228.55
620.956	19423.11
621.151	19173.25
621.346	19027.85
621.541	18784.14
621.735	19193.73
621.93	18407.31
622.125	18702.22
622.32	18233.24
622.515	18331.54
622.709	18171.8
622.904	18315.16
623.099	18257.81
623.294	18163.61
623.488	18075.54
623.683	18098.07
623.878	17528.74
624.072	17459.1
624.267	17692.57
624.462	17516.45
624.656	17192.87
624.851	17182.63
625.046	17293.22
625.24	17078.18
625.435	16881.58
625.629	17203.11
625.824	16938.92
626.018	16822.19
626.213	16336.82
626.407	16717.74
626.602	16320.43
626.796	16629.68
626.991	16449.46
627.185	16328.63
627.38	16056.25
627.574	15910.84
627.768	15904.7
627.963	15853.5
628.157	15486.91
628.352	15771.58
628.546	15615.93
628.74	15871.93
628.935	15495.1
629.129	15574.97
629.323	15079.36
629.517	15095.75
629.712	15286.21
629.906	15175.62
630.1	14876.62
630.294	15054.79
630.489	14477.26
630.683	14856.14
630.877	14632.91
631.071	14540.75
631.265	14653.39
631.459	14311.38
631.653	14385.1
631.848	14557.13
632.042	14213.07
632.236	14284.75
632.43	14159.83
632.624	14071.76
632.818	14014.42
633.012	13809.62
633.206	13813.72
633.4	13842.39
633.594	13580.25
633.788	13594.59
633.982	13445.09
634.176	13699.03
634.369	13254.62
634.563	13440.99
634.757	13088.74
634.951	13303.78
635.145	13193.19
635.339	13156.32
635.533	12969.96
635.726	13043.68
635.92	12638.19
636.114	12658.67
636.308	12613.61
636.501	12742.63
636.695	12775.4
636.889	12556.27
637.083	12640.23
637.276	12224.5
637.47	12214.26
637.664	12052.47
637.857	12118
638.051	12013.56
638.244	11747.32
638.438	12048.37
638.632	11896.82
638.825	11677.69
639.019	12003.32
639.212	11745.27
639.406	11775.99
639.599	11767.8
639.793	11569.15
639.986	11345.92
640.18	11528.19
640.373	11411.45
640.567	11239.42
640.76	11282.43
640.954	11122.69
641.147	11329.53
641.34	10895.36
641.534	10878.98
641.727	11104.26
641.92	10784.77
642.114	10702.86
642.307	10803.21
642.5	10670.09
642.694	10590.22
642.887	10430.48
643.08	10674.18
643.273	10493.96
643.467	10268.69
643.66	10371.08
643.853	10057.75
644.046	10379.28
644.239	10338.32
644.432	10162.19
644.626	10045.46
644.819	9822.23
645.012	10012.69
645.205	9826.32
645.398	9791.51
645.591	9873.43
645.784	9619.48
645.977	9617.43
646.17	9525.27
646.363	9437.21
646.556	9408.54
646.749	9422.87
646.942	9504.79
647.135	9441.31
647.328	9429.02
647.521	9228.32
647.714	9127.97
647.907	9130.02
648.099	9050.14
648.292	9158.69
648.485	8984.61
648.678	8824.87
648.871	8767.52
649.064	8693.8
649.256	8964.13
649.449	8675.37
649.642	8681.51
649.835	8771.62
650.027	8491.05
650.22	8505.38
650.413	8534.06
650.605	8470.57
650.798	8378.41
650.991	8335.4
651.183	8382.51
651.376	8319.02
651.568	8296.49
651.761	8116.27
651.954	8122.41
652.146	8052.78
652.339	8157.23
652.531	7972.91
652.724	8030.26
652.916	7919.67
653.109	7886.9
653.301	7890.99
653.494	7847.99
653.686	7923.76
653.879	8007.73
654.071	7774.26
654.263	7553.08
654.456	7764.02
654.648	7675.96
654.84	7585.85
655.033	7520.31
655.225	7745.59
655.417	7462.97
655.61	7499.83
655.802	7481.4
655.994	7325.75
656.186	7477.3
656.379	7276.6
656.571	7213.12
656.763	7231.55
656.955	7077.95
657.148	7129.15
657.34	7360.57
657.532	7145.53
657.724	6873.15
657.916	6920.26
658.108	6907.97
658.3	6946.88
658.492	6832.19
658.684	6602.82
658.876	6774.85
659.068	6635.59
659.26	6453.32
659.452	6793.28
659.644	6737.99
659.836	6670.4
660.028	6647.88
660.22	6582.34
660.412	6664.26
660.604	6535.24
660.796	6547.53
660.988	6551.62
661.18	6502.47
661.372	6395.98
661.563	6422.6
661.755	6164.56
661.947	6389.83
662.139	6338.63
662.331	6185.04
662.522	6103.12
662.714	6176.84
662.906	6131.79
663.097	6152.27
663.289	6060.11
663.481	5967.95
663.673	6031.44
663.864	5998.67
664.056	5961.81
664.247	6049.87
664.439	5875.79
664.631	5922.9
664.822	5810.26
665.014	5881.94
665.205	5775.44
665.397	5785.68
665.588	5650.52
665.78	5609.56
665.971	5611.61
666.163	5560.41
666.354	5775.44
666.546	5574.74
666.737	5662.8
666.929	5615.7
667.12	5681.24
667.311	5621.84
667.503	5525.59
667.694	5386.33
667.885	5564.5
668.077	5564.5
668.268	5480.54
668.459	5642.32
668.651	5488.73
668.842	5396.57
669.033	5331.03
669.224	5281.88
669.416	5505.11
669.607	5318.75
669.798	5322.84
669.989	5236.83
670.18	5240.92
670.371	5202.01
670.563	5038.17
670.754	5159
670.945	5156.96
671.136	5081.18
671.327	5109.85
671.518	5105.76
671.709	5347.42
671.9	5175.39
672.091	5001.31
672.282	5136.48
672.473	5003.36
672.664	5032.03
672.855	5066.85
673.046	5181.53
673.237	5001.31
673.428	4991.07
673.619	4984.93
673.809	4919.39
674	5032.03
674.191	4995.17
674.382	5120.09
674.573	4954.21
674.764	4831.33
674.954	4954.21
675.145	4948.06
675.336	4927.58
675.527	4925.54
675.717	4720.74
675.908	4900.96
676.099	4900.96
676.289	4925.54
676.48	4857.95
676.671	4790.37
676.861	4849.76
677.052	4831.33
677.243	4767.84
677.433	4800.61
677.624	4876.38
677.814	4941.92
678.005	4735.07
678.195	4757.6
678.386	4833.38
678.576	4659.3
678.767	4663.4
678.957	4712.55
679.148	4882.53
679.338	4857.95
679.529	4696.16
679.719	4841.57
679.909	4911.2
680.1	4810.85
680.29	4812.9
680.481	4737.12
680.671	4677.73
680.861	4743.27
681.052	4681.83
681.242	4739.17
681.432	4700.26
681.622	4710.5
681.813	4614.24
682.003	4720.74
682.193	4620.39
682.383	4755.55
682.573	4524.13
682.764	4636.77
682.954	4876.38
683.144	4628.58
683.334	4640.87
683.524	4581.48
683.714	4585.57
683.904	4526.18
684.094	4530.28
684.284	4468.84
684.474	4663.4
684.664	4540.52
684.854	4675.68
685.044	4661.35
685.234	4647.01
685.424	4741.22
685.614	4517.99
685.804	4616.29
685.994	4462.69
686.184	4589.67
686.374	4530.28
686.564	4474.98
686.753	4507.75
686.943	4376.68
687.133	4360.3
687.323	4599.91
687.513	4300.91
687.702	4405.35
687.892	4284.52
688.082	4317.29
688.272	4421.74
688.461	4354.15
688.651	4305
688.841	4251.75
689.03	4280.43
689.22	4241.51
689.41	4245.61
689.599	4120.68
689.789	4157.55
689.979	4057.2
690.168	4184.17
690.358	4089.96
690.547	3999.85
690.737	4061.29
690.926	4042.86
691.116	4143.21
691.305	4071.53
691.495	4014.19
691.684	3997.81
691.874	3903.6
692.063	4008.05
692.252	4030.57
692.442	3893.36
692.631	4051.05
692.82	3987.57
693.01	3827.82
693.199	3696.75
693.388	3733.62
693.578	3950.7
693.767	3907.7
693.956	3838.06
694.146	3874.93
694.335	3747.95
694.524	3776.63
694.713	3782.77
694.902	3891.31
695.092	3678.32
695.281	3577.97
695.47	3737.71
695.659	3709.04
695.848	3666.03
696.037	3676.27
696.226	3666.03
696.415	3725.43
696.604	3700.85
696.793	3586.16
696.982	3663.99
697.171	3639.41
697.36	3623.03
697.549	3627.12
697.738	3582.07
697.927	3543.16
698.116	3620.98
698.305	3623.03
698.494	3702.9
698.683	3457.14
698.872	3690.61
699.061	3559.54
699.25	3549.3
699.438	3717.23
699.627	3549.3
699.816	3627.12
700.005	3487.86
700.193	3504.25
700.382	3534.96
700.571	3670.13
700.76	3567.73
700.948	3485.81
701.137	3514.49
701.326	3569.78
701.514	3426.42
701.703	3530.87
701.892	3512.44
702.08	3661.94
702.269	3688.56
702.457	3498.1
702.646	3561.59
702.834	3598.45
703.023	3479.67
703.212	3586.16
703.4	3553.4
703.589	3516.53
703.777	3663.99
703.965	3600.5
704.154	3584.12
704.342	3545.2
704.531	3485.81
704.719	3461.24
704.907	3436.66
705.096	3313.78
705.284	3547.25
705.472	3539.06
705.661	3549.3
705.849	3528.82
706.037	3604.6
706.226	3432.57
706.414	3491.96
706.602	3473.53
706.79	3471.48
706.979	3516.53
707.167	3426.42
707.355	3407.99
707.543	3588.21
707.731	3446.9
707.919	3641.46
708.107	3369.08
708.296	3526.77
708.484	3549.3
708.672	3444.85
708.86	3565.68
709.048	3610.74
709.236	3573.88
709.424	3534.96
709.612	3608.69
709.8	3502.2
709.988	3496.05
710.176	3553.4
710.364	3637.36
710.551	3555.44
710.739	3651.7
710.927	3580.02
711.115	3588.21
711.303	3571.83
711.491	3604.6
711.679	3504.25
711.866	3569.78
712.054	3561.59
712.242	3524.72
712.43	3586.16
712.617	3571.83
712.805	3577.97
712.993	3606.64
713.181	3397.75
713.368	3668.08
713.556	3635.32
713.744	3496.05
713.931	3680.37
714.119	3610.74
714.306	3704.95
714.494	3567.73
714.682	3620.98
714.869	3612.79
715.057	3575.92
715.244	3584.12
715.432	3711.09
715.619	3620.98
715.807	3600.5
715.994	3629.17
716.182	3623.03
716.369	3676.27
716.556	3696.75
716.744	3592.31
716.931	3668.08
717.119	3631.22
717.306	3682.42
717.493	3690.61
717.681	3706.99
717.868	3690.61
718.055	3637.36
718.242	3782.77
718.43	3790.96
718.617	3750
718.804	3684.47
718.991	3653.75
719.179	3811.44
719.366	3651.7
719.553	3811.44
719.74	3661.94
719.927	3680.37
720.114	3719.28
720.301	3709.04
720.488	3725.43
720.676	3643.51
720.863	3907.7
721.05	3815.54
721.237	3774.58
721.424	3788.91
721.611	3754.1
721.798	3700.85
721.985	3704.95
722.172	3807.34
722.358	3799.15
722.545	3817.58
722.732	3852.4
722.919	3821.68
723.106	3881.07
723.293	3782.77
723.48	3928.17
723.667	3702.9
723.853	3709.04
724.04	3930.22
724.227	3856.5
724.414	3819.63
724.6	3977.33
724.787	3850.35
724.974	3770.48
725.161	3797.1
725.347	3889.26
725.534	3811.44
725.72	3850.35
725.907	3852.4
726.094	3895.41
726.28	3793.01
726.467	3872.88
726.653	3760.24
726.84	3907.7
727.027	3985.52
727.213	3901.55
727.4	3913.84
727.586	3909.74
727.773	3977.33
727.959	3897.46
728.145	3917.93
728.332	3960.94
728.518	3852.4
728.705	3930.22
728.891	3846.26
729.077	3965.04
729.264	3987.57
729.45	3881.07
729.636	4067.44
729.823	3836.02
730.009	3981.42
730.195	3928.17
730.382	3932.27
730.568	3860.59
730.754	3893.36
730.94	3915.89
731.126	4055.15
731.313	4012.14
731.499	4173.93
731.685	4067.44
731.871	3954.8
732.057	3989.61
732.243	3938.41
732.429	3960.94
732.615	4163.69
732.801	3989.61
732.987	4085.87
733.173	4016.24
733.359	3924.08
733.545	3926.13
733.731	4083.82
733.917	4132.97
734.103	4182.12
734.289	3973.23
734.475	3983.47
734.661	4118.64
734.847	3971.18
735.033	4124.78
735.219	3930.22
735.404	4051.05
735.59	3977.33
735.776	4145.26
735.962	4171.88
736.148	4175.98
736.333	4020.33
736.519	4053.1
736.705	4040.81
736.89	3926.13
737.076	3993.71
737.262	3905.65
737.447	3975.28
737.633	3930.22
737.819	3979.37
738.004	3942.51
738.19	4022.38
738.375	3983.47
738.561	4073.58
738.747	3899.5
738.932	3940.46
739.118	4081.77
739.303	3919.98
739.489	4204.65
739.674	3985.52
739.859	4079.72
740.045	4024.43
740.23	4008.05
740.416	3854.45
740.601	4020.33
740.786	3942.51
740.972	3887.22
741.157	4003.95
741.342	4003.95
741.528	3809.39
741.713	3926.13
741.898	3848.3
742.084	3846.26
742.269	4001.9
742.454	3848.3
742.639	3954.8
742.824	3733.62
743.01	3815.54
743.195	3793.01
743.38	3790.96
743.565	3809.39
743.75	3772.53
743.935	3790.96
744.12	3815.54
744.305	3678.32
744.49	3635.32
744.675	3817.58
744.86	3647.6
745.045	3735.67
745.23	3674.23
745.415	3702.9
745.6	3729.52
745.785	3651.7
745.97	3725.43
746.155	3651.7
746.34	3551.35
746.525	3592.31
746.71	3594.36
746.895	3592.31
747.079	3473.53
747.264	3594.36
747.449	3395.7
747.634	3440.76
747.819	3555.44
748.003	3416.18
748.188	3494.01
748.373	3377.27
748.557	3321.98
748.742	3367.03
748.927	3326.07
749.111	3283.06
749.296	3227.77
749.481	3407.99
749.665	3309.69
749.85	3057.79
750.034	3285.11
750.219	3049.6
750.404	3238.01
750.588	3135.61
750.773	3113.08
750.957	3133.56
751.141	3000.44
751.326	2973.82
751.51	2967.68
751.695	3072.12
751.879	3125.37
752.064	3100.8
752.248	2965.63
752.432	3033.21
752.617	2967.68
752.801	2924.67
752.985	2769.02
753.17	2809.98
753.354	2883.71
753.538	2912.38
753.722	2752.64
753.907	2738.3
754.091	2832.51
754.275	2660.48
754.459	2742.4
754.643	2803.84
754.828	2680.96
755.012	2703.49
755.196	2613.38
755.38	2605.19
755.564	2588.8
755.748	2566.28
755.932	2617.47
756.116	2652.29
756.3	2562.18
756.484	2547.84
756.668	2517.12
756.852	2443.4
757.036	2435.21
757.22	2502.79
757.404	2439.3
757.588	2316.42
757.772	2453.64
757.956	2449.54
758.14	2351.24
758.323	2261.13
758.507	2324.62
758.691	2300.04
758.875	2341
759.059	2453.64
759.242	2308.23
759.426	2191.5
759.61	2285.7
759.794	2246.79
759.977	2336.9
760.161	2314.38
760.345	2160.78
760.528	2123.91
760.712	2140.3
760.895	2152.59
761.079	2232.46
761.263	2144.39
761.446	2087.05
761.63	1994.89
761.813	2134.15
761.997	2105.48
762.18	2064.52
762.364	2097.29
762.547	2027.66
762.731	1984.65
762.914	2074.76
763.098	2087.05
763.281	1988.75
763.464	1986.7
763.648	1908.88
763.831	1988.75
764.015	1986.7
764.198	1933.45
764.381	1923.21
764.564	2037.9
764.748	1939.6
764.931	1976.46
765.114	1792.14
765.297	1960.08
765.481	1923.21
765.664	1843.34
765.847	1884.3
766.03	1964.17
766.213	1943.69
766.397	1904.78
766.58	1786
766.763	1859.73
766.946	1904.78
767.129	1767.57
767.312	1884.3
767.495	1751.18
767.678	1818.77
767.861	1802.38
768.044	1833.1
768.227	1859.73
768.41	1745.04
768.593	1810.58
768.776	1726.61
768.959	1757.33
769.142	1857.68
769.324	1728.66
769.507	1697.94
769.69	1708.18
769.873	1706.13
770.056	1800.34
770.239	1794.19
770.421	1699.98
770.604	1626.26
770.787	1652.88
770.97	1654.93
771.152	1575.06
771.335	1613.97
771.518	1577.11
771.7	1609.87
771.883	1609.87
772.066	1581.2
772.248	1530
772.431	1675.41
772.613	1548.44
772.796	1464.47
772.978	1521.81
773.161	1546.39
773.343	1534.1
773.526	1527.96
773.708	1478.8
773.891	1503.38
774.073	1441.94
774.256	1530
774.438	1454.23
774.621	1380.5
774.803	1439.89
774.985	1374.36
775.168	1443.99
775.35	1325.21
775.532	1484.95
775.715	1386.65
775.897	1300.63
776.079	1300.63
776.261	1329.3
776.444	1472.66
776.626	1341.59
776.808	1251.48
776.99	1278.1
777.173	1300.63
777.355	1220.76
777.537	1276.06
777.719	1185.94
777.901	1261.72
778.083	1261.72
778.265	1263.77
778.447	1216.66
778.629	1177.75
778.811	1120.41
778.993	1237.14
779.175	1271.96
779.357	1089.69
779.539	1179.8
779.721	1153.18
779.903	1134.75
780.085	1120.41
780.267	1196.18
780.449	1114.27
780.631	1106.07
780.812	1093.79
780.994	1044.63
781.176	989.34
781.358	993.44
781.54	1099.93
781.721	995.48
781.903	1065.11
782.085	1005.72
782.267	1048.73
782.448	975
782.63	936.09
782.812	946.33
782.993	1067.16
783.175	913.56
783.357	1032.35
783.538	948.38
783.72	923.8
783.901	999.58
784.083	956.57
784.264	934.04
784.446	813.21
784.627	878.75
784.809	899.23
784.99	852.13
785.172	905.37
785.353	940.19
785.535	817.31
785.716	811.17
785.897	888.99
786.079	909.47
786.26	829.6
786.441	751.78
786.623	755.87
786.804	848.03
786.985	759.97
787.167	807.07
787.348	794.78
787.529	782.49
787.71	813.21
787.891	798.88
788.073	729.25
788.254	751.78
788.435	755.87
788.616	745.63
788.797	712.86
788.978	704.67
789.159	710.82
789.34	759.97
789.522	641.18
789.703	702.62
789.884	706.72
790.065	678.05
790.246	624.8
790.427	598.18
790.607	704.67
790.788	641.18
790.969	682.14
791.15	684.19
791.331	678.05
791.512	637.09
791.693	581.79
791.874	647.33
792.054	692.38
792.235	569.51
792.416	610.47
792.597	583.84
792.778	747.68
792.958	602.27
793.139	632.99
793.32	569.51
793.5	583.84
793.681	645.28
793.862	641.18
794.042	594.08
794.223	469.16
794.404	551.07
794.584	610.47
794.765	557.22
794.945	544.93
795.126	532.64
795.306	565.41
795.487	596.13
795.667	587.94
795.848	534.69
796.028	594.08
796.209	544.93
796.389	497.83
796.57	549.03
796.75	524.45
796.93	491.68
797.111	520.35
797.291	436.39
797.471	536.74
797.652	508.07
797.832	518.31
798.012	458.92
798.192	448.68
798.373	514.21
798.553	473.25
798.733	512.16
798.913	432.29
799.093	471.2
799.274	454.82
799.454	475.3
799.634	528.55
799.814	395.43
799.994	456.87
800.174	501.92
800.354	389.28
800.534	479.4
800.714	458.92
800.894	383.14
801.074	391.33
801.254	379.04
801.434	503.97
801.614	399.52
801.794	420
801.974	1179.8
802.154	463.01
802.334	506.02
802.514	415.91
802.693	422.05
802.873	387.24
803.053	358.57
803.233	364.71
803.413	399.52
803.592	422.05
803.772	288.93
803.952	440.48
804.131	377
804.311	370.85
804.491	401.57
804.67	385.19
804.85	338.09
805.03	411.81
805.209	374.95
805.389	364.71
805.568	409.76
805.748	323.75
805.928	383.14
806.107	422.05
806.287	397.48
806.466	397.48
806.646	329.89
806.825	284.84
807.004	362.66
807.184	385.19
807.363	379.04
807.543	358.57
807.722	350.37
807.901	381.09
808.081	395.43
808.26	252.07
808.439	313.51
808.619	405.67
808.798	241.83
808.977	325.8
809.156	374.95
809.336	333.99
809.515	327.85
809.694	223.4
809.873	245.93
810.052	329.89
810.231	280.74
810.411	387.24
810.59	315.56
810.769	231.59
810.948	364.71
811.127	217.26
811.306	278.69
811.485	325.8
811.664	284.84
811.843	266.41
812.022	391.33
812.201	268.45
812.38	301.22
812.559	290.98
812.737	245.93
812.916	264.36
813.095	176.3
813.274	340.13
813.453	227.5
813.632	293.03
813.811	336.04
813.989	256.17
814.168	278.69
814.347	307.37
814.526	290.98
814.704	338.09
814.883	194.73
815.062	188.58
815.24	217.26
815.419	204.97
815.598	286.89
815.776	112.81
815.955	245.93
816.133	182.44
816.312	260.26
816.49	225.45
816.669	254.12
816.847	301.22
817.026	155.82
817.204	209.06
817.383	325.8
817.561	217.26
817.74	237.74
817.918	280.74
818.097	176.3
818.275	157.86
818.453	276.65
818.632	254.12
818.81	172.2
818.988	274.6
819.167	219.3
819.345	225.45
819.523	190.63
819.701	211.11
819.879	252.07
820.058	202.92
820.236	190.63
820.414	227.5
820.592	184.49
820.77	272.55
820.948	229.54
821.127	194.73
821.305	137.38
821.483	202.92
821.661	184.49
821.839	252.07
822.017	125.1
822.195	157.86
822.373	233.64
822.551	151.72
822.729	198.82
822.907	237.74
823.085	229.54
823.262	194.73
823.44	137.38
823.618	188.58
823.796	172.2
823.974	153.77
824.152	194.73
824.329	168.1
824.507	219.3
824.685	202.92
824.863	202.92
825.04	176.3
825.218	196.78
825.396	247.97
825.574	176.3
825.751	168.1
825.929	207.02
826.107	155.82
826.284	239.78
826.462	178.34
826.639	108.71
826.817	151.72
826.994	198.82
827.172	121
827.349	204.97
827.527	241.83
827.704	174.25
827.882	118.95
828.059	231.59
828.237	116.9
828.414	186.54
828.591	145.58
828.769	182.44
828.946	37.03
829.124	174.25
829.301	172.2
829.478	88.23
829.655	135.34
829.833	145.58
830.01	100.52
830.187	184.49
830.364	186.54
830.542	106.67
830.719	176.3
830.896	155.82
831.073	108.71
831.25	125.1
831.427	182.44
831.604	237.74
831.782	110.76
831.959	200.87
832.136	121
832.313	121
832.49	118.95
832.667	155.82
832.844	151.72
833.021	211.11
833.198	96.43
833.374	147.62
833.551	123.05
833.728	80.04
833.905	92.33
834.082	82.09
834.259	194.73
834.436	125.1
834.612	26.79
834.789	94.38
834.966	73.9
835.143	104.62
835.319	67.75
835.496	125.1
835.673	145.58
835.85	161.96
836.026	86.19
836.203	135.34
836.38	143.53
836.556	92.33
836.733	96.43
836.909	204.97
837.086	75.95
837.262	61.61
837.439	118.95
837.616	57.51
837.792	184.49
837.968	133.29
838.145	88.23
838.321	137.38
838.498	82.09
838.674	168.1
838.851	94.38
839.027	84.14
839.203	118.95
839.38	67.75
839.556	80.04
839.732	127.14
839.909	73.9
840.085	168.1
840.261	55.47
840.437	106.67
840.614	90.28
840.79	161.96
840.966	75.95
841.142	45.23
841.318	63.66
841.494	129.19
841.671	139.43
841.847	53.42
842.023	39.08
842.199	129.19
842.375	110.76
842.551	39.08
842.727	53.42
842.903	145.58
843.079	100.52
843.255	176.3
843.431	73.9
843.607	2.22
843.783	-5.97
843.959	53.42
844.134	112.81
844.31	194.73
844.486	41.13
844.662	41.13
844.838	106.67
845.013	96.43
845.189	168.1
845.365	112.81
845.541	55.47
845.716	110.76
845.892	133.29
846.068	43.18
846.244	94.38
846.419	22.7
846.595	112.81
846.77	71.85
846.946	75.95
847.122	55.47
847.297	55.47
847.473	100.52
847.648	55.47
847.824	34.99
847.999	-3.93
848.175	22.7
848.35	96.43
848.526	94.38
848.701	84.14
848.876	88.23
849.052	125.1
849.227	28.84
849.403	71.85
849.578	69.8
849.753	104.62
849.929	86.19
850.104	75.95
850.279	71.85
850.454	55.47
850.63	53.42
850.805	110.76
850.98	55.47
851.155	51.37
851.33	37.03
851.505	51.37
851.681	90.28
851.856	139.43
852.031	69.8
852.206	63.66
852.381	-10.07
852.556	63.66
852.731	77.99
852.906	43.18
853.081	71.85
853.256	73.9
853.431	45.23
853.606	43.18
853.781	-1.88
853.956	26.79
854.131	88.23
854.305	49.32
854.48	14.51
854.655	57.51
854.83	2.22
855.005	-61.27
855.18	82.09
855.354	41.13
855.529	32.94
855.704	63.66
855.879	67.75
856.053	104.62
856.228	4.27
856.403	-89.94
856.577	20.65
856.752	0.17
856.926	98.47
857.101	-44.88
857.276	-16.21
857.45	22.7
857.625	73.9
857.799	18.6
857.974	51.37
858.148	20.65
858.323	118.95
858.497	2.22
858.672	-53.08
858.846	-1.88
859.02	51.37
859.195	-10.07
859.369	37.03
859.543	98.47
859.718	55.47
859.892	57.51
860.066	22.7
860.241	14.51
860.415	-38.74
860.589	-40.79
860.763	28.84
860.938	-10.07
861.112	73.9
861.286	86.19
861.46	51.37
861.634	112.81
861.808	20.65
861.982	30.89
862.157	10.41
862.331	12.46
862.505	2.22
862.679	-85.84
862.853	96.43
863.027	43.18
863.201	63.66
863.375	2.22
863.549	55.47
863.722	45.23
863.896	84.14
864.07	4.27
864.244	-12.12
864.418	43.18
864.592	39.08
864.766	18.6
864.939	-53.08
865.113	4.27
865.287	-1.88
865.461	-12.12
865.634	4.27
865.808	-59.22
865.982	22.7
866.156	20.65
866.329	0.17
866.503	-22.36
866.676	-69.46
866.85	82.09
867.024	-20.31
867.197	-5.97
867.371	43.18
867.544	10.41
867.718	8.36
867.891	30.89
868.065	-24.4
868.238	0.17
868.412	45.23
868.585	75.95
868.759	55.47
868.932	45.23
869.105	24.75
869.279	45.23
869.452	-12.12
869.625	69.8
869.799	75.95
869.972	22.7
870.145	73.9
870.319	47.27
870.492	-14.17
870.665	-10.07
870.838	-14.17
871.011	-59.22
871.185	47.27
871.358	-24.4
871.531	20.65
871.704	-91.99
871.877	80.04
872.05	24.75
872.223	0.17
872.396	59.56
872.569	0.17
872.742	-12.12
872.915	34.99
873.088	47.27
873.261	55.47
873.434	20.65
873.607	90.28
873.78	0.17
873.953	-65.36
874.126	67.75
874.299	-14.17
874.471	-28.5
874.644	39.08
874.817	166.06
874.99	90.28
875.163	0.17
875.335	94.38
875.508	73.9
875.681	47.27
875.853	-42.84
876.026	26.79
876.199	-5.97
876.371	26.79
876.544	-32.6
876.717	112.81
876.889	-8.02
877.062	20.65
877.234	-48.98
877.407	61.61
877.579	0.17
877.752	49.32
877.924	-26.45
878.097	45.23
878.269	57.51
878.442	39.08
878.614	30.89
878.786	96.43
878.959	28.84
879.131	37.03
879.303	-18.26
879.476	47.27
879.648	88.23
879.82	-14.17
879.993	57.51
880.165	-5.97
880.337	-38.74
880.509	-55.12
880.681	14.51
880.854	-59.22
881.026	88.23
881.198	59.56
881.37	-3.93
881.542	61.61
881.714	2.22
881.886	-26.45
882.058	-53.08
882.23	88.23
882.402	4.27
882.574	-24.4
882.746	53.42
882.918	39.08
883.09	10.41
883.262	4.27
883.434	-77.65
883.606	6.31
883.778	-30.55
883.95	92.33
884.122	32.94
884.293	28.84
884.465	0.17
884.637	34.99
884.809	84.14
884.98	-38.74
885.152	-59.22
885.324	-16.21
885.496	-55.12
885.667	-1.88
885.839	-42.84
886.011	63.66
886.182	4.27
886.354	-12.12
886.525	24.75
886.697	30.89
886.869	-5.97
887.04	18.6
887.212	49.32
887.383	55.47
887.555	-34.64
887.726	71.85
887.897	28.84
888.069	26.79
888.24	22.7
888.412	34.99
888.583	-22.36
888.754	28.84
888.926	-63.32
889.097	12.46
889.268	-63.32
889.44	57.51
889.611	-51.03
889.782	0.17
889.953	-24.4
890.125	69.8
890.296	-69.46
890.467	45.23
890.638	2.22
890.809	10.41
890.98	-10.07
891.151	-38.74
891.323	75.95
891.494	34.99
891.665	-20.31
891.836	18.6
892.007	-24.4
892.178	-59.22
892.349	-26.45
892.52	-51.03
892.691	92.33
892.862	12.46
893.032	10.41
893.203	-20.31
893.374	39.08
893.545	55.47
893.716	-22.36
893.887	-51.03
894.057	32.94
894.228	6.31
894.399	4.27
894.57	14.51
894.74	-20.31
894.911	-34.64
895.082	-24.4
895.253	12.46
895.423	-1.88
895.594	22.7
895.764	8.36
895.935	39.08
896.106	-28.5
896.276	-83.8
896.447	-8.02
896.617	22.7
896.788	6.31
896.958	-22.36
897.129	67.75
897.299	28.84
897.47	57.51
897.64	39.08
897.81	-20.31
897.981	-87.89
898.151	-16.21
898.322	14.51
898.492	47.27
898.662	-8.02
898.832	-57.17
899.003	8.36
899.173	6.31
899.343	-65.36
899.513	-83.8
