Data from USB4F104151__26__12-23-38-021.txt Node

Date: Fri Mar 14 12:23:38 EDT 2025
User: louis
Spectrometer: USB4F10415
Trigger mode: 4
Integration Time (sec): 3.500000E-2
Scans to average: 1
Electric dark correction enabled: true
Nonlinearity correction enabled: false
Boxcar width: 0
XAxis mode: Wavelengths
Number of Pixels in Spectrum: 3648
>>>>>Begin Spectral Data<<<<<
178.204	-201.55
178.424	-201.55
178.644	-201.55
178.864	-189.27
179.084	-164.69
179.304	9.39
179.524	19.63
179.744	-9.05
179.964	56.49
180.184	-70.48
180.404	5.29
180.624	-4.95
180.844	-39.76
181.064	-37.72
181.283	-4.95
181.503	17.58
181.723	58.54
181.943	-68.44
182.163	66.73
182.383	-2.9
182.602	-0.85
182.822	11.43
183.042	76.97
183.262	79.02
183.482	13.48
183.701	-66.39
183.921	52.39
184.141	-31.57
184.361	46.25
184.58	1.19
184.8	-58.2
185.02	-29.52
185.239	66.73
185.459	-15.19
185.679	-47.96
185.898	-17.24
186.118	44.2
186.338	33.96
186.557	-13.14
186.777	-4.95
186.997	-0.85
187.216	21.67
187.436	64.68
187.655	-2.9
187.875	62.63
188.095	-64.34
188.314	70.83
188.534	15.53
188.753	-39.76
188.973	-9.05
189.192	1.19
189.412	42.15
189.631	-4.95
189.851	70.83
190.07	85.16
190.29	-7
190.509	-33.62
190.729	31.91
190.948	27.82
191.168	171.18
191.387	68.78
191.607	3.24
191.826	70.83
192.045	3.24
192.265	-50
192.484	-13.14
192.704	11.43
192.923	-78.68
193.142	146.6
193.362	29.87
193.581	33.96
193.8	40.11
194.02	9.39
194.239	-9.05
194.458	-9.05
194.678	-58.2
194.897	-54.1
195.116	-52.05
195.335	-62.29
195.555	1.19
195.774	-41.81
195.993	38.06
196.212	-4.95
196.432	-17.24
196.651	-9.05
196.87	1.19
197.089	50.35
197.308	-17.24
197.528	38.06
197.747	-54.1
197.966	1.19
198.185	1.19
198.404	52.39
198.623	44.2
198.842	44.2
199.062	23.72
199.281	31.91
199.5	11.43
199.719	-29.52
199.938	68.78
200.157	1.19
200.376	7.34
200.595	66.73
200.814	76.97
201.033	-72.53
201.252	1.19
201.471	-17.24
201.69	48.3
201.909	58.54
202.128	-52.05
202.347	9.39
202.566	-7
202.785	-21.33
203.004	-15.19
203.223	74.92
203.442	9.39
203.661	58.54
203.879	44.2
204.098	23.72
204.317	-78.68
204.536	-21.33
204.755	64.68
204.974	68.78
205.193	-2.9
205.411	101.55
205.63	48.3
205.849	9.39
206.068	-50
206.287	-39.76
206.505	13.48
206.724	-4.95
206.943	-0.85
207.162	46.25
207.381	54.44
207.599	-7
207.818	23.72
208.037	-25.43
208.255	7.34
208.474	-7
208.693	-27.48
208.911	-15.19
209.13	-11.09
209.349	62.63
209.567	89.26
209.786	38.06
210.005	76.97
210.223	-64.34
210.442	-11.09
210.661	-52.05
210.879	-7
211.098	-11.09
211.316	-23.38
211.535	36.01
211.753	50.35
211.972	-62.29
212.191	-13.14
212.409	-52.05
212.628	38.06
212.846	-84.82
213.065	-21.33
213.283	-31.57
213.502	-31.57
213.72	-21.33
213.938	-27.48
214.157	-2.9
214.375	44.2
214.594	31.91
214.812	70.83
215.031	-0.85
215.249	19.63
215.467	52.39
215.686	44.2
215.904	48.3
216.122	-23.38
216.341	72.87
216.559	5.29
216.778	31.91
216.996	72.87
217.214	56.49
217.432	-45.91
217.651	-37.72
217.869	70.83
218.087	79.02
218.306	-21.33
218.524	66.73
218.742	-17.24
218.96	60.59
219.179	-25.43
219.397	-58.2
219.615	99.5
219.833	-11.09
220.051	3.24
220.27	5.29
220.488	-43.86
220.706	13.48
220.924	33.96
221.142	19.63
221.36	-17.24
221.578	56.49
221.796	-15.19
222.015	7.34
222.233	33.96
222.451	46.25
222.669	-11.09
222.887	95.4
223.105	-13.14
223.323	-52.05
223.541	-43.86
223.759	-13.14
223.977	11.43
224.195	-76.63
224.413	38.06
224.631	76.97
224.849	-41.81
225.067	93.35
225.285	-68.44
225.503	5.29
225.721	-37.72
225.939	-4.95
226.157	62.63
226.375	132.26
226.592	33.96
226.81	-27.48
227.028	64.68
227.246	36.01
227.464	7.34
227.682	81.07
227.9	99.5
228.117	40.11
228.335	-37.72
228.553	31.91
228.771	5.29
228.989	44.2
229.206	25.77
229.424	-4.95
229.642	-39.76
229.86	15.53
230.077	9.39
230.295	15.53
230.513	27.82
230.731	-21.33
230.948	25.77
231.166	52.39
231.384	-64.34
231.601	13.48
231.819	40.11
232.037	31.91
232.254	38.06
232.472	19.63
232.689	38.06
232.907	76.97
233.125	93.35
233.342	-52.05
233.56	52.39
233.777	-9.05
233.995	58.54
234.213	66.73
234.43	31.91
234.648	-0.85
234.865	-39.76
235.083	60.59
235.3	-31.57
235.518	83.11
235.735	105.64
235.953	40.11
236.17	-4.95
236.388	9.39
236.605	60.59
236.822	27.82
237.04	5.29
237.257	-2.9
237.475	-41.81
237.692	72.87
237.909	52.39
238.127	-33.62
238.344	27.82
238.562	-19.29
238.779	-60.24
238.996	-9.05
239.214	-43.86
239.431	48.3
239.648	-76.63
239.865	95.4
240.083	58.54
240.3	31.91
240.517	-62.29
240.735	83.11
240.952	70.83
241.169	66.73
241.386	-21.33
241.603	25.77
241.821	36.01
242.038	58.54
242.255	52.39
242.472	-2.9
242.689	115.88
242.907	-9.05
243.124	87.21
243.341	-56.15
243.558	27.82
243.775	-88.92
243.992	5.29
244.209	29.87
244.426	128.17
244.643	52.39
244.86	3.24
245.078	66.73
245.295	-27.48
245.512	3.24
245.729	-43.86
245.946	44.2
246.163	1.19
246.38	-52.05
246.597	11.43
246.814	-47.96
247.031	48.3
247.248	17.58
247.464	93.35
247.681	72.87
247.898	38.06
248.115	101.55
248.332	62.63
248.549	21.67
248.766	124.07
248.983	87.21
249.2	-4.95
249.417	105.64
249.633	103.59
249.85	11.43
250.067	15.53
250.284	7.34
250.501	113.83
250.717	29.87
250.934	-29.52
251.151	17.58
251.368	-19.29
251.585	52.39
251.801	27.82
252.018	-13.14
252.235	46.25
252.451	-9.05
252.668	5.29
252.885	85.16
253.102	29.87
253.318	-0.85
253.535	-21.33
253.752	7.34
253.968	48.3
254.185	25.77
254.401	-21.33
254.618	97.45
254.835	11.43
255.051	87.21
255.268	13.48
255.484	60.59
255.701	48.3
255.917	21.67
256.134	-62.29
256.351	79.02
256.567	-21.33
256.784	-9.05
257	-109.4
257.217	19.63
257.433	-15.19
257.65	-7
257.866	68.78
258.082	-17.24
258.299	-60.24
258.515	33.96
258.732	-70.48
258.948	-25.43
259.165	5.29
259.381	36.01
259.597	-9.05
259.814	-17.24
260.03	15.53
260.246	42.15
260.463	-2.9
260.679	11.43
260.895	36.01
261.112	-37.72
261.328	50.35
261.544	23.72
261.761	132.26
261.977	-19.29
262.193	-33.62
262.409	83.11
262.626	-7
262.842	-27.48
263.058	72.87
263.274	-4.95
263.49	-21.33
263.707	60.59
263.923	19.63
264.139	-9.05
264.355	13.48
264.571	5.29
264.787	-17.24
265.004	19.63
265.22	-25.43
265.436	-2.9
265.652	15.53
265.868	-2.9
266.084	33.96
266.3	-13.14
266.516	27.82
266.732	23.72
266.948	23.72
267.164	48.3
267.38	-56.15
267.596	66.73
267.812	68.78
268.028	66.73
268.244	3.24
268.46	31.91
268.676	60.59
268.892	-21.33
269.108	54.44
269.324	-13.14
269.54	-4.95
269.756	31.91
269.972	-78.68
270.188	17.58
270.403	-0.85
270.619	-7
270.835	-0.85
271.051	74.92
271.267	-29.52
271.483	-7
271.698	7.34
271.914	9.39
272.13	3.24
272.346	33.96
272.562	-13.14
272.777	46.25
272.993	-17.24
273.209	-11.09
273.425	-4.95
273.64	-35.67
273.856	48.3
274.072	33.96
274.287	25.77
274.503	21.67
274.719	17.58
274.934	19.63
275.15	-21.33
275.366	33.96
275.581	-9.05
275.797	-11.09
276.012	-27.48
276.228	-39.76
276.444	25.77
276.659	42.15
276.875	40.11
277.09	60.59
277.306	1.19
277.521	1.19
277.737	5.29
277.952	46.25
278.168	11.43
278.383	-43.86
278.599	-41.81
278.814	-35.67
279.03	-31.57
279.245	44.2
279.461	1.19
279.676	1.19
279.892	42.15
280.107	-0.85
280.322	42.15
280.538	44.2
280.753	3.24
280.969	21.67
281.184	-2.9
281.399	93.35
281.615	87.21
281.83	29.87
282.045	-9.05
282.26	21.67
282.476	-37.72
282.691	42.15
282.906	11.43
283.122	52.39
283.337	-33.62
283.552	21.67
283.767	-86.87
283.983	3.24
284.198	29.87
284.413	9.39
284.628	-7
284.843	23.72
285.058	60.59
285.274	9.39
285.489	-45.91
285.704	-23.38
285.919	-52.05
286.134	62.63
286.349	13.48
286.564	-13.14
286.779	62.63
286.995	72.87
287.21	-33.62
287.425	-17.24
287.64	-25.43
287.855	-11.09
288.07	-29.52
288.285	52.39
288.5	36.01
288.715	52.39
288.93	-19.29
289.145	27.82
289.36	48.3
289.575	38.06
289.79	54.44
290.004	9.39
290.219	44.2
290.434	23.72
290.649	-17.24
290.864	-19.29
291.079	-37.72
291.294	62.63
291.509	31.91
291.724	-45.91
291.938	-9.05
292.153	99.5
292.368	70.83
292.583	66.73
292.798	-9.05
293.012	-7
293.227	-31.57
293.442	-35.67
293.657	58.54
293.871	48.3
294.086	-4.95
294.301	74.92
294.516	-2.9
294.73	-33.62
294.945	-66.39
295.16	-25.43
295.374	27.82
295.589	9.39
295.804	-7
296.018	-9.05
296.233	97.45
296.447	42.15
296.662	44.2
296.877	115.88
297.091	74.92
297.306	46.25
297.52	-45.91
297.735	1.19
297.949	97.45
298.164	-0.85
298.378	13.48
298.593	-70.48
298.807	46.25
299.022	9.39
299.236	-4.95
299.451	-19.29
299.665	72.87
299.88	-41.81
300.094	23.72
300.309	17.58
300.523	81.07
300.737	-27.48
300.952	19.63
301.166	91.31
301.381	79.02
301.595	-31.57
301.809	27.82
302.024	-2.9
302.238	-33.62
302.452	21.67
302.667	-2.9
302.881	17.58
303.095	72.87
303.309	9.39
303.524	-39.76
303.738	-11.09
303.952	15.53
304.166	-17.24
304.381	-84.82
304.595	54.44
304.809	38.06
305.023	-9.05
305.237	13.48
305.452	3.24
305.666	58.54
305.88	44.2
306.094	21.67
306.308	44.2
306.522	-33.62
306.736	38.06
306.95	54.44
307.164	-54.1
307.379	-58.2
307.593	11.43
307.807	70.83
308.021	36.01
308.235	3.24
308.449	-39.76
308.663	13.48
308.877	66.73
309.091	38.06
309.305	23.72
309.519	11.43
309.733	83.11
309.947	-50
310.161	48.3
310.374	66.73
310.588	50.35
310.802	-31.57
311.016	-37.72
311.23	-56.15
311.444	-4.95
311.658	19.63
311.872	66.73
312.085	130.22
312.299	76.97
312.513	76.97
312.727	79.02
312.941	105.64
313.154	17.58
313.368	66.73
313.582	-52.05
313.796	11.43
314.009	60.59
314.223	44.2
314.437	19.63
314.651	93.35
314.864	-11.09
315.078	19.63
315.292	-19.29
315.505	-7
315.719	-62.29
315.933	-13.14
316.146	-37.72
316.36	17.58
316.573	44.2
316.787	13.48
317.001	11.43
317.214	-0.85
317.428	87.21
317.641	-52.05
317.855	31.91
318.068	-17.24
318.282	79.02
318.495	136.36
318.709	3.24
318.922	15.53
319.136	83.11
319.349	52.39
319.563	21.67
319.776	15.53
319.99	7.34
320.203	29.87
320.417	7.34
320.63	36.01
320.843	31.91
321.057	13.48
321.27	42.15
321.483	-74.58
321.697	48.3
321.91	62.63
322.124	-23.38
322.337	33.96
322.55	-29.52
322.763	-4.95
322.977	-4.95
323.19	-31.57
323.403	13.48
323.617	74.92
323.83	66.73
324.043	9.39
324.256	-0.85
324.469	17.58
324.683	105.64
324.896	-15.19
325.109	48.3
325.322	-35.67
325.535	-9.05
325.748	27.82
325.962	46.25
326.175	66.73
326.388	1.19
326.601	-23.38
326.814	-7
327.027	38.06
327.24	19.63
327.453	-47.96
327.666	70.83
327.879	38.06
328.092	66.73
328.305	13.48
328.518	-19.29
328.731	23.72
328.944	-11.09
329.157	33.96
329.37	-7
329.583	-13.14
329.796	17.58
330.009	-95.06
330.222	42.15
330.435	-43.86
330.648	27.82
330.861	11.43
331.073	33.96
331.286	54.44
331.499	9.39
331.712	-27.48
331.925	-13.14
332.138	7.34
332.35	36.01
332.563	52.39
332.776	-66.39
332.989	3.24
333.202	31.91
333.414	52.39
333.627	-27.48
333.84	-15.19
334.053	60.59
334.265	-27.48
334.478	40.11
334.691	36.01
334.903	56.49
335.116	-23.38
335.329	54.44
335.541	38.06
335.754	130.22
335.966	-54.1
336.179	40.11
336.392	40.11
336.604	60.59
336.817	60.59
337.029	17.58
337.242	-27.48
337.454	60.59
337.667	64.68
337.88	99.5
338.092	-0.85
338.305	36.01
338.517	50.35
338.729	1.19
338.942	33.96
339.154	-13.14
339.367	-25.43
339.579	105.64
339.792	-43.86
340.004	-9.05
340.217	7.34
340.429	-43.86
340.641	-17.24
340.854	31.91
341.066	-54.1
341.278	66.73
341.491	109.74
341.703	36.01
341.915	17.58
342.128	-9.05
342.34	-0.85
342.552	21.67
342.764	42.15
342.977	-23.38
343.189	56.49
343.401	-25.43
343.613	-0.85
343.826	74.92
344.038	-50
344.25	21.67
344.462	23.72
344.674	19.63
344.886	48.3
345.099	38.06
345.311	-23.38
345.523	3.24
345.735	40.11
345.947	56.49
346.159	40.11
346.371	-4.95
346.583	-66.39
346.795	124.07
347.007	56.49
347.219	54.44
347.431	-17.24
347.643	58.54
347.855	-7
348.067	31.91
348.279	-15.19
348.491	62.63
348.703	33.96
348.915	79.02
349.127	23.72
349.339	48.3
349.551	-2.9
349.763	-11.09
349.975	15.53
350.187	27.82
350.399	-13.14
350.61	70.83
350.822	-60.24
351.034	13.48
351.246	42.15
351.458	15.53
351.669	72.87
351.881	93.35
352.093	11.43
352.305	-17.24
352.517	42.15
352.728	64.68
352.94	1.19
353.152	50.35
353.363	-41.81
353.575	15.53
353.787	13.48
353.999	97.45
354.21	101.55
354.422	-21.33
354.633	-19.29
354.845	42.15
355.057	50.35
355.268	33.96
355.48	-13.14
355.692	-13.14
355.903	74.92
356.115	-9.05
356.326	-99.16
356.538	-7
356.749	23.72
356.961	62.63
357.172	7.34
357.384	-15.19
357.595	99.5
357.807	-0.85
358.018	-7
358.23	-15.19
358.441	56.49
358.653	25.77
358.864	1.19
359.075	79.02
359.287	111.78
359.498	-50
359.709	40.11
359.921	1.19
360.132	-15.19
360.344	-4.95
360.555	19.63
360.766	54.44
360.977	-19.29
361.189	50.35
361.4	21.67
361.611	17.58
361.823	-13.14
362.034	17.58
362.245	-41.81
362.456	62.63
362.667	50.35
362.879	-7
363.09	46.25
363.301	68.78
363.512	85.16
363.723	-21.33
363.935	7.34
364.146	-7
364.357	21.67
364.568	7.34
364.779	-88.92
364.99	36.01
365.201	21.67
365.412	15.53
365.623	-97.11
365.834	46.25
366.045	44.2
366.256	76.97
366.467	42.15
366.678	36.01
366.889	-4.95
367.1	23.72
367.311	11.43
367.522	46.25
367.733	119.98
367.944	107.69
368.155	52.39
368.366	3.24
368.577	48.3
368.788	70.83
368.999	-2.9
369.209	62.63
369.42	66.73
369.631	81.07
369.842	40.11
370.053	-11.09
370.264	21.67
370.474	-17.24
370.685	29.87
370.896	3.24
371.107	15.53
371.317	21.67
371.528	-2.9
371.739	56.49
371.95	-35.67
372.16	-21.33
372.371	-47.96
372.582	31.91
372.792	33.96
373.003	97.45
373.214	85.16
373.424	-2.9
373.635	42.15
373.846	62.63
374.056	-0.85
374.267	62.63
374.477	19.63
374.688	15.53
374.898	64.68
375.109	13.48
375.319	-29.52
375.53	42.15
375.74	11.43
375.951	62.63
376.161	79.02
376.372	60.59
376.582	-25.43
376.793	38.06
377.003	48.3
377.214	1.19
377.424	-4.95
377.635	-7
377.845	29.87
378.055	66.73
378.266	17.58
378.476	70.83
378.686	21.67
378.897	29.87
379.107	29.87
379.317	-13.14
379.528	-19.29
379.738	81.07
379.948	1.19
380.158	-4.95
380.369	68.78
380.579	52.39
380.789	-19.29
380.999	50.35
381.21	25.77
381.42	81.07
381.63	54.44
381.84	23.72
382.05	3.24
382.261	83.11
382.471	83.11
382.681	-2.9
382.891	70.83
383.101	-19.29
383.311	-19.29
383.521	-35.67
383.731	117.93
383.941	97.45
384.151	89.26
384.361	50.35
384.571	48.3
384.781	5.29
384.991	33.96
385.201	83.11
385.411	-23.38
385.621	5.29
385.831	-2.9
386.041	31.91
386.251	62.63
386.461	-7
386.671	36.01
386.881	-11.09
387.091	60.59
387.301	124.07
387.511	9.39
387.72	44.2
387.93	89.26
388.14	-11.09
388.35	-4.95
388.56	83.11
388.769	56.49
388.979	40.11
389.189	-7
389.399	60.59
389.609	17.58
389.818	62.63
390.028	23.72
390.238	117.93
390.447	5.29
390.657	89.26
390.867	64.68
391.076	-0.85
391.286	-19.29
391.496	56.49
391.705	70.83
391.915	56.49
392.125	15.53
392.334	15.53
392.544	9.39
392.753	52.39
392.963	56.49
393.172	97.45
393.382	-21.33
393.591	95.4
393.801	62.63
394.01	91.31
394.22	99.5
394.429	60.59
394.639	95.4
394.848	5.29
395.058	31.91
395.267	-21.33
395.477	21.67
395.686	83.11
395.895	185.51
396.105	107.69
396.314	148.65
396.524	25.77
396.733	81.07
396.942	48.3
397.152	40.11
397.361	64.68
397.57	56.49
397.78	21.67
397.989	85.16
398.198	107.69
398.407	46.25
398.617	40.11
398.826	54.44
399.035	-11.09
399.244	109.74
399.453	1.19
399.663	-2.9
399.872	87.21
400.081	38.06
400.29	54.44
400.499	-13.14
400.708	122.02
400.917	58.54
401.127	60.59
401.336	19.63
401.545	183.46
401.754	113.83
401.963	91.31
402.172	60.59
402.381	19.63
402.59	128.17
402.799	87.21
403.008	64.68
403.217	38.06
403.426	52.39
403.635	97.45
403.844	-4.95
404.053	142.5
404.262	9.39
404.471	169.13
404.68	9.39
404.888	99.5
405.097	42.15
405.306	113.83
405.515	91.31
405.724	21.67
405.933	54.44
406.142	134.31
406.35	169.13
406.559	79.02
406.768	142.5
406.977	146.6
407.185	83.11
407.394	255.14
407.603	42.15
407.812	138.41
408.02	224.42
408.229	146.6
408.438	113.83
408.646	52.39
408.855	181.42
409.064	101.55
409.272	169.13
409.481	203.94
409.69	142.5
409.898	173.22
410.107	181.42
410.315	273.57
410.524	187.56
410.733	208.04
410.941	203.94
411.15	236.71
411.358	271.53
411.567	214.18
411.775	203.94
411.984	228.52
412.192	246.95
412.401	269.48
412.609	353.45
412.818	312.49
413.026	281.77
413.234	322.73
413.443	345.25
413.651	283.81
413.86	318.63
414.068	441.51
414.276	396.45
414.485	414.88
414.693	365.73
414.901	476.32
415.11	447.65
415.318	355.49
415.526	453.8
415.734	498.85
415.943	486.56
416.151	468.13
416.359	373.92
416.567	513.19
416.776	578.72
416.984	574.63
417.192	584.87
417.4	550.05
417.608	578.72
417.817	738.46
418.025	664.74
418.233	760.99
418.441	722.08
418.649	763.04
418.857	812.19
419.065	775.33
419.273	756.9
419.481	904.35
419.689	859.29
419.897	976.03
420.105	914.59
420.313	879.77
420.521	1025.18
420.729	1031.32
420.937	1039.51
421.145	1111.19
421.353	1074.33
421.561	1146.01
421.769	1283.22
421.977	1258.65
422.185	1195.16
422.393	1356.95
422.601	1410.2
422.809	1361.05
423.017	1498.26
423.224	1455.25
423.432	1518.74
423.64	1588.37
423.848	1698.96
424.056	1602.71
424.263	1690.77
424.471	1731.73
424.679	1795.22
424.887	1858.7
425.094	1938.57
425.302	2071.69
425.51	2065.55
425.718	2000.01
425.925	2114.7
426.133	2090.12
426.341	2325.64
426.548	2393.22
426.756	2507.91
426.964	2477.19
427.171	2481.28
427.379	2636.93
427.586	2655.36
427.794	2600.07
428.001	2956.41
428.209	3128.44
428.417	2948.22
428.624	3243.13
428.832	3243.13
429.039	3374.2
429.247	3171.45
429.454	3527.8
429.662	3716.21
429.869	3474.55
430.076	3751.03
430.284	3632.24
430.491	3765.36
430.699	4058.22
430.906	4041.84
431.114	4125.8
431.321	4332.65
431.528	4273.26
431.736	4500.58
431.943	4766.82
432.15	4611.17
432.358	4793.44
432.565	4969.57
432.772	4961.37
432.979	5184.6
433.187	5252.19
433.394	5313.63
433.601	5586.01
433.808	5780.56
434.016	5749.84
434.223	5823.57
434.43	6159.44
434.637	6175.82
434.844	6526.02
435.052	6579.27
435.259	6681.67
435.466	6896.71
435.673	6597.7
435.88	7052.35
436.087	7597.11
436.294	7502.9
436.501	7332.92
436.708	7433.27
436.915	7595.06
437.122	8006.7
437.329	8094.77
437.537	8334.38
437.743	8305.71
437.95	8408.11
438.157	8819.75
438.364	9178.14
438.571	8997.92
438.778	9180.19
438.985	9817.11
439.192	9673.75
439.399	9694.23
439.606	9593.88
439.813	10253.33
440.02	10714.12
440.227	10562.57
440.433	10466.31
440.64	10845.19
440.847	10505.23
441.054	11224.06
441.261	11877.37
441.467	11523.07
441.674	11783.16
441.881	12332.01
442.088	12268.53
442.294	12006.39
442.501	12667.88
442.708	12784.62
442.914	13229.02
443.121	13808.6
443.328	13472.73
443.534	14435.28
443.741	14074.84
443.948	13691.87
444.154	14775.24
444.361	14742.47
444.568	14994.37
444.774	14676.94
444.981	15070.15
445.187	15627.2
445.394	16348.08
445.6	15848.38
445.807	17374.11
446.013	16913.32
446.22	16884.65
446.426	17929.11
446.633	17931.16
446.839	18457.49
447.046	17853.34
447.252	18760.59
447.459	18813.84
447.665	18885.51
447.871	19440.51
448.078	20441.97
448.284	19424.13
448.491	19964.79
448.697	20839.28
448.903	21166.95
449.11	21136.23
449.316	20845.42
449.522	21035.88
449.728	21832.54
449.935	21924.7
450.141	22109.02
450.347	22649.68
450.553	21916.51
450.76	21695.33
450.966	22481.75
451.172	22575.95
451.378	23184.2
451.584	22745.94
451.791	23063.37
451.997	23171.91
452.203	23405.38
452.409	23444.29
452.615	23386.95
452.821	22276.95
453.027	22104.92
453.233	23601.99
453.44	22799.18
453.646	22725.46
453.852	23194.44
454.058	23186.25
454.264	22575.95
454.47	23122.76
454.676	22590.29
454.882	23356.23
455.088	21033.83
455.294	21465.96
455.5	21695.33
455.705	22395.73
455.911	21148.52
456.117	20751.21
456.323	20370.29
456.529	19411.84
456.735	20159.35
456.941	19710.85
457.147	19299.2
457.352	18848.65
457.558	18488.21
457.764	18514.83
457.97	18240.4
458.176	17849.24
458.381	17767.32
458.587	17073.06
458.793	16835.5
458.999	15860.66
459.204	17253.28
459.41	16753.58
459.616	15684.54
459.821	15727.55
460.027	15358.91
460.233	15199.17
460.438	14420.94
460.644	14773.19
460.85	14015.44
461.055	13886.42
461.261	13818.84
461.466	12712.94
461.672	12229.62
461.878	13339.62
462.083	12278.77
462.289	12010.48
462.494	12012.53
462.7	11627.51
462.905	11013.12
463.111	11531.26
463.316	11533.31
463.522	11318.27
463.727	11107.33
463.932	11359.23
464.138	11342.85
464.343	11244.54
464.549	10830.85
464.754	11316.22
464.959	11164.67
465.165	11162.62
465.37	10509.32
465.575	10302.48
465.781	10726.41
465.986	10990.59
466.191	10327.05
466.397	10269.71
466.602	9792.53
466.807	10095.63
467.012	10208.27
467.218	10210.32
467.423	9946.13
467.628	10089.49
467.833	10312.72
468.038	10109.97
468.244	9620.5
468.449	10013.71
468.654	9690.13
468.859	9636.89
469.064	9587.74
469.269	9219.1
469.474	9405.47
469.679	9442.33
469.885	9196.57
470.09	9425.95
470.295	9348.12
470.5	9180.19
470.705	9169.95
470.91	9092.13
471.115	8952.87
471.32	9012.26
471.525	9088.03
471.73	8758.31
471.935	8803.36
472.139	8274.99
472.344	8627.24
472.549	8404.01
472.754	8379.43
472.959	8311.85
473.164	8016.94
473.369	7963.7
473.574	8301.61
473.778	8219.69
473.983	8033.33
474.188	8012.85
474.393	7609.4
474.598	7502.9
474.802	7539.77
475.007	7539.77
475.212	7605.3
475.417	7355.45
475.621	7402.55
475.826	7371.83
476.031	7152.7
476.235	7044.16
476.44	7066.69
476.645	7146.56
476.849	7044.16
477.054	6720.58
477.259	6704.2
477.463	6759.49
477.668	6677.57
477.872	6653
478.077	6597.7
478.282	6370.38
478.486	6560.84
478.691	6177.87
478.895	6208.59
479.1	6317.13
479.304	6243.4
479.509	6169.68
479.713	6231.12
479.918	5971.02
480.122	5971.02
480.326	6038.61
480.531	5985.36
480.735	5934.16
480.94	6083.66
481.144	6114.38
481.348	5803.09
481.553	5975.12
481.757	5813.33
481.961	5973.07
482.166	6034.51
482.37	5760.08
482.574	5772.37
482.778	5917.78
482.983	6108.24
483.187	5850.19
483.391	6018.13
483.595	5743.7
483.8	5819.47
484.004	5792.85
484.208	6054.99
484.412	5866.58
484.616	5725.27
484.821	5989.46
485.025	5842
485.229	5813.33
485.433	5930.06
485.637	5782.61
485.841	5839.95
486.045	5733.46
486.249	5934.16
486.453	5850.19
486.657	5921.87
486.861	5809.23
487.065	5784.66
487.269	5915.73
487.473	5743.7
487.677	5796.95
487.881	5917.78
488.085	5772.37
488.289	5819.47
488.493	5860.43
488.697	5934.16
488.901	6057.04
489.105	5780.56
489.309	5960.78
489.512	5874.77
489.716	5844.05
489.92	5817.43
490.124	5852.24
490.328	6054.99
490.531	5837.91
490.735	6157.39
490.939	5950.54
491.143	5905.49
491.346	5923.92
491.55	5985.36
491.754	6145.1
491.958	6194.25
492.161	6222.92
492.365	6222.92
492.569	6141
492.772	6302.79
492.976	6413.38
493.18	6245.45
493.383	6308.94
493.587	6483.02
493.79	6616.13
493.994	6212.68
494.197	6274.12
494.401	6577.22
494.605	6564.93
494.808	6720.58
495.012	6689.86
495.215	6759.49
495.419	6659.14
495.622	6626.37
495.825	6952
496.029	7013.44
496.232	7027.78
496.436	6972.48
496.639	7117.89
496.843	7021.63
497.046	7261.24
497.249	7304.25
497.453	7339.07
497.656	7398.46
497.859	7482.42
498.063	7590.97
498.266	7820.34
498.469	7701.56
498.673	7828.53
498.876	7808.05
499.079	7947.31
499.282	8086.58
499.485	8285.23
499.689	8238.12
499.892	8178.73
500.095	8303.66
500.298	8465.45
500.501	8418.35
500.705	8557.61
500.908	8987.68
501.111	8821.8
501.314	9004.07
501.517	9186.33
501.72	9092.13
501.923	9122.85
502.126	9495.58
502.329	9415.71
502.532	9698.33
502.735	9557.02
502.938	9868.31
503.141	9913.36
503.344	9942.03
503.547	10007.57
503.75	10144.78
503.953	10333.2
504.156	10550.28
504.359	10630.15
504.562	10638.34
504.765	11064.32
504.968	10902.53
505.17	11041.79
505.373	11084.8
505.576	11359.23
505.779	11467.77
505.982	11459.58
506.185	11748.34
506.387	11877.37
506.59	11879.41
506.793	12227.57
506.996	12411.89
507.198	12493.8
507.401	12534.76
507.604	12841.96
507.807	12989.41
508.009	13114.34
508.212	12993.51
508.415	13382.62
508.617	13517.79
508.82	13560.8
509.022	13644.76
509.225	13954.01
509.428	13720.54
509.63	14224.34
509.833	14144.47
510.035	14584.78
510.238	14564.3
510.44	14857.16
510.643	15090.63
510.845	15352.77
511.048	15252.42
511.25	15209.41
511.453	15465.41
511.655	15614.91
511.858	15940.54
512.06	16241.59
512.262	16184.24
512.465	16444.34
512.667	16651.18
512.87	16915.37
513.072	16858.03
513.274	17052.58
513.477	17449.89
513.679	17472.42
513.881	17740.7
514.084	17947.54
514.286	18056.09
514.488	18054.04
514.69	18451.35
514.893	18733.96
515.095	19063.69
515.297	18992.01
515.499	19151.75
515.701	19450.75
515.904	19837.82
516.106	19780.48
516.308	20310.9
516.51	20427.63
516.712	20583.28
516.914	20714.35
517.116	21021.55
517.318	21240.68
517.52	21162.86
517.722	21287.78
517.925	21953.37
518.127	22332.25
518.329	22258.52
518.531	22109.02
518.733	22762.32
518.935	23044.94
519.136	22817.61
519.338	23325.51
519.54	23550.79
519.742	23819.07
519.944	23855.93
520.146	24429.37
520.348	24621.87
520.55	24628.02
520.752	24754.99
520.954	25201.45
521.155	25140.01
521.357	25582.37
521.559	25625.38
521.761	26143.52
521.963	26319.64
522.164	26565.4
522.366	26352.41
522.568	26755.86
522.77	27134.73
522.971	27628.29
523.173	27570.95
523.375	27616.01
523.576	27697.92
523.778	27894.53
523.98	28166.91
524.181	28445.43
524.383	28836.59
524.584	28889.84
524.786	29059.82
524.988	28812.02
525.189	29227.76
525.391	29559.53
525.592	29836
525.794	29713.13
525.995	30196.45
526.197	29864.67
526.398	30208.73
526.6	30380.76
526.801	30458.59
527.003	31077.07
527.204	31070.93
527.406	30943.95
527.607	31238.86
527.808	31441.61
528.01	31150.8
528.211	31441.61
528.412	31851.2
528.614	32027.33
528.815	31943.36
529.016	32178.88
529.218	31959.75
529.419	32291.52
529.62	32441.02
529.822	32420.54
530.023	32398.01
530.224	32471.74
530.425	32422.59
530.626	32385.72
530.828	32430.78
531.029	33493.68
531.23	32676.54
531.431	33153.71
531.632	33131.19
531.833	32688.82
532.035	33313.45
532.236	33483.44
532.437	33596.07
532.638	33559.21
532.839	33483.44
533.04	33788.58
533.241	33217.2
533.442	34101.92
533.643	33784.49
533.844	33653.42
534.045	33682.09
534.246	33198.77
534.447	33999.52
534.648	33194.67
534.849	33929.89
535.05	33823.4
535.251	33981.09
535.451	33778.34
535.652	34390.69
535.853	33919.65
536.054	34017.96
536.255	34198.18
536.456	33632.94
536.657	34216.61
536.857	34054.82
537.058	34065.06
537.259	34140.83
537.46	34339.49
537.66	34003.62
537.861	33796.77
538.062	33956.52
538.263	34380.45
538.463	34015.91
538.664	34273.95
538.865	34380.45
539.065	34654.87
539.266	33858.21
539.466	34183.84
539.667	33565.35
539.868	34558.62
540.068	34065.06
540.269	33835.69
540.469	33972.9
540.67	33958.56
540.87	34568.86
541.071	33987.24
541.271	34511.52
541.472	34179.75
541.672	33899.17
541.873	34089.63
542.073	33807.01
542.274	34130.59
542.474	33798.82
542.675	33858.21
542.875	34138.79
543.075	33942.18
543.276	33897.13
543.476	34484.89
543.676	33921.7
543.877	34067.11
544.077	34132.64
544.277	33823.4
544.478	34103.97
544.678	34337.44
544.878	33759.91
545.078	33942.18
545.279	33764.01
545.479	33970.85
545.679	34177.7
545.879	33899.17
546.079	33966.76
546.28	34048.68
546.48	33845.93
546.68	33964.71
546.88	34200.22
547.08	34003.62
547.28	33827.49
547.48	33594.03
547.68	33815.21
547.88	33866.41
548.081	33950.37
548.281	33905.32
548.481	34056.87
548.681	33954.47
548.881	33893.03
549.081	33831.59
549.28	33659.56
549.48	33751.72
549.68	33897.13
549.88	34327.2
550.08	33659.56
550.28	34007.72
550.48	33802.92
550.68	33995.43
550.88	33833.64
551.08	33716.9
551.279	33862.31
551.479	33616.55
551.679	33575.59
551.879	33528.49
552.079	34044.58
552.278	33505.96
552.478	34011.81
552.678	33555.11
552.878	34050.72
553.077	33721
553.277	33356.46
553.477	33929.89
553.676	33548.97
553.876	33583.79
554.076	33598.12
554.275	33241.78
554.475	33262.26
554.674	33600.17
554.874	33454.76
555.074	33227.44
555.273	33477.29
555.473	33327.79
555.672	33282.73
555.872	33278.64
556.071	33049.27
556.271	33311.41
556.47	33227.44
556.67	32842.42
556.869	33028.79
557.068	32897.72
557.268	33131.19
557.467	32875.19
557.667	32973.49
557.866	32553.66
558.065	32694.97
558.265	32676.54
558.464	32588.47
558.663	32823.99
558.863	32246.46
559.062	32740.02
559.261	32201.41
559.461	32975.54
559.66	32254.65
559.859	32223.93
560.058	32115.39
560.258	32176.83
560.457	31963.84
560.656	32262.85
560.855	31754.95
561.054	32154.3
561.253	31644.36
561.453	32025.28
561.652	31623.88
561.851	31849.16
562.05	31713.99
562.249	31062.74
562.448	31732.42
562.647	31556.3
562.846	31414.99
563.045	31019.73
563.244	30837.46
563.443	31152.85
563.642	30704.34
563.841	31193.81
564.04	30690.01
564.239	31068.88
564.438	30466.78
564.637	30667.48
564.836	30556.89
565.035	30155.49
565.234	30415.58
565.432	30421.72
565.631	30128.86
565.83	30188.25
566.029	29770.47
566.228	29901.54
566.427	29874.91
566.625	29733.6
566.824	29639.4
567.023	29891.3
567.222	29086.45
567.42	29534.95
567.619	29313.77
567.818	29190.89
568.016	29252.33
568.215	29418.22
568.414	28955.38
568.612	29172.46
568.811	28730.1
569.01	29137.65
569.208	28347.13
569.407	28521.21
569.605	28140.29
569.804	28345.08
570.002	28427
570.201	28373.75
570.4	27882.24
570.598	27955.97
570.797	27792.13
570.995	27828.99
571.193	27480.84
571.392	27697.92
571.59	27409.16
571.789	27464.46
571.987	27237.13
572.186	27388.68
572.384	27142.92
572.582	26907.41
572.781	27001.61
572.979	26546.97
573.177	27097.87
573.376	26759.95
573.574	26471.19
573.772	26440.47
573.971	26071.84
574.169	26012.45
574.367	26096.41
574.565	26432.28
574.763	26094.36
574.962	25975.58
575.16	25510.69
575.358	25856.8
575.556	25318.18
575.754	25885.47
575.952	25371.43
576.151	25615.14
576.349	25363.24
576.547	25330.47
576.745	25189.16
576.943	25432.87
577.141	25039.66
577.339	25183.02
577.537	24869.68
577.735	24568.63
577.933	24699.7
578.131	24783.66
578.329	24388.41
578.527	24263.48
578.725	24591.16
578.923	24453.94
579.121	24187.71
579.319	23841.6
579.516	24130.36
579.714	24009.53
579.912	23952.19
580.11	23823.17
580.308	23685.95
580.506	23731.01
580.704	23302.98
580.901	23405.38
581.099	23788.35
581.297	23395.14
581.495	23079.75
581.692	23458.63
581.89	23001.93
582.088	23280.46
582.285	22952.78
582.483	23169.87
582.681	23077.71
582.878	22856.53
583.076	22516.56
583.274	22563.67
583.471	22322.01
583.669	22457.17
583.866	22358.87
584.064	22555.47
584.262	22033.24
584.459	22537.04
584.657	21920.6
584.854	22432.6
585.052	21650.27
585.249	22190.94
585.447	21924.7
585.644	21513.06
585.841	21789.53
586.039	21914.46
586.236	21570.4
586.434	21287.78
586.631	21441.38
586.828	21443.43
587.026	21189.48
587.223	21334.89
587.42	21355.36
587.618	21142.38
587.815	20935.53
588.012	21205.86
588.21	20956.01
588.407	21035.88
588.604	20624.24
588.801	20405.11
588.999	21070.7
589.196	20728.69
589.393	20697.97
589.59	20525.94
589.787	19870.59
589.984	20444.02
590.182	20204.41
590.379	20464.5
590.576	20177.78
590.773	20196.21
590.97	19731.33
591.167	20120.44
591.364	19645.31
591.561	19839.87
591.758	19690.37
591.955	19583.87
592.152	19714.94
592.349	19487.62
592.546	19712.89
592.743	19506.05
592.94	19276.68
593.137	19221.38
593.334	19616.64
593.531	19360.64
593.727	19315.59
593.924	19100.55
594.121	19264.39
594.318	18891.66
594.515	18711.44
594.712	18977.67
594.908	18865.03
595.105	18729.87
595.302	18736.01
595.499	18664.33
595.696	18684.81
595.892	18568.08
596.089	18383.76
596.286	18500.5
596.482	18254.74
596.679	18285.46
596.876	18418.58
597.072	18310.04
597.269	18361.23
597.466	18189.21
597.662	17925.02
597.859	17994.65
598.055	18193.3
598.252	17652.64
598.448	17978.26
598.645	17617.82
598.841	17529.76
599.038	17746.84
599.234	17759.13
599.431	17351.59
599.627	17509.28
599.824	17603.49
600.02	17224.61
600.217	17433.5
600.413	17472.42
600.609	17177.51
600.806	16970.66
601.002	17068.97
601.198	16939.94
601.395	17077.16
601.591	16663.47
601.787	16786.35
601.984	16855.98
602.18	17021.86
602.376	16755.63
602.572	16587.69
602.769	16776.11
602.965	16405.42
603.161	16501.68
603.357	16339.89
603.553	16483.25
603.75	16382.9
603.946	16321.46
604.142	16288.69
604.338	16135.09
604.534	16327.6
604.73	16071.61
604.926	15778.75
605.122	16047.03
605.318	15889.34
605.514	15977.4
605.71	15778.75
605.906	15846.33
606.102	15711.16
606.298	15621.05
606.494	15750.07
606.69	15586.24
606.886	15506.37
607.082	15590.33
607.278	15614.91
607.474	15260.61
607.67	15506.37
607.866	15127.49
608.062	15332.29
608.257	15539.13
608.453	15074.24
608.649	15215.55
608.845	15000.52
609.041	15229.89
609.236	15205.31
609.432	15088.58
609.628	14955.46
609.824	14986.18
610.019	14736.33
610.215	14506.96
610.411	14887.88
610.606	14783.43
610.802	14724.04
610.998	14859.21
611.193	14824.39
611.389	14695.37
611.584	14627.79
611.78	14494.67
611.976	14595.02
612.171	14629.84
612.367	14357.46
612.562	14439.37
612.758	14033.88
612.953	14080.98
613.149	14394.32
613.344	14103.51
613.539	14349.26
613.735	14277.58
613.93	14097.36
614.126	14142.42
614.321	14205.91
614.517	14472.14
614.712	13906.9
614.907	13913.05
615.103	14279.63
615.298	13763.54
615.493	14123.99
615.688	13655
615.884	13908.95
616.079	13638.62
616.274	13810.65
616.47	13775.83
616.665	13736.92
616.86	13683.67
617.055	13611.99
617.25	13587.42
617.445	13671.39
617.641	13458.4
617.836	13573.08
618.031	13442.01
618.226	13683.67
618.421	13491.16
618.616	13536.22
618.811	13265.89
619.006	13435.87
619.201	13128.67
619.396	13114.34
619.591	12864.49
619.786	13212.64
619.981	12856.29
620.176	12954.6
620.371	12798.95
620.566	12839.91
620.761	12647.4
620.956	12856.29
621.151	12483.56
621.346	12708.84
621.541	12319.73
621.735	12473.32
621.93	12344.3
622.125	12276.72
622.32	12002.29
622.515	11963.38
622.709	12145.65
622.904	12086.26
623.099	12024.82
623.294	12067.83
623.488	11756.54
623.683	11817.97
623.878	11449.34
624.072	11920.37
624.267	11609.08
624.462	11629.56
624.656	11316.22
624.851	11330.56
625.046	11590.65
625.24	11295.74
625.435	11090.95
625.629	11303.93
625.824	11201.54
626.018	11017.22
626.213	10998.79
626.407	10957.83
626.602	10779.65
626.796	10853.38
626.991	10773.51
627.185	10501.13
627.38	10648.58
627.574	10595.34
627.768	10470.41
627.963	10316.81
628.157	10320.91
628.352	10318.86
628.546	10224.65
628.74	10331.15
628.935	10152.98
629.129	10028.05
629.323	10167.31
629.517	10071.06
629.712	10173.46
629.906	10120.21
630.1	9825.3
630.294	9722.9
630.489	9694.23
630.683	9798.68
630.877	9534.49
631.071	9669.66
631.265	9544.73
631.459	9516.06
631.653	9471
631.848	9509.91
632.042	9245.73
632.236	9331.74
632.43	9182.24
632.624	9421.85
632.818	9114.66
633.012	8991.78
633.206	8979.49
633.4	9016.35
633.594	8909.86
633.788	8920.1
633.982	8852.52
634.176	8864.8
634.369	8750.12
634.563	8635.43
634.757	8504.36
634.951	8854.56
635.145	8535.08
635.339	8703.01
635.533	8612.9
635.726	8399.91
635.92	8408.11
636.114	8401.96
636.308	8277.04
636.501	8426.54
636.695	8270.89
636.889	8076.34
637.083	7932.98
637.276	7988.27
637.47	7957.55
637.664	8045.62
637.857	8047.66
638.051	7943.22
638.244	7752.76
638.438	7767.09
638.632	8016.94
638.825	7543.86
639.019	7644.21
639.212	7654.45
639.406	7722.04
639.599	7404.6
639.793	7527.48
639.986	7330.87
640.18	7386.17
640.373	7343.16
640.567	7308.35
640.76	7382.07
640.954	7334.97
641.147	7218.24
641.34	7322.68
641.534	7240.76
641.727	7076.93
641.92	7154.75
642.114	7224.38
642.307	7183.42
642.5	6917.19
642.694	6890.56
642.887	6921.28
643.08	6669.38
643.273	6880.32
643.467	6743.11
643.66	6646.85
643.853	6814.79
644.046	6702.15
644.239	6700.1
644.432	6442.06
644.626	6577.22
644.819	6446.15
645.012	6405.19
645.205	6556.74
645.398	6294.6
645.591	6308.94
645.784	6558.79
645.977	6181.96
646.17	6300.75
646.363	6253.64
646.556	6181.96
646.749	6143.05
646.942	6155.34
647.135	5866.58
647.328	6089.81
647.521	5899.34
647.714	5930.06
647.907	5932.11
648.099	5712.98
648.292	5798.99
648.485	5917.78
648.678	5749.84
648.871	5657.68
649.064	5733.46
649.256	5657.68
649.449	5776.47
649.642	5561.43
649.835	5618.77
650.027	5610.58
650.22	5573.72
650.413	5526.61
650.605	5639.25
650.798	5485.65
650.991	5475.42
651.183	5499.99
651.376	5452.89
651.568	5450.84
651.761	5293.15
651.954	5366.87
652.146	5379.16
652.339	5385.3
652.531	5203.04
652.724	5200.99
652.916	5031.01
653.109	5117.02
653.301	5053.53
653.494	5088.35
653.686	5022.81
653.879	5014.62
654.071	5024.86
654.263	5014.62
654.456	4994.14
654.648	5022.81
654.84	4807.78
655.033	4809.83
655.225	4901.98
655.417	4801.63
655.61	4947.04
655.802	4867.17
655.994	4807.78
656.186	4791.39
656.379	4699.23
656.571	4775.01
656.763	4650.08
656.955	4705.38
657.148	4729.95
657.34	4627.56
657.532	4578.4
657.724	4668.52
657.916	4549.73
658.108	4496.49
658.3	4531.3
658.492	4486.25
658.684	4455.53
658.876	4371.56
659.068	4324.46
659.26	4228.2
659.452	4392.04
659.644	4510.82
659.836	4377.7
660.028	4346.98
660.22	4197.48
660.412	4189.29
660.604	4291.69
660.796	4373.61
660.988	4117.61
661.18	4105.32
661.372	4215.91
661.563	4226.15
661.755	4019.31
661.947	4158.57
662.139	4217.96
662.331	4072.56
662.522	4068.46
662.714	4095.08
662.906	4084.84
663.097	3978.35
663.289	3929.2
663.481	4058.22
663.673	3923.05
663.864	3933.29
664.056	3878
664.247	3961.97
664.439	3828.85
664.631	3935.34
664.822	3841.14
665.014	3816.56
665.205	3945.58
665.397	3718.26
665.588	3728.5
665.78	3765.36
665.971	3757.17
666.163	3689.59
666.354	3855.47
666.546	3703.92
666.737	3720.31
666.929	3744.88
667.12	3773.55
667.311	3662.96
667.503	3558.52
667.694	3572.85
667.885	3542.13
668.077	3556.47
668.268	3562.61
668.459	3460.21
668.651	3615.86
668.842	3482.74
669.033	3665.01
669.224	3544.18
669.416	3607.67
669.607	3581.04
669.798	3515.51
669.989	3523.7
670.18	3591.28
670.371	3585.14
670.563	3421.3
670.754	3511.41
670.945	3554.42
671.136	3458.17
671.327	3349.62
671.518	3601.52
671.709	3544.18
671.9	3490.93
672.091	3540.08
672.282	3523.7
672.473	3501.17
672.664	3431.54
672.855	3353.72
673.046	3435.64
673.237	3454.07
673.428	3433.59
673.619	3466.36
673.809	3329.14
674	3388.53
674.191	3519.6
674.382	3384.44
674.573	3478.65
674.764	3474.55
674.954	3452.02
675.145	3363.96
675.336	3470.45
675.527	3382.39
675.717	3396.73
675.908	3298.42
676.099	3421.3
676.289	3411.06
676.48	3400.82
676.671	3417.21
676.861	3513.46
677.052	3372.15
677.243	3411.06
677.433	3355.77
677.624	3417.21
677.814	3308.66
678.005	3355.77
678.195	3386.49
678.386	3372.15
678.576	3499.13
678.767	3415.16
678.957	3429.49
679.148	3447.93
679.338	3386.49
679.529	3452.02
679.719	3390.58
679.909	3441.78
680.1	3298.42
680.29	3468.41
680.481	3458.17
680.671	3404.92
680.861	3384.44
681.052	3417.21
681.242	3390.58
681.432	3484.79
681.622	3480.69
681.813	3439.73
682.003	3323
682.193	3458.17
682.383	3519.6
682.573	3497.08
682.764	3439.73
682.954	3548.28
683.144	3482.74
683.334	3415.16
683.524	3456.12
683.714	3581.04
683.904	3462.26
684.094	3404.92
684.284	3445.88
684.474	3609.72
684.664	3499.13
684.854	3509.37
685.044	3480.69
685.234	3376.25
685.424	3345.53
685.614	3433.59
685.804	3499.13
685.994	3521.65
686.184	3458.17
686.374	3230.84
686.564	3400.82
686.753	3413.11
686.943	3243.13
687.133	3466.36
687.323	3269.75
687.513	3366.01
687.702	3286.14
687.892	3349.62
688.082	3335.29
688.272	3574.9
688.461	3337.34
688.651	3349.62
688.841	3220.6
689.03	3148.92
689.22	3357.82
689.41	3349.62
689.599	3265.66
689.789	3155.07
689.979	3159.16
690.168	3349.62
690.358	3355.77
690.547	3110.01
690.737	3153.02
690.926	3116.16
691.116	3107.96
691.305	3097.72
691.495	3148.92
691.684	3003.52
691.874	3038.33
692.063	3024
692.252	3054.72
692.442	3009.66
692.631	2923.65
692.82	2933.89
693.01	3028.09
693.199	2917.5
693.388	2837.63
693.578	2837.63
693.767	2905.21
693.956	2974.85
694.146	2901.12
694.335	2931.84
694.524	2880.64
694.713	2890.88
694.902	2907.26
695.092	2831.49
695.281	2851.97
695.47	2866.3
695.659	2765.95
695.848	2819.2
696.037	2577.54
696.226	2894.97
696.415	2761.86
696.604	2905.21
696.793	2923.65
696.982	2792.58
697.171	2925.69
697.36	2868.35
697.549	2729.09
697.738	2749.57
697.927	2694.27
698.116	2847.87
698.305	2778.24
698.494	2700.42
698.683	2700.42
698.872	2870.4
699.061	2768
699.25	2780.29
699.438	2894.97
699.627	2743.42
699.816	2839.68
700.005	2862.21
700.193	2778.24
700.382	2739.33
700.571	2802.82
700.76	2751.62
700.948	2833.54
701.137	2768
701.326	2854.02
701.514	2806.91
701.703	2845.82
701.892	2747.52
702.08	2757.76
702.269	2849.92
702.457	2894.97
702.646	2770.05
702.834	2714.75
703.023	2837.63
703.212	2780.29
703.4	2806.91
703.589	2686.08
703.777	2774.14
703.965	2737.28
704.154	2753.66
704.342	2727.04
704.531	2753.66
704.719	2770.05
704.907	2808.96
705.096	2780.29
705.284	2821.25
705.472	2772.1
705.661	2808.96
705.849	2901.12
706.037	2862.21
706.226	2929.79
706.414	2829.44
706.602	2925.69
706.79	2921.6
706.979	2681.99
707.167	3011.71
707.355	2811.01
707.543	2858.11
707.731	2913.41
707.919	2841.73
708.107	2882.69
708.296	2800.77
708.484	2694.27
708.672	2860.16
708.86	2927.74
709.048	2798.72
709.236	2921.6
709.424	2851.97
709.612	2892.93
709.8	2950.27
709.988	2878.59
710.176	3011.71
710.364	2964.61
710.551	2829.44
710.739	2944.13
710.927	3007.61
711.115	2968.7
711.303	2919.55
711.491	3009.66
711.679	3044.48
711.866	2966.65
712.054	3032.19
712.242	2927.74
712.43	3048.57
712.617	2997.37
712.805	2985.09
712.993	2864.25
713.181	3064.96
713.368	3036.28
713.556	3122.3
713.744	2919.55
713.931	3083.39
714.119	3052.67
714.306	3005.56
714.494	2948.22
714.682	3038.33
714.869	2952.32
715.057	2948.22
715.244	3042.43
715.432	3187.83
715.619	3071.1
715.807	3087.48
715.994	3116.16
716.182	3093.63
716.369	3091.58
716.556	3040.38
716.744	3005.56
716.931	3107.96
717.119	3173.5
717.306	3134.59
717.493	3083.39
717.681	3083.39
717.868	3183.74
718.055	3069.05
718.242	3230.84
718.43	3185.79
718.617	3224.7
718.804	3163.26
718.991	3202.17
719.179	3247.23
719.366	3196.03
719.553	3216.51
719.74	3243.13
719.927	3212.41
720.114	3298.42
720.301	3210.36
720.488	3159.16
720.676	3132.54
720.863	3210.36
721.05	3236.99
721.237	3267.7
721.424	3347.58
721.611	3316.86
721.798	3196.03
721.985	3310.71
722.172	3288.18
722.358	3294.33
722.545	3501.17
722.732	3269.75
722.919	3306.62
723.106	3212.41
723.293	3363.96
723.48	3390.58
723.667	3304.57
723.853	3480.69
724.04	3492.98
724.227	3402.87
724.414	3245.18
724.6	3398.77
724.787	3462.26
724.974	3437.69
725.161	3449.97
725.347	3374.2
725.534	3538.04
725.72	3484.79
725.907	3476.6
726.094	3447.93
726.28	3413.11
726.467	3419.25
726.653	3398.77
726.84	3611.76
727.027	3574.9
727.213	3392.63
727.4	3466.36
727.586	3423.35
727.773	3458.17
727.959	3433.59
728.145	3566.71
728.332	3540.08
728.518	3460.21
728.705	3566.71
728.891	3605.62
729.077	3583.09
729.264	3497.08
729.45	3613.81
729.636	3665.01
729.823	3527.8
730.009	3662.96
730.195	3552.37
730.382	3585.14
730.568	3624.05
730.754	3509.37
730.94	3650.67
731.126	3570.8
731.313	3624.05
731.499	3624.05
731.685	3732.59
731.871	3495.03
732.057	3724.4
732.243	3529.84
732.429	3570.8
732.615	3683.44
732.801	3720.31
732.987	3636.34
733.173	3488.89
733.359	3607.67
733.545	3763.31
733.731	3613.81
733.917	3640.44
734.103	3712.11
734.289	3691.63
734.475	3642.48
734.661	3726.45
734.847	3773.55
735.033	3601.52
735.219	3789.94
735.404	3622
735.59	3742.83
735.776	3722.35
735.962	3728.5
736.148	3624.05
736.333	3779.7
736.519	3697.78
736.705	3677.3
736.89	3730.55
737.076	3732.59
737.262	3611.76
737.447	3585.14
737.633	3581.04
737.819	3820.66
738.004	3556.47
738.19	3611.76
738.375	3636.34
738.561	3695.73
738.747	3579
738.932	3712.11
739.118	3703.92
739.303	3693.68
739.489	3650.67
739.674	3689.59
739.859	3591.28
740.045	3609.72
740.23	3552.37
740.416	3484.79
740.601	3763.31
740.786	3632.24
740.972	3722.35
741.157	3718.26
741.342	3562.61
741.528	3642.48
741.713	3755.12
741.898	3671.15
742.084	3509.37
742.269	3617.91
742.454	3533.94
742.639	3529.84
742.824	3361.91
743.01	3468.41
743.195	3437.69
743.38	3458.17
743.565	3499.13
743.75	3447.93
743.935	3531.89
744.12	3568.76
744.305	3472.5
744.49	3449.97
744.675	3425.4
744.86	3361.91
745.045	3441.78
745.23	3417.21
745.415	3372.15
745.6	3447.93
745.785	3349.62
745.97	3271.8
746.155	3253.37
746.34	3183.74
746.525	3210.36
746.71	3445.88
746.895	3366.01
747.079	3161.21
747.264	3253.37
747.449	3228.79
747.634	3239.03
747.819	3107.96
748.003	3101.82
748.188	3146.87
748.373	3126.39
748.557	3138.68
748.742	2952.32
748.927	3042.43
749.111	2987.13
749.296	3081.34
749.481	2888.83
749.665	2983.04
749.85	3101.82
750.034	2968.7
750.219	2876.54
750.404	2892.93
750.588	2952.32
750.773	2897.02
750.957	2897.02
751.141	2933.89
751.326	2888.83
751.51	2978.94
751.695	2745.47
751.879	2880.64
752.064	2841.73
752.248	2688.13
752.432	2772.1
752.617	2704.51
752.801	2653.31
752.985	2681.99
753.17	2792.58
753.354	2612.35
753.538	2616.45
753.722	2628.74
753.907	2536.58
754.091	2610.31
754.275	2641.03
754.459	2526.34
754.643	2442.37
754.828	2469
755.012	2378.89
755.196	2438.28
755.38	2342.02
755.564	2411.65
755.748	2364.55
755.932	2473.09
756.116	2305.16
756.3	2434.18
756.484	2372.74
756.668	2290.82
756.852	2374.79
757.036	2188.43
757.22	2280.58
757.404	2280.58
757.588	2112.65
757.772	2292.87
757.956	2276.49
758.14	2305.16
758.323	2196.62
758.507	2194.57
758.691	2172.04
758.875	2210.95
759.059	2088.07
759.242	2176.14
759.426	2112.65
759.61	2278.54
759.794	1952.91
759.977	2094.22
760.161	2227.34
760.345	2110.6
760.528	2116.75
760.712	2104.46
760.895	1893.52
761.079	2163.85
761.263	1963.15
761.446	1827.98
761.63	1977.48
761.813	1987.72
761.997	1967.24
762.18	1957
762.364	1993.87
762.547	1873.04
762.731	1911.95
762.914	1860.75
763.098	1963.15
763.281	1887.37
763.464	1870.99
763.648	1887.37
763.831	1930.38
764.015	1840.27
764.198	1782.93
764.381	1803.41
764.564	1797.26
764.748	1862.8
764.931	1887.37
765.114	1715.34
765.297	1733.78
765.481	1789.07
765.664	1784.98
765.847	1666.19
766.03	1709.2
766.213	1770.64
766.397	1793.17
766.58	1709.2
766.763	1682.58
766.946	1672.34
767.129	1535.12
767.312	1608.85
767.495	1627.28
767.678	1694.86
767.861	1692.82
768.044	1705.1
768.227	1606.8
768.41	1553.55
768.593	1588.37
768.776	1678.48
768.959	1635.47
769.142	1692.82
769.324	1559.7
769.507	1592.47
769.69	1565.84
769.873	1475.73
770.056	1676.43
770.239	1614.99
770.421	1604.75
770.604	1553.55
770.787	1488.02
770.97	1516.69
771.152	1391.77
771.335	1485.97
771.518	1422.48
771.7	1428.63
771.883	1535.12
772.066	1510.55
772.248	1440.92
772.431	1418.39
772.613	1340.57
772.796	1457.3
772.978	1352.85
773.161	1416.34
773.343	1350.81
773.526	1399.96
773.708	1367.19
773.891	1381.53
774.073	1363.09
774.256	1313.94
774.438	1365.14
774.621	1291.41
774.803	1326.23
774.985	1225.88
775.168	1332.37
775.35	1275.03
775.532	1248.41
775.715	1211.54
775.897	1229.98
776.079	1215.64
776.261	1303.7
776.444	1164.44
776.626	1109.15
776.808	1117.34
776.99	1148.06
777.173	1279.13
777.355	1021.08
777.537	1303.7
777.719	1203.35
777.901	1143.96
778.083	1125.53
778.265	1076.38
778.447	1152.15
778.629	1086.62
778.811	1035.42
778.993	1150.11
779.175	1035.42
779.357	1107.1
779.539	1031.32
779.721	1070.23
779.903	1098.91
780.085	1035.42
780.267	1109.15
780.449	1021.08
780.631	1016.99
780.812	994.46
780.994	930.97
781.176	980.12
781.358	1014.94
781.54	973.98
781.721	971.93
781.903	892.06
782.085	971.93
782.267	892.06
782.448	869.53
782.63	904.35
782.812	912.54
782.993	926.88
783.175	750.75
783.357	916.64
783.538	859.29
783.72	820.38
783.901	785.57
784.083	769.18
784.264	826.53
784.446	767.13
784.627	826.53
784.809	808.09
784.99	699.55
785.172	804
785.353	769.18
785.535	779.42
785.716	765.09
785.897	785.57
786.079	754.85
786.26	728.22
786.441	760.99
786.623	701.6
786.804	722.08
786.985	695.46
787.167	726.18
787.348	695.46
787.529	797.85
787.71	775.33
787.891	699.55
788.073	666.78
788.254	668.83
788.435	670.88
788.616	588.96
788.797	543.91
788.978	627.87
789.159	668.83
789.34	656.54
789.522	629.92
789.703	672.93
789.884	650.4
790.065	578.72
790.246	711.84
790.427	636.06
790.607	646.3
790.788	605.35
790.969	582.82
791.15	699.55
791.331	496.8
791.512	631.97
791.693	519.33
791.874	543.91
792.054	627.87
792.235	537.76
792.416	509.09
792.597	611.49
792.778	556.19
792.958	539.81
793.139	548
793.32	597.15
793.5	527.52
793.681	601.25
793.862	494.76
794.042	484.52
794.223	509.09
794.404	478.37
794.584	515.23
794.765	507.04
794.945	478.37
795.126	443.56
795.306	521.38
795.487	509.09
795.667	464.04
795.848	468.13
796.028	443.56
796.209	455.84
796.389	470.18
796.57	455.84
796.75	412.84
796.93	459.94
797.111	406.69
797.291	502.95
797.471	482.47
797.652	412.84
797.832	486.56
798.012	470.18
798.192	367.78
798.373	433.32
798.553	472.23
798.733	445.6
798.913	371.88
799.093	441.51
799.274	378.02
799.454	484.52
799.634	425.12
799.814	396.45
799.994	412.84
800.174	380.07
800.354	435.36
800.534	433.32
800.714	433.32
800.894	378.02
801.074	398.5
801.254	433.32
801.434	421.03
801.614	451.75
801.794	371.88
801.974	1096.86
802.154	390.31
802.334	396.45
802.514	384.16
802.693	345.25
802.873	337.06
803.053	400.55
803.233	418.98
803.413	296.1
803.592	335.01
803.772	335.01
803.952	277.67
804.131	365.73
804.311	335.01
804.491	410.79
804.67	335.01
804.85	328.87
805.03	375.97
805.209	367.78
805.389	351.4
805.568	281.77
805.748	328.87
805.928	328.87
806.107	283.81
806.287	390.31
806.466	316.58
806.646	300.2
806.825	283.81
807.004	308.39
807.184	412.84
807.363	281.77
807.543	302.25
807.722	341.16
807.901	386.21
808.081	349.35
808.26	255.14
808.439	304.29
808.619	343.21
808.798	271.53
808.977	341.16
809.156	343.21
809.336	308.39
809.515	326.82
809.694	283.81
809.873	273.57
810.052	283.81
810.231	253.09
810.411	273.57
810.59	353.45
810.769	283.81
810.948	328.87
811.127	238.76
811.306	298.15
811.485	281.77
811.664	330.92
811.843	267.43
812.022	261.29
812.201	216.23
812.38	279.72
812.559	216.23
812.737	287.91
812.916	294.05
813.095	273.57
813.274	171.18
813.453	249
813.632	285.86
813.811	347.3
813.989	181.42
814.168	279.72
814.347	208.04
814.526	228.52
814.704	310.44
814.883	306.34
815.062	165.03
815.24	249
815.419	203.94
815.598	296.1
815.776	201.9
815.955	173.22
816.133	214.18
816.312	203.94
816.49	154.79
816.669	249
816.847	189.61
817.026	230.57
817.204	199.85
817.383	144.55
817.561	220.33
817.74	205.99
817.918	228.52
818.097	203.94
818.275	175.27
818.453	191.66
818.632	175.27
818.81	111.78
818.988	177.32
819.167	128.17
819.345	187.56
819.523	208.04
819.701	249
819.879	205.99
820.058	150.7
820.236	183.46
820.414	189.61
820.592	173.22
820.77	142.5
820.948	187.56
821.127	195.75
821.305	105.64
821.483	103.59
821.661	146.6
821.839	205.99
822.017	193.7
822.195	160.94
822.373	232.62
822.551	165.03
822.729	111.78
822.907	179.37
823.085	167.08
823.262	208.04
823.44	148.65
823.618	134.31
823.796	144.55
823.974	154.79
824.152	140.46
824.329	152.74
824.507	177.32
824.685	214.18
824.863	85.16
825.04	185.51
825.218	177.32
825.396	214.18
825.574	148.65
825.751	226.47
825.929	132.26
826.107	185.51
826.284	167.08
826.462	99.5
826.639	195.75
826.817	56.49
826.994	195.75
827.172	142.5
827.349	177.32
827.527	193.7
827.704	140.46
827.882	156.84
828.059	150.7
828.237	173.22
828.414	171.18
828.591	-23.38
828.769	171.18
828.946	160.94
829.124	179.37
829.301	150.7
829.478	81.07
829.655	165.03
829.833	126.12
830.01	89.26
830.187	115.88
830.364	117.93
830.542	115.88
830.719	203.94
830.896	85.16
831.073	68.78
831.25	138.41
831.427	79.02
831.604	89.26
831.782	93.35
831.959	152.74
832.136	115.88
832.313	183.46
832.49	185.51
832.667	103.59
832.844	115.88
833.021	142.5
833.198	142.5
833.374	130.22
833.551	117.93
833.728	89.26
833.905	203.94
834.082	60.59
834.259	109.74
834.436	107.69
834.612	177.32
834.789	99.5
834.966	79.02
835.143	33.96
835.319	89.26
835.496	60.59
835.673	113.83
835.85	156.84
836.026	119.98
836.203	126.12
836.38	87.21
836.556	109.74
836.733	81.07
836.909	128.17
837.086	103.59
837.262	103.59
837.439	62.63
837.616	111.78
837.792	56.49
837.968	103.59
838.145	48.3
838.321	126.12
838.498	99.5
838.674	138.41
838.851	160.94
839.027	115.88
839.203	74.92
839.38	27.82
839.556	-19.29
839.732	134.31
839.909	64.68
840.085	93.35
840.261	3.24
840.437	130.22
840.614	66.73
840.79	58.54
840.966	50.35
841.142	72.87
841.318	91.31
841.494	140.46
841.671	85.16
841.847	29.87
842.023	83.11
842.199	68.78
842.375	122.02
842.551	13.48
842.727	79.02
842.903	62.63
843.079	-52.05
843.255	93.35
843.431	62.63
843.607	136.36
843.783	1.19
843.959	107.69
844.134	89.26
844.31	154.79
844.486	40.11
844.662	60.59
844.838	103.59
845.013	107.69
845.189	62.63
845.365	87.21
845.541	113.83
845.716	40.11
845.892	134.31
846.068	38.06
846.244	85.16
846.419	99.5
846.595	-11.09
846.77	109.74
846.946	74.92
847.122	68.78
847.297	68.78
847.473	150.7
847.648	11.43
847.824	134.31
847.999	-2.9
848.175	-41.81
848.35	40.11
848.526	148.65
848.701	52.39
848.876	64.68
849.052	70.83
849.227	93.35
849.403	56.49
849.578	66.73
849.753	21.67
849.929	42.15
850.104	64.68
850.279	33.96
850.454	25.77
850.63	83.11
850.805	31.91
850.98	36.01
851.155	13.48
851.33	15.53
851.505	29.87
851.681	165.03
851.856	64.68
852.031	29.87
852.206	103.59
852.381	91.31
852.556	91.31
852.731	56.49
852.906	40.11
853.081	21.67
853.256	107.69
853.431	36.01
853.606	50.35
853.781	31.91
853.956	-60.24
854.131	48.3
854.305	17.58
854.48	33.96
854.655	29.87
854.83	-17.24
855.005	-0.85
855.18	56.49
855.354	29.87
855.529	33.96
855.704	91.31
855.879	54.44
856.053	-19.29
856.228	42.15
856.403	-11.09
856.577	27.82
856.752	-23.38
856.926	17.58
857.101	-0.85
857.276	23.72
857.45	33.96
857.625	66.73
857.799	64.68
857.974	60.59
858.148	-11.09
858.323	44.2
858.497	21.67
858.672	31.91
858.846	52.39
859.02	31.91
859.195	70.83
859.369	38.06
859.543	42.15
859.718	17.58
859.892	105.64
860.066	40.11
860.241	95.4
860.415	19.63
860.589	11.43
860.763	72.87
860.938	27.82
861.112	50.35
861.286	-25.43
861.46	36.01
861.634	38.06
861.808	97.45
861.982	7.34
862.157	-39.76
862.331	-17.24
862.505	-52.05
862.679	-37.72
862.853	62.63
863.027	21.67
863.201	150.7
863.375	-21.33
863.549	-31.57
863.722	62.63
863.896	42.15
864.07	-45.91
864.244	-27.48
864.418	42.15
864.592	-2.9
864.766	17.58
864.939	-21.33
865.113	-103.25
865.287	113.83
865.461	7.34
865.634	33.96
865.808	-9.05
865.982	44.2
866.156	58.54
866.329	-76.63
866.503	9.39
866.676	1.19
866.85	38.06
867.024	-23.38
867.197	17.58
867.371	15.53
867.544	23.72
867.718	36.01
867.891	25.77
868.065	7.34
868.238	25.77
868.412	15.53
868.585	-7
868.759	7.34
868.932	-35.67
869.105	-33.62
869.279	-4.95
869.452	23.72
869.625	-35.67
869.799	60.59
869.972	-88.92
870.145	5.29
870.319	38.06
870.492	7.34
870.665	13.48
870.838	76.97
871.011	52.39
871.185	-56.15
871.358	-41.81
871.531	33.96
871.704	17.58
871.877	-47.96
872.05	-27.48
872.223	7.34
872.396	11.43
872.569	31.91
872.742	19.63
872.915	9.39
873.088	7.34
873.261	25.77
873.434	-11.09
873.607	7.34
873.78	62.63
873.953	1.19
874.126	56.49
874.299	-39.76
874.471	-2.9
874.644	-41.81
874.817	7.34
874.99	9.39
875.163	9.39
875.335	40.11
875.508	46.25
875.681	99.5
875.853	15.53
876.026	-33.62
876.199	31.91
876.371	-15.19
876.544	9.39
876.717	36.01
876.889	-13.14
877.062	9.39
877.234	1.19
877.407	-21.33
877.579	-58.2
877.752	-7
877.924	44.2
878.097	9.39
878.269	-2.9
878.442	21.67
878.614	-0.85
878.786	11.43
878.959	-80.72
879.131	70.83
879.303	1.19
879.476	-29.52
879.648	-23.38
879.82	25.77
879.993	31.91
880.165	17.58
880.337	-64.34
880.509	27.82
880.681	-54.1
880.854	13.48
881.026	23.72
881.198	38.06
881.37	-11.09
881.542	44.2
881.714	-58.2
881.886	-50
882.058	-39.76
882.23	58.54
882.402	-39.76
882.574	13.48
882.746	13.48
882.918	27.82
883.09	-33.62
883.262	-47.96
883.434	38.06
883.606	21.67
883.778	-37.72
883.95	-21.33
884.122	-56.15
884.293	-23.38
884.465	-13.14
884.637	72.87
884.809	13.48
884.98	-7
885.152	-58.2
885.324	-29.52
885.496	-19.29
885.667	52.39
885.839	-72.53
886.011	-66.39
886.182	-17.24
886.354	50.35
886.525	40.11
886.697	27.82
886.869	-60.24
887.04	5.29
887.212	17.58
887.383	31.91
887.555	9.39
887.726	1.19
887.897	-23.38
888.069	-0.85
888.24	3.24
888.412	83.11
888.583	17.58
888.754	38.06
888.926	-29.52
889.097	-21.33
889.268	-4.95
889.44	-9.05
889.611	-19.29
889.782	-107.35
889.953	-11.09
890.125	56.49
890.296	-95.06
890.467	-58.2
890.638	-21.33
890.809	85.16
890.98	13.48
891.151	27.82
891.323	42.15
891.494	-78.68
891.665	-9.05
891.836	1.19
892.007	11.43
892.178	58.54
892.349	-37.72
892.52	-4.95
892.691	-37.72
892.862	-31.57
893.032	1.19
893.203	3.24
893.374	13.48
893.545	40.11
893.716	-9.05
893.887	-52.05
894.057	25.77
894.228	-21.33
894.399	-35.67
894.57	38.06
894.74	-37.72
894.911	-39.76
895.082	-50
895.253	36.01
895.423	15.53
895.594	-17.24
895.764	-74.58
895.935	-43.86
896.106	-52.05
896.276	-72.53
896.447	33.96
896.617	3.24
896.788	-52.05
896.958	-17.24
897.129	-13.14
897.299	38.06
897.47	-9.05
897.64	-9.05
897.81	7.34
897.981	-25.43
898.151	-66.39
898.322	36.01
898.492	-11.09
898.662	50.35
898.832	-17.24
899.003	5.29
899.173	25.77
899.343	33.96
899.513	-15.19
