Data from USB4F104151__8__12-23-20-348.txt Node

Date: Fri Mar 14 12:23:20 EDT 2025
User: louis
Spectrometer: USB4F10415
Trigger mode: 4
Integration Time (sec): 3.500000E-2
Scans to average: 1
Electric dark correction enabled: true
Nonlinearity correction enabled: false
Boxcar width: 0
XAxis mode: Wavelengths
Number of Pixels in Spectrum: 3648
>>>>>Begin Spectral Data<<<<<
178.204	-73.9
178.424	-73.9
178.644	-73.9
178.864	-184.49
179.084	-121
179.304	-32.94
179.524	-22.7
179.744	-18.6
179.964	65.36
180.184	8.02
180.404	14.17
180.624	-57.51
180.844	-2.22
181.064	5.97
181.283	34.64
181.503	36.69
181.723	-30.89
181.943	-37.03
182.163	143.19
182.383	10.07
182.602	61.27
182.822	36.69
183.042	-0.17
183.262	-57.51
183.482	16.21
183.701	-39.08
183.921	77.65
184.141	30.55
184.361	-2.22
184.58	46.93
184.8	28.5
185.02	-16.55
185.239	16.21
185.459	42.84
185.679	96.08
185.898	67.41
186.118	73.56
186.338	26.45
186.557	65.36
186.777	-49.32
186.997	14.17
187.216	-45.23
187.436	96.08
187.655	24.4
187.875	38.74
188.095	-6.31
188.314	63.32
188.534	59.22
188.753	1.88
188.973	122.71
189.192	94.04
189.412	14.17
189.631	26.45
189.851	34.64
190.07	51.03
190.29	44.88
190.509	73.56
190.729	12.12
190.948	63.32
191.168	245.59
191.387	106.32
191.607	1.88
191.826	5.97
192.045	-39.08
192.265	-8.36
192.484	59.22
192.704	5.97
192.923	40.79
193.142	116.56
193.362	128.85
193.581	94.04
193.8	48.98
194.02	-22.7
194.239	-2.22
194.458	40.79
194.678	71.51
194.897	18.26
195.116	96.08
195.335	20.31
195.555	89.94
195.774	57.17
195.993	169.81
196.212	30.55
196.432	51.03
196.651	14.17
196.87	75.6
197.089	91.99
197.308	28.5
197.528	38.74
197.747	-22.7
197.966	28.5
198.185	71.51
198.404	-12.46
198.623	5.97
198.842	81.75
199.062	87.89
199.281	106.32
199.5	34.64
199.719	102.23
199.938	53.08
200.157	98.13
200.376	34.64
200.595	104.28
200.814	40.79
201.033	22.36
201.252	-8.36
201.471	53.08
201.69	34.64
201.909	94.04
202.128	18.26
202.347	28.5
202.566	-24.75
202.785	32.6
203.004	-28.84
203.223	104.28
203.442	69.46
203.661	8.02
203.879	42.84
204.098	30.55
204.317	18.26
204.536	71.51
204.755	-47.27
204.974	-39.08
205.193	-6.31
205.411	122.71
205.63	61.27
205.849	-6.31
206.068	38.74
206.287	22.36
206.505	12.12
206.724	8.02
206.943	75.6
207.162	30.55
207.381	42.84
207.599	51.03
207.818	36.69
208.037	110.42
208.255	38.74
208.474	53.08
208.693	67.41
208.911	-10.41
209.13	132.95
209.349	-16.55
209.567	44.88
209.786	71.51
210.005	30.55
210.223	79.7
210.442	-63.66
210.661	53.08
210.879	32.6
211.098	38.74
211.316	114.52
211.535	87.89
211.753	46.93
211.972	-2.22
212.191	-53.42
212.409	5.97
212.628	89.94
212.846	-16.55
213.065	112.47
213.283	28.5
213.502	42.84
213.72	81.75
213.938	14.17
214.157	81.75
214.375	36.69
214.594	71.51
214.812	14.17
215.031	10.07
215.249	61.27
215.467	34.64
215.686	55.12
215.904	122.71
216.122	8.02
216.341	77.65
216.559	36.69
216.778	71.51
216.996	75.6
217.214	44.88
217.432	120.66
217.651	71.51
217.869	-30.89
218.087	12.12
218.306	-22.7
218.524	71.51
218.742	-16.55
218.96	63.32
219.179	73.56
219.397	65.36
219.615	36.69
219.833	1.88
220.051	16.21
220.27	42.84
220.488	55.12
220.706	8.02
220.924	-6.31
221.142	30.55
221.36	59.22
221.578	69.46
221.796	30.55
222.015	83.8
222.233	48.98
222.451	79.7
222.669	-34.99
222.887	28.5
223.105	22.36
223.323	14.17
223.541	-69.8
223.759	51.03
223.977	42.84
224.195	53.08
224.413	20.31
224.631	96.08
224.849	61.27
225.067	124.76
225.285	71.51
225.503	-0.17
225.721	-45.23
225.939	-0.17
226.157	32.6
226.375	100.18
226.592	-37.03
226.81	67.41
227.028	100.18
227.246	112.47
227.464	69.46
227.682	48.98
227.9	26.45
228.117	91.99
228.335	79.7
228.553	67.41
228.771	61.27
228.989	57.17
229.206	124.76
229.424	63.32
229.642	-20.65
229.86	-10.41
230.077	75.6
230.295	61.27
230.513	38.74
230.731	67.41
230.948	128.85
231.166	83.8
231.384	24.4
231.601	20.31
231.819	40.79
232.037	5.97
232.254	20.31
232.472	-2.22
232.689	26.45
232.907	124.76
233.125	100.18
233.342	-12.46
233.56	-41.13
233.777	67.41
233.995	118.61
234.213	120.66
234.43	59.22
234.648	10.07
234.865	-26.79
235.083	14.17
235.3	28.5
235.518	44.88
235.735	77.65
235.953	110.42
236.17	18.26
236.388	59.22
236.605	55.12
236.822	102.23
237.04	77.65
237.257	51.03
237.475	3.93
237.692	75.6
237.909	12.12
238.127	71.51
238.344	61.27
238.562	32.6
238.779	14.17
238.996	1.88
239.214	24.4
239.431	26.45
239.648	42.84
239.865	67.41
240.083	130.9
240.3	81.75
240.517	75.6
240.735	38.74
240.952	73.56
241.169	69.46
241.386	83.8
241.603	22.36
241.821	-57.51
242.038	36.69
242.255	46.93
242.472	-69.8
242.689	22.36
242.907	73.56
243.124	71.51
243.341	-6.31
243.558	20.31
243.775	5.97
243.992	-0.17
244.209	53.08
244.426	63.32
244.643	28.5
244.86	46.93
245.078	38.74
245.295	36.69
245.512	71.51
245.729	10.07
245.946	1.88
246.163	14.17
246.38	22.36
246.597	16.21
246.814	42.84
247.031	73.56
247.248	-0.17
247.464	91.99
247.681	75.6
247.898	55.12
248.115	71.51
248.332	42.84
248.549	94.04
248.766	161.62
248.983	51.03
249.2	98.13
249.417	18.26
249.633	-57.51
249.85	89.94
250.067	26.45
250.284	59.22
250.501	40.79
250.717	102.23
250.934	46.93
251.151	22.36
251.368	28.5
251.585	110.42
251.801	30.55
252.018	-14.51
252.235	98.13
252.451	-63.66
252.668	5.97
252.885	-16.55
253.102	81.75
253.318	14.17
253.535	20.31
253.752	61.27
253.968	12.12
254.185	12.12
254.401	-8.36
254.618	26.45
254.835	28.5
255.051	141.14
255.268	53.08
255.484	79.7
255.701	14.17
255.917	81.75
256.134	30.55
256.351	28.5
256.567	32.6
256.784	-18.6
257	-51.37
257.217	44.88
257.433	83.8
257.65	22.36
257.866	61.27
258.082	32.6
258.299	44.88
258.515	36.69
258.732	69.46
258.948	22.36
259.165	44.88
259.381	94.04
259.597	24.4
259.814	-53.42
260.03	20.31
260.246	-41.13
260.463	-4.27
260.679	69.46
260.895	-14.51
261.112	108.37
261.328	22.36
261.544	36.69
261.761	102.23
261.977	69.46
262.193	42.84
262.409	85.84
262.626	-2.22
262.842	16.21
263.058	30.55
263.274	110.42
263.49	40.79
263.707	102.23
263.923	67.41
264.139	18.26
264.355	89.94
264.571	65.36
264.787	30.55
265.004	53.08
265.22	10.07
265.436	-47.27
265.652	40.79
265.868	32.6
266.084	24.4
266.3	-4.27
266.516	46.93
266.732	71.51
266.948	-24.75
267.164	18.26
267.38	128.85
267.596	81.75
267.812	30.55
268.028	28.5
268.244	-14.51
268.46	120.66
268.676	124.76
268.892	116.56
269.108	12.12
269.324	34.64
269.54	48.98
269.756	110.42
269.972	51.03
270.188	85.84
270.403	20.31
270.619	143.19
270.835	-2.22
271.051	61.27
271.267	34.64
271.483	22.36
271.698	-2.22
271.914	-12.46
272.13	57.17
272.346	-0.17
272.562	61.27
272.777	83.8
272.993	63.32
273.209	22.36
273.425	77.65
273.64	32.6
273.856	-2.22
274.072	44.88
274.287	5.97
274.503	100.18
274.719	-4.27
274.934	63.32
275.15	-39.08
275.366	51.03
275.581	67.41
275.797	-12.46
276.012	-30.89
276.228	12.12
276.444	18.26
276.659	57.17
276.875	61.27
277.09	91.99
277.306	8.02
277.521	3.93
277.737	42.84
277.952	73.56
278.168	94.04
278.383	106.32
278.599	22.36
278.814	67.41
279.03	34.64
279.245	98.13
279.461	30.55
279.676	5.97
279.892	-49.32
280.107	12.12
280.322	3.93
280.538	51.03
280.753	-14.51
280.969	83.8
281.184	79.7
281.399	42.84
281.615	5.97
281.83	157.52
282.045	75.6
282.26	22.36
282.476	-2.22
282.691	63.32
282.906	71.51
283.122	1.88
283.337	34.64
283.552	32.6
283.767	57.17
283.983	75.6
284.198	5.97
284.413	83.8
284.628	-4.27
284.843	83.8
285.058	18.26
285.274	44.88
285.489	44.88
285.704	81.75
285.919	14.17
286.134	34.64
286.349	169.81
286.564	26.45
286.779	42.84
286.995	112.47
287.21	26.45
287.425	28.5
287.64	-22.7
287.855	36.69
288.07	30.55
288.285	42.84
288.5	85.84
288.715	79.7
288.93	3.93
289.145	57.17
289.36	73.56
289.575	3.93
289.79	-16.55
290.004	63.32
290.219	5.97
290.434	-14.51
290.649	102.23
290.864	18.26
291.079	24.4
291.294	59.22
291.509	10.07
291.724	-2.22
291.938	51.03
292.153	1.88
292.368	-4.27
292.583	42.84
292.798	28.5
293.012	51.03
293.227	-67.75
293.442	46.93
293.657	-16.55
293.871	65.36
294.086	24.4
294.301	65.36
294.516	87.89
294.73	28.5
294.945	10.07
295.16	44.88
295.374	94.04
295.589	63.32
295.804	5.97
296.018	-55.47
296.233	100.18
296.447	63.32
296.662	40.79
296.877	32.6
297.091	18.26
297.306	22.36
297.52	-2.22
297.735	-10.41
297.949	22.36
298.164	94.04
298.378	26.45
298.593	89.94
298.807	24.4
299.022	57.17
299.236	96.08
299.451	83.8
299.665	48.98
299.88	-41.13
300.094	28.5
300.309	28.5
300.523	71.51
300.737	48.98
300.952	57.17
301.166	61.27
301.381	-2.22
301.595	53.08
301.809	53.08
302.024	-4.27
302.238	3.93
302.452	36.69
302.667	24.4
302.881	48.98
303.095	-24.75
303.309	75.6
303.524	18.26
303.738	-2.22
303.952	32.6
304.166	98.13
304.381	3.93
304.595	128.85
304.809	-14.51
305.023	-24.75
305.237	81.75
305.452	59.22
305.666	12.12
305.88	55.12
306.094	89.94
306.308	-26.79
306.522	102.23
306.736	112.47
306.95	139.09
307.164	5.97
307.379	-18.6
307.593	-6.31
307.807	57.17
308.021	42.84
308.235	73.56
308.449	16.21
308.663	-26.79
308.877	118.61
309.091	81.75
309.305	71.51
309.519	-34.99
309.733	53.08
309.947	-26.79
310.161	14.17
310.374	89.94
310.588	59.22
310.802	81.75
311.016	12.12
311.23	91.99
311.444	26.45
311.658	20.31
311.872	55.12
312.085	-0.17
312.299	55.12
312.513	124.76
312.727	8.02
312.941	3.93
313.154	126.8
313.368	-12.46
313.582	-43.18
313.796	-8.36
314.009	126.8
314.223	40.79
314.437	44.88
314.651	51.03
314.864	10.07
315.078	-45.23
315.292	40.79
315.505	69.46
315.719	102.23
315.933	83.8
316.146	44.88
316.36	38.74
316.573	91.99
316.787	108.37
317.001	57.17
317.214	30.55
317.428	-24.75
317.641	40.79
317.855	30.55
318.068	73.56
318.282	77.65
318.495	157.52
318.709	73.56
318.922	-14.51
319.136	91.99
319.349	38.74
319.563	-8.36
319.776	75.6
319.99	-0.17
320.203	34.64
320.417	59.22
320.63	26.45
320.843	122.71
321.057	40.79
321.27	-26.79
321.483	77.65
321.697	46.93
321.91	38.74
322.124	100.18
322.337	20.31
322.55	5.97
322.763	85.84
322.977	26.45
323.19	55.12
323.403	128.85
323.617	75.6
323.83	83.8
324.043	18.26
324.256	16.21
324.469	28.5
324.683	98.13
324.896	83.8
325.109	10.07
325.322	44.88
325.535	48.98
325.748	1.88
325.962	8.02
326.175	63.32
326.388	14.17
326.601	10.07
326.814	22.36
327.027	71.51
327.24	94.04
327.453	16.21
327.666	83.8
327.879	55.12
328.092	63.32
328.305	22.36
328.518	48.98
328.731	32.6
328.944	73.56
329.157	-0.17
329.37	-20.65
329.583	89.94
329.796	77.65
330.009	-47.27
330.222	67.41
330.435	110.42
330.648	-41.13
330.861	-6.31
331.073	98.13
331.286	32.6
331.499	75.6
331.712	44.88
331.925	67.41
332.138	18.26
332.35	91.99
332.563	10.07
332.776	55.12
332.989	3.93
333.202	32.6
333.414	34.64
333.627	32.6
333.84	61.27
334.053	1.88
334.265	-32.94
334.478	36.69
334.691	61.27
334.903	69.46
335.116	40.79
335.329	28.5
335.541	53.08
335.754	89.94
335.966	53.08
336.179	8.02
336.392	-26.79
336.604	24.4
336.817	65.36
337.029	108.37
337.242	-22.7
337.454	34.64
337.667	34.64
337.88	106.32
338.092	128.85
338.305	22.36
338.517	-14.51
338.729	114.52
338.942	83.8
339.154	65.36
339.367	28.5
339.579	10.07
339.792	5.97
340.004	63.32
340.217	-18.6
340.429	28.5
340.641	55.12
340.854	-16.55
341.066	1.88
341.278	65.36
341.491	67.41
341.703	94.04
341.915	57.17
342.128	102.23
342.34	12.12
342.552	8.02
342.764	46.93
342.977	73.56
343.189	10.07
343.401	-16.55
343.613	-0.17
343.826	77.65
344.038	30.55
344.25	38.74
344.462	-20.65
344.674	40.79
344.886	32.6
345.099	83.8
345.311	128.85
345.523	-45.23
345.735	-26.79
345.947	32.6
346.159	77.65
346.371	48.98
346.583	-16.55
346.795	98.13
347.007	22.36
347.219	24.4
347.431	79.7
347.643	-12.46
347.855	100.18
348.067	120.66
348.279	32.6
348.491	3.93
348.703	83.8
348.915	44.88
349.127	26.45
349.339	30.55
349.551	-49.32
349.763	18.26
349.975	87.89
350.187	48.98
350.399	40.79
350.61	102.23
350.822	-24.75
351.034	165.71
351.246	79.7
351.458	42.84
351.669	24.4
351.881	85.84
352.093	94.04
352.305	24.4
352.517	46.93
352.728	28.5
352.94	73.56
353.152	5.97
353.363	-20.65
353.575	-22.7
353.787	18.26
353.999	67.41
354.21	91.99
354.422	24.4
354.633	14.17
354.845	75.6
355.057	20.31
355.268	57.17
355.48	75.6
355.692	53.08
355.903	55.12
356.115	89.94
356.326	30.55
356.538	81.75
356.749	32.6
356.961	106.32
357.172	16.21
357.384	132.95
357.595	18.26
357.807	-12.46
358.018	-20.65
358.23	71.51
358.441	161.62
358.653	-24.75
358.864	5.97
359.075	20.31
359.287	63.32
359.498	67.41
359.709	118.61
359.921	51.03
360.132	112.47
360.344	108.37
360.555	57.17
360.766	30.55
360.977	20.31
361.189	67.41
361.4	-4.27
361.611	126.8
361.823	77.65
362.034	36.69
362.245	44.88
362.456	89.94
362.667	79.7
362.879	22.36
363.09	-20.65
363.301	38.74
363.512	63.32
363.723	-28.84
363.935	40.79
364.146	83.8
364.357	114.52
364.568	79.7
364.779	67.41
364.99	30.55
365.201	20.31
365.412	48.98
365.623	-28.84
365.834	71.51
366.045	18.26
366.256	69.46
366.467	116.56
366.678	59.22
366.889	-2.22
367.1	-2.22
367.311	65.36
367.522	-2.22
367.733	77.65
367.944	-8.36
368.155	-12.46
368.366	16.21
368.577	34.64
368.788	91.99
368.999	75.6
369.209	28.5
369.42	100.18
369.631	108.37
369.842	67.41
370.053	53.08
370.264	30.55
370.474	42.84
370.685	3.93
370.896	14.17
371.107	91.99
371.317	65.36
371.528	51.03
371.739	69.46
371.95	77.65
372.16	89.94
372.371	34.64
372.582	75.6
372.792	75.6
373.003	48.98
373.214	8.02
373.424	46.93
373.635	16.21
373.846	69.46
374.056	16.21
374.267	77.65
374.477	10.07
374.688	20.31
374.898	100.18
375.109	53.08
375.319	89.94
375.53	69.46
375.74	32.6
375.951	-57.51
376.161	28.5
376.372	91.99
376.582	-10.41
376.793	28.5
377.003	8.02
377.214	-49.32
377.424	75.6
377.635	10.07
377.845	44.88
378.055	143.19
378.266	-47.27
378.476	96.08
378.686	55.12
378.897	75.6
379.107	53.08
379.317	79.7
379.528	16.21
379.738	75.6
379.948	63.32
380.158	75.6
380.369	55.12
380.579	96.08
380.789	16.21
380.999	48.98
381.21	53.08
381.42	178
381.63	53.08
381.84	10.07
382.05	75.6
382.261	143.19
382.471	28.5
382.681	-28.84
382.891	102.23
383.101	126.8
383.311	114.52
383.521	40.79
383.731	190.29
383.941	57.17
384.151	-14.51
384.361	48.98
384.571	91.99
384.781	79.7
384.991	120.66
385.201	73.56
385.411	114.52
385.621	91.99
385.831	85.84
386.041	42.84
386.251	22.36
386.461	26.45
386.671	51.03
386.881	85.84
387.091	71.51
387.301	106.32
387.511	67.41
387.72	63.32
387.93	67.41
388.14	-26.79
388.35	73.56
388.56	46.93
388.769	112.47
388.979	112.47
389.189	57.17
389.399	42.84
389.609	34.64
389.818	85.84
390.028	137.04
390.238	36.69
390.447	46.93
390.657	65.36
390.867	30.55
391.076	-22.7
391.286	8.02
391.496	63.32
391.705	48.98
391.915	112.47
392.125	20.31
392.334	124.76
392.544	71.51
392.753	59.22
392.963	81.75
393.172	59.22
393.382	46.93
393.591	102.23
393.801	24.4
394.01	87.89
394.22	112.47
394.429	59.22
394.639	53.08
394.848	69.46
395.058	145.24
395.267	24.4
395.477	110.42
395.686	36.69
395.895	77.65
396.105	137.04
396.314	116.56
396.524	81.75
396.733	112.47
396.942	38.74
397.152	151.38
397.361	96.08
397.57	83.8
397.78	5.97
397.989	110.42
398.198	149.33
398.407	42.84
398.617	69.46
398.826	108.37
399.035	135
399.244	20.31
399.453	63.32
399.663	69.46
399.872	96.08
400.081	22.36
400.29	65.36
400.499	48.98
400.708	106.32
400.917	104.28
401.127	87.89
401.336	100.18
401.545	163.67
401.754	139.09
401.963	204.63
402.172	106.32
402.381	30.55
402.59	38.74
402.799	83.8
403.008	200.53
403.217	116.56
403.426	57.17
403.635	51.03
403.844	124.76
404.053	61.27
404.262	79.7
404.471	155.47
404.68	126.8
404.888	106.32
405.097	65.36
405.306	167.76
405.515	130.9
405.724	87.89
405.933	130.9
406.142	171.86
406.35	112.47
406.559	100.18
406.768	212.82
406.977	171.86
407.185	155.47
407.394	155.47
407.603	194.39
407.812	182.1
408.02	214.87
408.229	124.76
408.438	112.47
408.646	141.14
408.855	149.33
409.064	259.92
409.272	231.25
409.481	157.52
409.69	135
409.898	100.18
410.107	331.6
410.315	307.02
410.524	239.44
410.733	341.84
410.941	175.95
411.15	276.31
411.358	335.7
411.567	374.61
411.775	251.73
411.984	319.31
412.192	413.52
412.401	323.41
412.609	372.56
412.818	388.94
413.026	311.12
413.234	284.5
413.443	368.46
413.651	423.76
413.86	395.09
414.068	434
414.276	407.38
414.485	436.05
414.693	497.49
414.901	497.49
415.11	597.84
415.318	540.49
415.526	515.92
415.734	583.5
415.943	634.7
416.151	579.4
416.359	595.79
416.567	649.04
416.776	638.8
416.984	782.15
417.192	687.95
417.4	628.56
417.608	726.86
417.817	640.84
418.025	804.68
418.233	823.11
418.441	751.43
418.649	923.46
418.857	1021.77
419.065	882.5
419.273	882.5
419.481	966.47
419.689	1032.01
419.897	1072.96
420.105	945.99
420.313	1079.11
420.521	1126.21
420.729	1279.81
420.937	1167.17
421.145	1345.34
421.353	1300.29
421.561	1316.67
421.769	1398.59
421.977	1521.47
422.185	1408.83
422.393	1593.15
422.601	1496.89
422.809	1697.6
423.017	1687.36
423.224	1619.77
423.432	1843
423.64	1691.45
423.848	2002.74
424.056	1914.68
424.263	1963.83
424.471	2039.61
424.679	2025.27
424.887	2182.96
425.094	2187.06
425.302	2166.58
425.51	2416.43
425.718	2518.83
425.925	2367.28
426.133	2520.88
426.341	2586.41
426.548	2854.7
426.756	2856.75
426.964	2787.11
427.171	2924.33
427.379	3047.21
427.586	3135.27
427.794	3192.61
428.001	3356.45
428.209	3524.38
428.417	3401.51
428.624	3643.17
428.832	3710.75
429.039	3649.31
429.247	3671.84
429.454	4030.23
429.662	4275.99
429.869	3907.35
430.076	4249.36
430.284	4106.01
430.491	4380.43
430.699	4476.69
430.906	4450.07
431.114	4493.07
431.321	4716.3
431.528	4826.89
431.736	5160.71
431.943	5388.04
432.15	5289.73
432.358	5291.78
432.565	5797.63
432.772	5465.86
432.979	6053.62
433.187	5977.85
433.394	5893.88
433.601	6549.23
433.808	6549.23
434.016	6424.31
434.223	6741.74
434.43	6868.72
434.637	6913.77
434.844	7466.72
435.052	7519.97
435.259	7612.13
435.466	7632.61
435.673	7542.5
435.88	7841.5
436.087	8472.28
436.294	8277.72
436.501	8025.82
436.708	8464.08
436.915	8754.9
437.122	9045.71
437.329	8920.78
437.537	9490.12
437.743	9451.21
437.95	9332.42
438.157	9934.53
438.364	10174.14
438.571	10088.12
438.778	10194.62
438.985	11380.39
439.192	10671.79
439.399	10927.79
439.606	10727.09
439.813	11744.93
440.02	12183.2
440.227	11794.08
440.433	11867.81
440.64	12230.3
440.847	12287.64
441.054	12617.36
441.261	13270.67
441.467	13280.91
441.674	13418.12
441.881	14022.27
442.088	14005.89
442.294	13604.49
442.501	14306.94
442.708	14483.06
442.914	14892.66
443.121	15701.61
443.328	15576.68
443.534	16207.45
443.741	15527.53
443.948	15664.74
444.154	17034.83
444.361	16684.63
444.568	16811.6
444.774	16838.23
444.981	16871
445.187	17569.35
445.394	18366.01
445.6	18060.87
445.807	19906.09
446.013	18933.3
446.22	19277.36
446.426	20176.42
446.633	20219.42
446.839	20784.66
447.046	20399.65
447.252	21190.16
447.459	21190.16
447.665	21048.85
447.871	22117.89
448.078	23076.34
448.284	21900.81
448.491	22523.39
448.697	23168.5
448.903	23987.69
449.11	23588.33
449.316	23500.27
449.522	23967.21
449.728	24436.19
449.935	24384.99
450.141	24702.43
450.347	25374.16
450.553	24729.05
450.76	24913.37
450.966	25759.18
451.172	25286.1
451.378	25896.39
451.584	25347.54
451.791	26164.68
451.997	26293.7
452.203	26381.76
452.409	26244.55
452.615	26351.04
452.821	25411.03
453.027	25216.47
453.233	26396.1
453.44	25535.95
453.646	25662.93
453.852	25771.47
454.058	26195.4
454.264	25335.25
454.47	25839.05
454.676	25050.58
454.882	26179.01
455.088	23924.2
455.294	24110.57
455.5	24503.78
455.705	24856.03
455.911	24077.8
456.117	23580.14
456.323	22928.89
456.529	21669.39
456.735	22773.24
456.941	22257.15
457.147	22107.65
457.352	21198.35
457.558	20880.92
457.764	20940.31
457.97	20450.85
458.176	20024.87
458.381	20022.82
458.587	19090.99
458.793	18976.31
458.999	17948.23
459.204	19596.84
459.41	18757.18
459.616	17790.53
459.821	17741.38
460.027	17354.32
460.233	17055.31
460.438	16307.8
460.644	16541.27
460.85	15683.17
461.055	15533.67
461.261	15525.48
461.466	14321.27
461.672	13979.26
461.878	14923.38
462.083	14050.94
462.289	13565.57
462.494	13348.49
462.7	12850.83
462.905	12529.3
463.111	13051.53
463.316	12869.26
463.522	12906.13
463.727	12605.08
463.932	12783.25
464.138	12684.95
464.343	12613.27
464.549	12502.68
464.754	12867.22
464.959	12510.87
465.165	12293.79
465.37	12060.32
465.575	11437.73
465.781	12091.04
465.986	12168.86
466.191	11832.99
466.397	11536.04
466.602	10817.2
466.807	11271.85
467.012	11441.83
467.218	11271.85
467.423	11118.25
467.628	11230.89
467.833	11515.56
468.038	11232.94
468.244	10970.8
468.449	11329.19
468.654	10833.58
468.859	10794.67
469.064	10766
469.269	10434.23
469.474	10458.81
469.679	10667.7
469.885	10335.93
470.09	10321.59
470.295	10202.81
470.5	10225.34
470.705	10272.44
470.91	10063.55
471.115	10118.84
471.32	10157.75
471.525	10223.29
471.73	9909.95
471.935	9926.33
472.139	9508.55
472.344	9508.55
472.549	9606.85
472.754	9371.33
472.959	9324.23
473.164	8916.69
473.369	8894.16
473.574	9250.5
473.778	9105.1
473.983	8894.16
474.188	8738.51
474.393	8511.19
474.598	8791.76
474.802	8634.07
475.007	8480.47
475.212	8550.1
475.417	8021.72
475.621	8285.91
475.826	8095.45
476.031	8173.27
476.235	7882.46
476.44	8097.5
476.645	7935.71
476.849	7898.84
477.054	7565.03
477.259	7661.28
477.463	7642.85
477.668	7397.09
477.872	7499.49
478.077	7446.24
478.282	7274.21
478.486	7096.04
478.691	7036.65
478.895	7089.9
479.1	7098.09
479.304	7165.67
479.509	6813.42
479.713	7083.75
479.918	6967.02
480.122	6690.54
480.326	6770.41
480.531	6936.3
480.735	6856.43
480.94	6864.62
481.144	6868.72
481.348	6481.65
481.553	6756.08
481.757	6534.9
481.961	6645.49
482.166	6739.69
482.37	6711.02
482.574	6622.96
482.778	6592.24
482.983	6774.51
483.187	6639.34
483.391	6708.97
483.595	6647.54
483.8	6512.37
484.004	6659.82
484.208	6708.97
484.412	6573.81
484.616	6647.54
484.821	6579.95
485.025	6538.99
485.229	6663.92
485.433	6502.13
485.637	6592.24
485.841	6627.06
486.045	6551.28
486.249	6592.24
486.453	6547.19
486.657	6557.43
486.861	6485.75
487.065	6366.96
487.269	6668.02
487.473	6436.6
487.677	6651.63
487.881	6622.96
488.085	6414.07
488.289	6739.69
488.493	6598.38
488.697	6668.02
488.901	6598.38
489.105	6606.58
489.309	6561.52
489.512	6659.82
489.716	6616.82
489.92	6692.59
490.124	6756.08
490.328	6893.29
490.531	6592.24
490.735	6829.81
490.939	6928.11
491.143	6782.7
491.346	6729.45
491.55	6964.97
491.754	6960.88
491.958	6969.07
492.161	6649.58
492.365	7046.89
492.569	6827.76
492.772	7104.23
492.976	6901.48
493.18	6944.49
493.383	7218.92
493.587	7104.23
493.79	7259.88
493.994	7239.4
494.197	7263.97
494.401	7266.02
494.605	7339.75
494.808	7454.44
495.012	7358.18
495.215	7493.35
495.419	7692
495.622	7640.8
495.825	7665.38
496.029	7657.18
496.232	8019.67
496.436	7800.54
496.639	8050.39
496.843	7794.4
497.046	8199.9
497.249	8300.25
497.453	8144.6
497.656	8249.05
497.859	8025.82
498.063	8527.57
498.266	8681.17
498.469	8724.18
498.673	8548.05
498.876	8828.62
499.079	8894.16
499.282	8861.39
499.485	9311.94
499.689	9215.69
499.892	9340.61
500.095	9514.69
500.298	9533.12
500.501	9643.71
500.705	9821.89
500.908	9887.42
501.111	9912
501.314	10045.12
501.517	10047.16
501.72	10200.76
501.923	10141.37
502.126	10538.68
502.329	10788.53
502.532	10682.03
502.735	10903.21
502.938	11101.87
503.141	11028.14
503.344	11280.04
503.547	11194.03
503.75	11450.02
503.953	11523.75
504.156	11675.3
504.359	12009.12
504.562	12054.17
504.765	12267.16
504.968	12396.18
505.17	12441.24
505.373	12379.8
505.576	12396.18
505.779	12912.27
505.982	13022.86
506.185	13229.71
506.387	13219.47
506.59	13225.61
506.793	13807.23
506.996	13676.16
507.198	13874.82
507.401	14141.05
507.604	14175.87
507.807	14474.87
508.009	14782.07
508.212	14665.33
508.415	14931.57
508.617	15031.92
508.82	15230.57
509.022	15091.31
509.225	15586.92
509.428	15722.09
509.63	15920.74
509.833	15744.61
510.035	16330.33
510.238	16105.06
510.44	16541.27
510.643	16664.15
510.845	16907.86
511.048	16909.91
511.25	17337.93
511.453	17401.42
511.655	18056.77
511.858	18005.57
512.06	18093.63
512.262	18204.22
512.465	18253.37
512.667	18513.47
512.87	18783.8
513.072	18908.72
513.274	19201.58
513.477	19361.33
513.679	19656.23
513.881	19908.13
514.084	20074.02
514.286	20139.55
514.488	20354.59
514.69	20833.82
514.893	20780.57
515.095	20979.22
515.297	21315.09
515.499	21515.79
515.701	21851.66
515.904	21833.22
516.106	22291.97
516.308	22521.34
516.51	23025.14
516.712	23035.38
516.914	23109.11
517.116	23477.74
517.318	23807.47
517.52	23604.72
517.722	23799.27
517.925	24210.92
518.127	24614.37
518.329	24868.31
518.531	24935.9
518.733	25376.21
518.935	25759.18
519.136	25529.81
519.338	25976.26
519.54	26285.51
519.742	26228.17
519.944	26672.57
520.146	27309.49
520.348	27207.09
520.55	27008.44
520.752	27530.67
520.954	28054.95
521.155	28061.1
521.357	28839.33
521.559	28788.13
521.761	29062.55
521.963	28837.28
522.164	29164.95
522.366	29519.25
522.568	29830.54
522.77	30104.97
522.971	30682.5
523.173	30225.8
523.375	30705.02
523.576	31079.8
523.778	31044.99
523.98	31325.56
524.181	31542.64
524.383	31606.13
524.584	32181.61
524.786	32114.03
524.988	31964.53
525.189	32558.44
525.391	32542.05
525.592	32601.44
525.794	33162.59
525.995	33328.47
526.197	33330.52
526.398	33623.38
526.6	33686.87
526.801	33869.14
527.003	33946.96
527.204	33996.11
527.406	34409.8
527.607	34381.13
527.808	34747.72
528.01	34317.64
528.211	34403.66
528.412	35657.01
528.614	35202.36
528.815	35046.72
529.016	36113.71
529.218	35374.39
529.419	35708.21
529.62	35614.01
529.822	36017.46
530.023	35794.23
530.224	36144.43
530.425	36105.52
530.626	35736.88
530.828	36076.85
531.029	36924.71
531.23	35931.44
531.431	36457.77
531.632	36764.96
531.833	37072.16
532.035	36613.41
532.236	36955.43
532.437	36810.02
532.638	36990.24
532.839	37221.66
533.04	37336.35
533.241	36859.17
533.442	37436.7
533.643	37192.99
533.844	37242.14
534.045	37291.29
534.246	36793.64
534.447	37270.81
534.648	37256.48
534.849	37291.29
535.05	37471.51
535.251	37535
535.451	37231.9
535.652	37592.34
535.853	37977.36
536.054	37408.03
536.255	37680.41
536.456	37606.68
536.657	38118.67
536.857	37557.53
537.058	37473.56
537.259	37610.78
537.46	37651.73
537.66	37633.3
537.861	37686.55
538.062	37637.4
538.263	37770.52
538.463	37469.47
538.664	37422.36
538.865	37618.97
539.065	38171.92
539.266	37414.17
539.466	37934.35
539.667	37213.47
539.868	37860.63
540.068	37491.99
540.269	37164.32
540.469	37989.65
540.67	37580.06
540.87	37723.41
541.071	37791
541.271	37569.82
541.472	37782.8
541.672	37707.03
541.873	37467.42
542.073	37549.34
542.274	37836.05
542.474	37444.89
542.675	37344.54
542.875	37737.75
543.075	37260.57
543.276	37504.28
543.476	37975.31
543.676	37418.27
543.877	37727.51
544.077	37854.48
544.277	37455.13
544.478	37752.09
544.678	38014.23
544.878	37782.8
545.078	37725.46
545.279	37205.28
545.479	37477.66
545.679	37483.8
545.879	37283.1
546.079	37844.24
546.28	37537.05
546.48	37272.86
546.68	37549.34
546.88	37692.69
547.08	37860.63
547.28	38010.13
547.48	37211.42
547.68	37618.97
547.88	37084.45
548.081	37481.75
548.281	37651.73
548.481	37637.4
548.681	37213.47
548.881	37072.16
549.081	37313.82
549.28	37180.7
549.48	37621.02
549.68	37408.03
549.88	38061.33
550.08	37375.26
550.28	37520.66
550.48	37008.67
550.68	37479.71
550.88	37516.57
551.08	37588.25
551.279	37209.37
551.479	37014.82
551.679	37141.79
551.879	37018.91
552.079	37532.95
552.278	37045.54
552.478	37326.11
552.678	37387.55
552.878	37203.23
553.077	37158.17
553.277	37102.88
553.477	37610.78
553.676	37199.13
553.876	37156.13
554.076	36994.34
554.275	37002.53
554.475	36695.33
554.674	36908.32
554.874	37066.02
555.074	36816.16
555.273	37027.1
555.473	37209.37
555.672	37070.11
555.872	36549.93
556.071	36572.46
556.271	37178.65
556.47	36328.75
556.67	36263.21
556.869	36392.23
557.068	36314.41
557.268	36109.61
557.467	36500.78
557.667	36543.78
557.866	36480.3
558.065	36322.6
558.265	35913.01
558.464	35925.3
558.663	36283.69
558.863	35685.68
559.062	36097.33
559.261	35650.87
559.461	36052.27
559.66	35403.07
559.859	35904.82
560.058	35366.2
560.258	35444.02
560.457	34962.75
560.656	35495.22
560.855	35583.29
561.054	35288.38
561.253	35165.5
561.453	35280.19
561.652	35108.16
561.851	35546.42
562.05	34592.07
562.249	34606.41
562.448	35425.59
562.647	34717
562.846	34497.86
563.045	34520.39
563.244	34385.22
563.443	34688.32
563.642	33994.06
563.841	34336.07
564.04	33893.71
564.239	34188.62
564.438	34110.8
564.637	33842.51
564.836	33926.48
565.035	33586.52
565.234	33322.33
565.432	33426.78
565.631	33402.2
565.83	33695.06
566.029	33406.3
566.228	32879.97
566.427	33025.37
566.625	32863.58
566.824	32300.39
567.023	33043.81
567.222	32193.9
567.42	32888.16
567.619	32183.66
567.818	32480.61
568.016	32445.8
568.215	32611.68
568.414	32310.63
568.612	32394.6
568.811	31798.64
569.01	31901.04
569.208	31595.89
569.407	31655.28
569.605	31456.63
569.804	31565.17
570.002	31149.43
570.201	31243.64
570.4	30797.18
570.598	30952.83
570.797	30926.21
570.995	31042.94
571.193	30379.4
571.392	30807.42
571.59	30219.66
571.789	30195.08
571.987	30115.21
572.186	30031.24
572.384	30082.44
572.582	30078.35
572.781	29801.87
572.979	29664.66
573.177	29697.42
573.376	29828.49
573.574	29255.06
573.772	29554.07
573.971	29255.06
574.169	29048.22
574.367	29138.33
574.565	29201.82
574.763	28708.26
574.962	29031.83
575.16	28368.29
575.358	28339.62
575.556	28231.08
575.754	28765.6
575.952	28153.26
576.151	28272.04
576.349	27792.81
576.547	27866.54
576.745	28286.37
576.943	27880.88
577.141	27364.79
577.339	27760.05
577.537	27809.2
577.735	27491.76
577.933	27250.1
578.131	27643.31
578.329	27340.21
578.527	27172.28
578.725	26983.87
578.923	27041.21
579.121	27082.17
579.319	26607.04
579.516	26850.75
579.714	26695.1
579.912	26385.86
580.11	26629.57
580.308	26367.43
580.506	26604.99
580.704	25996.74
580.901	26269.12
581.099	26344.9
581.297	25525.71
581.495	25978.31
581.692	25816.52
581.89	25755.08
582.088	25830.86
582.285	25570.77
582.483	25652.69
582.681	25370.07
582.878	25445.84
583.076	24868.31
583.274	25335.25
583.471	25075.16
583.669	25087.45
583.866	24835.55
584.064	24987.1
584.262	24640.99
584.459	24976.86
584.657	24698.33
584.854	25052.63
585.052	24145.38
585.249	24657.37
585.447	24800.73
585.644	23932.39
585.841	24290.79
586.039	24249.83
586.236	23899.62
586.434	23729.64
586.631	23866.86
586.828	23791.08
587.026	23793.13
587.223	23662.06
587.42	23770.6
587.618	23664.11
587.815	23377.39
588.012	23399.92
588.21	22951.42
588.407	23522.8
588.604	23240.18
588.801	23045.62
588.999	22937.08
589.196	22830.58
589.393	23014.9
589.59	22742.52
589.787	22685.18
589.984	22384.13
590.182	22257.15
590.379	22660.6
590.576	22392.32
590.773	22582.78
590.97	21927.43
591.167	22416.9
591.364	21992.97
591.561	21960.2
591.758	21831.18
591.955	21995.01
592.152	21988.87
592.349	21685.77
592.546	21835.27
592.743	21833.22
592.94	21540.36
593.137	21636.62
593.334	21523.98
593.531	21235.22
593.727	21460.49
593.924	21431.82
594.121	21106.2
594.318	21128.72
594.515	21024.28
594.712	21204.5
594.908	20706.84
595.105	20948.5
595.302	20512.28
595.499	20901.4
595.696	20801.05
595.892	20323.87
596.089	20526.62
596.286	20719.13
596.482	20321.82
596.679	20608.54
596.876	20456.99
597.072	20342.3
597.269	20170.27
597.466	20041.25
597.662	20143.65
597.859	20092.45
598.055	20071.97
598.252	19578.41
598.448	19836.45
598.645	19848.74
598.841	19508.78
599.038	19422.76
599.234	19656.23
599.431	19215.92
599.627	19199.54
599.824	19381.81
600.02	19000.88
600.217	19361.33
600.413	19090.99
600.609	18966.07
600.806	19047.99
601.002	18974.26
601.198	18990.64
601.395	19074.61
601.591	18593.34
601.787	18839.09
601.984	18677.3
602.18	18677.3
602.376	18519.61
602.572	18441.79
602.769	18652.73
602.965	17944.13
603.161	18431.55
603.357	18062.91
603.553	18316.86
603.75	18171.46
603.946	18163.26
604.142	18234.94
604.338	18048.58
604.534	18146.88
604.73	17815.11
604.926	17698.38
605.122	17808.97
605.318	17661.51
605.514	17630.79
605.71	17536.59
605.906	17391.18
606.102	17208.91
606.298	17450.57
606.494	17403.47
606.69	17342.03
606.886	17251.92
607.082	17022.55
607.278	17243.73
607.474	17051.22
607.67	17153.62
607.866	16756.31
608.062	17049.17
608.257	16834.13
608.453	16813.65
608.649	17063.5
608.845	16651.86
609.041	16860.76
609.236	16830.04
609.432	16535.13
609.628	16686.68
609.824	16461.4
610.019	16496.22
610.215	16422.49
610.411	16483.93
610.606	16549.46
610.802	16299.61
610.998	16451.16
611.193	16328.28
611.389	16195.17
611.584	15879.78
611.78	16369.24
611.976	15957.6
612.171	16037.47
612.367	16223.84
612.562	15785.57
612.758	15705.7
612.953	15644.26
613.149	15920.74
613.344	15799.91
613.539	15844.96
613.735	15816.29
613.93	15806.05
614.126	15842.92
614.321	15685.22
614.517	15738.47
614.712	15631.97
614.907	15453.8
615.103	15664.74
615.298	15457.9
615.493	15685.22
615.688	15388.27
615.884	15478.38
616.079	15103.6
616.274	15283.82
616.47	15261.29
616.665	15138.41
616.86	15089.26
617.055	14950
617.25	14958.19
617.445	15210.09
617.641	14810.74
617.836	15103.6
618.031	14720.63
618.226	14837.36
618.421	14802.55
618.616	14939.76
618.811	14665.33
619.006	14571.13
619.201	14577.27
619.396	14507.64
619.591	14380.67
619.786	14714.48
619.981	14282.36
620.176	14485.11
620.371	14153.34
620.566	14073.47
620.761	13981.31
620.956	14106.24
621.151	13799.04
621.346	13932.16
621.541	13653.64
621.735	13907.59
621.93	13538.95
622.125	13706.88
622.32	13676.16
622.515	13319.82
622.709	13377.16
622.904	13340.3
623.099	13219.47
623.294	13287.05
623.488	13248.14
623.683	13067.92
623.878	13035.15
624.072	13104.78
624.267	12719.76
624.462	12557.97
624.656	12844.69
624.851	12600.98
625.046	12279.45
625.24	12426.9
625.435	12445.34
625.629	12439.19
625.824	12242.59
626.018	12109.47
626.213	11990.69
626.407	12211.87
626.602	12000.93
626.796	12093.08
626.991	12068.51
627.185	11941.54
627.38	11816.61
627.574	11806.37
627.768	11546.28
627.963	11607.72
628.157	11603.62
628.352	11462.31
628.546	11431.59
628.74	11437.73
628.935	11118.25
629.129	11269.8
629.323	11130.54
629.517	10978.99
629.712	10991.28
629.906	11228.84
630.1	10948.27
630.294	10823.34
630.489	10675.89
630.683	10888.88
630.877	10694.32
631.071	10555.06
631.265	10651.31
631.459	10335.93
631.653	10550.96
631.848	10481.33
632.042	10317.5
632.236	10354.36
632.43	10292.92
632.624	10221.24
632.818	10055.36
633.012	10030.78
633.206	10018.49
633.4	9973.44
633.594	9752.26
633.788	9981.63
633.982	9813.7
634.176	9856.7
634.369	9709.25
634.563	9615.04
634.757	9572.04
634.951	9539.27
635.145	9410.25
635.339	9590.47
635.533	9475.78
635.726	9461.44
635.92	9258.7
636.114	9205.45
636.308	9154.25
636.501	9250.5
636.695	9156.3
636.889	8922.83
637.083	8986.32
637.276	8949.45
637.47	8931.02
637.664	8922.83
637.857	8828.62
638.051	8974.03
638.244	8722.13
638.438	8617.68
638.632	8648.4
638.825	8503
639.019	8617.68
639.212	8193.75
639.406	8431.32
639.599	8314.58
639.793	8298.2
639.986	8101.59
640.18	8355.54
640.373	8214.23
640.567	8052.44
640.76	8138.46
640.954	8132.31
641.147	7956.19
641.34	7864.03
641.534	7917.28
641.727	7960.28
641.92	7931.61
642.114	7642.85
642.307	7769.82
642.5	7692
642.694	7364.32
642.887	7489.25
643.08	7673.57
643.273	7507.68
643.467	7644.9
643.66	7352.04
643.853	7171.82
644.046	7192.3
644.239	7331.56
644.432	7317.22
644.626	7073.51
644.819	7147.24
645.012	7208.68
645.205	7134.95
645.398	7091.95
645.591	7001.83
645.784	6885.1
645.977	6995.69
646.17	6893.29
646.363	6696.69
646.556	6737.65
646.749	6758.13
646.942	6682.35
647.135	6584.05
647.328	6772.46
647.521	6665.97
647.714	6526.71
647.907	6481.65
648.099	6592.24
648.292	6491.89
648.485	6469.36
648.678	6459.12
648.871	6366.96
649.064	6262.52
649.256	6264.57
649.449	6569.71
649.642	6219.51
649.835	6229.75
650.027	6184.69
650.22	6283
650.413	6045.43
650.605	6194.93
650.798	6135.54
650.991	6016.76
651.183	5777.15
651.376	6080.25
651.568	6020.86
651.761	5791.48
651.954	5789.44
652.146	5738.24
652.339	5854.97
652.531	5875.45
652.724	5697.28
652.916	5496.58
653.109	5668.61
653.301	5699.33
653.494	5570.3
653.686	5588.74
653.879	5578.5
654.071	5539.58
654.263	5490.43
654.456	5502.72
654.648	5508.87
654.84	5379.84
655.033	5304.07
655.225	5523.2
655.417	5428.99
655.61	5293.83
655.802	5240.58
655.994	5226.25
656.186	5306.12
656.379	5295.88
656.571	5101.32
656.763	5113.61
656.955	4990.73
657.148	5101.32
657.34	5058.31
657.532	5019.4
657.724	5154.57
657.916	5048.07
658.108	5015.3
658.3	5025.54
658.492	4992.78
658.684	4980.49
658.876	4749.07
659.068	4675.34
659.26	4804.36
659.452	4763.4
659.644	4724.49
659.836	4751.12
660.028	4822.8
660.22	4652.81
660.412	4722.45
660.604	4632.33
660.796	4562.7
660.988	4681.49
661.18	4554.51
661.372	4697.87
661.563	4687.63
661.755	4519.7
661.947	4642.57
662.139	4402.96
662.331	4542.22
662.522	4452.11
662.714	4468.5
662.906	4421.39
663.097	4353.81
663.289	4364.05
663.481	4140.82
663.673	4329.24
663.864	4325.14
664.056	4153.11
664.247	4241.17
664.439	4224.79
664.631	4384.53
664.822	4196.12
665.014	4167.45
665.205	4259.6
665.397	4114.2
665.588	4185.88
665.78	4095.77
665.971	3993.37
666.163	4091.67
666.354	4179.73
666.546	4163.35
666.737	4108.05
666.929	4007.7
667.12	4054.81
667.311	4079.38
667.503	4081.43
667.694	4015.9
667.885	4083.48
668.077	4067.1
668.268	3901.21
668.459	3952.41
668.651	3923.74
668.842	3768.09
669.033	3843.87
669.224	3802.91
669.416	3882.78
669.607	3800.86
669.798	3897.11
669.989	3981.08
670.18	3815.2
670.371	3766.04
670.563	3884.83
670.754	3759.9
670.945	3802.91
671.136	3866.39
671.327	3677.98
671.518	3905.31
671.709	3821.34
671.9	3727.13
672.091	3770.14
672.282	3739.42
672.473	3794.72
672.664	3751.71
672.855	3776.28
673.046	3776.28
673.237	3735.32
673.428	3735.32
673.619	3716.89
673.809	3692.32
674	3790.62
674.191	3628.83
674.382	3612.45
674.573	3757.85
674.764	3573.53
674.954	3829.53
675.145	3624.73
675.336	3757.85
675.527	3637.02
675.717	3589.92
675.908	3628.83
676.099	3596.06
676.289	3669.79
676.48	3868.44
676.671	3516.19
676.861	3471.14
677.052	3708.7
677.243	3581.73
677.433	3604.25
677.624	3657.5
677.814	3809.05
678.005	3518.24
678.195	3606.3
678.386	3764
678.576	3651.36
678.767	3704.6
678.957	3630.88
679.148	3714.84
679.338	3809.05
679.529	3798.81
679.719	3733.28
679.909	3843.87
680.1	3651.36
680.29	3653.41
680.481	3634.97
680.671	3780.38
680.861	3692.32
681.052	3761.95
681.242	3575.58
681.432	3682.08
681.622	3624.73
681.813	3692.32
682.003	3653.41
682.193	3764
682.383	3743.52
682.573	3559.2
682.764	3708.7
682.954	3774.24
683.144	3610.4
683.334	3688.22
683.524	3671.84
683.714	3825.43
683.904	3626.78
684.094	3706.65
684.284	3700.51
684.474	3620.64
684.664	3663.65
684.854	3743.52
685.044	3622.69
685.234	3632.93
685.424	3702.56
685.614	3608.35
685.804	3774.24
685.994	3649.31
686.184	3639.07
686.374	3702.56
686.564	3452.7
686.753	3491.62
686.943	3378.98
687.133	3557.15
687.323	3551.01
687.513	3604.25
687.702	3473.18
687.892	3421.99
688.082	3477.28
688.272	3503.9
688.461	3323.68
688.651	3546.91
688.841	3473.18
689.03	3405.6
689.22	3333.92
689.41	3331.87
689.599	3395.36
689.789	3448.61
689.979	3417.89
690.168	3335.97
690.358	3389.22
690.547	3260.2
690.737	3358.5
690.926	3399.46
691.116	3340.07
691.305	3403.55
691.495	3211.04
691.684	3231.52
691.874	3366.69
692.063	3198.76
692.252	3405.6
692.442	3159.85
692.631	3020.58
692.82	3116.84
693.01	3159.85
693.199	3088.17
693.388	3086.12
693.578	3112.74
693.767	3274.53
693.956	3104.55
694.146	3084.07
694.335	2967.34
694.524	3221.28
694.713	3055.4
694.902	3065.64
695.092	3047.21
695.281	3014.44
695.47	3147.56
695.659	3051.3
695.848	2912.04
696.037	2989.86
696.226	3020.58
696.415	3061.54
696.604	3098.41
696.793	2866.99
696.982	2942.76
697.171	3049.25
697.36	2975.53
697.549	2918.18
697.738	2922.28
697.927	3045.16
698.116	3004.2
698.305	2973.48
698.494	2948.9
698.683	2909.99
698.872	3032.87
699.061	3055.4
699.25	2881.32
699.438	2899.75
699.627	2975.53
699.816	2993.96
700.005	2991.91
700.193	2864.94
700.382	3120.93
700.571	3053.35
700.76	2936.62
700.948	2852.65
701.137	3030.82
701.326	3088.17
701.514	2889.51
701.703	3090.21
701.892	2936.62
702.08	3176.23
702.269	3069.73
702.457	2924.33
702.646	3053.35
702.834	3041.06
703.023	2838.31
703.212	3004.2
703.4	3014.44
703.589	2983.72
703.777	2979.62
703.965	3022.63
704.154	3024.68
704.342	3055.4
704.531	3141.41
704.719	2955.05
704.907	3018.54
705.096	3004.2
705.284	2971.43
705.472	3004.2
705.661	2934.57
705.849	3028.78
706.037	3153.7
706.226	3034.92
706.414	3041.06
706.602	3077.93
706.79	3118.89
706.979	2993.96
707.167	3094.31
707.355	2973.48
707.543	2998.06
707.731	3184.42
707.919	3094.31
708.107	3127.08
708.296	3186.47
708.484	3069.73
708.672	3106.6
708.86	3143.46
709.048	3165.99
709.236	3088.17
709.424	3168.04
709.612	3082.02
709.8	3106.6
709.988	3153.7
710.176	3108.65
710.364	3106.6
710.551	3051.3
710.739	3077.93
710.927	3135.27
711.115	3209
711.303	3006.25
711.491	3198.76
711.679	3170.08
711.866	3176.23
712.054	3174.18
712.242	3129.13
712.43	3231.52
712.617	3092.26
712.805	3131.17
712.993	3180.32
713.181	3264.29
713.368	3245.86
713.556	3317.54
713.744	3163.94
713.931	3245.86
714.119	3045.16
714.306	3364.64
714.494	3116.84
714.682	3327.78
714.869	3274.53
715.057	3241.76
715.244	3194.66
715.432	3245.86
715.619	3149.61
715.807	3329.83
715.994	3223.33
716.182	3247.91
716.369	3305.25
716.556	3393.31
716.744	3241.76
716.931	3254.05
717.119	3458.85
717.306	3348.26
717.493	3321.63
717.681	3237.67
717.868	3315.49
718.055	3489.57
718.242	3290.92
718.43	3440.42
718.617	3405.6
718.804	3473.18
718.991	3473.18
719.179	3442.46
719.366	3383.07
719.553	3342.11
719.74	3389.22
719.927	3381.03
720.114	3295.01
720.301	3315.49
720.488	3356.45
720.676	3401.51
720.863	3440.42
721.05	3561.25
721.237	3444.51
721.424	3491.62
721.611	3548.96
721.798	3333.92
721.985	3419.94
722.172	3331.87
722.358	3514.14
722.545	3340.07
722.732	3442.46
722.919	3508
723.106	3487.52
723.293	3641.12
723.48	3409.7
723.667	3430.18
723.853	3481.38
724.04	3540.77
724.227	3424.03
724.414	3512.1
724.6	3534.62
724.787	3532.58
724.974	3675.93
725.161	3569.44
725.347	3600.16
725.534	3573.53
725.72	3563.29
725.907	3512.1
726.094	3536.67
726.28	3508
726.467	3628.83
726.653	3487.52
726.84	3700.51
727.027	3587.87
727.213	3704.6
727.4	3565.34
727.586	3671.84
727.773	3579.68
727.959	3624.73
728.145	3720.99
728.332	3675.93
728.518	3606.3
728.705	3653.41
728.891	3589.92
729.077	3622.69
729.264	3540.77
729.45	3665.69
729.636	3657.5
729.823	3432.22
730.009	3651.36
730.195	3737.37
730.382	3723.04
730.568	3618.59
730.754	3618.59
730.94	3716.89
731.126	3733.28
731.313	3677.98
731.499	3661.6
731.685	3839.77
731.871	3559.2
732.057	3702.56
732.243	3616.54
732.429	3692.32
732.615	3813.15
732.801	3792.67
732.987	3688.22
733.173	3706.65
733.359	3759.9
733.545	3792.67
733.731	3647.26
733.917	3651.36
734.103	3804.96
734.289	3778.33
734.475	3587.87
734.661	3809.05
734.847	3804.96
735.033	3825.43
735.219	3774.24
735.404	3696.41
735.59	3825.43
735.776	3868.44
735.962	3856.15
736.148	3847.96
736.333	3712.8
736.519	3811.1
736.705	3770.14
736.89	3743.52
737.076	3720.99
737.262	3741.47
737.447	3669.79
737.633	3725.08
737.819	3831.58
738.004	3669.79
738.19	3854.11
738.375	3632.93
738.561	3671.84
738.747	3665.69
738.932	3632.93
739.118	3700.51
739.303	3677.98
739.489	3651.36
739.674	3692.32
739.859	3565.34
740.045	3606.3
740.23	3637.02
740.416	3569.44
740.601	3620.64
740.786	3649.31
740.972	3542.82
741.157	3624.73
741.342	3508
741.528	3614.49
741.713	3639.07
741.898	3733.28
742.084	3651.36
742.269	3634.97
742.454	3669.79
742.639	3608.35
742.824	3573.53
743.01	3532.58
743.195	3464.99
743.38	3481.38
743.565	3436.32
743.75	3387.17
743.935	3335.97
744.12	3518.24
744.305	3424.03
744.49	3276.58
744.675	3479.33
744.86	3577.63
745.045	3428.13
745.23	3491.62
745.415	3350.31
745.6	3356.45
745.785	3350.31
745.97	3376.93
746.155	3264.29
746.34	3288.87
746.525	3256.1
746.71	3325.73
746.895	3225.38
747.079	3106.6
747.264	3125.03
747.449	3280.68
747.634	3125.03
747.819	3118.89
748.003	3131.17
748.188	3254.05
748.373	3143.46
748.557	3022.63
748.742	3104.55
748.927	3014.44
749.111	3036.97
749.296	3086.12
749.481	3082.02
749.665	3127.08
749.85	2998.06
750.034	3071.78
750.219	2924.33
750.404	2948.9
750.588	2826.03
750.773	2879.27
750.957	2957.1
751.141	2830.12
751.326	2873.13
751.51	2799.4
751.695	2909.99
751.879	2815.79
752.064	2762.54
752.248	2725.68
752.432	2832.17
752.617	2723.63
752.801	2789.16
752.985	2705.2
753.17	2604.85
753.354	2654
753.538	2613.04
753.722	2692.91
753.907	2537.26
754.091	2455.34
754.275	2506.54
754.459	2592.56
754.643	2516.78
754.828	2520.88
755.012	2477.87
755.196	2465.58
755.38	2473.78
755.564	2428.72
755.748	2398
755.932	2305.84
756.116	2422.58
756.3	2389.81
756.484	2441.01
756.668	2371.38
756.852	2346.8
757.036	2217.78
757.22	2250.55
757.404	2144.05
757.588	2375.47
757.772	2281.27
757.956	2225.97
758.14	2119.48
758.323	2230.07
758.507	2211.64
758.691	2221.88
758.875	2203.44
759.059	2262.83
759.242	2156.34
759.426	2107.19
759.61	2146.1
759.794	2045.75
759.977	2096.95
760.161	2129.72
760.345	2006.84
760.528	1924.92
760.712	2023.22
760.895	2025.27
761.079	2002.74
761.263	1931.06
761.446	1896.25
761.63	1888.06
761.813	1869.62
761.997	1908.54
762.18	1941.3
762.364	1931.06
762.547	1834.81
762.731	1902.39
762.914	1865.53
763.098	1845.05
763.281	1904.44
763.464	1910.58
763.648	1898.3
763.831	1820.47
764.015	1863.48
764.198	1980.22
764.381	1883.96
764.564	1937.21
764.748	1785.66
764.931	1726.27
765.114	1814.33
765.297	1767.23
765.481	1832.76
765.664	1830.71
765.847	1707.84
766.03	1865.53
766.213	1722.17
766.397	1705.79
766.58	1724.22
766.763	1734.46
766.946	1673.02
767.129	1746.75
767.312	1732.41
767.495	1658.68
767.678	1754.94
767.861	1720.12
768.044	1787.71
768.227	1697.6
768.41	1668.92
768.593	1736.51
768.776	1662.78
768.959	1656.64
769.142	1576.77
769.324	1550.14
769.507	1589.05
769.69	1580.86
769.873	1521.47
770.056	1783.61
770.239	1644.35
770.421	1615.68
770.604	1576.77
770.787	1564.48
770.97	1398.59
771.152	1627.96
771.335	1539.9
771.518	1494.85
771.7	1535.81
771.883	1482.56
772.066	1457.98
772.248	1443.65
772.431	1521.47
772.613	1423.17
772.796	1339.2
772.978	1400.64
773.161	1529.66
773.343	1384.26
773.526	1404.74
773.708	1302.34
773.891	1410.88
774.073	1279.81
774.256	1351.49
774.438	1298.24
774.621	1337.15
774.803	1498.94
774.985	1359.68
775.168	1365.82
775.35	1218.37
775.532	1337.15
775.715	1206.08
775.897	1187.65
776.079	1222.47
776.261	1251.14
776.444	1150.79
776.626	1142.6
776.808	1132.36
776.99	1251.14
777.173	1201.99
777.355	1257.28
777.537	1234.75
777.719	1171.27
777.901	1134.4
778.083	1154.88
778.265	1101.64
778.447	1175.36
778.629	1181.51
778.811	1027.91
778.993	1066.82
779.175	995.14
779.357	1009.48
779.539	1032.01
779.721	1015.62
779.903	1029.96
780.085	974.66
780.267	1036.1
780.449	1046.34
780.631	1032.01
780.812	1003.33
780.994	968.52
781.176	1122.12
781.358	980.81
781.54	937.8
781.721	937.8
781.903	939.85
782.085	931.66
782.267	929.61
782.448	853.83
782.63	921.42
782.812	931.66
782.993	933.7
783.175	898.89
783.357	825.16
783.538	925.51
783.72	878.41
783.901	800.59
784.083	948.04
784.264	878.41
784.446	878.41
784.627	847.69
784.809	872.26
784.99	812.87
785.172	733
785.353	810.82
785.535	812.87
785.716	780.11
785.897	794.44
786.079	829.26
786.26	778.06
786.441	778.06
786.623	755.53
786.804	730.95
786.985	739.15
787.167	761.67
787.348	737.1
787.529	769.87
787.71	722.76
787.891	771.91
788.073	634.7
788.254	681.8
788.435	692.04
788.616	632.65
788.797	659.28
788.978	661.32
789.159	618.32
789.34	767.82
789.522	612.17
789.703	708.43
789.884	649.04
790.065	634.7
790.246	603.98
790.427	581.45
790.607	694.09
790.788	665.42
790.969	577.36
791.15	624.46
791.331	642.89
791.512	663.37
791.693	560.97
791.874	606.03
792.054	624.46
792.235	634.7
792.416	616.27
792.597	528.21
792.778	630.6
792.958	532.3
793.139	554.83
793.32	548.68
793.5	485.2
793.681	597.84
793.862	595.79
794.042	524.11
794.223	552.78
794.404	491.34
794.584	417.61
794.765	534.35
794.945	487.25
795.126	522.06
795.306	552.78
795.487	456.53
795.667	495.44
795.848	601.93
796.028	493.39
796.209	485.2
796.389	456.53
796.57	425.81
796.75	474.96
796.93	481.1
797.111	431.95
797.291	446.29
797.471	466.77
797.652	347.98
797.832	417.61
798.012	505.68
798.192	440.14
798.373	474.96
798.553	470.86
798.733	444.24
798.913	382.8
799.093	417.61
799.274	485.2
799.454	466.77
799.634	450.38
799.814	479.05
799.994	462.67
800.174	458.57
800.354	401.23
800.534	360.27
800.714	431.95
800.894	317.26
801.074	341.84
801.254	409.42
801.434	466.77
801.614	495.44
801.794	417.61
801.974	1085.25
802.154	337.74
802.334	515.92
802.514	321.36
802.693	362.32
802.873	364.37
803.053	399.18
803.233	386.9
803.413	368.46
803.592	403.28
803.772	347.98
803.952	360.27
804.131	360.27
804.311	419.66
804.491	317.26
804.67	313.17
804.85	434
805.03	390.99
805.209	278.35
805.389	366.42
805.568	266.07
805.748	354.13
805.928	354.13
806.107	261.97
806.287	329.55
806.466	296.78
806.646	350.03
806.825	317.26
807.004	311.12
807.184	347.98
807.363	278.35
807.543	323.41
807.722	311.12
807.901	368.46
808.081	360.27
808.26	350.03
808.439	350.03
808.619	354.13
808.798	339.79
808.977	311.12
809.156	313.17
809.336	321.36
809.515	331.6
809.694	235.35
809.873	294.74
810.052	337.74
810.231	282.45
810.411	323.41
810.59	319.31
810.769	307.02
810.948	274.26
811.127	202.58
811.306	264.02
811.485	311.12
811.664	251.73
811.843	221.01
812.022	255.83
812.201	282.45
812.38	264.02
812.559	284.5
812.737	372.56
812.916	233.3
813.095	259.92
813.274	298.83
813.453	239.44
813.632	288.59
813.811	290.64
813.989	157.52
814.168	210.77
814.347	208.72
814.526	247.63
814.704	352.08
814.883	304.98
815.062	218.96
815.24	345.94
815.419	264.02
815.598	104.28
815.776	173.91
815.955	278.35
816.133	221.01
816.312	286.54
816.49	200.53
816.669	216.91
816.847	300.88
817.026	239.44
817.204	214.87
817.383	237.39
817.561	255.83
817.74	259.92
817.918	157.52
818.097	202.58
818.275	243.54
818.453	139.09
818.632	268.11
818.81	229.2
818.988	216.91
819.167	155.47
819.345	198.48
819.523	261.97
819.701	237.39
819.879	210.77
820.058	210.77
820.236	165.71
820.414	202.58
820.592	210.77
820.77	178
820.948	237.39
821.127	147.28
821.305	206.67
821.483	126.8
821.661	221.01
821.839	169.81
822.017	149.33
822.195	153.43
822.373	235.35
822.551	149.33
822.729	171.86
822.907	212.82
823.085	227.15
823.262	192.34
823.44	182.1
823.618	135
823.796	218.96
823.974	165.71
824.152	159.57
824.329	188.24
824.507	259.92
824.685	106.32
824.863	161.62
825.04	173.91
825.218	270.16
825.396	153.43
825.574	143.19
825.751	104.28
825.929	243.54
826.107	155.47
826.284	210.77
826.462	178
826.639	157.52
826.817	153.43
826.994	157.52
827.172	83.8
827.349	200.53
827.527	223.06
827.704	184.15
827.882	98.13
828.059	237.39
828.237	175.95
828.414	239.44
828.591	118.61
828.769	169.81
828.946	141.14
829.124	194.39
829.301	184.15
829.478	159.57
829.655	227.15
829.833	122.71
830.01	149.33
830.187	139.09
830.364	161.62
830.542	130.9
830.719	237.39
830.896	235.35
831.073	102.23
831.25	157.52
831.427	112.47
831.604	104.28
831.782	135
831.959	147.28
832.136	128.85
832.313	106.32
832.49	137.04
832.667	163.67
832.844	71.51
833.021	130.9
833.198	200.53
833.374	116.56
833.551	83.8
833.728	124.76
833.905	167.76
834.082	145.24
834.259	145.24
834.436	196.43
834.612	94.04
834.789	118.61
834.966	141.14
835.143	192.34
835.319	69.46
835.496	214.87
835.673	67.41
835.85	67.41
836.026	81.75
836.203	128.85
836.38	130.9
836.556	120.66
836.733	69.46
836.909	243.54
837.086	153.43
837.262	83.8
837.439	102.23
837.616	83.8
837.792	87.89
837.968	122.71
838.145	104.28
838.321	71.51
838.498	122.71
838.674	206.67
838.851	137.04
839.027	124.76
839.203	122.71
839.38	167.76
839.556	137.04
839.732	118.61
839.909	71.51
840.085	69.46
840.261	53.08
840.437	184.15
840.614	169.81
840.79	216.91
840.966	89.94
841.142	83.8
841.318	141.14
841.494	135
841.671	89.94
841.847	42.84
842.023	96.08
842.199	14.17
842.375	198.48
842.551	96.08
842.727	1.88
842.903	161.62
843.079	38.74
843.255	100.18
843.431	48.98
843.607	89.94
843.783	42.84
843.959	163.67
844.134	132.95
844.31	89.94
844.486	34.64
844.662	89.94
844.838	59.22
845.013	18.26
845.189	112.47
845.365	55.12
845.541	87.89
845.716	141.14
845.892	135
846.068	71.51
846.244	85.84
846.419	132.95
846.595	40.79
846.77	46.93
846.946	106.32
847.122	122.71
847.297	104.28
847.473	157.52
847.648	51.03
847.824	81.75
847.999	28.5
848.175	165.71
848.35	96.08
848.526	173.91
848.701	126.8
848.876	124.76
849.052	85.84
849.227	100.18
849.403	3.93
849.578	48.98
849.753	79.7
849.929	75.6
850.104	126.8
850.279	75.6
850.454	132.95
850.63	73.56
850.805	89.94
850.98	46.93
851.155	98.13
851.33	165.71
851.505	118.61
851.681	114.52
851.856	20.31
852.031	30.55
852.206	147.28
852.381	16.21
852.556	98.13
852.731	63.32
852.906	61.27
853.081	30.55
853.256	87.89
853.431	89.94
853.606	53.08
853.781	5.97
853.956	5.97
854.131	12.12
854.305	-12.46
854.48	53.08
854.655	69.46
854.83	65.36
855.005	69.46
855.18	69.46
855.354	83.8
855.529	30.55
855.704	24.4
855.879	57.17
856.053	12.12
856.228	120.66
856.403	-22.7
856.577	83.8
856.752	24.4
856.926	81.75
857.101	67.41
857.276	63.32
857.45	102.23
857.625	87.89
857.799	98.13
857.974	48.98
858.148	14.17
858.323	83.8
858.497	132.95
858.672	100.18
858.846	67.41
859.02	10.07
859.195	57.17
859.369	44.88
859.543	30.55
859.718	65.36
859.892	100.18
860.066	18.26
860.241	75.6
860.415	40.79
860.589	-16.55
860.763	-2.22
860.938	46.93
861.112	104.28
861.286	61.27
861.46	53.08
861.634	28.5
861.808	65.36
861.982	57.17
862.157	79.7
862.331	89.94
862.505	112.47
862.679	22.36
862.853	-4.27
863.027	63.32
863.201	81.75
863.375	-41.13
863.549	89.94
863.722	18.26
863.896	71.51
864.07	12.12
864.244	36.69
864.418	159.57
864.592	44.88
864.766	108.37
864.939	32.6
865.113	34.64
865.287	38.74
865.461	-55.47
865.634	5.97
865.808	71.51
865.982	-8.36
866.156	10.07
866.329	-2.22
866.503	139.09
866.676	126.8
866.85	73.56
867.024	79.7
867.197	104.28
867.371	30.55
867.544	65.36
867.718	24.4
867.891	-18.6
868.065	67.41
868.238	24.4
868.412	79.7
868.585	16.21
868.759	-16.55
868.932	-10.41
869.105	-18.6
869.279	26.45
869.452	-39.08
869.625	10.07
869.799	73.56
869.972	-45.23
870.145	-0.17
870.319	3.93
870.492	42.84
870.665	-16.55
870.838	83.8
871.011	73.56
871.185	5.97
871.358	-28.84
871.531	40.79
871.704	20.31
871.877	16.21
872.05	-10.41
872.223	12.12
872.396	44.88
872.569	16.21
872.742	-30.89
872.915	30.55
873.088	42.84
873.261	126.8
873.434	110.42
873.607	112.47
873.78	114.52
873.953	44.88
874.126	51.03
874.299	5.97
874.471	-24.75
874.644	3.93
874.817	14.17
874.99	130.9
875.163	3.93
875.335	22.36
875.508	38.74
875.681	12.12
875.853	-65.71
876.026	22.36
876.199	32.6
876.371	-28.84
876.544	36.69
876.717	38.74
876.889	1.88
877.062	-8.36
877.234	-22.7
877.407	-45.23
877.579	14.17
877.752	26.45
877.924	-32.94
878.097	26.45
878.269	36.69
878.442	69.46
878.614	26.45
878.786	122.71
878.959	57.17
879.131	-22.7
879.303	-43.18
879.476	-2.22
879.648	79.7
879.82	5.97
879.993	-34.99
880.165	55.12
880.337	53.08
880.509	63.32
880.681	-32.94
880.854	94.04
881.026	14.17
881.198	91.99
881.37	-24.75
881.542	-18.6
881.714	59.22
881.886	-26.79
882.058	-26.79
882.23	44.88
882.402	-37.03
882.574	42.84
882.746	61.27
882.918	42.84
883.09	12.12
883.262	-10.41
883.434	87.89
883.606	5.97
883.778	40.79
883.95	77.65
884.122	57.17
884.293	130.9
884.465	-53.42
884.637	65.36
884.809	5.97
884.98	-6.31
885.152	-22.7
885.324	20.31
885.496	-57.51
885.667	57.17
885.839	61.27
886.011	100.18
886.182	1.88
886.354	-8.36
886.525	63.32
886.697	26.45
886.869	36.69
887.04	18.26
887.212	12.12
887.383	12.12
887.555	14.17
887.726	42.84
887.897	-4.27
888.069	53.08
888.24	-20.65
888.412	8.02
888.583	-59.56
888.754	73.56
888.926	-39.08
889.097	26.45
889.268	8.02
889.44	57.17
889.611	32.6
889.782	34.64
889.953	18.26
890.125	141.14
890.296	-39.08
890.467	67.41
890.638	-18.6
890.809	28.5
890.98	-39.08
891.151	71.51
891.323	10.07
891.494	3.93
891.665	-4.27
891.836	57.17
892.007	8.02
892.178	79.7
892.349	42.84
892.52	18.26
892.691	48.98
892.862	-4.27
893.032	14.17
893.203	8.02
893.374	34.64
893.545	32.6
893.716	22.36
893.887	112.47
894.057	-6.31
894.228	-6.31
894.399	8.02
894.57	14.17
894.74	44.88
894.911	30.55
895.082	-12.46
895.253	24.4
895.423	16.21
895.594	59.22
895.764	46.93
895.935	71.51
896.106	-8.36
896.276	3.93
896.447	-16.55
896.617	10.07
896.788	-16.55
896.958	59.22
897.129	-8.36
897.299	-2.22
897.47	108.37
897.64	69.46
897.81	14.17
897.981	-47.27
898.151	-12.46
898.322	40.79
898.492	26.45
898.662	3.93
898.832	-24.75
899.003	116.56
899.173	24.4
899.343	-43.18
899.513	-41.13
