Data from USB4F104151__21__12-15-18-246.txt Node

Date: Wed Feb 19 12:15:18 EST 2025
User: louis
Spectrometer: USB4F10415
Trigger mode: 4
Integration Time (sec): 2.250200E-1
Scans to average: 1
Electric dark correction enabled: true
Nonlinearity correction enabled: false
Boxcar width: 0
XAxis mode: Wavelengths
Number of Pixels in Spectrum: 3648
>>>>>Begin Spectral Data<<<<<
178.204	-839.5
178.424	-839.5
178.644	-839.5
178.864	-831.3
179.084	-835.4
179.304	180.39
179.524	155.82
179.744	-20.31
179.964	-280.4
180.184	180.39
180.404	239.78
180.624	-274.26
180.844	-71.51
181.064	61.61
181.283	151.72
181.503	-196.43
181.723	-126.8
181.943	-114.52
182.163	499.88
182.383	-286.54
182.602	-208.72
182.822	362.66
183.042	258.21
183.262	-233.3
183.482	-132.95
183.701	194.73
183.921	258.21
184.141	-137.04
184.361	-206.67
184.58	282.79
184.8	180.39
185.02	-175.95
185.239	-110.42
185.459	295.08
185.679	473.25
185.898	-274.26
186.118	-200.53
186.338	305.32
186.557	254.12
186.777	-208.72
186.997	-190.29
187.216	161.96
187.436	538.79
187.655	-184.15
187.875	-61.27
188.095	149.67
188.314	413.86
188.534	-59.22
188.753	-266.07
188.973	436.39
189.192	364.71
189.412	-266.07
189.631	-188.24
189.851	241.83
190.07	495.78
190.29	-175.95
190.509	-196.43
190.729	125.1
190.948	481.44
191.168	-67.41
191.387	-210.77
191.607	161.96
191.826	274.6
192.045	-114.52
192.265	-190.29
192.484	342.18
192.704	237.74
192.923	-237.39
193.142	45.23
193.362	327.85
193.581	342.18
193.8	-116.56
194.02	-73.56
194.239	245.93
194.458	409.76
194.678	-118.61
194.897	-302.93
195.116	223.4
195.335	256.17
195.555	-167.76
195.774	-245.59
195.993	391.33
196.212	127.14
196.432	-75.6
196.651	-225.11
196.87	219.3
197.089	602.27
197.308	-216.91
197.528	-126.8
197.747	63.66
197.966	223.4
198.185	-22.36
198.404	-274.26
198.623	315.56
198.842	389.28
199.062	-94.04
199.281	-132.95
199.5	178.34
199.719	305.32
199.938	-159.57
200.157	-122.71
200.376	389.28
200.595	456.87
200.814	-132.95
201.033	-94.04
201.252	405.67
201.471	301.22
201.69	-159.57
201.909	-192.34
202.128	358.57
202.347	274.6
202.566	-102.23
202.785	-309.07
203.004	243.88
203.223	585.89
203.442	-163.67
203.661	-270.16
203.879	299.17
204.098	356.52
204.317	-198.48
204.536	30.89
204.755	372.9
204.974	270.5
205.193	-343.89
205.411	-67.41
205.63	366.76
205.849	262.31
206.068	-173.91
206.287	-278.35
206.505	413.86
206.724	172.2
206.943	-251.73
207.162	-186.19
207.381	217.26
207.599	170.15
207.818	-114.52
208.037	-198.48
208.255	176.3
208.474	252.07
208.693	-151.38
208.911	-165.71
209.13	331.94
209.349	297.13
209.567	-5.97
209.786	-106.32
210.005	315.56
210.223	215.21
210.442	-390.99
210.661	-272.21
210.879	299.17
211.098	172.2
211.316	-124.76
211.535	-178
211.753	268.45
211.972	280.74
212.191	-130.9
212.409	-116.56
212.628	311.46
212.846	209.06
213.065	-247.63
213.283	-126.8
213.502	198.82
213.72	204.97
213.938	-186.19
214.157	-114.52
214.375	336.04
214.594	188.58
214.812	-81.75
215.031	-247.63
215.249	211.11
215.467	233.64
215.686	-69.46
215.904	-132.95
216.122	219.3
216.341	446.63
216.559	-18.26
216.778	-71.51
216.996	475.3
217.214	266.41
217.432	-126.8
217.651	-200.53
217.869	233.64
218.087	209.06
218.306	-214.87
218.524	-153.43
218.742	194.73
218.96	413.86
219.179	-153.43
219.397	-225.11
219.615	520.35
219.833	262.31
220.051	-218.96
220.27	-85.84
220.488	327.85
220.706	290.98
220.924	-188.24
221.142	-169.81
221.36	295.08
221.578	297.13
221.796	-149.33
222.015	8.36
222.233	274.6
222.451	422.05
222.669	-81.75
222.887	-96.08
223.105	112.81
223.323	149.67
223.541	-188.24
223.759	-77.65
223.977	241.83
224.195	407.72
224.413	-155.47
224.631	-214.87
224.849	182.44
225.067	538.79
225.285	-147.28
225.503	-188.24
225.721	2.22
225.939	266.41
226.157	-69.46
226.375	-10.07
226.592	241.83
226.81	166.06
227.028	-26.45
227.246	-106.32
227.464	250.02
227.682	348.33
227.9	-118.61
228.117	-149.33
228.335	209.06
228.553	194.73
228.771	-245.59
228.989	-126.8
229.206	346.28
229.424	139.43
229.642	-149.33
229.86	-139.09
230.077	415.91
230.295	237.74
230.513	-32.6
230.731	-153.43
230.948	387.24
231.166	428.2
231.384	-141.14
231.601	-151.38
231.819	411.81
232.037	147.62
232.254	-55.12
232.472	-208.72
232.689	194.73
232.907	325.8
233.125	-259.92
233.342	-147.28
233.56	157.86
233.777	100.52
233.995	-137.04
234.213	-94.04
234.43	280.74
234.648	186.54
234.865	-173.91
235.083	-42.84
235.3	153.77
235.518	272.55
235.735	-55.12
235.953	-94.04
236.17	262.31
236.388	315.56
236.605	20.65
236.822	-67.41
237.04	315.56
237.257	200.87
237.475	-182.1
237.692	-106.32
237.909	311.46
238.127	121
238.344	-46.93
238.562	-108.37
238.779	59.56
238.996	-10.07
239.214	-48.98
239.431	22.7
239.648	180.39
239.865	245.93
240.083	-96.08
240.3	-231.25
240.517	149.67
240.735	157.86
240.952	26.79
241.169	-175.95
241.386	321.7
241.603	168.1
241.821	-180.05
242.038	-128.85
242.255	415.91
242.472	71.85
242.689	-85.84
242.907	-145.24
243.124	254.12
243.341	225.45
243.558	-143.19
243.775	-200.53
243.992	63.66
244.209	293.03
244.426	-73.56
244.643	-44.88
244.86	121
245.078	260.26
245.295	-55.12
245.512	-147.28
245.729	65.71
245.946	237.74
246.163	-94.04
246.38	-175.95
246.597	176.3
246.814	166.06
247.031	-96.08
247.248	-233.3
247.464	323.75
247.681	141.48
247.898	-112.47
248.115	-114.52
248.332	-12.12
248.549	325.8
248.766	-75.6
248.983	-100.18
249.2	350.37
249.417	317.61
249.633	-126.8
249.85	-44.88
250.067	190.63
250.284	209.06
250.501	-171.86
250.717	-81.75
250.934	34.99
251.151	168.1
251.368	-118.61
251.585	-159.57
251.801	170.15
252.018	57.51
252.235	8.36
252.451	-186.19
252.668	110.76
252.885	356.52
253.102	-102.23
253.318	-100.18
253.535	157.86
253.752	182.44
253.968	-65.36
254.185	-243.54
254.401	258.21
254.618	295.08
254.835	-108.37
255.051	-167.76
255.268	340.13
255.484	194.73
255.701	-167.76
255.917	-149.33
256.134	139.43
256.351	172.2
256.567	-175.95
256.784	-57.17
257	-67.41
257.217	393.38
257.433	86.19
257.65	-48.98
257.866	360.61
258.082	4.27
258.299	-130.9
258.515	-102.23
258.732	180.39
258.948	28.84
259.165	-51.03
259.381	-198.48
259.597	297.13
259.814	188.58
260.03	-173.91
260.246	-22.36
260.463	305.32
260.679	286.89
260.895	-79.7
261.112	-61.27
261.328	151.72
261.544	45.23
261.761	-184.15
261.977	-118.61
262.193	151.72
262.409	329.89
262.626	2.22
262.842	-137.04
263.058	161.96
263.274	258.21
263.49	80.04
263.707	-87.89
263.923	235.69
264.139	20.65
264.355	0.17
264.571	-96.08
264.787	184.49
265.004	299.17
265.22	-3.93
265.436	-108.37
265.652	184.49
265.868	278.69
266.084	-151.38
266.3	-85.84
266.516	94.38
266.732	299.17
266.948	-26.45
267.164	-143.19
267.38	293.03
267.596	301.22
267.812	-10.07
268.028	-96.08
268.244	125.1
268.46	190.63
268.676	-102.23
268.892	-42.84
269.108	41.13
269.324	59.56
269.54	-73.56
269.756	-57.17
269.972	43.18
270.188	217.26
270.403	-106.32
270.619	-143.19
270.835	272.55
271.051	262.31
271.267	-143.19
271.483	-180.05
271.698	319.65
271.914	309.41
272.13	-100.18
272.346	-98.13
272.562	176.3
272.777	405.67
272.993	-106.32
273.209	-145.24
273.425	241.83
273.64	12.46
273.856	-151.38
274.072	-216.91
274.287	51.37
274.503	323.75
274.719	8.36
274.934	-196.43
275.15	-75.6
275.366	198.82
275.581	-63.32
275.797	-98.13
276.012	217.26
276.228	127.14
276.444	8.36
276.659	77.99
276.875	41.13
277.09	186.54
277.306	8.36
277.521	2.22
277.737	164.01
277.952	250.02
278.168	-94.04
278.383	-44.88
278.599	182.44
278.814	221.35
279.03	-153.43
279.245	53.42
279.461	161.96
279.676	176.3
279.892	-122.71
280.107	-89.94
280.322	34.99
280.538	303.27
280.753	-139.09
280.969	-36.69
281.184	221.35
281.399	299.17
281.615	-44.88
281.83	51.37
282.045	-38.74
282.26	32.94
282.476	-94.04
282.691	-5.97
282.906	204.97
283.122	121
283.337	-53.08
283.552	77.99
283.767	39.08
283.983	250.02
284.198	12.46
284.413	-122.71
284.628	73.9
284.843	151.72
285.058	-44.88
285.274	-81.75
285.489	63.66
285.704	176.3
285.919	-110.42
286.134	-46.93
286.349	121
286.564	57.51
286.779	-3.93
286.995	-38.74
287.21	22.7
287.425	250.02
287.64	-102.23
287.855	129.19
288.07	-38.74
288.285	301.22
288.5	4.27
288.715	18.6
288.93	159.91
289.145	4.27
289.36	-46.93
289.575	37.03
289.79	260.26
290.004	125.1
290.219	47.27
290.434	-79.7
290.649	147.62
290.864	178.34
291.079	6.31
291.294	-14.17
291.509	250.02
291.724	104.62
291.938	-57.17
292.153	-22.36
292.368	192.68
292.583	350.37
292.798	-38.74
293.012	24.75
293.227	213.16
293.442	129.19
293.657	80.04
293.871	-40.79
294.086	262.31
294.301	303.27
294.516	69.8
294.73	55.47
294.945	123.05
295.16	127.14
295.374	37.03
295.589	71.85
295.804	133.29
296.018	145.58
296.233	-38.74
296.447	90.28
296.662	127.14
296.877	346.28
297.091	-8.02
297.306	-14.17
297.52	80.04
297.735	161.96
297.949	22.7
298.164	-61.27
298.378	139.43
298.593	-10.07
298.807	-1.88
299.022	55.47
299.236	325.8
299.451	-8.02
299.665	6.31
299.88	-10.07
300.094	209.06
300.309	139.43
300.523	26.79
300.737	-59.22
300.952	241.83
301.166	178.34
301.381	-77.65
301.595	-126.8
301.809	155.82
302.024	188.58
302.238	-57.17
302.452	145.58
302.667	166.06
302.881	274.6
303.095	43.18
303.309	45.23
303.524	98.47
303.738	139.43
303.952	4.27
304.166	-10.07
304.381	-147.28
304.595	207.02
304.809	34.99
305.023	-34.64
305.237	77.99
305.452	135.34
305.666	16.55
305.88	53.42
306.094	305.32
306.308	202.92
306.522	-34.64
306.736	61.61
306.95	293.03
307.164	86.19
307.379	47.27
307.593	88.23
307.807	288.93
308.021	207.02
308.235	155.82
308.449	-34.64
308.663	166.06
308.877	479.4
309.091	-22.36
309.305	55.47
309.519	-71.51
309.733	237.74
309.947	-73.56
310.161	-63.32
310.374	174.25
310.588	327.85
310.802	-51.03
311.016	37.03
311.23	172.2
311.444	59.56
311.658	8.36
311.872	155.82
312.085	295.08
312.299	358.57
312.513	159.91
312.727	6.31
312.941	-36.69
313.154	219.3
313.368	45.23
313.582	-94.04
313.796	241.83
314.009	168.1
314.223	168.1
314.437	69.8
314.651	194.73
314.864	121
315.078	-73.56
315.292	-40.79
315.505	190.63
315.719	168.1
315.933	121
316.146	-132.95
316.36	49.32
316.573	186.54
316.787	198.82
317.001	102.57
317.214	57.51
317.428	227.5
317.641	-75.6
317.855	-22.36
318.068	123.05
318.282	121
318.495	102.57
318.709	4.27
318.922	176.3
319.136	258.21
319.349	51.37
319.563	-28.5
319.776	276.65
319.99	-83.8
320.203	43.18
320.417	37.03
320.63	180.39
320.843	297.13
321.057	149.67
321.27	32.94
321.483	219.3
321.697	164.01
321.91	-38.74
322.124	65.71
322.337	209.06
322.55	65.71
322.763	-59.22
322.977	-8.02
323.19	80.04
323.403	121
323.617	55.47
323.83	243.88
324.043	161.96
324.256	161.96
324.469	-204.63
324.683	145.58
324.896	108.71
325.109	118.95
325.322	-169.81
325.535	77.99
325.748	309.41
325.962	73.9
326.175	0.17
326.388	-3.93
326.601	192.68
326.814	110.76
327.027	20.65
327.24	61.61
327.453	-24.4
327.666	250.02
327.879	188.58
328.092	20.65
328.305	227.5
328.518	53.42
328.731	-12.12
328.944	-73.56
329.157	145.58
329.37	4.27
329.583	186.54
329.796	127.14
330.009	6.31
330.222	299.17
330.435	28.84
330.648	55.47
330.861	266.41
331.073	170.15
331.286	73.9
331.499	-53.08
331.712	94.38
331.925	116.9
332.138	77.99
332.35	-55.12
332.563	114.86
332.776	297.13
332.989	-36.69
333.202	-69.46
333.414	161.96
333.627	217.26
333.84	-18.26
334.053	67.75
334.265	-8.02
334.478	28.84
334.691	-20.31
334.903	149.67
335.116	47.27
335.329	204.97
335.541	34.99
335.754	155.82
335.966	110.76
336.179	102.57
336.392	39.08
336.604	69.8
336.817	233.64
337.029	198.82
337.242	-63.32
337.454	112.81
337.667	164.01
337.88	256.17
338.092	-3.93
338.305	75.95
338.517	170.15
338.729	235.69
338.942	-12.12
339.154	-116.56
339.367	37.03
339.579	235.69
339.792	-161.62
340.004	59.56
340.217	190.63
340.429	286.89
340.641	-40.79
340.854	-110.42
341.066	227.5
341.278	219.3
341.491	121
341.703	-1.88
341.915	30.89
342.128	252.07
342.34	96.43
342.552	-77.65
342.764	65.71
342.977	133.29
343.189	-53.08
343.401	16.55
343.613	-51.03
343.826	125.1
344.038	-124.76
344.25	80.04
344.462	8.36
344.674	184.49
344.886	-67.41
345.099	22.7
345.311	188.58
345.523	51.37
345.735	-87.89
345.947	14.51
346.159	202.92
346.371	168.1
346.583	55.47
346.795	147.62
347.007	104.62
347.219	200.87
347.431	32.94
347.643	168.1
347.855	112.81
348.067	323.75
348.279	-59.22
348.491	-77.65
348.703	315.56
348.915	190.63
349.127	-51.03
349.339	47.27
349.551	135.34
349.763	241.83
349.975	-53.08
350.187	-36.69
350.399	321.7
350.61	196.78
350.822	37.03
351.034	75.95
351.246	215.21
351.458	243.88
351.669	24.75
351.881	41.13
352.093	356.52
352.305	272.55
352.517	-69.46
352.728	63.66
352.94	159.91
353.152	274.6
353.363	-77.65
353.575	57.51
353.787	381.09
353.999	164.01
354.21	176.3
354.422	-165.71
354.633	190.63
354.845	215.21
355.057	73.9
355.268	80.04
355.48	303.27
355.692	57.51
355.903	57.51
356.115	-44.88
356.326	-40.79
356.538	288.93
356.749	51.37
356.961	200.87
357.172	39.08
357.384	-14.17
357.595	168.1
357.807	-16.21
358.018	137.38
358.23	139.43
358.441	-61.27
358.653	14.51
358.864	145.58
359.075	71.85
359.287	16.55
359.498	104.62
359.709	270.5
359.921	131.24
360.132	82.09
360.344	-94.04
360.555	73.9
360.766	184.49
360.977	-63.32
361.189	71.85
361.4	159.91
361.611	311.46
361.823	102.57
362.034	-75.6
362.245	28.84
362.456	184.49
362.667	153.77
362.879	-204.63
363.09	176.3
363.301	143.53
363.512	2.22
363.723	-77.65
363.935	77.99
364.146	305.32
364.357	-18.26
364.568	41.13
364.779	-61.27
364.99	356.52
365.201	-36.69
365.412	92.33
365.623	-22.36
365.834	186.54
366.045	69.8
366.256	55.47
366.467	221.35
366.678	116.9
366.889	57.51
367.1	26.79
367.311	290.98
367.522	192.68
367.733	65.71
367.944	55.47
368.155	86.19
368.366	241.83
368.577	123.05
368.788	155.82
368.999	118.95
369.209	147.62
369.42	182.44
369.631	319.65
369.842	231.59
370.053	96.43
370.264	28.84
370.474	-89.94
370.685	286.89
370.896	196.78
371.107	53.42
371.317	-22.36
371.528	196.78
371.739	383.14
371.95	43.18
372.16	-8.02
372.371	39.08
372.582	18.6
372.792	20.65
373.003	92.33
373.214	270.5
373.424	223.4
373.635	24.75
373.846	159.91
374.056	252.07
374.267	92.33
374.477	112.81
374.688	12.46
374.898	202.92
375.109	186.54
375.319	131.24
375.53	106.67
375.74	207.02
375.951	65.71
376.161	157.86
376.372	84.14
376.582	133.29
376.793	260.26
377.003	-48.98
377.214	-67.41
377.424	278.69
377.635	164.01
377.845	-3.93
378.055	108.71
378.266	57.51
378.476	225.45
378.686	61.61
378.897	55.47
379.107	286.89
379.317	274.6
379.528	-61.27
379.738	57.51
379.948	69.8
380.158	252.07
380.369	57.51
380.579	100.52
380.789	159.91
380.999	237.74
381.21	217.26
381.42	233.64
381.63	172.2
381.84	245.93
382.05	151.72
382.261	127.14
382.471	356.52
382.681	94.38
382.891	96.43
383.101	94.38
383.311	92.33
383.521	45.23
383.731	39.08
383.941	174.25
384.151	143.53
384.361	39.08
384.571	2.22
384.781	86.19
384.991	333.99
385.201	411.81
385.411	125.1
385.621	4.27
385.831	252.07
386.041	125.1
386.251	73.9
386.461	116.9
386.671	143.53
386.881	219.3
387.091	-38.74
387.301	178.34
387.511	30.89
387.72	143.53
387.93	77.99
388.14	-18.26
388.35	170.15
388.56	350.37
388.769	18.6
388.979	8.36
389.189	57.51
389.399	223.4
389.609	-14.17
389.818	10.41
390.028	221.35
390.238	137.38
390.447	32.94
390.657	61.61
390.867	143.53
391.076	-42.84
391.286	-1.88
391.496	-24.4
391.705	45.23
391.915	489.64
392.125	-12.12
392.334	45.23
392.544	288.93
392.753	102.57
392.963	53.42
393.172	41.13
393.382	102.57
393.591	387.24
393.801	39.08
394.01	39.08
394.22	231.59
394.429	80.04
394.639	94.38
394.848	53.42
395.058	178.34
395.267	139.43
395.477	118.95
395.686	37.03
395.895	489.64
396.105	348.33
396.314	-32.6
396.524	57.51
396.733	225.45
396.942	315.56
397.152	12.46
397.361	96.43
397.57	219.3
397.78	121
397.989	108.71
398.198	258.21
398.407	157.86
398.617	192.68
398.826	14.51
399.035	-5.97
399.244	274.6
399.453	233.64
399.663	-20.31
399.872	-28.5
400.081	118.95
400.29	286.89
400.499	-8.02
400.708	161.96
400.917	137.38
401.127	225.45
401.336	24.75
401.545	303.27
401.754	331.94
401.963	164.01
402.172	49.32
402.381	8.36
402.59	178.34
402.799	254.12
403.008	245.93
403.217	112.81
403.426	170.15
403.635	37.03
403.844	-71.51
404.053	-34.64
404.262	137.38
404.471	331.94
404.68	-10.07
404.888	-3.93
405.097	22.7
405.306	184.49
405.515	90.28
405.724	14.51
405.933	319.65
406.142	213.16
406.35	59.56
406.559	139.43
406.768	131.24
406.977	422.05
407.185	16.55
407.394	145.58
407.603	-24.4
407.812	188.58
408.02	184.49
408.229	43.18
408.438	276.65
408.646	8.36
408.855	-42.84
409.064	45.23
409.272	84.14
409.481	260.26
409.69	71.85
409.898	-5.97
410.107	219.3
410.315	368.81
410.524	108.71
410.733	-40.79
410.941	217.26
411.15	321.7
411.358	200.87
411.567	233.64
411.775	303.27
411.984	190.63
412.192	110.76
412.401	28.84
412.609	475.3
412.818	323.75
413.026	90.28
413.234	65.71
413.443	143.53
413.651	155.82
413.86	-151.38
414.068	200.87
414.276	458.92
414.485	82.09
414.693	137.38
414.901	198.82
415.11	252.07
415.318	204.97
415.526	153.77
415.734	229.54
415.943	196.78
416.151	366.76
416.359	0.17
416.567	184.49
416.776	254.12
416.984	252.07
417.192	211.11
417.4	49.32
417.608	118.95
417.817	47.27
418.025	168.1
418.233	110.76
418.441	92.33
418.649	129.19
418.857	80.04
419.065	104.62
419.273	45.23
419.481	219.3
419.689	123.05
419.897	49.32
420.105	94.38
420.313	237.74
420.521	141.48
420.729	166.06
420.937	116.9
421.145	159.91
421.353	127.14
421.561	141.48
421.769	288.93
421.977	131.24
422.185	178.34
422.393	80.04
422.601	342.18
422.809	231.59
423.017	131.24
423.224	114.86
423.432	403.62
423.64	221.35
423.848	43.18
424.056	51.37
424.263	420
424.471	252.07
424.679	229.54
424.887	12.46
425.094	469.16
425.302	243.88
425.51	-3.93
425.718	176.3
425.925	297.13
426.133	104.62
426.341	266.41
426.548	114.86
426.756	196.78
426.964	311.46
427.171	166.06
427.379	180.39
427.586	211.11
427.794	407.72
428.001	211.11
428.209	80.04
428.417	440.48
428.624	426.15
428.832	166.06
429.039	270.5
429.247	295.08
429.454	333.99
429.662	233.64
429.869	116.9
430.076	385.19
430.284	327.85
430.491	147.62
430.699	233.64
430.906	510.11
431.114	430.24
431.321	245.93
431.528	217.26
431.736	358.57
431.943	342.18
432.15	225.45
432.358	247.97
432.565	569.51
432.772	118.95
432.979	336.04
433.187	223.4
433.394	579.75
433.601	260.26
433.808	333.99
434.016	372.9
434.223	430.24
434.43	401.57
434.637	270.5
434.844	448.68
435.052	571.55
435.259	444.58
435.466	338.09
435.673	317.61
435.88	610.47
436.087	661.66
436.294	594.08
436.501	491.68
436.708	571.55
436.915	497.83
437.122	553.12
437.329	319.65
437.537	526.5
437.743	641.18
437.95	526.5
438.157	407.72
438.364	649.38
438.571	555.17
438.778	456.87
438.985	600.23
439.192	716.96
439.399	600.23
439.606	561.31
439.813	608.42
440.02	925.85
440.227	1038.49
440.433	585.89
440.64	663.71
440.847	594.08
441.054	694.43
441.261	700.58
441.467	618.66
441.674	700.58
441.881	866.46
442.088	708.77
442.294	716.96
442.501	977.05
442.708	946.33
442.914	694.43
443.121	854.17
443.328	1032.35
443.534	1044.63
443.741	839.84
443.948	782.49
444.154	1101.98
444.361	1261.72
444.568	921.76
444.774	966.81
444.981	893.09
445.187	1259.67
445.394	1087.64
445.6	1040.54
445.807	1271.96
446.013	1249.43
446.22	919.71
446.426	1257.62
446.633	1446.04
446.839	1583.25
447.046	1081.5
447.252	1480.85
447.459	1425.56
447.665	1450.13
447.871	1390.74
448.078	1808.53
448.284	1677.46
448.491	1812.62
448.697	1724.56
448.903	1800.34
449.11	1931.41
449.316	1833.1
449.522	1814.67
449.728	1937.55
449.935	2062.48
450.141	2121.87
450.347	2091.15
450.553	1976.46
450.76	2336.9
450.966	2465.93
451.172	2424.97
451.378	2238.6
451.584	2607.23
451.791	2805.89
451.997	2572.42
452.203	2640
452.409	2971.77
452.615	2875.52
452.821	2719.87
453.027	2605.19
453.233	3139.71
453.44	3092.6
453.646	2939.01
453.852	3162.23
454.058	3154.04
454.264	3410.04
454.47	3455.09
454.676	3260.54
454.882	3659.89
455.088	3575.92
455.294	3416.18
455.5	3584.12
455.705	3836.02
455.911	3594.36
456.117	3547.25
456.323	3647.6
456.529	3704.95
456.735	4010.09
456.941	3713.14
457.147	3772.53
457.352	3979.37
457.558	3698.8
457.764	3840.11
457.97	3739.76
458.176	4098.16
458.381	4069.48
458.587	3885.17
458.793	3903.6
458.999	3758.19
459.204	4096.11
459.41	3797.1
459.616	3928.17
459.821	4022.38
460.027	3823.73
460.233	3879.02
460.438	3836.02
460.644	3965.04
460.85	3696.75
461.055	3633.27
461.261	3637.36
461.466	3371.13
461.672	3367.03
461.878	3342.46
462.083	3489.91
462.289	3317.88
462.494	3371.13
462.7	3235.96
462.905	3006.59
463.111	3549.3
463.316	3600.5
463.522	3278.97
463.727	3102.84
463.932	3383.42
464.138	3371.13
464.343	3244.15
464.549	3235.96
464.754	3432.57
464.959	3410.04
465.165	3291.26
465.37	3176.57
465.575	3098.75
465.781	3111.04
465.986	3133.56
466.191	3086.46
466.397	3129.47
466.602	3238.01
466.807	3039.36
467.012	3002.49
467.218	3143.8
467.423	3004.54
467.628	2916.48
467.833	2982.01
468.038	2885.76
468.244	2926.72
468.449	3051.64
468.654	2971.77
468.859	3100.8
469.064	3121.28
469.269	2824.32
469.474	2887.81
469.679	3250.3
469.885	3240.06
470.09	3018.88
470.295	3004.54
470.5	3010.68
470.705	3184.76
470.91	3119.23
471.115	2902.14
471.32	3229.82
471.525	3332.22
471.73	2965.63
471.935	3049.6
472.139	3092.6
472.344	3018.88
472.549	3065.98
472.754	3190.91
472.959	3213.43
473.164	3053.69
473.369	2982.01
473.574	3027.07
473.778	3385.46
473.983	3240.06
474.188	3305.59
474.393	3055.74
474.598	3231.87
474.802	3289.21
475.007	2992.25
475.212	3125.37
475.417	3160.19
475.621	3291.26
475.826	3037.31
476.031	3160.19
476.235	3199.1
476.44	3313.78
476.645	3127.42
476.849	3082.36
477.054	3176.57
477.259	3170.43
477.463	3274.87
477.668	3381.37
477.872	3559.54
478.077	3235.96
478.282	2982.01
478.486	3190.91
478.691	3113.08
478.895	3258.49
479.1	3276.92
479.304	3242.11
479.509	3117.18
479.713	3444.85
479.918	3192.95
480.122	3154.04
480.326	3438.71
480.531	3387.51
480.735	3252.35
480.94	3121.28
481.144	3537.01
481.348	3231.87
481.553	3299.45
481.757	3139.71
481.961	3436.66
482.166	3543.16
482.37	3291.26
482.574	3332.22
482.778	3240.06
482.983	3514.49
483.187	3221.63
483.391	3399.8
483.595	3502.2
483.8	3395.7
484.004	3534.96
484.208	3383.42
484.412	3608.69
484.616	3571.83
484.821	3471.48
485.025	3326.07
485.229	3407.99
485.433	3584.12
485.637	3426.42
485.841	3489.91
486.045	3815.54
486.249	3747.95
486.453	3510.39
486.657	3405.94
486.861	3399.8
487.065	3856.5
487.269	3563.64
487.473	3489.91
487.677	3944.56
487.881	4192.36
488.085	3733.62
488.289	3932.27
488.493	3965.04
488.697	4153.45
488.901	4122.73
489.105	3993.71
489.309	4014.19
489.512	4415.59
489.716	4049
489.92	4163.69
490.124	4325.48
490.328	4438.12
490.531	4161.64
490.735	4231.27
490.939	4257.9
491.143	4278.38
491.346	4337.77
491.55	4393.06
491.754	4565.09
491.958	4421.74
492.161	4474.98
492.365	4329.58
492.569	4628.58
492.772	4773.99
492.976	4526.18
493.18	4563.05
493.383	4767.84
493.587	4925.54
493.79	5023.84
493.994	4659.3
494.197	5042.27
494.401	5064.8
494.605	4958.3
494.808	4948.06
495.012	5283.93
495.215	5316.7
495.419	5396.57
495.622	5189.72
495.825	5380.18
496.029	5458.01
496.232	5668.95
496.436	5474.39
496.639	5781.59
496.843	5548.12
497.046	5578.84
497.249	5855.31
497.453	5959.76
497.656	5789.78
497.859	5902.42
498.063	6056.01
498.266	6361.16
498.469	5873.75
498.673	6096.97
498.876	6303.82
499.079	6459.46
499.282	6549.57
499.485	6557.77
499.689	6606.92
499.892	6930.5
500.095	6594.63
500.298	7030.85
500.501	6840.39
500.705	6985.79
500.908	7245.88
501.111	7012.42
501.314	7434.3
501.517	7458.87
501.72	7530.55
501.923	7188.54
502.126	7419.96
502.329	7821.36
502.532	7735.35
502.735	7878.71
502.938	8167.47
503.141	8140.85
503.344	8298.54
503.547	8190
503.75	8298.54
503.953	8472.62
504.156	8783.91
504.359	8747.05
504.562	8804.39
504.765	9089.06
504.968	9103.39
505.17	9281.57
505.373	9066.53
505.576	9416.73
505.779	9551.9
505.982	9658.39
506.185	9607.19
506.387	9910.29
506.59	10078.22
506.793	10233.87
506.996	10100.75
507.198	10805.25
507.401	10889.22
507.604	10694.66
507.807	10942.47
508.009	11233.28
508.212	11298.81
508.415	11030.53
508.617	11038.72
508.82	11704.31
509.022	11530.23
509.225	11671.54
509.428	11841.53
509.63	12150.77
509.833	12171.25
510.035	12623.85
510.238	12556.27
510.44	12701.67
510.643	13023.2
510.845	12926.95
511.048	12754.92
511.25	13053.92
511.453	13105.12
511.655	13881.3
511.858	13717.47
512.06	14036.95
512.262	14141.39
512.465	13852.63
512.667	14391.25
512.87	14436.3
513.072	14882.76
513.274	14993.35
513.477	14929.86
513.679	15306.69
513.881	15507.39
514.084	15660.99
514.286	15814.59
514.488	16021.43
514.69	16314.29
514.893	16273.33
515.095	16132.02
515.297	16846.76
515.499	16752.56
515.701	16969.64
515.904	17160.1
516.106	17416.1
516.308	17842.07
516.51	17870.75
516.712	18110.36
516.914	18042.78
517.116	18519.95
517.318	18546.58
517.52	18808.72
517.722	18966.41
517.925	19304.32
518.127	19005.32
518.329	19793.79
518.531	19492.74
518.733	20117.37
518.935	20170.61
519.136	20402.04
519.338	20553.59
519.54	20903.79
519.742	20838.25
519.944	21303.14
520.146	21544.8
520.348	21651.3
520.55	21782.37
520.752	21905.24
520.954	22378.33
521.155	22376.28
521.357	22607.7
521.559	22775.63
521.761	23408.45
521.963	23312.2
522.164	23828.29
522.366	23410.5
522.568	24178.49
522.77	24069.95
522.971	24504.12
523.173	24338.23
523.375	24743.73
523.576	24651.57
523.778	24995.63
523.98	24899.37
524.181	25382.7
524.383	25442.09
524.584	25511.72
524.786	25556.77
524.988	25669.41
525.189	26269.47
525.391	26406.68
525.592	26378.01
525.794	26191.64
525.995	26795.79
526.197	26629.91
526.398	26591
526.6	27088.65
526.801	27221.77
527.003	27352.84
527.204	27070.22
527.406	27995.9
527.607	27619.08
527.808	28026.62
528.01	27610.89
528.211	27932.42
528.412	28448.5
528.614	28290.81
528.815	28227.32
529.016	28829.43
529.218	28069.63
529.419	28753.65
529.62	28532.47
529.822	28976.88
530.023	28985.07
530.224	28827.38
530.425	29118.19
530.626	28927.73
530.828	28815.09
531.029	29239.02
531.23	29157.1
531.431	28956.4
531.632	29443.82
531.833	29314.8
532.035	29339.37
532.236	29581.03
532.437	29980.39
532.638	29157.1
532.839	29488.87
533.04	29714.15
533.241	29818.6
533.442	29976.29
533.643	29814.5
533.844	29628.13
534.045	29964
534.246	29312.75
534.447	29818.6
534.648	29560.55
534.849	30330.59
535.05	29875.94
535.251	29898.47
535.451	29875.94
535.652	29943.52
535.853	30199.52
536.054	30488.28
536.255	30150.37
536.456	30093.02
536.657	30396.12
536.857	29908.71
537.058	30301.92
537.259	30062.3
537.46	30260.96
537.66	29994.72
537.861	30367.45
538.062	30197.47
538.263	30047.97
538.463	30338.78
538.664	30189.28
538.865	30381.79
539.065	30510.81
539.266	30312.16
539.466	30498.52
539.667	30090.98
539.868	30734.04
540.068	30406.36
540.269	30420.7
540.469	30912.21
540.67	29667.05
540.87	30543.58
541.071	30365.4
541.271	30621.4
541.472	30527.19
541.672	30744.28
541.873	30715.61
542.073	30078.69
542.274	30695.13
542.474	30445.27
542.675	30379.74
542.875	30682.84
543.075	30475.99
543.276	30404.31
543.476	30670.55
543.676	31022.8
543.877	30459.61
544.077	30807.76
544.277	30826.2
544.478	30674.65
544.678	30809.81
544.878	30820.05
545.078	30924.5
545.279	30408.41
545.479	30744.28
545.679	31074
545.879	30779.09
546.079	31123.15
546.28	30645.98
546.48	30680.79
546.68	31207.12
546.88	31518.41
547.08	31166.16
547.28	30738.13
547.48	30873.3
547.68	30944.98
547.88	30781.14
548.081	31336.14
548.281	30852.82
548.481	30799.57
548.681	31137.49
548.881	31016.66
549.081	31188.69
549.28	30750.42
549.48	31096.53
549.68	31137.49
549.88	31692.49
550.08	30711.51
550.28	31037.14
550.48	31260.37
550.68	31968.96
550.88	31149.78
551.08	31342.28
551.279	31383.24
551.479	30766.81
551.679	31149.78
551.879	31145.68
552.079	31545.03
552.278	31317.71
552.478	31239.89
552.678	31143.63
552.878	31624.9
553.077	31084.24
553.277	30936.79
553.477	31635.14
553.676	31303.37
553.876	31405.77
554.076	31231.69
554.275	31121.1
554.475	30826.2
554.674	31553.23
554.874	31669.96
555.074	31129.3
555.273	31499.98
555.473	31631.05
555.672	30740.18
555.872	31223.5
556.071	31332.04
556.271	31776.45
556.47	31555.27
556.67	30924.5
556.869	30871.25
557.068	31227.6
557.268	30977.75
557.467	31139.54
557.667	31174.35
557.866	31074
558.065	30889.68
558.265	30901.97
558.464	30801.62
558.663	31227.6
558.863	30793.43
559.062	30795.48
559.261	30615.26
559.461	31239.89
559.66	30488.28
559.859	30473.95
560.058	30365.4
560.258	30369.5
560.457	30746.33
560.656	30600.92
560.855	30301.92
561.054	30590.68
561.253	30729.94
561.453	30494.43
561.652	30416.6
561.851	30936.79
562.05	30494.43
562.249	29964
562.448	30486.23
562.647	30103.26
562.846	30058.21
563.045	30432.99
563.244	29726.44
563.443	30131.93
563.642	29824.74
563.841	30039.78
564.04	29511.4
564.239	30041.82
564.438	29748.96
564.637	29474.54
564.836	29615.85
565.035	29398.76
565.234	29478.63
565.432	29443.82
565.631	29370.09
565.83	29390.57
566.029	29222.64
566.228	29105.9
566.427	29370.09
566.625	28606.2
566.824	28335.87
567.023	28745.46
567.222	28329.72
567.42	28989.17
567.619	28544.76
567.818	28786.42
568.016	28534.52
568.215	28587.77
568.414	28276.48
568.612	28456.7
568.811	28043.01
569.01	28040.96
569.208	27989.76
569.407	28192.51
569.605	27739.91
569.804	27965.18
570.002	27500.3
570.201	27569.93
570.4	27588.36
570.598	27197.2
570.797	27356.94
570.995	27260.68
571.193	26832.66
571.392	27406.09
571.59	27037.45
571.789	26887.95
571.987	27102.99
572.186	27283.21
572.384	26832.66
572.582	26658.58
572.781	26674.96
572.979	25933.6
573.177	26511.13
573.376	26486.55
573.574	25929.5
573.772	26550.04
573.971	25784.1
574.169	25691.94
574.367	25575.2
574.565	26128.16
574.763	25530.15
574.962	25444.13
575.16	25421.61
575.358	25620.26
575.556	25386.79
575.754	25274.15
575.952	24952.62
576.151	25585.44
576.349	25225
576.547	24803.12
576.745	25126.7
576.943	24979.25
577.141	24805.17
577.339	24729.39
577.537	24362.81
577.735	24944.43
577.933	24620.85
578.131	24272.7
578.329	24461.11
578.527	24065.85
578.725	24495.92
578.923	24344.38
579.121	23932.73
579.319	24354.62
579.516	24338.23
579.714	24373.05
579.912	23879.49
580.11	23840.57
580.308	24041.28
580.506	23736.13
580.704	23125.83
580.901	23764.8
581.099	23973.69
581.297	23261
581.495	23254.86
581.692	23744.32
581.89	23590.72
582.088	23654.21
582.285	23156.55
582.483	23621.44
582.681	23441.22
582.878	23316.29
583.076	22749.01
583.274	23224.14
583.471	23277.38
583.669	23263.05
583.866	22576.98
584.064	23185.22
584.262	22318.93
584.459	22708.05
584.657	22493.01
584.854	23193.42
585.052	22835.02
585.249	22607.7
585.447	22519.64
585.644	22392.66
585.841	22822.73
586.039	22509.4
586.236	22075.23
586.434	22482.77
586.631	22110.04
586.828	21989.21
587.026	22126.43
587.223	22382.42
587.42	21831.52
587.618	22196.06
587.815	21903.2
588.012	22267.73
588.21	21862.24
588.407	22112.09
588.604	21827.42
588.801	21706.59
588.999	21802.85
589.196	21739.36
589.393	21481.31
589.59	21600.1
589.787	21653.34
589.984	21888.86
590.182	21440.36
590.379	22040.41
590.576	21233.51
590.773	21571.43
590.97	21372.77
591.167	21677.92
591.364	21524.32
591.561	21542.75
591.758	21192.55
591.955	21520.23
592.152	21634.91
592.349	21186.41
592.546	21397.35
592.743	21184.36
592.94	21204.84
593.137	21452.64
593.334	21573.47
593.531	21305.19
593.727	21170.02
593.924	21090.15
594.121	21073.77
594.318	21301.09
594.515	20811.63
594.712	21178.22
594.908	20965.23
595.105	20760.43
595.302	20934.51
595.499	20868.97
595.696	21069.67
595.892	20914.03
596.089	21393.25
596.286	21153.64
596.482	21016.43
596.679	20967.27
596.876	20907.88
597.072	20846.44
597.269	20864.88
597.466	20778.86
597.662	20655.98
597.859	21077.87
598.055	20819.82
598.252	20813.68
598.448	20787.05
598.645	20993.9
598.841	20604.78
599.038	20905.84
599.234	20989.8
599.431	20674.42
599.627	20565.87
599.824	20694.89
600.02	20664.18
600.217	20682.61
600.413	20569.97
600.609	20774.77
600.806	21114.73
601.002	20924.27
601.198	20287.35
601.395	21010.28
601.591	20778.86
601.787	20524.91
601.984	20481.91
602.18	20754.29
602.376	20285.3
602.572	20651.89
602.769	20565.87
602.965	20524.91
603.161	20664.18
603.357	20348.79
603.553	20631.41
603.75	20600.69
603.946	20680.56
604.142	20461.43
604.338	20363.12
604.534	20473.71
604.73	20301.68
604.926	20305.78
605.122	20576.11
605.318	20088.7
605.514	20324.21
605.71	20137.85
605.906	20098.94
606.102	20344.69
606.298	20600.69
606.494	20391.8
606.69	20303.73
606.886	20275.06
607.082	20348.79
607.278	20043.64
607.474	20121.46
607.67	20406.13
607.866	19869.56
608.062	20494.19
608.257	20199.29
608.453	20045.69
608.649	20361.08
608.845	19971.96
609.041	19949.43
609.236	19963.77
609.432	20281.21
609.628	20354.93
609.824	20051.83
610.019	20025.21
610.215	19924.86
610.411	20086.65
610.606	19943.29
610.802	20057.98
610.998	19996.54
611.193	20172.66
611.389	19812.22
611.584	20127.61
611.78	19918.71
611.976	19808.12
612.171	20066.17
612.367	19937.15
612.562	19863.42
612.758	19636.1
612.953	19601.28
613.149	19650.43
613.344	19849.08
613.539	19783.55
613.735	19572.61
613.93	20031.35
614.126	19777.4
614.321	19867.52
614.517	19914.62
614.712	20039.54
614.907	19451.78
615.103	19724.16
615.298	19478.4
615.493	19922.81
615.688	19582.85
615.884	20029.31
616.079	19335.04
616.274	19832.7
616.47	19634.05
616.665	19433.35
616.86	19416.96
617.055	19591.04
617.25	19249.03
617.445	19410.82
617.641	19283.84
617.836	19672.96
618.031	19179.4
618.226	19609.47
618.421	19322.76
618.616	19447.68
618.811	19271.56
619.006	19494.79
619.201	19023.75
619.396	19234.69
619.591	18804.62
619.786	19142.53
619.981	18423.7
620.176	19333
620.371	18890.63
620.566	18698.13
620.761	19015.56
620.956	19238.79
621.151	18870.15
621.346	18894.73
621.541	18339.73
621.735	18861.96
621.93	18487.18
622.125	18552.72
622.32	18329.49
622.515	18433.94
622.709	18352.02
622.904	18519.95
623.099	18311.06
623.294	18642.83
623.488	18386.83
623.683	18081.69
623.878	17903.51
624.072	18214.8
624.267	17868.7
624.462	17723.29
624.656	17723.29
624.851	18270.1
625.046	17749.92
625.24	17805.21
625.435	17717.15
625.629	17778.59
625.824	17657.76
626.018	17663.9
626.213	17119.14
626.407	17495.97
626.602	17358.75
626.796	17229.73
626.991	17393.57
627.185	17358.75
627.38	17323.94
627.574	17133.48
627.768	16803.75
627.963	17121.19
628.157	16975.78
628.352	16969.64
628.546	16521.13
628.74	17104.81
628.935	16658.35
629.129	16801.71
629.323	16842.67
629.517	16447.41
629.712	16740.27
629.906	16598.96
630.1	16601.01
630.294	16885.67
630.489	16682.92
630.683	16232.37
630.877	16191.41
631.071	16721.84
631.265	16189.36
631.459	16351.15
631.653	16134.07
631.848	16416.69
632.042	16279.47
632.236	16039.86
632.43	15790.01
632.624	16043.96
632.818	15742.91
633.012	15523.77
633.206	15763.39
633.4	15769.53
633.594	15919.03
633.788	15452.09
633.982	15560.64
634.176	15613.88
634.369	15308.74
634.563	15296.45
634.757	15069.12
634.951	15505.34
635.145	15642.56
635.339	15157.19
635.533	14925.77
635.726	15151.04
635.92	14804.94
636.114	14534.6
636.308	14690.25
636.501	14563.28
636.695	14606.28
636.889	14438.35
637.083	14325.71
637.276	14182.35
637.47	13893.59
637.664	14030.8
637.857	13959.13
638.051	13998.04
638.244	14073.81
638.438	13758.42
638.632	13737.95
638.825	13406.17
639.019	13780.95
639.212	13477.85
639.406	13322.21
639.599	13062.12
639.793	13230.05
639.986	12754.92
640.18	13113.31
640.373	12826.6
640.567	12636.14
640.76	12744.68
640.954	12543.98
641.147	12247.02
641.34	12431.34
641.534	12296.18
641.727	12224.5
641.92	12419.05
642.114	11847.67
642.307	11718.65
642.5	11448.32
642.694	11644.92
642.887	11581.43
643.08	11505.66
643.273	11169.79
643.467	11112.45
643.66	11188.22
643.853	11075.59
644.046	10727.43
644.239	10930.18
644.432	10594.31
644.626	10571.79
644.819	10483.72
645.012	10432.52
645.205	10561.55
645.398	10377.23
645.591	10291.21
645.784	10184.72
645.977	9889.81
646.17	10231.82
646.363	9775.13
646.556	9752.6
646.749	9672.73
646.942	9588.76
647.135	9367.58
647.328	9459.74
647.521	9510.94
647.714	9285.66
647.907	9238.56
648.099	9074.72
648.292	9287.71
648.485	9109.54
648.678	8693.8
648.871	8943.65
649.064	8736.81
649.256	8730.66
649.449	8728.61
649.642	8470.57
649.835	8364.08
650.027	8337.45
650.22	8466.47
650.413	8396.84
650.605	8398.89
650.798	8316.97
650.991	8007.73
651.183	8159.28
651.376	8239.15
651.568	8208.43
651.761	7721.01
651.954	8024.11
652.146	7860.27
652.339	7856.18
652.531	7919.67
652.724	7821.36
652.916	7602.23
653.109	7401.53
653.301	7696.44
653.494	7854.13
653.686	7583.8
653.879	7598.13
654.071	7524.41
654.263	7182.4
654.456	7481.4
654.648	7338.04
654.84	7213.12
655.033	7030.85
655.225	7446.59
655.417	6787.14
655.61	7141.44
655.802	7262.27
655.994	7260.22
656.186	6969.41
656.379	6811.71
656.571	6701.12
656.763	6801.47
656.955	6697.03
657.148	6598.73
657.34	6973.5
657.532	6459.46
657.724	6301.77
657.916	6590.53
658.108	6649.93
658.3	6590.53
658.492	6711.36
658.684	6060.11
658.876	6527.05
659.068	6291.53
659.26	6197.32
659.452	6090.83
659.644	6174.8
659.836	6436.94
660.028	5910.61
660.22	5920.85
660.412	5834.83
660.604	5961.81
660.796	5640.28
660.988	5677.14
661.18	5697.62
661.372	5623.89
661.563	5263.45
661.755	5328.99
661.947	5359.7
662.139	5478.49
662.331	5171.29
662.522	5089.37
662.714	5122.14
662.906	5003.36
663.097	4853.86
663.289	4806.75
663.481	4855.9
663.673	4896.86
663.864	4710.5
664.056	4737.12
664.247	4712.55
664.439	4677.73
664.631	4556.9
664.822	4331.62
665.014	4579.43
665.205	4399.21
665.397	4208.75
665.588	4231.27
665.78	4323.43
665.971	4370.54
666.163	4008.05
666.354	3940.46
666.546	4024.43
666.737	3979.37
666.929	3903.6
667.12	3893.36
667.311	3944.56
667.503	3774.58
667.694	3995.76
667.885	3571.83
668.077	3854.45
668.268	3518.58
668.459	3465.33
668.651	3514.49
668.842	3674.23
669.033	3463.29
669.224	3223.67
669.416	3614.84
669.607	3373.18
669.798	3305.59
669.989	3332.22
670.18	3106.94
670.371	3367.03
670.563	3104.89
670.754	3250.3
670.945	3215.48
671.136	3295.35
671.327	3125.37
671.518	3096.7
671.709	3133.56
671.9	3244.15
672.091	3336.31
672.282	2963.58
672.473	3002.49
672.664	2947.2
672.855	2996.35
673.046	2896
673.237	2963.58
673.428	2986.11
673.619	3059.84
673.809	2732.16
674	2814.08
674.191	3000.44
674.382	2898.05
674.573	2801.79
674.764	2840.7
674.954	2943.1
675.145	2771.07
675.336	2738.3
675.527	2861.18
675.717	2844.8
675.908	2750.59
676.099	2766.98
676.289	2746.5
676.48	2683.01
676.671	2769.02
676.861	2687.11
677.052	2752.64
677.243	2912.38
677.433	2658.43
677.624	2615.43
677.814	2635.91
678.005	2799.74
678.195	2760.83
678.386	2586.76
678.576	2646.15
678.767	2842.75
678.957	2781.31
679.148	2799.74
679.338	2691.2
679.529	2967.68
679.719	2832.51
679.909	2820.22
680.1	2656.39
680.29	2934.91
680.481	2750.59
680.671	2904.19
680.861	2693.25
681.052	2912.38
681.242	2756.74
681.432	2896
681.622	2709.63
681.813	2793.6
682.003	2961.53
682.193	2863.23
682.383	2850.94
682.573	2990.21
682.764	3149.95
682.954	3029.12
683.144	3227.77
683.334	3242.11
683.524	3186.81
683.714	3133.56
683.904	3154.04
684.094	3295.35
684.284	3434.61
684.474	3395.7
684.664	3446.9
684.854	3461.24
685.044	3526.77
685.234	3395.7
685.424	3403.89
685.614	3653.75
685.804	3870.83
685.994	3715.19
686.184	3645.56
686.374	4081.77
686.564	3883.12
686.753	4010.09
686.943	3831.92
687.133	4030.57
687.323	4218.99
687.513	4122.73
687.702	4092.01
687.892	4276.33
688.082	4401.26
688.272	4364.39
688.461	4485.22
688.651	4773.99
688.841	4743.27
689.03	4663.4
689.22	4747.36
689.41	5017.69
689.599	5081.18
689.789	4827.23
689.979	5001.31
690.168	5208.16
690.358	5445.72
690.547	5146.72
690.737	5374.04
690.926	5384.28
691.116	5685.33
691.305	5550.17
691.495	5634.13
691.684	5462.1
691.874	5834.83
692.063	5820.5
692.252	5867.6
692.442	6205.52
692.631	5959.76
692.82	5967.95
693.01	6256.72
693.199	6344.78
693.388	6432.84
693.578	6240.33
693.767	6563.91
693.956	6852.67
694.146	6713.41
694.335	6703.17
694.524	6770.76
694.713	7135.29
694.902	6930.5
695.092	6877.25
695.281	6758.47
695.47	7178.3
695.659	7059.52
695.848	7024.7
696.037	7192.64
696.226	7391.29
696.415	7364.67
696.604	7491.64
696.793	7405.63
696.982	7596.09
697.171	7882.8
697.36	7440.44
697.549	7514.17
697.738	7716.92
697.927	7673.91
698.116	7698.49
698.305	7919.67
698.494	8048.69
698.683	7678.01
698.872	7927.86
699.061	7698.49
699.25	8095.79
699.438	8093.74
699.627	8024.11
699.816	8155.18
700.005	8108.08
700.193	8171.57
700.382	8386.6
700.571	8226.86
700.76	8392.75
700.948	8278.06
701.137	8169.52
701.326	8321.07
701.514	8278.06
701.703	8589.35
701.892	8190
702.08	8351.79
702.269	8507.43
702.457	8521.77
702.646	8448.04
702.834	8177.71
703.023	8472.62
703.212	8763.43
703.4	8370.22
703.589	8368.17
703.777	8714.28
703.965	8556.58
704.154	8276.01
704.342	8376.36
704.531	8691.75
704.719	8550.44
704.907	8529.96
705.096	8233.01
705.284	8304.68
705.472	8513.58
705.661	8550.44
705.849	8484.91
706.037	8843.3
706.226	8523.82
706.414	8581.16
706.602	8437.8
706.79	8716.33
706.979	8458.28
707.167	8515.62
707.355	8314.92
707.543	8693.8
707.731	8661.03
707.919	8538.15
708.107	8261.68
708.296	8329.26
708.484	8337.45
708.672	8402.99
708.86	8204.33
709.048	8511.53
709.236	8298.54
709.424	8386.6
709.612	8388.65
709.8	8314.92
709.988	8532.01
710.176	8265.77
710.364	8282.16
710.551	8159.28
710.739	8454.19
710.927	8212.53
711.115	8245.29
711.303	8550.44
711.491	8353.84
711.679	8216.62
711.866	8042.54
712.054	8130.61
712.242	8269.87
712.43	8230.96
712.617	8263.72
712.805	8402.99
712.993	8142.89
713.181	7960.63
713.368	7956.53
713.556	8251.44
713.744	7847.99
713.931	7923.76
714.119	7766.07
714.306	8114.22
714.494	7999.54
714.682	7866.42
714.869	7514.17
715.057	8011.82
715.244	7469.11
715.432	7823.41
715.619	7608.37
715.807	7823.41
715.994	7585.85
716.182	7899.19
716.369	7649.33
716.556	7721.01
716.744	7589.94
716.931	7585.85
717.119	7661.62
717.306	7553.08
717.493	7659.57
717.681	7424.06
717.868	7387.19
718.055	7630.9
718.242	7516.22
718.43	7415.87
718.617	7274.56
718.804	7405.63
718.991	7409.72
719.179	7264.32
719.366	7118.91
719.553	7356.47
719.74	7108.67
719.927	7123.01
720.114	7096.38
720.301	6854.72
720.488	6957.12
720.676	6733.89
720.863	7198.78
721.05	7346.23
721.237	7008.32
721.424	7090.24
721.611	6760.52
721.798	6717.51
721.985	6867.01
722.172	6858.82
722.358	6647.88
722.545	6920.26
722.732	6893.63
722.919	6854.72
723.106	6596.68
723.293	6733.89
723.48	6678.6
723.667	6389.83
723.853	6547.53
724.04	6824
724.227	6617.16
724.414	6512.71
724.6	6402.12
724.787	6615.11
724.974	6766.66
725.161	6576.2
725.347	6197.32
725.534	6305.87
725.72	6463.56
725.907	6221.9
726.094	6322.25
726.28	6266.96
726.467	6144.08
726.653	6002.77
726.84	6168.65
727.027	6346.83
727.213	6260.81
727.4	6228.04
727.586	6199.37
727.773	6119.5
727.959	6164.56
728.145	5949.52
728.332	5931.09
728.518	5970
728.705	6101.07
728.891	5816.4
729.077	5849.17
729.264	5759.06
729.45	5838.93
729.636	5705.81
729.823	5746.77
730.009	5996.62
730.195	5867.6
730.382	5859.41
730.568	5666.9
730.754	5818.45
730.94	5593.17
731.126	5683.28
731.313	5671
731.499	5726.29
731.685	5714
731.871	5451.86
732.057	5535.83
732.243	5632.08
732.429	5632.08
732.615	5539.93
732.801	5396.57
732.987	5580.89
733.173	5388.38
733.359	5406.81
733.545	5328.99
733.731	5300.31
733.917	5582.93
734.103	5443.67
734.289	5314.65
734.475	5271.64
734.661	5589.08
734.847	5189.72
735.033	5169.24
735.219	5337.18
735.404	5202.01
735.59	5122.14
735.776	5128.28
735.962	5263.45
736.148	5306.46
736.333	5144.67
736.519	5048.41
736.705	5265.5
736.89	5077.09
737.076	4972.64
737.262	4806.75
737.447	4814.95
737.633	4911.2
737.819	5009.5
738.004	4806.75
738.19	4821.09
738.375	4968.54
738.561	4855.9
738.747	4683.88
738.932	4755.55
739.118	4905.06
739.303	4747.36
739.489	4687.97
739.674	4749.41
739.859	4585.57
740.045	4665.44
740.23	4640.87
740.416	4358.25
740.601	4806.75
740.786	4462.69
740.972	4354.15
741.157	4528.23
741.342	4337.77
741.528	4415.59
741.713	4483.17
741.898	4434.02
742.084	4468.84
742.269	4436.07
742.454	4302.95
742.639	4501.61
742.824	4339.82
743.01	4362.34
743.195	4423.78
743.38	4321.38
743.565	4372.58
743.75	4098.16
743.935	4214.89
744.12	4454.5
744.305	4022.38
744.49	4114.54
744.675	4010.09
744.86	4229.23
745.045	4210.79
745.23	3958.89
745.415	3885.17
745.6	4296.81
745.785	3936.37
745.97	4073.58
746.155	3821.68
746.34	4251.75
746.525	4008.05
746.71	3958.89
746.895	3696.75
747.079	3727.47
747.264	3666.03
747.449	3829.87
747.634	3733.62
747.819	3836.02
748.003	3803.25
748.188	3620.98
748.373	3750
748.557	3706.99
748.742	3680.37
748.927	3592.31
749.111	3512.44
749.296	3631.22
749.481	3584.12
749.665	3534.96
749.85	3373.18
750.034	3604.6
750.219	3491.96
750.404	3256.44
750.588	3240.06
750.773	3338.36
750.957	3364.98
751.141	3133.56
751.326	3309.69
751.51	3172.47
751.695	3209.34
751.879	3321.98
752.064	3362.94
752.248	3332.22
752.432	3446.9
752.617	3020.92
752.801	3223.67
752.985	3137.66
753.17	3278.97
753.354	3043.45
753.538	3059.84
753.722	2891.9
753.907	2949.25
754.091	3108.99
754.275	2922.62
754.459	2920.57
754.643	2910.33
754.828	2818.18
755.012	2908.29
755.196	2824.32
755.38	3012.73
755.564	2766.98
755.748	2748.54
755.932	3020.92
756.116	2869.37
756.3	2812.03
756.484	2529.41
756.668	2932.86
756.852	2648.19
757.036	2633.86
757.22	2662.53
757.404	2680.96
757.588	2568.32
757.772	2615.43
757.956	2597
758.14	2793.6
758.323	2486.4
758.507	2474.12
758.691	2500.74
758.875	2678.91
759.059	2764.93
759.242	2244.74
759.426	2478.21
759.61	2480.26
759.794	2312.33
759.977	2240.65
760.161	2551.94
760.345	2371.72
760.528	2424.97
760.712	2111.63
760.895	2209.93
761.079	2103.43
761.263	1923.21
761.446	1857.68
761.63	1882.25
761.813	2230.41
761.997	1882.25
762.18	1937.55
762.364	2003.08
762.547	1724.56
762.731	2007.18
762.914	1960.08
763.098	1839.25
763.281	1863.82
763.464	1953.93
763.648	1808.53
763.831	1753.23
764.015	1810.58
764.198	2085
764.381	1835.15
764.564	1779.86
764.748	2134.15
764.931	2101.39
765.114	1851.53
765.297	1996.94
765.481	1888.4
765.664	2009.23
765.847	1663.12
766.03	1962.12
766.213	1958.03
766.397	2128.01
766.58	1820.81
766.763	1927.31
766.946	1931.41
767.129	1986.7
767.312	1951.88
767.495	1882.25
767.678	1953.93
767.861	2062.48
768.044	1755.28
768.227	1994.89
768.41	1996.94
768.593	2003.08
768.776	2033.8
768.959	1884.3
769.142	2275.46
769.324	1865.87
769.507	1894.54
769.69	1898.64
769.873	2044.04
770.056	2375.81
770.239	1857.68
770.421	2078.86
770.604	2187.4
770.787	1976.46
770.97	1869.97
771.152	1925.26
771.335	2052.24
771.518	1898.64
771.7	1859.73
771.883	2042
772.066	1960.08
772.248	1996.94
772.431	1953.93
772.613	1804.43
772.796	1886.35
772.978	2070.67
773.161	1962.12
773.343	1757.33
773.526	1847.44
773.708	1804.43
773.891	1618.07
774.073	1738.9
774.256	1728.66
774.438	2029.71
774.621	1636.5
774.803	1896.59
774.985	1749.14
775.168	1857.68
775.35	1742.99
775.532	1773.71
775.715	1745.04
775.897	1853.58
776.079	1718.42
776.261	1763.47
776.444	1839.25
776.626	1742.99
776.808	1667.22
776.99	1489.04
777.173	1695.89
777.355	1663.12
777.537	1599.63
777.719	1597.59
777.901	1691.79
778.083	1534.1
778.265	1489.04
778.447	1646.74
778.629	1593.49
778.811	1628.31
778.993	1566.87
779.175	1609.87
779.357	1589.39
779.539	1491.09
779.721	1605.78
779.903	1554.58
780.085	1507.48
780.267	1521.81
780.449	1405.08
780.631	1468.56
780.812	1712.27
780.994	1433.75
781.176	1390.74
781.358	1349.78
781.54	1538.2
781.721	1675.41
781.903	1302.68
782.085	1357.97
782.267	1536.15
782.448	1298.58
782.63	1306.77
782.812	1312.92
782.993	1437.84
783.175	1476.76
783.357	1235.1
783.538	1380.5
783.72	1280.15
783.901	1437.84
784.083	1341.59
784.264	1274.01
784.446	1239.19
784.627	1222.81
784.809	1376.41
784.99	1163.42
785.172	1386.65
785.353	1292.44
785.535	1171.61
785.716	1052.83
785.897	1202.33
786.079	1206.42
786.26	1224.86
786.441	1298.58
786.623	962.72
786.804	1116.31
786.985	1118.36
787.167	1112.22
787.348	1218.71
787.529	1167.51
787.71	1159.32
787.891	1085.59
788.073	1110.17
788.254	915.61
788.435	1243.29
788.616	1040.54
788.797	1048.73
788.978	1061.02
789.159	940.19
789.34	1108.12
789.522	995.48
789.703	927.9
789.884	972.96
790.065	1093.79
790.246	1235.1
790.427	915.61
790.607	1030.3
790.788	983.2
790.969	954.52
791.15	1050.78
791.331	942.24
791.512	897.18
791.693	843.93
791.874	946.33
792.054	1126.55
792.235	960.67
792.416	852.13
792.597	841.89
792.778	950.43
792.958	790.69
793.139	1013.92
793.32	915.61
793.5	839.84
793.681	962.72
793.862	1032.35
794.042	907.42
794.223	643.23
794.404	741.54
794.584	776.35
794.765	897.18
794.945	852.13
795.126	921.76
795.306	888.99
795.487	897.18
795.667	721.06
795.848	661.66
796.028	952.48
796.209	872.61
796.389	938.14
796.57	866.46
796.75	749.73
796.93	897.18
797.111	733.34
797.291	790.69
797.471	837.79
797.652	792.73
797.832	692.38
798.012	870.56
798.192	727.2
798.373	680.1
798.553	669.86
798.733	864.41
798.913	604.32
799.093	819.36
799.274	776.35
799.454	714.91
799.634	856.22
799.814	893.09
799.994	716.96
800.174	776.35
800.354	854.17
800.534	473.25
800.714	755.87
800.894	512.16
801.074	571.55
801.254	589.99
801.434	784.54
801.614	536.74
801.794	614.56
801.974	4946.02
802.154	614.56
802.334	786.59
802.514	618.66
802.693	667.81
802.873	520.35
803.053	835.74
803.233	682.14
803.413	696.48
803.592	503.97
803.772	542.88
803.952	694.43
804.131	555.17
804.311	690.34
804.491	686.24
804.67	520.35
804.85	561.31
805.03	630.95
805.209	749.73
805.389	635.04
805.568	594.08
805.748	585.89
805.928	567.46
806.107	759.97
806.287	712.86
806.466	635.04
806.646	540.83
806.825	643.23
807.004	665.76
807.184	618.66
807.363	641.18
807.543	723.1
807.722	538.79
807.901	659.62
808.081	479.4
808.26	350.37
808.439	600.23
808.619	475.3
808.798	456.87
808.977	667.81
809.156	759.97
809.336	546.98
809.515	557.22
809.694	514.21
809.873	522.4
810.052	389.28
810.231	604.32
810.411	669.86
810.59	671.9
810.769	454.82
810.948	622.75
811.127	344.23
811.306	463.01
811.485	438.44
811.664	643.23
811.843	561.31
812.022	516.26
812.201	411.81
812.38	463.01
812.559	471.2
812.737	596.13
812.916	346.28
813.095	422.05
813.274	579.75
813.453	589.99
813.632	463.01
813.811	493.73
813.989	340.13
814.168	422.05
814.347	333.99
814.526	405.67
814.704	612.51
814.883	622.75
815.062	295.08
815.24	446.63
815.419	299.17
815.598	563.36
815.776	233.64
815.955	325.8
816.133	219.3
816.312	483.49
816.49	346.28
816.669	438.44
816.847	405.67
817.026	489.64
817.204	364.71
817.383	407.72
817.561	387.24
817.74	434.34
817.918	323.75
818.097	336.04
818.275	338.09
818.453	495.78
818.632	411.81
818.81	274.6
818.988	411.81
819.167	385.19
819.345	325.8
819.523	301.22
819.701	471.2
819.879	487.59
820.058	381.09
820.236	340.13
820.414	481.44
820.592	280.74
820.77	319.65
820.948	209.06
821.127	391.33
821.305	528.55
821.483	164.01
821.661	389.28
821.839	450.72
822.017	239.78
822.195	313.51
822.373	379.04
822.551	401.57
822.729	399.52
822.907	305.32
823.085	350.37
823.262	452.77
823.44	266.41
823.618	391.33
823.796	290.98
823.974	393.38
824.152	247.97
824.329	319.65
824.507	368.81
824.685	452.77
824.863	340.13
825.04	250.02
825.218	323.75
825.396	411.81
825.574	393.38
825.751	358.57
825.929	254.12
826.107	235.69
826.284	428.2
826.462	284.84
826.639	194.73
826.817	262.31
826.994	454.82
827.172	235.69
827.349	336.04
827.527	364.71
827.704	352.42
827.882	487.59
828.059	221.35
828.237	301.22
828.414	446.63
828.591	129.19
828.769	290.98
828.946	153.77
829.124	356.52
829.301	383.14
829.478	196.78
829.655	323.75
829.833	295.08
830.01	49.32
830.187	413.86
830.364	383.14
830.542	315.56
830.719	260.26
830.896	381.09
831.073	391.33
831.25	372.9
831.427	221.35
831.604	202.92
831.782	196.78
831.959	364.71
832.136	221.35
832.313	372.9
832.49	247.97
832.667	346.28
832.844	145.58
833.021	413.86
833.198	360.61
833.374	360.61
833.551	229.54
833.728	161.96
833.905	493.73
834.082	37.03
834.259	325.8
834.436	303.27
834.612	151.72
834.789	440.48
834.966	327.85
835.143	235.69
835.319	180.39
835.496	401.57
835.673	231.59
835.85	309.41
836.026	456.87
836.203	485.54
836.38	151.72
836.556	178.34
836.733	204.97
836.909	589.99
837.086	211.11
837.262	106.67
837.439	272.55
837.616	278.69
837.792	190.63
837.968	215.21
838.145	186.54
838.321	311.46
838.498	180.39
838.674	264.36
838.851	407.72
839.027	202.92
839.203	225.45
839.38	293.03
839.556	143.53
839.732	383.14
839.909	219.3
840.085	141.48
840.261	241.83
840.437	307.37
840.614	180.39
840.79	301.22
840.966	403.62
841.142	356.52
841.318	307.37
841.494	231.59
841.671	434.34
841.847	127.14
842.023	88.23
842.199	237.74
842.375	510.11
842.551	84.14
842.727	116.9
842.903	254.12
843.079	137.38
843.255	454.82
843.431	223.4
843.607	348.33
843.783	6.31
843.959	313.51
844.134	55.47
844.31	385.19
844.486	118.95
844.662	166.06
844.838	239.78
845.013	217.26
845.189	407.72
845.365	303.27
845.541	207.02
845.716	293.03
845.892	399.52
846.068	194.73
846.244	233.64
846.419	172.2
846.595	247.97
846.77	116.9
846.946	290.98
847.122	145.58
847.297	239.78
847.473	635.04
847.648	98.47
847.824	186.54
847.999	32.94
848.175	276.65
848.35	309.41
848.526	336.04
848.701	383.14
848.876	395.43
849.052	305.32
849.227	176.3
849.403	194.73
849.578	286.89
849.753	155.82
849.929	125.1
850.104	94.38
850.279	272.55
850.454	213.16
850.63	159.91
850.805	260.26
850.98	241.83
851.155	174.25
851.33	293.03
851.505	139.43
851.681	366.76
851.856	139.43
852.031	258.21
852.206	245.93
852.381	151.72
852.556	94.38
852.731	106.67
852.906	336.04
853.081	247.97
853.256	299.17
853.431	139.43
853.606	121
853.781	90.28
853.956	14.51
854.131	127.14
854.305	180.39
854.48	164.01
854.655	102.57
854.83	65.71
855.005	243.88
855.18	331.94
855.354	184.49
855.529	127.14
855.704	55.47
855.879	227.5
856.053	14.51
856.228	155.82
856.403	80.04
856.577	233.64
856.752	77.99
856.926	110.76
857.101	307.37
857.276	53.42
857.45	303.27
857.625	282.79
857.799	194.73
857.974	194.73
858.148	-73.56
858.323	180.39
858.497	159.91
858.672	80.04
858.846	53.42
859.02	131.24
859.195	61.61
859.369	215.21
859.543	190.63
859.718	186.54
859.892	288.93
860.066	307.37
860.241	186.54
860.415	55.47
860.589	172.2
860.763	196.78
860.938	86.19
861.112	53.42
861.286	59.56
861.46	231.59
861.634	129.19
861.808	190.63
861.982	98.47
862.157	30.89
862.331	73.9
862.505	-51.03
862.679	90.28
862.853	118.95
863.027	110.76
863.201	174.25
863.375	102.57
863.549	293.03
863.722	209.06
863.896	145.58
864.07	133.29
864.244	180.39
864.418	225.45
864.592	133.29
864.766	202.92
864.939	223.4
865.113	14.51
865.287	313.51
865.461	26.79
865.634	170.15
865.808	129.19
865.982	94.38
866.156	172.2
866.329	12.46
866.503	221.35
866.676	182.44
866.85	274.6
867.024	94.38
867.197	268.45
867.371	30.89
867.544	227.5
867.718	-36.69
867.891	305.32
868.065	-96.08
868.238	217.26
868.412	280.74
868.585	77.99
868.759	112.81
868.932	88.23
869.105	43.18
869.279	194.73
869.452	26.79
869.625	333.99
869.799	96.43
869.972	32.94
870.145	14.51
870.319	366.76
870.492	100.52
870.665	61.61
870.838	55.47
871.011	-114.52
871.185	0.17
871.358	37.03
871.531	239.78
871.704	112.81
871.877	237.74
872.05	90.28
872.223	63.66
872.396	397.48
872.569	317.61
872.742	-38.74
872.915	186.54
873.088	82.09
873.261	69.8
873.434	227.5
873.607	37.03
873.78	374.95
873.953	-10.07
874.126	139.43
874.299	147.62
874.471	149.67
874.644	153.77
874.817	176.3
874.99	237.74
875.163	135.34
875.335	243.88
875.508	30.89
875.681	178.34
875.853	233.64
876.026	172.2
876.199	252.07
876.371	151.72
876.544	137.38
876.717	137.38
876.889	61.61
877.062	180.39
877.234	37.03
877.407	118.95
877.579	102.57
877.752	102.57
877.924	331.94
878.097	204.97
878.269	125.1
878.442	254.12
878.614	213.16
878.786	266.41
878.959	80.04
879.131	121
879.303	0.17
879.476	121
879.648	256.17
879.82	100.52
879.993	84.14
880.165	37.03
880.337	-18.26
880.509	153.77
880.681	4.27
880.854	125.1
881.026	153.77
881.198	145.58
881.37	149.67
881.542	143.53
881.714	77.99
881.886	39.08
882.058	157.86
882.23	254.12
882.402	123.05
882.574	209.06
882.746	342.18
882.918	256.17
883.09	196.78
883.262	51.37
883.434	200.87
883.606	-26.45
883.778	131.24
883.95	121
884.122	84.14
884.293	282.79
884.465	106.67
884.637	127.14
884.809	45.23
884.98	245.93
885.152	192.68
885.324	127.14
885.496	94.38
885.667	137.38
885.839	8.36
886.011	135.34
886.182	229.54
886.354	284.84
886.525	315.56
886.697	22.7
886.869	161.96
887.04	161.96
887.212	295.08
887.383	200.87
887.555	204.97
887.726	166.06
887.897	59.56
888.069	135.34
888.24	272.55
888.412	112.81
888.583	100.52
888.754	69.8
888.926	-77.65
889.097	30.89
889.268	-38.74
889.44	20.65
889.611	43.18
889.782	6.31
889.953	-106.32
890.125	164.01
890.296	-12.12
890.467	178.34
890.638	-1.88
890.809	110.76
890.98	2.22
891.151	235.69
891.323	243.88
891.494	6.31
891.665	172.2
891.836	86.19
892.007	190.63
892.178	166.06
892.349	200.87
892.52	41.13
892.691	94.38
892.862	57.51
893.032	-75.6
893.203	28.84
893.374	98.47
893.545	170.15
893.716	116.9
893.887	311.46
894.057	-34.64
894.228	71.85
894.399	114.86
894.57	336.04
894.74	30.89
894.911	141.48
895.082	57.51
895.253	39.08
895.423	127.14
895.594	155.82
895.764	241.83
895.935	24.75
896.106	166.06
896.276	24.75
896.447	172.2
896.617	-46.93
896.788	-28.5
896.958	-44.88
897.129	114.86
897.299	94.38
897.47	250.02
897.64	102.57
897.81	100.52
897.981	159.91
898.151	-1.88
898.322	129.19
898.492	274.6
898.662	30.89
898.832	41.13
899.003	59.56
899.173	270.5
899.343	-32.6
899.513	-48.98
