Data from USB4F104151__19__12-14-57-321.txt Node

Date: Wed Feb 19 12:14:57 EST 2025
User: louis
Spectrometer: USB4F10415
Trigger mode: 4
Integration Time (sec): 2.250200E-1
Scans to average: 1
Electric dark correction enabled: true
Nonlinearity correction enabled: false
Boxcar width: 0
XAxis mode: Wavelengths
Number of Pixels in Spectrum: 3648
>>>>>Begin Spectral Data<<<<<
178.204	-816.46
178.424	-816.46
178.644	-816.46
178.864	-826.7
179.084	-767.31
179.304	166.57
179.524	111.27
179.744	21.16
179.964	-169.3
180.184	139.94
180.404	119.46
180.624	-324.94
180.844	-89.43
181.064	96.94
181.283	230.06
181.503	-202.07
181.723	-99.67
181.943	-34.13
182.163	371.36
182.383	-152.92
182.602	-202.07
182.822	436.9
183.042	211.62
183.262	-116.05
183.482	-169.3
183.701	238.25
183.921	260.77
184.141	-175.44
184.361	-146.77
184.58	275.11
184.8	185
185.02	-236.88
185.239	37.55
185.459	252.58
185.679	414.37
185.898	-197.97
186.118	-200.02
186.338	260.77
186.557	432.8
186.777	-255.31
186.997	-204.11
187.216	295.59
187.436	430.76
187.655	-54.61
187.875	8.87
188.095	197.29
188.314	420.52
188.534	-71
188.753	-210.26
188.973	465.57
189.192	545.44
189.412	-228.69
189.631	-111.96
189.851	371.36
190.07	451.24
190.29	-222.55
190.509	-48.47
190.729	154.28
190.948	438.95
191.168	-21.85
191.387	-99.67
191.607	191.14
191.826	262.82
192.045	-85.33
192.265	-183.63
192.484	377.51
192.704	328.36
192.923	-77.14
193.142	23.21
193.362	350.89
193.581	430.76
193.8	-75.09
194.02	-87.38
194.239	287.4
194.458	268.97
194.678	-83.28
194.897	-150.87
195.116	283.3
195.335	277.16
195.555	-132.44
195.774	-222.55
195.993	432.8
196.212	256.68
196.432	-93.52
196.651	-144.72
196.87	223.91
197.089	547.49
197.308	-136.53
197.528	-81.24
197.747	176.81
197.966	248.49
198.185	-75.09
198.404	-154.96
198.623	373.41
198.842	373.41
199.062	-150.87
199.281	-17.75
199.5	215.72
199.719	338.6
199.938	-120.15
200.157	-191.83
200.376	504.48
200.595	494.24
200.814	-116.05
201.033	-132.44
201.252	479.91
201.471	314.02
201.69	-181.59
201.909	-150.87
202.128	314.02
202.347	330.41
202.566	-103.76
202.785	-267.6
203.004	205.48
203.223	584.35
203.442	-212.31
203.661	-255.31
203.879	328.36
204.098	426.66
204.317	-197.97
204.536	-46.42
204.755	264.87
204.974	379.56
205.193	-306.51
205.411	-126.29
205.63	316.07
205.849	412.32
206.068	-234.83
206.287	-234.83
206.505	420.52
206.724	195.24
206.943	-267.6
207.162	-157.01
207.381	242.34
207.599	182.95
207.818	-144.72
208.037	-230.74
208.255	209.58
208.474	305.83
208.693	-202.07
208.911	-118.1
209.13	369.32
209.349	342.69
209.567	51.88
209.786	-173.39
210.005	377.51
210.223	305.83
210.442	-324.94
210.661	-243.03
210.879	379.56
211.098	203.43
211.316	-95.57
211.535	-136.53
211.753	264.87
211.972	277.16
212.191	-77.14
212.409	-101.72
212.628	348.84
212.846	152.23
213.065	-134.48
213.283	-54.61
213.502	223.91
213.72	201.38
213.938	-128.34
214.157	-163.15
214.375	299.69
214.594	217.77
214.812	-148.82
215.031	-197.97
215.249	232.1
215.467	309.93
215.686	-126.29
215.904	-152.92
216.122	320.17
216.341	365.22
216.559	-21.85
216.778	-27.99
216.996	434.85
217.214	197.29
217.432	-169.3
217.651	-144.72
217.869	332.45
218.087	285.35
218.306	-195.92
218.524	-189.78
218.742	275.11
218.96	357.03
219.179	-111.96
219.397	-193.87
219.615	459.43
219.833	283.3
220.051	-193.87
220.27	-109.91
220.488	299.69
220.706	424.61
220.924	-181.59
221.142	-138.58
221.36	271.01
221.578	258.73
221.796	-101.72
222.015	-107.86
222.233	303.78
222.451	438.95
222.669	-107.86
222.887	15.02
223.105	156.33
223.323	156.33
223.541	-148.82
223.759	-56.66
223.977	244.39
224.195	461.48
224.413	-97.62
224.631	-142.68
224.849	191.14
225.067	510.63
225.285	-118.1
225.503	-109.91
225.721	78.51
225.939	250.53
226.157	-36.18
226.375	64.17
226.592	154.28
226.81	256.68
227.028	0.68
227.246	-148.82
227.464	291.49
227.682	377.51
227.9	-109.91
228.117	-3.41
228.335	250.53
228.553	225.96
228.771	-216.4
228.989	-193.87
229.206	303.78
229.424	211.62
229.642	-140.63
229.86	-114
230.077	436.9
230.295	252.58
230.513	12.97
230.731	-27.99
230.948	389.8
231.166	447.14
231.384	-68.95
231.601	-103.76
231.819	490.15
232.037	164.52
232.254	-44.37
232.472	-136.53
232.689	125.61
232.907	299.69
233.125	-234.83
233.342	-240.98
233.56	88.75
233.777	123.56
233.995	-128.34
234.213	-97.62
234.43	287.4
234.648	170.66
234.865	-146.77
235.083	-68.95
235.3	234.15
235.518	326.31
235.735	-56.66
235.953	-93.52
236.17	297.64
236.388	191.14
236.605	27.31
236.822	-75.09
237.04	430.76
237.257	314.02
237.475	-140.63
237.692	-148.82
237.909	422.56
238.127	164.52
238.344	41.64
238.562	-114
238.779	101.03
238.996	4.78
239.214	-50.52
239.431	-64.85
239.648	144.04
239.865	281.25
240.083	-136.53
240.3	-142.68
240.517	158.38
240.735	191.14
240.952	64.17
241.169	-226.64
241.386	318.12
241.603	170.66
241.821	-134.48
242.038	-62.8
242.255	336.55
242.472	103.08
242.689	-46.42
242.907	-77.14
243.124	258.73
243.341	197.29
243.558	-38.23
243.775	-136.53
243.992	121.51
244.209	311.97
244.426	6.83
244.643	-71
244.86	158.38
245.078	279.21
245.295	8.87
245.512	-136.53
245.729	141.99
245.946	305.83
246.163	-116.05
246.38	-140.63
246.597	256.68
246.814	185
247.031	2.73
247.248	-195.92
247.464	295.59
247.681	185
247.898	-79.19
248.115	6.83
248.332	103.08
248.549	441
248.766	-27.99
248.983	-36.18
249.2	330.41
249.417	375.46
249.633	-150.87
249.85	-1.37
250.067	191.14
250.284	273.06
250.501	-118.1
250.717	-91.48
250.934	115.37
251.151	248.49
251.368	-62.8
251.585	-118.1
251.801	228.01
252.018	86.7
252.235	4.78
252.451	-128.34
252.668	209.58
252.885	369.32
253.102	-60.76
253.318	-95.57
253.535	133.8
253.752	92.84
253.968	-77.14
254.185	-195.92
254.401	303.78
254.618	299.69
254.835	-64.85
255.051	-68.95
255.268	293.54
255.484	195.24
255.701	-99.67
255.917	-79.19
256.134	125.61
256.351	260.77
256.567	-179.54
256.784	68.27
257	-9.56
257.217	397.99
257.433	31.4
257.65	-101.72
257.866	357.03
258.082	27.31
258.299	-50.52
258.515	-71
258.732	232.1
258.948	133.8
259.165	19.11
259.381	-103.76
259.597	408.23
259.814	123.56
260.03	-114
260.246	-107.86
260.463	430.76
260.679	422.56
260.895	-64.85
261.112	-46.42
261.328	201.38
261.544	64.17
261.761	-68.95
261.977	-66.9
262.193	70.31
262.409	285.35
262.626	68.27
262.842	-99.67
263.058	154.28
263.274	367.27
263.49	-62.8
263.707	-114
263.923	391.84
264.139	84.65
264.355	-13.65
264.571	-13.65
264.787	277.16
265.004	397.99
265.22	6.83
265.436	-64.85
265.652	256.68
265.868	215.72
266.084	-75.09
266.3	-60.76
266.516	113.32
266.732	221.86
266.948	2.73
267.164	-79.19
267.38	381.6
267.596	334.5
267.812	41.64
268.028	-27.99
268.244	148.14
268.46	217.77
268.676	-75.09
268.892	53.93
269.108	146.09
269.324	141.99
269.54	-75.09
269.756	43.69
269.972	150.18
270.188	215.72
270.403	-66.9
270.619	-107.86
270.835	219.82
271.051	266.92
271.267	-46.42
271.483	-161.11
271.698	336.55
271.914	334.5
272.13	-32.08
272.346	-21.85
272.562	197.29
272.777	463.52
272.993	76.46
273.209	-120.15
273.425	324.26
273.64	129.7
273.856	-60.76
274.072	-191.83
274.287	137.9
274.503	393.89
274.719	55.98
274.934	-128.34
275.15	17.07
275.366	180.9
275.581	-109.91
275.797	-15.7
276.012	303.78
276.228	109.22
276.444	19.11
276.659	135.85
276.875	86.7
277.09	146.09
277.306	62.12
277.521	-52.56
277.737	238.25
277.952	275.11
278.168	-66.9
278.383	-34.13
278.599	139.94
278.814	213.67
279.03	-87.38
279.245	17.07
279.461	207.53
279.676	248.49
279.892	-68.95
280.107	-81.24
280.322	86.7
280.538	359.08
280.753	-30.04
280.969	-34.13
281.184	193.19
281.399	316.07
281.615	70.31
281.83	78.51
282.045	-15.7
282.26	117.42
282.476	10.92
282.691	137.9
282.906	223.91
283.122	178.86
283.337	80.55
283.552	74.41
283.767	84.65
283.983	289.45
284.198	-116.05
284.413	-107.86
284.628	70.31
284.843	185
285.058	-9.56
285.274	-42.32
285.489	66.22
285.704	230.06
285.919	-34.13
286.134	6.83
286.349	158.38
286.564	78.51
286.779	94.89
286.995	-62.8
287.21	-9.56
287.425	289.45
287.64	-62.8
287.855	103.08
288.07	78.51
288.285	291.49
288.5	64.17
288.715	-17.75
288.93	238.25
289.145	150.18
289.36	-30.04
289.575	-5.46
289.79	301.73
290.004	129.7
290.219	68.27
290.434	-1.37
290.649	107.18
290.864	86.7
291.079	37.55
291.294	10.92
291.509	275.11
291.724	203.43
291.938	53.93
292.153	-62.8
292.368	207.53
292.583	217.77
292.798	68.27
293.012	68.27
293.227	277.16
293.442	109.22
293.657	41.64
293.871	-52.56
294.086	309.93
294.301	373.41
294.516	78.51
294.73	86.7
294.945	23.21
295.16	162.47
295.374	45.74
295.589	90.79
295.804	178.86
296.018	193.19
296.233	-13.65
296.447	47.79
296.662	109.22
296.877	314.02
297.091	68.27
297.306	-36.18
297.52	185
297.735	303.78
297.949	60.07
298.164	-77.14
298.378	246.44
298.593	31.4
298.807	-89.43
299.022	-7.51
299.236	381.6
299.451	119.46
299.665	60.07
299.88	6.83
300.094	295.59
300.309	182.95
300.523	39.59
300.737	-27.99
300.952	240.29
301.166	182.95
301.381	-87.38
301.595	-73.04
301.809	248.49
302.024	166.57
302.238	27.31
302.452	103.08
302.667	191.14
302.881	373.41
303.095	62.12
303.309	107.18
303.524	88.75
303.738	172.71
303.952	-30.04
304.166	76.46
304.381	-9.56
304.595	336.55
304.809	127.66
305.023	-48.47
305.237	98.99
305.452	137.9
305.666	-5.46
305.88	94.89
306.094	357.03
306.308	195.24
306.522	-19.8
306.736	135.85
306.95	311.97
307.164	94.89
307.379	62.12
307.593	82.6
307.807	332.45
308.021	217.77
308.235	203.43
308.449	-85.33
308.663	152.23
308.877	531.11
309.091	70.31
309.305	68.27
309.519	4.78
309.733	291.49
309.947	-111.96
310.161	-36.18
310.374	225.96
310.588	260.77
310.802	-73.04
311.016	-38.23
311.23	170.66
311.444	139.94
311.658	92.84
311.872	185
312.085	211.62
312.299	314.02
312.513	158.38
312.727	-68.95
312.941	129.7
313.154	260.77
313.368	10.92
313.582	78.51
313.796	199.34
314.009	248.49
314.223	166.57
314.437	27.31
314.651	314.02
314.864	164.52
315.078	12.97
315.292	-75.09
315.505	158.38
315.719	199.34
315.933	80.55
316.146	-21.85
316.36	82.6
316.573	211.62
316.787	191.14
317.001	121.51
317.214	76.46
317.428	78.51
317.641	-97.62
317.855	51.88
318.068	176.81
318.282	215.72
318.495	131.75
318.709	29.35
318.922	199.34
319.136	385.7
319.349	74.41
319.563	-95.57
319.776	299.69
319.99	-13.65
320.203	62.12
320.417	62.12
320.63	152.23
320.843	314.02
321.057	154.28
321.27	72.36
321.483	266.92
321.697	344.74
321.91	17.07
322.124	10.92
322.337	262.82
322.55	23.21
322.763	66.22
322.977	-27.99
323.19	92.84
323.403	240.29
323.617	76.46
323.83	182.95
324.043	150.18
324.256	162.47
324.469	-212.31
324.683	141.99
324.896	193.19
325.109	53.93
325.322	-46.42
325.535	162.47
325.748	324.26
325.962	152.23
326.175	39.59
326.388	-1.37
326.601	311.97
326.814	164.52
327.027	76.46
327.24	105.13
327.453	25.26
327.666	287.4
327.879	209.58
328.092	41.64
328.305	228.01
328.518	121.51
328.731	-54.61
328.944	-111.96
329.157	135.85
329.37	60.07
329.583	146.09
329.796	70.31
330.009	-64.85
330.222	301.73
330.435	129.7
330.648	78.51
330.861	215.72
331.073	162.47
331.286	66.22
331.499	21.16
331.712	107.18
331.925	211.62
332.138	25.26
332.35	19.11
332.563	141.99
332.776	279.21
332.989	-19.8
333.202	-48.47
333.414	221.86
333.627	141.99
333.84	33.45
334.053	17.07
334.265	109.22
334.478	64.17
334.691	8.87
334.903	96.94
335.116	88.75
335.329	129.7
335.541	-5.46
335.754	207.53
335.966	129.7
336.179	211.62
336.392	-38.23
336.604	78.51
336.817	273.06
337.029	230.06
337.242	-40.28
337.454	45.74
337.667	197.29
337.88	309.93
338.092	162.47
338.305	117.42
338.517	64.17
338.729	232.1
338.942	4.78
339.154	-103.76
339.367	92.84
339.579	250.53
339.792	4.78
340.004	94.89
340.217	154.28
340.429	223.91
340.641	-5.46
340.854	-60.76
341.066	207.53
341.278	283.3
341.491	197.29
341.703	6.83
341.915	70.31
342.128	248.49
342.34	39.59
342.552	-81.24
342.764	195.24
342.977	213.67
343.189	66.22
343.401	150.18
343.613	31.4
343.826	201.38
344.038	-58.71
344.25	17.07
344.462	119.46
344.674	189.1
344.886	-101.72
345.099	0.68
345.311	215.72
345.523	96.94
345.735	-85.33
345.947	-5.46
346.159	207.53
346.371	191.14
346.583	-3.41
346.795	84.65
347.007	191.14
347.219	275.11
347.431	49.83
347.643	168.62
347.855	193.19
348.067	303.78
348.279	-44.37
348.491	-1.37
348.703	381.6
348.915	125.61
349.127	-13.65
349.339	8.87
349.551	113.32
349.763	314.02
349.975	37.55
350.187	86.7
350.399	438.95
350.61	180.9
350.822	31.4
351.034	86.7
351.246	283.3
351.458	189.1
351.669	101.03
351.881	15.02
352.093	285.35
352.305	223.91
352.517	15.02
352.728	170.66
352.94	217.77
353.152	258.73
353.363	-5.46
353.575	86.7
353.787	330.41
353.999	230.06
354.21	168.62
354.422	-11.61
354.633	166.57
354.845	223.91
355.057	60.07
355.268	84.65
355.48	328.36
355.692	125.61
355.903	86.7
356.115	-1.37
356.326	4.78
356.538	344.74
356.749	84.65
356.961	168.62
357.172	150.18
357.384	2.73
357.595	309.93
357.807	72.36
358.018	168.62
358.23	160.42
358.441	-32.08
358.653	29.35
358.864	148.14
359.075	84.65
359.287	86.7
359.498	76.46
359.709	348.84
359.921	230.06
360.132	92.84
360.344	-46.42
360.555	141.99
360.766	316.07
360.977	33.45
361.189	78.51
361.4	176.81
361.611	248.49
361.823	117.42
362.034	35.5
362.245	-19.8
362.456	174.76
362.667	174.76
362.879	-120.15
363.09	252.58
363.301	240.29
363.512	43.69
363.723	23.21
363.935	174.76
364.146	359.08
364.357	19.11
364.568	94.89
364.779	39.59
364.99	322.21
365.201	80.55
365.412	152.23
365.623	74.41
365.834	230.06
366.045	80.55
366.256	35.5
366.467	295.59
366.678	141.99
366.889	82.6
367.1	4.78
367.311	314.02
367.522	166.57
367.733	164.52
367.944	53.93
368.155	148.14
368.366	256.68
368.577	119.46
368.788	131.75
368.999	70.31
369.209	98.99
369.42	223.91
369.631	326.31
369.842	305.83
370.053	256.68
370.264	-9.56
370.474	-58.71
370.685	389.8
370.896	211.62
371.107	209.58
371.317	43.69
371.528	232.1
371.739	342.69
371.95	88.75
372.16	107.18
372.371	31.4
372.582	113.32
372.792	-27.99
373.003	109.22
373.214	277.16
373.424	234.15
373.635	-13.65
373.846	240.29
374.056	275.11
374.267	131.75
374.477	105.13
374.688	-34.13
374.898	266.92
375.109	232.1
375.319	84.65
375.53	51.88
375.74	287.4
375.951	152.23
376.161	174.76
376.372	80.55
376.582	144.04
376.793	289.45
377.003	101.03
377.214	-38.23
377.424	299.69
377.635	271.01
377.845	94.89
378.055	162.47
378.266	131.75
378.476	264.87
378.686	64.17
378.897	35.5
379.107	305.83
379.317	307.88
379.528	-54.61
379.738	141.99
379.948	37.55
380.158	350.89
380.369	88.75
380.579	135.85
380.789	238.25
380.999	230.06
381.21	172.71
381.42	219.82
381.63	193.19
381.84	359.08
382.05	148.14
382.261	213.67
382.471	260.77
382.681	141.99
382.891	141.99
383.101	70.31
383.311	156.33
383.521	117.42
383.731	76.46
383.941	228.01
384.151	178.86
384.361	150.18
384.571	21.16
384.781	70.31
384.991	301.73
385.201	420.52
385.411	193.19
385.621	68.27
385.831	316.07
386.041	207.53
386.251	152.23
386.461	119.46
386.671	373.41
386.881	217.77
387.091	51.88
387.301	182.95
387.511	207.53
387.72	262.82
387.93	185
388.14	15.02
388.35	299.69
388.56	414.37
388.769	109.22
388.979	45.74
389.189	113.32
389.399	238.25
389.609	139.94
389.818	180.9
390.028	322.21
390.238	260.77
390.447	84.65
390.657	88.75
390.867	199.34
391.076	103.08
391.286	43.69
391.496	-9.56
391.705	283.3
391.915	391.84
392.125	62.12
392.334	80.55
392.544	473.76
392.753	191.14
392.963	92.84
393.172	-1.37
393.382	268.97
393.591	432.8
393.801	119.46
394.01	185
394.22	348.84
394.429	162.47
394.639	158.38
394.848	76.46
395.058	357.03
395.267	232.1
395.477	246.44
395.686	125.61
395.895	563.87
396.105	406.18
396.314	213.67
396.524	168.62
396.733	111.27
396.942	453.28
397.152	37.55
397.361	297.64
397.57	203.43
397.78	264.87
397.989	223.91
398.198	371.36
398.407	213.67
398.617	156.33
398.826	37.55
399.035	141.99
399.244	301.73
399.453	240.29
399.663	117.42
399.872	29.35
400.081	207.53
400.29	348.84
400.499	15.02
400.708	262.82
400.917	293.54
401.127	246.44
401.336	109.22
401.545	406.18
401.754	420.52
401.963	471.72
402.172	156.33
402.381	146.09
402.59	357.03
402.799	248.49
403.008	309.93
403.217	111.27
403.426	344.74
403.635	43.69
403.844	23.21
404.053	55.98
404.262	250.53
404.471	461.48
404.68	117.42
404.888	238.25
405.097	236.2
405.306	311.97
405.515	172.71
405.724	164.52
405.933	359.08
406.142	293.54
406.35	115.37
406.559	144.04
406.768	305.83
406.977	520.87
407.185	125.61
407.394	207.53
407.603	217.77
407.812	223.91
408.02	240.29
408.229	66.22
408.438	326.31
408.646	58.03
408.855	62.12
409.064	43.69
409.272	273.06
409.481	348.84
409.69	121.51
409.898	51.88
410.107	215.72
410.315	406.18
410.524	168.62
410.733	148.14
410.941	303.78
411.15	397.99
411.358	139.94
411.567	332.45
411.775	371.36
411.984	314.02
412.192	232.1
412.401	92.84
412.609	522.91
412.818	377.51
413.026	211.62
413.234	178.86
413.443	311.97
413.651	279.21
413.86	21.16
414.068	318.12
414.276	488.1
414.485	258.73
414.693	211.62
414.901	336.55
415.11	340.65
415.318	236.2
415.526	131.75
415.734	217.77
415.943	289.45
416.151	498.34
416.359	176.81
416.567	234.15
416.776	420.52
416.984	346.79
417.192	254.63
417.4	158.38
417.608	232.1
417.817	139.94
418.025	336.55
418.233	248.49
418.441	217.77
418.649	139.94
418.857	162.47
419.065	256.68
419.273	228.01
419.481	230.06
419.689	219.82
419.897	117.42
420.105	197.29
420.313	404.13
420.521	318.12
420.729	248.49
420.937	187.05
421.145	187.05
421.353	230.06
421.561	266.92
421.769	350.89
421.977	223.91
422.185	217.77
422.393	221.86
422.601	322.21
422.809	352.93
423.017	264.87
423.224	168.62
423.432	447.14
423.64	373.41
423.848	176.81
424.056	92.84
424.263	391.84
424.471	277.16
424.679	326.31
424.887	135.85
425.094	455.33
425.302	369.32
425.51	-9.56
425.718	230.06
425.925	379.56
426.133	160.42
426.341	281.25
426.548	119.46
426.756	283.3
426.964	344.74
427.171	98.99
427.379	209.58
427.586	330.41
427.794	438.95
428.001	273.06
428.209	217.77
428.417	475.81
428.624	428.71
428.832	275.11
429.039	275.11
429.247	332.45
429.454	414.37
429.662	334.5
429.869	191.14
430.076	418.47
430.284	311.97
430.491	221.86
430.699	207.53
430.906	553.63
431.114	453.28
431.321	320.17
431.528	258.73
431.736	400.04
431.943	369.32
432.15	217.77
432.358	244.39
432.565	604.83
432.772	107.18
432.979	385.7
433.187	189.1
433.394	621.22
433.601	307.88
433.808	389.8
434.016	424.61
434.223	529.06
434.43	459.43
434.637	248.49
434.844	535.2
435.052	535.2
435.259	524.96
435.466	422.56
435.673	397.99
435.88	635.55
436.087	615.07
436.294	600.74
436.501	443.04
436.708	506.53
436.915	559.78
437.122	516.77
437.329	332.45
437.537	541.35
437.743	645.79
437.95	588.45
438.157	504.48
438.364	608.93
438.571	559.78
438.778	445.09
438.985	520.87
439.192	711.33
439.399	602.79
439.606	438.95
439.813	557.73
440.02	961.18
440.227	891.55
440.433	668.32
440.64	572.07
440.847	553.63
441.054	680.61
441.261	754.34
441.467	672.42
441.674	727.71
441.881	918.17
442.088	621.22
442.294	662.18
442.501	912.03
442.708	1032.86
442.914	711.33
443.121	789.15
443.328	926.36
443.534	1034.91
443.741	774.81
443.948	690.85
444.154	1049.24
444.361	1198.74
444.568	905.88
444.774	838.3
444.981	875.17
445.187	1192.6
445.394	971.42
445.6	955.04
445.807	1133.21
446.013	1129.11
446.22	862.88
446.426	1272.47
446.633	1307.29
446.839	1555.09
447.046	1102.49
447.252	1307.29
447.459	1397.4
447.665	1426.07
447.871	1282.71
448.078	1759.89
448.284	1567.38
448.491	1745.55
448.697	1579.67
448.903	1630.87
449.11	1864.33
449.316	1659.54
449.522	1772.18
449.728	1888.91
449.935	2052.75
450.141	1858.19
450.347	2034.32
450.553	2038.41
450.76	2228.87
450.966	2364.04
451.172	2120.33
451.378	2222.73
451.584	2513.54
451.791	2708.1
451.997	2488.96
452.203	2599.55
452.409	2863.74
452.615	2814.59
452.821	2710.15
453.027	2656.9
453.233	3148.41
453.44	2851.46
453.646	2765.44
453.852	2945.66
454.058	3007.1
454.264	3148.41
454.47	3304.06
454.676	3228.28
454.882	3500.66
455.088	3273.34
455.294	3209.85
455.5	3627.64
455.705	3558
455.911	3609.2
456.117	3394.17
456.323	3555.96
456.529	3488.37
456.735	3773.04
456.941	3465.85
457.147	3586.68
457.352	3863.15
457.558	3533.43
457.764	3705.46
457.97	3545.72
458.176	3848.82
458.381	3969.65
458.587	3832.43
458.793	3633.78
458.999	3529.33
459.204	3900.02
459.41	3844.72
459.616	3746.42
459.821	3887.73
460.027	3623.54
460.233	3637.88
460.438	3574.39
460.644	3676.79
460.85	3648.11
461.055	3627.64
461.261	3525.24
461.466	3345.02
461.672	3449.46
461.878	3238.52
462.083	3355.26
462.289	3254.9
462.494	3205.75
462.7	3144.31
462.905	2882.17
463.111	3320.44
463.316	3390.07
463.522	2902.65
463.727	3179.13
463.932	3369.59
464.138	3197.56
464.343	3015.29
464.549	3250.81
464.754	3334.78
464.959	3283.58
465.165	2964.09
465.37	3039.87
465.575	2962.05
465.781	2970.24
465.986	3037.82
466.191	2925.18
466.397	3017.34
466.602	2968.19
466.807	2886.27
467.012	2867.84
467.218	3050.11
467.423	3123.84
467.628	2775.68
467.833	2925.18
468.038	2992.76
468.244	2853.5
468.449	2941.57
468.654	2912.89
468.859	2925.18
469.064	2935.42
469.269	2736.77
469.474	2882.17
469.679	3172.99
469.885	3029.63
470.09	2945.66
470.295	2833.02
470.5	2894.46
470.705	3183.23
470.91	2923.13
471.115	2972.29
471.32	3031.68
471.525	3201.66
471.73	2818.69
471.935	2992.76
472.139	2869.89
472.344	2775.68
472.549	3005.05
472.754	2935.42
472.959	3175.03
473.164	3123.84
473.369	2951.81
473.574	3254.9
473.778	3205.75
473.983	3353.21
474.188	3117.69
474.393	2978.43
474.598	3246.71
474.802	3089.02
475.007	3066.49
475.212	3107.45
475.417	2976.38
475.621	3295.86
475.826	3048.06
476.031	2960
476.235	3091.07
476.44	3162.75
476.645	3056.25
476.849	3015.29
477.054	3091.07
477.259	3207.8
477.463	3248.76
477.668	3166.84
477.872	3476.09
478.077	3261.05
478.282	3031.68
478.486	3041.92
478.691	3306.1
478.895	3191.42
479.1	3224.19
479.304	3103.36
479.509	3142.27
479.713	3476.09
479.918	3127.93
480.122	3111.55
480.326	3140.22
480.531	3345.02
480.735	3089.02
480.94	3056.25
481.144	3504.76
481.348	3215.99
481.553	3205.75
481.757	3129.98
481.961	3385.97
482.166	3379.83
482.37	2992.76
482.574	3281.53
482.778	3218.04
482.983	3515
483.187	3246.71
483.391	3467.89
483.595	3521.14
483.8	3521.14
484.004	3326.58
484.208	3418.74
484.412	3715.7
484.616	3582.58
484.821	3273.34
485.025	3244.67
485.229	3447.41
485.433	3637.88
485.637	3312.25
485.841	3422.84
486.045	3588.72
486.249	3799.66
486.453	3492.47
486.657	3566.2
486.861	3394.17
487.065	3572.34
487.269	3551.86
487.473	3676.79
487.677	3922.54
487.881	4010.61
488.085	3756.66
488.289	3832.43
488.493	3852.91
488.697	4117.1
488.901	3857.01
489.105	3895.92
489.309	3947.12
489.512	4172.39
489.716	3873.39
489.92	4039.28
490.124	4246.12
490.328	4420.2
490.531	4149.87
490.735	4231.79
490.939	4258.41
491.143	4237.93
491.346	4174.44
491.55	4213.35
491.754	4422.25
491.958	4452.97
492.161	4319.85
492.365	4352.62
492.569	4528.74
492.772	4616.8
492.976	4631.14
493.18	4665.96
493.383	4846.18
493.587	4827.74
493.79	4723.3
493.994	4657.76
494.197	4897.38
494.401	4952.67
494.605	4930.14
494.808	5186.14
495.012	5272.15
495.215	5341.79
495.419	5235.29
495.622	5093.98
495.825	5147.23
496.029	5327.45
496.232	5382.74
496.436	5231.19
496.639	5464.66
496.843	5567.06
497.046	5538.39
497.249	5722.71
497.453	5851.73
497.656	5710.42
497.859	5786.19
498.063	6009.42
498.266	6064.72
498.469	5898.83
498.673	6044.24
498.876	6021.71
499.079	6193.74
499.282	6300.23
499.485	6423.11
499.689	6423.11
499.892	6769.22
500.095	6652.49
500.298	6629.96
500.501	6582.85
500.705	6926.91
500.908	6871.62
501.111	6834.75
501.314	7086.65
501.517	7332.41
501.72	7344.7
501.923	7127.61
502.126	7324.22
502.329	7830.07
502.532	7703.09
502.735	7436.86
502.938	7862.83
503.141	7967.28
503.344	7772.72
503.547	7905.84
503.75	7879.22
503.953	8229.42
504.156	8321.58
504.359	8301.1
504.562	8378.92
504.765	8823.33
504.968	8880.68
505.17	8886.82
505.373	8903.2
505.576	9040.42
505.779	9165.34
505.982	9142.82
506.185	9228.83
506.387	9574.94
506.59	9777.69
506.793	9738.77
506.996	9806.36
507.198	10220.05
507.401	10236.43
507.604	10211.85
507.807	10099.22
508.009	10701.32
508.212	10664.46
508.415	10732.04
508.617	10588.68
508.82	10932.74
509.022	10869.25
509.225	11258.37
509.428	11205.12
509.63	11442.68
509.833	11344.38
510.035	12089.84
510.238	11928.05
510.44	11764.22
510.643	12337.65
510.845	12319.21
511.048	12216.82
511.25	12622.31
511.453	12536.3
511.655	13060.58
511.858	12939.75
512.06	13246.94
512.262	13081.06
512.465	12968.42
512.667	13490.65
512.87	13556.19
513.072	13949.4
513.274	13830.62
513.477	14012.88
513.679	14330.32
513.881	14645.71
514.084	14481.87
514.286	14850.5
514.488	14995.91
514.69	15116.74
514.893	15221.19
515.095	15331.78
515.297	15808.95
515.499	15372.74
515.701	15561.15
515.904	15946.17
516.106	16544.17
516.308	16464.3
516.51	16669.1
516.712	16640.43
516.914	16877.99
517.116	17027.49
517.318	17045.93
517.52	17226.15
517.722	17410.46
517.925	17637.79
518.127	18100.63
518.329	17899.93
518.531	17901.98
518.733	18518.42
518.935	18508.18
519.136	18581.9
519.338	18749.84
519.54	19253.64
519.742	19564.93
519.944	19624.32
520.146	20134.26
520.348	20203.89
520.55	20105.59
520.752	20216.18
520.954	20547.95
521.155	20386.16
521.357	20707.69
521.559	20937.07
521.761	21827.93
521.963	20996.46
522.164	21551.46
522.366	21315.94
522.568	21999.96
522.77	22014.3
522.971	22085.98
523.173	21819.74
523.375	22557.01
523.576	22292.82
523.778	22270.29
523.98	22776.14
524.181	22903.12
524.383	23146.83
524.584	23318.85
524.786	23279.94
524.988	23402.82
525.189	23851.33
525.391	23722.3
525.592	23458.12
525.794	23734.59
525.995	24138.04
526.197	24070.46
526.398	24258.87
526.6	24527.16
526.801	24654.13
527.003	24222.01
527.204	24586.55
527.406	25329.96
527.607	24731.95
527.808	24815.92
528.01	25080.11
528.211	25248.04
528.412	25563.43
528.614	25583.91
528.815	25737.51
529.016	25862.43
529.218	25557.28
529.419	25835.81
529.62	25811.23
529.822	25981.21
530.023	25991.45
530.224	25940.25
530.425	25819.42
530.626	26026.27
530.828	26114.33
531.029	26681.62
531.23	26136.86
531.431	26046.75
531.632	26376.47
531.833	26081.56
532.035	26470.68
532.236	26554.65
532.437	26638.61
532.638	26341.66
532.839	26325.27
533.04	27003.15
533.241	26751.25
533.442	26888.46
533.643	26851.6
533.844	26642.71
534.045	26835.22
534.246	26474.77
534.447	26685.72
534.648	26501.4
534.849	27080.97
535.05	26706.2
535.251	26648.85
535.451	26904.85
535.652	27021.58
535.853	26841.36
536.054	27027.73
536.255	27228.43
536.456	27087.12
536.657	26954
536.857	26743.06
537.058	26921.23
537.259	27244.81
537.46	27193.61
537.66	27001.1
537.861	27166.99
538.062	26820.88
538.263	26796.31
538.463	27095.31
538.664	27226.38
538.865	27074.83
539.065	27312.39
539.266	26839.31
539.466	27189.52
539.667	27134.22
539.868	27097.36
540.068	27212.04
540.269	27441.42
540.469	27302.15
540.67	26872.08
540.87	27400.46
541.071	26894.61
541.271	27715.84
541.472	27470.09
541.672	26986.77
541.873	27267.34
542.073	26937.62
542.274	27371.78
542.474	27050.25
542.675	27183.37
542.875	27623.69
543.075	27017.49
543.276	27050.25
543.476	27644.16
543.676	27480.33
543.877	27535.62
544.077	27336.97
544.277	27410.7
544.478	27322.63
544.678	27203.85
544.878	27404.55
545.078	27662.6
545.279	27314.44
545.479	27312.39
545.679	27404.55
545.879	27523.33
546.079	27683.08
546.28	26878.22
546.48	27312.39
546.68	27873.54
546.88	27644.16
547.08	27468.04
547.28	27457.8
547.48	27289.87
547.68	27656.45
547.88	27390.22
548.081	27486.47
548.281	27947.26
548.481	27468.04
548.681	27627.78
548.881	27554.05
549.081	27633.92
549.28	27586.82
549.48	27756.8
549.68	27541.77
549.88	28012.8
550.08	27517.19
550.28	27703.56
550.48	27769.09
550.68	28229.88
550.88	27943.17
551.08	27756.8
551.279	27832.58
551.479	27781.38
551.679	28012.8
551.879	27683.08
552.079	28014.85
552.278	27840.77
552.478	28066.05
552.678	27736.32
552.878	28066.05
553.077	27904.26
553.277	27715.84
553.477	27988.22
553.676	27877.63
553.876	28102.91
554.076	28313.85
554.275	28074.24
554.475	27648.26
554.674	28207.36
554.874	27965.7
555.074	27875.59
555.273	27783.43
555.473	28039.42
555.672	27668.74
555.872	27851.01
556.071	27842.82
556.271	28209.4
556.47	27738.37
556.67	27617.54
556.869	27758.85
557.068	28037.37
557.268	27988.22
557.467	27631.88
557.667	27683.08
557.866	27775.23
558.065	27746.56
558.265	27406.6
558.464	27693.32
558.663	27619.59
558.863	27660.55
559.062	27963.65
559.261	27359.5
559.461	27752.71
559.66	27339.02
559.859	27435.27
560.058	27044.11
560.258	27418.89
560.457	27250.95
560.656	27511.05
560.855	27031.82
561.054	27726.08
561.253	27275.53
561.453	27353.35
561.652	27191.56
561.851	27779.33
562.05	26841.36
562.249	26902.8
562.448	27060.49
562.647	26738.96
562.846	26882.32
563.045	27142.41
563.244	26759.44
563.443	27158.8
563.642	26546.45
563.841	26646.8
564.04	26878.22
564.239	26921.23
564.438	26478.87
564.637	26474.77
564.836	26802.45
565.035	26618.13
565.234	26478.87
565.432	26409.24
565.631	26403.1
565.83	26472.73
566.029	26353.94
566.228	26081.56
566.427	26341.66
566.625	26038.56
566.824	25948.45
567.023	25921.82
567.222	25313.58
567.42	25911.58
567.619	25887.01
567.818	25952.54
568.016	25784.61
568.215	25577.76
568.414	25727.27
568.612	25547.04
568.811	25239.85
569.01	25504.04
569.208	25047.34
569.407	25190.7
569.605	24781.1
569.804	25196.84
570.002	24768.82
570.201	24774.96
570.4	24867.12
570.598	24545.59
570.797	24473.91
570.995	24426.81
571.193	23992.64
571.392	24518.96
571.59	24082.75
571.789	24406.33
571.987	24174.91
572.186	24351.03
572.384	24172.86
572.582	24047.93
572.781	24465.72
572.979	23566.66
573.177	23888.19
573.376	23886.14
573.574	23875.9
573.772	23695.68
573.971	23513.41
574.169	23058.76
574.367	23191.88
574.565	23750.98
574.763	23589.19
574.962	23087.43
575.16	23167.31
575.358	23150.92
575.556	23169.35
575.754	23214.41
575.952	22954.32
576.151	23208.26
576.349	22722.9
576.547	22462.8
576.745	22718.8
576.943	22913.36
577.141	22542.67
577.339	22274.39
577.537	22153.56
577.735	22448.47
577.933	22212.95
578.131	22473.04
578.329	22268.25
578.527	22178.14
578.725	22303.06
578.923	21803.36
579.121	21952.86
579.319	21791.07
579.516	22145.37
579.714	21868.89
579.912	22141.27
580.11	21668.19
580.308	21942.62
580.506	21727.58
580.704	21174.63
580.901	21711.2
581.099	21719.39
581.297	21105
581.495	21510.5
581.692	21666.14
581.89	21404
582.088	21301.61
582.285	21395.81
582.483	21641.57
582.681	21240.17
582.878	21152.1
583.076	21021.03
583.274	21426.53
583.471	21291.37
583.669	20767.09
583.866	20531.57
584.064	20994.41
584.262	20879.72
584.459	20484.47
584.657	20640.11
584.854	21238.12
585.052	20750.7
585.249	20627.82
585.447	20521.33
585.644	20330.87
585.841	20998.51
586.039	20736.37
586.236	20115.83
586.434	20468.08
586.631	20502.9
586.828	20146.55
587.026	20343.16
587.223	20367.73
587.42	20371.83
587.618	20506.99
587.815	20160.89
588.012	20222.33
588.21	19925.37
588.407	20322.68
588.604	19974.52
588.801	20070.78
588.999	20263.29
589.196	20056.44
589.393	19652.99
589.59	20253.05
589.787	20005.24
589.984	19716.48
590.182	19749.25
590.379	19675.52
590.576	19587.46
590.773	19665.28
590.97	19386.75
591.167	19655.04
591.364	19384.71
591.561	19601.79
591.758	19454.34
591.955	19923.32
592.152	19759.49
592.349	19429.76
592.546	19231.11
592.743	19483.01
592.94	19161.48
593.137	19503.49
593.334	19669.37
593.531	19392.9
593.727	19480.96
593.924	19331.46
594.121	19300.74
594.318	19440
594.515	19577.22
594.712	19609.98
594.908	19360.13
595.105	19200.39
595.302	19077.51
595.499	19263.88
595.696	19077.51
595.892	19403.14
596.089	19495.3
596.286	19093.9
596.482	19173.77
596.679	19394.95
596.876	19319.17
597.072	19235.21
597.269	18968.97
597.466	19128.71
597.662	19177.86
597.859	18977.16
598.055	19237.25
598.252	19214.73
598.448	19065.22
598.645	19022.22
598.841	18971.02
599.038	19132.81
599.234	19009.93
599.431	18858.38
599.627	18899.34
599.824	19272.07
600.02	19284.36
600.217	18823.56
600.413	18778.51
600.609	19073.42
600.806	19214.73
601.002	18950.54
601.198	18741.64
601.395	19169.67
601.591	18928.01
601.787	18968.97
601.984	18844.04
602.18	19075.46
602.376	18956.68
602.572	18514.32
602.769	18960.78
602.965	19065.22
603.161	19059.08
603.357	18878.86
603.553	18911.63
603.75	18653.58
603.946	19083.66
604.142	18913.67
604.338	18905.48
604.534	18837.9
604.73	18774.41
604.926	18727.31
605.122	19028.36
605.318	18770.32
605.514	18657.68
605.71	18567.57
605.906	18561.42
606.102	18721.16
606.298	18815.37
606.494	18784.65
606.69	18835.85
606.886	19052.94
607.082	18377.11
607.278	18514.32
607.474	18364.82
607.67	18651.53
607.866	18254.23
608.062	18473.36
608.257	18520.46
608.453	18655.63
608.649	18833.8
608.845	18221.46
609.041	18131.35
609.236	18438.55
609.432	18284.95
609.628	18418.07
609.824	18301.33
610.019	18219.41
610.215	18459.02
610.411	18680.21
610.606	18510.22
610.802	18354.58
610.998	18418.07
611.193	18385.3
611.389	18377.11
611.584	18512.27
611.78	18420.11
611.976	18424.21
612.171	18528.66
612.367	18669.97
612.562	18672.01
612.758	18237.84
612.953	18002.33
613.149	18352.53
613.344	17998.23
613.539	18418.07
613.735	18088.34
613.93	18373.01
614.126	18409.87
614.321	18436.5
614.517	18276.76
614.712	18227.6
614.907	18213.27
615.103	18330
615.298	18123.16
615.493	18207.12
615.688	18024.86
615.884	18205.08
616.079	17861.02
616.274	18446.74
616.47	17947.03
616.665	18211.22
616.86	17713.56
617.055	17856.92
617.25	17787.29
617.445	17965.46
617.641	17789.34
617.836	17983.9
618.031	17871.26
618.226	17987.99
618.421	17691.04
618.616	18129.3
618.811	17789.34
619.006	17891.74
619.201	17729.95
619.396	17979.8
619.591	17258.92
619.786	17965.46
619.981	17531.3
620.176	17961.37
620.371	17590.69
620.566	17377.7
620.761	17408.42
620.956	17705.37
621.151	17109.41
621.346	17269.16
621.541	16984.49
621.735	17508.77
621.93	17103.27
622.125	17387.94
622.32	16767.4
622.515	17111.46
622.709	17072.55
622.904	17183.14
623.099	16884.14
623.294	17258.92
623.488	16945.58
623.683	16966.06
623.878	16517.55
624.072	16826.79
624.267	16624.04
624.462	16691.63
624.656	16372.14
624.851	16861.61
625.046	16568.75
625.24	16474.54
625.435	16030.13
625.629	16198.07
625.824	16544.17
626.018	16230.83
626.213	16181.68
626.407	16032.18
626.602	16331.19
626.796	16128.44
626.991	16191.92
627.185	16181.68
627.38	15761.85
627.574	16044.47
627.768	15681.98
627.963	15962.55
628.157	15724.99
628.352	15882.68
628.546	15423.94
628.74	16009.65
628.935	15542.72
629.129	15880.63
629.323	15606.2
629.517	15489.47
629.712	15491.52
629.906	15153.6
630.1	15280.58
630.294	15460.8
630.489	15421.89
630.683	15313.34
630.877	14920.13
631.071	15385.02
631.265	14932.42
631.459	15038.92
631.653	15112.64
631.848	15290.82
632.042	15065.54
632.236	14911.94
632.43	14889.42
632.624	14946.76
632.818	14860.74
633.012	14567.88
633.206	14309.84
633.4	14705.1
633.594	14336.46
633.788	14467.53
633.982	14447.05
634.176	14750.15
634.369	14363.09
634.563	14322.13
634.757	13912.53
634.951	14539.21
635.145	14148.05
635.339	14066.13
635.533	13953.49
635.726	14090.71
635.92	13498.84
636.114	13574.62
636.308	13787.61
636.501	13584.86
636.695	13650.39
636.889	13251.04
637.083	13294.05
637.276	13294.05
637.47	13060.58
637.664	13036
637.857	12964.32
638.051	13230.56
638.244	13060.58
638.438	12976.61
638.632	12784.1
638.825	12429.81
639.019	12780.01
639.212	12313.07
639.406	12659.18
639.599	12341.74
639.793	12302.83
639.986	11936.24
640.18	12204.53
640.373	11979.25
640.567	11704.82
640.76	11866.61
640.954	11764.22
641.147	11471.36
641.34	11592.19
641.534	11588.09
641.727	11399.68
641.92	11432.44
642.114	11203.07
642.307	11115.01
642.5	11192.83
642.694	10861.06
642.887	10689.03
643.08	10865.16
643.273	10770.95
643.467	10703.37
643.66	10367.5
643.853	10291.73
644.046	10160.66
644.239	10340.88
644.432	10031.63
644.626	9736.73
644.819	9796.12
645.012	9925.14
645.205	9945.62
645.398	9777.69
645.591	9763.35
645.784	9521.69
645.977	9318.94
646.17	9421.34
646.363	9275.93
646.556	9097.76
646.749	9005.6
646.942	9226.78
647.135	9093.66
647.328	9112.1
647.521	8944.16
647.714	8700.45
647.907	8639.01
648.099	8628.77
648.292	8833.57
648.485	8628.77
648.678	8280.62
648.871	8286.76
649.064	8344.11
649.256	8167.98
649.449	7991.86
649.642	7954.99
649.835	8116.78
650.027	7954.99
650.22	8094.26
650.413	7868.98
650.605	8006.19
650.798	7938.61
650.991	7662.13
651.183	7662.13
651.376	7596.6
651.568	7555.64
651.761	7490.1
651.954	7662.13
652.146	7557.69
652.339	7410.23
652.531	7412.28
652.724	7367.23
652.916	7375.42
653.109	7080.51
653.301	7232.06
653.494	7158.33
653.686	7047.74
653.879	7072.32
654.071	7135.81
654.263	6965.82
654.456	6855.23
654.648	6806.08
654.84	6728.26
655.033	6773.32
655.225	6947.39
655.417	6490.7
655.61	6701.64
655.802	6890.05
655.994	6836.8
656.186	6404.68
656.379	6566.47
656.571	6496.84
656.763	6376.01
656.955	6406.73
657.148	6251.08
657.34	6474.31
657.532	6310.47
657.724	6120.01
657.916	6242.89
658.108	6144.59
658.3	6214.22
658.492	6027.85
658.684	5640.79
658.876	6187.6
659.068	5775.95
659.26	5612.12
659.452	5780.05
659.644	5689.94
659.836	5933.65
660.028	5739.09
660.22	5358.17
660.412	5538.39
660.604	5403.22
660.796	5345.88
660.988	5200.48
661.18	5302.87
661.372	5356.12
661.563	5104.22
661.755	4993.63
661.947	5257.82
662.139	5073.5
662.331	4995.68
662.522	4774.5
662.714	4946.53
662.906	4725.35
663.097	4543.08
663.289	4528.74
663.481	4455.01
663.673	4731.49
663.864	4450.92
664.056	4405.86
664.247	4342.38
664.439	4567.65
664.631	4158.06
664.822	4258.41
665.014	4264.55
665.205	4070
665.397	3928.69
665.588	4008.56
665.78	4262.51
665.971	4051.56
666.163	3707.51
666.354	3607.16
666.546	3750.51
666.737	3885.68
666.929	3627.64
667.12	3486.33
667.311	3797.62
667.503	3447.41
667.694	3549.81
667.885	3330.68
668.077	3400.31
668.268	3172.99
668.459	3215.99
668.651	3179.13
668.842	3377.78
669.033	3170.94
669.224	3144.31
669.416	3400.31
669.607	3056.25
669.798	3052.16
669.989	2923.13
670.18	2919.04
670.371	3076.73
670.563	2706.05
670.754	2972.29
670.945	2841.22
671.136	3060.35
671.327	2787.97
671.518	2706.05
671.709	2767.49
671.9	2871.93
672.091	3068.54
672.282	2747.01
672.473	2556.55
672.664	2736.77
672.855	2665.09
673.046	2476.68
673.237	2558.6
673.428	2779.78
673.619	2855.55
673.809	2353.8
674	2540.16
674.191	2691.71
674.382	2595.46
674.573	2560.64
674.764	2372.23
674.954	2781.82
675.145	2534.02
675.336	2321.03
675.527	2361.99
675.717	2536.07
675.908	2327.18
676.099	2351.75
676.289	2271.88
676.48	2290.31
676.671	2384.52
676.861	2378.37
677.052	2237.06
677.243	2476.68
677.433	2415.24
677.624	2316.94
677.814	2202.25
678.005	2370.18
678.195	2507.4
678.386	2343.56
678.576	2126.47
678.767	2157.19
678.957	2321.03
679.148	2333.32
679.338	2318.98
679.529	2435.72
679.719	2374.28
679.909	2325.13
680.1	2194.06
680.29	2484.87
680.481	2265.74
680.671	2247.3
680.861	2292.36
681.052	2542.21
681.242	2257.54
681.432	2468.48
681.622	2269.83
681.813	2364.04
682.003	2441.86
682.193	2239.11
682.383	2493.06
682.573	2513.54
682.764	2503.3
682.954	2572.93
683.144	2738.82
683.334	2667.14
683.524	2658.95
683.714	2613.89
683.904	2708.1
684.094	2669.19
684.284	2822.78
684.474	2902.65
684.664	2740.86
684.854	2910.85
685.044	2994.81
685.234	2878.08
685.424	2896.51
685.614	2896.51
685.804	3177.08
685.994	2947.71
686.184	3271.29
686.374	3269.24
686.564	3267.19
686.753	3306.1
686.943	3385.97
687.133	3252.86
687.323	3463.8
687.513	3521.14
687.702	3437.17
687.892	3646.07
688.082	3760.75
688.272	3701.36
688.461	3656.31
688.651	4055.66
688.841	4049.52
689.03	3891.82
689.22	3930.73
689.41	4274.79
689.599	4123.24
689.789	4131.44
689.979	4223.59
690.168	4471.4
690.358	4635.24
690.547	4412.01
690.737	4631.14
690.926	4706.91
691.116	4794.98
691.305	4889.18
691.495	4711.01
691.684	4938.34
691.874	5032.54
692.063	4991.58
692.252	5036.64
692.442	5382.74
692.631	5270.11
692.82	5241.43
693.01	5304.92
693.199	5448.28
693.388	5509.72
693.578	5560.92
693.767	5745.23
693.956	5886.54
694.146	5788.24
694.335	5814.87
694.524	5720.66
694.713	6197.84
694.902	6206.03
695.092	6081.1
695.281	6142.54
695.47	6246.99
695.659	6244.94
695.848	6058.57
696.037	6296.14
696.226	6619.72
696.415	6603.33
696.604	6615.62
696.793	6472.26
696.982	6617.67
697.171	6816.32
697.36	6275.66
697.549	6543.94
697.738	6654.53
697.927	6748.74
698.116	6527.56
698.305	6853.19
698.494	6928.96
698.683	6718.02
698.872	6875.71
699.061	6603.33
699.25	7000.64
699.438	7160.38
699.627	6900.29
699.816	7060.03
700.005	7049.79
700.193	7170.62
700.382	7184.96
700.571	7129.66
700.76	7330.36
700.948	7432.76
701.137	7017.02
701.326	7295.55
701.514	7060.03
701.703	7246.4
701.892	7141.95
702.08	7144
702.269	7535.16
702.457	7363.13
702.646	7320.12
702.834	7133.76
703.023	7418.43
703.212	7500.34
703.4	7254.59
703.589	7256.64
703.777	7332.41
703.965	7238.2
704.154	7088.7
704.342	7178.81
704.531	7359.03
704.719	7518.78
704.907	7514.68
705.096	7144
705.284	7445.05
705.472	7455.29
705.661	7287.36
705.849	7178.81
706.037	7531.06
706.226	7647.8
706.414	7600.69
706.602	7209.53
706.79	7584.31
706.979	7330.36
707.167	7502.39
707.355	7031.36
707.543	7670.33
707.731	7696.95
707.919	7479.86
708.107	7363.13
708.296	7455.29
708.484	7385.66
708.672	7287.36
708.86	7195.2
709.048	7481.91
709.236	7367.23
709.424	7268.92
709.612	7295.55
709.8	7230.01
709.988	7334.46
710.176	7367.23
710.364	7369.27
710.551	7164.48
710.739	7189.05
710.927	7010.88
711.115	7131.71
711.303	7320.12
711.491	7232.06
711.679	7072.32
711.866	7010.88
712.054	7293.5
712.242	7361.08
712.43	7270.97
712.617	6912.58
712.805	7252.54
712.993	6904.39
713.181	6914.63
713.368	6951.49
713.556	6959.68
713.744	6775.36
713.931	7027.26
714.119	6713.92
714.306	6910.53
714.494	7162.43
714.682	6744.64
714.869	6611.53
715.057	7023.17
715.244	6656.58
715.432	6810.18
715.619	6695.49
715.807	6797.89
715.994	6830.66
716.182	6689.35
716.369	6672.96
716.556	6730.31
716.744	6496.84
716.931	6629.96
717.119	6484.55
717.306	6558.28
717.493	6535.75
717.681	6433.35
717.868	6410.82
718.055	6482.5
718.242	6515.27
718.43	6255.18
718.617	6314.57
718.804	6181.45
718.991	6511.18
719.179	6181.45
719.366	6232.65
719.553	6316.62
719.74	6177.36
719.927	5956.18
720.114	6156.88
720.301	5929.55
720.488	5937.74
720.676	5917.26
720.863	5999.18
721.05	6294.09
721.237	6255.18
721.424	5904.98
721.611	6027.85
721.798	5798.48
721.985	5935.7
722.172	5651.03
722.358	5794.39
722.545	6062.67
722.732	5857.87
722.919	6007.37
723.106	5741.14
723.293	5849.68
723.48	5835.35
723.667	5495.38
723.853	5667.41
724.04	5864.02
724.227	5814.87
724.414	5565.01
724.6	5626.45
724.787	5726.8
724.974	5876.3
725.161	5532.25
725.347	5282.39
725.534	5528.15
725.72	5632.6
725.907	5556.82
726.094	5448.28
726.28	5286.49
726.467	5552.73
726.653	5177.95
726.84	5380.7
727.027	5696.08
727.213	5278.3
727.4	5466.71
727.586	5282.39
727.773	5421.66
727.959	5243.48
728.145	5251.67
728.332	5139.04
728.518	5059.17
728.705	5343.83
728.891	5122.65
729.077	5091.93
729.264	4930.14
729.45	5202.52
729.636	4977.25
729.823	4911.71
730.009	5329.5
730.195	5161.56
730.382	4895.33
730.568	4813.41
730.754	5007.97
730.94	4954.72
731.126	5012.06
731.313	4749.92
731.499	4917.86
731.685	4975.2
731.871	4969.05
732.057	4788.83
732.243	5042.78
732.429	5050.97
732.615	4829.79
732.801	4786.79
732.987	4741.73
733.173	4754.02
733.359	4696.67
733.545	4641.38
733.731	4790.88
733.917	4973.15
734.103	4665.96
734.289	4663.91
734.475	4538.98
734.661	4934.24
734.847	4534.89
735.033	4538.98
735.219	4754.02
735.404	4510.31
735.59	4538.98
735.776	4364.9
735.962	4717.15
736.148	4786.79
736.333	4559.46
736.519	4369
736.705	4534.89
736.89	4506.21
737.076	4459.11
737.262	4471.4
737.447	4278.89
737.633	4325.99
737.819	4332.14
738.004	4258.41
738.19	4346.47
738.375	4369
738.561	4332.14
738.747	4115.05
738.932	4225.64
739.118	4459.11
739.303	4188.78
739.489	4221.55
739.674	4063.85
739.859	4131.44
740.045	4092.52
740.23	4084.33
740.416	3807.86
740.601	4262.51
740.786	4010.61
740.972	4004.46
741.157	3969.65
741.342	3760.75
741.528	3857.01
741.713	3879.54
741.898	3811.95
742.084	3988.08
742.269	3809.9
742.454	3805.81
742.639	4156.01
742.824	4082.28
743.01	3971.69
743.195	3746.42
743.38	3973.74
743.565	3754.61
743.75	3721.84
743.935	3635.83
744.12	3979.89
744.305	3656.31
744.49	3658.35
744.675	3678.83
744.86	3582.58
745.045	3787.38
745.23	3443.32
745.415	3543.67
745.6	3756.66
745.785	3517.04
745.97	3601.01
746.155	3441.27
746.34	3689.07
746.525	3523.19
746.71	3443.32
746.895	3256.95
747.079	3402.36
747.264	3388.02
747.449	3342.97
747.634	3408.5
747.819	3486.33
748.003	3410.55
748.188	3039.87
748.373	3254.9
748.557	3424.89
748.742	3373.69
748.927	3158.65
749.111	3179.13
749.296	3230.33
749.481	3238.52
749.665	3177.08
749.85	3046.01
750.034	3220.09
750.219	3244.67
750.404	2927.23
750.588	2980.48
750.773	3021.44
750.957	3191.42
751.141	3017.34
751.326	3066.49
751.51	2945.66
751.695	2910.85
751.879	2951.81
752.064	3066.49
752.248	2939.52
752.432	3195.51
752.617	2818.69
752.801	2857.6
752.985	2867.84
753.17	3015.29
753.354	2724.48
753.538	2804.35
753.722	2663.04
753.907	2757.25
754.091	2761.34
754.275	2773.63
754.459	2665.09
754.643	2599.55
754.828	2617.99
755.012	2437.77
755.196	2632.32
755.38	2816.64
755.564	2548.36
755.748	2468.48
755.932	2710.15
756.116	2558.6
756.3	2509.44
756.484	2519.68
756.668	2794.11
756.852	2318.98
757.036	2427.53
757.22	2364.04
757.404	2488.96
757.588	2439.81
757.772	2464.39
757.956	2495.11
758.14	2599.55
758.323	2429.57
758.507	2355.85
758.691	2134.67
758.875	2468.48
759.059	2431.62
759.242	2099.85
759.426	2214.54
759.61	2267.78
759.794	2028.17
759.977	2030.22
760.161	2378.37
760.345	2208.39
760.528	2046.6
760.712	1759.89
760.895	1954.44
761.079	1870.48
761.263	1766.03
761.446	1575.57
761.63	1598.1
761.813	1843.85
761.997	1626.77
762.18	1700.5
762.364	1800.85
762.547	1532.56
762.731	1794.7
762.914	1714.83
763.098	1497.75
763.281	1675.92
763.464	1694.35
763.648	1559.19
763.831	1550.99
764.015	1659.54
764.198	1985.16
764.381	1606.29
764.564	1594
764.748	1774.22
764.931	1841.81
765.114	1530.52
765.297	1763.98
765.481	1784.46
765.664	1788.56
765.847	1655.44
766.03	1839.76
766.213	1761.94
766.397	1938.06
766.58	1550.99
766.763	1884.81
766.946	1907.34
767.129	1858.19
767.312	1948.3
767.495	1872.53
767.678	1868.43
767.861	2007.69
768.044	1766.03
768.227	1796.75
768.41	1854.09
768.593	1968.78
768.776	1870.48
768.959	1946.25
769.142	2157.19
769.324	1874.57
769.507	1874.57
769.69	1852.05
769.873	1964.68
770.056	2280.07
770.239	1852.05
770.421	2015.88
770.604	2073.23
770.787	1794.7
770.97	1837.71
771.152	1823.37
771.335	2081.42
771.518	1733.26
771.7	1845.9
771.883	1981.07
772.066	1825.42
772.248	1903.25
772.431	1833.61
772.613	1905.29
772.796	1946.25
772.978	2046.6
773.161	1901.2
773.343	1731.22
773.526	1708.69
773.708	1710.74
773.891	1579.67
774.073	1831.57
774.256	1753.74
774.438	2108.04
774.621	1682.06
774.803	1809.04
774.985	1845.9
775.168	1847.95
775.35	1782.42
775.532	1763.98
775.715	1761.94
775.897	1796.75
776.079	1761.94
776.261	1688.21
776.444	1823.37
776.626	1690.26
776.808	1669.78
776.99	1495.7
777.173	1757.84
777.355	1682.06
777.537	1649.3
777.719	1491.6
777.901	1653.39
778.083	1557.14
778.265	1536.66
778.447	1616.53
778.629	1538.71
778.811	1659.54
778.993	1639.06
779.175	1647.25
779.357	1634.96
779.539	1448.6
779.721	1536.66
779.903	1485.46
780.085	1520.28
780.267	1622.67
780.449	1452.69
780.631	1602.19
780.812	1723.02
780.994	1442.45
781.176	1438.36
781.358	1389.21
781.54	1512.08
781.721	1616.53
781.903	1387.16
782.085	1374.87
782.267	1606.29
782.448	1292.95
782.63	1292.95
782.812	1346.2
782.993	1585.81
783.175	1514.13
783.357	1254.04
783.538	1340.05
783.72	1231.51
783.901	1397.4
784.083	1305.24
784.264	1292.95
784.446	1165.98
784.627	1235.61
784.809	1247.9
784.99	1249.94
785.172	1378.97
785.353	1258.14
785.535	1223.32
785.716	1172.12
785.897	1157.78
786.079	1297.05
786.26	1227.42
786.441	1290.9
786.623	1051.29
786.804	1159.83
786.985	1127.07
787.167	1133.21
787.348	1221.27
787.529	1278.62
787.71	1196.7
787.891	1110.68
788.073	1149.59
788.254	979.61
788.435	1176.22
788.616	985.76
788.797	1067.67
788.978	1137.31
789.159	1057.43
789.34	1137.31
789.522	1125.02
789.703	996
789.884	1069.72
790.065	1151.64
790.246	1325.72
790.427	1073.82
790.607	1010.33
790.788	1112.73
790.969	989.85
791.15	1110.68
791.331	967.32
791.512	973.47
791.693	952.99
791.874	1016.48
792.054	1139.35
792.235	981.66
792.416	901.79
792.597	916.12
792.778	1010.33
792.958	932.51
793.139	1079.96
793.32	975.52
793.5	866.97
793.681	961.18
793.862	1051.29
794.042	912.03
794.223	770.72
794.404	799.39
794.584	807.58
794.765	940.7
794.945	856.73
795.126	973.47
795.306	977.56
795.487	905.88
795.667	832.16
795.848	787.1
796.028	856.73
796.209	971.42
796.389	1096.35
796.57	793.25
796.75	740
796.93	858.78
797.111	795.29
797.291	805.53
797.471	918.17
797.652	750.24
797.832	701.09
798.012	850.59
798.192	733.86
798.373	664.22
798.553	701.09
798.733	860.83
798.913	817.82
799.093	842.4
799.274	748.19
799.454	731.81
799.634	858.78
799.814	977.56
799.994	793.25
800.174	774.81
800.354	893.6
800.534	600.74
800.714	791.2
800.894	699.04
801.074	756.38
801.254	617.12
801.434	840.35
801.614	658.08
801.794	701.09
801.974	4909.66
802.154	533.15
802.334	762.53
802.514	645.79
802.693	754.34
802.873	631.46
803.053	793.25
803.233	856.73
803.413	674.46
803.592	623.27
803.772	627.36
803.952	735.9
804.131	563.87
804.311	625.31
804.491	740
804.67	744.1
804.85	592.55
805.03	721.57
805.209	815.77
805.389	703.14
805.568	653.98
805.748	633.5
805.928	649.89
806.107	770.72
806.287	713.38
806.466	735.9
806.646	596.64
806.825	658.08
807.004	580.26
807.184	674.46
807.363	666.27
807.543	813.73
807.722	643.74
807.901	705.18
808.081	666.27
808.26	385.7
808.439	656.03
808.619	592.55
808.798	551.59
808.977	725.66
809.156	746.14
809.336	641.7
809.515	580.26
809.694	574.11
809.873	555.68
810.052	567.97
810.231	701.09
810.411	780.96
810.59	748.19
810.769	553.63
810.948	641.7
811.127	453.28
811.306	598.69
811.485	469.67
811.664	678.56
811.843	613.03
812.022	727.71
812.201	504.48
812.38	375.46
812.559	617.12
812.737	694.94
812.916	397.99
813.095	441
813.274	600.74
813.453	547.49
813.632	604.83
813.811	555.68
813.989	348.84
814.168	602.79
814.347	316.07
814.526	393.89
814.704	705.18
814.883	731.81
815.062	346.79
815.24	422.56
815.419	422.56
815.598	629.41
815.776	234.15
815.955	422.56
816.133	236.2
816.312	567.97
816.49	463.52
816.669	543.39
816.847	457.38
817.026	459.43
817.204	414.37
817.383	490.15
817.561	469.67
817.74	533.15
817.918	387.75
818.097	387.75
818.275	441
818.453	500.39
818.632	430.76
818.81	332.45
818.988	479.91
819.167	408.23
819.345	361.13
819.523	311.97
819.701	539.3
819.879	576.16
820.058	516.77
820.236	277.16
820.414	561.83
820.592	459.43
820.77	404.13
820.948	248.49
821.127	451.24
821.305	549.54
821.483	324.26
821.661	453.28
821.839	508.58
822.017	285.35
822.195	314.02
822.373	383.65
822.551	410.28
822.729	514.72
822.907	441
823.085	418.47
823.262	492.2
823.44	307.88
823.618	424.61
823.796	332.45
823.974	469.67
824.152	277.16
824.329	463.52
824.507	430.76
824.685	570.02
824.863	395.94
825.04	387.75
825.218	305.83
825.396	428.71
825.574	463.52
825.751	334.5
825.929	346.79
826.107	307.88
826.284	522.91
826.462	285.35
826.639	322.21
826.817	316.07
826.994	334.5
827.172	242.34
827.349	445.09
827.527	412.32
827.704	414.37
827.882	547.49
828.059	291.49
828.237	363.17
828.414	469.67
828.591	150.18
828.769	330.41
828.946	322.21
829.124	615.07
829.301	387.75
829.478	238.25
829.655	473.76
829.833	365.22
830.01	68.27
830.187	441
830.364	381.6
830.542	494.24
830.719	346.79
830.896	369.32
831.073	410.28
831.25	424.61
831.427	305.83
831.604	307.88
831.782	279.21
831.959	387.75
832.136	289.45
832.313	311.97
832.49	318.12
832.667	389.8
832.844	287.4
833.021	367.27
833.198	537.25
833.374	371.36
833.551	266.92
833.728	238.25
833.905	467.62
834.082	168.62
834.259	424.61
834.436	369.32
834.612	297.64
834.789	518.82
834.966	330.41
835.143	258.73
835.319	299.69
835.496	461.48
835.673	281.25
835.85	330.41
836.026	430.76
836.203	389.8
836.38	195.24
836.556	307.88
836.733	199.34
836.909	610.98
837.086	307.88
837.262	96.94
837.439	365.22
837.616	354.98
837.792	287.4
837.968	221.86
838.145	158.38
838.321	314.02
838.498	250.53
838.674	414.37
838.851	420.52
839.027	268.97
839.203	299.69
839.38	348.84
839.556	293.54
839.732	553.63
839.909	256.68
840.085	187.05
840.261	225.96
840.437	242.34
840.614	201.38
840.79	414.37
840.966	438.95
841.142	336.55
841.318	303.78
841.494	248.49
841.671	395.94
841.847	203.43
842.023	117.42
842.199	248.49
842.375	567.97
842.551	105.13
842.727	174.76
842.903	391.84
843.079	170.66
843.255	479.91
843.431	277.16
843.607	299.69
843.783	162.47
843.959	400.04
844.134	305.83
844.31	414.37
844.486	285.35
844.662	258.73
844.838	293.54
845.013	189.1
845.189	567.97
845.365	273.06
845.541	174.76
845.716	348.84
845.892	469.67
846.068	250.53
846.244	232.1
846.419	117.42
846.595	232.1
846.77	289.45
846.946	318.12
847.122	240.29
847.297	320.17
847.473	653.98
847.648	133.8
847.824	234.15
847.999	107.18
848.175	248.49
848.35	377.51
848.526	338.6
848.701	522.91
848.876	383.65
849.052	426.66
849.227	277.16
849.403	340.65
849.578	316.07
849.753	228.01
849.929	193.19
850.104	160.42
850.279	275.11
850.454	316.07
850.63	256.68
850.805	305.83
850.98	318.12
851.155	262.82
851.33	258.73
851.505	215.72
851.681	477.86
851.856	150.18
852.031	225.96
852.206	330.41
852.381	127.66
852.556	193.19
852.731	139.94
852.906	301.73
853.081	340.65
853.256	324.26
853.431	119.46
853.606	211.62
853.781	70.31
853.956	-17.75
854.131	195.24
854.305	162.47
854.48	252.58
854.655	107.18
854.83	146.09
855.005	314.02
855.18	268.97
855.354	185
855.529	146.09
855.704	234.15
855.879	404.13
856.053	74.41
856.228	176.81
856.403	115.37
856.577	307.88
856.752	105.13
856.926	207.53
857.101	385.7
857.276	228.01
857.45	232.1
857.625	234.15
857.799	338.6
857.974	264.87
858.148	-23.89
858.323	223.91
858.497	187.05
858.672	129.7
858.846	195.24
859.02	258.73
859.195	107.18
859.369	256.68
859.543	197.29
859.718	193.19
859.892	326.31
860.066	307.88
860.241	117.42
860.415	180.9
860.589	228.01
860.763	281.25
860.938	240.29
861.112	160.42
861.286	180.9
861.46	359.08
861.634	252.58
861.808	215.72
861.982	160.42
862.157	166.57
862.331	51.88
862.505	27.31
862.679	80.55
862.853	193.19
863.027	123.56
863.201	182.95
863.375	125.61
863.549	314.02
863.722	223.91
863.896	223.91
864.07	139.94
864.244	283.3
864.418	260.77
864.592	211.62
864.766	236.2
864.939	187.05
865.113	211.62
865.287	318.12
865.461	146.09
865.634	211.62
865.808	133.8
865.982	121.51
866.156	55.98
866.329	2.73
866.503	152.23
866.676	252.58
866.85	309.93
867.024	70.31
867.197	287.4
867.371	195.24
867.544	256.68
867.718	10.92
867.891	334.5
868.065	129.7
868.238	232.1
868.412	289.45
868.585	238.25
868.759	119.46
868.932	146.09
869.105	101.03
869.279	301.73
869.452	86.7
869.625	338.6
869.799	217.77
869.972	64.17
870.145	66.22
870.319	406.18
870.492	135.85
870.665	185
870.838	82.6
871.011	-87.38
871.185	207.53
871.358	121.51
871.531	346.79
871.704	125.61
871.877	256.68
872.05	90.79
872.223	6.83
872.396	322.21
872.569	377.51
872.742	37.55
872.915	178.86
873.088	174.76
873.261	84.65
873.434	236.2
873.607	141.99
873.78	477.86
873.953	115.37
874.126	180.9
874.299	137.9
874.471	133.8
874.644	144.04
874.817	285.35
874.99	334.5
875.163	213.67
875.335	260.77
875.508	103.08
875.681	250.53
875.853	137.9
876.026	244.39
876.199	318.12
876.371	98.99
876.544	174.76
876.717	228.01
876.889	88.75
877.062	207.53
877.234	55.98
877.407	78.51
877.579	187.05
877.752	223.91
877.924	275.11
878.097	322.21
878.269	141.99
878.442	146.09
878.614	309.93
878.786	223.91
878.959	105.13
879.131	172.71
879.303	-68.95
879.476	178.86
879.648	209.58
879.82	66.22
879.993	180.9
880.165	72.36
880.337	70.31
880.509	189.1
880.681	39.59
880.854	115.37
881.026	291.49
881.198	228.01
881.37	287.4
881.542	160.42
881.714	193.19
881.886	82.6
882.058	168.62
882.23	248.49
882.402	250.53
882.574	258.73
882.746	297.64
882.918	436.9
883.09	215.72
883.262	84.65
883.434	207.53
883.606	119.46
883.778	176.81
883.95	264.87
884.122	307.88
884.293	422.56
884.465	160.42
884.637	223.91
884.809	215.72
884.98	309.93
885.152	268.97
885.324	189.1
885.496	88.75
885.667	156.33
885.839	41.64
886.011	107.18
886.182	299.69
886.354	258.73
886.525	287.4
886.697	125.61
886.869	45.74
887.04	228.01
887.212	287.4
887.383	344.74
887.555	242.34
887.726	109.22
887.897	41.64
888.069	107.18
888.24	332.45
888.412	158.38
888.583	141.99
888.754	19.11
888.926	-17.75
889.097	33.45
889.268	4.78
889.44	23.21
889.611	70.31
889.782	43.69
889.953	60.07
890.125	199.34
890.296	53.93
890.467	158.38
890.638	43.69
890.809	111.27
890.98	80.55
891.151	234.15
891.323	277.16
891.494	2.73
891.665	154.28
891.836	125.61
892.007	170.66
892.178	166.57
892.349	228.01
892.52	101.03
892.691	176.81
892.862	70.31
893.032	-13.65
893.203	201.38
893.374	166.57
893.545	191.14
893.716	64.17
893.887	330.41
894.057	74.41
894.228	84.65
894.399	195.24
894.57	342.69
894.74	217.77
894.911	199.34
895.082	129.7
895.253	105.13
895.423	182.95
895.594	236.2
895.764	336.55
895.935	-21.85
896.106	209.58
896.276	15.02
896.447	195.24
896.617	43.69
896.788	8.87
896.958	35.5
897.129	94.89
897.299	49.83
897.47	264.87
897.64	182.95
897.81	162.47
897.981	309.93
898.151	137.9
898.322	191.14
898.492	199.34
898.662	2.73
898.832	74.41
899.003	94.89
899.173	273.06
899.343	146.09
899.513	-66.9
