Data from USB4F104151__10__11-50-47-448.txt Node

Date: Wed Feb 19 11:50:47 EST 2025
User: louis
Spectrometer: USB4F10415
Trigger mode: 4
Integration Time (sec): 2.250200E-1
Scans to average: 1
Electric dark correction enabled: true
Nonlinearity correction enabled: false
Boxcar width: 0
XAxis mode: Wavelengths
Number of Pixels in Spectrum: 3648
>>>>>Begin Spectral Data<<<<<
178.204	-806.39
178.424	-806.39
178.644	-806.39
178.864	-779.76
179.084	-853.49
179.304	180.73
179.524	129.53
179.744	14.85
179.964	-151.04
180.184	160.25
180.404	109.05
180.624	-280.06
180.844	-95.74
181.064	-42.5
181.283	233.98
181.503	-173.57
181.723	-85.5
181.943	-42.5
182.163	449.02
182.383	-308.73
182.602	-208.38
182.822	422.39
183.042	231.93
183.262	-202.24
183.482	-206.33
183.701	223.74
183.921	276.99
184.141	-167.42
184.361	-122.37
184.58	315.9
184.8	188.93
185.02	-214.52
185.239	-48.64
185.459	225.79
185.679	426.49
185.898	-284.16
186.118	-253.44
186.338	258.56
186.557	279.04
186.777	-275.96
186.997	-200.19
187.216	176.64
187.436	498.17
187.655	-101.89
187.875	-81.41
188.095	160.25
188.314	377.34
188.534	16.9
188.753	-259.58
188.973	385.53
189.192	408.06
189.412	-255.48
189.631	-204.28
189.851	287.23
190.07	498.17
190.29	-118.27
190.509	-157.18
190.729	162.3
190.948	422.39
191.168	-62.98
191.387	-204.28
191.607	223.74
191.826	205.31
192.045	-134.65
192.265	-146.94
192.484	287.23
192.704	240.12
192.923	-146.94
193.142	-19.97
193.362	252.41
193.581	363
193.8	-136.7
194.02	-114.17
194.239	188.93
194.458	281.08
194.678	-15.87
194.897	-290.3
195.116	324.09
195.335	256.51
195.555	-148.99
195.774	-280.06
195.993	358.91
196.212	174.59
196.432	-169.47
196.651	-214.52
196.87	160.25
197.089	424.44
197.308	-130.56
197.528	-118.27
197.747	96.77
197.966	117.25
198.185	-30.21
198.404	-212.48
198.623	311.8
198.842	295.42
199.062	-118.27
199.281	-89.6
199.5	205.31
199.719	281.08
199.938	-120.32
200.157	-167.42
200.376	367.1
200.595	428.54
200.814	-95.74
201.033	-220.67
201.252	489.98
201.471	338.43
201.69	-155.13
201.909	-187.9
202.128	289.28
202.347	248.32
202.566	-163.33
202.785	-302.59
203.004	66.05
203.223	526.84
203.442	-222.72
203.661	-273.92
203.879	315.9
204.098	340.47
204.317	-239.1
204.536	33.28
204.755	457.21
204.974	260.6
205.193	-308.73
205.411	-9.73
205.63	389.63
205.849	225.79
206.068	-198.14
206.287	-230.91
206.505	334.33
206.724	158.21
206.943	-247.29
207.162	-230.91
207.381	217.6
207.599	129.53
207.818	-134.65
208.037	-222.72
208.255	166.4
208.474	229.88
208.693	-153.09
208.911	-222.72
209.13	324.09
209.349	246.27
209.567	-71.17
209.786	-245.24
210.005	369.15
210.223	205.31
210.442	-347.64
210.661	-214.52
210.879	334.33
211.098	180.73
211.316	-157.18
211.535	-105.98
211.753	254.46
211.972	248.32
212.191	-97.79
212.409	-192
212.628	311.8
212.846	131.58
213.065	-284.16
213.283	-62.98
213.502	211.45
213.72	147.97
213.938	-237.05
214.157	-198.14
214.375	295.42
214.594	129.53
214.812	-122.37
215.031	-212.48
215.249	242.17
215.467	213.5
215.686	-159.23
215.904	-202.24
216.122	182.78
216.341	385.53
216.559	-19.97
216.778	8.7
216.996	416.25
217.214	176.64
217.432	-146.94
217.651	-220.67
217.869	213.5
218.087	172.54
218.306	-210.43
218.524	-179.71
218.742	182.78
218.96	340.47
219.179	-187.9
219.397	-175.61
219.615	625.14
219.833	285.18
220.051	-204.28
220.27	-105.98
220.488	387.58
220.706	252.41
220.924	-181.76
221.142	-245.24
221.36	197.12
221.578	182.78
221.796	-179.71
222.015	-105.98
222.233	283.13
222.451	426.49
222.669	-73.21
222.887	-62.98
223.105	66.05
223.323	162.3
223.541	-185.85
223.759	-83.45
223.977	139.77
224.195	373.24
224.413	-67.07
224.631	-153.09
224.849	258.56
225.067	535.03
225.285	-38.4
225.503	-216.57
225.721	-81.41
225.939	195.07
226.157	-136.7
226.375	39.42
226.592	147.97
226.81	86.53
227.028	27.14
227.246	-140.8
227.464	199.16
227.682	276.99
227.9	-108.03
228.117	-130.56
228.335	240.12
228.553	195.07
228.771	-187.9
228.989	-155.13
229.206	238.08
229.424	184.83
229.642	-255.48
229.86	-118.27
230.077	379.39
230.295	205.31
230.513	-73.21
230.731	-157.18
230.948	473.59
231.166	430.59
231.384	-130.56
231.601	-177.66
231.819	430.59
232.037	39.42
232.254	-99.84
232.472	-159.23
232.689	180.73
232.907	338.43
233.125	-200.19
233.342	-247.29
233.56	51.71
233.777	74.24
233.995	-105.98
234.213	-40.45
234.43	252.41
234.648	121.34
234.865	-142.85
235.083	-89.6
235.3	223.74
235.518	342.52
235.735	-97.79
235.953	-136.7
236.17	211.45
236.388	156.16
236.605	78.33
236.822	-56.83
237.04	365.05
237.257	188.93
237.475	-169.47
237.692	-140.8
237.909	422.39
238.127	49.66
238.344	25.09
238.562	-50.69
238.779	123.39
238.996	-19.97
239.214	-65.02
239.431	-77.31
239.648	115.2
239.865	190.97
240.083	-151.04
240.3	-179.71
240.517	168.45
240.735	215.55
240.952	-28.16
241.169	-200.19
241.386	231.93
241.603	113.15
241.821	-112.13
242.038	-194.05
242.255	354.81
242.472	41.47
242.689	-128.51
242.907	-171.52
243.124	242.17
243.341	215.55
243.558	-83.45
243.775	-167.42
243.992	57.86
244.209	260.6
244.426	-38.4
244.643	-105.98
244.86	61.95
245.078	330.23
245.295	-105.98
245.512	-114.17
245.729	-3.58
245.946	209.4
246.163	-118.27
246.38	-136.7
246.597	201.21
246.814	221.69
247.031	-122.37
247.248	-173.57
247.464	287.23
247.681	260.6
247.898	-142.85
248.115	37.38
248.332	70.14
248.549	424.44
248.766	8.7
248.983	-142.85
249.2	309.76
249.417	412.15
249.633	-71.17
249.85	23.04
250.067	193.02
250.284	209.4
250.501	-130.56
250.717	-177.66
250.934	111.1
251.151	276.99
251.368	-58.88
251.585	-124.41
251.801	268.8
252.018	-17.92
252.235	6.66
252.451	-185.85
252.668	66.05
252.885	279.04
253.102	-130.56
253.318	-196.09
253.535	143.87
253.752	80.38
253.968	-95.74
254.185	-208.38
254.401	317.95
254.618	317.95
254.835	-60.93
255.051	-42.5
255.268	330.23
255.484	276.99
255.701	-93.69
255.917	-83.45
256.134	129.53
256.351	201.21
256.567	-204.28
256.784	-7.68
257	-19.97
257.217	336.38
257.433	20.99
257.65	-95.74
257.866	350.71
258.082	18.94
258.299	-187.9
258.515	-93.69
258.732	174.59
258.948	107.01
259.165	-128.51
259.381	-169.47
259.597	317.95
259.814	195.07
260.03	-179.71
260.246	-140.8
260.463	369.15
260.679	244.22
260.895	-69.12
261.112	-83.45
261.328	190.97
261.544	49.66
261.761	-103.93
261.977	-130.56
262.193	49.66
262.409	301.56
262.626	-9.73
262.842	-99.84
263.058	109.05
263.274	272.89
263.49	-9.73
263.707	-204.28
263.923	297.47
264.139	-40.45
264.355	-101.89
264.571	25.09
264.787	264.7
265.004	334.33
265.22	-83.45
265.436	-116.22
265.652	182.78
265.868	274.94
266.084	-146.94
266.3	-103.93
266.516	41.47
266.732	174.59
266.948	-73.21
267.164	-243.2
267.38	313.85
267.596	272.89
267.812	-15.87
268.028	-77.31
268.244	152.06
268.46	223.74
268.676	-138.75
268.892	29.18
269.108	80.38
269.324	35.33
269.54	-52.74
269.756	-44.54
269.972	27.14
270.188	127.49
270.403	-169.47
270.619	-97.79
270.835	262.65
271.051	100.86
271.267	-108.03
271.483	-243.2
271.698	199.16
271.914	272.89
272.13	-42.5
272.346	-69.12
272.562	195.07
272.777	348.67
272.993	-69.12
273.209	-89.6
273.425	219.64
273.64	31.23
273.856	-124.41
274.072	-232.96
274.287	137.73
274.503	254.46
274.719	-11.78
274.934	-155.13
275.15	-38.4
275.366	72.19
275.581	-153.09
275.797	-54.78
276.012	160.25
276.228	31.23
276.444	-71.17
276.659	143.87
276.875	96.77
277.09	55.81
277.306	-36.35
277.521	-1.54
277.737	207.36
277.952	201.21
278.168	-69.12
278.383	-54.78
278.599	141.82
278.814	193.02
279.03	-128.51
279.245	59.9
279.461	125.44
279.676	274.94
279.892	-75.26
280.107	-138.75
280.322	80.38
280.538	285.18
280.753	-89.6
280.969	-34.3
281.184	203.26
281.399	295.42
281.615	0.51
281.83	104.96
282.045	-52.74
282.26	78.33
282.476	-54.78
282.691	57.86
282.906	197.12
283.122	78.33
283.337	-65.02
283.552	41.47
283.767	123.39
283.983	188.93
284.198	-95.74
284.413	-79.36
284.628	-67.07
284.843	127.49
285.058	-65.02
285.274	-38.4
285.489	156.16
285.704	182.78
285.919	-77.31
286.134	-50.69
286.349	104.96
286.564	96.77
286.779	-32.26
286.995	-17.92
287.21	-83.45
287.425	195.07
287.64	-38.4
287.855	88.57
288.07	113.15
288.285	213.5
288.5	49.66
288.715	-7.68
288.93	88.57
289.145	25.09
289.36	-54.78
289.575	-73.21
289.79	350.71
290.004	188.93
290.219	53.76
290.434	-38.4
290.649	135.68
290.864	180.73
291.079	-79.36
291.294	8.7
291.509	211.45
291.724	23.04
291.938	-42.5
292.153	-75.26
292.368	152.06
292.583	178.69
292.798	27.14
293.012	27.14
293.227	258.56
293.442	129.53
293.657	55.81
293.871	-36.35
294.086	203.26
294.301	340.47
294.516	29.18
294.73	100.86
294.945	80.38
295.16	170.49
295.374	-30.21
295.589	-5.63
295.804	33.28
296.018	127.49
296.233	6.66
296.447	-11.78
296.662	64
296.877	305.66
297.091	55.81
297.306	-40.45
297.52	84.48
297.735	260.6
297.949	25.09
298.164	-155.13
298.378	164.35
298.593	31.23
298.807	-24.06
299.022	-15.87
299.236	313.85
299.451	139.77
299.665	-48.64
299.88	27.14
300.094	225.79
300.309	129.53
300.523	-9.73
300.737	-85.5
300.952	258.56
301.166	141.82
301.381	-60.93
301.595	-194.05
301.809	182.78
302.024	57.86
302.238	-67.07
302.452	125.44
302.667	268.8
302.881	322.04
303.095	55.81
303.309	45.57
303.524	27.14
303.738	92.67
303.952	-36.35
304.166	39.42
304.381	-108.03
304.595	250.36
304.809	-19.97
305.023	-118.27
305.237	90.62
305.452	47.62
305.666	-34.3
305.88	25.09
306.094	195.07
306.308	98.81
306.522	-79.36
306.736	14.85
306.95	281.08
307.164	119.29
307.379	66.05
307.593	127.49
307.807	213.5
308.021	279.04
308.235	119.29
308.449	-159.23
308.663	199.16
308.877	504.31
309.091	86.53
309.305	64
309.519	-7.68
309.733	242.17
309.947	-110.08
310.161	-62.98
310.374	190.97
310.588	238.08
310.802	-54.78
311.016	-42.5
311.23	236.03
311.444	92.67
311.658	25.09
311.872	164.35
312.085	211.45
312.299	276.99
312.513	111.1
312.727	-15.87
312.941	23.04
313.154	117.25
313.368	-46.59
313.582	-5.63
313.796	147.97
314.009	125.44
314.223	141.82
314.437	137.73
314.651	260.6
314.864	33.28
315.078	-34.3
315.292	-93.69
315.505	129.53
315.719	178.69
315.933	35.33
316.146	-19.97
316.36	43.52
316.573	244.22
316.787	221.69
317.001	53.76
317.214	6.66
317.428	64
317.641	-17.92
317.855	-17.92
318.068	141.82
318.282	143.87
318.495	98.81
318.709	-77.31
318.922	139.77
319.136	358.91
319.349	90.62
319.563	-36.35
319.776	264.7
319.99	-52.74
320.203	16.9
320.417	78.33
320.63	168.45
320.843	322.04
321.057	20.99
321.27	6.66
321.483	315.9
321.697	129.53
321.91	-65.02
322.124	-5.63
322.337	197.12
322.55	-46.59
322.763	41.47
322.977	-91.65
323.19	113.15
323.403	174.59
323.617	14.85
323.83	129.53
324.043	92.67
324.256	107.01
324.469	-290.3
324.683	113.15
324.896	74.24
325.109	131.58
325.322	-161.28
325.535	39.42
325.748	342.52
325.962	51.71
326.175	43.52
326.388	-46.59
326.601	172.54
326.814	113.15
327.027	10.75
327.24	133.63
327.453	-75.26
327.666	184.83
327.879	170.49
328.092	57.86
328.305	285.18
328.518	92.67
328.731	25.09
328.944	-165.37
329.157	207.36
329.37	100.86
329.583	76.29
329.796	57.86
330.009	20.99
330.222	289.28
330.435	92.67
330.648	-22.02
330.861	217.6
331.073	203.26
331.286	33.28
331.499	-34.3
331.712	35.33
331.925	131.58
332.138	57.86
332.35	-93.69
332.563	47.62
332.776	365.05
332.989	-65.02
333.202	-48.64
333.414	154.11
333.627	117.25
333.84	-95.74
334.053	53.76
334.265	23.04
334.478	31.23
334.691	-87.55
334.903	125.44
335.116	127.49
335.329	37.38
335.541	29.18
335.754	264.7
335.966	111.1
336.179	162.3
336.392	-1.54
336.604	49.66
336.817	174.59
337.029	154.11
337.242	8.7
337.454	43.52
337.667	170.49
337.88	256.51
338.092	113.15
338.305	78.33
338.517	70.14
338.729	160.25
338.942	35.33
339.154	-112.13
339.367	27.14
339.579	209.4
339.792	-42.5
340.004	-24.06
340.217	127.49
340.429	154.11
340.641	-1.54
340.854	-83.45
341.066	186.88
341.278	293.37
341.491	152.06
341.703	-85.5
341.915	10.75
342.128	203.26
342.34	61.95
342.552	-91.65
342.764	203.26
342.977	96.77
343.189	92.67
343.401	109.05
343.613	29.18
343.826	176.64
344.038	-54.78
344.25	27.14
344.462	14.85
344.674	219.64
344.886	-3.58
345.099	78.33
345.311	168.45
345.523	68.09
345.735	-167.42
345.947	41.47
346.159	303.61
346.371	244.22
346.583	45.57
346.795	-9.73
347.007	125.44
347.219	211.45
347.431	61.95
347.643	217.6
347.855	111.1
348.067	330.23
348.279	-1.54
348.491	-65.02
348.703	322.04
348.915	190.97
349.127	-75.26
349.339	68.09
349.551	6.66
349.763	276.99
349.975	33.28
350.187	84.48
350.399	336.38
350.61	147.97
350.822	-48.64
351.034	33.28
351.246	270.84
351.458	158.21
351.669	12.8
351.881	4.61
352.093	381.43
352.305	233.98
352.517	-11.78
352.728	104.96
352.94	68.09
353.152	199.16
353.363	-146.94
353.575	16.9
353.787	430.59
353.999	246.27
354.21	143.87
354.422	-34.3
354.633	203.26
354.845	131.58
355.057	51.71
355.268	41.47
355.48	236.03
355.692	-40.45
355.903	10.75
356.115	-142.85
356.326	-79.36
356.538	354.81
356.749	47.62
356.961	176.64
357.172	158.21
357.384	45.57
357.595	213.5
357.807	8.7
358.018	111.1
358.23	102.91
358.441	-69.12
358.653	-34.3
358.864	141.82
359.075	-11.78
359.287	-46.59
359.498	37.38
359.709	281.08
359.921	215.55
360.132	59.9
360.344	-116.22
360.555	115.2
360.766	281.08
360.977	-146.94
361.189	88.57
361.4	176.64
361.611	238.08
361.823	76.29
362.034	29.18
362.245	-89.6
362.456	107.01
362.667	113.15
362.879	-140.8
363.09	301.56
363.301	207.36
363.512	-71.17
363.723	-87.55
363.935	117.25
364.146	258.56
364.357	-13.82
364.568	6.66
364.779	29.18
364.99	305.66
365.201	37.38
365.412	219.64
365.623	-38.4
365.834	180.73
366.045	115.2
366.256	53.76
366.467	229.88
366.678	166.4
366.889	-17.92
367.1	-15.87
367.311	272.89
367.522	131.58
367.733	72.19
367.944	33.28
368.155	195.07
368.366	246.27
368.577	143.87
368.788	158.21
368.999	37.38
369.209	113.15
369.42	92.67
369.631	346.62
369.842	289.28
370.053	113.15
370.264	41.47
370.474	-9.73
370.685	283.13
370.896	197.12
371.107	45.57
371.317	8.7
371.528	221.69
371.739	285.18
371.95	41.47
372.16	55.81
372.371	35.33
372.582	96.77
372.792	-52.74
373.003	131.58
373.214	252.41
373.424	238.08
373.635	47.62
373.846	145.92
374.056	174.59
374.267	123.39
374.477	76.29
374.688	-15.87
374.898	231.93
375.109	184.83
375.319	66.05
375.53	53.76
375.74	203.26
375.951	82.43
376.161	102.91
376.372	90.62
376.582	111.1
376.793	231.93
377.003	-34.3
377.214	-56.83
377.424	272.89
377.635	147.97
377.845	-28.16
378.055	145.92
378.266	-9.73
378.476	168.45
378.686	80.38
378.897	168.45
379.107	350.71
379.317	291.32
379.528	-105.98
379.738	39.42
379.948	14.85
380.158	260.6
380.369	-38.4
380.579	59.9
380.789	190.97
380.999	209.4
381.21	129.53
381.42	184.83
381.63	139.77
381.84	244.22
382.05	35.33
382.261	86.53
382.471	268.8
382.681	117.25
382.891	143.87
383.101	55.81
383.311	119.29
383.521	104.96
383.731	72.19
383.941	207.36
384.151	180.73
384.361	35.33
384.571	33.28
384.781	51.71
384.991	309.76
385.201	391.67
385.411	98.81
385.621	88.57
385.831	223.74
386.041	207.36
386.251	76.29
386.461	51.71
386.671	104.96
386.881	156.16
387.091	12.8
387.301	182.78
387.511	125.44
387.72	109.05
387.93	78.33
388.14	-73.21
388.35	246.27
388.56	250.36
388.769	23.04
388.979	25.09
389.189	70.14
389.399	289.28
389.609	-9.73
389.818	51.71
390.028	176.64
390.238	211.45
390.447	-42.5
390.657	113.15
390.867	182.78
391.076	-50.69
391.286	-5.63
391.496	-58.88
391.705	211.45
391.915	387.58
392.125	-71.17
392.334	156.16
392.544	313.85
392.753	88.57
392.963	57.86
393.172	-34.3
393.382	113.15
393.591	379.39
393.801	14.85
394.01	139.77
394.22	160.25
394.429	131.58
394.639	127.49
394.848	35.33
395.058	225.79
395.267	164.35
395.477	68.09
395.686	113.15
395.895	467.45
396.105	379.39
396.314	-17.92
396.524	2.56
396.733	131.58
396.942	274.94
397.152	16.9
397.361	152.06
397.57	180.73
397.78	76.29
397.989	100.86
398.198	240.12
398.407	164.35
398.617	102.91
398.826	51.71
399.035	29.18
399.244	217.6
399.453	236.03
399.663	-26.11
399.872	-65.02
400.081	84.48
400.29	248.32
400.499	-40.45
400.708	104.96
400.917	164.35
401.127	125.44
401.336	-32.26
401.545	246.27
401.754	338.43
401.963	309.76
402.172	72.19
402.381	33.28
402.59	205.31
402.799	119.29
403.008	190.97
403.217	86.53
403.426	266.75
403.635	-26.11
403.844	-34.3
404.053	-7.68
404.262	211.45
404.471	324.09
404.68	104.96
404.888	59.9
405.097	188.93
405.306	139.77
405.515	35.33
405.724	6.66
405.933	338.43
406.142	199.16
406.35	2.56
406.559	64
406.768	164.35
406.977	401.91
407.185	100.86
407.394	166.4
407.603	39.42
407.812	225.79
408.02	158.21
408.229	117.25
408.438	199.16
408.646	-38.4
408.855	37.38
409.064	45.57
409.272	158.21
409.481	170.49
409.69	2.56
409.898	0.51
410.107	156.16
410.315	305.66
410.524	6.66
410.733	14.85
410.941	188.93
411.15	334.33
411.358	92.67
411.567	176.64
411.775	233.98
411.984	246.27
412.192	168.45
412.401	37.38
412.609	358.91
412.818	340.47
413.026	74.24
413.234	8.7
413.443	225.79
413.651	102.91
413.86	-89.6
414.068	287.23
414.276	432.63
414.485	115.2
414.693	137.73
414.901	209.4
415.11	272.89
415.318	145.92
415.526	20.99
415.734	150.01
415.943	295.42
416.151	295.42
416.359	-11.78
416.567	150.01
416.776	276.99
416.984	252.41
417.192	264.7
417.4	57.86
417.608	111.1
417.817	25.09
418.025	156.16
418.233	113.15
418.441	143.87
418.649	29.18
418.857	104.96
419.065	172.54
419.273	150.01
419.481	246.27
419.689	109.05
419.897	31.23
420.105	96.77
420.313	375.29
420.521	102.91
420.729	96.77
420.937	203.26
421.145	98.81
421.353	70.14
421.561	213.5
421.769	340.47
421.977	131.58
422.185	102.91
422.393	59.9
422.601	299.52
422.809	209.4
423.017	119.29
423.224	31.23
423.432	322.04
423.64	154.11
423.848	109.05
424.056	16.9
424.263	358.91
424.471	186.88
424.679	238.08
424.887	20.99
425.094	463.35
425.302	303.61
425.51	-52.74
425.718	207.36
425.925	246.27
426.133	84.48
426.341	188.93
426.548	88.57
426.756	170.49
426.964	311.8
427.171	107.01
427.379	117.25
427.586	299.52
427.794	303.61
428.001	262.65
428.209	131.58
428.417	432.63
428.624	309.76
428.832	211.45
429.039	266.75
429.247	219.64
429.454	326.14
429.662	211.45
429.869	150.01
430.076	346.62
430.284	320
430.491	274.94
430.699	299.52
430.906	535.03
431.114	442.87
431.321	201.21
431.528	324.09
431.736	297.47
431.943	424.44
432.15	221.69
432.358	166.4
432.565	633.33
432.772	119.29
432.979	363
433.187	225.79
433.394	623.09
433.601	381.43
433.808	313.85
434.016	309.76
434.223	465.4
434.43	436.73
434.637	289.28
434.844	459.26
435.052	532.98
435.259	530.94
435.466	449.02
435.673	326.14
435.88	625.14
436.087	616.95
436.294	616.95
436.501	414.2
436.708	625.14
436.915	633.33
437.122	586.23
437.329	369.15
437.537	539.13
437.743	602.61
437.95	555.51
438.157	483.83
438.364	612.85
438.571	551.42
438.778	514.55
438.985	672.25
439.192	715.25
439.399	678.39
439.606	487.93
439.813	653.81
440.02	1038.83
440.227	1020.4
440.433	696.82
440.64	598.52
440.847	680.44
441.054	702.97
441.261	762.36
441.467	662.01
441.674	834.04
441.881	961.01
442.088	737.78
442.294	774.64
442.501	989.68
442.708	991.73
442.914	842.23
443.121	881.14
443.328	1069.55
443.534	1180.14
443.741	909.81
443.948	780.79
444.154	1126.89
444.361	1194.48
444.568	969.2
444.774	1069.55
444.981	1016.3
445.187	1243.63
445.394	1001.97
445.6	999.92
445.807	1300.97
446.013	1141.23
446.22	958.96
446.426	1249.77
446.633	1374.7
446.839	1589.74
447.046	1112.56
447.252	1343.98
447.459	1475.05
447.665	1321.45
447.871	1260.01
448.078	1571.3
448.284	1632.74
448.491	1704.42
448.697	1585.64
448.903	1591.78
449.11	1788.39
449.316	1636.84
449.522	1638.89
449.728	1735.14
449.935	1819.11
450.141	1925.6
450.347	1941.99
450.553	1800.68
450.76	1917.41
450.966	2124.26
451.172	2017.76
451.378	2093.54
451.584	2183.65
451.791	2453.98
451.997	2218.46
452.203	2146.78
452.409	2587.1
452.615	2482.65
452.821	2361.82
453.027	2267.61
453.233	2804.18
453.44	2413.02
453.646	2425.31
453.852	2574.81
454.058	2529.75
454.264	2671.06
454.47	2914.77
454.676	2632.15
454.882	3004.88
455.088	2834.9
455.294	2988.5
455.5	2947.54
455.705	3178.96
455.911	3000.79
456.117	2812.37
456.323	3072.47
456.529	2933.2
456.735	3006.93
456.941	3025.36
457.147	2996.69
457.352	3174.86
457.558	2990.55
457.764	3006.93
457.97	3066.32
458.176	3154.38
458.381	3162.58
458.587	3185.1
458.793	3117.52
458.999	3000.79
459.204	3162.58
459.41	3068.37
459.616	3082.7
459.821	3226.06
460.027	2789.85
460.233	3189.2
460.438	2947.54
460.644	2992.59
460.85	2982.35
461.055	3064.27
461.261	2896.34
461.466	2898.39
461.672	2783.7
461.878	2755.03
462.083	2818.52
462.289	2593.24
462.494	2816.47
462.7	2654.68
462.905	2462.17
463.111	2812.37
463.316	2998.74
463.522	2496.99
463.727	2513.37
463.932	2691.54
464.138	2761.17
464.343	2763.22
464.549	2439.64
464.754	2939.35
464.959	2884.05
465.165	2576.86
465.37	2423.26
465.575	2531.8
465.781	2460.12
465.986	2423.26
466.191	2296.28
466.397	2406.88
466.602	2544.09
466.807	2312.67
467.012	2546.14
467.218	2697.69
467.423	2361.82
467.628	2277.85
467.833	2284
468.038	2443.74
468.244	2308.57
468.449	2404.83
468.654	2370.01
468.859	2435.55
469.064	2488.79
469.269	2195.93
469.474	2292.19
469.679	2572.76
469.885	2511.32
470.09	2386.4
470.295	2376.16
470.5	2501.08
470.705	2585.05
470.91	2447.83
471.115	2382.3
471.32	2507.23
471.525	2738.65
471.73	2402.78
471.935	2415.07
472.139	2357.72
472.344	2449.88
472.549	2443.74
472.754	2496.99
472.959	2525.66
473.164	2419.16
473.369	2361.82
473.574	2531.8
473.778	2671.06
473.983	2548.19
474.188	2585.05
474.393	2480.6
474.598	2525.66
474.802	2621.91
475.007	2415.07
475.212	2365.92
475.417	2394.59
475.621	2611.67
475.826	2228.7
476.031	2372.06
476.235	2394.59
476.44	2505.18
476.645	2347.48
476.849	2402.78
477.054	2351.58
477.259	2441.69
477.463	2496.99
477.668	2490.84
477.872	2750.93
478.077	2476.51
478.282	2236.89
478.486	2298.33
478.691	2429.4
478.895	2449.88
479.1	2531.8
479.304	2419.16
479.509	2472.41
479.713	2515.42
479.918	2320.86
480.122	2327
480.326	2374.11
480.531	2501.08
480.735	2488.79
480.94	2204.13
481.144	2576.86
481.348	2472.41
481.553	2392.54
481.757	2308.57
481.961	2456.03
482.166	2550.23
482.37	2322.91
482.574	2460.12
482.778	2431.45
482.983	2560.47
483.187	2322.91
483.391	2359.77
483.595	2456.03
483.8	2621.91
484.004	2548.19
484.208	2509.27
484.412	2642.39
484.616	2734.55
484.821	2472.41
485.025	2456.03
485.229	2408.92
485.433	2646.49
485.637	2421.21
485.841	2501.08
486.045	2679.26
486.249	2879.96
486.453	2515.42
486.657	2400.73
486.861	2451.93
487.065	2707.93
487.269	2548.19
487.473	2404.83
487.677	2740.69
487.881	2988.5
488.085	2615.77
488.289	2599.38
488.493	2687.45
488.697	3027.41
488.901	2845.14
489.105	2697.69
489.309	2949.59
489.512	2974.16
489.716	2865.62
489.92	2861.52
490.124	2965.97
490.328	3140.05
490.531	2920.92
490.735	3008.98
490.939	2836.95
491.143	3025.36
491.346	2879.96
491.55	3015.12
491.754	2963.92
491.958	3092.94
492.161	3006.93
492.365	3121.62
492.569	3127.76
492.772	3064.27
492.976	3045.84
493.18	3076.56
493.383	3252.69
493.587	3250.64
493.79	3084.75
493.994	2986.45
494.197	3256.78
494.401	3158.48
494.605	3099.09
494.808	3234.25
495.012	3357.13
495.215	3641.8
495.419	3264.97
495.622	3203.54
495.825	3400.14
496.029	3373.52
496.232	3400.14
496.436	3228.11
496.639	3545.55
496.843	3539.4
497.046	3502.54
497.249	3494.35
497.453	3668.42
497.656	3465.68
497.859	3598.79
498.063	3459.53
498.266	3705.29
498.469	3520.97
498.673	3488.2
498.876	3508.68
499.079	3742.15
499.282	3654.09
499.485	3850.69
499.689	3826.12
499.892	3975.62
500.095	3920.32
500.298	3905.99
500.501	3725.77
500.705	4149.7
500.908	4168.13
501.111	3905.99
501.314	4049.35
501.517	4354.49
501.72	4260.29
501.923	4094.4
502.126	4227.52
502.329	4501.95
502.532	4354.49
502.735	4274.62
502.938	4512.19
503.141	4534.71
503.344	4387.26
503.547	4768.18
503.75	4442.56
503.953	4571.58
504.156	4848.05
504.359	4606.39
504.562	4577.72
504.765	4835.77
504.968	4925.88
505.17	4895.16
505.373	4866.49
505.576	5093.81
505.779	5026.23
505.982	5040.56
506.185	5095.86
506.387	5214.64
506.59	5298.61
506.793	5284.27
506.996	5249.46
507.198	5515.69
507.401	5706.15
507.604	5444.01
507.807	5491.12
508.009	5853.61
508.212	6029.73
508.415	5700.01
508.617	5806.5
508.82	5837.22
509.022	5910.95
509.225	5812.65
509.428	5831.08
509.63	6216.1
509.833	6089.12
510.035	6558.11
510.238	6386.08
510.44	6504.86
510.643	6744.47
510.845	6625.69
511.048	6625.69
511.25	6662.55
511.453	6887.83
511.655	7023
511.858	6873.5
512.06	7469.45
512.262	7176.59
512.465	7106.96
512.667	7344.53
512.87	7346.58
513.072	7614.86
513.274	7539.08
513.477	7508.37
513.679	7729.55
513.881	7975.3
514.084	7911.82
514.286	8053.13
514.488	8321.41
514.69	8520.06
514.893	8290.69
515.095	8407.42
515.297	8579.45
515.499	8690.04
515.701	8458.62
515.904	8966.52
516.106	9087.35
516.308	9218.42
516.51	9097.59
516.712	9216.37
516.914	9525.61
517.116	9634.16
517.318	9490.8
517.52	9693.55
517.722	10029.41
517.925	9664.88
518.127	9986.41
518.329	10336.61
518.531	10111.33
518.733	10619.23
518.935	10596.7
519.136	10738.01
519.338	10565.98
519.54	10932.57
519.742	10762.59
519.944	11311.44
520.146	11456.85
520.348	11493.71
520.55	11782.48
520.752	11665.74
520.954	11905.35
521.155	11950.41
521.357	11977.03
521.559	12400.96
521.761	12677.44
521.963	12624.19
522.164	12515.65
522.366	12652.86
522.568	12816.7
522.77	12945.72
522.971	13025.59
523.173	13003.07
523.375	13334.84
523.576	13433.14
523.778	13568.3
523.98	13527.35
524.181	14029.1
524.383	13998.38
524.584	14068.01
524.786	14147.88
524.988	13926.7
525.189	14379.3
525.391	14631.2
525.592	14573.86
525.794	14610.72
525.995	14911.77
526.197	14842.14
526.398	14924.06
526.6	15171.86
526.801	15296.79
527.003	15290.65
527.204	15188.25
527.406	15706.38
527.607	15671.57
527.808	15646.99
528.01	15552.79
528.211	15540.5
528.412	16046.35
528.614	16062.73
528.815	16158.99
529.016	16511.24
529.218	16337.16
529.419	16230.66
529.62	16042.25
529.822	16509.19
530.023	16394.5
530.224	16349.45
530.425	16591.11
530.626	16496.9
530.828	16679.17
531.029	16634.11
531.23	16613.63
531.431	16414.98
531.632	17148.15
531.833	16849.15
532.035	17217.79
532.236	16920.83
532.437	17035.52
532.638	17031.42
532.839	16902.4
533.04	17492.21
533.241	17150.2
533.442	17455.35
533.643	17129.72
533.844	17242.36
534.045	17459.45
534.246	17119.48
534.447	17361.14
534.648	17197.31
534.849	17641.71
535.05	17395.96
535.251	17406.2
535.451	17654
535.652	17602.8
535.853	17541.36
536.054	17529.08
536.255	17594.61
536.456	17473.78
536.657	17807.6
536.857	17527.03
537.058	17883.38
537.259	17819.89
537.46	17797.36
537.66	17785.07
537.861	17793.26
538.062	18000.11
538.263	17688.82
538.463	17774.83
538.664	17977.58
538.865	17989.87
539.065	17856.75
539.266	17742.07
539.466	17953.01
539.667	17901.81
539.868	18055.4
540.068	17891.57
540.269	18241.77
540.469	18262.25
540.67	17842.42
540.87	17979.63
541.071	17957.1
541.271	18163.95
541.472	17946.86
541.672	18161.9
541.873	17955.05
542.073	18026.73
542.274	18053.36
542.474	17877.23
542.675	17969.39
542.875	18235.63
543.075	18079.98
543.276	17737.97
543.476	18252.01
543.676	18243.82
543.877	18493.67
544.077	17950.96
544.277	18497.77
544.478	18211.05
544.678	18397.42
544.878	17897.71
545.078	18043.12
545.279	18159.85
545.479	18061.55
545.679	18190.57
545.879	18288.87
546.079	18536.68
546.28	17969.39
546.48	18153.71
546.68	18370.79
546.88	18215.15
547.08	18426.09
547.28	18370.79
547.48	18219.24
547.68	18933.98
547.88	18315.5
548.081	18581.73
548.281	18202.86
548.481	18458.85
548.681	18594.02
548.881	18731.23
549.081	18735.33
549.28	18284.78
549.48	18565.35
549.68	18602.21
549.88	18872.54
550.08	18333.93
550.28	18802.91
550.48	18508.01
550.68	18632.93
550.88	18600.16
551.08	18186.47
551.279	18634.98
551.479	18667.75
551.679	18720.99
551.879	18391.27
552.079	18712.8
552.278	18462.95
552.478	18936.03
552.678	18526.44
552.878	18708.71
553.077	18610.4
553.277	18407.66
553.477	18819.3
553.676	18694.37
553.876	18841.82
554.076	18800.87
554.275	18778.34
554.475	17901.81
554.674	18786.53
554.874	18448.61
555.074	18626.79
555.273	18503.91
555.473	18694.37
555.672	18471.14
555.872	18364.65
556.071	18645.22
556.271	18880.74
556.47	18401.51
556.67	18135.28
556.869	18338.02
557.068	18401.51
557.268	18546.92
557.467	18200.81
557.667	18206.95
557.866	18430.18
558.065	18370.79
558.265	18292.97
558.464	18249.96
558.663	18448.61
558.863	18383.08
559.062	18352.36
559.261	17672.43
559.461	18438.37
559.66	17780.98
559.859	17955.05
560.058	17631.47
560.258	18041.07
560.457	18055.4
560.656	18184.43
560.855	17885.42
561.054	18381.03
561.253	17795.31
561.453	17922.29
561.652	17660.15
561.851	17922.29
562.05	17787.12
562.249	17047.8
562.448	17830.13
562.647	17105.15
562.846	17764.59
563.045	17469.69
563.244	17115.39
563.443	17424.63
563.642	17324.28
563.841	17318.14
564.04	16933.12
564.239	17047.8
564.438	16920.83
564.637	16972.03
564.836	16902.4
565.035	16736.51
565.234	16818.43
565.432	16595.2
565.631	16789.76
565.83	16705.79
566.029	16324.87
566.228	16797.95
566.427	16531.72
566.625	16060.68
566.824	16314.63
567.023	16226.57
567.222	15900.94
567.42	16269.58
567.619	16021.77
567.818	16029.96
568.016	16070.92
568.215	15925.52
568.414	15982.86
568.612	15880.46
568.811	15745.3
569.01	15659.28
569.208	15550.74
569.407	15470.87
569.605	15540.5
569.804	15679.76
570.002	15511.83
570.201	15300.89
570.4	15264.02
570.598	14993.69
570.797	15061.27
570.995	14836
571.193	14782.75
571.392	14973.21
571.59	14412.07
571.789	14752.03
571.987	14586.15
572.186	14715.17
572.384	14477.6
572.582	14285.09
572.781	14663.97
572.979	14117.16
573.177	14199.08
573.376	14586.15
573.574	14016.81
573.772	14211.37
573.971	13840.68
574.169	13797.68
574.367	13785.39
574.565	13861.16
574.763	13648.18
574.962	13777.2
575.16	13726
575.358	13809.97
575.556	13570.35
575.754	13226.29
575.952	13146.42
576.151	13349.17
576.349	13375.8
576.547	13107.51
576.745	13183.29
576.943	13226.29
577.141	13054.26
577.339	12978.49
577.537	12964.15
577.735	13216.05
577.933	13066.55
578.131	12892.48
578.329	12958.01
578.527	12880.19
578.725	12919.1
578.923	12585.28
579.121	12544.32
579.319	12495.17
579.516	12679.49
579.714	12745.02
579.912	12730.69
580.11	12187.97
580.308	12599.62
580.506	12261.7
580.704	12259.65
580.901	12366.15
581.099	12671.29
581.297	12407.11
581.495	12271.94
581.692	12173.64
581.89	12204.36
582.088	12319.04
582.285	12034.38
582.483	12171.59
582.681	12097.86
582.878	12122.44
583.076	11782.48
583.274	12204.36
583.471	11999.56
583.669	12001.61
583.866	11436.37
584.064	12046.66
584.262	11667.79
584.459	11786.57
584.657	11700.56
584.854	12048.71
585.052	11430.23
585.249	11594.06
585.447	11657.55
585.644	11364.69
585.841	11655.5
586.039	11616.59
586.236	11266.39
586.434	11174.23
586.631	11133.27
586.828	11155.8
587.026	11209.04
587.223	11016.54
587.42	11313.49
587.618	11436.37
587.815	11110.74
588.012	11172.18
588.21	10951
588.407	11233.62
588.604	11004.25
588.801	11049.3
588.999	11051.35
589.196	11114.84
589.393	10805.6
589.59	11090.26
589.787	11063.64
589.984	10715.48
590.182	10858.84
590.379	10932.57
590.576	10836.31
590.773	10797.4
590.97	10508.64
591.167	10920.28
591.364	10635.61
591.561	10938.71
591.758	10717.53
591.955	11010.39
592.152	10912.09
592.349	10836.31
592.546	10516.83
592.743	10608.99
592.94	10615.13
593.137	10568.03
593.334	10617.18
593.531	10711.39
593.727	10670.43
593.924	10518.88
594.121	10379.62
594.318	10561.89
594.515	10525.02
594.712	10701.15
594.908	10385.76
595.105	10363.23
595.302	10533.22
595.499	10543.46
595.696	10305.89
595.892	10451.3
596.089	10627.42
596.286	10281.32
596.482	10459.49
596.679	10484.06
596.876	10365.28
597.072	10058.09
597.269	10346.85
597.466	10475.87
597.662	10209.64
597.859	10271.08
598.055	10314.08
598.252	10441.06
598.448	10369.38
598.645	10230.12
598.841	10252.64
599.038	10430.82
599.234	10525.02
599.431	10189.16
599.627	10129.77
599.824	10445.15
600.02	10047.85
600.217	10105.19
600.413	10070.37
600.609	10172.77
600.806	10369.38
601.002	10094.95
601.198	9816.43
601.395	10244.45
601.591	10062.18
601.787	10097
601.984	9853.29
602.18	10312.03
602.376	10092.9
602.572	10271.08
602.769	10293.6
602.965	9965.93
603.161	9957.74
603.357	9959.78
603.553	10010.98
603.75	10162.53
603.946	10090.85
604.142	10047.85
604.338	9841
604.534	9992.55
604.73	10058.09
604.926	9898.34
605.122	9947.5
605.318	10074.47
605.514	9867.63
605.71	9613.68
605.906	9927.02
606.102	10056.04
606.298	10076.52
606.494	9933.16
606.69	10023.27
606.886	9857.39
607.082	9943.4
607.278	9621.87
607.474	9824.62
607.67	9890.15
607.866	9648.49
608.062	9806.19
608.257	9679.21
608.453	9722.22
608.649	9722.22
608.845	9525.61
609.041	9736.56
609.236	9793.9
609.432	9896.3
609.628	9539.95
609.824	9619.82
610.019	9597.29
610.215	9763.18
610.411	9804.14
610.606	9656.68
610.802	9810.28
610.998	9726.32
611.193	9621.87
611.389	9501.04
611.584	9769.32
611.78	9501.04
611.976	9607.53
612.171	9722.22
612.367	9603.44
612.562	9576.81
612.758	9490.8
612.953	9351.54
613.149	9650.54
613.344	9644.4
613.539	9597.29
613.735	9603.44
613.93	9769.32
614.126	9417.07
614.321	9568.62
614.517	9519.47
614.712	9562.48
614.907	9673.07
615.103	9431.41
615.298	9275.76
615.493	9480.56
615.688	9378.16
615.884	9367.92
616.079	9232.76
616.274	9564.53
616.47	9148.79
616.665	9435.5
616.86	9271.67
617.055	9294.19
617.25	9173.36
617.445	9478.51
617.641	9126.26
617.836	9324.91
618.031	9126.26
618.226	9279.86
618.421	9116.02
618.616	9384.3
618.811	9210.23
619.006	9015.67
619.201	9044.34
619.396	9118.07
619.591	8933.75
619.786	9228.66
619.981	8960.38
620.176	9458.03
620.371	8780.15
620.566	8939.9
620.761	9056.63
620.956	9058.68
621.151	8872.31
621.346	9021.81
621.541	8677.76
621.735	9103.73
621.93	8829.31
622.125	8874.36
622.32	8692.09
622.515	8819.07
622.709	8673.66
622.904	8841.59
623.099	8724.86
623.294	8927.61
623.488	8857.98
623.683	8698.24
623.878	8419.71
624.072	8743.29
624.267	8522.11
624.462	8380.8
624.656	8350.08
624.851	8540.54
625.046	8513.92
625.24	8429.95
625.435	8161.67
625.629	8628.6
625.824	8440.19
626.018	8495.49
626.213	8163.72
626.407	8429.95
626.602	8290.69
626.796	8264.07
626.991	8214.91
627.185	8231.3
627.38	8214.91
627.574	8110.47
627.768	8282.5
627.963	8114.56
628.157	8094.08
628.352	8083.84
628.546	7936.39
628.74	8165.76
628.935	7920.01
629.129	8153.48
629.323	8104.32
629.517	7723.4
629.712	8012.17
629.906	8003.97
630.1	7977.35
630.294	7983.49
630.489	7903.62
630.683	7784.84
630.877	7704.97
631.071	7965.06
631.265	7588.24
631.459	7719.31
631.653	7496.08
631.848	7874.95
632.042	7614.86
632.236	7467.41
632.43	7469.45
632.624	7602.57
632.818	7602.57
633.012	7500.17
633.206	7371.15
633.4	7670.15
633.594	7559.56
633.788	7584.14
633.982	7274.9
634.176	7688.59
634.369	7389.58
634.563	7303.57
634.757	7258.51
634.951	7377.3
635.145	7346.58
635.339	7096.72
635.533	7143.83
635.726	7227.79
635.92	7068.05
636.114	7020.95
636.308	6758.81
636.501	6945.17
636.695	6949.27
636.889	6615.45
637.083	6723.99
637.276	6865.3
637.47	6515.1
637.664	6646.17
637.857	6525.34
638.051	6539.68
638.244	6783.38
638.438	6314.4
638.632	6392.22
638.825	6220.19
639.019	6447.52
639.212	6033.83
639.406	6267.3
639.599	6064.55
639.793	6125.99
639.986	5847.46
640.18	6054.31
640.373	5931.43
640.567	5994.92
640.76	5990.82
640.954	5732.78
641.147	5818.79
641.34	5757.35
641.534	5624.23
641.727	5648.81
641.92	5685.67
642.114	5685.67
642.307	5435.82
642.5	5480.88
642.694	5202.35
642.887	5347.76
643.08	5380.53
643.273	5118.39
643.467	5147.06
643.66	5087.67
643.853	5050.8
644.046	4993.46
644.239	5028.28
644.432	4700.6
644.626	4600.25
644.819	4680.12
645.012	4831.67
645.205	4854.2
645.398	4858.29
645.591	4637.11
645.784	4561.34
645.977	4620.73
646.17	4571.58
646.363	4336.06
646.556	4536.76
646.749	4241.86
646.942	4436.41
647.135	4317.63
647.328	4317.63
647.521	4493.76
647.714	4168.13
647.907	4153.79
648.099	4200.9
648.292	4319.68
648.485	4098.5
648.678	3967.43
648.871	4069.83
649.064	3928.52
649.256	3916.23
649.449	3865.03
649.642	3881.41
649.835	3920.32
650.027	3656.14
650.22	3842.5
650.413	3844.55
650.605	3887.56
650.798	3805.64
650.991	3617.22
651.183	3889.6
651.376	3887.56
651.568	3596.75
651.761	3647.94
651.954	3801.54
652.146	3684.81
652.339	3494.35
652.531	3582.41
652.724	3602.89
652.916	3504.59
653.109	3394
653.301	3480.01
653.494	3668.42
653.686	3600.84
653.879	3613.13
654.071	3547.59
654.263	3502.54
654.456	3412.43
654.648	3428.81
654.84	3555.79
655.033	3492.3
655.225	3561.93
655.417	3201.49
655.61	3537.35
655.802	3492.3
655.994	3518.92
656.186	3332.56
656.379	3244.49
656.571	3299.79
656.763	3127.76
656.955	3207.63
657.148	3168.72
657.34	3355.08
657.532	3185.1
657.724	3068.37
657.916	3191.25
658.108	3326.41
658.3	3187.15
658.492	3201.49
658.684	2929.11
658.876	3217.87
659.068	2982.35
659.26	2851.28
659.452	2898.39
659.644	3013.07
659.836	3301.84
660.028	2943.44
660.22	2859.48
660.412	2990.55
660.604	2841.04
660.796	2871.76
660.988	2841.04
661.18	2939.35
661.372	3004.88
661.563	2820.56
661.755	2572.76
661.947	2769.37
662.139	2736.6
662.331	2892.24
662.522	2693.59
662.714	2712.02
662.906	2494.94
663.097	2658.78
663.289	2392.54
663.481	2419.16
663.673	2697.69
663.864	2521.56
664.056	2648.54
664.247	2425.31
664.439	2691.54
664.631	2421.21
664.822	2488.79
665.014	2488.79
665.205	2423.26
665.397	2304.48
665.588	2372.06
665.78	2494.94
665.971	2521.56
666.163	2261.47
666.354	2370.01
666.546	2222.56
666.737	2251.23
666.929	2251.23
667.12	2204.13
667.311	2505.18
667.503	2302.43
667.694	2290.14
667.885	2230.75
668.077	2353.63
668.268	2128.35
668.459	2165.21
668.651	2228.7
668.842	2372.06
669.033	2228.7
669.224	1984.99
669.416	2329.05
669.607	2154.98
669.798	2034.14
669.989	2142.69
670.18	1954.27
670.371	2292.19
670.563	2077.15
670.754	2191.84
670.945	2118.11
671.136	2261.47
671.327	2144.74
671.518	2163.17
671.709	2200.03
671.9	2261.47
672.091	2320.86
672.282	1960.42
672.473	2030.05
672.664	2157.02
672.855	2165.21
673.046	1950.18
673.237	2134.5
673.428	2163.17
673.619	2275.81
673.809	1870.31
674	2013.67
674.191	2169.31
674.382	2169.31
674.573	2056.67
674.764	1999.33
674.954	2265.57
675.145	2064.86
675.336	1941.99
675.527	1976.8
675.717	2120.16
675.908	2077.15
676.099	2023.91
676.289	1944.03
676.48	1964.51
676.671	2320.86
676.861	1993.19
677.052	1935.84
677.243	2064.86
677.433	1980.9
677.624	2003.43
677.814	2097.63
678.005	2111.97
678.195	2269.66
678.386	1901.03
678.576	2017.76
678.767	1919.46
678.957	2197.98
679.148	2247.13
679.338	2136.54
679.529	2284
679.719	2064.86
679.909	2193.89
680.1	2089.44
680.29	2329.05
680.481	2077.15
680.671	2130.4
680.861	2120.16
681.052	2310.62
681.242	2058.72
681.432	2310.62
681.622	2126.3
681.813	2081.25
682.003	2093.54
682.193	2032.1
682.383	2179.55
682.573	2316.76
682.764	2312.67
682.954	2240.99
683.144	2427.35
683.334	2214.37
683.524	2316.76
683.714	2345.44
683.904	2218.46
684.094	2384.35
684.284	2378.2
684.474	2339.29
684.664	2376.16
684.854	2478.55
685.044	2398.68
685.234	2431.45
685.424	2376.16
685.614	2419.16
685.804	2750.93
685.994	2408.92
686.184	2523.61
686.374	2703.83
686.564	2503.13
686.753	2523.61
686.943	2359.77
687.133	2570.71
687.323	2613.72
687.513	2539.99
687.702	2488.79
687.892	2542.04
688.082	2599.38
688.272	2546.14
688.461	2728.41
688.651	2818.52
688.841	2857.43
689.03	2638.3
689.22	2644.44
689.41	2927.06
689.599	2839
689.789	2824.66
689.979	3006.93
690.168	3011.03
690.358	3017.17
690.547	2820.56
690.737	2906.58
690.926	3064.27
691.116	3107.28
691.305	3097.04
691.495	3084.75
691.684	3008.98
691.874	3193.3
692.063	3029.46
692.252	3146.19
692.442	3461.58
692.631	3293.65
692.82	3217.87
693.01	3375.56
693.199	3508.68
693.388	3543.5
693.578	3496.39
693.767	3488.2
693.956	3822.02
694.146	3537.35
694.335	3695.05
694.524	3598.79
694.713	3946.95
694.902	3701.19
695.092	3846.6
695.281	3897.8
695.47	3946.95
695.659	4022.72
695.848	3918.28
696.037	3961.28
696.226	4225.47
696.415	4137.41
696.604	4362.69
696.793	4250.05
696.982	4282.81
697.171	4553.15
697.36	4288.96
697.549	4323.77
697.738	4368.83
697.927	4504
698.116	4620.73
698.305	4630.97
698.494	4747.7
698.683	4647.35
698.872	4688.31
699.061	4645.31
699.25	4956.6
699.438	4813.24
699.627	4936.12
699.816	4966.84
700.005	4942.26
700.193	4979.12
700.382	5224.88
700.571	5075.38
700.76	5468.59
700.948	5300.66
701.137	5093.81
701.326	5204.4
701.514	5212.59
701.703	5380.53
701.892	5335.47
702.08	5540.27
702.269	5509.55
702.457	5411.25
702.646	5308.85
702.834	5294.51
703.023	5790.12
703.212	5648.81
703.4	5573.03
703.589	5482.92
703.777	5642.67
703.965	5525.93
704.154	5638.57
704.342	5552.56
704.531	5849.51
704.719	5792.17
704.907	5831.08
705.096	5839.27
705.284	5751.21
705.472	6009.25
705.661	5804.46
705.849	5962.15
706.037	6287.78
706.226	6158.75
706.414	5882.28
706.602	5902.76
706.79	6422.94
706.979	6080.93
707.167	6070.69
707.355	6101.41
707.543	6195.62
707.731	6312.35
707.919	6089.12
708.107	5902.76
708.296	6134.18
708.484	6111.65
708.672	6173.09
708.86	6121.89
709.048	6298.02
709.236	6173.09
709.424	6173.09
709.612	6224.29
709.8	6173.09
709.988	6187.43
710.176	6269.34
710.364	6359.45
710.551	6257.06
710.739	6117.79
710.927	6195.62
711.115	6113.7
711.303	6332.83
711.491	6373.79
711.679	6123.94
711.866	6250.91
712.054	6490.52
712.242	6230.43
712.43	6435.23
712.617	6283.68
712.805	6459.81
712.993	6338.98
713.181	6025.64
713.368	6275.49
713.556	6361.5
713.744	6203.81
713.931	6461.85
714.119	6257.06
714.306	6359.45
714.494	6406.56
714.682	5978.53
714.869	6048.16
715.057	6422.94
715.244	6144.42
715.432	6486.43
715.619	6207.91
715.807	6259.1
715.994	6199.71
716.182	6121.89
716.369	6179.23
716.556	6381.98
716.744	6257.06
716.931	6128.03
717.119	6302.11
717.306	6418.85
717.493	6379.93
717.681	6193.57
717.868	6338.98
718.055	6318.5
718.242	6191.52
718.43	6193.57
718.617	6171.04
718.804	6197.67
718.991	6410.65
719.179	6093.22
719.366	6152.61
719.553	6338.98
719.74	6156.71
719.927	5982.63
720.114	6101.41
720.301	6072.74
720.488	5984.68
720.676	5884.33
720.863	6177.19
721.05	6365.6
721.237	6146.47
721.424	6177.19
721.611	6003.11
721.798	5767.59
721.985	6027.68
722.172	6074.79
722.358	5929.38
722.545	6138.27
722.732	6156.71
722.919	6119.84
723.106	5958.05
723.293	6232.48
723.48	5931.43
723.667	5675.43
723.853	5790.12
724.04	6285.73
724.227	6113.7
724.414	5831.08
724.6	5716.39
724.787	6109.6
724.974	6111.65
725.161	5810.6
725.347	5671.34
725.534	5982.63
725.72	5863.85
725.907	5986.72
726.094	5667.24
726.28	5759.4
726.467	5663.15
726.653	5521.84
726.84	5683.63
727.027	6078.88
727.213	5863.85
727.4	5839.27
727.586	5839.27
727.773	5927.33
727.959	5775.78
728.145	5751.21
728.332	5560.75
728.518	5573.03
728.705	5853.61
728.891	5415.34
729.077	5814.7
729.264	5581.23
729.45	5554.6
729.636	5523.88
729.823	5460.4
730.009	5767.59
730.195	5618.09
730.382	5607.85
730.568	5431.73
730.754	5597.61
730.94	5392.81
731.126	5513.64
731.313	5527.98
731.499	5638.57
731.685	5652.91
731.871	5464.49
732.057	5321.13
732.243	5636.52
732.429	5511.6
732.615	5386.67
732.801	5382.57
732.987	5403.05
733.173	5403.05
733.359	5183.92
733.545	5333.42
733.731	5333.42
733.917	5491.12
734.103	5274.03
734.289	5362.09
734.475	5249.46
734.661	5513.64
734.847	5136.82
735.033	5249.46
735.219	5308.85
735.404	5257.65
735.59	5175.73
735.776	5196.21
735.962	5448.11
736.148	5288.37
736.333	5165.49
736.519	5065.14
736.705	5185.97
736.89	4975.03
737.076	5022.13
737.262	4954.55
737.447	4860.34
737.633	5087.67
737.819	4891.06
738.004	4921.78
738.19	5099.95
738.375	5073.33
738.561	4989.36
738.747	4759.99
738.932	4948.4
739.118	5038.52
739.303	4848.05
739.489	4798.9
739.674	4907.45
739.859	4956.6
740.045	4733.37
740.23	4739.51
740.416	4538.81
740.601	4886.97
740.786	4657.59
740.972	4561.34
741.157	4663.74
741.342	4532.67
741.528	4491.71
741.713	4628.92
741.898	4499.9
742.084	4710.84
742.269	4688.31
742.454	4618.68
742.639	4819.38
742.824	4592.06
743.01	4571.58
743.195	4487.61
743.38	4426.17
743.565	4508.09
743.75	4348.35
743.935	4383.17
744.12	4585.91
744.305	4217.28
744.49	4485.56
744.675	4276.67
744.86	4299.2
745.045	4506.04
745.23	4004.29
745.415	4116.93
745.6	4340.16
745.785	4248
745.97	4190.66
746.155	4000.19
746.34	4387.26
746.525	4229.57
746.71	4100.55
746.895	3914.18
747.079	3922.37
747.264	4030.91
747.449	4078.02
747.634	3860.93
747.819	3963.33
748.003	4000.19
748.188	3723.72
748.373	3914.18
748.557	4045.25
748.742	3848.65
748.927	3697.1
749.111	3695.05
749.296	3695.05
749.481	3805.64
749.665	3707.34
749.85	3604.94
750.034	3793.35
750.219	3830.21
750.404	3486.15
750.588	3424.72
750.773	3557.83
750.957	3602.89
751.141	3461.58
751.326	3611.08
751.51	3334.61
751.695	3510.73
751.879	3381.71
752.064	3545.55
752.248	3424.72
752.432	3598.79
752.617	3279.31
752.801	3416.52
752.985	3236.3
753.17	3391.95
753.354	3164.62
753.538	3176.91
753.722	3254.73
753.907	3140.05
754.091	3109.33
754.275	3127.76
754.459	3078.61
754.643	3047.89
754.828	3094.99
755.012	3039.7
755.196	3029.46
755.38	3088.85
755.564	2931.16
755.748	2816.47
755.932	3097.04
756.116	2976.21
756.3	2910.68
756.484	2728.41
756.668	3164.62
756.852	2697.69
757.036	2808.28
757.22	2759.13
757.404	2767.32
757.588	2769.37
757.772	2875.86
757.956	2748.89
758.14	2943.44
758.323	2615.77
758.507	2714.07
758.691	2580.95
758.875	2826.71
759.059	2894.29
759.242	2431.45
759.426	2550.23
759.61	2593.24
759.794	2427.35
759.977	2539.99
760.161	2759.13
760.345	2750.93
760.528	2527.71
760.712	2320.86
760.895	2378.2
761.079	2451.93
761.263	2130.4
761.446	2177.5
761.63	2165.21
761.813	2261.47
761.997	2146.78
762.18	2202.08
762.364	2206.17
762.547	2050.53
762.731	2202.08
762.914	2107.87
763.098	1970.66
763.281	2169.31
763.464	2144.74
763.648	2144.74
763.831	2040.29
764.015	2132.45
764.198	2253.28
764.381	2109.92
764.564	2011.62
764.748	2269.66
764.931	2290.14
765.114	2068.96
765.297	2138.59
765.481	2056.67
765.664	2075.1
765.847	1890.79
766.03	2056.67
766.213	2136.54
766.397	2163.17
766.58	1878.5
766.763	2071.01
766.946	2013.67
767.129	2036.19
767.312	2011.62
767.495	2036.19
767.678	2152.93
767.861	2202.08
768.044	1960.42
768.227	2095.58
768.41	2091.49
768.593	2187.74
768.776	2150.88
768.959	1968.61
769.142	2290.14
769.324	2048.48
769.507	2036.19
769.69	2009.57
769.873	2118.11
770.056	2408.92
770.239	1950.18
770.421	2105.82
770.604	2107.87
770.787	2077.15
770.97	2025.95
771.152	1790.44
771.335	2228.7
771.518	1835.49
771.7	1948.13
771.883	2044.38
772.066	1901.03
772.248	2060.77
772.431	1946.08
772.613	1890.79
772.796	1980.9
772.978	1964.51
773.161	1989.09
773.343	1810.92
773.526	1835.49
773.708	1792.48
773.891	1718.76
774.073	1729
774.256	1790.44
774.438	2042.34
774.621	1722.85
774.803	1874.4
774.985	1833.44
775.168	1956.32
775.35	1726.95
775.532	1815.01
775.715	1880.55
775.897	1862.12
776.079	1720.81
776.261	1704.42
776.444	1741.29
776.626	1804.77
776.808	1636.84
776.99	1399.27
777.173	1704.42
777.355	1700.33
777.537	1606.12
777.719	1546.73
777.901	1628.65
778.083	1597.93
778.265	1628.65
778.447	1602.02
778.629	1636.84
778.811	1550.82
778.993	1579.5
779.175	1448.43
779.357	1597.93
779.539	1436.14
779.721	1448.43
779.903	1438.19
780.085	1524.2
780.267	1563.11
780.449	1403.37
780.631	1542.63
780.812	1620.46
780.994	1481.19
781.176	1364.46
781.358	1298.92
781.54	1460.71
781.721	1489.39
781.903	1294.83
782.085	1268.2
782.267	1597.93
782.448	1237.49
782.63	1307.12
782.812	1366.51
782.993	1407.47
783.175	1391.08
783.357	1251.82
783.538	1356.27
783.72	1290.73
783.901	1260.01
784.083	1315.31
784.264	1253.87
784.446	1198.57
784.627	1143.28
784.809	1294.83
784.99	981.49
785.172	1321.45
785.353	1190.38
785.535	1079.79
785.716	1049.07
785.897	1077.74
786.079	1260.01
786.26	1233.39
786.441	1161.71
786.623	1012.21
786.804	1042.93
786.985	1077.74
787.167	1106.42
787.348	1153.52
787.529	1057.26
787.71	1012.21
787.891	1085.94
788.073	926.19
788.254	924.15
788.435	1221.1
788.616	981.49
788.797	969.2
788.978	942.58
789.159	985.58
789.34	1075.7
789.522	1094.13
789.703	883.19
789.884	975.35
790.065	1071.6
790.246	1288.68
790.427	971.25
790.607	1075.7
790.788	1022.45
790.969	926.19
791.15	1040.88
791.331	961.01
791.512	936.43
791.693	819.7
791.874	817.65
792.054	1073.65
792.235	891.38
792.416	788.98
792.597	762.36
792.778	907.76
792.958	883.19
793.139	1020.4
793.32	870.9
793.5	711.16
793.681	1008.11
793.862	950.77
794.042	860.66
794.223	705.01
794.404	745.97
794.584	705.01
794.765	868.85
794.945	756.21
795.126	793.08
795.306	999.92
795.487	778.74
795.667	653.81
795.848	778.74
796.028	844.28
796.209	850.42
796.389	860.66
796.57	735.73
796.75	748.02
796.93	774.64
797.111	698.87
797.291	678.39
797.471	915.95
797.652	817.65
797.832	637.43
798.012	731.64
798.192	672.25
798.373	571.9
798.553	733.68
798.733	801.27
798.913	680.44
799.093	770.55
799.274	602.61
799.454	778.74
799.634	797.17
799.814	813.56
799.994	649.72
800.174	653.81
800.354	748.02
800.534	457.21
800.714	735.73
800.894	461.3
801.074	516.6
801.254	588.28
801.434	756.21
801.614	623.09
801.794	492.02
801.974	5607.85
802.154	498.17
802.334	713.21
802.514	541.18
802.693	606.71
802.873	467.45
803.053	729.59
803.233	711.16
803.413	553.46
803.592	473.59
803.772	582.14
803.952	623.09
804.131	528.89
804.311	623.09
804.491	645.62
804.67	543.22
804.85	457.21
805.03	637.43
805.209	684.53
805.389	578.04
805.568	514.55
805.748	461.3
805.928	612.85
806.107	686.58
806.287	627.19
806.466	588.28
806.646	580.09
806.825	608.76
807.004	627.19
807.184	537.08
807.363	571.9
807.543	623.09
807.722	504.31
807.901	623.09
808.081	541.18
808.26	324.09
808.439	532.98
808.619	442.87
808.798	428.54
808.977	616.95
809.156	719.35
809.336	549.37
809.515	492.02
809.694	481.78
809.873	451.07
810.052	434.68
810.231	575.99
810.411	532.98
810.59	682.49
810.769	494.07
810.948	539.13
811.127	309.76
811.306	500.22
811.485	315.9
811.664	580.09
811.843	512.5
812.022	573.94
812.201	406.01
812.38	375.29
812.559	469.5
812.737	498.17
812.916	393.72
813.095	367.1
813.274	549.37
813.453	492.02
813.632	479.74
813.811	473.59
813.989	322.04
814.168	432.63
814.347	283.13
814.526	223.74
814.704	539.13
814.883	639.48
815.062	289.28
815.24	352.76
815.419	291.32
815.598	483.83
815.776	174.59
815.955	346.62
816.133	268.8
816.312	393.72
816.49	330.23
816.669	328.19
816.847	393.72
817.026	414.2
817.204	301.56
817.383	320
817.561	332.28
817.74	498.17
817.918	381.43
818.097	258.56
818.275	209.4
818.453	434.68
818.632	424.44
818.81	377.34
818.988	279.04
819.167	252.41
819.345	299.52
819.523	213.5
819.701	453.11
819.879	457.21
820.058	356.86
820.236	272.89
820.414	408.06
820.592	418.3
820.77	233.98
820.948	182.78
821.127	326.14
821.305	399.87
821.483	158.21
821.661	399.87
821.839	424.44
822.017	244.22
822.195	168.45
822.373	395.77
822.551	467.45
822.729	416.25
822.907	207.36
823.085	274.94
823.262	371.19
823.44	303.61
823.618	262.65
823.796	350.71
823.974	383.48
824.152	276.99
824.329	295.42
824.507	320
824.685	485.88
824.863	350.71
825.04	213.5
825.218	186.88
825.396	274.94
825.574	352.76
825.751	219.64
825.929	307.71
826.107	172.54
826.284	324.09
826.462	336.38
826.639	317.95
826.817	244.22
826.994	346.62
827.172	180.73
827.349	309.76
827.527	348.67
827.704	258.56
827.882	506.36
828.059	201.21
828.237	315.9
828.414	367.1
828.591	53.76
828.769	291.32
828.946	279.04
829.124	391.67
829.301	381.43
829.478	211.45
829.655	330.23
829.833	289.28
830.01	51.71
830.187	365.05
830.364	420.35
830.542	365.05
830.719	256.51
830.896	283.13
831.073	346.62
831.25	344.57
831.427	197.12
831.604	207.36
831.782	250.36
831.959	393.72
832.136	236.03
832.313	283.13
832.49	313.85
832.667	270.84
832.844	215.55
833.021	393.72
833.198	332.28
833.374	285.18
833.551	150.01
833.728	197.12
833.905	393.72
834.082	-77.31
834.259	279.04
834.436	285.18
834.612	209.4
834.789	424.44
834.966	246.27
835.143	211.45
835.319	74.24
835.496	262.65
835.673	205.31
835.85	268.8
836.026	389.63
836.203	440.83
836.38	88.57
836.556	160.25
836.733	236.03
836.909	539.13
837.086	250.36
837.262	82.43
837.439	279.04
837.616	199.16
837.792	246.27
837.968	158.21
838.145	74.24
838.321	217.6
838.498	182.78
838.674	264.7
838.851	336.38
839.027	203.26
839.203	205.31
839.38	268.8
839.556	174.59
839.732	311.8
839.909	139.77
840.085	82.43
840.261	256.51
840.437	227.84
840.614	18.94
840.79	231.93
840.966	320
841.142	231.93
841.318	236.03
841.494	203.26
841.671	391.67
841.847	104.96
842.023	55.81
842.199	195.07
842.375	428.54
842.551	10.75
842.727	98.81
842.903	240.12
843.079	152.06
843.255	457.21
843.431	184.83
843.607	270.84
843.783	-5.63
843.959	309.76
844.134	84.48
844.31	268.8
844.486	162.3
844.662	150.01
844.838	193.02
845.013	154.11
845.189	399.87
845.365	279.04
845.541	201.21
845.716	254.46
845.892	344.57
846.068	254.46
846.244	197.12
846.419	141.82
846.595	195.07
846.77	117.25
846.946	236.03
847.122	107.01
847.297	213.5
847.473	471.54
847.648	64
847.824	123.39
847.999	-1.54
848.175	268.8
848.35	246.27
848.526	410.11
848.701	432.63
848.876	365.05
849.052	317.95
849.227	94.72
849.403	213.5
849.578	197.12
849.753	195.07
849.929	129.53
850.104	72.19
850.279	233.98
850.454	176.64
850.63	186.88
850.805	248.32
850.98	199.16
851.155	195.07
851.33	143.87
851.505	49.66
851.681	391.67
851.856	53.76
852.031	160.25
852.206	281.08
852.381	121.34
852.556	119.29
852.731	98.81
852.906	307.71
853.081	190.97
853.256	291.32
853.431	109.05
853.606	139.77
853.781	115.2
853.956	-1.54
854.131	137.73
854.305	186.88
854.48	236.03
854.655	16.9
854.83	117.25
855.005	236.03
855.18	219.64
855.354	82.43
855.529	190.97
855.704	190.97
855.879	299.52
856.053	16.9
856.228	162.3
856.403	80.38
856.577	297.47
856.752	8.7
856.926	172.54
857.101	283.13
857.276	88.57
857.45	252.41
857.625	170.49
857.799	307.71
857.974	213.5
858.148	49.66
858.323	209.4
858.497	158.21
858.672	113.15
858.846	115.2
859.02	117.25
859.195	41.47
859.369	233.98
859.543	154.11
859.718	127.49
859.892	276.99
860.066	225.79
860.241	121.34
860.415	82.43
860.589	195.07
860.763	246.27
860.938	74.24
861.112	92.67
861.286	70.14
861.46	176.64
861.634	133.63
861.808	139.77
861.982	150.01
862.157	111.1
862.331	96.77
862.505	-75.26
862.679	6.66
862.853	43.52
863.027	164.35
863.201	246.27
863.375	104.96
863.549	293.37
863.722	264.7
863.896	121.34
864.07	170.49
864.244	213.5
864.418	174.59
864.592	129.53
864.766	207.36
864.939	199.16
865.113	92.67
865.287	221.69
865.461	43.52
865.634	190.97
865.808	107.01
865.982	82.43
866.156	121.34
866.329	-17.92
866.503	109.05
866.676	219.64
866.85	209.4
867.024	66.05
867.197	320
867.371	96.77
867.544	260.6
867.718	-22.02
867.891	291.32
868.065	-3.58
868.238	135.68
868.412	252.41
868.585	88.57
868.759	64
868.932	78.33
869.105	-69.12
869.279	174.59
869.452	29.18
869.625	264.7
869.799	131.58
869.972	29.18
870.145	82.43
870.319	291.32
870.492	123.39
870.665	143.87
870.838	-9.73
871.011	-87.55
871.185	186.88
871.358	68.09
871.531	162.3
871.704	84.48
871.877	80.38
872.05	39.42
872.223	27.14
872.396	289.28
872.569	256.51
872.742	-3.58
872.915	154.11
873.088	92.67
873.261	80.38
873.434	207.36
873.607	115.2
873.78	344.57
873.953	-13.82
874.126	147.97
874.299	180.73
874.471	100.86
874.644	68.09
874.817	215.55
874.99	217.6
875.163	131.58
875.335	125.44
875.508	82.43
875.681	219.64
875.853	100.86
876.026	215.55
876.199	195.07
876.371	72.19
876.544	143.87
876.717	162.3
876.889	119.29
877.062	236.03
877.234	-36.35
877.407	94.72
877.579	55.81
877.752	158.21
877.924	295.42
878.097	256.51
878.269	193.02
878.442	162.3
878.614	205.31
878.786	127.49
878.959	-28.16
879.131	180.73
879.303	8.7
879.476	119.29
879.648	131.58
879.82	57.86
879.993	16.9
880.165	170.49
880.337	-3.58
880.509	182.78
880.681	-36.35
880.854	29.18
881.026	242.17
881.198	193.02
881.37	184.83
881.542	227.84
881.714	64
881.886	55.81
882.058	129.53
882.23	211.45
882.402	92.67
882.574	127.49
882.746	287.23
882.918	326.14
883.09	184.83
883.262	29.18
883.434	246.27
883.606	-50.69
883.778	80.38
883.95	215.55
884.122	70.14
884.293	322.04
884.465	51.71
884.637	127.49
884.809	74.24
884.98	184.83
885.152	174.59
885.324	207.36
885.496	113.15
885.667	152.06
885.839	88.57
886.011	92.67
886.182	240.12
886.354	301.56
886.525	182.78
886.697	29.18
886.869	-3.58
887.04	57.86
887.212	223.74
887.383	279.04
887.555	186.88
887.726	64
887.897	143.87
888.069	88.57
888.24	338.43
888.412	186.88
888.583	102.91
888.754	100.86
888.926	-81.41
889.097	121.34
889.268	-99.84
889.44	72.19
889.611	18.94
889.782	-34.3
889.953	-26.11
890.125	113.15
890.296	-9.73
890.467	51.71
890.638	-11.78
890.809	47.62
890.98	125.44
891.151	231.93
891.323	199.16
891.494	-9.73
891.665	168.45
891.836	270.84
892.007	82.43
892.178	104.96
892.349	201.21
892.52	12.8
892.691	143.87
892.862	129.53
893.032	-44.54
893.203	59.9
893.374	168.45
893.545	137.73
893.716	88.57
893.887	162.3
894.057	-5.63
894.228	43.52
894.399	-9.73
894.57	276.99
894.74	113.15
894.911	115.2
895.082	86.53
895.253	51.71
895.423	145.92
895.594	176.64
895.764	213.5
895.935	-42.5
896.106	154.11
896.276	66.05
896.447	164.35
896.617	-22.02
896.788	-26.11
896.958	-13.82
897.129	55.81
897.299	47.62
897.47	156.16
897.64	133.63
897.81	119.29
897.981	242.17
898.151	49.66
898.322	94.72
898.492	197.12
898.662	35.33
898.832	0.51
899.003	47.62
899.173	154.11
899.343	57.86
899.513	4.61
