Data from USB4F104151__34__12-21-20-264.txt Node

Date: Wed Feb 19 12:21:20 EST 2025
User: louis
Spectrometer: USB4F10415
Trigger mode: 4
Integration Time (sec): 2.250200E-1
Scans to average: 1
Electric dark correction enabled: true
Nonlinearity correction enabled: false
Boxcar width: 0
XAxis mode: Wavelengths
Number of Pixels in Spectrum: 3648
>>>>>Begin Spectral Data<<<<<
178.204	-787.61
178.424	-787.61
178.644	-787.61
178.864	-867.49
179.084	-816.29
179.304	176.98
179.524	117.59
179.744	-83.11
179.964	-154.79
180.184	209.75
180.404	138.07
180.624	-218.28
180.844	-60.59
181.064	-70.83
181.283	142.16
181.503	-134.31
181.723	-62.63
181.943	-83.11
182.163	412.5
182.383	-218.28
182.602	-210.09
182.822	502.61
183.042	215.89
183.262	-228.52
183.482	-244.9
183.701	162.64
183.921	189.27
184.141	-179.37
184.361	-156.84
184.58	256.85
184.8	281.43
185.02	-214.18
185.239	-40.11
185.459	269.14
185.679	351.06
185.898	-279.72
186.118	-208.04
186.338	242.51
186.557	392.02
186.777	-246.95
186.997	-203.94
187.216	199.51
187.436	500.56
187.655	-165.03
187.875	19.29
188.095	123.73
188.314	324.43
188.534	-44.2
188.753	-320.68
188.973	389.97
189.192	426.83
189.412	-203.94
189.631	-203.94
189.851	267.09
190.07	471.89
190.29	-181.42
190.509	-253.09
190.729	166.74
190.948	297.81
191.168	-50.35
191.387	-109.74
191.607	199.51
191.826	183.12
192.045	-130.22
192.265	-146.6
192.484	271.19
192.704	207.7
192.923	-160.94
193.142	-79.02
193.362	322.38
193.581	367.44
193.8	-165.03
194.02	-160.94
194.239	238.42
194.458	293.71
194.678	-205.99
194.897	-230.57
195.116	308.05
195.335	267.09
195.555	-142.5
195.774	-339.11
195.993	363.34
196.212	226.13
196.432	-154.79
196.651	-169.13
196.87	176.98
197.089	570.19
197.308	-126.12
197.528	-134.31
197.747	-3.24
197.966	246.61
198.185	21.33
198.404	-220.33
198.623	297.81
198.842	426.83
199.062	-150.7
199.281	-93.35
199.5	295.76
199.719	254.8
199.938	-255.14
200.157	-212.14
200.376	279.38
200.595	398.16
200.814	-119.98
201.033	-185.51
201.252	424.78
201.471	236.37
201.69	-212.14
201.909	-107.69
202.128	328.53
202.347	324.43
202.566	-167.08
202.785	-328.87
203.004	154.45
203.223	518.99
203.442	-146.6
203.661	-314.53
203.879	181.07
204.098	404.3
204.317	-249
204.536	-56.49
204.755	293.71
204.974	242.51
205.193	-308.39
205.411	-83.11
205.63	406.35
205.849	355.15
206.068	-208.04
206.287	-224.42
206.505	371.54
206.724	219.99
206.943	-201.9
207.162	-216.23
207.381	285.52
207.599	191.31
207.818	-134.31
208.037	-242.85
208.255	224.08
208.474	224.08
208.693	-173.22
208.911	-140.46
209.13	306
209.349	316.24
209.567	-23.72
209.786	-169.13
210.005	373.58
210.223	240.47
210.442	-396.45
210.661	-277.67
210.879	310.1
211.098	240.47
211.316	-189.61
211.535	-115.88
211.753	269.14
211.972	234.32
212.191	-189.61
212.409	-132.26
212.628	269.14
212.846	162.64
213.065	-253.09
213.283	-68.78
213.502	252.75
213.72	207.7
213.938	-222.38
214.157	-152.74
214.375	330.58
214.594	222.03
214.812	-146.6
215.031	-150.7
215.249	256.85
215.467	254.8
215.686	-36.01
215.904	-216.23
216.122	195.41
216.341	371.54
216.559	-9.39
216.778	-27.82
216.996	404.3
217.214	195.41
217.432	-130.22
217.651	-249
217.869	289.62
218.087	158.55
218.306	-285.86
218.524	-167.08
218.742	101.2
218.96	349.01
219.179	-203.94
219.397	-214.18
219.615	488.27
219.833	281.43
220.051	-187.56
220.27	-113.83
220.488	273.23
220.706	267.09
220.924	-249
221.142	-185.51
221.36	238.42
221.578	248.66
221.796	-214.18
222.015	-134.31
222.233	222.03
222.451	412.5
222.669	-134.31
222.887	-76.97
223.105	68.44
223.323	150.36
223.541	-109.74
223.759	-144.55
223.977	232.27
224.195	398.16
224.413	-58.54
224.631	-216.23
224.849	267.09
225.067	451.41
225.285	-181.42
225.503	-205.99
225.721	-93.35
225.939	127.83
226.157	-93.35
226.375	39.76
226.592	103.25
226.81	217.94
227.028	-17.58
227.246	-191.66
227.464	183.12
227.682	269.14
227.9	-175.27
228.117	-93.35
228.335	176.98
228.553	138.07
228.771	-253.09
228.989	-124.07
229.206	287.57
229.424	111.44
229.642	-171.18
229.86	-226.47
230.077	437.07
230.295	133.97
230.513	-138.41
230.731	-220.33
230.948	439.12
231.166	437.07
231.384	-54.44
231.601	-208.04
231.819	469.84
232.037	129.88
232.254	-171.18
232.472	-162.98
232.689	193.36
232.907	338.77
233.125	-208.04
233.342	-212.14
233.56	148.31
233.777	111.44
233.995	-169.13
234.213	-85.16
234.43	197.46
234.648	150.36
234.865	-216.23
235.083	-156.84
235.3	201.55
235.518	295.76
235.735	-54.44
235.953	-21.67
236.17	262.99
236.388	144.21
236.605	29.52
236.822	-126.12
237.04	310.1
237.257	215.89
237.475	-91.31
237.692	-134.31
237.909	330.58
238.127	166.74
238.344	-85.16
238.562	-165.03
238.779	25.43
238.996	35.67
239.214	-72.87
239.431	-107.69
239.648	37.72
239.865	328.53
240.083	-140.46
240.3	-210.09
240.517	119.64
240.735	244.56
240.952	27.48
241.169	-189.61
241.386	242.51
241.603	125.78
241.821	-95.4
242.038	-50.35
242.255	275.28
242.472	95.06
242.689	-115.88
242.907	-152.74
243.124	242.51
243.341	222.03
243.558	-38.06
243.775	-240.81
243.992	19.29
244.209	164.69
244.426	35.67
244.643	-119.98
244.86	199.51
245.078	256.85
245.295	-38.06
245.512	-179.37
245.729	115.54
245.946	277.33
246.163	-144.55
246.38	-119.98
246.597	209.75
246.814	166.74
247.031	-74.92
247.248	-236.71
247.464	318.29
247.681	160.59
247.898	-156.84
248.115	-27.82
248.332	88.92
248.549	371.54
248.766	31.57
248.983	-130.22
249.2	324.43
249.417	379.73
249.633	-95.4
249.85	-36.01
250.067	222.03
250.284	195.41
250.501	-201.9
250.717	-81.07
250.934	84.82
251.151	164.69
251.368	-111.78
251.585	-132.26
251.801	283.47
252.018	80.72
252.235	-33.96
252.451	-95.4
252.668	193.36
252.885	262.99
253.102	-56.49
253.318	-124.07
253.535	138.07
253.752	205.65
253.968	-203.94
254.185	-212.14
254.401	189.27
254.618	181.07
254.835	-101.55
255.051	-130.22
255.268	336.72
255.484	256.85
255.701	-124.07
255.917	-107.69
256.134	-27.82
256.351	238.42
256.567	-234.66
256.784	-15.53
257	-42.15
257.217	291.66
257.433	-17.58
257.65	-83.11
257.866	375.63
258.082	-36.01
258.299	-97.45
258.515	-33.96
258.732	150.36
258.948	103.25
259.165	-19.63
259.381	-158.89
259.597	310.1
259.814	166.74
260.03	-226.47
260.246	-52.39
260.463	287.57
260.679	332.62
260.895	-89.26
261.112	-83.11
261.328	174.93
261.544	103.25
261.761	-138.41
261.977	-119.98
262.193	-44.2
262.409	365.39
262.626	2.9
262.842	-81.07
263.058	72.53
263.274	283.47
263.49	-79.02
263.707	-214.18
263.923	349.01
264.139	2.9
264.355	-50.35
264.571	-93.35
264.787	306
265.004	271.19
265.22	-52.39
265.436	-167.08
265.652	176.98
265.868	213.84
266.084	-158.89
266.3	-144.55
266.516	25.43
266.732	211.79
266.948	-70.83
267.164	-275.62
267.38	312.14
267.596	199.51
267.812	27.48
268.028	-111.78
268.244	148.31
268.46	179.03
268.676	-113.83
268.892	43.86
269.108	113.49
269.324	66.39
269.54	-138.41
269.756	-76.97
269.972	93.01
270.188	138.07
270.403	-244.9
270.619	-128.17
270.835	179.03
271.051	201.55
271.267	-122.02
271.483	-146.6
271.698	295.76
271.914	193.36
272.13	-76.97
272.346	-93.35
272.562	168.79
272.777	465.74
272.993	-87.21
273.209	-130.22
273.425	301.9
273.64	29.52
273.856	-81.07
274.072	-332.97
274.287	101.2
274.503	273.23
274.719	62.29
274.934	-199.85
275.15	-1.19
275.366	187.22
275.581	-144.55
275.797	-89.26
276.012	246.61
276.228	11.09
276.444	-109.74
276.659	78.68
276.875	15.19
277.09	82.77
277.306	-44.2
277.521	-29.87
277.737	187.22
277.952	234.32
278.168	-89.26
278.383	-62.63
278.599	162.64
278.814	299.86
279.03	-181.42
279.245	80.72
279.461	156.5
279.676	283.47
279.892	-83.11
280.107	-138.41
280.322	35.67
280.538	203.6
280.753	-142.5
280.969	-29.87
281.184	207.7
281.399	310.1
281.615	-50.35
281.83	90.96
282.045	0.85
282.26	68.44
282.476	-46.25
282.691	105.3
282.906	160.59
283.122	148.31
283.337	-126.12
283.552	37.72
283.767	31.57
283.983	267.09
284.198	-119.98
284.413	-97.45
284.628	-27.82
284.843	193.36
285.058	-48.3
285.274	2.9
285.489	142.16
285.704	260.95
285.919	-38.06
286.134	-13.48
286.349	170.83
286.564	90.96
286.779	41.81
286.995	-38.06
287.21	-23.72
287.425	187.22
287.64	0.85
287.855	29.52
288.07	19.29
288.285	215.89
288.5	25.43
288.715	-48.3
288.93	144.21
289.145	47.96
289.36	-50.35
289.575	-36.01
289.79	258.9
290.004	37.72
290.219	80.72
290.434	-27.82
290.649	82.77
290.864	80.72
291.079	-29.87
291.294	-52.39
291.509	281.43
291.724	150.36
291.938	-52.39
292.153	-70.83
292.368	181.07
292.583	226.13
292.798	21.33
293.012	60.24
293.227	168.79
293.442	138.07
293.657	4.95
293.871	-29.87
294.086	170.83
294.301	297.81
294.516	60.24
294.73	52.05
294.945	117.59
295.16	144.21
295.374	-9.39
295.589	-3.24
295.804	84.82
296.018	183.12
296.233	-7.34
296.447	0.85
296.662	170.83
296.877	322.38
297.091	-3.24
297.306	21.33
297.52	88.92
297.735	244.56
297.949	84.82
298.164	-191.66
298.378	234.32
298.593	23.38
298.807	29.52
299.022	-68.78
299.236	318.29
299.451	39.76
299.665	35.67
299.88	-11.43
300.094	299.86
300.309	56.15
300.523	-52.39
300.737	-103.59
300.952	293.71
301.166	240.47
301.381	-64.68
301.595	-142.5
301.809	179.03
302.024	136.02
302.238	-54.44
302.452	84.82
302.667	144.21
302.881	301.9
303.095	33.62
303.309	23.38
303.524	45.91
303.738	152.4
303.952	31.57
304.166	62.29
304.381	-138.41
304.595	260.95
304.809	-1.19
305.023	-64.68
305.237	9.05
305.452	47.96
305.666	-50.35
305.88	52.05
306.094	281.43
306.308	174.93
306.522	-23.72
306.736	39.76
306.95	355.15
307.164	109.4
307.379	66.39
307.593	54.1
307.807	275.28
308.021	207.7
308.235	156.5
308.449	-115.88
308.663	195.41
308.877	449.36
309.091	80.72
309.305	43.86
309.519	-68.78
309.733	252.75
309.947	-64.68
310.161	-72.87
310.374	252.75
310.588	250.71
310.802	-111.78
311.016	-19.63
311.23	176.98
311.444	68.44
311.658	-17.58
311.872	191.31
312.085	279.38
312.299	312.14
312.513	199.51
312.727	-81.07
312.941	33.62
313.154	174.93
313.368	-3.24
313.582	-9.39
313.796	203.6
314.009	181.07
314.223	95.06
314.437	72.53
314.651	240.47
314.864	103.25
315.078	-23.72
315.292	-107.69
315.505	127.83
315.719	158.55
315.933	52.05
316.146	-103.59
316.36	19.29
316.573	209.75
316.787	127.83
317.001	-21.67
317.214	4.95
317.428	101.2
317.641	-48.3
317.855	19.29
318.068	191.31
318.282	232.27
318.495	84.82
318.709	-95.4
318.922	123.73
319.136	316.24
319.349	95.06
319.563	-109.74
319.776	164.69
319.99	-25.77
320.203	74.58
320.417	45.91
320.63	97.11
320.843	269.14
321.057	60.24
321.27	-54.44
321.483	230.23
321.697	219.99
321.91	-40.11
322.124	-9.39
322.337	246.61
322.55	-3.24
322.763	7
322.977	7
323.19	43.86
323.403	133.97
323.617	-19.63
323.83	160.59
324.043	113.49
324.256	199.51
324.469	-222.38
324.683	121.68
324.896	113.49
325.109	136.02
325.322	-140.46
325.535	80.72
325.748	267.09
325.962	117.59
326.175	54.1
326.388	54.1
326.601	226.13
326.814	84.82
327.027	-40.11
327.24	136.02
327.453	-42.15
327.666	213.84
327.879	150.36
328.092	-21.67
328.305	267.09
328.518	127.83
328.731	-54.44
328.944	21.33
329.157	207.7
329.37	-3.24
329.583	111.44
329.796	41.81
330.009	-19.63
330.222	240.47
330.435	111.44
330.648	43.86
330.861	258.9
331.073	189.27
331.286	72.53
331.499	-68.78
331.712	80.72
331.925	160.59
332.138	-50.35
332.35	-52.39
332.563	43.86
332.776	275.28
332.989	-36.01
333.202	-124.07
333.414	187.22
333.627	144.21
333.84	-60.59
334.053	78.68
334.265	43.86
334.478	31.57
334.691	-31.91
334.903	148.31
335.116	86.87
335.329	54.1
335.541	52.05
335.754	162.64
335.966	25.43
336.179	258.9
336.392	-21.67
336.604	54.1
336.817	148.31
337.029	154.45
337.242	-42.15
337.454	9.05
337.667	191.31
337.88	287.57
338.092	115.54
338.305	70.48
338.517	-1.19
338.729	215.89
338.942	72.53
339.154	-36.01
339.367	56.15
339.579	267.09
339.792	-91.31
340.004	-46.25
340.217	164.69
340.429	256.85
340.641	-91.31
340.854	-93.35
341.066	219.99
341.278	265.04
341.491	97.11
341.703	35.67
341.915	58.2
342.128	291.66
342.34	15.19
342.552	-23.72
342.764	95.06
342.977	176.98
343.189	35.67
343.401	144.21
343.613	43.86
343.826	158.55
344.038	4.95
344.25	37.72
344.462	111.44
344.674	201.55
344.886	-76.97
345.099	60.24
345.311	211.79
345.523	117.59
345.735	-76.97
345.947	-1.19
346.159	226.13
346.371	80.72
346.583	-5.29
346.795	60.24
347.007	138.07
347.219	156.5
347.431	43.86
347.643	125.78
347.855	68.44
348.067	271.19
348.279	-87.21
348.491	2.9
348.703	330.58
348.915	58.2
349.127	-119.98
349.339	43.86
349.551	148.31
349.763	234.32
349.975	-46.25
350.187	60.24
350.399	275.28
350.61	193.36
350.822	-70.83
351.034	11.09
351.246	205.65
351.458	174.93
351.669	80.72
351.881	-50.35
352.093	230.23
352.305	183.12
352.517	-74.92
352.728	68.44
352.94	88.92
353.152	297.81
353.363	-95.4
353.575	47.96
353.787	361.3
353.999	301.9
354.21	35.67
354.422	-119.98
354.633	109.4
354.845	150.36
355.057	62.29
355.268	52.05
355.48	363.34
355.692	31.57
355.903	88.92
356.115	-52.39
356.326	-62.63
356.538	271.19
356.749	52.05
356.961	95.06
357.172	187.22
357.384	47.96
357.595	181.07
357.807	-3.24
358.018	133.97
358.23	66.39
358.441	-83.11
358.653	-70.83
358.864	127.83
359.075	23.38
359.287	37.72
359.498	19.29
359.709	203.6
359.921	156.5
360.132	82.77
360.344	-29.87
360.555	109.4
360.766	131.92
360.977	-29.87
361.189	150.36
361.4	127.83
361.611	232.27
361.823	68.44
362.034	-19.63
362.245	-40.11
362.456	52.05
362.667	207.7
362.879	-150.7
363.09	232.27
363.301	275.28
363.512	-95.4
363.723	-36.01
363.935	148.31
364.146	252.75
364.357	-103.59
364.568	-40.11
364.779	35.67
364.99	271.19
365.201	11.09
365.412	156.5
365.623	45.91
365.834	127.83
366.045	76.63
366.256	19.29
366.467	217.94
366.678	115.54
366.889	39.76
367.1	-46.25
367.311	359.25
367.522	160.59
367.733	111.44
367.944	45.91
368.155	127.83
368.366	183.12
368.577	37.72
368.788	197.46
368.999	101.2
369.209	101.2
369.42	72.53
369.631	361.3
369.842	150.36
370.053	150.36
370.264	-3.24
370.474	-56.49
370.685	262.99
370.896	158.55
371.107	41.81
371.317	0.85
371.528	219.99
371.739	422.73
371.95	66.39
372.16	-23.72
372.371	45.91
372.582	86.87
372.792	-68.78
373.003	27.48
373.214	226.13
373.424	142.16
373.635	-44.2
373.846	158.55
374.056	193.36
374.267	115.54
374.477	80.72
374.688	11.09
374.898	250.71
375.109	201.55
375.319	111.44
375.53	136.02
375.74	308.05
375.951	68.44
376.161	70.48
376.372	84.82
376.582	78.68
376.793	193.36
377.003	7
377.214	84.82
377.424	299.86
377.635	209.75
377.845	-70.83
378.055	103.25
378.266	80.72
378.476	154.45
378.686	37.72
378.897	129.88
379.107	312.14
379.317	275.28
379.528	-7.34
379.738	115.54
379.948	111.44
380.158	260.95
380.369	54.1
380.579	90.96
380.789	201.55
380.999	246.61
381.21	86.87
381.42	254.8
381.63	183.12
381.84	308.05
382.05	68.44
382.261	144.21
382.471	234.32
382.681	131.92
382.891	158.55
383.101	138.07
383.311	97.11
383.521	68.44
383.731	-31.91
383.941	240.47
384.151	250.71
384.361	113.49
384.571	90.96
384.781	64.34
384.991	318.29
385.201	375.63
385.411	101.2
385.621	13.14
385.831	273.23
386.041	170.83
386.251	66.39
386.461	80.72
386.671	162.64
386.881	189.27
387.091	29.52
387.301	166.74
387.511	154.45
387.72	215.89
387.93	176.98
388.14	-36.01
388.35	158.55
388.56	351.06
388.769	58.2
388.979	4.95
389.189	119.64
389.399	207.7
389.609	68.44
389.818	60.24
390.028	174.93
390.238	242.51
390.447	56.15
390.657	82.77
390.867	187.22
391.076	-1.19
391.286	54.1
391.496	131.92
391.705	301.9
391.915	432.97
392.125	111.44
392.334	64.34
392.544	377.68
392.753	234.32
392.963	47.96
393.172	35.67
393.382	123.73
393.591	400.21
393.801	27.48
394.01	117.59
394.22	318.29
394.429	156.5
394.639	84.82
394.848	54.1
395.058	181.07
395.267	209.75
395.477	142.16
395.686	115.54
395.895	494.41
396.105	330.58
396.314	111.44
396.524	99.16
396.733	166.74
396.942	318.29
397.152	97.11
397.361	238.42
397.57	211.79
397.78	256.85
397.989	146.26
398.198	351.06
398.407	174.93
398.617	201.55
398.826	109.4
399.035	52.05
399.244	344.91
399.453	250.71
399.663	90.96
399.872	4.95
400.081	146.26
400.29	340.82
400.499	76.63
400.708	226.13
400.917	191.31
401.127	260.95
401.336	74.58
401.545	334.67
401.754	367.44
401.963	346.96
402.172	166.74
402.381	27.48
402.59	301.9
402.799	189.27
403.008	217.94
403.217	191.31
403.426	250.71
403.635	127.83
403.844	47.96
404.053	58.2
404.262	281.43
404.471	469.84
404.68	156.5
404.888	219.99
405.097	275.28
405.306	265.04
405.515	27.48
405.724	72.53
405.933	308.05
406.142	299.86
406.35	99.16
406.559	148.31
406.768	387.92
406.977	512.85
407.185	101.2
407.394	164.69
407.603	70.48
407.812	279.38
408.02	174.93
408.229	174.93
408.438	392.02
408.646	54.1
408.855	-3.24
409.064	109.4
409.272	256.85
409.481	299.86
409.69	37.72
409.898	125.78
410.107	316.24
410.315	414.54
410.524	146.26
410.733	88.92
410.941	297.81
411.15	424.78
411.358	170.83
411.567	183.12
411.775	332.62
411.984	213.84
412.192	197.46
412.401	166.74
412.609	502.61
412.818	387.92
413.026	174.93
413.234	101.2
413.443	324.43
413.651	224.08
413.86	-11.43
414.068	314.19
414.276	502.61
414.485	170.83
414.693	228.18
414.901	342.86
415.11	217.94
415.318	289.62
415.526	209.75
415.734	258.9
415.943	363.34
416.151	441.17
416.359	105.3
416.567	176.98
416.776	367.44
416.984	394.06
417.192	234.32
417.4	62.29
417.608	230.23
417.817	193.36
418.025	301.9
418.233	260.95
418.441	236.37
418.649	142.16
418.857	158.55
419.065	127.83
419.273	133.97
419.481	332.62
419.689	303.95
419.897	152.4
420.105	219.99
420.313	449.36
420.521	217.94
420.729	201.55
420.937	332.62
421.145	199.51
421.353	195.41
421.561	224.08
421.769	355.15
421.977	193.36
422.185	174.93
422.393	148.31
422.601	392.02
422.809	320.34
423.017	226.13
423.224	213.84
423.432	430.93
423.64	306
423.848	168.79
424.056	115.54
424.263	467.79
424.471	334.67
424.679	299.86
424.887	162.64
425.094	545.61
425.302	453.45
425.51	144.21
425.718	250.71
425.925	338.77
426.133	189.27
426.341	277.33
426.548	199.51
426.756	199.51
426.964	461.65
427.171	242.51
427.379	252.75
427.586	363.34
427.794	373.58
428.001	275.28
428.209	314.19
428.417	486.22
428.624	420.69
428.832	289.62
429.039	338.77
429.247	359.25
429.454	394.06
429.662	398.16
429.869	293.71
430.076	445.26
430.284	461.65
430.491	338.77
430.699	297.81
430.906	545.61
431.114	496.46
431.321	219.99
431.528	455.5
431.736	410.45
431.943	531.28
432.15	357.2
432.358	416.59
432.565	727.88
432.772	254.8
432.979	475.98
433.187	404.3
433.394	736.07
433.601	447.31
433.808	447.31
434.016	588.62
434.223	592.72
434.43	586.57
434.637	326.48
434.844	648.01
435.052	535.37
435.259	611.15
435.466	576.33
435.673	557.9
435.88	805.71
436.087	738.12
436.294	717.64
436.501	672.59
436.708	719.69
436.915	752.46
437.122	789.32
437.329	541.52
437.537	731.98
437.743	772.94
437.95	731.98
438.157	619.34
438.364	897.86
438.571	787.27
438.778	768.84
438.985	889.67
439.192	1016.65
439.399	926.54
439.606	791.37
439.813	963.4
440.02	1235.78
440.227	1223.49
440.433	916.3
440.64	871.24
440.847	1012.55
441.054	1102.66
441.261	971.59
441.467	1051.46
441.674	1071.94
441.881	1383.23
442.088	1088.32
442.294	1035.08
442.501	1422.14
442.708	1340.22
442.914	1221.44
443.121	1311.55
443.328	1370.94
443.534	1512.25
443.741	1254.21
443.948	1260.35
444.154	1614.65
444.361	1760.06
444.568	1575.74
444.774	1518.4
444.981	1479.49
445.187	1727.29
445.394	1643.32
445.6	1614.65
445.807	1809.21
446.013	1831.74
446.22	1571.65
446.426	1962.81
446.633	1968.95
446.839	2298.67
447.046	1887.03
447.252	2200.37
447.459	2188.08
447.665	2194.23
447.871	2255.67
448.078	2724.65
448.284	2466.61
448.491	2667.31
448.697	2550.57
448.903	2528.05
449.11	2911.02
449.316	2706.22
449.522	2966.31
449.728	2978.6
449.935	3074.85
450.141	3167.01
450.347	3121.96
450.553	3220.26
450.76	3330.85
450.966	3455.78
451.172	3441.44
451.378	3562.27
451.584	3744.54
451.791	3908.38
451.997	3808.03
452.203	3787.55
452.409	4168.47
452.615	4313.88
452.821	3988.25
453.027	3937.05
453.233	4799.24
453.44	4350.74
453.646	4225.81
453.852	4553.49
454.058	4639.5
454.264	4795.15
454.47	4887.31
454.676	4930.31
454.882	5235.46
455.088	4920.07
455.294	5010.18
455.5	5368.58
455.705	5616.38
455.911	5413.63
456.117	5135.11
456.323	5298.95
456.529	5317.38
456.735	5559.04
456.941	5286.66
457.147	5790.46
457.352	5442.31
457.558	5446.4
457.764	5622.53
457.97	5593.86
458.176	5587.71
458.381	5778.17
458.587	5569.28
458.793	5739.26
458.999	5442.31
459.204	5980.92
459.41	5765.89
459.616	5460.74
459.821	5860.09
460.027	5475.07
460.233	5636.86
460.438	5415.68
460.644	5667.58
460.85	5243.65
461.055	5327.62
461.261	5294.85
461.466	5081.86
461.672	5092.1
461.878	5153.54
462.083	4954.89
462.289	4909.83
462.494	5100.3
462.7	4940.55
462.905	4414.23
463.111	5092.1
463.316	5098.25
463.522	4784.91
463.727	4844.3
463.932	4791.05
464.138	4840.2
464.343	4700.94
464.549	4719.37
464.754	5010.18
464.959	5180.17
465.165	4627.21
465.37	4477.71
465.575	4473.62
465.781	4649.74
465.986	4707.09
466.191	4422.42
466.397	4682.51
466.602	4371.22
466.807	4371.22
467.012	4549.39
467.218	4559.63
467.423	4420.37
467.628	4322.07
467.833	4508.43
468.038	4508.43
468.244	4119.32
468.449	4557.58
468.654	4520.72
468.859	4414.23
469.064	4473.62
469.269	4025.11
469.474	4436.75
469.679	4764.43
469.885	4508.43
470.09	4356.88
470.295	4418.32
470.5	4604.69
470.705	4639.5
470.91	4510.48
471.115	4274.96
471.32	4746
471.525	4834.06
471.73	4336.4
471.935	4481.81
472.139	4373.27
472.344	4578.06
472.549	4590.35
472.754	4512.53
472.959	4721.42
473.164	4451.09
473.369	4535.06
473.574	4649.74
473.778	4635.41
473.983	4725.52
474.188	4848.4
474.393	4416.27
474.598	4743.95
474.802	4827.92
475.007	4612.88
475.212	4649.74
475.417	4700.94
475.621	4868.88
475.826	4711.18
476.031	4641.55
476.235	4606.74
476.44	4756.24
476.645	4553.49
476.849	4567.82
477.054	4854.54
477.259	4795.15
477.463	4760.33
477.668	4698.89
477.872	5122.82
478.077	4559.63
478.282	4551.44
478.486	4485.9
478.691	4743.95
478.895	4664.08
479.1	4838.16
479.304	4621.07
479.509	4541.2
479.713	4991.75
479.918	4602.64
480.122	4645.65
480.326	4643.6
480.531	4797.2
480.735	4842.25
480.94	4578.06
481.144	4989.71
481.348	4815.63
481.553	4756.24
481.757	4766.48
481.961	4963.08
482.166	4958.99
482.37	4713.23
482.574	4926.22
482.778	4750.09
482.983	5139.21
483.187	4846.35
483.391	4870.92
483.595	4999.95
483.8	5012.23
484.004	5034.76
484.208	4983.56
484.412	5380.87
484.616	5286.66
484.821	5059.34
485.025	5153.54
485.229	5114.63
485.433	5313.28
485.637	5249.8
485.841	4985.61
486.045	5403.39
486.249	5499.65
486.453	5245.7
486.657	5245.7
486.861	5374.72
487.065	5378.82
487.269	5315.33
487.473	5196.55
487.677	5694.21
487.881	5931.77
488.085	5511.94
488.289	5602.05
488.493	5681.92
488.697	6077.18
488.901	5761.79
489.105	5702.4
489.309	6064.89
489.512	6236.92
489.716	5997.31
489.92	6025.98
490.124	6081.27
490.328	6300.41
490.531	6122.23
490.735	6230.77
490.939	6195.96
491.143	6208.25
491.346	6109.94
491.55	6318.84
491.754	6533.87
491.958	6591.22
492.161	6486.77
492.365	6499.06
492.569	6701.81
492.772	6679.28
492.976	6615.79
493.18	6728.43
493.383	6836.97
493.587	7138.02
493.79	6949.61
493.994	6988.52
494.197	6984.43
494.401	7170.79
494.605	7111.4
494.808	7338.73
495.012	7371.49
495.215	7572.19
495.419	7332.58
495.622	7428.84
495.825	7631.58
496.029	7414.5
496.232	7820
496.436	7592.67
496.639	7975.64
496.843	7766.75
497.046	7801.57
497.249	8010.46
497.453	8094.43
497.656	8016.6
497.859	8086.23
498.063	8084.19
498.266	8645.33
498.469	8395.48
498.673	8383.19
498.876	8299.22
499.079	8827.6
499.282	8712.91
499.485	9169.61
499.689	8936.14
499.892	9075.4
500.095	8966.86
500.298	9239.24
500.501	8987.34
500.705	9401.03
500.908	9507.52
501.111	9464.52
501.314	9616.07
501.517	10109.63
501.72	10048.19
501.923	9773.76
502.126	9890.49
502.329	10293.94
502.532	10648.24
502.735	10117.82
502.938	10488.5
503.141	10629.81
503.344	10658.48
503.547	10721.97
503.75	10769.07
503.953	11078.32
504.156	11352.74
504.359	11248.3
504.562	11219.63
504.765	11608.74
504.968	11604.64
505.17	11670.18
505.373	11586.21
505.576	11868.83
505.779	12112.54
505.982	12030.62
506.185	12241.56
506.387	12470.94
506.59	12788.37
506.793	12556.95
506.996	13011.6
507.198	13208.2
507.401	13265.55
507.604	12858
507.807	13413
508.009	13535.88
508.212	13607.56
508.415	13716.1
508.617	13908.61
508.82	13888.13
509.022	14002.82
509.225	14129.79
509.428	14281.34
509.63	14529.14
509.833	14735.99
510.035	15272.56
510.238	14652.02
510.44	15012.46
510.643	15497.83
510.845	15428.2
511.048	15252.08
511.25	15833.7
511.453	15856.23
511.655	16480.86
511.858	16130.66
512.06	16554.58
512.262	16276.06
512.465	16366.17
512.667	16491.1
512.87	16798.29
513.072	17263.18
513.274	17029.71
513.477	17048.15
513.679	17570.38
513.881	17791.56
514.084	17721.93
514.286	17842.76
514.488	18209.34
514.69	18668.09
514.893	18567.74
515.095	18582.07
515.297	18776.63
515.499	18821.69
515.701	18887.22
515.904	19329.58
516.106	19681.83
516.308	19612.2
516.51	19595.82
516.712	19864.1
516.914	19960.36
517.116	20361.76
517.318	20292.13
517.52	20630.04
517.722	20828.7
517.925	21209.62
518.127	21217.81
518.329	21559.82
518.531	21563.92
518.733	22028.81
518.935	21975.56
519.136	22209.03
519.338	22196.74
519.54	22483.45
519.742	22503.93
519.944	22667.77
520.146	23204.34
520.348	23583.21
520.55	23202.29
520.752	23359.98
520.954	23863.79
521.155	23525.87
521.357	24107.49
521.559	24023.53
521.761	24613.34
521.963	24437.22
522.164	24742.36
522.366	24711.64
522.568	25125.33
522.77	25125.33
522.971	25139.67
523.173	25364.95
523.375	25858.51
523.576	25457.1
523.778	25674.19
523.98	26036.68
524.181	26261.96
524.383	26278.34
524.584	26454.47
524.786	26405.31
524.988	26452.42
525.189	26847.68
525.391	27294.13
525.592	26739.13
525.794	27335.09
525.995	27339.19
526.197	27214.26
526.398	27572.66
526.6	27365.81
526.801	28033.45
527.003	27435.44
527.204	27513.27
527.406	28082.6
527.607	28146.09
527.808	28080.55
528.01	28119.46
528.211	28283.3
528.412	28596.64
528.614	28768.67
528.815	28520.87
529.016	29098.39
529.218	28504.48
529.419	28764.57
529.62	28420.52
529.822	28836.25
530.023	28920.22
530.224	28651.94
530.425	28809.63
530.626	28629.41
530.828	28737.95
531.029	29481.36
531.23	28936.6
531.431	28952.99
531.632	29219.22
531.833	29092.25
532.035	29383.06
532.236	29149.59
532.437	29624.72
532.638	29395.35
532.839	29075.87
533.04	29587.86
533.241	29290.9
533.442	29782.41
533.643	29528.47
533.844	29456.79
534.045	29454.74
534.246	29483.41
534.447	29729.17
534.648	29464.98
534.849	29710.74
535.05	29536.66
535.251	29282.71
535.451	29698.45
535.652	29831.57
535.853	29634.96
536.054	29929.87
536.255	29772.18
536.456	29780.37
536.657	30052.75
536.857	29550.99
537.058	29657.49
537.259	29804.94
537.46	29843.85
537.66	29469.08
537.861	30235.02
538.062	29905.29
538.263	29976.97
538.463	29639.06
538.664	29866.38
538.865	29874.57
539.065	29718.93
539.266	29843.85
539.466	29780.37
539.667	29763.98
539.868	30083.47
540.068	29763.98
540.269	30310.79
540.469	29946.25
540.67	29821.33
540.87	30056.84
541.071	29933.96
541.271	30198.15
541.472	29866.38
541.672	29985.16
541.873	29837.71
542.073	29831.57
542.274	30400.9
542.474	30015.88
542.675	30067.08
542.875	30407.05
543.075	30306.69
543.276	30052.75
543.476	30476.68
543.676	30275.98
543.877	30292.36
544.077	30278.02
544.277	30589.31
544.478	30136.71
544.678	30368.13
544.878	30110.09
545.078	30476.68
545.279	30243.21
545.479	29890.96
545.679	30316.93
545.879	30269.83
546.079	30400.9
546.28	30058.89
546.48	30300.55
546.68	30767.49
546.88	30591.36
547.08	30525.83
547.28	30083.47
547.48	30198.15
547.68	30691.71
547.88	30108.04
548.081	30540.16
548.281	30452.1
548.481	30341.51
548.681	30409.09
548.881	30722.43
549.081	30767.49
549.28	30187.91
549.48	30620.03
549.68	30728.58
549.88	31078.78
550.08	30704
550.28	30734.72
550.48	30839.17
550.68	30757.25
550.88	30693.76
551.08	30769.54
551.279	30759.3
551.479	30534.02
551.679	30894.46
551.879	29987.21
552.079	30962.04
552.278	30671.23
552.478	30970.24
552.678	30454.15
552.878	30448
553.077	30687.62
553.277	30687.62
553.477	30865.79
553.676	30364.04
553.876	30646.66
554.076	30634.37
554.275	30476.68
554.475	30161.29
554.674	30761.34
554.874	30841.21
555.074	30130.57
555.273	30777.73
555.473	30740.86
555.672	30880.13
555.872	30523.78
556.071	30792.06
556.271	30951.81
556.47	30601.6
556.67	30357.89
556.869	30353.8
557.068	30464.39
557.268	30529.92
557.467	30427.53
557.667	30595.46
557.866	30806.4
558.065	30439.81
558.265	30368.13
558.464	30247.3
558.663	30718.34
558.863	30456.2
559.062	30701.95
559.261	29985.16
559.461	30720.38
559.66	29976.97
559.859	30132.62
560.058	29860.24
560.258	29919.63
560.457	30052.75
560.656	30046.6
560.855	29856.14
561.054	30476.68
561.253	30097.8
561.453	29772.18
561.652	30017.93
561.851	30083.47
562.05	29788.56
562.249	29544.85
562.448	29839.76
562.647	29952.4
562.846	29987.21
563.045	29880.72
563.244	29778.32
563.443	30296.46
563.642	29493.65
563.841	29989.26
564.04	29436.31
564.239	29909.39
564.438	29493.65
564.637	29473.17
564.836	29665.68
565.035	29184.41
565.234	29518.23
565.432	29303.19
565.631	29276.57
565.83	29430.16
566.029	29325.72
566.228	29008.28
566.427	28903.84
566.625	28860.83
566.824	28701.09
567.023	29157.78
567.222	28481.95
567.42	28938.65
567.619	29063.58
567.818	28588.45
568.016	29139.35
568.215	28696.99
568.414	28797.34
568.612	28764.57
568.811	28535.2
569.01	28506.53
569.208	28375.46
569.407	28223.91
569.605	28082.6
569.804	28211.62
570.002	28207.53
570.201	28127.66
570.4	27988.39
570.598	27566.51
570.797	27720.11
570.995	27632.05
571.193	27673.01
571.392	27867.56
571.59	27400.63
571.789	27417.01
571.987	27408.82
572.186	27644.34
572.384	27081.14
572.582	27535.79
572.781	27412.92
572.979	27075
573.177	27359.67
573.376	27240.89
573.574	26825.15
573.772	27111.86
573.971	26642.88
574.169	26642.88
574.367	26456.51
574.565	26786.24
574.763	26487.23
574.962	26661.31
575.16	26329.54
575.358	26302.92
575.556	26495.43
575.754	26730.94
575.952	25610.7
576.151	26536.38
576.349	26243.52
576.547	25811.4
576.745	26192.33
576.943	26515.9
577.141	25993.67
577.339	26130.89
577.537	25764.3
577.735	26089.93
577.933	25790.92
578.131	25622.99
578.329	25545.17
578.527	25504.21
578.725	25717.2
578.923	25381.33
579.121	25541.07
579.319	25311.7
579.516	25473.49
579.714	25520.59
579.912	25233.88
580.11	25321.94
580.308	25524.69
580.506	25070.04
580.704	24615.39
580.901	25127.38
581.099	25637.33
581.297	24965.59
581.495	24943.06
581.692	24811.99
581.89	25057.75
582.088	24943.06
582.285	24562.14
582.483	24627.68
582.681	24703.45
582.878	24736.22
583.076	24562.14
583.274	25205.2
583.471	24836.57
583.669	24549.85
583.866	24480.22
584.064	24537.57
584.262	24175.08
584.459	24316.39
584.657	24105.45
584.854	24709.6
585.052	23982.57
585.249	24424.93
585.447	24222.18
585.644	23935.46
585.841	24414.69
586.039	24422.88
586.236	24103.4
586.434	24072.68
586.631	23863.79
586.828	23726.57
587.026	24064.49
587.223	23841.26
587.42	23658.99
587.618	23843.31
587.815	23648.75
588.012	23753.19
588.21	23534.06
588.407	23486.96
588.604	23661.04
588.801	23654.89
588.999	23740.91
589.196	23431.66
589.393	23454.19
589.59	23808.49
589.787	23384.56
589.984	23550.45
590.182	23503.34
590.379	23265.78
590.576	23550.45
590.773	23091.7
590.97	23138.8
591.167	23476.72
591.364	23276.02
591.561	23448.05
591.758	22917.62
591.955	23466.48
592.152	23402.99
592.349	23126.52
592.546	23187.96
592.743	23253.49
592.94	23259.63
593.137	23089.65
593.334	23302.64
593.531	22950.39
593.727	23124.47
593.924	22997.49
594.121	22983.16
594.318	22993.4
594.515	22899.19
594.712	23255.54
594.908	23063.03
595.105	22508.03
595.302	22794.75
595.499	22669.82
595.696	22974.97
595.892	22845.94
596.089	22940.15
596.286	23212.53
596.482	23089.65
596.679	23034.36
596.876	22804.99
597.072	22944.25
597.269	22858.23
597.466	22946.3
597.662	23015.93
597.859	22671.87
598.055	22835.7
598.252	22721.02
598.448	23013.88
598.645	22669.82
598.841	22665.72
599.038	22989.3
599.234	22970.87
599.431	22585.85
599.627	22450.69
599.824	22612.48
600.02	22635
600.217	22596.09
600.413	22376.96
600.609	22878.71
600.806	22815.23
601.002	22884.86
601.198	22413.82
601.395	22764.03
601.591	22637.05
601.787	22360.58
601.984	22542.85
602.18	22852.09
602.376	22704.63
602.572	23099.89
602.769	22745.59
602.965	22360.58
603.161	22663.68
603.357	22417.92
603.553	22614.52
603.75	22436.35
603.946	22444.54
604.142	22958.58
604.338	22252.03
604.534	22458.88
604.73	22428.16
604.926	22526.46
605.122	22686.2
605.318	22350.34
605.514	22356.48
605.71	22565.37
605.906	22110.72
606.102	22313.47
606.298	22667.77
606.494	22065.67
606.69	22198.79
606.886	22395.39
607.082	22297.09
607.278	22393.34
607.474	22141.44
607.67	22188.55
607.866	21967.37
608.062	22555.13
608.257	22202.88
608.453	22057.48
608.649	22571.52
608.845	22000.13
609.041	22315.52
609.236	22342.14
609.432	22297.09
609.628	22082.05
609.824	22260.23
610.019	22045.19
610.215	22559.23
610.411	22321.66
610.606	22399.49
610.802	22204.93
610.998	22366.72
611.193	22485.5
611.389	22055.43
611.584	22428.16
611.78	22141.44
611.976	22489.6
612.171	22389.25
612.367	22413.82
612.562	22125.06
612.758	21987.85
612.953	21928.45
613.149	22141.44
613.344	22123.01
613.539	22307.33
613.735	22159.88
613.93	22467.07
614.126	21783.05
614.321	22221.31
614.517	22424.06
614.712	22434.3
614.907	22307.33
615.103	22483.45
615.298	22071.81
615.493	22139.4
615.688	21850.63
615.884	22528.51
616.079	21899.78
616.274	22546.94
616.47	21916.17
616.665	22100.48
616.86	22233.6
617.055	22194.69
617.25	22198.79
617.445	22512.13
617.641	21899.78
617.836	22426.11
618.031	22077.96
618.226	22309.38
618.421	22039.05
618.616	22239.75
618.811	21752.33
619.006	22172.16
619.201	22051.33
619.396	22278.66
619.591	21565.96
619.786	22002.18
619.981	21778.95
620.176	22000.13
620.371	21768.71
620.566	21860.87
620.761	21709.32
620.956	21977.61
621.151	21365.26
621.346	21547.53
621.541	21164.56
621.735	21774.86
621.93	21291.54
622.125	21078.55
622.32	20927
622.515	20955.67
622.709	21127.7
622.904	21150.23
623.099	20838.94
623.294	21127.7
623.488	20929.05
623.683	21043.73
623.878	20607.51
624.072	21076.5
624.267	20605.47
624.462	20767.26
624.656	20369.95
624.851	20673.05
625.046	20697.63
625.24	20439.58
625.435	20277.79
625.629	20640.28
625.824	20775.45
626.018	20179.49
626.213	19890.73
626.407	20193.83
626.602	19933.73
626.796	20234.78
626.991	20261.41
627.185	20130.34
627.38	20003.36
627.574	19671.59
627.768	19499.56
627.963	19757.61
628.157	19599.91
628.352	19675.69
628.546	19317.29
628.74	19593.77
628.935	19290.67
629.129	19350.06
629.323	19640.87
629.517	19274.29
629.712	19204.66
629.906	19364.4
630.1	19049.01
630.294	19294.77
630.489	18901.56
630.683	19034.67
630.877	18629.18
631.071	19124.79
631.265	18911.8
631.459	19094.07
631.653	18567.74
631.848	18821.69
632.042	18735.67
632.236	18620.99
632.43	18463.29
632.624	18635.32
632.818	18336.32
633.012	18346.56
633.206	18242.11
633.4	18559.55
633.594	18119.23
633.788	18225.73
633.982	18119.23
634.176	18389.56
634.369	17853
634.563	18027.07
634.757	17492.55
634.951	17859.14
635.145	18121.28
635.339	17480.27
635.533	17437.26
635.726	17740.36
635.92	17287.76
636.114	17162.83
636.308	17158.74
636.501	17261.13
636.695	17273.42
636.889	16667.22
637.083	16646.74
637.276	16837.2
637.47	16566.87
637.664	16560.73
637.857	16427.61
638.051	16611.93
638.244	16460.38
638.438	16280.16
638.632	16163.42
638.825	15964.77
639.019	16114.27
639.212	15721.06
639.406	15886.95
639.599	15530.6
639.793	15794.79
639.986	15108.72
640.18	15272.56
640.373	15174.25
640.567	15256.17
640.76	15063.66
640.954	14936.69
641.147	14766.71
641.34	14768.76
641.534	14551.67
641.727	14457.46
641.92	14729.84
642.114	14320.25
642.307	14215.8
642.5	14185.08
642.694	13953.66
642.887	13773.44
643.08	13832.83
643.273	13763.2
643.467	13552.26
643.66	13402.76
643.853	13200.01
644.046	13163.15
644.239	13152.91
644.432	13068.94
644.626	12814.99
644.819	12647.06
645.012	12925.58
645.205	13064.85
645.398	12640.92
645.591	12597.91
645.784	12262.04
645.977	12182.17
646.17	12309.15
646.363	11901.6
646.556	11791.01
646.749	11936.42
646.942	11965.09
647.135	11590.31
647.328	11692.71
647.521	11518.63
647.714	11348.65
647.907	11199.15
648.099	11217.58
648.292	11707.04
648.485	11313.83
648.678	10912.43
648.871	10941.1
649.064	10945.2
649.256	10824.37
649.449	10523.32
649.642	10623.67
649.835	10638
650.027	10551.99
650.22	10529.46
650.413	10375.86
650.605	10447.54
650.798	10461.88
650.991	10066.62
651.183	10361.53
651.376	10191.55
651.568	9949.89
651.761	9876.16
651.954	10040
652.146	10093.24
652.339	9743.04
652.531	10015.42
652.724	9587.4
652.916	9724.61
653.109	9425.61
653.301	9816.77
653.494	9824.96
653.686	9300.68
653.879	9564.87
654.071	9564.87
654.263	9200.33
654.456	9517.76
654.648	9298.63
654.84	9130.7
655.033	9437.89
655.225	9278.15
655.417	8805.07
655.61	9044.68
655.802	9147.08
655.994	8968.91
656.186	8792.78
656.379	8753.87
656.571	9075.4
656.763	8755.92
656.955	8661.71
657.148	8585.94
657.34	8696.53
657.532	8530.64
657.724	8422.1
657.916	8284.89
658.108	8520.4
658.3	8235.74
658.492	8497.88
658.684	8153.82
658.876	8368.85
659.068	7985.88
659.26	7762.65
659.452	7820
659.644	7926.49
659.836	8176.34
660.028	7877.34
660.22	7680.74
660.412	7803.61
660.604	7516.9
660.796	7598.82
660.988	7434.98
661.18	7443.17
661.372	7514.85
661.563	7246.57
661.755	7047.91
661.947	7160.55
662.139	7015.15
662.331	6970.09
662.522	6904.56
662.714	6986.47
662.906	6888.17
663.097	6728.43
663.289	6499.06
663.481	6351.6
663.673	6857.45
663.864	6411
664.056	6497.01
664.247	6281.97
664.439	6378.23
664.631	6200.05
664.822	6058.74
665.014	6247.16
665.205	5944.06
665.397	5982.97
665.588	5796.6
665.78	5851.9
665.971	5757.69
666.163	5671.68
666.354	5573.38
666.546	5624.58
666.737	5737.21
666.929	5468.93
667.12	5503.75
667.311	5563.14
667.503	5317.38
667.694	5366.53
667.885	5223.17
668.077	5341.96
668.268	5075.72
668.459	4997.9
668.651	5145.35
668.842	5155.59
669.033	4907.79
669.224	4832.01
669.416	5171.97
669.607	4944.65
669.798	4782.86
669.989	4723.47
670.18	4850.44
670.371	4875.02
670.563	4539.15
670.754	4879.11
670.945	4553.49
671.136	4885.26
671.327	4573.97
671.518	4471.57
671.709	4520.72
671.9	4678.41
672.091	4682.51
672.282	4442.9
672.473	4315.92
672.664	4354.83
672.855	4416.27
673.046	4240.15
673.237	4537.1
673.428	4436.75
673.619	4346.64
673.809	4068.12
674	4154.13
674.191	4410.13
674.382	4270.87
674.573	4145.94
674.764	4234
674.954	4401.94
675.145	4049.69
675.336	3945.24
675.527	4076.31
675.717	4090.65
675.908	4152.09
676.099	4082.46
676.289	4053.78
676.48	4014.87
676.671	4139.8
676.861	3978.01
677.052	3879.71
677.243	4041.5
677.433	3971.86
677.624	4170.52
677.814	4025.11
678.005	3975.96
678.195	4295.44
678.386	3959.58
678.576	3867.42
678.767	3963.67
678.957	4145.94
679.148	4135.7
679.338	4055.83
679.529	4172.57
679.719	4006.68
679.909	4221.72
680.1	4078.36
680.29	4242.2
680.481	4154.13
680.671	3992.34
680.861	4182.81
681.052	4227.86
681.242	4111.13
681.432	4340.5
681.622	4197.14
681.813	4147.99
682.003	4336.4
682.193	4164.37
682.383	4246.29
682.573	4500.24
682.764	4426.51
682.954	4446.99
683.144	4510.48
683.334	4567.82
683.524	4610.83
683.714	4518.67
683.904	4606.74
684.094	4653.84
684.284	4770.57
684.474	4852.49
684.664	4735.76
684.854	4872.97
685.044	4887.31
685.234	4834.06
685.424	4819.72
685.614	4797.2
685.804	5229.32
685.994	5004.04
686.184	5249.8
686.374	5141.25
686.564	5174.02
686.753	5257.99
686.943	5180.17
687.133	5487.36
687.323	5403.39
687.513	5382.92
687.702	5221.13
687.892	5501.7
688.082	5780.22
688.272	5548.8
688.461	5608.19
688.651	6013.69
688.841	6054.65
689.03	5909.24
689.22	5872.38
689.41	6343.41
689.599	6191.86
689.789	6200.05
689.979	6316.79
690.168	6433.52
690.358	6425.33
690.547	6372.08
690.737	6517.49
690.926	6595.31
691.116	6488.82
691.305	6560.5
691.495	6669.04
691.684	6603.5
691.874	6740.72
692.063	6814.45
692.252	6689.52
692.442	7117.54
692.631	7009
692.82	6927.08
693.01	7111.4
693.199	7135.98
693.388	7318.25
693.578	7377.64
693.767	7416.55
693.956	7467.75
694.146	7736.03
694.335	7373.54
694.524	7400.16
694.713	7766.75
694.902	7498.47
695.092	7533.28
695.281	7639.78
695.47	7711.46
695.659	7633.63
695.848	7881.44
696.037	7854.81
696.226	8155.86
696.415	7918.3
696.604	7985.88
696.793	7959.26
696.982	7944.92
697.171	8344.28
697.36	8035.03
697.549	7992.03
697.738	8012.51
697.927	7981.79
698.116	8049.37
698.305	8010.46
698.494	8131.29
698.683	8305.37
698.872	8329.94
699.061	7803.61
699.25	8229.59
699.438	8092.38
699.627	8192.73
699.816	8090.33
700.005	8297.17
700.193	8207.06
700.382	8313.56
700.571	8170.2
700.76	8516.31
700.948	8592.08
701.137	8008.41
701.326	8467.16
701.514	8129.24
701.703	8592.08
701.892	8506.07
702.08	8243.93
702.269	8450.77
702.457	8372.95
702.646	8383.19
702.834	8086.23
703.023	8499.92
703.212	8477.4
703.4	8342.23
703.589	8168.15
703.777	8358.61
703.965	8143.58
704.154	8014.56
704.342	8063.71
704.531	8575.7
704.719	8194.78
704.907	8186.58
705.096	7908.06
705.284	8270.55
705.472	8254.17
705.661	8106.71
705.849	8188.63
706.037	8432.34
706.226	8243.93
706.414	8213.21
706.602	8104.67
706.79	8303.32
706.979	8129.24
707.167	7985.88
707.355	7920.35
707.543	8139.48
707.731	8254.17
707.919	8090.33
708.107	7930.59
708.296	8028.89
708.484	7875.29
708.672	8063.71
708.86	7690.98
709.048	7879.39
709.236	7752.42
709.424	7871.2
709.612	7873.25
709.8	7707.36
709.988	7824.09
710.176	7848.67
710.364	7834.33
710.551	7895.77
710.739	7811.81
710.927	7604.96
711.115	7662.3
711.303	7918.3
711.491	7807.71
711.679	7561.95
711.866	7787.23
712.054	7668.45
712.242	7672.54
712.43	7686.88
712.617	7609.06
712.805	7774.94
712.993	7631.58
713.181	7269.09
713.368	7408.36
713.556	7543.52
713.744	7197.42
713.931	7396.07
714.119	7375.59
714.306	7484.13
714.494	7224.04
714.682	7181.03
714.869	7117.54
715.057	7226.09
715.244	7127.78
715.432	7219.94
715.619	7045.87
715.807	7236.33
715.994	6990.57
716.182	6865.64
716.369	7099.11
716.556	7080.68
716.744	6793.97
716.931	6884.08
717.119	6861.55
717.306	6972.14
717.493	6918.89
717.681	6619.89
717.868	6847.21
718.055	6898.41
718.242	6789.87
718.43	6765.29
718.617	6523.63
718.804	6732.53
718.991	6882.03
719.179	6490.87
719.366	6406.9
719.553	6720.24
719.74	6343.41
719.927	6281.97
720.114	6210.29
720.301	6439.67
720.488	6302.45
720.676	6155
720.863	6290.17
721.05	6724.33
721.237	6365.94
721.424	6376.18
721.611	6191.86
721.798	6101.75
721.985	6155
722.172	5966.59
722.358	6064.89
722.545	6075.13
722.732	6142.71
722.919	6249.21
723.106	5843.71
723.293	5970.68
723.48	5841.66
723.667	5853.95
723.853	5886.72
724.04	5894.91
724.227	6009.59
724.414	5632.77
724.6	5690.11
724.787	5819.13
724.974	6105.85
725.161	5896.96
725.347	5356.29
725.534	5745.41
725.72	5620.48
725.907	5749.5
726.094	5534.46
726.28	5511.94
726.467	5552.9
726.653	5425.92
726.84	5444.35
727.027	5737.21
727.213	5475.07
727.4	5532.42
727.586	5350.15
727.773	5528.32
727.959	5333.76
728.145	5493.51
728.332	5235.46
728.518	5303.04
728.705	5294.85
728.891	4973.32
729.077	5257.99
729.264	5100.3
729.45	5057.29
729.636	5120.78
729.823	4928.27
730.009	5180.17
730.195	5278.47
730.382	4922.12
730.568	4922.12
730.754	5149.45
730.94	4844.3
731.126	4961.03
731.313	4815.63
731.499	4864.78
731.685	5098.25
731.871	4944.65
732.057	4985.61
732.243	4977.42
732.429	4915.98
732.615	4834.06
732.801	4672.27
732.987	4692.75
733.173	4854.54
733.359	4565.78
733.545	4702.99
733.731	4795.15
733.917	4813.58
734.103	4778.76
734.289	4762.38
734.475	4412.18
734.661	4809.48
734.847	4606.74
735.033	4565.78
735.219	4698.89
735.404	4631.31
735.59	4373.27
735.776	4477.71
735.962	4549.39
736.148	4664.08
736.333	4403.99
736.519	4430.61
736.705	4641.55
736.89	4490
737.076	4344.6
737.262	4254.48
737.447	4395.79
737.633	4346.64
737.819	4172.57
738.004	4158.23
738.19	4330.26
738.375	4338.45
738.561	4201.24
738.747	4123.41
738.932	4027.16
739.118	4397.84
739.303	4082.46
739.489	4094.74
739.674	3935
739.859	3969.82
740.045	4117.27
740.23	4008.73
740.416	3838.75
740.601	4070.17
740.786	3941.15
740.972	3920.67
741.157	4107.03
741.342	3801.88
741.528	3648.29
741.713	3885.85
741.898	3773.21
742.084	3963.67
742.269	3771.16
742.454	3760.92
742.639	3953.43
742.824	3769.12
743.01	3742.49
743.195	3724.06
743.38	3898.14
743.565	3707.68
743.75	3652.38
743.935	3539.74
744.12	3812.12
744.305	3595.04
744.49	3461.92
744.675	3599.13
744.86	3470.11
745.045	3715.87
745.23	3447.58
745.415	3373.86
745.6	3828.51
745.785	3431.2
745.97	3339.04
746.155	3285.8
746.34	3566.37
746.525	3463.97
746.71	3441.44
746.895	3234.6
747.079	3261.22
747.264	3269.41
747.449	3261.22
747.634	3181.35
747.819	3361.57
748.003	3322.66
748.188	2947.88
748.373	3140.39
748.557	3167.01
748.742	3117.86
748.927	3216.16
749.111	3062.57
749.296	2958.12
749.481	3119.91
749.665	3132.2
749.85	2931.5
750.034	3111.72
750.219	3068.71
750.404	2765.61
750.588	2806.57
750.773	2876.2
750.957	3035.94
751.141	2718.51
751.326	2997.03
751.51	2761.52
751.695	2851.63
751.879	2669.36
752.064	2796.33
752.248	2878.25
752.432	2825
752.617	2540.33
752.801	2767.66
752.985	2781.99
753.17	3029.8
753.354	2657.07
753.538	2542.38
753.722	2655.02
753.907	2648.88
754.091	2599.73
754.275	2562.86
754.459	2530.09
754.643	2605.87
754.828	2528.05
755.012	2405.17
755.196	2399.02
755.38	2595.63
755.564	2325.3
755.748	2317.11
755.932	2634.54
756.116	2659.12
756.3	2403.12
756.484	2425.65
756.668	2384.69
756.852	2216.76
757.036	2304.82
757.22	2145.08
757.404	2249.52
757.588	2224.95
757.772	2288.43
757.956	2140.98
758.14	2491.18
758.323	2181.94
758.507	2190.13
758.691	2106.17
758.875	2396.98
759.059	2327.35
759.242	2063.16
759.426	2122.55
759.61	2143.03
759.794	1821.5
759.977	1919.8
760.161	2403.12
760.345	2177.84
760.528	2159.41
760.712	1743.67
760.895	1819.45
761.079	1925.94
761.263	1667.9
761.446	1635.13
761.63	1575.74
761.813	1835.83
761.997	1643.32
762.18	1622.84
762.364	1702.72
762.547	1559.36
762.731	1712.96
762.914	1706.81
763.098	1567.55
763.281	1649.47
763.464	1594.17
763.648	1696.57
763.831	1637.18
764.015	1704.76
764.198	1833.79
764.381	1653.56
764.564	1536.83
764.748	1739.58
764.931	1758.01
765.114	1561.41
765.297	1672
765.481	1596.22
765.664	1766.2
765.847	1702.72
766.03	1694.52
766.213	1741.63
766.397	1780.54
766.58	1424.19
766.763	1663.8
766.946	1796.92
767.129	1690.43
767.312	1680.19
767.495	1676.09
767.678	1708.86
767.861	1872.7
768.044	1680.19
768.227	1672
768.41	1778.49
768.593	1887.03
768.776	1776.44
768.959	1676.09
769.142	1962.81
769.324	1760.06
769.507	1764.15
769.69	1618.75
769.873	1727.29
770.056	2024.25
770.239	1690.43
770.421	1887.03
770.604	1829.69
770.787	1649.47
770.97	1659.71
771.152	1579.84
771.335	1876.79
771.518	1616.7
771.7	1637.18
771.883	1809.21
772.066	1674.04
772.248	1749.82
772.431	1821.5
772.613	1653.56
772.796	1628.99
772.978	1854.27
773.161	1817.4
773.343	1581.89
773.526	1721.15
773.708	1416
773.891	1368.9
774.073	1487.68
774.256	1624.89
774.438	1854.27
774.621	1467.2
774.803	1559.36
774.985	1672
775.168	1715
775.35	1524.54
775.532	1563.45
775.715	1469.25
775.897	1618.75
776.079	1530.69
776.261	1526.59
776.444	1594.17
776.626	1440.58
776.808	1471.29
776.99	1329.99
777.173	1575.74
777.355	1461.06
777.537	1325.89
777.719	1303.36
777.901	1483.58
778.083	1389.38
778.265	1151.81
778.447	1405.76
778.629	1266.5
778.811	1395.52
778.993	1389.38
779.175	1387.33
779.357	1487.68
779.539	1231.68
779.721	1428.29
779.903	1264.45
780.085	1319.75
780.267	1366.85
780.449	1215.3
780.631	1360.7
780.812	1434.43
780.994	1313.6
781.176	1200.96
781.358	1141.57
781.54	1342.27
781.721	1368.9
781.903	1164.1
782.085	1166.15
782.267	1319.75
782.448	1037.13
782.63	1104.71
782.812	1129.28
782.993	1329.99
783.175	1329.99
783.357	1043.27
783.538	1274.69
783.72	1155.91
783.901	1157.96
784.083	1119.04
784.264	1131.33
784.446	979.78
784.627	953.16
784.809	1135.43
784.99	949.06
785.172	1203.01
785.353	1139.52
785.535	1086.28
785.716	979.78
785.897	981.83
786.079	1045.32
786.26	1033.03
786.441	1047.37
786.623	914.25
786.804	973.64
786.985	1051.46
787.167	985.93
787.348	1037.13
787.529	1098.56
787.71	1049.41
787.891	910.15
788.073	930.63
788.254	869.19
788.435	1080.13
788.616	891.72
788.797	828.23
788.978	963.4
789.159	746.31
789.34	1014.6
789.522	1043.27
789.703	813.9
789.884	838.47
790.065	938.82
790.246	1231.68
790.427	848.71
790.607	959.3
790.788	869.19
790.969	813.9
791.15	969.54
791.331	793.42
791.512	803.66
791.693	744.27
791.874	891.72
792.054	951.11
792.235	908.1
792.416	791.37
792.597	750.41
792.778	830.28
792.958	705.35
793.139	944.97
793.32	834.38
793.5	658.25
793.681	801.61
793.862	895.82
794.042	777.03
794.223	502.61
794.404	609.1
794.584	625.48
794.765	815.94
794.945	799.56
795.126	789.32
795.306	836.42
795.487	801.61
795.667	672.59
795.848	580.43
796.028	768.84
796.209	764.75
796.389	926.54
796.57	617.29
796.75	631.63
796.93	746.31
797.111	578.38
797.291	576.33
797.471	719.69
797.652	676.68
797.832	731.98
798.012	680.78
798.192	660.3
798.373	592.72
798.553	684.87
798.733	729.93
798.913	529.23
799.093	627.53
799.274	543.57
799.454	715.59
799.634	781.13
799.814	738.12
799.994	709.45
800.174	686.92
800.354	676.68
800.534	494.41
800.714	666.44
800.894	392.02
801.074	518.99
801.254	588.62
801.434	723.79
801.614	578.38
801.794	586.57
801.974	5118.73
802.154	529.23
802.334	619.34
802.514	451.41
802.693	596.81
802.873	357.2
803.053	684.87
803.233	641.87
803.413	594.76
803.592	445.26
803.772	482.13
803.952	641.87
804.131	504.65
804.311	553.8
804.491	605
804.67	555.85
804.85	502.61
805.03	668.49
805.209	602.96
805.389	570.19
805.568	486.22
805.748	529.23
805.928	512.85
806.107	670.54
806.287	627.53
806.466	531.28
806.646	486.22
806.825	537.42
807.004	432.97
807.184	508.75
807.363	521.04
807.543	547.66
807.722	396.11
807.901	684.87
808.081	402.26
808.26	195.41
808.439	502.61
808.619	426.83
808.798	455.5
808.977	564.04
809.156	701.26
809.336	537.42
809.515	512.85
809.694	394.06
809.873	494.41
810.052	371.54
810.231	592.72
810.411	602.96
810.59	617.29
810.769	484.17
810.948	527.18
811.127	179.03
811.306	357.2
811.485	332.62
811.664	549.71
811.843	527.18
812.022	482.13
812.201	392.02
812.38	291.66
812.559	349.01
812.737	555.85
812.916	297.81
813.095	344.91
813.274	584.52
813.453	357.2
813.632	437.07
813.811	480.08
813.989	381.78
814.168	518.99
814.347	168.79
814.526	332.62
814.704	641.87
814.883	576.33
815.062	226.13
815.24	428.88
815.419	379.73
815.598	459.6
815.776	86.87
815.955	199.51
816.133	72.53
816.312	510.8
816.49	369.49
816.669	306
816.847	469.84
817.026	494.41
817.204	254.8
817.383	301.9
817.561	308.05
817.74	475.98
817.918	361.3
818.097	228.18
818.275	289.62
818.453	414.54
818.632	332.62
818.81	326.48
818.988	373.58
819.167	363.34
819.345	291.66
819.523	256.85
819.701	349.01
819.879	465.74
820.058	410.45
820.236	179.03
820.414	451.41
820.592	324.43
820.77	252.75
820.948	219.99
821.127	303.95
821.305	338.77
821.483	136.02
821.661	326.48
821.839	394.06
822.017	172.88
822.195	258.9
822.373	336.72
822.551	353.1
822.729	416.59
822.907	252.75
823.085	318.29
823.262	297.81
823.44	269.14
823.618	287.57
823.796	209.75
823.974	353.1
824.152	226.13
824.329	283.47
824.507	301.9
824.685	459.6
824.863	410.45
825.04	187.22
825.218	252.75
825.396	367.44
825.574	310.1
825.751	398.16
825.929	224.08
826.107	197.46
826.284	406.35
826.462	179.03
826.639	228.18
826.817	152.4
826.994	408.4
827.172	144.21
827.349	262.99
827.527	340.82
827.704	312.14
827.882	437.07
828.059	271.19
828.237	269.14
828.414	404.3
828.591	13.14
828.769	310.1
828.946	256.85
829.124	437.07
829.301	240.47
829.478	226.13
829.655	353.1
829.833	363.34
830.01	43.86
830.187	322.38
830.364	365.39
830.542	359.25
830.719	332.62
830.896	346.96
831.073	383.82
831.25	314.19
831.427	281.43
831.604	258.9
831.782	240.47
831.959	357.2
832.136	170.83
832.313	283.47
832.49	238.42
832.667	303.95
832.844	90.96
833.021	363.34
833.198	373.58
833.374	281.43
833.551	271.19
833.728	271.19
833.905	357.2
834.082	76.63
834.259	416.59
834.436	357.2
834.612	189.27
834.789	357.2
834.966	176.98
835.143	191.31
835.319	207.7
835.496	385.87
835.673	213.84
835.85	281.43
836.026	373.58
836.203	422.73
836.38	88.92
836.556	234.32
836.733	238.42
836.909	441.17
837.086	258.9
837.262	15.19
837.439	265.04
837.616	287.57
837.792	262.99
837.968	154.45
838.145	-17.58
838.321	301.9
838.498	121.68
838.674	199.51
838.851	265.04
839.027	242.51
839.203	166.74
839.38	260.95
839.556	260.95
839.732	299.86
839.909	119.64
840.085	156.5
840.261	207.7
840.437	197.46
840.614	103.25
840.79	240.47
840.966	463.69
841.142	234.32
841.318	152.4
841.494	166.74
841.671	371.54
841.847	136.02
842.023	84.82
842.199	183.12
842.375	480.08
842.551	29.52
842.727	45.91
842.903	367.44
843.079	129.88
843.255	447.31
843.431	148.31
843.607	308.05
843.783	45.91
843.959	365.39
844.134	66.39
844.31	262.99
844.486	152.4
844.662	127.83
844.838	209.75
845.013	160.59
845.189	371.54
845.365	322.38
845.541	219.99
845.716	222.03
845.892	416.59
846.068	240.47
846.244	176.98
846.419	103.25
846.595	197.46
846.77	140.12
846.946	256.85
847.122	86.87
847.297	224.08
847.473	516.94
847.648	29.52
847.824	158.55
847.999	17.24
848.175	172.88
848.35	293.71
848.526	226.13
848.701	404.3
848.876	344.91
849.052	353.1
849.227	201.55
849.403	213.84
849.578	144.21
849.753	258.9
849.929	133.97
850.104	103.25
850.279	244.56
850.454	181.07
850.63	244.56
850.805	267.09
850.98	224.08
851.155	160.59
851.33	154.45
851.505	56.15
851.681	398.16
851.856	105.3
852.031	176.98
852.206	330.58
852.381	111.44
852.556	168.79
852.731	154.45
852.906	314.19
853.081	324.43
853.256	281.43
853.431	109.4
853.606	115.54
853.781	47.96
853.956	-27.82
854.131	215.89
854.305	111.44
854.48	187.22
854.655	82.77
854.83	2.9
855.005	185.17
855.18	260.95
855.354	119.64
855.529	111.44
855.704	199.51
855.879	326.48
856.053	117.59
856.228	174.93
856.403	70.48
856.577	242.51
856.752	-3.24
856.926	181.07
857.101	289.62
857.276	54.1
857.45	195.41
857.625	183.12
857.799	185.17
857.974	205.65
858.148	-60.59
858.323	162.64
858.497	213.84
858.672	111.44
858.846	62.29
859.02	168.79
859.195	103.25
859.369	240.47
859.543	156.5
859.718	158.55
859.892	168.79
860.066	295.76
860.241	76.63
860.415	88.92
860.589	172.88
860.763	170.83
860.938	162.64
861.112	117.59
861.286	125.78
861.46	224.08
861.634	164.69
861.808	99.16
861.982	60.24
862.157	2.9
862.331	88.92
862.505	-103.59
862.679	95.06
862.853	99.16
863.027	115.54
863.201	156.5
863.375	115.54
863.549	273.23
863.722	213.84
863.896	133.97
864.07	101.2
864.244	215.89
864.418	144.21
864.592	133.97
864.766	174.93
864.939	172.88
865.113	90.96
865.287	265.04
865.461	148.31
865.634	199.51
865.808	45.91
865.982	189.27
866.156	133.97
866.329	-64.68
866.503	115.54
866.676	267.09
866.85	250.71
867.024	121.68
867.197	197.46
867.371	41.81
867.544	324.43
867.718	-13.48
867.891	207.7
868.065	-42.15
868.238	193.36
868.412	324.43
868.585	82.77
868.759	56.15
868.932	97.11
869.105	19.29
869.279	195.41
869.452	52.05
869.625	293.71
869.799	131.92
869.972	-31.91
870.145	78.68
870.319	387.92
870.492	43.86
870.665	82.77
870.838	15.19
871.011	-169.13
871.185	185.17
871.358	101.2
871.531	240.47
871.704	80.72
871.877	172.88
872.05	-13.48
872.223	-7.34
872.396	336.72
872.569	224.08
872.742	-5.29
872.915	162.64
873.088	86.87
873.261	74.58
873.434	215.89
873.607	84.82
873.78	412.5
873.953	-17.58
874.126	136.02
874.299	125.78
874.471	160.59
874.644	162.64
874.817	195.41
874.99	275.28
875.163	109.4
875.335	226.13
875.508	29.52
875.681	179.03
875.853	166.74
876.026	195.41
876.199	168.79
876.371	101.2
876.544	115.54
876.717	144.21
876.889	90.96
877.062	181.07
877.234	82.77
877.407	117.59
877.579	121.68
877.752	113.49
877.924	324.43
878.097	181.07
878.269	115.54
878.442	189.27
878.614	265.04
878.786	172.88
878.959	78.68
879.131	95.06
879.303	-91.31
879.476	154.45
879.648	260.95
879.82	-15.53
879.993	121.68
880.165	146.26
880.337	-23.72
880.509	50
880.681	33.62
880.854	47.96
881.026	191.31
881.198	140.12
881.37	240.47
881.542	166.74
881.714	129.88
881.886	-3.24
882.058	174.93
882.23	136.02
882.402	52.05
882.574	156.5
882.746	277.33
882.918	330.58
883.09	113.49
883.262	74.58
883.434	275.28
883.606	-79.02
883.778	54.1
883.95	148.31
884.122	52.05
884.293	336.72
884.465	19.29
884.637	217.94
884.809	88.92
884.98	234.32
885.152	201.55
885.324	234.32
885.496	129.88
885.667	86.87
885.839	68.44
886.011	113.49
886.182	160.59
886.354	258.9
886.525	179.03
886.697	58.2
886.869	41.81
887.04	158.55
887.212	283.47
887.383	205.65
887.555	144.21
887.726	64.34
887.897	2.9
888.069	88.92
888.24	373.58
888.412	129.88
888.583	93.01
888.754	93.01
888.926	-25.77
889.097	41.81
889.268	-72.87
889.44	84.82
889.611	-31.91
889.782	-38.06
889.953	-15.53
890.125	166.74
890.296	17.24
890.467	90.96
890.638	72.53
890.809	17.24
890.98	25.43
891.151	267.09
891.323	158.55
891.494	-76.97
891.665	166.74
891.836	47.96
892.007	105.3
892.178	95.06
892.349	156.5
892.52	117.59
892.691	43.86
892.862	88.92
893.032	-9.39
893.203	133.97
893.374	86.87
893.545	144.21
893.716	35.67
893.887	250.71
894.057	70.48
894.228	66.39
894.399	43.86
894.57	330.58
894.74	150.36
894.911	146.26
895.082	125.78
895.253	-19.63
895.423	150.36
895.594	195.41
895.764	176.98
895.935	35.67
896.106	117.59
896.276	-81.07
896.447	174.93
896.617	52.05
896.788	-13.48
896.958	-33.96
897.129	66.39
897.299	-54.44
897.47	260.95
897.64	164.69
897.81	133.97
897.981	269.14
898.151	-25.77
898.322	72.53
898.492	252.75
898.662	43.86
898.832	-3.24
899.003	21.33
899.173	262.99
899.343	-38.06
899.513	84.82
