Data from USB4F104151__12__11-52-16-322.txt Node

Date: Wed Feb 19 11:52:16 EST 2025
User: louis
Spectrometer: USB4F10415
Trigger mode: 4
Integration Time (sec): 2.250200E-1
Scans to average: 1
Electric dark correction enabled: true
Nonlinearity correction enabled: false
Boxcar width: 0
XAxis mode: Wavelengths
Number of Pixels in Spectrum: 3648
>>>>>Begin Spectral Data<<<<<
178.204	-862.19
178.424	-862.19
178.644	-862.19
178.864	-757.75
179.084	-788.47
179.304	116.73
179.524	69.63
179.744	-51.2
179.964	-186.37
180.184	231.42
180.404	129.02
180.624	-286.72
180.844	-108.54
181.064	63.49
181.283	215.04
181.503	-141.31
181.723	-51.2
181.943	-137.21
182.163	401.4
182.383	-204.8
182.602	-120.83
182.822	376.83
183.042	256
183.262	-276.48
183.482	-198.65
183.701	229.37
183.921	186.37
184.141	-163.84
184.361	-163.84
184.58	239.61
184.8	176.13
185.02	-133.12
185.239	-98.3
185.459	268.28
185.679	370.68
185.898	-249.85
186.118	-225.28
186.338	198.65
186.557	251.9
186.777	-256
186.997	-190.46
187.216	251.9
187.436	458.74
187.655	-71.68
187.875	-10.24
188.095	249.85
188.314	397.31
188.534	-28.67
188.753	-278.52
188.973	417.79
189.192	440.31
189.412	-229.37
189.631	-184.32
189.851	311.29
190.07	477.18
190.29	-260.09
190.509	-155.65
190.729	266.24
190.948	419.83
191.168	-59.39
191.387	-153.6
191.607	208.89
191.826	342.01
192.045	-147.45
192.265	-137.21
192.484	272.38
192.704	172.03
192.923	-137.21
193.142	8.19
193.362	385.02
193.581	335.87
193.8	-139.26
194.02	-161.79
194.239	221.18
194.458	262.14
194.678	-108.54
194.897	-198.65
195.116	215.04
195.335	329.72
195.555	-180.22
195.774	-223.23
195.993	356.35
196.212	182.27
196.432	-139.26
196.651	-229.37
196.87	202.75
197.089	524.28
197.308	-202.75
197.528	-198.65
197.747	55.3
197.966	180.22
198.185	-79.87
198.404	-200.7
198.623	272.38
198.842	372.73
199.062	-135.17
199.281	-92.16
199.5	278.52
199.719	284.67
199.938	-180.22
200.157	-145.41
200.376	473.08
200.595	432.12
200.814	-149.5
201.033	-149.5
201.252	475.13
201.471	253.95
201.69	-202.75
201.909	-98.3
202.128	358.39
202.347	339.96
202.566	-145.41
202.785	-342.01
203.004	69.63
203.223	501.75
203.442	-190.46
203.661	-299
203.879	280.57
204.098	315.39
204.317	-204.8
204.536	51.2
204.755	286.72
204.974	317.44
205.193	-221.18
205.411	-124.93
205.63	372.73
205.849	282.62
206.068	-126.97
206.287	-299
206.505	272.38
206.724	208.89
206.943	-233.47
207.162	-208.89
207.381	178.17
207.599	212.99
207.818	-75.77
208.037	-237.56
208.255	227.32
208.474	266.24
208.693	-149.5
208.911	-153.6
209.13	290.81
209.349	262.14
209.567	-73.73
209.786	-163.84
210.005	335.87
210.223	256
210.442	-327.67
210.661	-243.71
210.879	239.61
211.098	227.32
211.316	-81.92
211.535	-163.84
211.753	184.32
211.972	249.85
212.191	-192.51
212.409	-217.08
212.628	339.96
212.846	163.84
213.065	-198.65
213.283	-100.35
213.502	186.37
213.72	178.17
213.938	-219.13
214.157	-198.65
214.375	311.29
214.594	159.74
214.812	-69.63
215.031	-190.46
215.249	163.84
215.467	202.75
215.686	-116.73
215.904	-202.75
216.122	253.95
216.341	335.87
216.559	6.14
216.778	2.05
216.996	428.03
217.214	167.93
217.432	-180.22
217.651	-237.56
217.869	198.65
218.087	274.43
218.306	-151.55
218.524	-215.04
218.742	178.17
218.96	311.29
219.179	-139.26
219.397	-288.76
219.615	491.51
219.833	301.05
220.051	-208.89
220.27	-106.49
220.488	413.69
220.706	339.96
220.924	-194.56
221.142	-196.61
221.36	278.52
221.578	208.89
221.796	-200.7
222.015	-86.01
222.233	280.57
222.451	380.92
222.669	-102.4
222.887	-116.73
223.105	161.79
223.323	217.08
223.541	-114.69
223.759	-108.54
223.977	221.18
224.195	333.82
224.413	-165.89
224.631	-196.61
224.849	264.19
225.067	415.74
225.285	-67.58
225.503	-204.8
225.721	-69.63
225.939	219.13
226.157	-45.06
226.375	106.49
226.592	137.21
226.81	110.59
227.028	-43.01
227.246	-83.97
227.464	260.09
227.682	305.15
227.9	-10.24
228.117	-18.43
228.335	198.65
228.553	151.55
228.771	-153.6
228.989	-225.28
229.206	247.8
229.424	65.53
229.642	-151.55
229.86	-208.89
230.077	339.96
230.295	153.6
230.513	-86.01
230.731	-112.64
230.948	444.41
231.166	391.16
231.384	-67.58
231.601	-104.45
231.819	350.2
232.037	45.06
232.254	-116.73
232.472	-57.34
232.689	153.6
232.907	309.24
233.125	-180.22
233.342	-178.17
233.56	153.6
233.777	188.41
233.995	-124.93
234.213	-106.49
234.43	276.48
234.648	227.32
234.865	-169.98
235.083	-34.82
235.3	165.89
235.518	278.52
235.735	-172.03
235.953	-67.58
236.17	223.23
236.388	147.45
236.605	124.93
236.822	-65.53
237.04	315.39
237.257	241.66
237.475	-120.83
237.692	-155.65
237.909	292.86
238.127	206.84
238.344	-77.82
238.562	-59.39
238.779	45.06
238.996	49.15
239.214	0
239.431	-116.73
239.648	51.2
239.865	280.57
240.083	-100.35
240.3	-118.78
240.517	53.25
240.735	157.69
240.952	59.39
241.169	-194.56
241.386	307.2
241.603	169.98
241.821	-219.13
242.038	-167.93
242.255	268.28
242.472	63.49
242.689	-59.39
242.907	-124.93
243.124	217.08
243.341	188.41
243.558	-86.01
243.775	-258.04
243.992	43.01
244.209	323.58
244.426	-43.01
244.643	-26.62
244.86	172.03
245.078	329.72
245.295	-131.07
245.512	-208.89
245.729	59.39
245.946	303.1
246.163	-167.93
246.38	-231.42
246.597	253.95
246.814	169.98
247.031	-110.59
247.248	-210.94
247.464	385.02
247.681	260.09
247.898	-71.68
248.115	-18.43
248.332	225.28
248.549	401.4
248.766	-53.25
248.983	-100.35
249.2	227.32
249.417	428.03
249.633	-124.93
249.85	-38.91
250.067	182.27
250.284	122.88
250.501	-106.49
250.717	-139.26
250.934	38.91
251.151	178.17
251.368	-79.87
251.585	-32.77
251.801	190.46
252.018	34.82
252.235	-22.53
252.451	-114.69
252.668	147.45
252.885	348.15
253.102	8.19
253.318	-92.16
253.535	169.98
253.752	196.61
253.968	-135.17
254.185	-245.76
254.401	245.76
254.618	190.46
254.835	-79.87
255.051	-90.11
255.268	272.38
255.484	212.99
255.701	-116.73
255.917	-145.41
256.134	180.22
256.351	210.94
256.567	-210.94
256.784	-4.1
257	-36.86
257.217	323.58
257.433	51.2
257.65	-51.2
257.866	358.39
258.082	16.38
258.299	-157.69
258.515	-63.49
258.732	161.79
258.948	-6.14
259.165	-26.62
259.381	-131.07
259.597	249.85
259.814	139.26
260.03	-184.32
260.246	-161.79
260.463	331.77
260.679	260.09
260.895	-8.19
261.112	-106.49
261.328	143.36
261.544	147.45
261.761	-116.73
261.977	-118.78
262.193	-2.05
262.409	294.91
262.626	-77.82
262.842	-147.45
263.058	67.58
263.274	292.86
263.49	-47.1
263.707	-200.7
263.923	241.66
264.139	-18.43
264.355	-2.05
264.571	-71.68
264.787	169.98
265.004	325.63
265.22	-96.25
265.436	-131.07
265.652	208.89
265.868	223.23
266.084	-182.27
266.3	-129.02
266.516	43.01
266.732	161.79
266.948	-18.43
267.164	-149.5
267.38	339.96
267.596	329.72
267.812	63.49
268.028	-69.63
268.244	92.16
268.46	278.52
268.676	-71.68
268.892	22.53
269.108	32.77
269.324	-26.62
269.54	-81.92
269.756	-49.15
269.972	14.34
270.188	212.99
270.403	-200.7
270.619	-71.68
270.835	169.98
271.051	161.79
271.267	-165.89
271.483	-194.56
271.698	354.3
271.914	268.28
272.13	-40.96
272.346	-94.21
272.562	241.66
272.777	270.33
272.993	-18.43
273.209	-88.06
273.425	241.66
273.64	-45.06
273.856	-53.25
274.072	-194.56
274.287	120.83
274.503	241.66
274.719	2.05
274.934	-94.21
275.15	-28.67
275.366	161.79
275.581	-120.83
275.797	-47.1
276.012	215.04
276.228	92.16
276.444	-59.39
276.659	126.97
276.875	2.05
277.09	131.07
277.306	-34.82
277.521	-40.96
277.737	118.78
277.952	223.23
278.168	-172.03
278.383	-71.68
278.599	83.97
278.814	251.9
279.03	-137.21
279.245	-51.2
279.461	167.93
279.676	253.95
279.892	-98.3
280.107	-131.07
280.322	110.59
280.538	276.48
280.753	-73.73
280.969	6.14
281.184	172.03
281.399	331.77
281.615	4.1
281.83	30.72
282.045	-2.05
282.26	49.15
282.476	-100.35
282.691	55.3
282.906	153.6
283.122	141.31
283.337	-51.2
283.552	28.67
283.767	77.82
283.983	161.79
284.198	-65.53
284.413	-96.25
284.628	-14.34
284.843	182.27
285.058	-28.67
285.274	-36.86
285.489	122.88
285.704	202.75
285.919	-110.59
286.134	-51.2
286.349	141.31
286.564	110.59
286.779	47.1
286.995	-20.48
287.21	-8.19
287.425	202.75
287.64	-145.41
287.855	155.65
288.07	-6.14
288.285	219.13
288.5	53.25
288.715	0
288.93	81.92
289.145	26.62
289.36	-40.96
289.575	-133.12
289.79	325.63
290.004	59.39
290.219	49.15
290.434	-151.55
290.649	139.26
290.864	147.45
291.079	45.06
291.294	16.38
291.509	233.47
291.724	126.97
291.938	-30.72
292.153	-61.44
292.368	110.59
292.583	215.04
292.798	75.77
293.012	-51.2
293.227	202.75
293.442	98.3
293.657	90.11
293.871	2.05
294.086	270.33
294.301	294.91
294.516	2.05
294.73	38.91
294.945	73.73
295.16	118.78
295.374	28.67
295.589	2.05
295.804	47.1
296.018	88.06
296.233	-73.73
296.447	6.14
296.662	145.41
296.877	374.78
297.091	43.01
297.306	22.53
297.52	165.89
297.735	227.32
297.949	67.58
298.164	-133.12
298.378	196.61
298.593	61.44
298.807	-34.82
299.022	-51.2
299.236	333.82
299.451	-65.53
299.665	26.62
299.88	4.1
300.094	253.95
300.309	118.78
300.523	-18.43
300.737	-92.16
300.952	305.15
301.166	260.09
301.381	-55.3
301.595	-155.65
301.809	163.84
302.024	178.17
302.238	-63.49
302.452	86.01
302.667	184.32
302.881	247.8
303.095	34.82
303.309	-30.72
303.524	122.88
303.738	120.83
303.952	6.14
304.166	79.87
304.381	-149.5
304.595	258.04
304.809	-4.1
305.023	-26.62
305.237	165.89
305.452	77.82
305.666	-63.49
305.88	14.34
306.094	276.48
306.308	67.58
306.522	-20.48
306.736	129.02
306.95	266.24
307.164	10.24
307.379	28.67
307.593	55.3
307.807	235.52
308.021	319.48
308.235	135.17
308.449	-141.31
308.663	167.93
308.877	440.31
309.091	-8.19
309.305	55.3
309.519	-94.21
309.733	184.32
309.947	-90.11
310.161	-49.15
310.374	149.5
310.588	290.81
310.802	-92.16
311.016	-98.3
311.23	219.13
311.444	49.15
311.658	53.25
311.872	208.89
312.085	249.85
312.299	294.91
312.513	188.41
312.727	-81.92
312.941	96.25
313.154	137.21
313.368	8.19
313.582	-51.2
313.796	210.94
314.009	184.32
314.223	137.21
314.437	71.68
314.651	241.66
314.864	57.34
315.078	-59.39
315.292	-100.35
315.505	120.83
315.719	81.92
315.933	90.11
316.146	-47.1
316.36	6.14
316.573	227.32
316.787	159.74
317.001	79.87
317.214	63.49
317.428	145.41
317.641	-49.15
317.855	-10.24
318.068	253.95
318.282	227.32
318.495	98.3
318.709	-65.53
318.922	169.98
319.136	305.15
319.349	75.77
319.563	-4.1
319.776	249.85
319.99	-63.49
320.203	-2.05
320.417	-45.06
320.63	96.25
320.843	225.28
321.057	47.1
321.27	-26.62
321.483	292.86
321.697	184.32
321.91	-88.06
322.124	49.15
322.337	145.41
322.55	88.06
322.763	-4.1
322.977	-57.34
323.19	61.44
323.403	28.67
323.617	14.34
323.83	159.74
324.043	227.32
324.256	106.49
324.469	-196.61
324.683	157.69
324.896	215.04
325.109	174.08
325.322	-112.64
325.535	18.43
325.748	323.58
325.962	169.98
326.175	22.53
326.388	-98.3
326.601	206.84
326.814	63.49
327.027	-18.43
327.24	-14.34
327.453	-98.3
327.666	172.03
327.879	167.93
328.092	63.49
328.305	231.42
328.518	88.06
328.731	-22.53
328.944	-92.16
329.157	165.89
329.37	90.11
329.583	71.68
329.796	90.11
330.009	38.91
330.222	249.85
330.435	45.06
330.648	-12.29
330.861	206.84
331.073	116.73
331.286	92.16
331.499	-90.11
331.712	65.53
331.925	176.13
332.138	22.53
332.35	-59.39
332.563	88.06
332.776	311.29
332.989	-28.67
333.202	-34.82
333.414	88.06
333.627	122.88
333.84	-83.97
334.053	55.3
334.265	47.1
334.478	51.2
334.691	-12.29
334.903	151.55
335.116	126.97
335.329	118.78
335.541	30.72
335.754	143.36
335.966	98.3
336.179	129.02
336.392	-18.43
336.604	112.64
336.817	206.84
337.029	182.27
337.242	6.14
337.454	-53.25
337.667	270.33
337.88	317.44
338.092	81.92
338.305	77.82
338.517	145.41
338.729	206.84
338.942	69.63
339.154	-71.68
339.367	65.53
339.579	346.11
339.792	-124.93
340.004	100.35
340.217	116.73
340.429	106.49
340.641	-63.49
340.854	-153.6
341.066	219.13
341.278	276.48
341.491	192.51
341.703	-47.1
341.915	88.06
342.128	202.75
342.34	34.82
342.552	-67.58
342.764	153.6
342.977	247.8
343.189	14.34
343.401	100.35
343.613	-14.34
343.826	131.07
344.038	-81.92
344.25	120.83
344.462	102.4
344.674	129.02
344.886	-92.16
345.099	75.77
345.311	184.32
345.523	155.65
345.735	-174.08
345.947	92.16
346.159	194.56
346.371	221.18
346.583	67.58
346.795	116.73
347.007	104.45
347.219	182.27
347.431	53.25
347.643	212.99
347.855	8.19
348.067	286.72
348.279	8.19
348.491	-96.25
348.703	227.32
348.915	53.25
349.127	-34.82
349.339	38.91
349.551	120.83
349.763	278.52
349.975	45.06
350.187	88.06
350.399	378.87
350.61	188.41
350.822	-22.53
351.034	-51.2
351.246	247.8
351.458	210.94
351.669	12.29
351.881	30.72
352.093	385.02
352.305	245.76
352.517	-88.06
352.728	122.88
352.94	83.97
353.152	307.2
353.363	-88.06
353.575	108.54
353.787	401.4
353.999	188.41
354.21	110.59
354.422	-112.64
354.633	167.93
354.845	223.23
355.057	192.51
355.268	0
355.48	276.48
355.692	-20.48
355.903	24.58
356.115	-129.02
356.326	-71.68
356.538	342.01
356.749	4.1
356.961	100.35
357.172	149.5
357.384	-30.72
357.595	186.37
357.807	10.24
358.018	104.45
358.23	217.08
358.441	20.48
358.653	-86.01
358.864	106.49
359.075	-26.62
359.287	-14.34
359.498	71.68
359.709	225.28
359.921	174.08
360.132	75.77
360.344	-100.35
360.555	176.13
360.766	223.23
360.977	-36.86
361.189	153.6
361.4	118.78
361.611	305.15
361.823	71.68
362.034	8.19
362.245	-59.39
362.456	151.55
362.667	143.36
362.879	-114.69
363.09	227.32
363.301	172.03
363.512	-20.48
363.723	-6.14
363.935	104.45
364.146	317.44
364.357	-20.48
364.568	-30.72
364.779	102.4
364.99	284.67
365.201	-8.19
365.412	86.01
365.623	-20.48
365.834	190.46
366.045	16.38
366.256	-51.2
366.467	231.42
366.678	110.59
366.889	55.3
367.1	-30.72
367.311	335.87
367.522	96.25
367.733	92.16
367.944	-18.43
368.155	188.41
368.366	215.04
368.577	135.17
368.788	122.88
368.999	22.53
369.209	137.21
369.42	67.58
369.631	307.2
369.842	157.69
370.053	86.01
370.264	-10.24
370.474	-112.64
370.685	270.33
370.896	63.49
371.107	106.49
371.317	-36.86
371.528	153.6
371.739	274.43
371.95	79.87
372.16	-14.34
372.371	-2.05
372.582	79.87
372.792	-47.1
373.003	131.07
373.214	235.52
373.424	249.85
373.635	18.43
373.846	147.45
374.056	215.04
374.267	131.07
374.477	45.06
374.688	-18.43
374.898	243.71
375.109	151.55
375.319	86.01
375.53	141.31
375.74	264.19
375.951	131.07
376.161	47.1
376.372	67.58
376.582	59.39
376.793	165.89
377.003	-104.45
377.214	-59.39
377.424	305.15
377.635	122.88
377.845	-79.87
378.055	118.78
378.266	6.14
378.476	188.41
378.686	86.01
378.897	-6.14
379.107	331.77
379.317	206.84
379.528	-26.62
379.738	71.68
379.948	67.58
380.158	262.14
380.369	98.3
380.579	131.07
380.789	174.08
380.999	157.69
381.21	129.02
381.42	190.46
381.63	159.74
381.84	245.76
382.05	40.96
382.261	90.11
382.471	299
382.681	86.01
382.891	112.64
383.101	55.3
383.311	22.53
383.521	81.92
383.731	-6.14
383.941	169.98
384.151	106.49
384.361	18.43
384.571	63.49
384.781	18.43
384.991	313.34
385.201	352.25
385.411	157.69
385.621	57.34
385.831	192.51
386.041	145.41
386.251	112.64
386.461	69.63
386.671	217.08
386.881	219.13
387.091	59.39
387.301	151.55
387.511	210.94
387.72	186.37
387.93	94.21
388.14	-73.73
388.35	96.25
388.56	303.1
388.769	49.15
388.979	-22.53
389.189	120.83
389.399	145.41
389.609	-63.49
389.818	104.45
390.028	319.48
390.238	161.79
390.447	-71.68
390.657	73.73
390.867	163.84
391.076	8.19
391.286	-34.82
391.496	-47.1
391.705	98.3
391.915	346.11
392.125	-10.24
392.334	-4.1
392.544	221.18
392.753	151.55
392.963	-47.1
393.172	34.82
393.382	120.83
393.591	454.65
393.801	-12.29
394.01	59.39
394.22	206.84
394.429	110.59
394.639	47.1
394.848	59.39
395.058	233.47
395.267	169.98
395.477	122.88
395.686	71.68
395.895	425.98
396.105	387.07
396.314	26.62
396.524	47.1
396.733	137.21
396.942	319.48
397.152	59.39
397.361	180.22
397.57	124.93
397.78	167.93
397.989	55.3
398.198	206.84
398.407	71.68
398.617	122.88
398.826	10.24
399.035	16.38
399.244	217.08
399.453	190.46
399.663	-16.38
399.872	-90.11
400.081	65.53
400.29	223.23
400.499	24.58
400.708	45.06
400.917	194.56
401.127	120.83
401.336	-16.38
401.545	282.62
401.754	309.24
401.963	272.38
402.172	16.38
402.381	-26.62
402.59	182.27
402.799	174.08
403.008	172.03
403.217	118.78
403.426	223.23
403.635	-53.25
403.844	-28.67
404.053	-2.05
404.262	137.21
404.471	290.81
404.68	8.19
404.888	106.49
405.097	102.4
405.306	167.93
405.515	12.29
405.724	45.06
405.933	278.52
406.142	256
406.35	34.82
406.559	57.34
406.768	182.27
406.977	303.1
407.185	30.72
407.394	120.83
407.603	38.91
407.812	153.6
408.02	137.21
408.229	2.05
408.438	210.94
408.646	-2.05
408.855	-16.38
409.064	34.82
409.272	163.84
409.481	221.18
409.69	8.19
409.898	-114.69
410.107	172.03
410.315	311.29
410.524	67.58
410.733	67.58
410.941	233.47
411.15	313.34
411.358	114.69
411.567	137.21
411.775	194.56
411.984	161.79
412.192	114.69
412.401	-49.15
412.609	454.65
412.818	317.44
413.026	30.72
413.234	-63.49
413.443	221.18
413.651	129.02
413.86	-139.26
414.068	266.24
414.276	389.11
414.485	116.73
414.693	151.55
414.901	278.52
415.11	247.8
415.318	165.89
415.526	131.07
415.734	180.22
415.943	145.41
416.151	288.76
416.359	57.34
416.567	143.36
416.776	317.44
416.984	198.65
417.192	153.6
417.4	71.68
417.608	141.31
417.817	94.21
418.025	137.21
418.233	174.08
418.441	102.4
418.649	112.64
418.857	137.21
419.065	81.92
419.273	239.61
419.481	198.65
419.689	73.73
419.897	-14.34
420.105	38.91
420.313	395.26
420.521	190.46
420.729	212.99
420.937	221.18
421.145	65.53
421.353	110.59
421.561	237.56
421.769	282.62
421.977	65.53
422.185	151.55
422.393	83.97
422.601	292.86
422.809	276.48
423.017	110.59
423.224	45.06
423.432	382.97
423.64	204.8
423.848	108.54
424.056	63.49
424.263	407.55
424.471	251.9
424.679	223.23
424.887	61.44
425.094	522.23
425.302	425.98
425.51	8.19
425.718	100.35
425.925	344.06
426.133	157.69
426.341	282.62
426.548	126.97
426.756	296.96
426.964	309.24
427.171	178.17
427.379	151.55
427.586	294.91
427.794	419.83
428.001	169.98
428.209	241.66
428.417	468.98
428.624	333.82
428.832	219.13
429.039	253.95
429.247	350.2
429.454	374.78
429.662	342.01
429.869	235.52
430.076	477.18
430.284	473.08
430.491	333.82
430.699	278.52
430.906	618.49
431.114	391.16
431.321	372.73
431.528	387.07
431.736	428.03
431.943	423.93
432.15	362.49
432.358	274.43
432.565	694.26
432.772	147.45
432.979	393.21
433.187	380.92
433.394	569.34
433.601	442.36
433.808	391.16
434.016	399.35
434.223	577.53
434.43	641.01
434.637	319.48
434.844	536.57
435.052	589.82
435.259	659.45
435.466	579.58
435.673	442.36
435.88	675.83
436.087	765.94
436.294	751.6
436.501	669.69
436.708	684.02
436.915	790.52
437.122	743.41
437.329	555
437.537	626.68
437.743	808.95
437.95	763.89
438.157	534.52
438.364	798.71
438.571	839.67
438.778	794.61
438.985	868.34
439.192	956.4
439.399	847.86
439.606	864.24
439.813	839.67
440.02	1064.94
440.227	1175.53
440.433	878.58
440.64	880.63
440.847	948.21
441.054	987.12
441.261	923.63
441.467	843.76
441.674	958.45
441.881	1304.56
442.088	948.21
442.294	1071.09
442.501	1284.08
442.708	1386.47
442.914	1026.03
443.121	1132.53
443.328	1341.42
443.534	1531.88
443.741	1163.25
443.948	1144.81
444.154	1449.96
444.361	1714.15
444.568	1394.67
444.774	1298.41
444.981	1261.55
445.187	1638.38
445.394	1392.62
445.6	1433.58
445.807	1681.38
446.013	1644.52
446.22	1347.56
446.426	1742.82
446.633	1763.3
446.839	2000.87
447.046	1533.93
447.252	1898.47
447.459	1906.66
447.665	1798.12
447.871	1880.04
448.078	2193.37
448.284	2056.16
448.491	2193.37
448.697	2078.69
448.903	2146.27
449.11	2283.49
449.316	2306.01
449.522	2344.92
449.728	2455.51
449.935	2631.64
450.141	2480.09
450.347	2545.63
450.553	2416.6
450.76	2656.22
450.966	2863.06
451.172	2758.61
451.378	2809.81
451.584	2834.39
451.791	3203.02
451.997	3024.85
452.203	3160.02
452.409	3434.44
452.615	3356.62
452.821	3074
453.027	3012.56
453.233	3645.38
453.44	3366.86
453.646	3471.31
453.852	3491.79
454.058	3571.66
454.264	3825.61
454.47	3774.41
454.676	3737.54
454.882	4112.32
455.088	3850.18
455.294	3913.67
455.5	3997.63
455.705	4149.18
455.911	4036.55
456.117	4028.35
456.323	4132.8
456.529	3989.44
456.735	4153.28
456.941	3911.62
457.147	4237.25
457.352	4257.73
457.558	4001.73
457.764	4280.25
457.97	4202.43
458.176	4390.84
458.381	4487.1
458.587	4161.47
458.793	4210.62
458.999	4020.16
459.204	4476.86
459.41	4175.81
459.616	4249.54
459.821	4440
460.027	4054.98
460.233	4130.75
460.438	4063.17
460.644	4159.42
460.85	4085.7
461.055	4071.36
461.261	3932.1
461.466	3823.56
461.672	3848.13
461.878	3801.03
462.083	3807.17
462.289	3631.05
462.494	3659.72
462.7	3563.47
462.905	3413.96
463.111	3960.77
463.316	3684.3
463.522	3561.42
463.727	3610.57
463.932	3667.91
464.138	3725.26
464.343	3489.74
464.549	3379.15
464.754	3827.65
464.959	3606.47
465.165	3463.12
465.37	3338.19
465.575	3456.97
465.781	3436.49
465.986	3348.43
466.191	3233.74
466.397	3581.9
466.602	3448.78
466.807	3194.83
467.012	3356.62
467.218	3508.17
467.423	3311.57
467.628	3166.16
467.833	3170.26
468.038	3366.86
468.244	3043.28
468.449	3284.94
468.654	3168.21
468.859	3123.15
469.064	3327.95
469.269	2985.94
469.474	3022.8
469.679	3456.97
469.885	3338.19
470.09	3102.67
470.295	3336.14
470.5	3151.82
470.705	3385.29
470.91	3209.17
471.115	3074
471.32	3467.21
471.525	3538.89
471.73	3074
471.935	3268.56
472.139	3239.89
472.344	3330
472.549	3157.97
472.754	3280.85
472.959	3379.15
473.164	3241.93
473.369	3200.98
473.574	3225.55
473.778	3432.4
473.983	3499.98
474.188	3356.62
474.393	3235.79
474.598	3293.13
474.802	3373
475.007	3203.02
475.212	3416.01
475.417	3291.09
475.621	3442.64
475.826	3237.84
476.031	3227.6
476.235	3284.94
476.44	3227.6
476.645	3272.65
476.849	3149.78
477.054	3315.66
477.259	3231.69
477.463	3366.86
477.668	3266.51
477.872	3565.51
478.077	3297.23
478.282	3026.9
478.486	3125.2
478.691	3299.28
478.895	3278.8
479.1	3243.98
479.304	3235.79
479.509	3215.31
479.713	3471.31
479.918	3131.34
480.122	3149.78
480.326	3315.66
480.531	3325.9
480.735	3315.66
480.94	3012.56
481.144	3403.72
481.348	3291.09
481.553	2987.99
481.757	3139.54
481.961	3190.74
482.166	3340.24
482.37	3145.68
482.574	3190.74
482.778	3186.64
482.983	3463.12
483.187	3080.14
483.391	3379.15
483.595	3266.51
483.8	3305.42
484.004	3377.1
484.208	3307.47
484.412	3434.44
484.616	3377.1
484.821	3219.41
485.025	3289.04
485.229	3227.6
485.433	3612.62
485.637	3358.67
485.841	3229.65
486.045	3538.89
486.249	3520.46
486.453	3348.43
486.657	3319.76
486.861	3397.58
487.065	3475.4
487.269	3389.39
487.473	3217.36
487.677	3692.49
487.881	3782.6
488.085	3383.24
488.289	3553.23
488.493	3602.38
488.697	3848.13
488.901	3680.2
489.105	3575.75
489.309	3665.86
489.512	3954.63
489.716	3798.98
489.92	3762.12
490.124	3790.79
490.328	4009.92
490.531	3778.5
490.735	3733.45
490.939	3813.32
491.143	3899.33
491.346	3823.56
491.55	3956.68
491.754	3934.15
491.958	4071.36
492.161	4036.55
492.365	3999.68
492.569	4077.51
492.772	4093.89
492.976	4102.08
493.18	4110.27
493.383	4229.06
493.587	4294.59
493.79	4270.01
493.994	3917.76
494.197	4335.55
494.401	4265.92
494.605	4265.92
494.808	4235.2
495.012	4298.69
495.215	4655.03
495.419	4458.43
495.622	4155.33
495.825	4456.38
496.029	4552.63
496.232	4583.35
496.436	4403.13
496.639	4804.53
496.843	4618.17
497.046	4456.38
497.249	4659.13
497.453	4706.23
497.656	4532.15
497.859	4612.03
498.063	4814.77
498.266	5009.33
498.469	4765.62
498.673	4640.7
498.876	4806.58
499.079	4937.65
499.282	4890.55
499.485	5164.98
499.689	5238.7
499.892	5207.98
500.095	5058.48
500.298	5175.22
500.501	5068.72
500.705	5355.44
500.908	5382.06
501.111	5312.43
501.314	5412.78
501.517	5613.48
501.72	5498.8
501.923	5494.7
502.126	5388.21
502.329	5986.21
502.532	5668.78
502.735	5722.02
502.938	6076.32
503.141	6172.58
503.344	5775.27
503.547	5935.01
503.75	6004.64
503.953	6072.23
504.156	6250.4
504.359	6055.84
504.562	6139.81
504.765	6381.47
504.968	6516.64
505.17	6354.85
505.373	6274.98
505.576	6793.11
505.779	6514.59
505.982	6647.71
506.185	6735.77
506.387	6866.84
506.59	6762.39
506.793	7069.59
506.996	6864.79
507.198	7309.2
507.401	7419.79
507.604	7200.66
507.807	7356.3
508.009	7640.97
508.212	7753.61
508.415	7485.33
508.617	7600.01
508.82	7606.16
509.022	7851.91
509.225	7731.08
509.428	7872.39
509.63	8044.42
509.833	8175.49
510.035	8712.06
510.238	8171.4
510.44	8476.54
510.643	8691.58
510.845	8732.54
511.048	8548.22
511.25	8908.66
511.453	8879.99
511.655	9322.35
511.858	9066.36
512.06	9410.42
512.262	9406.32
512.465	9275.25
512.667	9394.03
512.87	9625.45
513.072	9777
513.274	9799.53
513.477	9707.37
513.679	10207.08
513.881	10385.25
514.084	10260.32
514.286	10278.76
514.488	10719.07
514.69	10757.98
514.893	10583.9
515.095	10907.48
515.297	10993.5
515.499	11175.77
515.701	11038.55
515.904	11480.91
516.106	11730.76
516.308	11769.68
516.51	11714.38
516.712	11771.72
516.914	12007.24
517.116	12015.43
517.318	12089.16
517.52	12388.16
517.722	12500.8
517.925	12576.58
518.127	12904.25
518.329	12984.12
518.531	12879.68
518.733	13336.37
518.935	13465.39
519.136	13502.26
519.338	13500.21
519.54	13778.73
519.742	14071.59
519.944	14143.27
520.146	14405.41
520.348	14452.52
520.55	14516
520.752	14675.74
520.954	14923.55
521.155	14810.91
521.357	14976.8
521.559	15603.47
521.761	15695.63
521.963	15767.31
522.164	15802.13
522.366	15744.78
522.568	16113.42
522.77	16086.79
522.971	16293.64
523.173	16199.43
523.375	16727.81
523.576	16424.71
523.778	16695.04
523.98	16955.13
524.181	17147.64
524.383	17229.56
524.584	17405.69
524.786	17446.65
524.988	17463.03
525.189	17753.84
525.391	17932.01
525.592	17995.5
525.794	18138.86
525.995	18063.08
526.197	18083.56
526.398	18472.68
526.6	18673.38
526.801	18669.28
527.003	18282.22
527.204	18530.02
527.406	19044.06
527.607	18970.33
527.808	18949.85
528.01	18925.28
528.211	19242.71
528.412	19420.89
528.614	19177.18
528.815	19511
529.016	20010.7
529.218	19416.79
529.419	19504.85
529.62	19586.77
529.822	20066
530.023	19928.78
530.224	19793.62
530.425	19961.55
530.626	19764.95
530.828	20098.77
531.029	20319.95
531.23	19906.26
531.431	19943.12
531.632	20641.48
531.833	20268.75
532.035	20307.66
532.236	20481.74
532.437	20768.45
532.638	20350.67
532.839	20442.82
533.04	20797.12
533.241	20715.2
533.442	20766.4
533.643	20549.32
533.844	20332.23
534.045	20825.79
534.246	20401.86
534.447	20762.31
534.648	20680.39
534.849	21180.09
535.05	20815.55
535.251	20950.72
535.451	21300.92
535.652	20932.29
535.853	20719.3
536.054	21098.17
536.255	21008.06
536.456	20831.94
536.657	20989.63
536.857	20952.77
537.058	21335.74
537.259	21298.88
537.46	21042.88
537.66	20827.84
537.861	21075.65
538.062	21405.37
538.263	20973.25
538.463	21186.24
538.664	21272.25
538.865	21143.23
539.065	21284.54
539.266	21153.47
539.466	21214.91
539.667	21384.89
539.868	21431.99
540.068	20960.96
540.269	21542.58
540.469	21331.64
540.67	21223.1
540.87	21098.17
541.071	21475
541.271	21245.63
541.472	21200.57
541.672	21436.09
541.873	21417.66
542.073	21216.96
542.274	21812.92
542.474	21495.48
542.675	21370.55
542.875	21700.28
543.075	21075.65
543.276	21450.42
543.476	21745.33
543.676	21235.39
543.877	21466.81
544.077	21429.94
544.277	21567.16
544.478	21456.57
544.678	21663.41
544.878	21552.82
545.078	21649.08
545.279	21548.73
545.479	21094.08
545.679	21526.2
545.879	21604.02
546.079	21679.8
546.28	21571.25
546.48	21339.83
546.68	21710.52
546.88	21798.58
547.08	21477.05
547.28	21698.23
547.48	21450.42
547.68	21620.41
547.88	21624.5
548.081	21716.66
548.281	21630.65
548.481	22013.62
548.681	21948.08
548.881	21874.35
549.081	21845.68
549.28	21718.71
549.48	22009.52
549.68	21671.61
549.88	21829.3
550.08	21579.45
550.28	22083.25
550.48	21771.96
550.68	22175.41
550.88	21884.59
551.08	21591.73
551.279	22007.47
551.479	21921.46
551.679	22185.65
551.879	21616.31
552.079	22058.67
552.278	21720.76
552.478	22386.35
552.678	21925.55
552.878	21982.9
553.077	21677.75
553.277	21956.27
553.477	22202.03
553.676	22179.5
553.876	22120.11
554.076	21974.7
554.275	22019.76
554.475	22025.9
554.674	22326.96
554.874	21995.18
555.074	21812.92
555.273	22060.72
555.473	22095.53
555.672	21880.5
555.872	21814.96
556.071	22167.21
556.271	22091.44
556.47	21683.89
556.67	21620.41
556.869	21833.39
557.068	21880.5
557.268	21962.42
557.467	21538.49
557.667	21792.44
557.866	21833.39
558.065	21579.45
558.265	21515.96
558.464	21540.54
558.663	21692.08
558.863	21493.43
559.062	21739.19
559.261	21401.27
559.461	22187.69
559.66	21720.76
559.859	21407.42
560.058	21155.52
560.258	21431.99
560.457	21407.42
560.656	21386.94
560.855	21034.69
561.054	21614.26
561.253	21192.38
561.453	21020.35
561.652	21071.55
561.851	21309.11
562.05	20846.27
562.249	20592.33
562.448	21192.38
562.647	20682.44
562.846	20600.52
563.045	20956.86
563.244	20408.01
563.443	21026.5
563.642	20672.2
563.841	20788.93
564.04	20197.07
564.239	20485.83
564.438	20403.91
564.637	20217.55
564.836	20504.26
565.035	20295.37
565.234	20229.84
565.432	20283.08
565.631	20029.13
565.83	20068.05
566.029	20156.11
566.228	19674.84
566.427	19918.54
566.625	19500.76
566.824	19441.37
567.023	19568.34
567.222	19533.53
567.42	19723.99
567.619	19766.99
567.818	19211.99
568.016	19582.68
568.215	19316.44
568.414	19369.69
568.612	19062.49
568.811	19056.35
569.01	18990.81
569.208	18802.4
569.407	18693.86
569.605	18749.15
569.804	18667.24
570.002	18749.15
570.201	18581.22
570.4	18521.83
570.598	18134.76
570.797	18134.76
570.995	18159.34
571.193	17968.88
571.392	18292.46
571.59	17866.48
571.789	17975.02
571.987	18296.55
572.186	18048.75
572.384	17802.99
572.582	17809.14
572.781	18024.17
572.979	17352.44
573.177	17557.24
573.376	17540.85
573.574	17401.59
573.772	17536.76
573.971	17364.73
574.169	16975.61
574.367	17153.79
574.565	17145.59
574.763	17313.53
574.962	16948.99
575.16	16871.17
575.358	16936.7
575.556	16635.65
575.754	16725.76
575.952	16324.36
576.151	16795.39
576.349	16508.68
576.547	16066.31
576.745	16291.59
576.943	16453.38
577.141	16004.88
577.339	16168.71
577.537	16043.79
577.735	16088.84
577.933	16109.32
578.131	16019.21
578.329	16027.4
578.527	16035.6
578.725	16078.6
578.923	15857.42
579.121	15752.98
579.319	15804.17
579.516	15791.89
579.714	15771.41
579.912	15859.47
580.11	15423.25
580.308	15673.1
580.506	15456.02
580.704	15030.04
580.901	15632.15
581.099	15752.98
581.297	15406.87
581.495	15425.3
581.692	15206.17
581.89	15507.22
582.088	15177.5
582.285	15146.78
582.483	15374.1
582.681	15542.03
582.878	15064.86
583.076	15009.56
583.274	14941.98
583.471	15292.18
583.669	15077.15
583.866	14778.14
584.064	14800.67
584.262	14583.59
584.459	14614.3
584.657	14645.02
584.854	14894.88
585.052	14610.21
585.249	14790.43
585.447	14489.38
585.644	14546.72
585.841	14958.36
586.039	14622.5
586.236	14589.73
586.434	14403.36
586.631	14389.03
586.828	14333.73
587.026	14141.22
587.223	14171.94
587.42	14208.81
587.618	14479.14
587.815	14118.7
588.012	14335.78
588.21	14417.7
588.407	14292.77
588.604	14141.22
588.801	14044.97
588.999	14233.38
589.196	13805.36
589.393	14065.45
589.59	14051.11
589.787	14135.08
589.984	14081.83
590.182	13551.41
590.379	13817.65
590.576	13780.78
590.773	13838.12
590.97	13575.98
591.167	13948.72
591.364	14044.97
591.561	13516.59
591.758	13674.29
591.955	13858.6
592.152	13950.76
592.349	13551.41
592.546	13575.98
592.743	13596.46
592.94	13567.79
593.137	13584.18
593.334	13629.23
593.531	13694.77
593.727	13674.29
593.924	13535.03
594.121	13412.15
594.318	13602.61
594.515	13434.67
594.712	13928.24
594.908	13432.63
595.105	13301.56
595.302	13389.62
595.499	13467.44
595.696	13621.04
595.892	13102.9
596.089	13547.31
596.286	13522.74
596.482	13330.23
596.679	13594.42
596.876	13393.72
597.072	13219.64
597.269	13055.8
597.466	13229.88
597.662	13281.08
597.859	13180.73
598.055	13080.38
598.252	13309.75
598.448	13371.19
598.645	13174.58
598.841	13473.59
599.038	13451.06
599.234	13639.47
599.431	13002.55
599.627	13088.57
599.824	13213.49
600.02	13094.71
600.217	13039.42
600.413	13008.7
600.609	13195.06
600.806	13498.16
601.002	13020.99
601.198	13039.42
601.395	13369.14
601.591	13270.84
601.787	12885.82
601.984	13102.9
602.18	13285.17
602.376	12916.54
602.572	12984.12
602.769	13215.54
602.965	13111.1
603.161	13209.4
603.357	13002.55
603.553	12961.59
603.75	13084.47
603.946	12955.45
604.142	12887.87
604.338	12891.96
604.534	13002.55
604.73	13029.18
604.926	12691.26
605.122	13197.11
605.318	13000.51
605.514	12928.83
605.71	12861.24
605.906	12779.32
606.102	13098.81
606.298	13373.24
606.494	12760.89
606.69	12840.76
606.886	12810.04
607.082	12775.23
607.278	12635.97
607.474	12435.27
607.67	13188.92
607.866	12582.72
608.062	12871.48
608.257	12681.02
608.453	12689.21
608.649	12799.8
608.845	12840.76
609.041	12480.32
609.236	12853.05
609.432	12859.2
609.628	12617.54
609.824	12623.68
610.019	12742.46
610.215	12621.63
610.411	12789.56
610.606	12529.47
610.802	12748.61
610.998	12683.07
611.193	12662.59
611.389	12285.76
611.584	12668.73
611.78	12365.64
611.976	12490.56
612.171	12754.75
612.367	12764.99
612.562	12719.93
612.758	12408.64
612.953	12152.65
613.149	12668.73
613.344	12369.73
613.539	12547.9
613.735	12533.57
613.93	12851
614.126	12502.85
614.321	12197.7
614.517	12566.34
614.712	12775.23
614.907	12531.52
615.103	12588.86
615.298	12285.76
615.493	12578.62
615.688	12158.79
615.884	12595.01
616.079	12255.04
616.274	12314.44
616.47	12115.78
616.665	12107.59
616.86	12287.81
617.055	12496.71
617.25	11992.9
617.445	12271.43
617.641	12097.35
617.836	12449.6
618.031	12195.65
618.226	12244.81
618.421	12261.19
618.616	12214.09
618.811	12003.14
619.006	12253
619.201	12181.32
619.396	12234.57
619.591	11978.57
619.786	12257.09
619.981	12150.6
620.176	12226.37
620.371	12007.24
620.566	11935.56
620.761	11988.81
620.956	12060.49
621.151	11857.74
621.346	12160.84
621.541	11401.04
621.735	11994.95
621.93	11929.42
622.125	11685.71
622.32	11528.02
622.515	11525.97
622.709	11947.85
622.904	11749.2
623.099	11568.98
623.294	11822.92
623.488	11650.89
623.683	11601.74
623.878	11482.96
624.072	11528.02
624.267	11368.27
624.462	11376.47
624.656	11143
624.851	11644.75
625.046	11384.66
625.24	11050.84
625.435	11247.44
625.629	11482.96
625.824	11327.32
626.018	11274.07
626.213	10936.15
626.407	11046.74
626.602	11261.78
626.796	11063.13
626.991	11003.74
627.185	10805.08
627.38	11022.17
627.574	10934.11
627.768	10887
627.963	10905.43
628.157	11069.27
628.352	10786.65
628.546	10678.11
628.74	10856.28
628.935	10372.96
629.129	10936.15
629.323	10608.48
629.517	10463.07
629.712	10624.86
629.906	10495.84
630.1	10469.22
630.294	10747.74
630.489	10428.26
630.683	10489.7
630.877	10119.01
631.071	10409.83
631.265	10362.72
631.459	10334.05
631.653	10067.81
631.848	10418.02
632.042	10387.3
632.236	9987.94
632.43	10121.06
632.624	10256.23
632.818	10241.89
633.012	9748.33
633.206	9996.14
633.4	10129.25
633.594	10028.9
633.788	9963.37
633.982	9824.11
634.176	10010.47
634.369	9863.02
634.563	9684.84
634.757	9467.76
634.951	9871.21
635.145	9738.09
635.339	9598.83
635.533	9621.36
635.726	9535.34
635.92	9445.23
636.114	9379.7
636.308	9334.64
636.501	9484.14
636.695	9322.35
636.889	9189.24
637.083	9138.04
637.276	9305.97
637.47	8773.5
637.664	8861.56
637.857	8759.16
638.051	8920.95
638.244	9027.45
638.438	8705.92
638.632	8689.53
638.825	8417.15
639.019	8677.24
639.212	8359.81
639.406	8445.82
639.599	8167.3
639.793	8370.05
639.986	8138.63
640.18	8269.7
640.373	8195.97
640.567	8130.44
640.76	8040.33
640.954	7882.63
641.147	7739.27
641.34	7673.74
641.534	7683.98
641.727	7667.59
641.92	7769.99
642.114	7546.76
642.307	7509.9
642.5	7411.6
642.694	7149.46
642.887	7399.31
643.08	7389.07
643.273	7309.2
643.467	7182.23
643.66	6928.28
643.853	6729.63
644.046	6856.6
644.239	6762.39
644.432	6719.39
644.626	6547.36
644.819	6553.5
645.012	6739.87
645.205	6786.97
645.398	6563.74
645.591	6471.58
645.784	6416.29
645.977	6242.21
646.17	6313.89
646.363	6168.48
646.556	6094.75
646.749	6135.71
646.942	6027.17
647.135	6072.23
647.328	6047.65
647.521	6051.75
647.714	5851.05
647.907	5920.68
648.099	5834.66
648.292	6066.08
648.485	5683.11
648.678	5531.56
648.871	5685.16
649.064	5560.24
649.256	5455.79
649.449	5234.61
649.642	5384.11
649.835	5427.12
650.027	5285.81
650.22	5345.2
650.413	5316.53
650.605	5468.08
650.798	5248.94
650.991	5056.43
651.183	5400.49
651.376	5259.18
651.568	5242.8
651.761	5050.29
651.954	5265.33
652.146	5046.19
652.339	5109.68
652.531	5167.03
652.724	4980.66
652.916	4992.95
653.109	4618.17
653.301	4904.89
653.494	5146.55
653.686	4954.04
653.879	5058.48
654.071	4759.48
654.263	4968.37
654.456	4775.86
654.648	4716.47
654.84	4782.01
655.033	4800.44
655.225	4888.5
655.417	4401.08
655.61	4700.09
655.802	4777.91
655.994	4827.06
656.186	4558.78
656.379	4569.02
656.571	4476.86
656.763	4433.85
656.955	4616.12
657.148	4444.09
657.34	4659.13
657.532	4298.69
657.724	4323.26
657.916	4276.16
658.108	4538.3
658.3	4546.49
658.492	4505.53
658.684	4270.01
658.876	4521.91
659.068	4208.58
659.26	4210.62
659.452	4130.75
659.644	4251.58
659.836	4462.52
660.028	4007.87
660.22	4030.4
660.412	4079.55
660.604	4044.74
660.796	3917.76
660.988	3946.44
661.18	4044.74
661.372	3895.24
661.563	3835.85
661.755	3821.51
661.947	3803.08
662.139	3923.91
662.331	3772.36
662.522	3690.44
662.714	3641.29
662.906	3639.24
663.097	3565.51
663.289	3538.89
663.481	3514.31
663.673	3733.45
663.864	3751.88
664.056	3532.75
664.247	3381.2
664.439	3790.79
664.631	3420.11
664.822	3434.44
665.014	3567.56
665.205	3354.57
665.397	3432.4
665.588	3346.38
665.78	3364.81
665.971	3481.55
666.163	3192.78
666.354	3205.07
666.546	3246.03
666.737	3319.76
666.929	3106.77
667.12	3026.9
667.311	3336.14
667.503	3266.51
667.694	3172.3
667.885	3139.54
668.077	3229.65
668.268	2934.74
668.459	2975.7
668.651	3137.49
668.842	3239.89
669.033	3016.66
669.224	2871.25
669.416	3198.93
669.607	3098.58
669.798	2879.44
669.989	2877.4
670.18	2973.65
670.371	3041.23
670.563	2936.79
670.754	3016.66
670.945	2883.54
671.136	3096.53
671.327	2893.78
671.518	2783.19
671.709	2815.96
671.9	3192.78
672.091	3090.38
672.282	3012.56
672.473	2777.05
672.664	2893.78
672.855	2750.42
673.046	2873.3
673.237	2846.68
673.428	3004.37
673.619	3155.92
673.809	2824.15
674	2826.2
674.191	3080.14
674.382	2897.88
674.573	2707.41
674.764	2752.47
674.954	3051.47
675.145	2734.04
675.336	2707.41
675.527	2799.57
675.717	2838.48
675.908	2899.92
676.099	2752.47
676.289	2877.4
676.48	2736.09
676.671	2801.62
676.861	2758.61
677.052	2654.17
677.243	2748.37
677.433	2818
677.624	2787.29
677.814	2840.53
678.005	2971.6
678.195	3141.58
678.386	2770.9
678.576	2760.66
678.767	2803.67
678.957	2920.4
679.148	2895.83
679.338	2818
679.529	2895.83
679.719	2899.92
679.909	2942.93
680.1	2850.77
680.29	3096.53
680.481	2803.67
680.671	2901.97
680.861	2848.72
681.052	3004.37
681.242	2895.83
681.432	3004.37
681.622	2858.96
681.813	2801.62
682.003	3104.72
682.193	2904.02
682.383	2881.49
682.573	3037.14
682.764	2949.08
682.954	2850.77
683.144	3153.87
683.334	3125.2
683.524	3039.19
683.714	3166.16
683.904	3160.02
684.094	3164.11
684.284	3133.39
684.474	3041.23
684.664	3114.96
684.854	3254.22
685.044	3106.77
685.234	3131.34
685.424	3049.43
685.614	3104.72
685.804	3467.21
685.994	3221.45
686.184	3356.62
686.374	3502.03
686.564	3313.61
686.753	3170.26
686.943	3127.25
687.133	3383.24
687.323	3344.33
687.513	3243.98
687.702	3373
687.892	3360.72
688.082	3585.99
688.272	3364.81
688.461	3483.59
688.651	3788.74
688.841	3721.16
689.03	3379.15
689.22	3465.16
689.41	3764.17
689.599	3864.52
689.789	3751.88
689.979	3762.12
690.168	3930.05
690.358	3979.2
690.547	3788.74
690.737	3878.85
690.926	3878.85
691.116	3915.72
691.305	3979.2
691.495	4014.02
691.684	3811.27
691.874	4044.74
692.063	4036.55
692.252	4184
692.442	4474.81
692.631	4245.44
692.82	3989.44
693.01	4257.73
693.199	4360.13
693.388	4521.91
693.578	4399.04
693.767	4501.44
693.956	4794.29
694.146	4730.81
694.335	4665.27
694.524	4521.91
694.713	5001.14
694.902	4962.23
695.092	4767.67
695.281	4693.94
695.47	4835.25
695.659	5050.29
695.848	4933.56
696.037	4968.37
696.226	5314.48
696.415	5119.92
696.604	5298.1
696.793	5226.42
696.982	5310.38
697.171	5605.29
697.36	5216.18
697.549	5437.36
697.738	5361.58
697.927	5455.79
698.116	5375.92
698.305	5463.98
698.494	5658.54
698.683	5695.4
698.872	5711.78
699.061	5687.21
699.25	5705.64
699.438	5830.57
699.627	5889.96
699.816	6104.99
700.005	5879.72
700.193	5896.1
700.382	5965.73
700.571	6010.79
700.76	6229.92
700.948	6389.66
701.137	6111.14
701.326	6399.9
701.514	6174.63
701.703	6473.63
701.892	6168.48
702.08	6305.7
702.269	6336.42
702.457	6379.42
702.646	6373.28
702.834	6313.89
703.023	6692.76
703.212	6793.11
703.4	6428.57
703.589	6371.23
703.777	6668.19
703.965	6451.1
704.154	6350.75
704.342	6492.06
704.531	6596.51
704.719	6713.24
704.907	6723.48
705.096	6502.3
705.284	6668.19
705.472	6688.67
705.661	6535.07
705.849	6711.19
706.037	7018.39
706.226	6969.24
706.414	6684.57
706.602	6649.75
706.79	6973.33
706.979	6739.87
707.167	6717.34
707.355	6535.07
707.543	7030.68
707.731	7022.48
707.919	6741.91
708.107	6680.47
708.296	6946.71
708.484	6780.82
708.672	6707.1
708.86	6866.84
709.048	6993.81
709.236	6805.4
709.424	6979.48
709.612	6975.38
709.8	6698.91
709.988	6997.91
710.176	6940.57
710.364	6883.22
710.551	6993.81
710.739	6891.41
710.927	6891.41
711.115	6789.02
711.303	7102.36
711.491	7077.78
711.679	6854.55
711.866	6944.66
712.054	7026.58
712.242	6924.18
712.43	7096.21
712.617	6803.35
712.805	7028.63
712.993	6684.57
713.181	6580.12
713.368	6885.27
713.556	7016.34
713.744	6598.56
713.931	6766.49
714.119	6950.81
714.306	6854.55
714.494	6780.82
714.682	6760.34
714.869	6543.26
715.057	6952.85
715.244	6500.25
715.432	6924.18
715.619	6608.8
715.807	6838.17
715.994	6625.18
716.182	6741.91
716.369	6686.62
716.556	6903.7
716.744	6274.98
716.931	6522.78
717.119	6696.86
717.306	6766.49
717.493	6635.42
717.681	6606.75
717.868	6559.64
718.055	6813.59
718.242	6586.27
718.43	6418.33
718.617	6354.85
718.804	6444.96
718.991	6616.99
719.179	6291.36
719.366	6434.72
719.553	6463.39
719.74	6758.3
719.927	6510.49
720.114	6426.53
720.301	6328.22
720.488	6242.21
720.676	6225.82
720.863	6371.23
721.05	6907.8
721.237	6438.81
721.424	6395.81
721.611	6250.4
721.798	6311.84
721.985	6094.75
722.172	6115.23
722.358	6125.47
722.545	6504.35
722.732	6295.46
722.919	6305.7
723.106	6160.29
723.293	6107.04
723.48	6242.21
723.667	6068.13
723.853	6158.24
724.04	6221.73
724.227	6195.11
724.414	6012.84
724.6	5762.98
724.787	6297.5
724.974	6371.23
725.161	6111.14
725.347	5732.26
725.534	6145.95
725.72	6117.28
725.907	5932.97
726.094	6053.8
726.28	5900.2
726.467	5750.7
726.653	5666.73
726.84	5767.08
727.027	6148
727.213	5957.54
727.4	6010.79
727.586	5715.88
727.773	6033.32
727.959	5779.37
728.145	5902.25
728.332	5797.8
728.518	5726.12
728.705	5855.14
728.891	5607.34
729.077	5584.81
729.264	5797.8
729.45	5736.36
729.636	5658.54
729.823	5480.36
730.009	5928.87
730.195	5650.35
730.382	5705.64
730.568	5515.18
730.754	5726.12
730.94	5488.56
731.126	5576.62
731.313	5437.36
731.499	5500.84
731.685	5707.69
731.871	5468.08
732.057	5613.48
732.243	5656.49
732.429	5633.96
732.615	5425.07
732.801	5435.31
732.987	5423.02
733.173	5519.28
733.359	5076.91
733.545	5334.96
733.731	5365.68
733.917	5441.45
734.103	5494.7
734.289	5441.45
734.475	5117.87
734.661	5650.35
734.847	5308.33
735.033	5210.03
735.219	5451.69
735.404	5218.22
735.59	5044.15
735.776	5113.78
735.962	5158.83
736.148	5429.17
736.333	5185.46
736.519	5177.26
736.705	5253.04
736.89	5060.53
737.076	4929.46
737.262	5017.52
737.447	5078.96
737.633	4999.09
737.819	4915.12
738.004	4945.84
738.19	5105.59
738.375	5105.59
738.561	5101.49
738.747	5011.38
738.932	4802.49
739.118	5134.26
739.303	4908.98
739.489	4913.08
739.674	4716.47
739.859	4732.86
740.045	4687.8
740.23	4550.59
740.416	4450.24
740.601	4855.73
740.786	4603.83
740.972	4650.94
741.157	4726.71
741.342	4509.63
741.528	4456.38
741.713	4573.11
741.898	4415.42
742.084	4728.76
742.269	4528.06
742.454	4528.06
742.639	4646.84
742.824	4554.68
743.01	4597.69
743.195	4454.33
743.38	4532.15
743.565	4343.74
743.75	4229.06
743.935	4272.06
744.12	4591.55
744.305	4192.19
744.49	4188.1
744.675	4200.38
744.86	4186.05
745.045	4399.04
745.23	4011.97
745.415	4052.93
745.6	4415.42
745.785	4093.89
745.97	4147.14
746.155	4102.08
746.34	4341.69
746.525	4022.21
746.71	4057.03
746.895	3680.2
747.079	4001.73
747.264	3964.87
747.449	3942.34
747.634	3790.79
747.819	4007.87
748.003	3839.94
748.188	3745.73
748.373	3792.84
748.557	3950.53
748.742	3833.8
748.927	3717.06
749.111	3653.58
749.296	3809.22
749.481	3719.11
749.665	3708.87
749.85	3504.07
750.034	3721.16
750.219	3647.43
750.404	3489.74
750.588	3514.31
750.773	3389.39
750.957	3526.6
751.141	3459.02
751.326	3514.31
751.51	3354.57
751.695	3469.26
751.879	3342.28
752.064	3446.73
752.248	3391.44
752.432	3614.66
752.617	3289.04
752.801	3110.86
752.985	3334.09
753.17	3436.49
753.354	3139.54
753.538	3039.19
753.722	3266.51
753.907	3117.01
754.091	3020.75
754.275	3049.43
754.459	3000.27
754.643	2959.31
754.828	3080.14
755.012	2938.84
755.196	2875.35
755.38	3059.67
755.564	2879.44
755.748	2809.81
755.932	3065.81
756.116	3067.86
756.3	2889.68
756.484	2725.85
756.668	2828.24
756.852	2691.03
757.036	2701.27
757.22	2721.75
757.404	2615.26
757.588	2629.59
757.772	2697.17
757.956	2658.26
758.14	2842.58
758.323	2543.58
758.507	2746.33
758.691	2592.73
758.875	2727.89
759.059	2754.52
759.242	2351.07
759.426	2371.55
759.61	2623.45
759.794	2463.71
759.977	2338.78
760.161	2686.93
760.345	2572.25
760.528	2475.99
760.712	2332.64
760.895	2283.49
761.079	2285.53
761.263	2162.66
761.446	2103.26
761.63	2109.41
761.813	2238.43
761.997	2021.35
762.18	2172.89
762.364	2209.76
762.547	1961.95
762.731	2176.99
762.914	2107.36
763.098	1959.91
763.281	2084.83
763.464	2131.94
763.648	2047.97
763.831	1982.43
764.015	2060.26
764.198	2248.67
764.381	2064.35
764.564	1998.82
764.748	2095.07
764.931	2179.04
765.114	2105.31
765.297	2152.42
765.481	1968.1
765.664	2080.74
765.847	1925.09
766.03	1966.05
766.213	2037.73
766.397	1931.23
766.58	1925.09
766.763	2066.4
766.946	2011.11
767.129	2105.31
767.312	1939.43
767.495	1970.15
767.678	2013.15
767.861	2150.37
768.044	1896.42
768.227	2031.58
768.41	2107.36
768.593	2146.27
768.776	2203.61
768.959	1875.94
769.142	2193.37
769.324	1978.34
769.507	1873.89
769.69	1900.51
769.873	1968.1
770.056	2336.73
770.239	1988.58
770.421	1916.9
770.604	2179.04
770.787	1957.86
770.97	1949.67
771.152	1775.59
771.335	1986.53
771.518	1744.87
771.7	1841.12
771.883	2125.79
772.066	1896.42
772.248	2082.78
772.431	1957.86
772.613	1867.75
772.796	1937.38
772.978	1931.23
773.161	1882.08
773.343	1828.84
773.526	1814.5
773.708	1656.81
773.891	1628.14
774.073	1771.49
774.256	1785.83
774.438	2000.87
774.621	1628.14
774.803	1687.53
774.985	1767.4
775.168	1861.6
775.35	1777.64
775.532	1761.25
775.715	1716.2
775.897	1777.64
776.079	1679.33
776.261	1703.91
776.444	1834.98
776.626	1619.94
776.808	1650.66
776.99	1476.59
777.173	1736.68
777.355	1581.03
777.537	1587.18
777.719	1603.56
777.901	1544.17
778.083	1519.59
778.265	1511.4
778.447	1587.18
778.629	1542.12
778.811	1564.65
778.993	1419.24
779.175	1505.26
779.357	1546.22
779.539	1390.57
779.721	1499.11
779.903	1529.83
780.085	1370.09
780.267	1415.15
780.449	1372.14
780.631	1433.58
780.812	1611.75
780.994	1421.29
781.176	1339.37
781.358	1234.93
781.54	1392.62
781.721	1435.63
781.903	1277.93
782.085	1167.34
782.267	1507.3
782.448	1234.93
782.63	1265.64
782.812	1216.49
782.993	1357.8
783.175	1523.69
783.357	1193.97
783.538	1265.64
783.72	1249.26
783.901	1335.28
784.083	1218.54
784.264	1220.59
784.446	1136.62
784.627	1212.4
784.809	1138.67
784.99	1011.7
785.172	1337.32
785.353	1228.78
785.535	1087.47
785.716	1038.32
785.897	1097.71
786.079	1079.28
786.26	1069.04
786.441	1177.58
786.623	923.63
786.804	972.79
786.985	1036.27
787.167	1107.95
787.348	1052.66
787.529	1005.55
787.71	985.07
787.891	1034.22
788.073	1028.08
788.254	860.15
788.435	1130.48
788.616	874.48
788.797	942.07
788.978	972.79
789.159	954.35
789.34	1009.65
789.522	1112.05
789.703	884.72
789.884	966.64
790.065	1064.94
790.246	1241.07
790.427	1048.56
790.607	1032.18
790.788	890.87
790.969	845.81
791.15	993.26
791.331	931.83
791.512	806.9
791.693	909.3
791.874	851.95
792.054	1021.94
792.235	942.07
792.416	827.38
792.597	770.04
792.778	800.76
792.958	819.19
793.139	927.73
793.32	899.06
793.5	643.06
793.681	909.3
793.862	952.31
794.042	837.62
794.223	677.88
794.404	741.36
794.584	618.49
794.765	792.56
794.945	714.74
795.126	849.91
795.306	890.87
795.487	679.93
795.667	718.84
795.848	688.12
796.028	772.08
796.209	811
796.389	901.11
796.57	753.65
796.75	808.95
796.93	751.6
797.111	598.01
797.291	686.07
797.471	886.77
797.652	704.5
797.832	606.2
798.012	692.21
798.192	770.04
798.373	552.95
798.553	702.45
798.733	731.12
798.913	557.05
799.093	628.73
799.274	628.73
799.454	669.69
799.634	884.72
799.814	712.69
799.994	669.69
800.174	722.93
800.354	755.7
800.534	399.35
800.714	577.53
800.894	509.94
801.074	499.7
801.254	559.1
801.434	686.07
801.614	598.01
801.794	559.1
801.974	5343.15
802.154	524.28
802.334	686.07
802.514	473.08
802.693	739.32
802.873	415.74
803.053	704.5
803.233	657.4
803.413	598.01
803.592	387.07
803.772	483.32
803.952	620.53
804.131	440.31
804.311	552.95
804.491	593.91
804.67	530.42
804.85	538.62
805.03	598.01
805.209	718.84
805.389	505.85
805.568	485.37
805.748	516.09
805.928	530.42
806.107	745.46
806.287	608.25
806.466	552.95
806.646	546.81
806.825	577.53
807.004	440.31
807.184	540.66
807.363	591.86
807.543	546.81
807.722	452.6
807.901	598.01
808.081	466.94
808.26	262.14
808.439	520.18
808.619	489.46
808.798	471.03
808.977	536.57
809.156	628.73
809.336	528.38
809.515	483.32
809.694	352.25
809.873	464.89
810.052	434.17
810.231	665.59
810.411	628.73
810.59	649.21
810.769	397.31
810.948	505.85
811.127	198.65
811.306	442.36
811.485	370.68
811.664	579.58
811.843	516.09
812.022	491.51
812.201	311.29
812.38	284.67
812.559	417.79
812.737	534.52
812.916	282.62
813.095	382.97
813.274	497.66
813.453	522.23
813.632	499.7
813.811	522.23
813.989	319.48
814.168	436.22
814.347	231.42
814.526	313.34
814.704	571.38
814.883	589.82
815.062	253.95
815.24	356.35
815.419	296.96
815.598	550.9
815.776	210.94
815.955	333.82
816.133	212.99
816.312	452.6
816.49	278.52
816.669	362.49
816.847	454.65
817.026	501.75
817.204	278.52
817.383	262.14
817.561	282.62
817.74	458.74
817.918	475.13
818.097	235.52
818.275	397.31
818.453	495.61
818.632	442.36
818.81	360.44
818.988	301.05
819.167	366.59
819.345	301.05
819.523	233.47
819.701	456.7
819.879	501.75
820.058	401.4
820.236	282.62
820.414	385.02
820.592	243.71
820.77	327.68
820.948	182.27
821.127	387.07
821.305	497.66
821.483	137.21
821.661	352.25
821.839	460.79
822.017	223.23
822.195	245.76
822.373	276.48
822.551	382.97
822.729	401.4
822.907	270.33
823.085	311.29
823.262	415.74
823.44	221.18
823.618	311.29
823.796	256
823.974	378.87
824.152	188.41
824.329	256
824.507	301.05
824.685	380.92
824.863	319.48
825.04	262.14
825.218	149.5
825.396	309.24
825.574	419.83
825.751	198.65
825.929	225.28
826.107	163.84
826.284	391.16
826.462	131.07
826.639	294.91
826.817	219.13
826.994	305.15
827.172	133.12
827.349	270.33
827.527	266.24
827.704	256
827.882	382.97
828.059	180.22
828.237	270.33
828.414	415.74
828.591	30.72
828.769	262.14
828.946	258.04
829.124	399.35
829.301	387.07
829.478	233.47
829.655	364.54
829.833	321.53
830.01	40.96
830.187	354.3
830.364	307.2
830.542	432.12
830.719	274.43
830.896	339.96
831.073	391.16
831.25	360.44
831.427	212.99
831.604	182.27
831.782	180.22
831.959	337.91
832.136	151.55
832.313	333.82
832.49	202.75
832.667	333.82
832.844	206.84
833.021	309.24
833.198	440.31
833.374	305.15
833.551	206.84
833.728	104.45
833.905	346.11
834.082	69.63
834.259	270.33
834.436	382.97
834.612	184.32
834.789	391.16
834.966	200.7
835.143	149.5
835.319	163.84
835.496	286.72
835.673	292.86
835.85	215.04
836.026	284.67
836.203	344.06
836.38	114.69
836.556	198.65
836.733	204.8
836.909	534.52
837.086	221.18
837.262	2.05
837.439	241.66
837.616	278.52
837.792	210.94
837.968	126.97
838.145	94.21
838.321	276.48
838.498	202.75
838.674	280.57
838.851	329.72
839.027	169.98
839.203	233.47
839.38	270.33
839.556	215.04
839.732	432.12
839.909	182.27
840.085	169.98
840.261	92.16
840.437	309.24
840.614	133.12
840.79	169.98
840.966	305.15
841.142	284.67
841.318	227.32
841.494	139.26
841.671	344.06
841.847	169.98
842.023	96.25
842.199	122.88
842.375	425.98
842.551	65.53
842.727	34.82
842.903	307.2
843.079	120.83
843.255	460.79
843.431	131.07
843.607	260.09
843.783	92.16
843.959	284.67
844.134	112.64
844.31	315.39
844.486	190.46
844.662	188.41
844.838	180.22
845.013	161.79
845.189	430.07
845.365	229.37
845.541	167.93
845.716	294.91
845.892	452.6
846.068	196.61
846.244	118.78
846.419	104.45
846.595	210.94
846.77	139.26
846.946	206.84
847.122	129.02
847.297	161.79
847.473	511.99
847.648	86.01
847.824	114.69
847.999	38.91
848.175	172.03
848.35	294.91
848.526	337.91
848.701	317.44
848.876	366.59
849.052	325.63
849.227	131.07
849.403	169.98
849.578	114.69
849.753	206.84
849.929	159.74
850.104	79.87
850.279	167.93
850.454	260.09
850.63	237.56
850.805	225.28
850.98	227.32
851.155	223.23
851.33	280.57
851.505	122.88
851.681	405.5
851.856	131.07
852.031	178.17
852.206	294.91
852.381	96.25
852.556	108.54
852.731	129.02
852.906	210.94
853.081	268.28
853.256	276.48
853.431	73.73
853.606	131.07
853.781	55.3
853.956	8.19
854.131	165.89
854.305	202.75
854.48	155.65
854.655	34.82
854.83	8.19
855.005	229.37
855.18	235.52
855.354	69.63
855.529	135.17
855.704	73.73
855.879	327.68
856.053	63.49
856.228	196.61
856.403	32.77
856.577	231.42
856.752	-40.96
856.926	100.35
857.101	239.61
857.276	-8.19
857.45	208.89
857.625	245.76
857.799	284.67
857.974	161.79
858.148	-22.53
858.323	112.64
858.497	225.28
858.672	61.44
858.846	69.63
859.02	190.46
859.195	24.58
859.369	137.21
859.543	196.61
859.718	133.12
859.892	233.47
860.066	200.7
860.241	77.82
860.415	86.01
860.589	71.68
860.763	106.49
860.938	120.83
861.112	112.64
861.286	147.45
861.46	237.56
861.634	81.92
861.808	112.64
861.982	114.69
862.157	-32.77
862.331	102.4
862.505	-20.48
862.679	-36.86
862.853	79.87
863.027	90.11
863.201	120.83
863.375	81.92
863.549	303.1
863.722	141.31
863.896	215.04
864.07	108.54
864.244	106.49
864.418	251.9
864.592	174.08
864.766	215.04
864.939	200.7
865.113	92.16
865.287	247.8
865.461	53.25
865.634	233.47
865.808	30.72
865.982	122.88
866.156	88.06
866.329	-16.38
866.503	61.44
866.676	145.41
866.85	253.95
867.024	90.11
867.197	184.32
867.371	18.43
867.544	249.85
867.718	10.24
867.891	309.24
868.065	-12.29
868.238	180.22
868.412	309.24
868.585	51.2
868.759	34.82
868.932	153.6
869.105	-63.49
869.279	141.31
869.452	-14.34
869.625	260.09
869.799	184.32
869.972	63.49
870.145	94.21
870.319	321.53
870.492	118.78
870.665	73.73
870.838	-43.01
871.011	-122.88
871.185	176.13
871.358	65.53
871.531	227.32
871.704	73.73
871.877	149.5
872.05	34.82
872.223	-57.34
872.396	299
872.569	311.29
872.742	-8.19
872.915	188.41
873.088	81.92
873.261	51.2
873.434	139.26
873.607	69.63
873.78	428.03
873.953	-22.53
874.126	139.26
874.299	149.5
874.471	98.3
874.644	124.93
874.817	274.43
874.99	284.67
875.163	43.01
875.335	98.3
875.508	51.2
875.681	141.31
875.853	112.64
876.026	135.17
876.199	186.37
876.371	51.2
876.544	167.93
876.717	79.87
876.889	108.54
877.062	219.13
877.234	24.58
877.407	129.02
877.579	153.6
877.752	126.97
877.924	344.06
878.097	262.14
878.269	98.3
878.442	186.37
878.614	253.95
878.786	200.7
878.959	57.34
879.131	165.89
879.303	-63.49
879.476	118.78
879.648	165.89
879.82	86.01
879.993	59.39
880.165	155.65
880.337	-90.11
880.509	55.3
880.681	-47.1
880.854	32.77
881.026	204.8
881.198	155.65
881.37	69.63
881.542	229.37
881.714	61.44
881.886	2.05
882.058	292.86
882.23	200.7
882.402	145.41
882.574	155.65
882.746	305.15
882.918	317.44
883.09	182.27
883.262	90.11
883.434	208.89
883.606	-94.21
883.778	81.92
883.95	225.28
884.122	96.25
884.293	221.18
884.465	100.35
884.637	210.94
884.809	73.73
884.98	212.99
885.152	208.89
885.324	145.41
885.496	16.38
885.667	149.5
885.839	47.1
886.011	124.93
886.182	194.56
886.354	159.74
886.525	204.8
886.697	96.25
886.869	79.87
887.04	133.12
887.212	280.57
887.383	251.9
887.555	143.36
887.726	108.54
887.897	69.63
888.069	120.83
888.24	350.2
888.412	90.11
888.583	49.15
888.754	49.15
888.926	-14.34
889.097	20.48
889.268	0
889.44	6.14
889.611	-12.29
889.782	-16.38
889.953	0
890.125	118.78
890.296	-40.96
890.467	100.35
890.638	-12.29
890.809	4.1
890.98	133.12
891.151	225.28
891.323	165.89
891.494	47.1
891.665	116.73
891.836	143.36
892.007	69.63
892.178	75.77
892.349	145.41
892.52	14.34
892.691	45.06
892.862	90.11
893.032	-92.16
893.203	131.07
893.374	122.88
893.545	131.07
893.716	81.92
893.887	260.09
894.057	30.72
894.228	59.39
894.399	81.92
894.57	299
894.74	100.35
894.911	110.59
895.082	106.49
895.253	40.96
895.423	92.16
895.594	227.32
895.764	204.8
895.935	-47.1
896.106	124.93
896.276	2.05
896.447	155.65
896.617	34.82
896.788	-59.39
896.958	92.16
897.129	-2.05
897.299	30.72
897.47	231.42
897.64	186.37
897.81	131.07
897.981	155.65
898.151	57.34
898.322	98.3
898.492	231.42
898.662	10.24
898.832	-28.67
899.003	108.54
899.173	233.47
899.343	-43.01
899.513	22.53
