Data from USB4F104151__11__11-51-12-648.txt Node

Date: Wed Feb 19 11:51:12 EST 2025
User: louis
Spectrometer: USB4F10415
Trigger mode: 4
Integration Time (sec): 2.250200E-1
Scans to average: 1
Electric dark correction enabled: true
Nonlinearity correction enabled: false
Boxcar width: 0
XAxis mode: Wavelengths
Number of Pixels in Spectrum: 3648
>>>>>Begin Spectral Data<<<<<
178.204	-726.35
178.424	-726.35
178.644	-726.35
178.864	-798.03
179.084	-783.69
179.304	133.8
179.524	92.84
179.744	-27.99
179.964	-185.68
180.184	232.1
180.404	141.99
180.624	-269.65
180.844	-62.8
181.064	10.92
181.283	160.42
181.503	-175.44
181.723	-50.52
181.943	94.89
182.163	496.29
182.383	-161.11
182.602	-136.53
182.822	436.9
183.042	332.45
183.262	-163.15
183.482	-91.48
183.701	185
183.921	244.39
184.141	-116.05
184.361	-144.72
184.58	268.97
184.8	248.49
185.02	-175.44
185.239	-25.94
185.459	236.2
185.679	393.89
185.898	-212.31
186.118	-195.92
186.338	289.45
186.557	434.85
186.777	-273.75
186.997	-181.59
187.216	254.63
187.436	576.16
187.655	-132.44
187.875	21.16
188.095	221.86
188.314	406.18
188.534	-27.99
188.753	-183.63
188.973	346.79
189.192	414.37
189.412	-224.59
189.631	-142.68
189.851	332.45
190.07	432.8
190.29	-148.82
190.509	-300.37
190.729	191.14
190.948	469.67
191.168	-30.04
191.387	-216.4
191.607	191.14
191.826	305.83
192.045	-130.39
192.265	-134.48
192.484	311.97
192.704	234.15
192.923	-128.34
193.142	41.64
193.362	363.17
193.581	420.52
193.8	-122.2
194.02	-75.09
194.239	301.73
194.458	242.34
194.678	-169.3
194.897	-177.49
195.116	230.06
195.335	236.2
195.555	-85.33
195.774	-216.4
195.993	418.47
196.212	225.96
196.432	-118.1
196.651	-193.87
196.87	246.44
197.089	645.79
197.308	-175.44
197.528	-103.76
197.747	139.94
197.966	164.52
198.185	31.4
198.404	-218.45
198.623	234.15
198.842	348.84
199.062	-101.72
199.281	-77.14
199.5	197.29
199.719	248.49
199.938	-128.34
200.157	-222.55
200.376	377.51
200.595	393.89
200.814	-128.34
201.033	-136.53
201.252	463.52
201.471	287.4
201.69	-150.87
201.909	-120.15
202.128	424.61
202.347	291.49
202.566	-60.76
202.785	-308.56
203.004	168.62
203.223	541.35
203.442	-138.58
203.661	-271.7
203.879	373.41
204.098	354.98
204.317	-298.32
204.536	45.74
204.755	385.7
204.974	361.13
205.193	-245.07
205.411	-81.24
205.63	395.94
205.849	309.93
206.068	-179.54
206.287	-236.88
206.505	412.32
206.724	160.42
206.943	-224.59
207.162	-116.05
207.381	283.3
207.599	117.42
207.818	-44.37
208.037	-169.3
208.255	246.44
208.474	275.11
208.693	-148.82
208.911	-236.88
209.13	320.17
209.349	275.11
209.567	12.97
209.786	-111.96
210.005	420.52
210.223	285.35
210.442	-331.09
210.661	-214.35
210.879	219.82
211.098	246.44
211.316	-140.63
211.535	-157.01
211.753	277.16
211.972	248.49
212.191	-116.05
212.409	-142.68
212.628	393.89
212.846	189.1
213.065	-232.79
213.283	-118.1
213.502	178.86
213.72	219.82
213.938	-183.63
214.157	-167.25
214.375	252.58
214.594	240.3
214.812	-58.71
215.031	-130.39
215.249	209.58
215.467	324.26
215.686	-81.24
215.904	-204.11
216.122	299.69
216.341	412.32
216.559	-42.32
216.778	-7.51
216.996	363.17
217.214	150.18
217.432	-99.67
217.651	-142.68
217.869	260.77
218.087	156.33
218.306	-177.49
218.524	-218.45
218.742	271.01
218.96	250.53
219.179	-132.44
219.397	-175.44
219.615	529.06
219.833	225.96
220.051	-218.45
220.27	-60.76
220.488	416.42
220.706	262.82
220.924	-200.02
221.142	-218.45
221.36	332.45
221.578	219.82
221.796	-193.87
222.015	-124.24
222.233	268.97
222.451	434.85
222.669	-50.52
222.887	-17.75
223.105	187.05
223.323	144.04
223.541	-109.91
223.759	-128.34
223.977	195.24
224.195	432.8
224.413	-128.34
224.631	-175.44
224.849	254.63
225.067	529.06
225.285	-25.94
225.503	-163.15
225.721	-44.37
225.939	223.91
226.157	-89.43
226.375	92.84
226.592	193.19
226.81	195.24
227.028	74.41
227.246	-169.3
227.464	271.01
227.682	316.07
227.9	-107.86
228.117	-56.66
228.335	277.16
228.553	197.29
228.771	-230.74
228.989	-179.54
229.206	328.36
229.424	156.33
229.642	-71
229.86	-240.98
230.077	385.7
230.295	201.38
230.513	31.4
230.731	-97.62
230.948	500.39
231.166	404.13
231.384	-75.09
231.601	-134.48
231.819	508.58
232.037	115.37
232.254	-62.8
232.472	-101.72
232.689	133.8
232.907	385.7
233.125	-138.58
233.342	-259.41
233.56	66.22
233.777	176.81
233.995	-171.35
234.213	-62.8
234.43	295.59
234.648	185
234.865	-181.59
235.083	-101.72
235.3	264.87
235.518	305.83
235.735	-52.56
235.953	-103.76
236.17	258.73
236.388	154.28
236.605	66.22
236.822	-128.34
237.04	297.64
237.257	250.53
237.475	-77.14
237.692	-148.82
237.909	328.36
238.127	158.38
238.344	-81.24
238.562	-95.57
238.779	88.75
238.996	62.12
239.214	-107.86
239.431	-66.9
239.648	119.46
239.865	242.34
240.083	-99.67
240.3	-175.44
240.517	137.9
240.735	228.01
240.952	76.46
241.169	-81.24
241.386	330.41
241.603	201.38
241.821	-64.85
242.038	-52.56
242.255	303.78
242.472	176.81
242.689	-68.95
242.907	-132.44
243.124	289.45
243.341	240.3
243.558	-40.28
243.775	-124.24
243.992	92.84
244.209	264.87
244.426	-25.94
244.643	-50.52
244.86	158.38
245.078	354.98
245.295	-1.37
245.512	-150.87
245.729	117.42
245.946	283.3
246.163	-101.72
246.38	-191.83
246.597	273.06
246.814	244.39
247.031	-111.96
247.248	-185.68
247.464	322.21
247.681	199.34
247.898	-111.96
248.115	-21.84
248.332	146.09
248.549	406.18
248.766	-5.46
248.983	-75.09
249.2	314.02
249.417	273.06
249.633	-148.82
249.85	-42.32
250.067	185
250.284	195.24
250.501	-93.52
250.717	-32.08
250.934	58.03
251.151	217.77
251.368	-15.7
251.585	-75.09
251.801	246.44
252.018	37.55
252.235	37.55
252.451	-171.35
252.668	101.03
252.885	326.31
253.102	-64.85
253.318	-85.33
253.535	168.62
253.752	156.33
253.968	-87.38
254.185	-181.59
254.401	338.6
254.618	277.16
254.835	-13.65
255.051	-122.2
255.268	291.49
255.484	264.87
255.701	-30.04
255.917	-68.95
256.134	101.03
256.351	221.86
256.567	-179.54
256.784	43.69
257	-1.37
257.217	371.37
257.433	109.23
257.65	-91.48
257.866	332.45
258.082	-34.13
258.299	-21.84
258.515	-97.62
258.732	182.95
258.948	107.18
259.165	-11.61
259.381	-202.07
259.597	281.25
259.814	228.01
260.03	-152.91
260.246	-134.48
260.463	338.6
260.679	340.65
260.895	-60.76
261.112	-13.65
261.328	170.66
261.544	96.94
261.761	-71
261.977	-152.91
262.193	39.59
262.409	381.6
262.626	43.69
262.842	-44.37
263.058	94.89
263.274	391.84
263.49	23.21
263.707	-87.38
263.923	412.32
264.139	10.92
264.355	-21.84
264.571	-83.28
264.787	236.2
265.004	283.3
265.22	60.07
265.436	-95.57
265.652	205.48
265.868	258.73
266.084	-109.91
266.3	-124.24
266.516	152.23
266.732	252.58
266.948	-9.56
267.164	-202.07
267.38	357.03
267.596	342.69
267.812	113.32
268.028	-68.95
268.244	178.86
268.46	238.25
268.676	-99.67
268.892	-42.32
269.108	101.03
269.324	70.31
269.54	-95.57
269.756	-23.89
269.972	58.03
270.188	266.92
270.403	-157.01
270.619	-130.39
270.835	232.1
271.051	156.33
271.267	-116.05
271.483	-126.29
271.698	342.69
271.914	262.82
272.13	49.83
272.346	-87.38
272.562	271.01
272.777	371.37
272.993	-34.13
273.209	-75.09
273.425	189.1
273.64	-15.7
273.856	-77.14
274.072	-212.31
274.287	123.56
274.503	217.77
274.719	125.61
274.934	-103.76
275.15	37.55
275.366	176.81
275.581	-138.58
275.797	12.97
276.012	275.11
276.228	78.51
276.444	29.35
276.659	119.46
276.875	86.7
277.09	111.27
277.306	-15.7
277.521	-21.84
277.737	141.99
277.952	248.49
278.168	-1.37
278.383	-27.99
278.599	160.42
278.814	301.73
279.03	-101.72
279.245	49.83
279.461	205.48
279.676	166.57
279.892	-62.8
280.107	-34.13
280.322	55.98
280.538	346.79
280.753	-167.25
280.969	-62.8
281.184	275.11
281.399	330.41
281.615	-34.13
281.83	88.75
282.045	-3.41
282.26	12.97
282.476	-107.86
282.691	96.94
282.906	232.1
283.122	152.23
283.337	-132.44
283.552	92.84
283.767	137.9
283.983	207.53
284.198	-21.84
284.413	-103.76
284.628	127.66
284.843	187.05
285.058	-13.65
285.274	-93.52
285.489	107.18
285.704	264.87
285.919	-21.84
286.134	17.07
286.349	137.9
286.564	127.66
286.779	-32.08
286.995	19.11
287.21	53.93
287.425	281.25
287.64	-111.96
287.855	201.38
288.07	-17.75
288.285	287.4
288.5	35.5
288.715	33.45
288.93	119.46
289.145	96.94
289.36	-1.37
289.575	-19.8
289.79	318.12
290.004	88.75
290.219	-9.56
290.434	-111.96
290.649	37.55
290.864	131.75
291.079	-79.19
291.294	58.03
291.509	193.19
291.724	205.48
291.938	39.59
292.153	-87.38
292.368	178.86
292.583	203.43
292.798	70.31
293.012	51.88
293.227	150.18
293.442	168.62
293.657	70.31
293.871	37.55
294.086	205.48
294.301	318.12
294.516	-23.89
294.73	119.46
294.945	119.46
295.16	101.03
295.374	70.31
295.589	72.36
295.804	103.08
296.018	92.84
296.233	-68.95
296.447	160.42
296.662	96.94
296.877	297.64
297.091	-1.37
297.306	21.16
297.52	199.34
297.735	219.82
297.949	47.79
298.164	-103.76
298.378	236.2
298.593	35.5
298.807	35.5
299.022	45.74
299.236	289.45
299.451	129.7
299.665	0.68
299.88	-11.61
300.094	277.16
300.309	111.27
300.523	-136.53
300.737	-62.8
300.952	328.36
301.166	215.72
301.381	-46.42
301.595	-185.68
301.809	113.32
302.024	131.75
302.238	-25.94
302.452	187.05
302.667	213.67
302.881	297.64
303.095	10.92
303.309	88.75
303.524	84.65
303.738	115.37
303.952	17.07
304.166	76.46
304.381	-48.47
304.595	299.69
304.809	23.21
305.023	45.74
305.237	86.7
305.452	125.61
305.666	-38.23
305.88	64.17
306.094	273.06
306.308	164.52
306.522	62.12
306.736	33.45
306.95	275.11
307.164	45.74
307.379	90.79
307.593	70.31
307.807	324.26
308.021	225.96
308.235	207.53
308.449	-66.9
308.663	125.61
308.877	522.91
309.091	12.97
309.305	135.85
309.519	-66.9
309.733	275.11
309.947	-73.04
310.161	8.87
310.374	193.19
310.588	318.12
310.802	-77.14
311.016	0.68
311.23	174.76
311.444	78.51
311.658	4.78
311.872	236.2
312.085	354.98
312.299	336.55
312.513	168.62
312.727	-36.18
312.941	92.84
313.154	223.91
313.368	17.07
313.582	45.74
313.796	240.3
314.009	156.33
314.223	103.08
314.437	133.8
314.651	262.82
314.864	174.76
315.078	23.21
315.292	-120.15
315.505	158.38
315.719	209.58
315.933	117.42
316.146	-5.46
316.36	148.14
316.573	213.67
316.787	156.33
317.001	21.16
317.214	6.83
317.428	129.7
317.641	-54.61
317.855	45.74
318.068	238.25
318.282	180.9
318.495	62.12
318.709	21.16
318.922	209.58
319.136	285.35
319.349	160.42
319.563	-97.62
319.776	281.25
319.99	-17.75
320.203	6.83
320.417	6.83
320.63	223.91
320.843	281.25
321.057	107.18
321.27	-5.46
321.483	277.16
321.697	246.44
321.91	-36.18
322.124	4.78
322.337	160.42
322.55	109.23
322.763	-25.94
322.977	-9.56
323.19	29.35
323.403	121.51
323.617	-3.41
323.83	174.76
324.043	107.18
324.256	146.09
324.469	-185.68
324.683	117.42
324.896	121.51
325.109	144.04
325.322	-128.34
325.535	74.41
325.748	316.07
325.962	187.05
326.175	35.5
326.388	17.07
326.601	234.15
326.814	68.27
327.027	55.98
327.24	162.47
327.453	-87.38
327.666	203.43
327.879	137.9
328.092	29.35
328.305	246.44
328.518	31.4
328.731	-42.32
328.944	-19.8
329.157	182.95
329.37	80.55
329.583	125.61
329.796	82.6
330.009	66.22
330.222	287.4
330.435	109.23
330.648	-3.41
330.861	203.43
331.073	225.96
331.286	80.55
331.499	47.79
331.712	123.56
331.925	139.94
332.138	15.02
332.35	-44.37
332.563	162.47
332.776	365.22
332.989	-23.89
333.202	27.31
333.414	180.9
333.627	248.49
333.84	-44.37
334.053	43.69
334.265	-48.47
334.478	25.26
334.691	-38.23
334.903	144.04
335.116	111.27
335.329	144.04
335.541	78.51
335.754	289.45
335.966	191.14
336.179	248.49
336.392	39.59
336.604	-3.41
336.817	225.96
337.029	266.92
337.242	15.02
337.454	78.51
337.667	115.37
337.88	293.54
338.092	115.37
338.305	131.75
338.517	103.08
338.729	193.19
338.942	172.71
339.154	-13.65
339.367	17.07
339.579	232.1
339.792	-50.52
340.004	68.27
340.217	137.9
340.429	191.14
340.641	-89.43
340.854	-34.13
341.066	193.19
341.278	297.64
341.491	146.09
341.703	-52.56
341.915	70.31
342.128	254.63
342.34	62.12
342.552	-64.85
342.764	205.48
342.977	131.75
343.189	88.75
343.401	98.99
343.613	-97.62
343.826	125.61
344.038	23.21
344.25	82.6
344.462	41.64
344.674	121.51
344.886	-42.32
345.099	23.21
345.311	258.73
345.523	92.84
345.735	-120.15
345.947	33.45
346.159	256.68
346.371	133.8
346.583	51.88
346.795	129.7
347.007	66.22
347.219	305.83
347.431	111.27
347.643	160.42
347.855	86.7
348.067	295.59
348.279	-64.85
348.491	39.59
348.703	297.64
348.915	127.66
349.127	-73.04
349.339	25.26
349.551	78.51
349.763	324.26
349.975	29.35
350.187	148.14
350.399	379.56
350.61	248.49
350.822	-15.7
351.034	49.83
351.246	281.25
351.458	172.71
351.669	68.27
351.881	60.07
352.093	420.52
352.305	211.62
352.517	82.6
352.728	160.42
352.94	201.38
353.152	277.16
353.363	-50.52
353.575	101.03
353.787	395.94
353.999	316.07
354.21	178.86
354.422	-11.61
354.633	146.09
354.845	125.61
355.057	92.84
355.268	137.9
355.48	283.3
355.692	23.21
355.903	35.5
356.115	-44.37
356.326	-5.46
356.538	445.09
356.749	58.03
356.961	111.27
357.172	230.06
357.384	-13.65
357.595	246.44
357.807	17.07
358.018	182.95
358.23	185
358.441	-48.47
358.653	-21.84
358.864	119.46
359.075	-11.61
359.287	74.41
359.498	62.12
359.709	180.9
359.921	236.2
360.132	162.47
360.344	-71
360.555	88.75
360.766	193.19
360.977	-11.61
361.189	86.7
361.4	213.67
361.611	330.41
361.823	162.47
362.034	53.93
362.245	25.26
362.456	154.28
362.667	223.91
362.879	10.92
363.09	273.06
363.301	207.53
363.512	-25.94
363.723	-1.37
363.935	176.81
364.146	260.77
364.357	98.99
364.568	-1.37
364.779	-5.46
364.99	371.37
365.201	-38.23
365.412	158.38
365.623	-1.37
365.834	223.91
366.045	84.65
366.256	58.03
366.467	254.63
366.678	137.9
366.889	131.75
367.1	-7.51
367.311	283.3
367.522	141.99
367.733	86.7
367.944	60.07
368.155	211.62
368.366	156.33
368.577	82.6
368.788	117.42
368.999	160.42
369.209	78.51
369.42	55.98
369.631	422.56
369.842	268.97
370.053	133.8
370.264	76.46
370.474	12.97
370.685	279.21
370.896	168.62
371.107	146.09
371.317	78.51
371.528	174.76
371.739	361.13
371.95	88.75
372.16	29.35
372.371	51.88
372.582	43.69
372.792	-7.51
373.003	119.46
373.214	221.86
373.424	287.4
373.635	17.07
373.846	135.85
374.056	258.73
374.267	166.57
374.477	115.37
374.688	-34.13
374.898	248.49
375.109	228.01
375.319	53.93
375.53	88.75
375.74	320.17
375.951	96.94
376.161	141.99
376.372	86.7
376.582	205.48
376.793	260.77
377.003	119.46
377.214	15.02
377.424	258.73
377.635	203.43
377.845	2.73
378.055	146.09
378.266	-11.61
378.476	127.66
378.686	43.69
378.897	43.69
379.107	363.17
379.317	178.86
379.528	-40.28
379.738	105.13
379.948	45.74
380.158	354.98
380.369	41.64
380.579	49.83
380.789	211.62
380.999	182.95
381.21	176.81
381.42	209.58
381.63	189.1
381.84	320.17
382.05	109.23
382.261	84.65
382.471	332.45
382.681	123.56
382.891	160.42
383.101	86.7
383.311	78.51
383.521	135.85
383.731	29.35
383.941	162.47
384.151	262.82
384.361	49.83
384.571	-17.75
384.781	107.18
384.991	348.84
385.201	498.34
385.411	172.71
385.621	53.93
385.831	250.53
386.041	191.14
386.251	117.42
386.461	158.38
386.671	236.2
386.881	170.66
387.091	53.93
387.301	109.23
387.511	273.06
387.72	174.76
387.93	82.6
388.14	-27.99
388.35	160.42
388.56	334.5
388.769	33.45
388.979	35.5
389.189	68.27
389.399	164.52
389.609	70.31
389.818	47.79
390.028	299.69
390.238	248.49
390.447	-56.66
390.657	101.03
390.867	199.34
391.076	-13.65
391.286	4.78
391.496	21.16
391.705	217.77
391.915	420.52
392.125	-3.41
392.334	94.89
392.544	348.84
392.753	221.86
392.963	23.21
393.172	94.89
393.382	180.9
393.591	397.99
393.801	15.02
394.01	8.87
394.22	346.79
394.429	150.18
394.639	133.8
394.848	148.14
395.058	260.77
395.267	281.25
395.477	121.51
395.686	80.55
395.895	594.59
396.105	428.71
396.314	105.13
396.524	185
396.733	215.72
396.942	373.41
397.152	70.31
397.361	176.81
397.57	191.14
397.78	256.68
397.989	125.61
398.198	279.21
398.407	141.99
398.617	191.14
398.826	41.64
399.035	68.27
399.244	318.12
399.453	205.48
399.663	62.12
399.872	-85.33
400.081	23.21
400.29	289.45
400.499	39.59
400.708	252.58
400.917	178.86
401.127	135.85
401.336	29.35
401.545	234.15
401.754	307.88
401.963	340.65
402.172	86.7
402.381	29.35
402.59	201.38
402.799	199.34
403.008	209.58
403.217	170.66
403.426	244.39
403.635	58.03
403.844	25.26
404.053	19.11
404.262	98.99
404.471	236.2
404.68	105.13
404.888	146.09
405.097	162.47
405.306	209.58
405.515	125.61
405.724	2.73
405.933	281.25
406.142	217.77
406.35	90.79
406.559	107.18
406.768	211.62
406.977	438.95
407.185	84.65
407.394	203.43
407.603	17.07
407.812	234.15
408.02	160.42
408.229	150.18
408.438	223.91
408.646	-15.7
408.855	-11.61
409.064	62.12
409.272	191.14
409.481	289.45
409.69	19.11
409.898	35.5
410.107	236.2
410.315	314.02
410.524	107.18
410.733	33.45
410.941	164.52
411.15	365.22
411.358	78.51
411.567	248.49
411.775	258.73
411.984	178.86
412.192	201.38
412.401	8.87
412.609	465.57
412.818	322.21
413.026	127.66
413.234	107.18
413.443	314.02
413.651	141.99
413.86	33.45
414.068	275.11
414.276	516.77
414.485	156.33
414.693	187.05
414.901	350.89
415.11	295.59
415.318	268.97
415.526	121.51
415.734	248.49
415.943	242.34
416.151	420.52
416.359	17.07
416.567	221.86
416.776	342.69
416.984	340.65
417.192	213.67
417.4	80.55
417.608	160.42
417.817	158.38
418.025	260.77
418.233	189.1
418.441	174.76
418.649	74.41
418.857	144.04
419.065	193.19
419.273	172.71
419.481	320.17
419.689	170.66
419.897	90.79
420.105	139.94
420.313	410.28
420.521	219.82
420.729	221.86
420.937	258.73
421.145	127.66
421.353	141.99
421.561	244.39
421.769	311.97
421.977	125.61
422.185	182.95
422.393	131.75
422.601	330.41
422.809	203.43
423.017	150.18
423.224	78.51
423.432	453.28
423.64	262.82
423.848	35.5
424.056	84.65
424.263	475.81
424.471	307.88
424.679	350.89
424.887	76.46
425.094	608.93
425.302	367.27
425.51	107.18
425.718	234.15
425.925	328.36
426.133	197.29
426.341	285.35
426.548	211.62
426.756	254.63
426.964	449.19
427.171	180.9
427.379	285.35
427.586	406.18
427.794	457.38
428.001	344.74
428.209	254.63
428.417	522.91
428.624	453.28
428.832	350.89
429.039	322.21
429.247	414.37
429.454	467.62
429.662	471.72
429.869	334.5
430.076	529.06
430.284	504.48
430.491	412.32
430.699	371.37
430.906	572.07
431.114	543.39
431.321	496.29
431.528	451.24
431.736	535.2
431.943	594.59
432.15	475.81
432.358	395.94
432.565	803.49
432.772	348.84
432.979	631.46
433.187	512.67
433.394	846.49
433.601	576.16
433.808	600.74
434.016	592.55
434.223	737.95
434.43	783.01
434.637	608.93
434.844	713.38
435.052	844.45
435.259	860.83
435.466	785.05
435.673	701.09
435.88	1000.09
436.087	973.47
436.294	977.56
436.501	940.7
436.708	938.65
436.915	1008.28
437.122	1000.09
437.329	783.01
437.537	928.41
437.743	1010.33
437.95	1079.96
438.157	963.23
438.364	1108.63
438.571	1069.72
438.778	1051.29
438.985	1305.24
439.192	1260.18
439.399	1172.12
439.606	1057.43
439.813	1309.33
440.02	1464.98
440.227	1550.99
440.433	1254.04
440.64	1229.46
440.847	1399.45
441.054	1342.1
441.261	1421.97
441.467	1426.07
441.674	1544.85
441.881	1675.92
442.088	1518.23
442.294	1452.69
442.501	1655.44
442.708	1815.18
442.914	1524.37
443.121	1684.11
443.328	1759.89
443.534	2032.27
443.741	1714.83
443.948	1680.02
444.154	2054.8
444.361	2146.95
444.568	1936.01
444.774	2019.98
444.981	1829.52
445.187	2349.7
445.394	2052.75
445.6	2071.18
445.807	2413.19
446.013	2257.54
446.22	2065.04
446.426	2407.05
446.633	2564.74
446.839	2800.26
447.046	2323.08
447.252	2648.71
447.459	2691.71
447.665	2667.14
447.871	2675.33
448.078	3089.02
448.284	3005.05
448.491	3039.87
448.697	3043.96
448.903	3293.82
449.11	3353.21
449.316	3148.41
449.522	3324.54
449.728	3416.69
449.935	3510.9
450.141	3523.19
450.347	3732.08
450.553	3500.66
450.76	3865.2
450.966	4043.37
451.172	3822.19
451.378	4057.71
451.584	4336.23
451.791	4551.27
451.997	4512.36
452.203	4307.56
452.409	4895.33
452.615	4790.88
452.821	4471.4
453.027	4467.3
453.233	5096.03
453.44	4842.08
453.646	4674.15
453.852	4964.96
454.058	5100.12
454.264	5388.89
454.47	5407.32
454.676	5417.56
454.882	5845.59
455.088	5417.56
455.294	5392.98
455.5	5857.87
455.705	6013.52
455.911	5962.32
456.117	5608.02
456.323	5921.36
456.529	5616.21
456.735	5929.55
456.941	5990.99
457.147	5952.08
457.352	6132.3
457.558	5980.75
457.764	6177.36
457.97	5974.61
458.176	6077.01
458.381	6314.57
458.587	6201.93
458.793	5950.03
458.999	6013.52
459.204	6306.38
459.41	6027.85
459.616	5859.92
459.821	6169.16
460.027	6048.33
460.233	6109.77
460.438	5831.25
460.644	6083.15
460.85	5982.8
461.055	5769.81
461.261	5788.24
461.466	5329.5
461.672	5452.38
461.878	5593.69
462.083	5579.35
462.289	5321.31
462.494	5362.26
462.7	5036.64
462.905	4803.17
463.111	5317.21
463.316	5370.46
463.522	5120.6
463.727	4940.38
463.932	5241.43
464.138	5048.93
464.343	5050.97
464.549	4950.62
464.754	5399.13
464.959	5278.3
465.165	4942.43
465.37	4805.22
465.575	4792.93
465.781	4872.8
465.986	4823.65
466.191	4747.87
466.397	4883.04
466.602	4727.39
466.807	4549.22
467.012	4737.63
467.218	4786.79
467.423	4616.8
467.628	4465.25
467.833	4919.9
468.038	4850.27
468.244	4455.01
468.449	4575.84
468.654	4772.45
468.859	4717.15
469.064	4743.78
469.269	4297.32
469.474	4412.01
469.679	4891.23
469.885	4698.72
470.09	4610.66
470.295	4657.76
470.5	4680.29
470.705	4807.27
470.91	4403.82
471.115	4448.87
471.32	4856.42
471.525	4942.43
471.73	4602.47
471.935	4608.61
472.139	4625
472.344	4557.41
472.549	4729.44
472.754	4686.44
472.959	4723.3
473.164	4680.29
473.369	4385.38
473.574	4768.35
473.778	4762.21
473.983	4690.53
474.188	4878.94
474.393	4584.04
474.598	4842.08
474.802	4739.68
475.007	4645.48
475.212	4721.25
475.417	4469.35
475.621	4885.09
475.826	4635.24
476.031	4803.17
476.235	4614.76
476.44	4762.21
476.645	4495.97
476.849	4606.56
477.054	4704.87
477.259	4680.29
477.463	4786.79
477.668	4565.6
477.872	4985.44
478.077	4547.17
478.282	4307.56
478.486	4452.97
478.691	4461.16
478.895	4536.93
479.1	4616.8
479.304	4735.59
479.509	4618.85
479.713	4825.7
479.918	4379.24
480.122	4397.67
480.326	4584.04
480.531	4532.84
480.735	4457.06
480.94	4479.59
481.144	4993.63
481.348	4467.3
481.553	4444.77
481.757	4369
481.961	4588.13
482.166	4708.96
482.37	4450.92
482.574	4487.78
482.778	4561.51
482.983	4569.7
483.187	4442.73
483.391	4694.63
483.595	4694.63
483.8	4776.55
484.004	4672.1
484.208	4719.2
484.412	4969.05
484.616	4772.45
484.821	4581.99
485.025	4387.43
485.229	4870.75
485.433	4909.66
485.637	4598.37
485.841	4590.18
486.045	4950.62
486.249	5030.49
486.453	4737.63
486.657	4758.11
486.861	4641.38
487.065	4799.07
487.269	4780.64
487.473	4768.35
487.677	5075.55
487.881	5366.36
488.085	4930.14
488.289	5057.12
488.493	4928.1
488.697	5460.57
488.901	5294.68
489.105	5132.89
489.309	5397.08
489.512	5247.58
489.716	5382.74
489.92	5132.89
490.124	5335.64
490.328	5646.93
490.531	5386.84
490.735	5452.38
490.939	5522.01
491.143	5651.03
491.346	5376.6
491.55	5440.09
491.754	5597.78
491.958	5698.13
492.161	5411.42
492.365	5573.21
492.569	5737.04
492.772	5710.42
492.976	5712.47
493.18	5775.95
493.383	5872.21
493.587	5999.18
493.79	5859.92
493.994	5603.93
494.197	5876.31
494.401	6001.23
494.605	6001.23
494.808	6044.24
495.012	6031.95
495.215	6294.09
495.419	6197.84
495.622	5896.78
495.825	6302.28
496.029	6300.23
496.232	6328.91
496.436	6138.44
496.639	6511.18
496.843	6396.49
497.046	6193.74
497.249	6466.12
497.453	6687.3
497.656	6449.74
497.859	6523.46
498.063	6752.84
498.266	6816.32
498.469	6570.57
498.673	6722.12
498.876	6648.39
499.079	6986.3
499.282	6797.89
499.485	7064.13
499.689	7172.67
499.892	7191.1
500.095	7035.46
500.298	7158.33
500.501	7121.47
500.705	7348.79
500.908	7772.72
501.111	7414.33
501.314	7535.16
501.517	7764.53
501.72	7920.18
501.923	7666.23
502.126	7809.59
502.329	8065.58
502.532	8127.02
502.735	8043.06
502.938	8122.93
503.141	8190.51
503.344	8370.73
503.547	8309.29
503.75	8380.97
503.953	8538.66
504.156	8798.76
504.359	8694.31
504.562	8503.85
504.765	8997.41
504.968	8985.12
505.17	9038.37
505.373	8854.05
505.576	9253.41
505.779	9441.82
505.982	9251.36
506.185	9622.04
506.387	9546.26
506.59	9968.15
506.793	9873.94
506.996	9904.66
507.198	10400.27
507.401	10224.14
507.604	10134.03
507.807	10480.14
508.009	10623.5
508.212	10770.95
508.415	10785.29
508.617	10551.82
508.82	10805.77
509.022	10877.44
509.225	11082.24
509.428	11221.5
509.63	11366.91
509.833	11520.51
510.035	11807.22
510.238	11553.27
510.44	11762.17
510.643	12216.82
510.845	12214.77
511.048	12304.88
511.25	12206.58
511.453	12456.43
511.655	13023.72
511.858	12904.93
512.06	13234.66
512.262	13414.88
512.465	13191.65
512.667	13461.98
512.87	13566.43
513.072	13777.37
513.274	13668.83
513.477	13836.76
513.679	14311.89
513.881	14668.23
514.084	14528.97
514.286	14760.39
514.488	15114.69
514.69	15315.39
514.893	15362.5
515.095	15620.54
515.297	15747.51
515.499	15765.95
515.701	15931.83
515.904	16320.95
516.106	16849.32
516.308	16789.93
516.51	16814.51
516.712	17086.89
516.914	17340.83
517.116	17529.25
517.318	17596.83
517.52	17803.67
517.722	18205.08
517.925	18213.27
518.127	18563.47
518.329	18848.14
518.531	18846.09
518.733	19366.28
518.935	19317.12
519.136	19665.28
519.338	19888.51
519.54	20048.25
519.742	20404.6
519.944	20400.5
520.146	20861.29
520.348	21297.51
520.55	21260.65
520.752	21121.38
520.954	21866.84
521.155	21778.78
521.357	21950.81
521.559	22206.81
521.761	22968.65
521.963	22886.73
522.164	23048.52
522.366	23425.35
522.568	23562.56
522.77	23816.51
522.971	24148.28
523.173	23779.65
523.375	24731.95
523.576	24185.15
523.778	24541.49
523.98	25299.24
524.181	25303.34
524.383	25757.99
524.584	25542.95
524.786	25557.28
524.988	25702.69
525.189	26186.01
525.391	26513.69
525.592	26597.65
525.794	26775.83
525.995	26710.29
526.197	26892.56
526.398	27150.6
526.6	27433.22
526.801	27578.63
527.003	27791.62
527.204	27691.27
527.406	28135.68
527.607	28199.16
527.808	28412.15
528.01	28569.85
528.211	28467.45
528.412	28977.39
528.614	29063.41
528.815	28854.51
529.016	29333.74
529.218	28909.81
529.419	29280.49
529.62	29239.53
529.822	29753.57
530.023	29761.76
530.224	29776.1
530.425	29935.84
530.626	29616.36
530.828	29616.36
531.029	30537.94
531.23	30230.75
531.431	30240.99
531.632	30484.7
531.833	30466.27
532.035	30693.59
532.236	30513.37
532.437	30707.93
532.638	30802.13
532.839	30644.44
533.04	31285.45
533.241	30984.4
533.442	30986.45
533.643	31062.22
533.844	31045.84
534.045	31025.36
534.246	31355.08
534.447	31365.32
534.648	31424.72
534.849	31402.19
535.05	31330.51
535.251	31424.72
535.451	31946.95
535.652	31492.3
535.853	31535.31
536.054	31375.56
536.255	31578.31
536.456	31604.94
536.657	31975.62
536.857	31543.5
537.058	32006.34
537.259	32059.59
537.46	31705.29
537.66	31559.88
537.861	32106.69
538.062	32006.34
538.263	31508.68
538.463	31766.73
538.664	32114.88
538.865	31686.86
539.065	32141.5
539.266	32118.98
539.466	32323.77
539.667	31860.93
539.868	32747.7
540.068	32340.16
540.269	32293.05
540.469	32522.43
540.67	31946.95
540.87	32307.39
541.071	32065.73
541.271	32696.5
541.472	32213.18
541.672	32542.91
541.873	32329.92
542.073	31930.56
542.274	32508.09
542.474	32475.32
542.675	32239.81
542.875	32342.21
543.075	32073.92
543.276	32381.12
543.476	32817.33
543.676	32710.84
543.877	32544.95
544.077	32225.47
544.277	32596.15
544.478	32450.75
544.678	32506.04
544.878	32235.71
545.078	32469.18
545.279	32661.69
545.479	32250.05
545.679	32696.5
545.879	32817.33
546.079	32759.99
546.28	32221.37
546.48	32450.75
546.68	33032.37
546.88	32927.92
547.08	32649.4
547.28	32862.39
547.48	32385.21
547.68	32893.11
547.88	32438.46
548.081	32587.96
548.281	32696.5
548.481	32854.2
548.681	32909.49
548.881	32598.2
549.081	33208.5
549.28	32764.09
549.48	33085.62
549.68	32704.7
549.88	33042.61
550.08	32915.64
550.28	32860.34
550.48	33362.09
550.68	33263.79
550.88	32680.12
551.08	32762.04
551.279	32878.77
551.479	32743.61
551.679	33464.49
551.879	32919.73
552.079	33237.17
552.278	32692.41
552.478	33466.54
552.678	33159.34
552.878	33253.55
553.077	33183.92
553.277	32686.26
553.477	33355.95
553.676	33208.5
553.876	33046.71
554.076	33005.75
554.275	32936.12
554.475	32594.11
554.674	33454.25
554.874	32997.56
555.074	33015.99
555.273	32831.67
555.473	32893.11
555.672	32620.73
555.872	32702.65
556.071	32710.84
556.271	33362.09
556.47	32639.16
556.67	32538.81
556.869	32409.79
557.068	32747.7
557.268	32762.04
557.467	32350.4
557.667	32444.6
557.866	32843.96
558.065	32215.23
558.265	31920.32
558.464	32288.96
558.663	32420.03
558.863	32211.14
559.062	32725.18
559.261	31811.78
559.461	32530.62
559.66	32018.63
559.859	32006.34
560.058	31998.15
560.258	31920.32
560.457	31377.61
560.656	32008.39
560.855	31606.98
561.054	32307.39
561.253	31668.42
561.453	31273.17
561.652	31520.97
561.851	31647.94
562.05	31054.03
562.249	30724.31
562.448	31502.54
562.647	30619.86
562.846	31221.97
563.045	31195.34
563.244	30818.52
563.443	31332.56
563.642	30687.45
563.841	30583
564.04	30210.27
564.239	30669.01
564.438	30132.45
564.637	29921.51
564.836	30480.6
565.035	29984.99
565.234	29972.71
565.432	29712.61
565.631	29475.05
565.83	30079.2
566.029	29329.64
566.228	29454.57
566.427	29194.48
566.625	28985.58
566.824	29018.35
567.023	29239.53
567.222	28168.44
567.42	28797.17
567.619	28346.62
567.818	28502.26
568.016	28545.27
568.215	28612.85
568.414	28557.56
568.612	28252.41
568.811	27840.77
569.01	28070.14
569.208	27334.92
569.407	27812.1
569.605	27539.72
569.804	27656.45
570.002	27435.27
570.201	27197.71
570.4	27267.34
570.598	26894.61
570.797	26986.77
570.995	26677.52
571.193	26339.61
571.392	26665.24
571.59	26319.13
571.789	26231.07
571.987	26083.61
572.186	26110.24
572.384	26013.98
572.582	26050.85
572.781	25616.68
572.979	25387.3
573.177	25440.55
573.376	25418.02
573.574	24992.05
573.772	25379.11
573.971	24836.4
574.169	24660.27
574.367	24725.81
574.565	24901.93
574.763	24404.28
574.962	24351.03
575.16	24275.26
575.358	24422.71
575.556	24312.12
575.754	24142.14
575.952	23724.35
576.151	24189.24
576.349	23886.14
576.547	23568.71
576.745	23691.59
576.943	23714.11
577.141	23462.21
577.339	23460.16
577.537	23261.51
577.735	23380.29
577.933	23423.3
578.131	23181.64
578.329	22870.35
578.527	22817.1
578.725	23003.47
578.923	22536.53
579.121	22710.61
579.319	22321.49
579.516	22870.35
579.714	22606.16
579.912	22362.45
580.11	22417.75
580.308	22444.37
580.506	22139.22
580.704	21502.31
580.901	22116.7
581.099	22427.99
581.297	21879.13
581.495	21768.54
581.692	21946.72
581.89	21868.89
582.088	21850.46
582.285	21588.32
582.483	21479.78
582.681	21453.16
582.878	21131.62
583.076	21410.15
583.274	21401.96
583.471	21299.56
583.669	21221.73
583.866	21045.61
584.064	21217.64
584.262	20781.42
584.459	20889.96
584.657	20787.57
584.854	21199.21
585.052	20738.41
585.249	20730.22
585.447	20556.15
585.644	20359.54
585.841	20722.03
586.039	20705.65
586.236	20425.07
586.434	20416.88
586.631	20158.84
586.828	20427.12
587.026	20404.6
587.223	20261.24
587.42	20144.5
587.618	20638.06
587.815	19951.99
588.012	19966.33
588.21	19833.21
588.407	20214.13
588.604	19923.32
588.801	19761.53
588.999	19949.95
589.196	19593.6
589.393	19782.01
589.59	19519.87
589.787	19609.98
589.984	19499.39
590.182	19304.84
590.379	19532.16
590.576	19487.11
590.773	19374.47
590.97	19386.75
591.167	19665.28
591.364	19448.19
591.561	19392.9
591.758	19351.94
591.955	19057.03
592.152	19356.04
592.349	18971.02
592.546	19153.29
592.743	19347.84
592.94	18751.88
593.137	19190.15
593.334	19100.04
593.531	18925.96
593.727	19067.27
593.924	18921.87
594.121	18811.28
594.318	18940.3
594.515	18755.98
594.712	19089.8
594.908	18616.72
595.105	18995.59
595.302	18864.52
595.499	18676.11
595.696	18485.65
595.892	18225.56
596.089	18784.65
596.286	18850.19
596.482	18655.63
596.679	18807.18
596.876	18741.64
597.072	18311.57
597.269	18428.31
597.466	18467.22
597.662	18491.79
597.859	18461.07
598.055	18516.37
598.252	18624.91
598.448	18553.23
598.645	18342.29
598.841	18076.05
599.038	18370.96
599.234	18635.15
599.431	18217.36
599.627	18172.31
599.824	18903.43
600.02	18352.53
600.217	18012.57
600.413	17992.09
600.609	17996.18
600.806	18551.18
601.002	17936.79
601.198	18155.93
601.395	18311.57
601.591	18280.85
601.787	18264.47
601.984	18108.82
602.18	18270.61
602.376	17985.94
602.572	17906.07
602.769	18184.6
602.965	17873.31
603.161	18178.45
603.357	17879.45
603.553	17916.31
603.75	17904.03
603.946	18059.67
604.142	18061.72
604.338	17793.44
604.534	17830.3
604.73	17738.14
604.926	17781.15
605.122	18198.93
605.318	17727.9
605.514	17971.61
605.71	17875.35
605.906	17899.93
606.102	17617.31
606.298	17944.98
606.494	17775
606.69	17748.38
606.886	17682.84
607.082	17607.07
607.278	17602.97
607.474	17299.87
607.67	17836.44
607.866	17318.31
608.062	17633.69
608.257	17570.21
608.453	17502.62
608.649	17502.62
608.845	17375.65
609.041	17349.03
609.236	17512.86
609.432	17705.37
609.628	17293.73
609.824	17328.55
610.019	17353.12
610.215	17484.19
610.411	17322.4
610.606	17213.86
610.802	17492.38
610.998	17312.16
611.193	17334.69
611.389	16773.55
611.584	17426.85
611.78	17267.11
611.976	17281.44
612.171	17351.07
612.367	17361.31
612.562	17228.2
612.758	17299.87
612.953	16869.8
613.149	17400.23
613.344	17019.3
613.539	17404.32
613.735	16988.58
613.93	17359.27
614.126	17019.3
614.321	16982.44
614.517	16974.25
614.712	17113.51
614.907	16978.34
615.103	17070.5
615.298	16945.58
615.493	16929.19
615.688	16767.4
615.884	17009.06
616.079	16634.28
616.274	17004.97
616.47	16693.68
616.665	17039.78
616.86	16517.55
617.055	16896.42
617.25	16941.48
617.445	16972.2
617.641	16646.57
617.836	16632.24
618.031	16576.94
618.226	16601.52
618.421	16748.97
618.616	16972.2
618.811	16589.23
619.006	16820.65
619.201	16341.43
619.396	16722.35
619.591	16243.12
619.786	16411.06
619.981	16351.67
620.176	16609.71
620.371	15933.88
620.566	16464.3
620.761	16267.7
620.956	16116.15
621.151	16060.85
621.346	16249.27
621.541	15575.49
621.735	16196.02
621.93	15868.34
622.125	15864.25
622.32	15503.81
622.515	15778.23
622.709	15845.82
622.904	16023.99
623.099	15512
623.294	15903.16
623.488	15403.46
623.683	15491.52
623.878	15325.63
624.072	15655.36
624.267	15411.65
624.462	15182.27
624.656	15124.93
624.851	15391.17
625.046	15366.59
625.24	15204.8
625.435	15118.79
625.629	15323.58
625.824	15249.86
626.018	15188.42
626.213	14954.95
626.407	15086.02
626.602	14907.85
626.796	15043.01
626.991	14793.16
627.185	14805.45
627.38	14625.23
627.574	14830.02
627.768	14803.4
627.963	14709.19
628.157	14780.87
628.352	14459.34
628.546	14189.01
628.74	14756.3
628.935	14303.7
629.129	14453.2
629.323	14281.17
629.517	14191.06
629.712	14256.59
629.906	14324.18
630.1	14141.91
630.294	14621.13
630.489	14180.82
630.683	14180.82
630.877	13726.17
631.071	14002.64
631.265	13953.49
631.459	14133.71
631.653	14074.32
631.848	13828.57
632.042	13904.34
632.236	13685.21
632.43	13502.94
632.624	14027.22
632.818	13668.83
633.012	13533.66
633.206	13273.57
633.4	13707.74
633.594	13337.06
633.788	13208.03
633.982	13382.11
634.176	13545.95
634.369	13046.24
634.563	13083.11
634.757	12657.13
634.951	13128.16
635.145	13144.55
635.339	12759.53
635.533	12730.86
635.726	12820.97
635.92	12472.81
636.114	12517.87
636.308	12470.76
636.501	12491.24
636.695	12474.86
636.889	12165.62
637.083	12055.03
637.276	12083.7
637.47	11915.76
637.664	11848.18
637.857	11766.26
638.051	11837.94
638.244	11756.02
638.438	11581.95
638.632	11371.01
638.825	11250.17
639.019	11559.42
639.212	11293.18
639.406	11117.06
639.599	10971.65
639.793	11057.67
639.986	10752.52
640.18	10969.6
640.373	10912.26
640.567	10781.19
640.76	10615.3
640.954	10287.63
641.147	10285.58
641.34	10373.64
641.534	10158.61
641.727	10099.22
641.92	10263.05
642.114	9882.13
642.307	9865.75
642.5	9669.14
642.694	9480.73
642.887	9460.25
643.08	9710.1
643.273	9460.25
643.467	9388.57
643.66	9228.83
643.853	9099.81
644.046	8987.17
644.239	9054.75
644.432	8886.82
644.626	8596.01
644.819	8602.15
645.012	8708.65
645.205	8727.08
645.398	8630.82
645.591	8403.5
645.784	8438.31
645.977	8266.28
646.17	8155.69
646.363	8227.37
646.556	7944.75
646.749	7866.93
646.942	8053.3
647.135	7860.79
647.328	7819.83
647.521	7848.5
647.714	7563.83
647.907	7776.82
648.099	7512.63
648.292	7782.96
648.485	7498.3
648.678	7162.43
648.871	7475.77
649.064	7174.72
649.256	7078.46
649.449	7166.53
649.642	6851.14
649.835	7096.89
650.027	6855.23
650.22	6996.54
650.413	7094.85
650.605	7207.48
650.798	6799.94
650.991	6849.09
651.183	6797.89
651.376	6666.82
651.568	6636.1
651.761	6621.77
651.954	6939.2
652.146	6777.41
652.339	6685.25
652.531	6724.16
652.724	6586.95
652.916	6310.47
653.109	6134.35
653.301	6564.42
653.494	6607.43
653.686	6427.21
653.879	6488.65
654.071	6326.86
654.263	6367.82
654.456	6277.71
654.648	6382.15
654.84	6101.58
655.033	6203.98
655.225	6369.87
655.417	6009.42
655.61	6111.82
655.802	6308.43
655.994	6429.26
656.186	6136.4
656.379	6007.38
656.571	5872.21
656.763	5939.79
656.955	5833.3
657.148	5784.15
657.34	6085.2
657.532	5812.82
657.724	5874.26
657.916	5767.76
658.108	5968.46
658.3	5728.85
658.492	5687.89
658.684	5651.03
658.876	5855.83
659.068	5511.77
659.26	5489.24
659.452	5241.43
659.644	5599.83
659.836	5778
660.028	5315.16
660.22	5347.93
660.412	5616.21
660.604	5360.22
660.796	5118.56
660.988	5136.99
661.18	5319.26
661.372	5241.43
661.563	5085.79
661.755	4854.37
661.947	5104.22
662.139	4913.76
662.331	4924
662.522	4848.22
662.714	4967.01
662.906	4641.38
663.097	4774.5
663.289	4616.8
663.481	4586.08
663.673	4850.27
663.864	4880.99
664.056	4704.87
664.247	4612.71
664.439	4950.62
664.631	4530.79
664.822	4446.82
665.014	4784.74
665.205	4602.47
665.397	4465.25
665.588	4489.83
665.78	4616.8
665.971	4565.6
666.163	4379.24
666.354	4174.44
666.546	4356.71
666.737	4172.4
666.929	4287.08
667.12	4268.65
667.311	4457.06
667.503	4381.29
667.694	4364.9
667.885	4045.42
668.077	4342.38
668.268	4139.63
668.459	4123.24
668.651	4213.35
668.842	4309.61
669.033	4188.78
669.224	4078.19
669.416	4401.77
669.607	4149.87
669.798	4082.28
669.989	4074.09
670.18	3994.22
670.371	4215.4
670.563	4059.76
670.754	4141.68
670.945	4092.52
671.136	4276.84
671.327	3957.36
671.518	3996.27
671.709	4184.68
671.9	4174.44
672.091	4321.9
672.282	4063.85
672.473	3838.58
672.664	3990.13
672.855	4059.76
673.046	4039.28
673.237	4139.63
673.428	4024.94
673.619	4055.66
673.809	4006.51
674	4065.9
674.191	4315.75
674.382	4080.24
674.573	3916.4
674.764	3959.41
674.954	4268.65
675.145	3871.34
675.336	3854.96
675.527	3891.82
675.717	4086.38
675.908	3957.36
676.099	3859.06
676.289	3885.68
676.48	3981.93
676.671	4090.48
676.861	4143.72
677.052	3967.6
677.243	4074.09
677.433	4090.48
677.624	4160.11
677.814	3953.26
678.005	4090.48
678.195	4303.47
678.386	4104.81
678.576	4053.61
678.767	4082.28
678.957	4282.99
679.148	4209.26
679.338	4227.69
679.529	4414.06
679.719	4248.17
679.909	4268.65
680.1	4229.74
680.29	4450.92
680.481	4020.85
680.671	4317.8
680.861	4192.87
681.052	4504.17
681.242	4274.79
681.432	4377.19
681.622	4301.42
681.813	4311.66
682.003	4459.11
682.193	4246.12
682.383	4457.06
682.573	4563.56
682.764	4477.54
682.954	4627.04
683.144	4727.39
683.334	4432.49
683.524	4668
683.714	4557.41
683.904	4655.72
684.094	4809.31
684.284	4633.19
684.474	4860.51
684.664	4700.77
684.854	4807.27
685.044	4885.09
685.234	4770.4
685.424	4700.77
685.614	4735.59
685.804	5046.88
685.994	4700.77
686.184	4844.13
686.374	5093.98
686.564	4930.14
686.753	5044.83
686.943	4952.67
687.133	5110.36
687.323	5089.89
687.513	5085.79
687.702	5042.78
687.892	5161.56
688.082	5177.95
688.272	5139.04
688.461	5116.51
688.651	5620.31
688.841	5491.29
689.03	5349.98
689.22	5372.5
689.41	5513.81
689.599	5464.66
689.789	5554.77
689.979	5700.18
690.168	5669.46
690.358	5624.4
690.547	5599.83
690.737	5755.47
690.926	5792.34
691.116	5864.02
691.305	6044.24
691.495	5874.26
691.684	6048.33
691.874	6029.9
692.063	6070.86
692.252	6201.93
692.442	6533.7
692.631	6279.75
692.82	6240.84
693.01	6464.07
693.199	6699.59
693.388	6537.8
693.578	6693.44
693.767	6670.92
693.956	6961.73
694.146	6939.2
694.335	6994.5
694.524	6877.76
694.713	7309.88
694.902	7246.4
695.092	7266.88
695.281	7416.38
695.47	7471.67
695.659	7486.01
695.848	7494.2
696.037	7473.72
696.226	8075.82
696.415	7936.56
696.604	7946.8
696.793	7789.11
696.982	8106.54
697.171	8194.61
697.36	8129.07
697.549	8170.03
697.738	8030.77
697.927	8233.52
698.116	8442.41
698.305	8458.79
698.494	8905.25
698.683	8704.55
698.872	8694.31
699.061	8569.38
699.25	8831.52
699.438	8870.44
699.627	8878.63
699.816	9101.86
700.005	9124.38
700.193	9114.14
700.382	9126.43
700.571	9247.26
700.76	9495.07
700.948	9505.31
701.137	9511.45
701.326	9554.46
701.514	9394.72
701.703	9706.01
701.892	9691.67
702.08	9746.97
702.269	9974.29
702.457	9861.65
702.646	9935.38
702.834	9839.12
703.023	10299.92
703.212	10316.3
703.4	10052.11
703.589	10242.57
703.777	10209.81
703.965	10154.51
704.154	9892.37
704.342	10146.32
704.531	10396.17
704.719	10686.98
704.907	10519.05
705.096	10205.71
705.284	10445.32
705.472	10578.44
705.661	10486.28
705.849	10588.68
706.037	10914.31
706.226	10697.22
706.414	10674.7
706.602	10629.64
706.79	10803.72
706.979	10748.42
707.167	10617.35
707.355	10600.97
707.543	10811.91
707.731	10918.4
707.919	10967.56
708.107	10570.25
708.296	10914.31
708.484	10672.65
708.672	10904.07
708.86	10641.93
709.048	11020.8
709.236	10975.75
709.424	10990.08
709.612	11043.33
709.8	10709.51
709.988	10930.69
710.176	10801.67
710.364	11004.42
710.551	11018.75
710.739	10922.5
710.927	10844.68
711.115	10846.73
711.303	11311.61
711.491	10998.27
711.679	10613.26
711.866	10883.59
712.054	11047.43
712.242	10930.69
712.43	11043.33
712.617	10811.91
712.805	10883.59
712.993	10789.38
713.181	10678.79
713.368	11020.8
713.556	11057.67
713.744	10680.84
713.931	11016.71
714.119	10848.77
714.306	11065.86
714.494	10861.06
714.682	10846.73
714.869	10797.57
715.057	11065.86
715.244	10506.76
715.432	10883.59
715.619	10570.25
715.807	10940.93
715.994	10725.89
716.182	10625.54
716.369	10693.13
716.556	11190.78
716.744	10484.23
716.931	10537.48
717.119	10797.57
717.306	10844.68
717.493	10607.11
717.681	10476.04
717.868	10537.48
718.055	10885.64
718.242	10611.21
718.43	10486.28
718.617	10500.62
718.804	10496.52
718.991	10766.85
719.179	10502.67
719.366	10334.73
719.553	10727.94
719.74	10437.13
719.927	10410.51
720.114	10265.1
720.301	10246.67
720.488	10258.96
720.676	10127.89
720.863	10308.11
721.05	10652.17
721.237	10508.81
721.424	10428.94
721.611	10023.44
721.798	10084.88
721.985	10150.42
722.172	10043.92
722.358	10078.74
722.545	10537.48
722.732	10207.76
722.919	10172.94
723.106	10031.63
723.293	10097.17
723.48	10187.28
723.667	9912.85
723.853	9857.56
724.04	10211.85
724.227	9988.63
724.414	9544.22
724.6	9611.8
724.787	10091.02
724.974	10119.7
725.161	9812.5
725.347	9529.88
725.534	9857.56
725.72	9783.83
725.907	10013.2
726.094	9724.44
726.28	9638.42
726.467	9482.78
726.653	9595.42
726.84	9654.81
727.027	9841.17
727.213	9411.1
727.4	9447.96
727.586	9480.73
727.773	9466.39
727.959	9595.42
728.145	9552.41
728.332	9394.72
728.518	9396.76
728.705	9714.2
728.891	9118.24
729.077	9364
729.264	9237.02
729.45	9349.66
729.636	9357.85
729.823	9146.91
730.009	9562.65
730.195	9253.41
730.382	9333.28
730.568	8983.07
730.754	9163.29
730.94	9110.05
731.126	8983.07
731.313	9142.82
731.499	8995.36
731.685	9175.58
731.871	9134.62
732.057	8960.55
732.243	9081.38
732.429	8790.56
732.615	9019.94
732.801	8731.17
732.987	8825.38
733.173	8847.91
733.359	8784.42
733.545	8790.56
733.731	8852
733.917	8925.73
734.103	8649.25
734.289	8675.88
734.475	8731.17
734.661	8862.24
734.847	8579.62
735.033	8507.94
735.219	8757.8
735.404	8600.1
735.59	8405.55
735.776	8430.12
735.962	8671.78
736.148	8612.39
736.333	8565.29
736.519	8288.81
736.705	8419.88
736.89	8274.48
737.076	8155.69
737.262	7973.42
737.447	8163.89
737.633	8186.41
737.819	8063.54
738.004	8122.93
738.19	8170.03
738.375	8137.26
738.561	8071.73
738.747	7866.93
738.932	7877.17
739.118	8342.06
739.303	7881.27
739.489	8010.29
739.674	7889.46
739.859	7758.39
740.045	7658.04
740.23	7694.9
740.416	7569.98
740.601	7787.06
740.786	7686.71
740.972	7459.38
741.157	7668.28
741.342	7359.03
741.528	7418.43
741.713	7621.17
741.898	7354.94
742.084	7572.02
742.269	7399.99
742.454	7234.11
742.639	7746.1
742.824	7373.37
743.01	7512.63
743.195	7359.03
743.38	7170.62
743.565	7211.58
743.75	7092.8
743.935	7074.37
744.12	7479.86
744.305	6918.72
744.49	6951.49
744.675	6832.71
744.86	6967.87
745.045	7049.79
745.23	6847.04
745.415	6648.39
745.6	7064.13
745.785	6744.64
745.97	6761.03
746.155	6767.17
746.34	6834.75
746.525	6656.58
746.71	6703.68
746.895	6244.94
747.079	6492.74
747.264	6402.63
747.449	6470.22
747.634	6322.76
747.819	6462.02
748.003	6226.51
748.188	6111.82
748.373	6201.93
748.557	6359.63
748.742	6074.96
748.927	6044.24
749.111	5896.78
749.296	6083.15
749.481	6130.25
749.665	5861.97
749.85	5767.76
750.034	6115.92
750.219	5902.93
750.404	5673.56
750.588	5567.06
750.773	5573.21
750.957	5722.71
751.141	5483.09
751.326	5554.77
751.51	5591.64
751.695	5509.72
751.879	5526.1
752.064	5542.49
752.248	5284.44
752.432	5595.73
752.617	5245.53
752.801	5272.15
752.985	5216.86
753.17	5376.6
753.354	5210.72
753.538	5055.07
753.722	5007.97
753.907	4985.44
754.091	4919.9
754.275	4952.67
754.459	4893.28
754.643	4950.62
754.828	4807.27
755.012	4729.44
755.196	4801.12
755.38	5024.35
755.564	4727.39
755.748	4661.86
755.932	4917.86
756.116	4754.02
756.3	4594.28
756.484	4520.55
756.668	4631.14
756.852	4356.71
757.036	4434.53
757.22	4403.82
757.404	4301.42
757.588	4280.94
757.772	4409.96
757.956	4297.32
758.14	4418.15
758.323	4192.87
758.507	4262.51
758.691	4012.65
758.875	4338.28
759.059	4315.75
759.242	3871.34
759.426	4162.16
759.61	4033.13
759.794	3932.78
759.977	4026.99
760.161	4268.65
760.345	4045.42
760.528	3955.31
760.712	3758.71
760.895	3697.27
761.079	3662.45
761.263	3549.81
761.446	3560.05
761.63	3504.76
761.813	3752.56
761.997	3494.52
762.18	3590.77
762.364	3617.4
762.547	3465.85
762.731	3437.17
762.914	3369.59
763.098	3263.1
763.281	3416.69
763.464	3457.65
763.648	3488.37
763.831	3410.55
764.015	3396.21
764.198	3701.36
764.381	3304.06
764.564	3320.44
764.748	3535.48
764.931	3521.14
765.114	3172.99
765.297	3392.12
765.481	3265.14
765.664	3306.1
765.847	3279.48
766.03	3281.53
766.213	3148.41
766.397	3381.88
766.58	3101.31
766.763	3351.16
766.946	3304.06
767.129	3215.99
767.312	3226.23
767.495	3129.98
767.678	3314.3
767.861	3273.34
768.044	3119.74
768.227	3172.99
768.41	3304.06
768.593	3302.01
768.776	3314.3
768.959	3148.41
769.142	3285.62
769.324	3148.41
769.507	3076.73
769.69	3062.4
769.873	3150.46
770.056	3441.27
770.239	3119.74
770.421	3209.85
770.604	3318.39
770.787	3093.12
770.97	3017.34
771.152	2847.36
771.335	3099.26
771.518	2896.51
771.7	2972.29
771.883	3009.15
772.066	2777.73
772.248	2951.81
772.431	3076.73
772.613	2919.04
772.796	2966.14
772.978	2902.65
773.161	2949.76
773.343	2687.62
773.526	2849.41
773.708	2824.83
773.891	2601.6
774.073	2687.62
774.256	2646.66
774.438	3003
774.621	2607.75
774.803	2685.57
774.985	2509.44
775.168	2816.64
775.35	2476.68
775.532	2493.06
775.715	2613.89
775.897	2685.57
776.079	2501.25
776.261	2554.5
776.444	2536.07
776.626	2624.13
776.808	2372.23
776.99	2241.16
777.173	2431.62
777.355	2499.2
777.537	2439.81
777.719	2411.14
777.901	2480.77
778.083	2230.92
778.265	2179.72
778.447	2378.37
778.629	2280.07
778.811	2316.94
778.993	2294.41
779.175	2173.58
779.357	2321.03
779.539	2232.97
779.721	2173.58
779.903	2126.47
780.085	2290.31
780.267	2214.54
780.449	2036.36
780.631	2224.78
780.812	2335.37
780.994	2079.37
781.176	1987.21
781.358	1856.14
781.54	2052.75
781.721	2243.21
781.903	2032.27
782.085	1866.38
782.267	2062.99
782.448	1917.58
782.63	1929.87
782.812	2013.84
782.993	2069.13
783.175	2017.93
783.357	1759.89
783.538	1874.57
783.72	1819.28
783.901	1675.92
784.083	1874.57
784.264	1843.85
784.446	1696.4
784.627	1622.67
784.809	1772.18
784.99	1700.5
785.172	1954.44
785.353	1854.09
785.535	1700.5
785.716	1520.28
785.897	1690.26
786.079	1655.44
786.26	1626.77
786.441	1651.35
786.623	1409.69
786.804	1479.32
786.985	1510.04
787.167	1577.62
787.348	1600.15
787.529	1526.42
787.71	1514.13
787.891	1436.31
788.073	1524.37
788.254	1366.68
788.435	1559.19
788.616	1413.78
788.797	1262.23
788.978	1395.35
789.159	1413.78
789.34	1452.69
789.522	1495.7
789.703	1327.77
789.884	1421.97
790.065	1446.55
790.246	1626.77
790.427	1376.92
790.607	1421.97
790.788	1442.45
790.969	1342.1
791.15	1411.73
791.331	1243.8
791.512	1258.14
791.693	1188.5
791.874	1104.54
792.054	1489.56
792.235	1276.57
792.416	1208.98
792.597	1104.54
792.778	1211.03
792.958	1143.45
793.139	1335.96
793.32	1141.4
793.5	1049.24
793.681	1241.75
793.862	1288.86
794.042	1114.78
794.223	967.32
794.404	1014.43
794.584	991.9
794.765	1096.35
794.945	1172.12
795.126	1118.87
795.306	1266.33
795.487	1075.87
795.667	993.95
795.848	920.22
796.028	1145.5
796.209	1094.3
796.389	1190.55
796.57	1032.86
796.75	1063.58
796.93	1104.54
797.111	1036.95
797.291	879.26
797.471	1182.36
797.652	1063.58
797.832	832.16
798.012	1004.19
798.192	1004.19
798.373	895.64
798.553	940.7
798.733	1053.34
798.913	854.69
799.093	946.84
799.274	983.71
799.454	979.61
799.634	1133.21
799.814	1075.87
799.994	998.04
800.174	959.13
800.354	959.13
800.534	662.18
800.714	875.17
800.894	733.86
801.074	862.88
801.254	883.36
801.434	1036.95
801.614	828.06
801.794	858.78
801.974	5583.45
802.154	826.01
802.334	926.36
802.514	823.97
802.693	909.98
802.873	754.34
803.053	973.47
803.233	856.73
803.413	875.17
803.592	561.83
803.772	701.09
803.952	805.53
804.131	676.51
804.311	789.15
804.491	860.83
804.67	758.43
804.85	725.66
805.03	899.74
805.209	907.93
805.389	785.05
805.568	805.53
805.748	727.71
805.928	733.86
806.107	883.36
806.287	801.44
806.466	772.77
806.646	682.66
806.825	731.81
807.004	688.8
807.184	785.05
807.363	758.43
807.543	830.11
807.722	631.46
807.901	834.21
808.081	713.38
808.26	461.48
808.439	768.67
808.619	541.35
808.798	578.21
808.977	826.01
809.156	864.93
809.336	709.28
809.515	596.64
809.694	576.16
809.873	629.41
810.052	547.49
810.231	754.34
810.411	752.29
810.59	844.45
810.769	541.35
810.948	694.94
811.127	406.18
811.306	606.88
811.485	539.3
811.664	758.43
811.843	680.61
812.022	727.71
812.201	471.72
812.38	559.78
812.559	518.82
812.737	729.76
812.916	432.8
813.095	492.2
813.274	633.51
813.453	653.98
813.632	567.97
813.811	639.65
813.989	455.33
814.168	600.74
814.347	397.99
814.526	578.21
814.704	740
814.883	719.52
815.062	375.46
815.24	510.63
815.419	453.28
815.598	613.03
815.776	363.17
815.955	371.37
816.133	271.01
816.312	545.44
816.49	361.13
816.669	494.24
816.847	588.45
817.026	555.68
817.204	414.37
817.383	512.67
817.561	395.94
817.74	604.83
817.918	449.19
818.097	344.74
818.275	494.24
818.453	596.64
818.632	494.24
818.81	445.09
818.988	535.2
819.167	379.56
819.345	445.09
819.523	359.08
819.701	561.83
819.879	608.93
820.058	549.54
820.236	389.8
820.414	570.02
820.592	436.9
820.77	449.19
820.948	404.13
821.127	381.6
821.305	615.07
821.483	193.19
821.661	416.42
821.839	621.22
822.017	373.41
822.195	363.17
822.373	445.09
822.551	481.96
822.729	506.53
822.907	348.84
823.085	463.52
823.262	488.1
823.44	320.17
823.618	395.94
823.796	385.7
823.974	488.1
824.152	311.97
824.329	410.28
824.507	502.43
824.685	520.87
824.863	443.04
825.04	248.49
825.218	400.04
825.396	455.33
825.574	484
825.751	424.61
825.929	369.32
826.107	350.89
826.284	410.28
826.462	336.55
826.639	311.97
826.817	266.92
826.994	420.52
827.172	225.96
827.349	389.8
827.527	461.48
827.704	445.09
827.882	430.76
828.059	330.41
828.237	324.26
828.414	500.39
828.591	170.66
828.769	385.7
828.946	416.42
829.124	592.55
829.301	510.63
829.478	201.38
829.655	479.91
829.833	371.37
830.01	127.66
830.187	391.84
830.364	377.51
830.542	443.04
830.719	408.23
830.896	445.09
831.073	479.91
831.25	422.56
831.427	277.16
831.604	307.88
831.782	246.44
831.959	414.37
832.136	266.92
832.313	338.6
832.49	250.53
832.667	441
832.844	271.01
833.021	428.71
833.198	428.71
833.374	361.13
833.551	322.21
833.728	277.16
833.905	357.03
834.082	88.75
834.259	375.46
834.436	420.52
834.612	185
834.789	504.48
834.966	287.4
835.143	301.73
835.319	141.99
835.496	424.61
835.673	275.11
835.85	305.83
836.026	373.41
836.203	508.58
836.38	260.77
836.556	228.01
836.733	324.26
836.909	547.49
837.086	256.68
837.262	92.84
837.439	273.06
837.616	314.02
837.792	238.25
837.968	232.1
838.145	164.52
838.321	314.02
838.498	246.44
838.674	385.7
838.851	346.79
839.027	244.39
839.203	252.58
839.38	357.03
839.556	311.97
839.732	506.53
839.909	232.1
840.085	185
840.261	180.9
840.437	395.94
840.614	246.44
840.79	244.39
840.966	449.19
841.142	283.3
841.318	244.39
841.494	215.72
841.671	479.91
841.847	166.57
842.023	58.03
842.199	299.69
842.375	465.57
842.551	51.88
842.727	135.85
842.903	371.37
843.079	156.33
843.255	412.32
843.431	232.1
843.607	320.17
843.783	-15.7
843.959	389.8
844.134	203.43
844.31	334.5
844.486	215.72
844.662	154.28
844.838	311.97
845.013	170.66
845.189	510.63
845.365	397.99
845.541	109.23
845.716	299.69
845.892	479.91
846.068	103.08
846.244	303.78
846.419	113.32
846.595	225.96
846.77	283.3
846.946	256.68
847.122	180.9
847.297	244.39
847.473	555.68
847.648	125.61
847.824	199.34
847.999	31.4
848.175	234.15
848.35	289.45
848.526	377.51
848.701	344.74
848.876	377.51
849.052	377.51
849.227	168.62
849.403	320.17
849.578	258.73
849.753	215.72
849.929	160.42
850.104	98.99
850.279	248.49
850.454	215.72
850.63	289.45
850.805	217.77
850.98	297.64
851.155	201.38
851.33	334.5
851.505	76.46
851.681	385.7
851.856	182.95
852.031	238.25
852.206	187.05
852.381	68.27
852.556	154.28
852.731	58.03
852.906	338.6
853.081	285.35
853.256	352.93
853.431	146.09
853.606	148.14
853.781	156.33
853.956	33.45
854.131	187.05
854.305	139.94
854.48	213.67
854.655	47.79
854.83	101.03
855.005	215.72
855.18	215.72
855.354	152.23
855.529	125.61
855.704	185
855.879	340.65
856.053	66.22
856.228	92.84
856.403	111.27
856.577	408.23
856.752	96.94
856.926	103.08
857.101	260.77
857.276	29.35
857.45	185
857.625	182.95
857.799	316.07
857.974	242.34
858.148	27.31
858.323	185
858.497	221.86
858.672	211.62
858.846	62.12
859.02	242.34
859.195	168.62
859.369	191.14
859.543	219.82
859.718	150.18
859.892	303.78
860.066	228.01
860.241	121.51
860.415	127.66
860.589	215.72
860.763	201.38
860.938	144.04
861.112	217.77
861.286	170.66
861.46	193.19
861.634	98.99
861.808	148.14
861.982	150.18
862.157	141.99
862.331	98.99
862.505	19.11
862.679	60.07
862.853	141.99
863.027	185
863.201	258.73
863.375	150.18
863.549	246.44
863.722	258.73
863.896	256.68
864.07	111.27
864.244	185
864.418	228.01
864.592	158.38
864.766	250.53
864.939	201.38
865.113	174.76
865.287	283.3
865.461	154.28
865.634	215.72
865.808	115.37
865.982	86.7
866.156	94.89
866.329	74.41
866.503	199.34
866.676	199.34
866.85	281.25
867.024	94.89
867.197	185
867.371	92.84
867.544	363.17
867.718	21.16
867.891	303.78
868.065	-60.76
868.238	295.59
868.412	260.77
868.585	135.85
868.759	84.65
868.932	223.91
869.105	70.31
869.279	230.06
869.452	43.69
869.625	428.71
869.799	199.34
869.972	25.26
870.145	195.24
870.319	309.93
870.492	172.71
870.665	127.66
870.838	4.78
871.011	-114
871.185	182.95
871.358	101.03
871.531	264.87
871.704	129.7
871.877	240.3
872.05	68.27
872.223	4.78
872.396	385.7
872.569	311.97
872.742	25.26
872.915	225.96
873.088	107.18
873.261	43.69
873.434	297.64
873.607	111.27
873.78	359.08
873.953	29.35
874.126	141.99
874.299	113.32
874.471	115.37
874.644	103.08
874.817	209.58
874.99	252.58
875.163	201.38
875.335	158.38
875.508	29.35
875.681	236.2
875.853	256.68
876.026	156.33
876.199	234.15
876.371	109.23
876.544	174.76
876.717	221.86
876.889	152.23
877.062	217.77
877.234	49.83
877.407	98.99
877.579	148.14
877.752	158.38
877.924	338.6
878.097	209.58
878.269	139.94
878.442	207.53
878.614	314.02
878.786	225.96
878.959	127.66
879.131	166.57
879.303	-42.32
879.476	234.15
879.648	236.2
879.82	53.93
879.993	185
880.165	139.94
880.337	23.21
880.509	84.65
880.681	-46.42
880.854	135.85
881.026	287.4
881.198	170.66
881.37	203.43
881.542	211.62
881.714	129.7
881.886	72.36
882.058	193.19
882.23	238.25
882.402	101.03
882.574	152.23
882.746	338.6
882.918	359.08
883.09	150.18
883.262	76.46
883.434	209.58
883.606	43.69
883.778	64.17
883.95	246.44
884.122	92.84
884.293	293.54
884.465	39.59
884.637	221.86
884.809	119.46
884.98	174.76
885.152	156.33
885.324	185
885.496	115.37
885.667	41.64
885.839	68.27
886.011	199.34
886.182	289.45
886.354	289.45
886.525	185
886.697	119.46
886.869	86.7
887.04	141.99
887.212	305.83
887.383	316.07
887.555	260.77
887.726	82.6
887.897	105.13
888.069	105.13
888.24	314.02
888.412	131.75
888.583	43.69
888.754	82.6
888.926	-13.65
889.097	88.75
889.268	-77.14
889.44	31.4
889.611	80.55
889.782	-5.46
889.953	-5.46
890.125	154.28
890.296	68.27
890.467	70.31
890.638	88.75
890.809	19.11
890.98	105.13
891.151	330.41
891.323	150.18
891.494	-1.37
891.665	185
891.836	86.7
892.007	141.99
892.178	201.38
892.349	221.86
892.52	72.36
892.691	162.47
892.862	21.16
893.032	-19.8
893.203	94.89
893.374	80.55
893.545	162.47
893.716	66.22
893.887	318.12
894.057	10.92
894.228	125.61
894.399	84.65
894.57	348.84
894.74	150.18
894.911	125.61
895.082	180.9
895.253	92.84
895.423	117.42
895.594	238.25
895.764	230.06
895.935	-58.71
896.106	166.57
896.276	23.21
896.447	201.38
896.617	-5.46
896.788	-60.76
896.958	86.7
897.129	109.23
897.299	25.26
897.47	223.91
897.64	191.14
897.81	131.75
897.981	180.9
898.151	111.27
898.322	150.18
898.492	295.59
898.662	64.17
898.832	21.16
899.003	88.75
899.173	168.62
899.343	41.64
899.513	27.31
