Data from USB4F104151__16__12-41-01-676.txt Node

Date: Fri Mar 14 12:41:01 EDT 2025
User: louis
Spectrometer: USB4F10415
Trigger mode: 4
Integration Time (sec): 3.000000E-2
Scans to average: 1
Electric dark correction enabled: true
Nonlinearity correction enabled: false
Boxcar width: 0
XAxis mode: Wavelengths
Number of Pixels in Spectrum: 3648
>>>>>Begin Spectral Data<<<<<
178.204	-107.69
178.424	-107.69
178.644	-107.69
178.864	-140.46
179.084	-193.7
179.304	31.57
179.524	19.29
179.744	-15.53
179.964	58.2
180.184	23.38
180.404	-5.29
180.624	-13.48
180.844	23.38
181.064	-89.26
181.283	-21.67
181.503	29.52
181.723	-40.11
181.943	-103.59
182.163	33.62
182.383	7
182.602	58.2
182.822	35.67
183.042	60.24
183.262	-19.63
183.482	0.85
183.701	-21.67
183.921	29.52
184.141	9.05
184.361	47.96
184.58	56.15
184.8	2.9
185.02	41.81
185.239	62.29
185.459	25.43
185.679	15.19
185.898	64.34
186.118	52.05
186.338	52.05
186.557	33.62
186.777	19.29
186.997	45.91
187.216	-44.2
187.436	25.43
187.655	72.53
187.875	33.62
188.095	41.81
188.314	47.96
188.534	13.14
188.753	58.2
188.973	-44.2
189.192	29.52
189.412	-58.54
189.631	66.39
189.851	31.57
190.07	56.15
190.29	-29.87
190.509	-1.19
190.729	-40.11
190.948	66.39
191.168	131.92
191.387	60.24
191.607	-72.87
191.826	9.05
192.045	39.76
192.265	95.06
192.484	41.81
192.704	66.39
192.923	17.24
193.142	62.29
193.362	78.68
193.581	70.48
193.8	58.2
194.02	56.15
194.239	-3.24
194.458	25.43
194.678	25.43
194.897	41.81
195.116	62.29
195.335	17.24
195.555	2.9
195.774	7
195.993	82.77
196.212	9.05
196.432	-46.25
196.651	9.05
196.87	-5.29
197.089	99.16
197.308	-11.43
197.528	33.62
197.747	-64.68
197.966	95.06
198.185	127.83
198.404	43.86
198.623	78.68
198.842	33.62
199.062	7
199.281	58.2
199.5	50
199.719	-17.58
199.938	58.2
200.157	74.58
200.376	74.58
200.595	-31.91
200.814	101.2
201.033	29.52
201.252	35.67
201.471	17.24
201.69	33.62
201.909	29.52
202.128	58.2
202.347	103.25
202.566	-3.24
202.785	-9.39
203.004	-50.35
203.223	179.03
203.442	74.58
203.661	-48.3
203.879	78.68
204.098	50
204.317	-31.91
204.536	62.29
204.755	-7.34
204.974	60.24
205.193	15.19
205.411	90.96
205.63	56.15
205.849	37.72
206.068	-5.29
206.287	54.1
206.505	9.05
206.724	39.76
206.943	58.2
207.162	-64.68
207.381	-25.77
207.599	15.19
207.818	23.38
208.037	66.39
208.255	21.33
208.474	54.1
208.693	13.14
208.911	7
209.13	25.43
209.349	-31.91
209.567	58.2
209.786	2.9
210.005	70.48
210.223	68.44
210.442	-31.91
210.661	29.52
210.879	37.72
211.098	-13.48
211.316	93.01
211.535	72.53
211.753	-40.11
211.972	-17.58
212.191	31.57
212.409	64.34
212.628	-15.53
212.846	19.29
213.065	54.1
213.283	78.68
213.502	0.85
213.72	41.81
213.938	31.57
214.157	4.95
214.375	70.48
214.594	45.91
214.812	-27.82
215.031	47.96
215.249	19.29
215.467	78.68
215.686	-9.39
215.904	58.2
216.122	99.16
216.341	33.62
216.559	58.2
216.778	15.19
216.996	123.73
217.214	33.62
217.432	-11.43
217.651	-72.87
217.869	35.67
218.087	58.2
218.306	68.44
218.524	66.39
218.742	29.52
218.96	45.91
219.179	-70.83
219.397	35.67
219.615	88.92
219.833	23.38
220.051	13.14
220.27	80.72
220.488	-7.34
220.706	68.44
220.924	-3.24
221.142	2.9
221.36	78.68
221.578	58.2
221.796	21.33
222.015	-5.29
222.233	-27.82
222.451	17.24
222.669	-36.01
222.887	58.2
223.105	0.85
223.323	80.72
223.541	21.33
223.759	2.9
223.977	76.63
224.195	-5.29
224.413	47.96
224.631	21.33
224.849	29.52
225.067	72.53
225.285	11.09
225.503	86.87
225.721	-33.96
225.939	-33.96
226.157	7
226.375	117.59
226.592	50
226.81	-5.29
227.028	-54.44
227.246	150.36
227.464	33.62
227.682	86.87
227.9	39.76
228.117	-1.19
228.335	35.67
228.553	-13.48
228.771	-3.24
228.989	0.85
229.206	-50.35
229.424	-31.91
229.642	39.76
229.86	37.72
230.077	58.2
230.295	17.24
230.513	66.39
230.731	-40.11
230.948	99.16
231.166	60.24
231.384	-19.63
231.601	0.85
231.819	103.25
232.037	33.62
232.254	-50.35
232.472	15.19
232.689	-7.34
232.907	109.4
233.125	-40.11
233.342	13.14
233.56	-66.73
233.777	-27.82
233.995	-9.39
234.213	72.53
234.43	7
234.648	0.85
234.865	-23.72
235.083	56.15
235.3	0.85
235.518	82.77
235.735	-9.39
235.953	37.72
236.17	54.1
236.388	-11.43
236.605	62.29
236.822	50
237.04	84.82
237.257	9.05
237.475	-38.06
237.692	62.29
237.909	37.72
238.127	25.43
238.344	39.76
238.562	-17.58
238.779	-33.96
238.996	23.38
239.214	39.76
239.431	54.1
239.648	-3.24
239.865	33.62
240.083	31.57
240.3	-7.34
240.517	-15.53
240.735	33.62
240.952	54.1
241.169	54.1
241.386	9.05
241.603	-64.68
241.821	-17.58
242.038	62.29
242.255	11.09
242.472	15.19
242.689	52.05
242.907	0.85
243.124	2.9
243.341	23.38
243.558	52.05
243.775	-3.24
243.992	-52.39
244.209	78.68
244.426	31.57
244.643	50
244.86	39.76
245.078	11.09
245.295	23.38
245.512	113.49
245.729	-9.39
245.946	54.1
246.163	64.34
246.38	27.48
246.597	64.34
246.814	86.87
247.031	-44.2
247.248	-23.72
247.464	68.44
247.681	17.24
247.898	70.48
248.115	13.14
248.332	-23.72
248.549	90.96
248.766	70.48
248.983	7
249.2	64.34
249.417	70.48
249.633	-5.29
249.85	33.62
250.067	-7.34
250.284	29.52
250.501	64.34
250.717	-1.19
250.934	-66.73
251.151	-15.53
251.368	-31.91
251.585	60.24
251.801	25.43
252.018	7
252.235	-23.72
252.451	-23.72
252.668	-17.58
252.885	-7.34
253.102	-1.19
253.318	2.9
253.535	13.14
253.752	-23.72
253.968	11.09
254.185	-5.29
254.401	47.96
254.618	127.83
254.835	-7.34
255.051	86.87
255.268	21.33
255.484	23.38
255.701	15.19
255.917	68.44
256.134	4.95
256.351	11.09
256.567	-76.97
256.784	39.76
257	-72.87
257.217	52.05
257.433	-7.34
257.65	66.39
257.866	47.96
258.082	-21.67
258.299	60.24
258.515	88.92
258.732	52.05
258.948	72.53
259.165	25.43
259.381	19.29
259.597	13.14
259.814	9.05
260.03	2.9
260.246	60.24
260.463	23.38
260.679	43.86
260.895	50
261.112	9.05
261.328	56.15
261.544	60.24
261.761	95.06
261.977	0.85
262.193	29.52
262.409	4.95
262.626	72.53
262.842	-3.24
263.058	-7.34
263.274	88.92
263.49	80.72
263.707	109.4
263.923	31.57
264.139	9.05
264.355	25.43
264.571	66.39
264.787	-33.96
265.004	39.76
265.22	29.52
265.436	47.96
265.652	45.91
265.868	27.48
266.084	-17.58
266.3	50
266.516	39.76
266.732	21.33
266.948	39.76
267.164	76.63
267.38	82.77
267.596	95.06
267.812	82.77
268.028	80.72
268.244	68.44
268.46	-44.2
268.676	47.96
268.892	39.76
269.108	-5.29
269.324	58.2
269.54	45.91
269.756	52.05
269.972	-13.48
270.188	-33.96
270.403	-17.58
270.619	66.39
270.835	15.19
271.051	66.39
271.267	29.52
271.483	43.86
271.698	15.19
271.914	17.24
272.13	60.24
272.346	60.24
272.562	9.05
272.777	95.06
272.993	-91.31
273.209	13.14
273.425	88.92
273.64	-13.48
273.856	47.96
274.072	41.81
274.287	39.76
274.503	-17.58
274.719	103.25
274.934	19.29
275.15	-25.77
275.366	9.05
275.581	19.29
275.797	7
276.012	15.19
276.228	88.92
276.444	107.35
276.659	-29.87
276.875	-23.72
277.09	-1.19
277.306	-17.58
277.521	117.59
277.737	76.63
277.952	31.57
278.168	64.34
278.383	39.76
278.599	-44.2
278.814	101.2
279.03	7
279.245	23.38
279.461	37.72
279.676	47.96
279.892	33.62
280.107	-21.67
280.322	15.19
280.538	-9.39
280.753	15.19
280.969	39.76
281.184	-36.01
281.399	84.82
281.615	27.48
281.83	37.72
282.045	88.92
282.26	7
282.476	58.2
282.691	72.53
282.906	39.76
283.122	41.81
283.337	33.62
283.552	47.96
283.767	-21.67
283.983	35.67
284.198	11.09
284.413	15.19
284.628	29.52
284.843	80.72
285.058	58.2
285.274	-5.29
285.489	11.09
285.704	64.34
285.919	27.48
286.134	13.14
286.349	9.05
286.564	19.29
286.779	76.63
286.995	23.38
287.21	-44.2
287.425	41.81
287.64	-70.83
287.855	-50.35
288.07	4.95
288.285	47.96
288.5	82.77
288.715	103.25
288.93	31.57
289.145	-38.06
289.36	35.67
289.575	-46.25
289.79	4.95
290.004	70.48
290.219	47.96
290.434	-3.24
290.649	-21.67
290.864	45.91
291.079	15.19
291.294	86.87
291.509	31.57
291.724	80.72
291.938	2.9
292.153	90.96
292.368	-17.58
292.583	39.76
292.798	17.24
293.012	90.96
293.227	13.14
293.442	33.62
293.657	90.96
293.871	45.91
294.086	-19.63
294.301	60.24
294.516	107.35
294.73	15.19
294.945	-21.67
295.16	27.48
295.374	60.24
295.589	76.63
295.804	-99.5
296.018	0.85
296.233	133.97
296.447	25.43
296.662	13.14
296.877	68.44
297.091	21.33
297.306	45.91
297.52	29.52
297.735	43.86
297.949	80.72
298.164	82.77
298.378	56.15
298.593	4.95
298.807	-62.63
299.022	43.86
299.236	7
299.451	68.44
299.665	33.62
299.88	90.96
300.094	33.62
300.309	50
300.523	47.96
300.737	64.34
300.952	15.19
301.166	64.34
301.381	9.05
301.595	33.62
301.809	15.19
302.024	31.57
302.238	-66.73
302.452	90.96
302.667	33.62
302.881	64.34
303.095	43.86
303.309	74.58
303.524	-27.82
303.738	56.15
303.952	31.57
304.166	25.43
304.381	23.38
304.595	60.24
304.809	0.85
305.023	45.91
305.237	66.39
305.452	7
305.666	-3.24
305.88	72.53
306.094	58.2
306.308	56.15
306.522	4.95
306.736	45.91
306.95	-19.63
307.164	23.38
307.379	43.86
307.593	70.48
307.807	43.86
308.021	-36.01
308.235	50
308.449	80.72
308.663	-7.34
308.877	90.96
309.091	54.1
309.305	52.05
309.519	-42.15
309.733	52.05
309.947	52.05
310.161	101.2
310.374	47.96
310.588	62.29
310.802	39.76
311.016	121.68
311.23	84.82
311.444	88.92
311.658	19.29
311.872	45.91
312.085	95.06
312.299	45.91
312.513	82.77
312.727	17.24
312.941	50
313.154	-56.49
313.368	39.76
313.582	31.57
313.796	50
314.009	-74.92
314.223	60.24
314.437	62.29
314.651	39.76
314.864	-1.19
315.078	54.1
315.292	-9.39
315.505	21.33
315.719	-56.49
315.933	93.01
316.146	60.24
316.36	15.19
316.573	35.67
316.787	-40.11
317.001	19.29
317.214	4.95
317.428	23.38
317.641	60.24
317.855	-42.15
318.068	52.05
318.282	43.86
318.495	80.72
318.709	15.19
318.922	-25.77
319.136	35.67
319.349	37.72
319.563	-21.67
319.776	-17.58
319.99	-7.34
320.203	78.68
320.417	54.1
320.63	66.39
320.843	74.58
321.057	19.29
321.27	-56.49
321.483	58.2
321.697	72.53
321.91	56.15
322.124	54.1
322.337	33.62
322.55	78.68
322.763	31.57
322.977	88.92
323.19	-1.19
323.403	64.34
323.617	45.91
323.83	80.72
324.043	17.24
324.256	52.05
324.469	4.95
324.683	111.44
324.896	-40.11
325.109	74.58
325.322	-1.19
325.535	109.4
325.748	41.81
325.962	25.43
326.175	29.52
326.388	56.15
326.601	58.2
326.814	47.96
327.027	47.96
327.24	90.96
327.453	-5.29
327.666	74.58
327.879	0.85
328.092	78.68
328.305	119.64
328.518	29.52
328.731	-21.67
328.944	39.76
329.157	-21.67
329.37	-23.72
329.583	56.15
329.796	78.68
330.009	-62.63
330.222	105.3
330.435	74.58
330.648	-19.63
330.861	37.72
331.073	39.76
331.286	56.15
331.499	68.44
331.712	-15.53
331.925	23.38
332.138	2.9
332.35	43.86
332.563	78.68
332.776	35.67
332.989	56.15
333.202	27.48
333.414	103.25
333.627	-42.15
333.84	27.48
334.053	152.4
334.265	127.83
334.478	17.24
334.691	-19.63
334.903	72.53
335.116	-46.25
335.329	84.82
335.541	31.57
335.754	82.77
335.966	-48.3
336.179	2.9
336.392	68.44
336.604	72.53
336.817	4.95
337.029	39.76
337.242	76.63
337.454	47.96
337.667	66.39
337.88	70.48
338.092	25.43
338.305	58.2
338.517	68.44
338.729	35.67
338.942	43.86
339.154	37.72
339.367	54.1
339.579	80.72
339.792	-79.02
340.004	-17.58
340.217	21.33
340.429	68.44
340.641	9.05
340.854	9.05
341.066	25.43
341.278	4.95
341.491	72.53
341.703	84.82
341.915	43.86
342.128	39.76
342.34	23.38
342.552	19.29
342.764	31.57
342.977	19.29
343.189	119.64
343.401	47.96
343.613	7
343.826	23.38
344.038	-19.63
344.25	37.72
344.462	54.1
344.674	50
344.886	-23.72
345.099	29.52
345.311	25.43
345.523	4.95
345.735	-15.53
345.947	50
346.159	43.86
346.371	35.67
346.583	-5.29
346.795	88.92
347.007	54.1
347.219	29.52
347.431	64.34
347.643	11.09
347.855	27.48
348.067	76.63
348.279	21.33
348.491	80.72
348.703	-25.77
348.915	4.95
349.127	93.01
349.339	25.43
349.551	23.38
349.763	23.38
349.975	41.81
350.187	64.34
350.399	62.29
350.61	50
350.822	-1.19
351.034	136.02
351.246	13.14
351.458	37.72
351.669	72.53
351.881	52.05
352.093	35.67
352.305	58.2
352.517	45.91
352.728	52.05
352.94	2.9
353.152	41.81
353.363	31.57
353.575	23.38
353.787	13.14
353.999	62.29
354.21	70.48
354.422	11.09
354.633	27.48
354.845	39.76
355.057	35.67
355.268	31.57
355.48	115.54
355.692	29.52
355.903	-1.19
356.115	-19.63
356.326	7
356.538	101.2
356.749	-13.48
356.961	107.35
357.172	45.91
357.384	-5.29
357.595	90.96
357.807	41.81
358.018	62.29
358.23	84.82
358.441	56.15
358.653	70.48
358.864	-7.34
359.075	-13.48
359.287	0.85
359.498	52.05
359.709	50
359.921	99.16
360.132	11.09
360.344	56.15
360.555	-5.29
360.766	7
360.977	13.14
361.189	68.44
361.4	15.19
361.611	68.44
361.823	25.43
362.034	95.06
362.245	-68.78
362.456	37.72
362.667	68.44
362.879	35.67
363.09	101.2
363.301	45.91
363.512	-13.48
363.723	68.44
363.935	-9.39
364.146	39.76
364.357	-15.53
364.568	11.09
364.779	80.72
364.99	129.88
365.201	82.77
365.412	82.77
365.623	84.82
365.834	21.33
366.045	23.38
366.256	60.24
366.467	64.34
366.678	54.1
366.889	21.33
367.1	-17.58
367.311	58.2
367.522	4.95
367.733	45.91
367.944	39.76
368.155	72.53
368.366	47.96
368.577	2.9
368.788	105.3
368.999	86.87
369.209	52.05
369.42	166.74
369.631	109.4
369.842	2.9
370.053	4.95
370.264	23.38
370.474	2.9
370.685	107.35
370.896	54.1
371.107	93.01
371.317	47.96
371.528	86.87
371.739	138.07
371.95	95.06
372.16	21.33
372.371	39.76
372.582	41.81
372.792	101.2
373.003	62.29
373.214	56.15
373.424	88.92
373.635	47.96
373.846	76.63
374.056	115.54
374.267	37.72
374.477	50
374.688	2.9
374.898	35.67
375.109	66.39
375.319	37.72
375.53	80.72
375.74	99.16
375.951	31.57
376.161	54.1
376.372	47.96
376.582	66.39
376.793	156.5
377.003	52.05
377.214	29.52
377.424	105.3
377.635	25.43
377.845	72.53
378.055	127.83
378.266	45.91
378.476	52.05
378.686	99.16
378.897	58.2
379.107	78.68
379.317	25.43
379.528	-19.63
379.738	35.67
379.948	43.86
380.158	119.64
380.369	19.29
380.579	58.2
380.789	64.34
380.999	11.09
381.21	168.79
381.42	82.77
381.63	70.48
381.84	50
382.05	82.77
382.261	105.3
382.471	125.78
382.681	60.24
382.891	93.01
383.101	74.58
383.311	15.19
383.521	56.15
383.731	64.34
383.941	117.59
384.151	62.29
384.361	103.25
384.571	66.39
384.781	123.73
384.991	129.88
385.201	52.05
385.411	84.82
385.621	99.16
385.831	84.82
386.041	-5.29
386.251	47.96
386.461	148.31
386.671	76.63
386.881	93.01
387.091	105.3
387.301	113.49
387.511	66.39
387.72	74.58
387.93	54.1
388.14	7
388.35	25.43
388.56	154.45
388.769	152.4
388.979	-27.82
389.189	50
389.399	60.24
389.609	164.69
389.818	101.2
390.028	156.5
390.238	50
390.447	-13.48
390.657	21.33
390.867	74.58
391.076	9.05
391.286	70.48
391.496	117.59
391.705	140.12
391.915	37.72
392.125	82.77
392.334	80.72
392.544	72.53
392.753	138.07
392.963	90.96
393.172	2.9
393.382	80.72
393.591	129.88
393.801	119.64
394.01	146.26
394.22	101.2
394.429	72.53
394.639	101.2
394.848	45.91
395.058	95.06
395.267	23.38
395.477	131.92
395.686	41.81
395.895	146.26
396.105	166.74
396.314	99.16
396.524	97.11
396.733	84.82
396.942	95.06
397.152	7
397.361	136.02
397.57	62.29
397.78	148.31
397.989	72.53
398.198	113.49
398.407	150.36
398.617	201.55
398.826	138.07
399.035	76.63
399.244	97.11
399.453	197.46
399.663	86.87
399.872	107.35
400.081	88.92
400.29	70.48
400.499	90.96
400.708	162.64
400.917	107.35
401.127	99.16
401.336	117.59
401.545	179.03
401.754	78.68
401.963	148.31
402.172	103.25
402.381	99.16
402.59	125.78
402.799	146.26
403.008	97.11
403.217	60.24
403.426	146.26
403.635	121.68
403.844	166.74
404.053	154.45
404.262	136.02
404.471	111.44
404.68	193.36
404.888	183.12
405.097	84.82
405.306	203.6
405.515	201.55
405.724	148.31
405.933	179.03
406.142	211.79
406.35	283.47
406.559	238.42
406.768	217.94
406.977	228.18
407.185	273.23
407.394	242.51
407.603	252.75
407.812	250.71
408.02	379.73
408.229	254.8
408.438	342.86
408.646	308.05
408.855	293.71
409.064	287.57
409.272	344.91
409.481	412.5
409.69	375.63
409.898	381.78
410.107	375.63
410.315	396.11
410.524	396.11
410.733	430.93
410.941	375.63
411.15	459.6
411.358	453.45
411.567	478.03
411.775	426.83
411.984	553.8
412.192	492.37
412.401	553.8
412.609	467.79
412.818	613.2
413.026	582.48
413.234	541.52
413.443	656.2
413.651	678.73
413.86	830.28
414.068	756.55
414.276	748.36
414.485	858.95
414.693	848.71
414.901	932.68
415.11	828.23
415.318	836.42
415.526	961.35
415.734	981.83
415.943	953.16
416.151	1041.22
416.359	1002.31
416.567	1065.8
416.776	1188.68
416.984	1225.54
417.192	1205.06
417.4	1342.27
417.608	1233.73
417.817	1293.12
418.025	1393.47
418.233	1514.3
418.441	1438.53
418.649	1514.3
418.857	1624.89
419.065	1672
419.273	1692.48
419.481	1837.88
419.689	1776.44
419.897	1897.27
420.105	1905.46
420.313	2071.35
420.521	2067.25
420.729	2104.12
420.937	2196.28
421.145	2249.52
421.353	2327.35
421.561	2343.73
421.769	2448.18
421.977	2648.88
422.185	2507.57
422.393	2622.25
422.601	2878.25
422.809	2767.66
423.017	2933.54
423.224	3095.33
423.432	3207.97
423.64	3068.71
423.848	3474.21
424.056	3347.23
424.263	3601.18
424.471	3574.56
424.679	3722.01
424.887	3834.65
425.094	3965.72
425.302	4109.08
425.51	4195.09
425.718	4549.39
425.925	4303.64
426.133	4436.75
426.341	4793.1
426.548	4944.65
426.756	5055.24
426.964	5061.38
427.171	5411.59
427.379	5487.36
427.586	5692.16
427.794	5681.92
428.001	6052.6
428.209	6286.07
428.417	6169.34
428.624	6691.57
428.832	6433.52
429.039	6613.74
429.247	6390.52
429.454	7187.18
429.662	7774.94
429.869	7351.01
430.076	7748.32
430.284	7529.19
430.491	7875.29
430.699	8237.78
430.906	8053.47
431.114	8276.7
431.321	8737.49
431.528	8917.71
431.736	9519.81
431.943	9827.01
432.15	9593.54
432.358	9646.79
432.565	10472.12
432.772	10455.73
432.979	10871.47
433.187	11008.69
433.394	11033.26
433.601	11969.18
433.808	11934.37
434.016	11721.38
434.223	12313.24
434.43	12839.57
434.637	12722.84
434.844	13728.39
435.052	13775.49
435.259	13484.68
435.466	13560.45
435.673	13879.94
435.88	14590.58
436.087	15358.57
436.294	14989.94
436.501	15131.25
436.708	15250.03
436.915	15829.6
437.122	16456.28
437.329	16521.82
437.537	17033.81
437.743	17132.11
437.95	17001.04
438.157	18223.68
438.364	18608.7
438.571	18557.5
438.778	18952.76
438.985	20611.61
439.192	19698.22
439.399	20242.98
439.606	19847.72
439.813	20920.85
440.02	22151.68
440.227	21907.98
440.433	21660.17
440.64	22444.54
440.847	22190.59
441.054	22817.27
441.261	24519.14
441.467	24099.3
441.674	24459.74
441.881	25321.94
442.088	25242.07
442.294	25346.51
442.501	25981.38
442.708	26208.71
442.914	27468.21
443.121	28461.48
443.328	27335.09
443.534	29677.97
443.741	28694.94
443.948	28250.53
444.154	30617.99
444.361	30581.12
444.568	30665.09
444.774	30210.44
444.981	31054.2
445.187	31809.9
445.394	32614.76
445.6	32717.15
445.807	35742
446.013	34279.75
446.22	34916.67
446.426	36139.31
446.633	36634.92
446.839	37759.25
447.046	36200.75
447.252	37779.73
447.459	38412.56
447.665	38215.95
447.871	39418.11
448.078	41674.97
448.284	39645.43
448.491	40761.58
448.697	42227.92
448.903	42625.23
449.11	42934.47
449.316	42240.21
449.522	43026.63
449.728	44093.62
449.935	44542.13
450.141	44720.3
450.347	45371.55
450.553	44146.87
450.76	44787.88
450.966	46196.88
451.172	45725.85
451.378	46606.48
451.584	45551.77
451.791	46514.32
451.997	46629.01
452.203	47298.69
452.409	47773.82
452.615	47044.74
452.821	45654.17
453.027	45035.69
453.233	47683.71
453.44	45998.23
453.646	46305.43
453.852	46409.87
454.058	47280.26
454.264	45582.49
454.47	46528.66
454.676	45414.56
454.882	46821.51
455.088	43124.93
455.294	43745.47
455.5	44185.78
455.705	44812.46
455.911	42793.16
456.117	42215.63
456.323	41580.76
456.529	39682.3
456.735	41017.57
456.941	39887.09
457.147	39409.92
457.352	38359.31
457.558	37636.38
457.764	38084.88
457.97	37290.27
458.176	36882.72
458.381	36860.19
458.587	34408.78
458.793	34697.54
458.999	32831.84
459.204	34926.91
459.41	34081.1
459.616	31949.17
459.821	31897.97
460.027	32149.87
460.233	31248.76
460.438	29942.16
460.644	30439.81
460.85	28854.69
461.055	28133.8
461.261	28311.97
461.466	25981.38
461.672	25455.06
461.878	27296.18
462.083	25278.93
462.289	25002.46
462.494	24674.78
462.7	23435.76
462.905	23157.24
463.111	23892.46
463.316	23761.39
463.522	23294.45
463.727	23425.52
463.932	23351.79
464.138	23015.93
464.343	23237.11
464.549	22465.02
464.754	23312.88
464.959	23007.73
465.165	23120.37
465.37	22086.15
465.575	21215.76
465.781	22231.55
465.986	22352.38
466.191	21817.86
466.397	21213.71
466.602	20056.61
466.807	20775.45
467.012	20730.39
467.218	20742.68
467.423	20470.3
467.628	20834.84
467.833	21193.23
468.038	20789.78
468.244	20226.59
468.449	21101.08
468.654	20222.5
468.859	20324.9
469.064	20054.56
469.269	18985.52
469.474	19434.03
469.679	20216.35
469.885	19311.15
470.09	19620.39
470.295	19184.18
470.5	18745.91
470.705	18969.14
470.91	18711.1
471.115	18514.49
471.32	18737.72
471.525	18688.57
471.73	18139.71
471.935	17902.15
472.139	17463.88
472.344	17615.43
472.549	17707.59
472.754	17556.04
472.959	16998.99
473.164	16800.34
473.369	16421.47
473.574	16955.99
473.778	16968.27
473.983	16826.96
474.188	16638.55
474.393	16054.88
474.598	15997.54
474.802	15843.94
475.007	15792.74
475.212	15542.89
475.417	15102.57
475.621	15075.95
475.826	15051.38
476.031	14994.03
476.235	14584.44
476.44	14776.95
476.645	14432.89
476.849	14531.19
477.054	14465.66
477.259	14074.49
477.463	14125.69
477.668	13746.82
477.872	13963.9
478.077	13613.7
478.282	13423.24
478.486	13474.44
478.691	13064.85
478.895	13097.61
479.1	13408.9
479.304	12958.35
479.509	12612.24
479.713	13093.52
479.918	12694.16
480.122	12534.42
480.326	12862.1
480.531	12665.49
480.735	12587.67
480.94	12606.1
481.144	12724.88
481.348	12204.7
481.553	12460.7
481.757	12026.53
481.961	12509.85
482.166	12364.44
482.37	12536.47
482.574	11899.55
482.778	12303
482.983	12427.93
483.187	12243.61
483.391	12057.25
483.595	12178.08
483.8	12069.53
484.004	12255.9
484.208	12466.84
484.412	11930.27
484.616	12214.94
484.821	12401.3
485.025	11956.89
485.229	12411.54
485.433	12255.9
485.637	12370.58
485.841	11928.22
486.045	12130.97
486.249	12262.04
486.453	12118.68
486.657	11967.13
486.861	12147.36
487.065	11877.02
487.269	12010.14
487.473	12008.09
487.677	12292.76
487.881	12350.1
488.085	12008.09
488.289	12155.55
488.493	12030.62
488.697	12298.91
488.901	12229.27
489.105	12227.23
489.309	11995.81
489.512	12241.56
489.716	12481.17
489.92	12274.33
490.124	12157.6
490.328	12452.5
490.531	12358.3
490.735	12303
490.939	12456.6
491.143	12425.88
491.346	12331.67
491.55	12628.63
491.754	12618.39
491.958	12784.27
492.161	12593.81
492.365	12569.24
492.569	12640.92
492.772	12720.79
492.976	12882.58
493.18	13083.28
493.383	13114
493.587	13171.34
493.79	13220.49
493.994	13093.52
494.197	13308.55
494.401	13517.45
494.605	13458.06
494.808	13449.86
495.012	13742.72
495.215	13609.61
495.419	13904.51
495.622	13953.66
495.825	13935.23
496.029	14176.89
496.232	14336.63
496.436	14267
496.639	14623.35
496.843	14656.12
497.046	14785.14
497.249	15006.32
497.453	15098.48
497.656	15065.71
497.859	15157.87
498.063	15184.49
498.266	15856.23
498.469	15702.63
498.673	15741.54
498.876	16048.74
499.079	16183.9
499.282	16278.11
499.485	16417.37
499.689	16788.05
499.892	16783.96
500.095	17013.33
500.298	17416.78
500.501	17298
500.705	17734.21
500.908	17896
501.111	18029.12
501.314	18043.46
501.517	18283.07
501.72	18747.96
501.923	18473.53
502.126	18950.71
502.329	19159.6
502.532	19182.13
502.735	19507.76
502.938	19794.47
503.141	19487.28
503.344	20398.62
503.547	20093.47
503.75	20326.94
503.953	21015.06
504.156	20906.52
504.359	21271.06
504.562	21170.71
504.765	21858.82
504.968	21942.79
505.17	22123.01
505.373	22149.64
505.576	22577.66
505.779	22430.21
505.982	22817.27
506.185	23083.51
506.387	23611.89
506.59	23532.01
506.793	24015.33
506.996	23599.6
507.198	24609.25
507.401	24334.82
507.604	24748.51
507.807	25440.72
508.009	25276.88
508.212	25309.65
508.415	25526.74
508.617	26124.74
508.82	26169.8
509.022	26147.27
509.225	26939.83
509.428	27283.89
509.63	27226.55
509.833	27429.3
510.035	27918.76
510.238	27642.29
510.44	28223.91
510.643	28826.01
510.845	29032.86
511.048	28940.7
511.25	29385.11
511.453	29176.22
511.655	30368.13
511.858	30054.79
512.06	30140.81
512.262	30599.55
512.465	30687.62
512.667	30925.18
512.87	31297.91
513.072	31185.27
513.274	32131.44
513.477	32528.74
513.679	32573.8
513.881	32811.36
514.084	33341.78
514.286	32819.55
514.488	33775.95
514.69	34392.39
514.893	34027.85
515.095	34097.49
515.297	34945.34
515.499	34990.4
515.701	35531.06
515.904	35846.45
516.106	35905.84
516.308	35879.22
516.51	36593.96
516.712	36368.68
516.914	36983.07
517.116	37560.6
517.318	37441.82
517.52	38029.59
517.722	37742.87
517.925	38414.6
518.127	38840.58
518.329	39033.09
518.531	39108.86
518.733	39377.15
518.935	39717.11
519.136	39870.71
519.338	40270.06
519.54	40712.42
519.742	41003.24
519.944	41081.06
520.146	41806.04
520.348	41744.6
520.55	41920.73
520.752	41957.59
520.954	42440.91
521.155	42350.8
521.357	43286.72
521.559	43118.79
521.761	43622.59
521.963	43780.28
522.164	43860.15
522.366	44355.76
522.568	44865.7
522.77	44683.44
522.971	45236.39
523.173	45088.93
523.375	45752.48
523.576	45942.94
523.778	45752.48
523.98	46250.13
524.181	46598.29
524.383	46592.14
524.584	47184.01
524.786	47360.13
524.988	46954.63
525.189	47276.16
525.391	48044.15
525.592	47675.52
525.794	47814.78
525.995	48195.7
526.197	48191.61
526.398	48003.19
526.6	48570.48
526.801	49000.55
527.003	48939.11
527.204	48832.62
527.406	49133.67
527.607	49408.1
527.808	49721.44
528.01	48822.38
528.211	49492.07
528.412	49844.32
528.614	50198.62
528.815	49811.55
529.016	50481.24
529.218	50180.18
529.419	50180.18
529.62	50649.17
529.822	50200.66
530.023	50651.22
530.224	50821.2
530.425	50743.38
530.626	50380.88
530.828	50253.91
531.029	51212.36
531.23	50829.39
531.431	51189.83
531.632	51109.96
531.833	51281.99
532.035	50829.39
532.236	51198.02
532.437	51298.37
532.638	51271.75
532.839	51390.53
533.04	51892.29
533.241	51071.05
533.442	51664.96
533.643	51472.45
533.844	51093.58
534.045	51619.91
534.246	51122.25
534.447	51552.32
534.648	51540.03
534.849	51511.36
535.05	50851.92
535.251	51963.96
535.451	51116.11
535.652	51286.09
535.853	51195.98
536.054	51327.05
536.255	51630.15
536.456	51435.59
536.657	52017.21
536.857	51245.13
537.058	51425.35
537.259	51271.75
537.46	51595.33
537.66	51298.37
537.861	51435.59
538.062	51124.3
538.263	51210.31
538.463	51515.46
538.664	51439.68
538.865	51587.14
539.065	51767.36
539.266	50827.34
539.466	51963.96
539.667	51030.09
539.868	51890.24
540.068	51533.89
540.269	51148.87
540.469	51613.76
540.67	50636.88
540.87	51140.68
541.071	51214.41
541.271	51361.86
541.472	51472.45
541.672	51050.57
541.873	50792.53
542.073	50630.74
542.274	51503.17
542.474	50849.87
542.675	50886.73
542.875	51464.26
543.075	50911.31
543.276	50630.74
543.476	51456.07
543.676	50747.47
543.877	51007.56
544.077	50991.18
544.277	51181.64
544.478	50305.11
544.678	51079.24
544.878	50759.76
545.078	51191.88
545.279	50978.89
545.479	50477.14
545.679	51060.81
545.879	50559.06
546.079	51103.82
546.28	50997.32
546.48	50577.49
546.68	50978.89
546.88	51255.37
547.08	50968.65
547.28	50821.2
547.48	50344.02
547.68	50681.94
547.88	50436.18
548.081	51007.56
548.281	50460.76
548.481	50391.12
548.681	50810.96
548.881	50507.86
549.081	50669.65
549.28	50475.09
549.48	50671.7
549.68	50411.6
549.88	51150.92
550.08	50231.38
550.28	50645.07
550.48	50743.38
550.68	50866.25
550.88	50479.19
551.08	50464.85
551.279	50780.24
551.479	50331.73
551.679	50321.49
551.879	50112.6
552.079	50399.32
552.278	50241.62
552.478	50045.02
552.678	50411.6
552.878	50415.7
553.077	50309.21
553.277	49817.69
553.477	50473.04
553.676	49940.57
553.876	50018.39
554.076	49940.57
554.275	50171.99
554.475	49842.27
554.674	49823.84
554.874	49834.08
555.074	49580.13
555.273	50178.14
555.473	50124.89
555.672	49516.64
555.872	50188.38
556.071	49829.98
556.271	50040.92
556.47	49619.04
556.67	49121.38
556.869	49066.09
557.068	49436.77
557.268	49485.92
557.467	49199.21
557.667	49530.98
557.866	49424.48
558.065	49188.97
558.265	49162.34
558.464	48926.83
558.663	49481.83
558.863	48853.1
559.062	49731.68
559.261	48627.82
559.461	49506.4
559.66	48496.75
559.859	48515.19
560.058	48756.85
560.258	48701.55
560.457	48722.03
560.656	49162.34
560.855	48496.75
561.054	48556.14
561.253	48134.26
561.453	49039.47
561.652	48654.45
561.851	49094.76
562.05	48341.11
562.249	48101.5
562.448	48730.22
562.647	48547.95
562.846	48593.01
563.045	48523.38
563.244	47751.29
563.443	48173.17
563.642	47552.64
563.841	47784.06
564.04	47470.72
564.239	47900.79
564.438	47351.94
564.637	47685.76
564.836	47661.18
565.035	47085.7
565.234	47476.86
565.432	47251.59
565.631	47317.12
565.83	47284.36
566.029	46846.09
566.228	47046.79
566.427	46971.02
566.625	46710.92
566.824	46583.95
567.023	46950.54
567.222	46024.86
567.42	46651.53
567.619	46346.39
567.818	46622.86
568.016	46352.53
568.215	46454.93
568.414	45648.03
568.612	46387.35
568.811	46143.64
569.01	46209.17
569.208	45312.16
569.407	46219.41
569.605	45545.63
569.804	45707.42
570.002	45203.62
570.201	45699.23
570.4	45168.8
570.598	45279.39
570.797	44947.62
570.995	45498.53
571.193	45111.46
571.392	45029.54
571.59	44505.26
571.789	44581.04
571.987	44472.49
572.186	44675.24
572.384	44464.3
572.582	44503.21
572.781	44478.64
572.979	43872.44
573.177	44034.23
573.376	44411.06
573.574	43696.31
573.772	43940.02
573.971	43851.96
574.169	43661.5
574.367	43692.22
574.565	43571.39
574.763	43399.36
574.962	43456.7
575.16	42770.63
575.358	43348.16
575.556	43194.56
575.754	43219.14
575.952	42830.02
576.151	43094.21
576.349	42485.97
576.547	42889.41
576.745	42830.02
576.943	42782.92
577.141	42701
577.339	42418.38
577.537	42037.46
577.735	42334.42
577.933	41996.5
578.131	41822.42
578.329	42051.8
578.527	41838.81
578.725	41576.67
578.923	41724.12
579.121	41263.33
579.319	41236.7
579.516	41449.69
579.714	41001.19
579.912	41195.74
580.11	41189.6
580.308	41128.16
580.506	40827.11
580.704	40390.89
580.901	40913.13
581.099	40949.99
581.297	40683.75
581.495	39960.82
581.692	40753.38
581.89	39950.58
582.088	40298.73
582.285	39872.76
582.483	40237.3
582.681	40245.49
582.878	39917.81
583.076	39860.47
583.274	40048.88
583.471	39121.15
583.669	39360.76
583.866	39264.51
584.064	39557.37
584.262	38742.28
584.459	39289.09
584.657	38961.41
584.854	39082.24
585.052	38707.46
585.249	38750.47
585.447	38848.77
585.644	38304.01
585.841	38611.21
586.039	38701.32
586.236	37849.36
586.434	38037.78
586.631	38183.18
586.828	37990.67
587.026	37910.8
587.223	37949.71
587.42	37728.53
587.618	37927.19
587.815	37349.66
588.012	37525.78
588.21	36968.74
588.407	37611.8
588.604	36948.26
588.801	36677.93
588.999	36874.53
589.196	36931.87
589.393	36671.78
589.59	36661.54
589.787	36337.96
589.984	36518.18
590.182	35877.17
590.379	36172.08
590.576	36141.36
590.773	36090.16
590.97	35836.21
591.167	35924.27
591.364	35498.3
591.561	35815.73
591.758	35721.52
591.955	35311.93
592.152	35492.15
592.349	35219.77
592.546	35465.53
592.743	35195.2
592.94	34877.76
593.137	34687.3
593.334	35131.71
593.531	34515.27
593.727	35100.99
593.924	34453.83
594.121	34435.4
594.318	34410.82
594.515	34044.24
594.712	34564.42
594.908	33990.99
595.105	33984.85
595.302	33825.11
595.499	34013.52
595.696	33519.96
595.892	33337.69
596.089	33239.39
596.286	33290.59
596.482	33286.49
596.679	33229.15
596.876	33253.72
597.072	33057.12
597.269	33044.83
597.466	32733.54
597.662	32602.47
597.859	32563.56
598.055	32565.6
598.252	32248.17
598.448	32248.17
598.645	31887.73
598.841	31844.72
599.038	32258.41
599.234	31836.53
599.431	31596.92
599.627	31811.95
599.824	31943.02
600.02	31551.86
600.217	31508.85
600.413	31416.69
600.609	30859.65
600.806	31271.29
601.002	31562.1
601.198	31261.05
601.395	30798.21
601.591	30990.72
601.787	30744.96
601.984	30775.68
602.18	31097.21
602.376	30445.96
602.572	30538.12
602.769	30448
602.965	30439.81
603.161	30306.69
603.357	30218.63
603.553	30224.78
603.75	30177.67
603.946	29589.91
604.142	29694.35
604.338	29641.11
604.534	29890.96
604.73	29639.06
604.926	29573.52
605.122	29919.63
605.318	29092.25
605.514	29065.63
605.71	28912.03
605.906	29127.06
606.102	29012.38
606.298	28920.22
606.494	28778.91
606.69	28914.08
606.886	28600.74
607.082	28377.51
607.278	28780.96
607.474	28074.41
607.67	28453.28
607.866	28428.71
608.062	28352.93
608.257	28129.7
608.453	28340.64
608.649	28520.87
608.845	27752.88
609.041	27826.6
609.236	28336.55
609.432	28088.74
609.628	28002.73
609.824	27863.47
610.019	27679.15
610.215	27636.14
610.411	27941.29
610.606	27621.81
610.802	27726.25
610.998	27515.31
611.193	27335.09
611.389	27322.8
611.584	27341.24
611.78	27158.97
611.976	27312.56
612.171	27228.6
612.367	27097.53
612.562	27208.12
612.758	26857.92
612.953	26972.6
613.149	27070.9
613.344	26532.29
613.539	27232.69
613.735	27023.8
613.93	26943.93
614.126	26575.3
614.321	27048.38
614.517	26855.87
614.712	26753.47
614.907	26542.53
615.103	26550.72
615.298	26370.5
615.493	26726.85
615.688	26243.52
615.884	26663.36
616.079	26055.11
616.274	26436.03
616.47	26223.05
616.665	26335.68
616.86	26249.67
617.055	25958.86
617.25	25878.99
617.445	26268.1
617.641	25373.14
617.836	25825.74
618.031	25450.96
618.226	25850.31
618.421	25584.08
618.616	25803.21
618.811	24967.64
619.006	25567.7
619.201	24928.73
619.396	25301.46
619.591	24685.02
619.786	24836.57
619.981	24615.39
620.176	24588.77
620.371	24396.26
620.566	24635.87
620.761	24377.83
620.956	24392.16
621.151	23851.5
621.346	24076.77
621.541	23667.18
621.735	23833.07
621.93	23611.89
622.125	23728.62
622.32	23421.42
622.515	23411.18
622.709	23312.88
622.904	23081.46
623.099	22798.84
623.294	23179.76
623.488	22755.83
623.683	22874.62
623.878	22252.03
624.072	22557.18
624.267	22667.77
624.462	22487.55
624.656	22278.66
624.851	22321.66
625.046	21875.21
625.24	21737.99
625.435	21488.14
625.629	21680.65
625.824	21539.34
626.018	21219.86
626.213	21111.32
626.407	21365.26
626.602	21086.74
626.796	20781.59
626.991	20898.33
627.185	20781.59
627.38	20470.3
627.574	20417.05
627.768	20136.48
627.963	20398.62
628.157	19759.66
628.352	20236.83
628.546	19704.36
628.74	19831.33
628.935	19610.15
629.129	19802.66
629.323	19229.23
629.517	19294.77
629.712	19358.25
629.906	19354.16
630.1	18930.23
630.294	19147.31
630.489	18936.37
630.683	19237.42
630.877	18453.05
631.071	18620.99
631.265	18596.41
631.459	18477.63
631.653	18360.89
631.848	18526.78
632.042	18125.38
632.236	18534.97
632.43	17924.68
632.624	18082.37
632.818	17836.61
633.012	17717.83
633.206	17328.72
633.4	17492.55
633.594	17478.22
633.788	17179.22
633.982	17246.8
634.176	17363.53
634.369	16892.5
634.563	16855.64
634.757	16720.47
634.951	16929.36
635.145	16972.37
635.339	16853.59
635.533	16652.89
635.726	16339.55
635.92	16335.45
636.114	16384.6
636.308	16349.79
636.501	16218.72
636.695	16081.5
636.889	16038.5
637.083	15970.91
637.276	15952.48
637.47	15835.75
637.664	15512.17
637.857	15581.8
638.051	15714.92
638.244	15411.82
638.438	15485.55
638.632	15389.29
638.825	15172.21
639.019	15014.51
639.212	15026.8
639.406	14908.02
639.599	14815.86
639.793	14740.08
639.986	14586.49
640.18	14822
640.373	14543.48
640.567	14396.03
640.76	14297.72
640.954	14422.65
641.147	14402.17
641.34	13910.66
641.534	14250.62
641.727	14180.99
641.92	14113.41
642.114	13843.07
642.307	13949.57
642.5	13992.58
642.694	13615.75
642.887	13564.55
643.08	13535.88
643.273	13433.48
643.467	13470.34
643.66	13374.09
643.853	13523.59
644.046	13345.42
644.239	13286.03
644.432	13177.48
644.626	13025.93
644.819	12894.86
645.012	13087.37
645.205	13075.09
645.398	12817.04
645.591	12786.32
645.784	12681.88
645.977	12421.78
646.17	12520.09
646.363	12370.58
646.556	12249.75
646.749	12429.98
646.942	12507.8
647.135	12165.79
647.328	12067.49
647.521	12079.77
647.714	12071.58
647.907	12171.93
648.099	11801.25
648.292	12026.53
648.485	11704.99
648.678	11641.51
648.871	11408.04
649.064	11530.92
649.256	11608.74
649.449	11508.39
649.642	11373.22
649.835	11467.43
650.027	11211.43
650.22	11156.14
650.413	11035.31
650.605	11115.18
650.798	11178.67
650.991	11125.42
651.183	10967.73
651.376	10848.94
651.568	10949.29
651.761	10730.16
651.954	10678.96
652.146	10709.68
652.339	10582.71
652.531	10564.28
652.724	10318.52
652.916	10255.03
653.109	10535.6
653.301	10496.69
653.494	10332.86
653.686	10199.74
653.879	10369.72
654.071	10046.14
654.263	10046.14
654.456	10130.11
654.648	10048.19
654.84	9935.55
655.033	9882.3
655.225	9669.31
655.417	9773.76
655.61	9734.85
655.802	9845.44
655.994	9644.74
656.186	9503.43
656.379	9544.39
656.571	9671.36
656.763	9550.53
656.955	9355.97
657.148	9419.46
657.34	9390.79
657.532	9265.86
657.724	9153.23
657.916	9243.34
658.108	9206.47
658.3	9292.49
658.492	9155.27
658.684	8866.51
658.876	8737.49
659.068	9124.55
659.26	8669.91
659.452	8823.5
659.644	8674
659.836	8684.24
660.028	8735.44
660.22	8360.66
660.412	8583.89
660.604	8434.39
660.796	8547.03
660.988	8377.05
661.18	8381.14
661.372	8422.1
661.563	8227.54
661.755	8321.75
661.947	8239.83
662.139	8135.39
662.331	8051.42
662.522	8080.09
662.714	8022.75
662.906	8110.81
663.097	8131.29
663.289	7809.76
663.481	7869.15
663.673	7774.94
663.864	7824.09
664.056	7883.49
664.247	7736.03
664.439	7662.3
664.631	7635.68
664.822	7682.78
665.014	7686.88
665.205	7625.44
665.397	7510.75
665.588	7510.75
665.78	7383.78
665.971	7516.9
666.163	7451.36
666.354	7445.22
666.546	7287.53
666.737	7217.9
666.929	7195.37
667.12	7103.21
667.311	7150.31
667.503	6918.89
667.694	7260.9
667.885	7140.07
668.077	7308.01
668.268	7000.81
668.459	7025.39
668.651	6894.32
668.842	6980.33
669.033	6765.29
669.224	6806.25
669.416	6939.37
669.607	6910.7
669.798	6783.73
669.989	6922.99
670.18	6740.72
670.371	6773.49
670.563	6574.83
670.754	6574.83
670.945	6443.76
671.136	6685.42
671.327	6519.54
671.518	6474.48
671.709	6515.44
671.9	6497.01
672.091	6355.7
672.282	6492.91
672.473	6431.48
672.664	6398.71
672.855	6281.97
673.046	6423.28
673.237	6314.74
673.428	6222.58
673.619	6355.7
673.809	6120.18
674	5968.63
674.191	6241.01
674.382	6056.7
674.573	6015.74
674.764	6036.22
674.954	6216.44
675.145	5980.92
675.336	6032.12
675.527	5964.54
675.717	5989.11
675.908	6079.22
676.099	5927.67
676.289	6015.74
676.48	5899
676.671	5962.49
676.861	6040.31
677.052	5849.85
677.243	5659.39
677.433	5589.76
677.624	5942.01
677.814	5733.12
678.005	5767.93
678.195	5737.21
678.386	5669.63
678.576	5700.35
678.767	5567.23
678.957	5772.03
679.148	5569.28
679.338	5659.39
679.529	5616.38
679.719	5561.09
679.909	5556.99
680.1	5591.81
680.29	5620.48
680.481	5632.77
680.671	5640.96
680.861	5481.22
681.052	5436.16
681.242	5427.97
681.432	5540.61
681.622	5444.35
681.813	5231.37
682.003	5387.01
682.193	5272.32
682.383	5475.07
682.573	5262.09
682.764	5282.56
682.954	5206.79
683.144	5348.1
683.334	5374.72
683.524	5262.09
683.714	5298.95
683.904	5196.55
684.094	5335.81
684.284	5237.51
684.474	5307.14
684.664	5206.79
684.854	5126.92
685.044	5264.13
685.234	5214.98
685.424	5112.58
685.614	4956.94
685.804	5100.3
685.994	5270.28
686.184	5192.45
686.374	5063.43
686.564	4995.85
686.753	4881.16
686.943	4883.21
687.133	5008.14
687.323	4815.63
687.513	5069.58
687.702	4846.35
687.892	4969.23
688.082	4815.63
688.272	4961.03
688.461	4819.72
688.651	4795.15
688.841	4733.71
689.03	4715.28
689.22	4614.93
689.41	4727.57
689.599	4725.52
689.789	4668.17
689.979	4518.67
690.168	4567.82
690.358	4631.31
690.547	4494.1
690.737	4592.4
690.926	4510.48
691.116	4510.48
691.305	4410.13
691.495	4496.14
691.684	4260.63
691.874	4309.78
692.063	4401.94
692.252	4281.11
692.442	4332.31
692.631	4367.12
692.82	4354.83
693.01	4258.58
693.199	4238.1
693.388	4168.47
693.578	4242.2
693.767	4207.38
693.956	4197.14
694.146	4102.93
694.335	4141.85
694.524	4225.81
694.713	3990.3
694.902	4066.07
695.092	4205.33
695.281	4092.69
695.47	4119.32
695.659	4047.64
695.848	4066.07
696.037	4059.93
696.226	3959.58
696.415	3896.09
696.604	3963.67
696.793	4000.54
696.982	3773.21
697.171	4049.69
697.36	4027.16
697.549	3887.9
697.738	3797.79
697.927	3801.88
698.116	3916.57
698.305	3754.78
698.494	3736.35
698.683	3709.72
698.872	3951.39
699.061	3722.01
699.25	3670.81
699.438	3668.77
699.627	3762.97
699.816	3797.79
700.005	3693.34
700.193	3765.02
700.382	3867.42
700.571	3689.25
700.76	3697.44
700.948	3744.54
701.137	3660.57
701.326	3826.46
701.514	3709.72
701.703	3592.99
701.892	3715.87
702.08	3597.09
702.269	3623.71
702.457	3679.01
702.646	3715.87
702.834	3691.29
703.023	3521.31
703.212	3603.23
703.4	3631.9
703.589	3670.81
703.777	3539.74
703.965	3572.51
704.154	3666.72
704.342	3549.98
704.531	3590.94
704.719	3578.65
704.907	3689.25
705.096	3554.08
705.284	3412.77
705.472	3586.85
705.661	3615.52
705.849	3613.47
706.037	3560.22
706.226	3439.39
706.414	3513.12
706.602	3457.82
706.79	3539.74
706.979	3443.49
707.167	3418.91
707.355	3302.18
707.543	3414.82
707.731	3541.79
707.919	3447.58
708.107	3398.43
708.296	3388.19
708.484	3468.06
708.672	3400.48
708.86	3447.58
709.048	3509.02
709.236	3437.34
709.424	3408.67
709.612	3275.56
709.8	3293.99
709.988	3324.71
710.176	3472.16
710.364	3474.21
710.551	3347.23
710.739	3398.43
710.927	3347.23
711.115	3380
711.303	3463.97
711.491	3451.68
711.679	3363.62
711.866	3181.35
712.054	3380
712.242	3433.25
712.43	3390.24
712.617	3367.71
712.805	3273.51
712.993	3334.95
713.181	3296.04
713.368	3263.27
713.556	3328.8
713.744	3269.41
713.931	3318.56
714.119	3353.38
714.306	3380
714.494	3314.47
714.682	3279.65
714.869	3277.6
715.057	3220.26
715.244	3275.56
715.432	3336.99
715.619	3345.19
715.807	3222.31
715.994	3353.38
716.182	3222.31
716.369	3216.16
716.556	3146.53
716.744	3167.01
716.931	3300.13
717.119	3310.37
717.306	3232.55
717.493	3138.34
717.681	3345.19
717.868	3277.6
718.055	3240.74
718.242	3179.3
718.43	3181.35
718.617	3216.16
718.804	3228.45
718.991	3250.98
719.179	3234.6
719.366	3107.62
719.553	3199.78
719.74	3162.92
719.927	3117.86
720.114	3279.65
720.301	3148.58
720.488	3154.73
720.676	3205.92
720.863	3189.54
721.05	3179.3
721.237	3205.92
721.424	3230.5
721.611	3263.27
721.798	3083.05
721.985	3052.33
722.172	3091.24
722.358	3179.3
722.545	3140.39
722.732	3124.01
722.919	3160.87
723.106	3064.61
723.293	3029.8
723.48	3019.56
723.667	3232.55
723.853	3150.63
724.04	3033.9
724.227	3214.12
724.414	3117.86
724.6	3275.56
724.787	3140.39
724.974	3164.97
725.161	3060.52
725.347	3089.19
725.534	3136.29
725.72	3128.1
725.907	3259.17
726.094	3255.08
726.28	3068.71
726.467	3124.01
726.653	3119.91
726.84	3130.15
727.027	3242.79
727.213	3033.9
727.4	3246.88
727.586	3107.62
727.773	3066.66
727.959	2982.7
728.145	3207.97
728.332	3025.7
728.518	3183.4
728.705	3189.54
728.891	3181.35
729.077	3115.81
729.264	3269.41
729.45	3013.42
729.636	3351.33
729.823	3121.96
730.009	3119.91
730.195	3181.35
730.382	3115.81
730.568	3070.76
730.754	3136.29
730.94	3175.2
731.126	3103.53
731.313	3148.58
731.499	2994.98
731.685	3113.77
731.871	3228.45
732.057	3277.6
732.243	3246.88
732.429	3271.46
732.615	3111.72
732.801	3195.68
732.987	3109.67
733.173	3105.57
733.359	3255.08
733.545	3101.48
733.731	3150.63
733.917	3183.4
734.103	3037.99
734.289	3154.73
734.475	3136.29
734.661	3242.79
734.847	3138.34
735.033	3091.24
735.219	3183.4
735.404	3214.12
735.59	3189.54
735.776	3152.68
735.962	3152.68
736.148	3103.53
736.333	3097.38
736.519	3136.29
736.705	3275.56
736.89	3154.73
737.076	3103.53
737.262	3062.57
737.447	3152.68
737.633	3169.06
737.819	3242.79
738.004	3236.64
738.19	3173.16
738.375	3140.39
738.561	3089.19
738.747	3132.2
738.932	3091.24
739.118	3132.2
739.303	3062.57
739.489	3205.92
739.674	3107.62
739.859	3246.88
740.045	3087.14
740.23	3099.43
740.416	3056.42
740.601	3101.48
740.786	3060.52
740.972	3109.67
741.157	3005.22
741.342	3083.05
741.528	3177.25
741.713	2997.03
741.898	3054.37
742.084	3015.46
742.269	2978.6
742.454	3111.72
742.639	3216.16
742.824	3021.61
743.01	3050.28
743.195	3083.05
743.38	2925.35
743.565	2896.68
743.75	3029.8
743.935	2861.87
744.12	3062.57
744.305	2904.87
744.49	2837.29
744.675	2999.08
744.86	2964.26
745.045	2894.63
745.23	2904.87
745.415	2915.11
745.6	2841.39
745.785	2872.11
745.97	3011.37
746.155	2927.4
746.34	2894.63
746.525	2796.33
746.71	2847.53
746.895	2710.32
747.079	2818.86
747.264	2861.87
747.449	2779.95
747.634	2691.88
747.819	2894.63
748.003	2673.45
748.188	2728.75
748.373	2706.22
748.557	2638.64
748.742	2612.01
748.927	2736.94
749.111	2636.59
749.296	2599.73
749.481	2659.12
749.665	2536.24
749.85	2491.18
750.034	2695.98
750.219	2595.63
750.404	2640.69
750.588	2558.77
750.773	2460.46
750.957	2558.77
751.141	2513.71
751.326	2511.66
751.51	2450.22
751.695	2456.37
751.879	2542.38
752.064	2581.29
752.248	2591.53
752.432	2458.42
752.617	2411.31
752.801	2546.48
752.985	2356.02
753.17	2413.36
753.354	2437.94
753.538	2306.87
753.722	2368.31
753.907	2270
754.091	2155.32
754.275	2335.54
754.459	2267.95
754.643	2233.14
754.828	2122.55
755.012	2169.65
755.196	2145.08
755.38	2257.71
755.564	2272.05
755.748	2122.55
755.932	2194.23
756.116	2130.74
756.3	2108.21
756.484	2089.78
756.668	2108.21
756.852	2054.97
757.036	2126.64
757.22	2048.82
757.404	2079.54
757.588	1995.57
757.772	1948.47
757.956	2122.55
758.14	1977.14
758.323	2005.81
758.507	2009.91
758.691	2014.01
758.875	2018.1
759.059	1913.66
759.242	1946.42
759.426	1878.84
759.61	1923.9
759.794	1887.03
759.977	1889.08
760.161	1923.9
760.345	1798.97
760.528	1815.35
760.712	1841.98
760.895	1882.94
761.079	1778.49
761.263	1794.87
761.446	1807.16
761.63	1876.79
761.813	1807.16
761.997	1762.11
762.18	1811.26
762.364	1776.44
762.547	1768.25
762.731	1764.15
762.914	1762.11
763.098	1770.3
763.281	1743.67
763.464	1639.23
763.648	1715
763.831	1669.95
764.015	1653.56
764.198	1600.32
764.381	1788.73
764.564	1606.46
764.748	1686.33
764.931	1719.1
765.114	1641.28
765.297	1669.95
765.481	1651.52
765.664	1592.13
765.847	1530.69
766.03	1563.45
766.213	1598.27
766.397	1688.38
766.58	1481.53
766.763	1659.71
766.946	1512.25
767.129	1520.45
767.312	1477.44
767.495	1524.54
767.678	1536.83
767.861	1571.65
768.044	1461.06
768.227	1444.67
768.41	1526.59
768.593	1434.43
768.776	1536.83
768.959	1428.29
769.142	1471.29
769.324	1497.92
769.507	1520.45
769.69	1436.48
769.873	1448.77
770.056	1561.41
770.239	1426.24
770.421	1471.29
770.604	1364.8
770.787	1499.97
770.97	1399.62
771.152	1379.14
771.335	1440.58
771.518	1309.51
771.7	1516.35
771.883	1354.56
772.066	1188.68
772.248	1327.94
772.431	1336.13
772.613	1329.99
772.796	1344.32
772.978	1174.34
773.161	1336.13
773.343	1243.97
773.526	1200.96
773.708	1205.06
773.891	1196.87
774.073	1317.7
774.256	1221.44
774.438	1336.13
774.621	1221.44
774.803	1166.15
774.985	1192.77
775.168	1286.98
775.35	1241.92
775.532	1131.33
775.715	1268.55
775.897	1172.29
776.079	1184.58
776.261	1233.73
776.444	1147.72
776.626	1127.24
776.808	1172.29
776.99	1172.29
777.173	1114.95
777.355	1076.04
777.537	1112.9
777.719	1121.09
777.901	1131.33
778.083	1039.17
778.265	1024.84
778.447	1088.32
778.629	1102.66
778.811	1030.98
778.993	951.11
779.175	1076.04
779.357	1071.94
779.539	1061.7
779.721	1026.89
779.903	1002.31
780.085	863.05
780.267	916.3
780.449	908.1
780.631	1006.41
780.812	957.25
780.994	924.49
781.176	998.21
781.358	967.49
781.54	1008.45
781.721	850.76
781.903	930.63
782.085	889.67
782.267	824.14
782.448	856.9
782.63	955.21
782.812	879.43
782.993	951.11
783.175	858.95
783.357	881.48
783.538	834.38
783.72	842.57
783.901	783.18
784.083	867.14
784.264	766.79
784.446	752.46
784.627	705.35
784.809	789.32
784.99	852.81
785.172	742.22
785.353	795.47
785.535	752.46
785.716	779.08
785.897	783.18
786.079	684.87
786.26	709.45
786.441	729.93
786.623	695.11
786.804	693.07
786.985	654.16
787.167	746.31
787.348	658.25
787.529	615.24
787.71	770.89
787.891	576.33
788.073	654.16
788.254	623.44
788.435	680.78
788.616	693.07
788.797	629.58
788.978	678.73
789.159	621.39
789.34	672.59
789.522	576.33
789.703	668.49
789.884	572.24
790.065	578.38
790.246	650.06
790.427	590.67
790.607	551.76
790.788	531.28
790.969	502.61
791.15	557.9
791.331	498.51
791.512	559.95
791.693	549.71
791.874	572.24
792.054	582.48
792.235	510.8
792.416	494.41
792.597	521.04
792.778	484.17
792.958	551.76
793.139	486.22
793.32	471.89
793.5	529.23
793.681	514.89
793.862	516.94
794.042	467.79
794.223	484.17
794.404	414.54
794.584	535.37
794.765	449.36
794.945	512.85
795.126	508.75
795.306	486.22
795.487	494.41
795.667	523.09
795.848	469.84
796.028	596.81
796.209	486.22
796.389	518.99
796.57	465.74
796.75	459.6
796.93	465.74
797.111	416.59
797.291	414.54
797.471	408.4
797.652	414.54
797.832	375.63
798.012	473.93
798.192	439.12
798.373	373.58
798.553	461.65
798.733	432.97
798.913	383.82
799.093	473.93
799.274	473.93
799.454	516.94
799.634	435.02
799.814	492.37
799.994	439.12
800.174	410.45
800.354	408.4
800.534	363.34
800.714	408.4
800.894	349.01
801.074	277.33
801.254	269.14
801.434	475.98
801.614	422.73
801.794	357.2
801.974	977.73
802.154	435.02
802.334	463.69
802.514	275.28
802.693	373.58
802.873	363.34
803.053	357.2
803.233	422.73
803.413	326.48
803.592	289.62
803.772	383.82
803.952	285.52
804.131	359.25
804.311	336.72
804.491	363.34
804.67	217.94
804.85	344.91
805.03	351.06
805.209	385.87
805.389	357.2
805.568	324.43
805.748	256.85
805.928	344.91
806.107	375.63
806.287	267.09
806.466	416.59
806.646	371.54
806.825	344.91
807.004	306
807.184	271.19
807.363	238.42
807.543	346.96
807.722	328.53
807.901	306
808.081	332.62
808.26	234.32
808.439	295.76
808.619	273.23
808.798	293.71
808.977	322.38
809.156	297.81
809.336	340.82
809.515	301.9
809.694	265.04
809.873	244.56
810.052	238.42
810.231	289.62
810.411	306
810.59	310.1
810.769	291.66
810.948	291.66
811.127	267.09
811.306	265.04
811.485	306
811.664	318.29
811.843	279.38
812.022	285.52
812.201	275.28
812.38	234.32
812.559	273.23
812.737	285.52
812.916	193.36
813.095	250.71
813.274	170.83
813.453	244.56
813.632	265.04
813.811	228.18
813.989	201.55
814.168	213.84
814.347	238.42
814.526	185.17
814.704	285.52
814.883	250.71
815.062	240.47
815.24	197.46
815.419	129.88
815.598	205.65
815.776	160.59
815.955	226.13
816.133	150.36
816.312	232.27
816.49	254.8
816.669	254.8
816.847	203.6
817.026	213.84
817.204	144.21
817.383	213.84
817.561	121.68
817.74	232.27
817.918	252.75
818.097	224.08
818.275	193.36
818.453	277.33
818.632	105.3
818.81	193.36
818.988	209.75
819.167	242.51
819.345	121.68
819.523	228.18
819.701	205.65
819.879	211.79
820.058	150.36
820.236	150.36
820.414	170.83
820.592	217.94
820.77	234.32
820.948	154.45
821.127	193.36
821.305	234.32
821.483	103.25
821.661	121.68
821.839	176.98
822.017	176.98
822.195	150.36
822.373	181.07
822.551	150.36
822.729	146.26
822.907	142.16
823.085	246.61
823.262	109.4
823.44	58.2
823.618	146.26
823.796	136.02
823.974	181.07
824.152	154.45
824.329	179.03
824.507	154.45
824.685	142.16
824.863	140.12
825.04	105.3
825.218	107.35
825.396	76.63
825.574	119.64
825.751	138.07
825.929	222.03
826.107	146.26
826.284	123.73
826.462	156.5
826.639	111.44
826.817	174.93
826.994	183.12
827.172	103.25
827.349	250.71
827.527	160.59
827.704	144.21
827.882	166.74
828.059	136.02
828.237	133.97
828.414	107.35
828.591	140.12
828.769	166.74
828.946	142.16
829.124	195.41
829.301	168.79
829.478	66.39
829.655	162.64
829.833	138.07
830.01	82.77
830.187	195.41
830.364	179.03
830.542	160.59
830.719	170.83
830.896	74.58
831.073	144.21
831.25	176.98
831.427	103.25
831.604	93.01
831.782	136.02
831.959	164.69
832.136	109.4
832.313	66.39
832.49	97.11
832.667	148.31
832.844	72.53
833.021	125.78
833.198	72.53
833.374	60.24
833.551	78.68
833.728	131.92
833.905	146.26
834.082	45.91
834.259	97.11
834.436	123.73
834.612	93.01
834.789	107.35
834.966	37.72
835.143	154.45
835.319	60.24
835.496	146.26
835.673	105.3
835.85	205.65
836.026	113.49
836.203	101.2
836.38	72.53
836.556	129.88
836.733	127.83
836.909	195.41
837.086	131.92
837.262	54.1
837.439	33.62
837.616	115.54
837.792	144.21
837.968	58.2
838.145	9.05
838.321	25.43
838.498	129.88
838.674	101.2
838.851	43.86
839.027	133.97
839.203	158.55
839.38	121.68
839.556	82.77
839.732	72.53
839.909	103.25
840.085	62.29
840.261	129.88
840.437	93.01
840.614	66.39
840.79	101.2
840.966	142.16
841.142	168.79
841.318	39.76
841.494	103.25
841.671	95.06
841.847	-21.67
842.023	-54.44
842.199	140.12
842.375	66.39
842.551	37.72
842.727	140.12
842.903	148.31
843.079	80.72
843.255	133.97
843.431	58.2
843.607	68.44
843.783	50
843.959	86.87
844.134	68.44
844.31	66.39
844.486	13.14
844.662	70.48
844.838	68.44
845.013	27.48
845.189	17.24
845.365	95.06
845.541	54.1
845.716	86.87
845.892	62.29
846.068	90.96
846.244	64.34
846.419	58.2
846.595	-9.39
846.77	90.96
846.946	86.87
847.122	97.11
847.297	60.24
847.473	105.3
847.648	86.87
847.824	23.38
847.999	80.72
848.175	54.1
848.35	129.88
848.526	103.25
848.701	121.68
848.876	107.35
849.052	86.87
849.227	15.19
849.403	52.05
849.578	35.67
849.753	66.39
849.929	19.29
850.104	23.38
850.279	7
850.454	33.62
850.63	7
850.805	95.06
850.98	84.82
851.155	82.77
851.33	74.58
851.505	13.14
851.681	76.63
851.856	35.67
852.031	72.53
852.206	58.2
852.381	2.9
852.556	74.58
852.731	97.11
852.906	47.96
853.081	101.2
853.256	52.05
853.431	86.87
853.606	25.43
853.781	97.11
853.956	13.14
854.131	60.24
854.305	19.29
854.48	23.38
854.655	19.29
854.83	70.48
855.005	54.1
855.18	-3.24
855.354	86.87
855.529	115.54
855.704	-9.39
855.879	95.06
856.053	-25.77
856.228	76.63
856.403	7
856.577	58.2
856.752	-68.78
856.926	54.1
857.101	56.15
857.276	-50.35
857.45	70.48
857.625	58.2
857.799	56.15
857.974	47.96
858.148	-62.63
858.323	-11.43
858.497	0.85
858.672	33.62
858.846	2.9
859.02	74.58
859.195	-17.58
859.369	23.38
859.543	37.72
859.718	-5.29
859.892	90.96
860.066	66.39
860.241	60.24
860.415	37.72
860.589	41.81
860.763	35.67
860.938	41.81
861.112	121.68
861.286	-5.29
861.46	13.14
861.634	-19.63
861.808	33.62
861.982	0.85
862.157	58.2
862.331	-38.06
862.505	29.52
862.679	-19.63
862.853	82.77
863.027	62.29
863.201	119.64
863.375	37.72
863.549	-9.39
863.722	-15.53
863.896	82.77
864.07	60.24
864.244	84.82
864.418	62.29
864.592	105.3
864.766	56.15
864.939	66.39
865.113	-40.11
865.287	72.53
865.461	54.1
865.634	45.91
865.808	90.96
865.982	35.67
866.156	-23.72
866.329	-15.53
866.503	80.72
866.676	-40.11
866.85	-56.49
867.024	-1.19
867.197	27.48
867.371	74.58
867.544	-1.19
867.718	-13.48
867.891	4.95
868.065	-3.24
868.238	-21.67
868.412	90.96
868.585	31.57
868.759	39.76
868.932	37.72
869.105	-5.29
869.279	2.9
869.452	35.67
869.625	25.43
869.799	43.86
869.972	58.2
870.145	-7.34
870.319	72.53
870.492	39.76
870.665	-40.11
870.838	41.81
871.011	-19.63
871.185	-9.39
871.358	2.9
871.531	86.87
871.704	31.57
871.877	17.24
872.05	15.19
872.223	-50.35
872.396	-5.29
872.569	47.96
872.742	-44.2
872.915	54.1
873.088	31.57
873.261	9.05
873.434	0.85
873.607	88.92
873.78	84.82
873.953	-19.63
874.126	-36.01
874.299	-29.87
874.471	-38.06
874.644	43.86
874.817	21.33
874.99	23.38
875.163	-5.29
875.335	-23.72
875.508	23.38
875.681	82.77
875.853	-11.43
876.026	56.15
876.199	37.72
876.371	9.05
876.544	-38.06
876.717	-25.77
876.889	-5.29
877.062	54.1
877.234	0.85
877.407	-9.39
877.579	7
877.752	17.24
877.924	-29.87
878.097	-13.48
878.269	-17.58
878.442	23.38
878.614	-11.43
878.786	7
878.959	-29.87
879.131	-21.67
879.303	-44.2
879.476	25.43
879.648	62.29
879.82	68.44
879.993	-56.49
880.165	7
880.337	9.05
880.509	25.43
880.681	-93.35
880.854	41.81
881.026	54.1
881.198	109.4
881.37	33.62
881.542	-72.87
881.714	-72.87
881.886	-9.39
882.058	2.9
882.23	-40.11
882.402	-72.87
882.574	21.33
882.746	66.39
882.918	29.52
883.09	2.9
883.262	-70.83
883.434	-79.02
883.606	4.95
883.778	4.95
883.95	17.24
884.122	-13.48
884.293	58.2
884.465	-11.43
884.637	27.48
884.809	31.57
884.98	35.67
885.152	9.05
885.324	70.48
885.496	2.9
885.667	58.2
885.839	19.29
886.011	31.57
886.182	4.95
886.354	84.82
886.525	39.76
886.697	11.09
886.869	-25.77
887.04	-52.39
887.212	39.76
887.383	58.2
887.555	13.14
887.726	-70.83
887.897	21.33
888.069	37.72
888.24	25.43
888.412	64.34
888.583	7
888.754	-38.06
888.926	15.19
889.097	-15.53
889.268	-54.44
889.44	58.2
889.611	-48.3
889.782	-40.11
889.953	25.43
890.125	136.02
890.296	-40.11
890.467	41.81
890.638	-9.39
890.809	29.52
890.98	-29.87
891.151	15.19
891.323	-7.34
891.494	41.81
891.665	86.87
891.836	64.34
892.007	78.68
892.178	-1.19
892.349	70.48
892.52	17.24
892.691	-38.06
892.862	7
893.032	7
893.203	-9.39
893.374	-27.82
893.545	33.62
893.716	-11.43
893.887	43.86
894.057	-56.49
894.228	23.38
894.399	13.14
894.57	7
894.74	-1.19
894.911	-60.59
895.082	62.29
895.253	-3.24
895.423	15.19
895.594	84.82
895.764	11.09
895.935	-56.49
896.106	23.38
896.276	-19.63
896.447	19.29
896.617	-40.11
896.788	-29.87
896.958	-7.34
897.129	-58.54
897.299	-25.77
897.47	-52.39
897.64	39.76
897.81	-31.91
897.981	50
898.151	9.05
898.322	-29.87
898.492	11.09
898.662	2.9
898.832	9.05
899.003	-40.11
899.173	-29.87
899.343	-36.01
899.513	-27.82
